DTS Sentinel unit serial number:	SN413079Multiplexer serial number:	ORYXHardware model number:	OX4-SRSoftware version number:	ORYX F/W v4.00 Oryx Data Collector v3.7.2.0data status	okinstallation	princeton_trtdifferential loss correction	single-endedforward channel	channel 3reverse channel	N/Adate	2019/09/13time	18:36:35forward acquisition time	60.00reverse acquisition time	0.00gamma	496.2192k internal	0.2317k external	0.2317temperature offset calibration	1.0113default loss term (dB/km)	0.3790temperature slope calibration	1.0000multiplexer offset coefficient	1.0000multiplexer slope coefficient	1.0000fibre end	0.00T internal ref (°C)	33.06T ext. ref 1 (°C)	4.20T ext. ref 2 (°C)	26.14length (m)	temperature (°C)	Stokes	anti-Stokes-747.200	-24.272	0.136	0.082
-746.185	259.027	-0.229	0.400
-745.171	800.000	-0.079	-0.321
-744.156	-95.212	0.054	-0.015
-743.142	-200.000	0.057	-0.327
-742.127	-64.573	-0.176	-0.072
-741.112	-52.000	0.169	0.080
-740.098	800.000	0.106	0.449
-739.083	427.852	-0.131	0.285
-738.069	-17.304	0.078	-0.050
-737.054	391.850	0.074	0.155
-736.039	-200.000	0.027	0.254
-735.025	55.628	0.221	0.217
-734.010	-169.074	-0.111	0.004
-732.996	18.818	0.322	-0.261
-731.981	-99.431	-0.151	0.038
-730.966	90.653	0.124	0.141
-729.952	-30.836	0.182	0.104
-728.937	103.991	-0.235	0.280
-727.923	64.332	0.207	-0.211
-726.908	-38.613	-0.181	-0.097
-725.894	-200.000	0.038	-0.370
-724.879	-200.000	0.019	0.257
-723.864	800.000	0.058	-0.218
-722.850	-200.000	-0.061	-0.463
-721.835	-150.078	-0.210	0.017
-720.821	26.955	-0.293	-0.248
-719.806	-158.882	-0.418	0.024
-718.791	354.961	-0.188	-0.378
-717.777	800.000	0.068	-0.239
-716.762	-44.752	0.216	0.109
-715.748	-24.405	-0.106	0.064
-714.733	91.598	-0.099	-0.112
-713.718	-173.086	0.330	0.010
-712.704	-106.496	0.198	-0.045
-711.689	751.355	0.079	0.216
-710.675	-133.503	-0.083	-0.011
-709.660	-153.222	-0.503	-0.036
-708.645	-78.023	-0.172	-0.060
-707.631	-35.501	0.183	0.101
-706.616	204.893	-0.168	0.263
-705.602	-200.000	-0.015	0.085
-704.587	-89.564	-0.443	-0.132
-703.572	-200.000	-0.049	0.434
-702.558	-200.000	0.014	0.101
-701.543	-163.397	0.215	-0.010
-700.529	-64.691	-0.354	0.145
-699.514	292.316	-0.077	-0.142
-698.499	357.966	0.030	-0.061
-697.485	-136.703	0.197	-0.023
-696.470	-200.000	-0.045	-0.224
-695.456	-120.713	-0.083	-0.014
-694.441	-200.000	-0.001	-0.145
-693.426	32.894	0.132	0.115
-692.412	-148.233	-0.155	0.013
-691.397	-200.000	0.006	-0.245
-690.383	-81.508	-0.139	-0.046
-689.368	-200.000	-0.009	-0.246
-688.354	800.000	0.142	-0.489
-687.339	800.000	-0.032	0.101
-686.324	223.916	-0.034	0.056
-685.310	-200.000	-0.004	0.112
-684.295	-42.124	0.269	-0.139
-683.281	4.221	0.227	0.168
-682.266	15.340	0.136	-0.108
-681.251	-137.626	0.332	0.038
-680.237	104.540	-0.144	-0.171
-679.222	-93.679	0.154	-0.043
-678.208	-47.286	0.238	0.117
-677.193	-17.673	-0.145	-0.092
-676.178	800.000	0.089	-0.302
-675.164	-23.167	-0.024	-0.015
-674.149	215.576	-0.120	-0.193
-673.135	-112.633	0.137	0.027
-672.120	-200.000	0.074	-0.386
-671.105	-73.549	0.383	-0.141
-670.091	-66.348	0.141	-0.056
-669.076	22.967	-0.082	-0.068
-668.062	212.273	-0.244	-0.388
-667.047	103.432	0.163	0.194
-666.032	-200.000	-0.061	-0.365
-665.018	95.836	0.096	0.111
-664.003	-200.000	0.044	0.341
-662.989	-152.585	-0.334	0.024
-661.974	-94.576	-0.504	0.139
-660.959	-159.908	0.571	-0.032
-659.945	-17.883	-0.140	0.088
-658.930	48.545	0.262	0.248
-657.916	104.224	0.049	-0.058
-656.901	-5.941	-0.141	-0.097
-655.886	46.253	-0.318	-0.297
-654.872	-200.000	0.006	0.317
-653.857	-67.103	0.208	0.083
-652.843	148.867	-0.133	0.181
-651.828	-200.000	0.015	-0.104
-650.814	800.000	-0.107	-0.412
-649.799	96.712	-0.277	0.320
-648.784	-43.520	-0.357	-0.182
-647.770	71.655	0.090	-0.095
-646.755	800.000	-0.107	-0.435
-645.741	206.017	-0.074	-0.116
-644.726	376.281	-0.067	0.138
-643.711	-0.641	-0.068	0.049
-642.697	-185.414	0.299	0.005
-641.682	-59.271	0.568	0.247
-640.668	62.363	-0.177	0.178
-639.653	-92.023	0.249	-0.071
-638.638	-200.000	0.091	0.496
-637.624	730.905	0.041	0.111
-636.609	-42.439	0.121	0.062
-635.595	-200.000	-0.091	0.000
-634.580	-56.688	-0.217	-0.097
-633.565	-177.343	-0.323	-0.008
-632.551	-116.480	0.247	-0.046
-631.536	-52.614	0.124	-0.058
-630.522	-200.000	0.034	-0.220
-629.507	-18.092	-0.223	-0.141
-628.492	-200.000	0.024	-0.198
-627.478	-143.215	-0.341	0.033
-626.463	-68.882	-0.226	0.088
-625.449	800.000	0.080	-0.240
-624.434	-200.000	-0.022	-0.242
-623.419	267.618	-0.238	-0.420
-622.405	-127.812	0.316	0.046
-621.390	-136.108	-0.032	-0.004
-620.376	-77.124	-0.259	0.091
-619.361	38.614	-0.203	0.183
-618.346	-171.267	0.211	0.007
-617.332	306.244	-0.144	0.271
-616.317	-200.000	-0.021	-0.133
-615.303	393.779	0.074	-0.155
-614.288	262.458	0.090	0.156
-613.273	-32.059	0.327	0.185
-612.259	13.570	0.037	-0.029
-611.244	-200.000	-0.011	-0.164
-610.230	43.061	-0.100	0.092
-609.215	119.339	0.285	-0.355
-608.201	-200.000	-0.011	-0.116
-607.186	-108.045	-0.214	0.047
-606.171	101.701	-0.126	-0.148
-605.157	-200.000	0.006	-0.127
-604.142	663.138	0.141	-0.366
-603.128	-170.476	-0.182	-0.006
-602.113	-200.000	0.025	0.112
-601.098	-128.644	0.047	0.007
-600.084	-200.000	0.006	0.090
-599.069	282.034	-0.237	-0.427
-598.055	-86.216	0.216	0.067
-597.040	-108.809	0.145	-0.031
-596.025	-5.886	0.158	0.109
-595.011	-200.000	-0.008	-0.110
-593.996	172.956	0.195	0.283
-592.982	-114.873	-0.099	-0.019
-591.967	130.796	0.068	-0.088
-590.952	26.828	-0.265	0.223
-589.938	-200.000	0.022	0.105
-588.923	-200.000	-0.019	0.184
-587.909	-92.073	-0.261	-0.074
-586.894	-200.000	0.061	-0.329
-585.879	-112.737	0.140	0.028
-584.865	-166.471	0.427	-0.018
-583.850	-64.989	-0.178	0.072
-582.836	-29.054	0.229	0.132
-581.821	85.043	-0.150	0.165
-580.806	-142.131	-0.138	0.014
-579.792	4.451	0.340	-0.251
-578.777	-136.262	-0.317	-0.037
-577.763	-134.316	-0.111	0.014
-576.748	56.586	0.133	0.130
-575.733	112.343	-0.014	-0.017
-574.719	287.511	-0.050	-0.091
-573.704	-64.257	-0.037	-0.015
-572.690	-200.000	-0.006	0.080
-571.675	29.855	0.288	0.247
-570.661	-32.950	-0.077	0.043
-569.646	27.301	-0.287	-0.243
-568.631	202.805	0.256	-0.398
-567.617	-84.299	0.370	-0.118
-566.602	17.031	-0.210	-0.168
-565.588	308.206	0.155	0.291
-564.573	-36.892	-0.370	-0.199
-563.558	-36.030	0.155	-0.084
-562.544	514.482	0.136	0.320
-561.529	52.080	-0.074	-0.071
-560.515	30.423	-0.180	-0.155
-559.500	-63.338	-0.136	0.056
-558.485	600.602	0.052	-0.129
-557.471	-118.427	0.160	0.029
-556.456	-98.787	-0.159	0.041
-555.442	-200.000	0.022	-0.201
-554.427	29.983	-0.364	-0.312
-553.412	237.177	-0.224	-0.373
-552.398	800.000	0.040	0.131
-551.383	663.592	0.066	-0.172
-550.369	-19.601	-0.111	-0.069
-549.354	194.265	-0.063	0.096
-548.339	145.932	0.022	0.029
-547.325	-198.820	0.165	0.001
-546.310	-200.000	0.002	-0.421
-545.296	154.630	0.055	-0.076
-544.281	-111.860	-0.321	-0.065
-543.266	-144.798	0.579	-0.053
-542.252	-200.000	0.003	0.037
-541.237	800.000	-0.066	-0.193
-540.223	512.873	-0.062	0.146
-539.208	101.829	-0.089	0.105
-538.193	324.909	0.025	0.049
-537.179	-35.425	0.241	-0.131
-536.164	75.738	-0.183	0.194
-535.150	-200.000	-0.017	-0.146
-534.135	-19.543	0.271	0.169
-533.121	-70.066	-0.125	-0.048
-532.106	129.868	-0.132	0.170
-531.091	568.216	0.030	0.072
-530.077	-200.000	0.044	-0.421
-529.062	-120.212	-0.312	0.053
-528.048	-33.356	-0.186	-0.103
-527.033	-200.000	-0.075	0.367
-526.018	800.000	-0.076	0.299
-525.004	800.000	-0.076	-0.251
-523.989	86.083	-0.087	-0.097
-522.975	-43.371	-0.284	-0.144
-521.960	-99.058	-0.116	-0.029
-520.945	90.882	0.074	-0.084
-519.931	-200.000	-0.055	-0.281
-518.916	-200.000	0.007	0.144
-517.902	36.008	-0.148	-0.130
-516.887	-166.955	0.138	0.006
-515.872	-79.836	0.368	-0.124
-514.858	800.000	0.084	-0.233
-513.843	150.497	-0.083	0.113
-512.829	800.000	0.034	-0.131
-511.814	-200.000	-0.025	-0.337
-510.799	-79.048	-0.119	0.041
-509.785	800.000	0.045	-0.175
-508.770	-5.582	-0.315	-0.217
-507.756	134.148	-0.073	-0.095
-506.741	-16.405	0.233	0.148
-505.726	-27.057	0.063	-0.037
-504.712	-30.598	0.113	0.064
-503.697	12.653	-0.345	-0.267
-502.683	239.098	-0.148	-0.247
-501.668	204.511	-0.137	0.213
-500.653	94.735	-0.278	0.317
-499.639	-9.696	0.125	-0.084
-498.624	225.906	-0.040	0.065
-497.610	-36.634	0.413	0.222
-496.595	-74.172	-0.180	0.065
-495.581	-52.332	0.291	-0.135
-494.566	-163.787	-0.199	0.009
-493.551	-112.196	0.115	-0.023
-492.537	-200.000	0.042	-0.432
-491.522	315.958	0.136	0.257
-490.508	199.388	0.058	0.089
-489.493	800.000	0.107	-0.327
-488.478	800.000	0.075	-0.218
-487.464	99.766	-0.241	-0.280
-486.449	-200.000	-0.003	-0.187
-485.435	-146.988	0.442	-0.038
-484.420	-61.283	-0.050	-0.021
-483.405	-77.244	-0.135	0.047
-482.391	492.975	0.100	0.229
-481.376	-20.828	0.077	0.047
-480.362	-200.000	-0.010	0.280
-479.347	-27.613	0.071	0.042
-478.332	800.000	-0.032	-0.128
-477.318	28.187	-0.175	-0.148
-476.303	-127.379	0.190	-0.028
-475.289	-14.360	-0.178	0.115
-474.274	60.698	0.020	0.019
-473.259	-70.179	0.366	-0.140
-472.245	-200.000	0.009	-0.234
-471.230	316.541	0.058	-0.111
-470.216	380.539	0.145	-0.299
-469.201	100.491	-0.108	-0.126
-468.186	-200.000	0.054	0.297
-467.172	-200.000	-0.026	0.231
-466.157	-61.472	0.075	-0.031
-465.143	-200.000	-0.009	-0.181
-464.128	-127.392	-0.106	-0.015
-463.113	44.764	0.081	0.075
-462.099	152.120	-0.180	-0.246
-461.084	443.768	-0.057	-0.126
-460.070	-24.986	-0.315	-0.187
-459.055	-63.461	0.021	-0.009
-458.040	3.724	0.034	0.025
-457.026	-200.000	0.015	0.199
-456.011	577.991	0.100	-0.246
-454.997	-49.854	0.161	-0.077
-453.982	-200.000	-0.011	-0.104
-452.968	82.916	0.118	-0.128
-451.953	-97.663	-0.389	-0.101
-450.938	357.168	-0.063	0.125
-449.924	-200.000	-0.002	0.134
-448.909	34.376	0.196	-0.171
-447.895	9.475	0.289	0.219
-446.880	668.602	-0.058	0.150
-445.865	-200.000	0.015	0.189
-444.851	480.505	-0.106	0.240
-443.836	-103.753	-0.238	-0.056
-442.822	-200.000	0.005	0.141
-441.807	219.993	-0.135	-0.217
-440.792	-200.000	0.012	-0.177
-439.778	30.377	-0.377	0.322
-438.763	-27.839	-0.103	-0.060
-437.749	800.000	0.047	0.162
-436.734	284.895	0.031	-0.056
-435.719	-200.000	-0.010	-0.205
-434.705	-116.472	-0.113	-0.021
-433.690	-200.000	0.016	0.400
-432.676	-90.393	-0.174	0.050
-431.661	-61.331	-0.103	0.043
-430.646	-62.770	0.096	-0.040
-429.632	-113.494	0.308	-0.060
-428.617	-200.000	0.021	-0.217
-427.603	30.097	-0.231	0.197
-426.588	-200.000	0.041	-0.220
-425.573	800.000	-0.037	0.124
-424.559	42.971	-0.044	-0.040
-423.544	514.106	-0.080	0.186
-422.530	-200.000	-0.007	-0.150
-421.515	-95.674	-0.193	0.052
-420.500	-89.789	-0.336	0.098
-419.486	-80.138	-0.076	-0.025
-418.471	19.438	0.267	0.215
-417.457	-200.000	-0.012	0.254
-416.442	-187.439	0.412	-0.006
-415.428	5.744	0.159	-0.118
-414.413	-107.765	0.253	-0.055
-413.398	364.299	-0.087	0.175
-412.384	800.000	0.033	0.120
-411.369	-57.713	0.021	0.009
-410.355	-200.000	0.031	0.161
-409.340	-200.000	-0.282	0.000
-408.325	37.741	0.149	0.132
-407.311	-80.788	0.090	0.030
-406.296	-62.622	0.326	-0.135
-405.282	60.832	-0.143	0.142
-404.267	29.302	0.016	-0.014
-403.252	150.466	0.019	0.026
-402.238	-200.000	-0.000	0.114
-401.223	217.781	-0.159	-0.253
-400.209	-200.000	0.014	0.172
-399.194	-76.964	-0.211	-0.074
-398.179	-63.138	-0.500	-0.206
-397.165	71.149	-0.034	0.036
-396.150	13.884	0.235	0.183
-395.136	-200.000	0.019	0.347
-394.121	-113.121	-0.062	-0.012
-393.106	746.618	-0.099	-0.267
-392.092	143.333	-0.119	0.158
-391.077	2.190	0.181	0.130
-390.063	254.830	-0.154	0.263
-389.048	107.553	-0.088	0.105
-388.033	-143.111	-0.184	-0.018
-387.019	-79.069	-0.352	0.119
-386.004	-7.937	0.112	0.076
-384.990	-8.500	-0.137	0.092
-383.975	88.885	-0.217	0.242
-382.960	800.000	0.085	0.272
-381.946	-200.000	-0.014	-0.274
-380.931	-104.177	-0.244	0.057
-379.917	-200.000	-0.013	0.117
-378.902	-200.000	-0.037	-0.221
-377.888	-200.000	0.036	0.247
-376.873	-200.000	-0.007	-0.040
-375.858	105.030	-0.094	0.111
-374.844	125.338	-0.368	-0.464
-373.829	800.000	0.024	0.069
-372.815	-200.000	-0.052	0.266
-371.800	-84.025	0.347	0.110
-370.785	60.593	-0.157	-0.155
-369.771	-104.014	-0.207	-0.048
-368.756	9.863	0.516	-0.391
-367.742	-78.412	-0.389	0.133
-366.727	155.548	-0.275	0.378
-365.712	204.428	0.124	-0.192
-364.698	-22.411	0.069	0.041
-363.683	-31.712	0.231	0.129
-362.669	225.595	0.148	0.239
-361.654	-38.581	0.183	0.097
-360.639	-24.171	0.146	-0.087
-359.625	-163.988	0.131	0.006
-358.610	3.882	0.156	-0.114
-357.596	-17.627	-0.160	-0.100
-356.581	-12.917	-0.106	-0.069
-355.566	322.786	-0.137	0.260
-354.552	-106.415	-0.288	-0.064
-353.537	37.386	-0.164	0.145
-352.523	-83.512	0.383	0.122
-351.508	-69.364	0.302	-0.116
-350.493	800.000	0.043	-0.147
-349.479	-68.256	-0.290	0.112
-348.464	-35.850	-0.098	-0.053
-347.450	-135.755	0.337	0.040
-346.435	-200.000	0.055	-0.310
-345.420	-130.475	-0.155	0.021
-344.406	131.425	-0.120	-0.153
-343.391	52.774	0.078	-0.074
-342.377	-106.253	0.195	0.044
-341.362	-65.854	0.265	-0.106
-340.348	-200.000	0.053	-0.249
-339.333	248.813	0.118	0.199
-338.318	-81.617	-0.160	0.052
-337.304	-200.000	-0.006	0.329
-336.289	26.844	-0.217	-0.181
-335.275	463.528	-0.121	-0.270
-334.260	3.319	0.104	0.075
-333.245	82.124	-0.123	0.133
-332.231	-90.989	0.071	-0.020
-331.216	800.000	-0.052	0.158
-330.202	-25.885	-0.224	0.132
-329.187	13.870	-0.216	-0.167
-328.172	-96.921	0.178	-0.046
-327.158	424.307	-0.130	0.279
-326.143	205.858	-0.165	-0.255
-325.129	800.000	0.075	0.208
-324.114	-46.626	-0.058	-0.028
-323.099	-200.000	-0.084	0.383
-322.085	14.088	0.183	0.142
-321.070	-200.000	-0.008	-0.142
-320.056	29.623	0.234	-0.198
-319.041	-200.000	-0.046	-0.231
-318.026	437.056	-0.099	-0.214
-317.012	-109.549	0.258	0.054
-315.997	-70.874	-0.158	-0.059
-314.983	8.127	0.340	-0.254
-313.968	-176.317	-0.165	-0.004
-312.953	429.495	-0.017	-0.037
-311.939	218.224	-0.154	0.244
-310.924	-200.000	-0.088	0.462
-309.910	-65.498	0.238	0.095
-308.895	38.611	0.081	0.072
-307.880	124.198	0.167	0.209
-306.866	31.470	0.027	0.023
-305.851	-60.071	0.337	0.143
-304.837	-200.000	-0.053	-0.389
-303.822	123.422	0.058	-0.073
-302.807	70.958	0.245	-0.253
-301.793	-73.485	0.087	0.031
-300.778	-200.000	0.070	0.318
-299.764	410.313	0.032	-0.067
-298.749	95.387	0.135	-0.153
-297.735	-72.857	-0.114	0.042
-296.720	151.943	-0.040	-0.054
-295.705	124.858	0.144	0.180
-294.691	-200.000	-0.010	-0.341
-293.676	261.690	0.118	-0.204
-292.662	-39.256	0.277	0.145
-291.647	-16.773	0.113	-0.071
-290.632	-135.456	-0.090	0.011
-289.618	-16.838	0.095	-0.060
-288.603	-146.711	-0.169	0.015
-287.589	-200.000	-0.055	0.241
-286.574	167.371	0.040	-0.057
-285.559	-173.234	-0.326	-0.010
-284.545	-105.326	-0.577	-0.131
-283.530	232.039	0.133	0.218
-282.516	-111.014	-0.175	-0.036
-281.501	-75.820	-0.213	-0.075
-280.486	-21.097	-0.030	0.018
-279.472	800.000	0.039	-0.133
-278.457	-200.000	-0.014	-0.101
-277.443	800.000	0.064	0.176
-276.428	-200.000	-0.037	0.191
-275.413	-78.091	0.281	0.096
-274.399	-200.000	-0.009	0.205
-273.384	241.844	0.042	0.069
-272.370	15.362	-0.116	0.090
-271.355	-81.501	-0.285	0.093
-270.340	-62.535	-0.283	-0.117
-269.326	800.000	-0.045	0.179
-268.311	800.000	0.157	0.571
-267.297	-107.659	0.386	0.084
-266.282	800.000	-0.010	0.043
-265.267	-134.424	-0.105	0.013
-264.253	-200.000	0.008	0.128
-263.238	800.000	-0.103	-0.401
-262.224	142.458	0.080	-0.106
-261.209	401.321	0.139	0.291
-260.195	-88.260	0.226	0.067
-259.180	800.000	-0.025	0.070
-258.165	-82.847	0.296	0.095
-257.151	-112.983	0.144	0.028
-256.136	-12.879	0.172	-0.111
-255.122	-200.000	-0.011	0.256
-254.107	-125.077	-0.130	-0.020
-253.092	800.000	0.101	0.404
-252.078	-123.268	0.425	0.067
-251.063	735.726	0.095	0.253
-250.049	-22.402	-0.087	0.053
-249.034	-28.222	0.384	0.220
-248.019	142.813	0.021	0.028
-247.005	-108.139	0.175	0.038
-245.990	422.503	0.059	-0.126
-244.976	256.488	-0.096	-0.163
-243.961	-200.000	0.018	-0.273
-242.946	-161.824	0.238	-0.012
-241.932	-125.798	0.077	0.012
-240.917	-200.000	-0.011	-0.107
-239.903	219.489	0.216	-0.343
-238.888	-200.000	0.019	-0.126
-237.873	-200.000	0.034	-0.255
-236.859	-38.248	-0.135	0.071
-235.844	74.213	0.201	-0.209
-234.830	22.608	0.267	-0.217
-233.815	-70.266	0.159	0.060
-232.800	-42.436	0.114	-0.058
-231.786	-172.244	0.500	-0.016
-230.771	-84.789	-0.292	0.091
-229.757	-200.000	0.008	0.047
-228.742	-105.323	-0.255	-0.058
-227.727	-148.665	0.160	-0.013
-226.713	-167.728	-0.234	-0.009
-225.698	46.760	-0.319	-0.294
-224.684	112.258	-0.041	-0.049
-223.669	-121.195	-0.154	0.025
-222.655	-96.566	0.230	0.060
-221.640	-0.561	-0.235	0.166
-220.625	86.339	0.185	0.202
-219.611	-66.755	-0.309	0.122
-218.596	777.581	0.173	0.470
-217.582	-22.342	-0.244	0.147
-216.567	-137.714	0.144	0.016
-215.552	-118.745	-0.083	-0.014
-214.538	-66.623	-0.148	0.058
-213.523	-106.838	-0.113	-0.025
-212.509	-105.564	-0.376	-0.085
-211.494	-200.000	0.012	0.275
-210.479	164.910	0.254	0.355
-209.465	756.159	-0.048	0.128
-208.450	34.390	0.173	-0.150
-207.436	204.697	-0.130	-0.200
-206.421	683.230	-0.027	0.069
-205.406	-1.350	-0.256	0.179
-204.392	552.888	-0.049	-0.116
-203.377	23.898	0.179	-0.147
-202.363	-114.229	-0.336	-0.064
-201.348	-200.000	0.016	-0.160
-200.333	-33.294	0.153	-0.084
-199.319	269.371	-0.148	0.258
-198.304	800.000	-0.031	0.115
-197.290	183.511	0.112	0.165
-196.275	-62.756	0.320	0.131
-195.260	-2.405	-0.171	0.119
-194.246	-200.000	0.053	-0.346
-193.231	454.195	-0.090	0.198
-192.217	78.935	0.257	0.272
-191.202	-157.880	0.160	-0.009
-190.187	2.175	0.267	-0.191
-189.173	-61.162	0.054	-0.022
-188.158	800.000	-0.114	-0.418
-187.144	-200.000	0.030	0.170
-186.129	-49.038	-0.211	-0.100
-185.114	-60.242	-0.228	0.096
-184.100	652.219	0.104	0.264
-183.085	205.476	0.103	0.158
-182.071	611.378	-0.061	0.151
-181.056	41.827	-0.226	-0.203
-180.042	800.000	-0.033	-0.103
-179.027	114.831	0.095	0.115
-178.012	-93.193	-0.123	-0.034
-176.998	-183.869	0.202	0.003
-175.983	-68.785	0.012	-0.005
-174.969	201.407	0.119	0.181
-173.954	-200.000	0.012	-0.123
-172.939	70.851	0.338	0.347
-171.925	-200.000	0.011	-0.122
-170.910	15.889	0.192	0.149
-169.896	-157.382	0.191	-0.011
-168.881	-139.241	-0.140	0.015
-167.866	459.287	-0.120	0.264
-166.852	-151.520	0.219	-0.016
-165.837	-200.000	0.010	-0.336
-164.823	76.929	0.233	-0.245
-163.808	-200.000	-0.005	-0.164
-162.793	-25.443	0.247	-0.145
-161.779	800.000	-0.037	0.121
-160.764	-117.526	-0.387	-0.069
-159.750	57.678	0.135	-0.130
-158.735	-72.563	0.214	-0.078
-157.720	23.431	-0.480	0.391
-156.706	-200.000	0.036	0.254
-155.691	54.289	-0.163	-0.155
-154.677	-79.523	-0.235	-0.078
-153.662	-21.547	0.431	0.260
-152.647	-140.935	-0.071	0.007
-151.633	-200.000	-0.021	-0.096
-150.618	-200.000	-0.027	0.253
-149.604	-59.992	0.146	0.062
-148.589	27.916	0.234	-0.195
-147.574	-12.408	-0.280	-0.181
-146.560	800.000	-0.080	0.264
-145.545	-146.459	-0.136	0.012
-144.531	117.826	-0.144	-0.175
-143.516	100.647	0.141	0.163
-142.502	36.400	0.077	0.067
-141.487	97.018	0.054	-0.061
-140.472	-200.000	-0.030	-0.218
-139.458	-115.961	-0.120	-0.022
-138.443	300.432	-0.044	0.081
-137.429	17.102	-0.173	-0.136
-136.414	-200.000	0.042	-0.263
-135.399	-23.901	0.012	-0.007
-134.385	-110.521	-0.113	-0.023
-133.370	800.000	0.093	0.267
-132.356	83.629	-0.171	-0.184
-131.341	66.502	-0.097	0.098
-130.326	51.170	0.215	0.202
-129.312	-33.277	-0.194	-0.106
-128.297	110.094	0.174	-0.207
-127.283	-41.931	-0.226	-0.114
-126.268	399.520	0.055	-0.115
-125.253	-121.575	0.122	-0.020
-124.239	-45.262	0.275	0.135
-123.224	-135.092	0.361	0.043
-122.210	47.438	-0.080	0.073
-121.195	-131.721	-0.027	0.003
-120.180	114.667	-0.144	-0.174
-119.166	238.810	0.100	0.165
-118.151	489.217	-0.110	0.248
-117.137	-26.652	-0.076	0.044
-116.122	158.512	0.130	-0.179
-115.107	56.756	0.226	0.217
-114.093	-200.000	0.008	-0.147
-113.078	-66.242	0.185	0.073
-112.064	85.236	0.075	-0.081
-111.049	163.846	-0.270	-0.375
-110.034	133.636	0.114	0.146
-109.020	800.000	0.025	0.068
-108.005	-200.000	0.514	0.002
-106.991	612.450	-0.158	0.389
-105.976	224.579	0.041	0.065
-104.962	-200.000	-0.134	-0.000
-103.947	800.000	0.080	-0.273
-102.932	-57.974	-0.290	0.125
-101.918	800.000	-0.068	0.207
-100.903	800.000	0.048	-0.177
-99.889	-9.799	-0.170	0.112
-98.874	43.385	-0.101	0.091
-97.859	1.797	-0.027	0.020
-96.845	352.198	-0.150	-0.293
-95.830	-200.000	-0.004	0.064
-94.816	800.000	0.116	0.340
-93.801	-67.975	-0.147	0.057
-92.786	-200.000	-0.015	-0.206
-91.772	266.725	0.121	0.209
-90.757	-139.089	0.456	-0.049
-89.743	57.985	-0.115	-0.111
-88.728	1.357	0.220	-0.156
-87.713	-120.191	-0.185	-0.031
-86.699	-200.000	0.015	0.328
-85.684	-93.574	0.364	0.099
-84.670	48.225	0.095	0.087
-83.655	304.048	-0.098	0.178
-82.640	-200.000	0.020	0.088
-81.626	800.000	0.098	-0.390
-80.611	-78.332	-0.100	-0.034
-79.597	201.774	-0.248	0.377
-78.582	-21.192	-0.180	-0.109
-77.567	-116.790	0.098	-0.018
-76.553	303.618	-0.133	-0.244
-75.538	-22.493	0.349	-0.208
-74.524	800.000	-0.045	0.138
-73.509	328.128	0.093	-0.175
-72.494	10.045	0.384	0.287
-71.480	169.534	0.052	-0.073
-70.465	-200.000	0.066	0.348
-69.451	-200.000	-0.021	0.432
-68.436	-200.000	-0.017	0.122
-67.422	-200.000	0.137	0.624
-66.407	800.000	-0.089	-0.275
-65.392	65.826	-0.125	0.125
-64.378	-81.428	-0.099	0.032
-63.363	-104.075	0.198	-0.045
-62.349	-83.561	-0.109	-0.034
-61.334	123.461	-0.882	-1.090
-60.319	113.235	0.395	0.472
-59.305	-200.000	-0.233	-1.184
-58.290	213.753	0.671	1.046
-57.276	645.940	0.663	1.669
-56.261	-200.000	95.330	584.013
-55.246	656.425	1369.396	3467.972
-54.232	199.493	2541.221	3841.011
-53.217	118.745	2161.734	2631.724
-52.203	43.614	1709.348	1541.074
-51.188	36.243	1523.276	1322.956
-50.173	33.828	1496.719	1283.542
-49.159	52.715	1545.302	1455.310
-48.144	54.770	1562.657	1485.707
-47.130	36.388	1523.432	1323.875
-46.115	33.290	1508.339	1289.641
-45.100	33.160	1505.163	1285.987
-44.086	33.092	1503.197	1283.793
-43.071	33.061	1501.106	1281.746
-42.057	33.076	1499.206	1280.174
-41.042	33.140	1497.869	1279.413
-40.027	33.047	1497.157	1278.127
-39.013	33.062	1495.601	1276.853
-37.998	33.012	1493.912	1275.023
-36.984	33.052	1493.259	1274.684
-35.969	33.118	1491.671	1273.719
-34.954	32.993	1490.756	1272.047
-33.940	33.144	1488.755	1271.306
-32.925	33.008	1487.783	1269.512
-31.911	33.198	1485.679	1268.938
-30.896	33.084	1484.661	1267.255
-29.881	33.112	1483.436	1266.349
-28.867	33.150	1481.581	1264.969
-27.852	33.111	1480.520	1263.749
-26.838	33.059	1479.643	1262.607
-25.823	33.171	1477.740	1261.681
-24.809	33.219	1475.929	1260.400
-23.794	33.164	1474.642	1258.889
-22.779	33.108	1473.288	1257.308
-21.765	33.122	1472.113	1256.350
-20.750	33.101	1471.450	1255.594
-19.736	33.047	1470.189	1254.111
-18.721	33.062	1468.897	1253.058
-17.706	33.022	1468.145	1252.097
-16.692	33.060	1466.871	1251.214
-15.677	33.021	1465.744	1249.944
-14.663	33.032	1464.821	1249.186
-13.648	33.038	1464.063	1248.524
-12.633	33.005	1463.077	1247.416
-11.619	32.937	1462.257	1246.221
-10.604	32.990	1461.048	1245.488
-9.590	33.040	1460.051	1244.923
-8.575	33.062	1459.164	1244.258
-7.560	33.064	1458.651	1243.787
-6.546	33.029	1457.773	1242.757
-5.531	32.955	1457.083	1241.631
-4.517	32.988	1455.808	1240.715
-3.502	32.987	1455.165	1240.113
-2.487	33.053	1454.097	1239.586
-1.473	33.038	1452.507	1238.082
-0.458	32.961	1451.691	1236.835
0.556	34.150	1441.237	1223.655
1.571	30.176	1413.707	1175.048
2.586	25.552	1349.875	1093.839
3.600	23.339	1266.083	1013.207
4.615	21.531	1220.979	967.043
5.629	18.371	1164.545	905.585
6.644	10.907	1082.650	805.005
7.659	5.102	1043.304	747.921
8.673	4.201	1037.819	739.624
9.688	4.287	1034.081	737.302
10.702	4.147	1033.259	735.989
11.717	4.185	1031.717	735.002
12.731	6.209	1032.644	745.198
13.746	13.359	1042.699	786.488
14.761	19.975	1050.656	824.009
15.775	21.252	1051.888	830.981
16.790	20.489	1050.435	826.133
17.804	19.519	1048.025	819.562
18.819	18.629	1046.357	813.966
19.834	18.147	1045.181	810.696
20.848	17.960	1044.599	809.288
21.863	17.867	1043.582	807.985
22.877	17.790	1042.881	807.007
23.892	17.562	1042.387	805.474
24.907	17.514	1041.087	804.171
25.921	17.369	1040.553	803.005
26.936	17.501	1039.713	802.910
27.950	17.542	1038.534	802.121
28.965	17.451	1037.704	800.981
29.980	17.553	1036.657	800.581
30.994	17.538	1035.789	799.766
32.009	17.701	1035.117	799.945
33.023	17.778	1034.563	799.804
34.038	17.798	1033.831	799.264
35.053	17.745	1032.449	797.878
36.067	17.566	1031.403	796.159
37.082	17.618	1030.419	795.574
38.096	17.684	1029.765	795.306
39.111	17.733	1029.093	794.945
40.126	17.651	1028.701	794.188
41.140	17.617	1027.152	792.767
42.155	17.464	1025.777	790.923
43.169	17.161	1025.057	788.890
44.184	17.210	1023.698	788.001
45.199	17.245	1022.698	787.324
46.213	17.219	1022.016	786.609
47.228	17.176	1020.958	785.527
48.242	17.446	1020.026	785.990
49.257	17.750	1019.088	786.597
50.271	17.609	1018.672	785.555
51.286	17.505	1017.621	784.196
52.301	17.630	1017.135	784.328
53.315	17.707	1016.043	783.770
54.330	17.611	1015.125	782.553
55.344	17.440	1014.255	781.028
56.359	17.376	1013.446	780.042
57.374	17.369	1012.805	779.451
58.388	17.410	1011.994	778.946
59.403	17.280	1011.051	777.555
60.417	17.281	1010.546	777.104
61.432	17.201	1009.755	776.058
62.447	17.172	1009.177	775.414
63.461	17.097	1008.340	774.359
64.476	17.090	1007.134	773.332
65.490	17.028	1006.420	772.435
66.505	17.016	1005.241	771.408
67.520	17.099	1004.806	771.382
68.534	17.138	1003.904	770.797
69.549	17.167	1002.885	770.079
70.563	17.128	1002.459	769.507
71.578	16.968	1002.257	768.558
72.593	16.896	1001.330	767.454
73.607	16.908	999.936	766.372
74.622	16.933	999.061	765.746
75.636	16.955	998.084	765.031
76.651	16.944	997.260	764.282
77.666	16.942	996.904	763.931
78.680	16.952	996.422	763.538
79.695	16.984	995.890	763.210
80.709	17.163	994.791	763.102
81.724	17.199	994.180	762.730
82.739	17.372	993.404	762.840
83.753	17.414	992.657	762.387
84.768	17.469	992.368	762.346
85.782	17.660	991.791	762.688
86.797	17.821	991.232	762.913
87.812	17.966	989.901	762.467
88.826	17.677	989.255	760.611
89.841	17.561	988.600	759.525
90.855	17.650	987.882	759.301
91.870	17.742	987.267	759.173
92.884	17.822	986.223	758.659
93.899	17.907	985.051	758.069
94.914	17.762	984.611	757.018
95.928	17.898	984.009	757.091
96.943	17.854	983.650	756.551
97.957	17.794	982.886	755.631
98.972	17.820	981.312	754.470
99.987	17.779	980.789	753.822
101.001	17.817	980.515	753.710
102.016	17.734	979.385	752.411
103.030	17.733	978.469	751.634
104.045	17.705	977.899	751.009
105.060	17.838	976.711	750.614
106.074	17.866	975.212	749.520
107.089	17.452	974.797	747.316
108.103	17.246	973.706	745.508
109.118	17.207	972.688	744.493
110.133	17.107	972.290	743.686
111.147	17.117	970.724	742.463
112.162	17.066	970.413	741.937
113.176	17.071	969.316	741.055
114.191	17.316	968.506	741.437
115.206	17.459	967.912	741.541
116.220	17.425	967.106	740.711
117.235	17.443	965.967	739.852
118.249	17.316	965.228	738.668
119.264	17.200	964.821	737.788
120.279	17.199	964.157	737.209
121.293	17.179	962.872	736.074
122.308	17.167	962.334	735.548
123.322	16.995	961.675	734.235
124.337	17.038	960.600	733.534
125.352	17.029	959.147	732.319
126.366	16.975	958.478	731.511
127.381	17.002	956.927	730.379
128.395	16.964	956.108	729.526
129.410	17.022	955.187	729.008
130.424	17.067	954.307	728.467
131.439	17.194	953.640	728.439
132.454	17.210	953.486	728.322
133.468	17.228	952.747	727.772
134.483	17.374	951.693	727.529
135.497	17.252	951.050	726.451
136.512	17.301	950.175	725.928
137.527	17.278	949.751	725.441
138.541	17.286	949.153	724.953
139.556	17.431	948.121	724.719
140.570	17.340	947.634	723.895
141.585	17.343	946.887	723.272
142.600	17.690	946.175	724.140
143.614	17.686	945.814	723.780
144.629	17.647	945.436	723.263
145.643	17.800	944.240	722.934
146.658	17.883	943.073	722.328
147.673	17.641	941.955	720.385
148.687	17.585	940.854	719.240
149.702	17.450	940.165	718.079
150.716	17.348	939.356	716.969
151.731	17.289	938.778	716.215
152.746	17.410	938.124	716.165
153.760	17.438	937.148	715.472
154.775	17.358	937.314	715.199
155.789	17.547	935.893	714.844
156.804	17.601	935.590	714.777
157.819	17.561	934.765	713.918
158.833	17.662	933.907	713.623
159.848	17.868	933.563	714.157
160.862	17.876	933.050	713.736
161.877	17.793	931.880	712.432
162.892	17.709	930.726	711.136
163.906	17.470	929.566	709.191
164.921	17.393	929.008	708.380
165.935	17.453	927.837	707.675
166.950	17.564	926.875	707.341
167.964	17.544	926.048	706.562
168.979	17.698	925.442	706.677
169.994	17.583	924.187	705.179
171.008	17.545	923.083	704.116
172.023	17.474	923.203	703.851
173.037	17.657	922.252	703.823
174.052	17.777	921.671	703.811
175.067	17.801	920.553	702.996
176.081	17.505	919.898	701.214
177.096	17.525	919.102	700.625
178.110	17.427	918.426	699.647
179.125	17.534	917.498	699.316
180.140	17.532	916.512	698.495
181.154	17.402	916.056	697.553
182.169	17.601	915.835	698.139
183.183	17.733	914.994	697.975
184.198	17.918	914.336	698.167
185.213	17.870	913.360	697.165
186.227	17.822	913.184	696.775
187.242	17.987	912.499	696.862
188.256	18.040	912.052	696.676
189.271	18.083	911.543	696.401
190.286	18.072	910.479	695.481
191.300	17.815	909.956	693.974
192.315	17.400	908.821	691.360
193.329	17.246	907.792	689.892
194.344	17.343	907.110	689.709
195.359	17.509	906.891	690.153
196.373	17.588	906.705	690.270
197.388	17.673	905.618	689.725
198.402	17.900	905.455	690.457
199.417	18.078	905.149	690.884
200.432	18.132	905.077	690.985
201.446	18.279	904.281	690.909
202.461	18.260	904.095	690.630
203.475	18.423	903.259	690.587
204.490	18.284	903.060	689.816
205.504	18.142	901.831	688.243
206.519	18.060	900.784	687.055
207.534	18.079	900.079	686.530
208.548	17.913	899.610	685.446
209.563	17.884	898.974	684.785
210.577	18.002	898.278	684.665
211.592	18.130	897.375	684.432
212.607	18.184	897.344	684.561
213.621	18.372	896.477	684.591
214.636	18.113	896.181	683.270
215.650	18.108	895.643	682.781
216.665	18.275	894.572	682.569
217.680	18.254	894.405	682.296
218.694	18.451	893.921	682.654
219.709	18.463	893.409	682.250
220.723	18.302	893.025	681.255
221.738	18.367	892.210	680.831
222.753	18.389	891.293	680.158
223.767	18.234	890.675	679.013
224.782	18.442	889.745	679.066
225.796	18.476	889.122	678.667
226.811	18.620	888.360	678.594
227.826	18.540	887.666	677.686
228.840	18.466	887.073	676.882
229.855	18.400	886.423	676.068
230.869	18.448	885.395	675.410
231.884	18.331	885.121	674.681
232.899	18.314	884.596	674.153
233.913	18.252	883.540	673.045
234.928	18.085	883.118	672.011
235.942	18.125	882.439	671.590
236.957	18.030	881.853	670.711
237.972	18.143	880.873	670.351
238.986	18.023	880.651	669.651
240.001	18.123	880.245	669.675
241.015	18.221	879.348	669.315
242.030	18.254	878.337	668.617
243.045	18.345	878.127	668.755
244.059	18.294	877.521	668.032
245.074	18.335	876.568	667.408
246.088	18.504	875.978	667.559
247.103	18.536	875.844	667.521
248.117	18.677	875.071	667.421
249.132	18.764	874.664	667.390
250.147	18.809	874.784	667.599
251.161	19.065	873.928	667.881
252.176	19.130	873.162	667.487
253.190	19.159	872.261	666.853
254.205	19.200	871.951	666.715
255.220	19.242	871.361	666.366
256.234	19.253	870.402	665.617
257.249	19.247	869.943	665.185
258.263	19.045	869.462	663.977
259.278	19.128	868.930	663.833
260.293	19.306	868.535	664.157
261.307	19.288	868.039	663.652
262.322	19.319	867.267	663.120
263.336	19.364	866.781	662.866
264.351	19.356	866.108	662.261
265.366	19.222	865.464	661.195
266.380	19.235	865.273	661.041
267.395	19.385	864.323	660.830
268.409	19.469	862.961	660.054
269.424	19.217	862.693	658.825
270.439	19.052	862.383	657.900
271.453	19.112	861.203	657.169
272.468	19.124	860.418	656.560
273.482	19.068	859.816	655.828
274.497	19.289	859.213	656.151
275.512	19.320	858.505	655.671
276.526	19.217	857.894	654.756
277.541	19.328	856.972	654.416
278.555	19.151	857.058	653.749
279.570	19.228	856.355	653.448
280.585	19.525	856.199	654.398
281.599	19.487	855.476	653.641
282.614	19.579	854.630	653.286
283.628	19.380	853.781	651.830
284.643	19.249	853.424	651.001
285.657	19.224	852.726	650.317
286.672	19.154	852.778	650.036
287.687	19.319	851.876	649.912
288.701	19.292	851.596	649.540
289.716	19.377	851.019	649.362
290.730	19.292	850.231	648.384
291.745	19.375	849.688	648.226
292.760	19.375	849.072	647.696
293.774	19.363	848.497	647.158
294.789	19.534	848.259	647.559
295.803	19.613	847.255	647.033
296.818	19.508	846.541	646.037
297.833	19.416	845.881	645.132
298.847	19.436	845.045	644.512
299.862	19.509	844.604	644.389
300.876	19.468	843.725	643.511
301.891	19.499	843.295	643.239
302.906	19.601	843.254	643.534
303.920	19.645	842.899	643.369
304.935	19.817	841.852	643.151
305.949	20.033	840.868	643.145
306.964	19.863	840.750	642.369
307.979	19.730	839.979	641.227
308.993	19.621	839.744	640.587
310.008	19.843	839.045	640.822
311.022	19.802	838.556	640.237
312.037	19.801	838.293	639.975
313.052	19.700	837.414	638.877
314.066	19.472	836.731	637.456
315.081	19.554	835.723	636.934
316.095	19.381	835.377	635.974
317.110	19.476	834.918	635.922
318.125	19.456	834.495	635.469
319.139	19.507	833.608	634.926
320.154	19.435	833.448	634.483
321.168	19.371	833.285	634.066
322.183	19.787	831.921	634.500
323.197	19.556	831.787	633.492
324.212	19.755	831.114	633.653
325.227	19.633	830.945	633.020
326.241	19.713	830.316	632.778
327.256	19.679	829.545	632.010
328.270	19.603	829.159	631.383
329.285	19.709	828.200	630.983
330.300	19.637	828.027	630.536
331.314	19.452	827.510	629.410
332.329	19.534	826.914	629.201
333.343	19.719	826.614	629.591
334.358	19.927	825.732	629.621
335.373	19.936	825.429	629.366
336.387	19.801	825.099	628.567
337.402	19.845	824.595	628.288
338.416	20.079	823.599	628.322
339.431	19.955	823.729	627.916
340.446	20.205	822.719	627.996
341.460	20.433	822.067	628.267
342.475	20.333	821.737	627.598
343.489	20.290	821.487	627.196
344.504	20.377	821.129	627.179
345.519	20.331	820.989	626.853
346.533	20.529	820.320	627.002
347.548	20.527	819.452	626.273
348.562	20.308	819.143	625.195
349.577	20.192	818.249	624.039
350.592	20.061	817.732	623.117
351.606	19.935	817.198	622.203
352.621	19.858	816.449	621.303
353.635	19.896	816.118	621.132
354.650	20.086	815.763	621.489
355.665	20.240	815.054	621.443
356.679	20.141	814.822	620.857
357.694	20.359	814.316	621.196
358.708	20.329	813.953	620.758
359.723	20.251	813.470	620.055
360.738	20.327	812.603	619.610
361.752	20.153	812.722	619.028
362.767	20.282	811.924	618.823
363.781	20.351	811.624	618.785
364.796	20.462	811.321	618.894
365.810	20.613	810.719	618.921
366.825	20.707	810.517	619.043
367.840	20.782	810.149	618.977
368.854	20.764	809.881	618.654
369.869	20.742	808.995	617.843
370.883	20.617	808.766	617.169
371.898	20.519	807.709	615.961
372.913	20.598	807.356	615.918
373.927	20.889	806.232	616.033
374.942	20.741	806.049	615.316
375.956	20.618	805.580	614.469
376.971	20.813	805.367	614.940
377.986	20.820	804.769	614.456
379.000	21.022	804.232	614.702
380.015	20.954	803.981	614.219
381.029	20.997	803.394	613.866
382.044	20.984	802.360	612.975
383.059	20.904	802.219	612.532
384.073	21.021	801.679	612.478
385.088	20.886	801.014	611.440
386.102	20.810	800.357	610.617
387.117	20.651	799.695	609.502
388.132	20.441	799.462	608.537
389.146	20.653	798.734	608.670
390.161	20.603	798.597	608.335
391.175	20.783	798.224	608.627
392.190	20.928	797.965	608.883
393.205	20.916	797.181	608.187
394.219	20.714	796.832	607.162
395.234	20.681	796.315	606.602
396.248	20.725	795.434	606.030
397.263	20.548	795.111	605.114
398.278	20.524	794.420	604.452
399.292	20.572	794.164	604.370
400.307	20.632	793.654	604.138
401.321	20.534	793.423	603.567
402.336	20.593	793.105	603.475
403.350	20.724	792.502	603.417
404.365	20.777	792.135	603.268
405.380	20.855	791.915	603.317
406.394	21.047	791.302	603.464
407.409	21.114	790.774	603.239
408.423	21.123	790.922	603.329
409.438	21.078	790.590	602.865
410.453	21.285	789.945	603.035
411.467	21.286	789.564	602.696
412.482	21.252	789.240	602.278
413.496	21.354	788.710	602.170
414.511	21.383	788.378	601.964
415.526	21.491	788.056	602.037
416.540	21.435	787.289	601.206
417.555	21.253	787.045	600.339
418.569	21.233	786.547	599.839
419.584	21.355	785.812	599.643
420.599	21.535	785.299	599.815
421.613	160.624	1368.975	1794.041
422.628	138.972	1454.017	1794.178
