DTS Sentinel unit serial number:	SN413079Multiplexer serial number:	ORYXHardware model number:	OX4-SRSoftware version number:	ORYX F/W v4.00 Oryx Data Collector v3.7.2.0data status	okinstallation	princeton_trtdifferential loss correction	single-endedforward channel	channel 3reverse channel	N/Adate	2019/09/13time	14:28:35forward acquisition time	60.00reverse acquisition time	0.00gamma	496.2192k internal	0.2302k external	0.2302temperature offset calibration	1.0145default loss term (dB/km)	0.3790temperature slope calibration	1.0000multiplexer offset coefficient	1.0000multiplexer slope coefficient	1.0000fibre end	0.00T internal ref (°C)	35.25T ext. ref 1 (°C)	4.63T ext. ref 2 (°C)	30.96length (m)	temperature (°C)	Stokes	anti-Stokes-747.200	88.520	0.021	-0.024
-746.185	-17.813	-0.320	0.205
-745.171	141.082	-0.169	0.228
-744.156	387.492	0.182	0.384
-743.142	-200.000	0.002	-0.083
-742.127	361.694	0.219	0.448
-741.112	-147.949	-0.191	0.016
-740.098	-151.748	-0.232	0.017
-739.083	-36.382	0.124	0.068
-738.069	-46.395	-0.219	0.110
-737.054	501.079	0.049	-0.114
-736.039	192.483	-0.289	0.444
-735.025	-146.730	0.362	-0.032
-734.010	381.040	0.027	0.056
-732.996	-200.000	0.000	-0.297
-731.981	800.000	0.049	0.199
-730.966	-200.000	0.002	0.205
-729.952	800.000	-0.074	-0.289
-728.937	-200.000	0.005	-0.223
-727.923	53.233	0.088	-0.086
-726.908	-59.251	-0.084	-0.037
-725.894	-200.000	0.042	-0.342
-724.879	47.837	-0.247	-0.235
-723.864	460.001	-0.034	-0.078
-722.850	-100.363	0.252	0.064
-721.835	57.845	0.097	-0.097
-720.821	-50.239	-0.293	-0.141
-719.806	-60.483	0.108	-0.047
-718.791	-49.126	0.161	0.078
-717.777	-200.000	-0.001	0.264
-716.762	-200.000	0.017	-0.188
-715.748	-40.934	0.322	0.169
-714.733	-118.797	-0.077	0.014
-713.718	800.000	-0.095	-0.271
-712.704	-40.455	0.103	0.054
-711.689	-1.658	0.117	0.084
-710.675	-200.000	-0.005	0.103
-709.660	-51.886	0.046	0.022
-708.645	144.237	0.053	-0.072
-707.631	-96.955	-0.114	-0.030
-706.616	50.757	-0.132	-0.128
-705.602	-64.880	0.131	0.054
-704.587	636.035	-0.088	-0.226
-703.572	574.397	-0.065	-0.161
-702.558	-124.562	0.217	0.034
-701.543	625.747	-0.122	0.313
-700.529	-22.116	0.055	-0.034
-699.514	63.607	-0.260	0.266
-698.499	413.563	0.169	0.365
-697.485	-87.435	0.238	-0.073
-696.470	-200.000	-0.002	-0.062
-695.456	185.864	-0.174	-0.263
-694.441	295.355	-0.019	-0.035
-693.426	-95.068	0.171	0.047
-692.412	286.754	-0.109	-0.200
-691.397	-200.000	-0.001	0.171
-690.383	249.951	-0.073	-0.126
-689.368	107.317	-0.004	-0.005
-688.354	-139.384	0.074	0.008
-687.339	-104.692	0.116	0.027
-686.324	-200.000	0.092	-0.443
-685.310	-17.378	-0.051	-0.033
-684.295	-0.183	0.134	0.097
-683.281	-200.000	0.007	-0.066
-682.266	-42.814	-0.250	0.129
-681.251	800.000	0.025	0.096
-680.237	-139.880	-0.180	0.019
-679.222	166.950	-0.200	-0.288
-678.208	96.786	-0.187	-0.218
-677.193	335.044	-0.016	-0.031
-676.178	-112.387	0.074	-0.015
-675.164	-25.234	0.280	-0.169
-674.149	101.566	0.041	0.049
-673.135	-200.000	0.028	0.331
-672.120	547.316	0.022	0.054
-671.105	41.491	-0.097	-0.090
-670.091	118.344	-0.057	0.072
-669.076	800.000	-0.051	0.149
-668.062	800.000	-0.127	0.410
-667.047	7.442	0.164	0.124
-666.032	-200.000	0.011	-0.100
-665.018	-161.592	-0.120	0.006
-664.003	326.964	-0.029	0.056
-662.989	800.000	-0.021	-0.074
-661.974	-47.293	-0.176	-0.087
-660.959	-110.391	0.131	0.028
-659.945	57.518	-0.277	0.275
-658.930	-61.644	-0.301	-0.128
-657.916	452.954	0.062	0.139
-656.901	-84.167	0.200	0.065
-655.886	91.485	-0.098	0.112
-654.872	800.000	0.019	0.082
-653.857	-71.571	0.308	0.117
-652.843	-119.696	0.226	-0.040
-651.828	-200.000	0.001	0.304
-650.814	480.777	-0.019	0.044
-649.799	-18.452	0.149	0.094
-648.784	13.553	-0.256	-0.202
-647.770	99.023	-0.094	-0.110
-646.755	-158.264	0.188	-0.011
-645.741	-117.571	-0.101	0.019
-644.726	-65.363	-0.258	-0.105
-643.711	59.706	-0.048	-0.048
-642.697	800.000	-0.096	-0.286
-641.682	165.096	-0.034	0.049
-640.668	-103.156	0.305	0.073
-639.653	67.631	0.183	0.190
-638.638	800.000	-0.017	-0.064
-637.624	111.147	0.069	0.084
-636.609	-42.411	-0.518	-0.268
-635.595	615.673	-0.153	0.388
-634.580	-200.000	-0.048	0.213
-633.565	-90.501	-0.209	-0.061
-632.551	-39.027	0.148	0.079
-631.536	695.423	0.022	0.058
-630.522	-200.000	0.005	-0.070
-629.507	800.000	0.100	-0.331
-628.492	-46.417	-0.150	0.075
-627.478	-128.045	0.013	0.002
-626.463	-56.394	-0.482	-0.217
-625.449	530.709	0.097	0.232
-624.434	231.139	0.075	0.124
-623.419	-200.000	0.008	0.209
-622.405	-200.000	0.014	0.254
-621.390	-200.000	0.041	-0.188
-620.376	-120.742	0.099	-0.017
-619.361	-39.193	-0.279	-0.148
-618.346	800.000	0.050	0.151
-617.332	-150.274	0.285	0.022
-616.317	40.424	0.110	0.100
-615.303	-200.000	-0.012	-0.228
-614.288	152.443	-0.139	0.192
-613.273	141.176	0.259	0.348
-612.259	-200.000	0.001	0.068
-611.244	-83.884	-0.249	-0.080
-610.230	-200.000	-0.042	-0.276
-609.215	-200.000	-0.065	-0.300
-608.201	34.418	0.203	-0.180
-607.186	-200.000	0.018	-0.402
-606.171	-174.302	0.213	0.006
-605.157	440.220	-0.115	-0.256
-604.142	-77.206	0.148	-0.052
-603.128	260.670	-0.105	-0.184
-602.113	57.072	0.169	-0.167
-601.098	-200.000	-0.030	0.169
-600.084	258.319	0.131	0.228
-599.069	120.789	-0.007	-0.009
-598.055	-200.000	0.057	0.261
-597.040	-37.928	0.456	-0.246
-596.025	-14.850	-0.010	0.006
-595.011	0.683	0.150	-0.109
-593.996	800.000	-0.039	-0.127
-592.982	-15.445	0.176	-0.114
-591.967	-55.452	-0.255	-0.116
-590.952	-105.115	0.272	-0.063
-589.938	242.447	0.072	0.123
-588.923	-3.279	-0.085	0.060
-587.909	-88.543	0.383	-0.116
-586.894	-200.000	-0.013	-0.060
-585.879	261.689	-0.142	0.249
-584.865	800.000	-0.018	0.074
-583.850	218.680	-0.101	0.163
-582.836	721.484	0.072	-0.194
-581.821	-48.240	-0.277	-0.135
-580.806	124.275	-0.067	0.085
-579.792	-101.902	0.178	-0.044
-578.777	-43.095	-0.311	-0.159
-577.763	-200.000	-0.048	-0.296
-576.748	107.670	0.025	0.030
-575.733	87.070	0.303	0.339
-574.719	800.000	-0.042	0.167
-573.704	489.724	0.020	-0.047
-572.690	32.881	-0.386	0.338
-571.675	84.557	-0.294	0.325
-570.661	-139.539	-0.386	0.042
-569.646	183.807	-0.104	0.156
-568.631	94.934	0.179	0.207
-567.617	134.192	0.036	-0.047
-566.602	-200.000	-0.002	-0.176
-565.588	-80.084	-0.152	0.052
-564.573	-200.000	-0.010	-0.075
-563.558	157.967	0.108	0.152
-562.544	-97.488	-0.184	0.048
-561.529	435.342	-0.142	0.314
-560.515	376.795	0.093	0.193
-559.500	-85.264	-0.380	-0.120
-558.485	6.747	0.300	-0.226
-557.471	239.466	0.092	-0.156
-556.456	-200.000	-0.039	-0.410
-555.442	800.000	-0.064	-0.255
-554.427	202.135	-0.129	-0.201
-553.412	278.924	-0.209	-0.376
-552.398	800.000	0.025	0.101
-551.383	800.000	-0.031	-0.126
-550.369	800.000	0.073	0.308
-549.354	492.823	-0.145	-0.337
-548.339	-61.930	-0.208	0.088
-547.325	-200.000	-0.035	0.219
-546.310	274.523	-0.138	-0.247
-545.296	-200.000	0.003	-0.206
-544.281	-13.920	-0.216	-0.141
-543.266	800.000	0.059	0.167
-542.252	317.274	0.048	0.091
-541.237	-155.937	0.182	-0.012
-540.223	-40.854	-0.371	0.194
-539.208	298.028	0.040	-0.073
-538.193	-200.000	-0.025	-0.159
-537.179	-10.181	-0.215	-0.144
-536.164	113.852	0.164	0.202
-535.150	144.950	0.265	0.359
-534.135	-54.852	-0.038	-0.017
-533.121	129.930	0.053	0.069
-532.106	-200.000	-0.006	0.134
-531.091	145.910	0.094	-0.127
-530.077	138.756	-0.330	-0.438
-529.062	-135.597	0.221	-0.027
-528.048	-200.000	0.025	0.251
-527.033	2.282	0.129	0.094
-526.018	488.707	-0.030	-0.070
-525.004	-101.081	-0.256	-0.063
-523.989	-38.217	0.066	0.035
-522.975	-46.850	0.155	0.077
-521.960	-200.000	-0.011	-0.118
-520.945	82.279	0.303	-0.332
-519.931	-131.904	0.088	-0.012
-518.916	22.304	0.238	0.197
-517.902	-142.074	0.111	-0.011
-516.887	364.166	-0.172	-0.349
-515.872	-132.782	0.225	0.029
-514.858	-200.000	0.045	0.214
-513.843	124.202	0.125	-0.159
-512.829	411.327	0.091	-0.196
-511.814	-44.860	-0.246	-0.124
-510.799	-200.000	0.026	-0.248
-509.785	800.000	0.094	-0.319
-508.770	-141.545	-0.103	0.011
-507.756	800.000	-0.030	-0.119
-506.741	-13.465	0.314	0.206
-505.726	256.181	-0.275	0.476
-504.712	-113.315	0.156	-0.031
-503.697	21.104	0.181	-0.148
-502.683	50.549	-0.263	-0.251
-501.668	-4.092	0.187	0.131
-500.653	224.195	-0.114	0.185
-499.639	16.785	0.146	-0.117
-498.624	-200.000	0.001	0.079
-497.610	-200.000	-0.005	-0.246
-496.595	524.089	-0.065	-0.155
-495.581	61.071	-0.117	-0.117
-494.566	-55.304	0.126	0.057
-493.551	-21.617	0.091	0.056
-492.537	-166.682	-0.344	-0.014
-491.522	681.936	0.049	0.129
-490.508	-165.831	0.304	-0.013
-489.493	89.563	0.142	0.160
-488.478	-46.471	-0.322	0.159
-487.464	35.836	0.063	0.056
-486.449	-93.306	0.369	-0.103
-485.435	-200.000	-0.027	-0.327
-484.420	-200.000	-0.026	-0.224
-483.405	-87.873	-0.327	0.099
-482.391	-163.491	-0.214	-0.010
-481.376	-151.999	-0.209	-0.015
-480.362	-80.150	0.180	-0.061
-479.347	-4.643	0.048	-0.034
-478.332	-68.650	0.182	-0.071
-477.318	-200.000	0.053	0.314
-476.303	-200.000	-0.008	0.159
-475.289	172.549	0.141	-0.205
-474.274	394.843	-0.035	0.073
-473.259	250.917	-0.086	-0.147
-472.245	-200.000	0.032	-0.160
-471.230	178.776	0.171	0.252
-470.216	73.870	-0.211	-0.223
-469.201	-200.000	0.051	-0.307
-468.186	800.000	-0.021	0.082
-467.172	-141.035	0.128	0.013
-466.157	427.704	-0.100	-0.218
-465.143	800.000	-0.021	-0.091
-464.128	-200.000	-0.015	-0.080
-463.113	-10.277	-0.253	-0.169
-462.099	265.178	0.039	-0.068
-461.084	800.000	-0.073	0.204
-460.070	-66.083	-0.141	0.057
-459.055	-200.000	-0.021	-0.258
-458.040	14.165	0.183	0.143
-457.026	327.712	-0.121	0.234
-456.011	-141.209	0.130	0.013
-454.997	-200.000	-0.020	0.261
-453.982	-124.542	-0.338	-0.053
-452.968	627.278	-0.065	0.166
-451.953	678.458	0.080	0.209
-450.938	-84.968	-0.188	0.059
-449.924	563.245	0.214	-0.522
-448.909	3.503	0.199	-0.146
-447.895	-28.787	-0.256	-0.148
-446.880	-143.981	-0.172	-0.016
-445.865	-2.041	0.228	0.161
-444.851	-78.264	-0.131	0.045
-443.836	509.294	0.042	-0.099
-442.822	-200.000	-0.032	-0.323
-441.807	-133.387	-0.340	-0.043
-440.792	800.000	0.099	0.438
-439.778	142.343	0.111	0.149
-438.763	426.275	0.112	0.243
-437.749	-200.000	0.168	0.000
-436.734	324.949	-0.092	-0.177
-435.719	153.835	0.097	-0.133
-434.705	612.803	0.126	0.318
-433.690	800.000	0.030	0.088
-432.676	413.082	0.131	0.280
-431.661	800.000	-0.066	-0.247
-430.646	800.000	0.050	0.191
-429.632	-131.888	-0.317	-0.042
-428.617	-1.293	-0.160	-0.114
-427.603	-79.181	-0.062	-0.021
-426.588	-43.275	0.134	-0.068
-425.573	-200.000	0.009	0.173
-424.559	-80.498	0.172	0.058
-423.544	-139.184	0.134	-0.015
-422.530	72.871	-0.266	-0.280
-421.515	685.806	0.076	0.200
-420.500	51.859	-0.164	-0.157
-419.486	-57.218	0.167	0.074
-418.471	262.386	-0.141	0.247
-417.457	-200.000	-0.019	0.320
-416.442	-54.289	0.203	0.093
-415.428	-110.739	0.061	0.013
-414.413	-181.254	-0.319	-0.006
-413.398	210.783	0.026	0.042
-412.384	425.316	0.076	0.164
-411.369	-40.771	0.112	-0.058
-410.355	455.584	0.086	-0.193
-409.340	-10.836	-0.083	-0.055
-408.325	-83.927	0.207	-0.066
-407.311	454.120	-0.193	-0.430
-406.296	-85.411	-0.139	0.044
-405.282	3.215	0.199	0.145
-404.267	-80.731	0.252	0.084
-403.252	86.363	0.276	0.306
-402.238	156.842	0.316	0.440
-401.223	800.000	-0.070	0.274
-400.209	95.960	-0.296	-0.340
-399.194	-78.920	-0.150	0.052
-398.179	-48.764	0.324	-0.157
-397.165	-200.000	0.009	0.238
-396.150	722.274	0.126	-0.338
-395.136	-200.000	0.005	-0.044
-394.121	-200.000	0.032	0.234
-393.106	469.526	-0.025	-0.056
-392.092	16.855	0.378	-0.301
-391.077	800.000	-0.062	0.232
-390.063	-102.765	0.096	-0.023
-389.048	43.737	0.045	0.042
-388.033	-200.000	-0.012	0.124
-387.019	60.984	0.189	-0.188
-386.004	1.192	-0.142	-0.102
-384.990	-200.000	-0.024	0.223
-383.975	-120.343	-0.211	-0.036
-382.960	108.182	0.006	-0.008
-381.946	-106.926	0.261	-0.058
-380.931	-79.773	-0.144	0.049
-379.917	183.368	0.066	-0.098
-378.902	199.770	0.305	-0.470
-377.888	-76.677	-0.072	0.025
-376.873	-200.000	-0.008	-0.046
-375.858	-93.891	0.115	-0.032
-374.844	-200.000	-0.000	0.146
-373.829	182.381	-0.071	0.105
-372.815	-200.000	0.029	-0.234
-371.800	-200.000	0.022	0.224
-370.785	495.946	-0.120	-0.277
-369.771	-64.661	0.166	0.068
-368.756	-115.496	-0.156	-0.030
-367.742	557.679	-0.048	0.117
-366.727	456.599	-0.042	0.094
-365.712	-123.111	-0.220	-0.035
-364.698	85.178	-0.115	-0.126
-363.683	-15.934	-0.192	-0.123
-362.669	393.155	-0.150	0.312
-361.654	-200.000	-0.014	0.330
-360.639	-172.501	-0.364	-0.012
-359.625	-37.188	-0.249	0.133
-358.610	30.751	0.260	-0.224
-357.596	-170.753	0.205	-0.007
-356.581	-83.981	-0.226	-0.072
-355.566	-172.770	-0.226	-0.007
-354.552	110.310	-0.089	-0.107
-353.537	183.049	-0.100	0.149
-352.523	740.064	-0.074	-0.199
-351.508	181.580	-0.236	-0.348
-350.493	381.480	-0.058	0.120
-349.479	450.285	-0.064	-0.141
-348.464	258.758	0.073	-0.126
-347.450	266.231	-0.216	0.379
-346.435	227.370	0.113	-0.185
-345.420	85.117	0.250	-0.275
-344.406	-111.255	0.308	0.063
-343.391	-10.447	0.084	-0.056
-342.377	800.000	0.026	0.086
-341.362	-200.000	-0.016	0.320
-340.348	54.757	-0.104	-0.101
-339.333	-71.704	0.198	0.074
-338.318	-199.454	0.141	-0.001
-337.304	16.436	0.285	0.226
-336.289	-10.678	-0.067	0.044
-335.275	800.000	0.084	0.351
-334.260	800.000	-0.041	0.135
-333.245	257.617	0.071	-0.122
-332.231	-88.706	0.157	-0.047
-331.216	-29.544	-0.121	0.069
-330.202	123.717	0.080	-0.100
-329.187	66.536	-0.050	-0.051
-328.172	554.150	-0.055	-0.132
-327.158	30.115	0.220	0.188
-326.143	-21.220	-0.284	-0.174
-325.129	98.717	0.164	0.190
-324.114	16.359	0.176	0.139
-323.099	463.456	-0.004	-0.009
-322.085	-116.079	-0.089	0.017
-321.070	-164.164	0.228	0.011
-320.056	187.945	0.137	0.205
-319.041	800.000	-0.069	0.240
-318.026	-200.000	-0.006	0.244
-317.012	-157.526	-0.112	0.007
-315.997	-23.102	-0.167	0.101
-314.983	-200.000	0.050	-0.255
-313.968	800.000	0.125	0.474
-312.953	83.544	0.211	-0.230
-311.939	473.944	-0.047	-0.106
-310.924	800.000	-0.005	0.018
-309.910	-20.261	0.090	0.056
-308.895	180.968	0.036	-0.053
-307.880	349.416	0.122	0.241
-306.866	137.183	-0.073	0.095
-305.851	-143.174	0.182	0.018
-304.837	319.599	0.114	0.216
-303.822	-200.000	0.048	-0.254
-302.807	195.575	-0.275	-0.418
-301.793	-152.542	-0.294	0.021
-300.778	-95.835	0.196	-0.053
-299.764	-113.364	-0.164	-0.032
-298.749	160.991	0.009	-0.012
-297.735	453.622	0.159	0.352
-296.720	-113.778	-0.358	-0.070
-295.705	-200.000	-0.017	0.133
-294.691	800.000	0.029	0.093
-293.676	-200.000	-0.019	0.228
-292.662	100.323	0.120	0.139
-291.647	-136.750	-0.148	0.017
-290.632	-140.142	-0.346	0.036
-289.618	-82.356	0.250	0.081
-288.603	135.026	-0.152	0.198
-287.589	30.769	0.063	0.054
-286.574	-73.160	-0.316	-0.116
-285.559	3.515	-0.283	-0.207
-284.545	-200.000	-0.002	-0.170
-283.530	29.880	0.179	0.153
-282.516	31.459	-0.216	-0.186
-281.501	586.525	-0.047	-0.117
-280.486	-114.868	-0.235	0.045
-279.472	800.000	-0.097	-0.279
-278.457	326.398	0.211	-0.404
-277.443	-88.086	0.132	0.040
-276.428	-200.000	-0.041	0.333
-275.413	39.754	0.306	0.274
-274.399	215.285	0.044	-0.071
-273.384	-130.785	0.071	-0.009
-272.370	-200.000	0.019	-0.213
-271.355	155.347	0.155	0.213
-270.340	381.136	-0.180	0.370
-269.326	-186.280	0.144	0.002
-268.311	57.473	0.140	0.137
-267.297	-37.774	-0.347	0.185
-266.282	58.498	0.210	-0.206
-265.267	11.880	-0.161	0.124
-264.253	-200.000	0.039	-0.260
-263.238	235.985	0.056	-0.093
-262.224	-30.573	0.143	0.081
-261.209	431.027	0.055	0.119
-260.195	-135.680	-0.358	-0.042
-259.180	85.813	-0.136	0.150
-258.165	-200.000	0.082	0.374
-257.151	526.905	-0.081	0.191
-256.136	68.274	-0.285	-0.292
-255.122	-200.000	0.009	-0.080
-254.107	-200.000	-0.038	-0.238
-253.092	-200.000	-0.005	0.130
-252.078	-43.606	0.168	0.084
-251.063	-101.608	-0.374	-0.091
-250.049	-66.685	0.219	0.087
-249.034	243.475	-0.057	0.095
-248.019	-200.000	0.066	0.311
-247.005	3.919	0.162	-0.118
-245.990	0.215	-0.075	-0.053
-244.976	23.522	0.182	-0.150
-243.961	181.687	0.132	0.194
-242.946	-154.925	-0.365	0.024
-241.932	-37.224	0.235	-0.125
-240.917	3.966	-0.032	-0.024
-239.903	-12.434	-0.230	0.150
-238.888	10.276	-0.135	0.103
-237.873	-136.690	-0.095	0.011
-236.859	-200.000	0.002	0.048
-235.844	-53.259	-0.135	0.062
-234.830	124.239	0.200	0.251
-233.815	220.270	0.151	-0.242
-232.800	800.000	0.052	0.156
-231.786	622.900	0.055	0.139
-230.771	208.523	-0.090	-0.140
-229.757	64.368	-0.194	0.195
-228.742	433.013	-0.131	-0.284
-227.727	57.353	-0.295	-0.287
-226.713	408.826	-0.127	0.269
-225.698	221.007	-0.086	-0.138
-224.684	435.141	-0.115	0.249
-223.669	-77.930	-0.024	0.008
-222.655	-200.000	-0.028	0.241
-221.640	-122.518	0.266	-0.043
-220.625	-200.000	-0.060	-0.456
-219.611	-200.000	0.020	-0.165
-218.596	-150.565	0.157	-0.012
-217.582	122.721	-0.143	-0.178
-216.567	73.964	0.479	-0.502
-215.552	-77.874	-0.071	-0.024
-214.538	-35.733	-0.059	0.032
-213.523	-68.477	-0.133	-0.052
-212.509	-200.000	-0.012	0.206
-211.494	-7.606	0.498	0.336
-210.479	-111.705	-0.069	-0.014
-209.465	78.173	-0.161	-0.171
-208.450	-200.000	0.045	0.276
-207.436	-200.000	0.059	-0.290
-206.421	-83.066	-0.168	-0.054
-205.406	-200.000	0.042	-0.271
-204.392	27.292	0.234	-0.196
-203.377	-112.471	0.237	-0.047
-202.363	-5.707	0.204	-0.139
-201.348	-14.186	-0.172	0.111
-200.333	120.402	0.056	0.070
-199.319	-200.000	0.000	-0.026
-198.304	359.969	-0.048	0.096
-197.290	35.132	-0.333	-0.291
-196.275	-200.000	0.001	-0.017
-195.260	-200.000	-0.026	-0.267
-194.246	-143.601	0.128	-0.012
-193.231	-200.000	-0.009	-0.108
-192.217	-200.000	0.000	-0.109
-191.202	562.926	0.058	-0.140
-190.187	32.195	-0.126	-0.109
-189.173	95.998	-0.034	0.039
-188.158	18.153	0.252	0.201
-187.144	-91.838	0.379	0.107
-186.129	-200.000	0.032	-0.210
-185.114	-200.000	-0.024	0.356
-184.100	-54.843	-0.080	0.036
-183.085	-200.000	-0.006	-0.122
-182.071	-114.449	0.188	0.036
-181.056	-130.130	0.118	-0.016
-180.042	56.288	-0.093	-0.090
-179.027	770.341	0.085	0.230
-178.012	31.324	-0.087	-0.075
-176.998	595.426	-0.080	0.197
-175.983	359.399	-0.156	-0.310
-174.969	539.470	-0.130	0.308
-173.954	-48.689	-0.149	0.071
-172.939	-16.450	-0.168	0.106
-171.925	107.505	-0.098	-0.116
-170.910	-30.365	0.285	0.161
-169.896	-200.000	0.020	0.154
-168.881	-76.817	0.405	0.141
-167.866	-200.000	0.058	-0.286
-166.852	-118.479	-0.173	0.031
-165.837	-200.000	0.018	-0.107
-164.823	-148.498	0.204	-0.017
-163.808	-47.952	-0.089	-0.043
-162.793	4.144	-0.109	0.079
-161.779	-31.222	0.198	-0.111
-160.764	-141.968	0.062	-0.006
-159.750	800.000	0.125	0.369
-158.735	-145.233	-0.066	-0.006
-157.720	-200.000	-0.009	0.086
-156.706	110.261	0.146	0.174
-155.691	800.000	-0.034	-0.096
-154.677	290.576	-0.036	-0.066
-153.662	800.000	-0.083	0.285
-152.647	-145.886	0.336	0.030
-151.633	52.261	0.087	-0.082
-150.618	-146.152	-0.163	0.014
-149.604	18.426	-0.036	0.029
-148.589	-9.997	0.103	0.068
-147.574	-161.634	0.108	0.005
-146.560	747.162	0.097	0.261
-145.545	72.140	-0.319	-0.330
-144.531	800.000	-0.053	0.226
-143.516	-200.000	0.041	0.314
-142.502	793.230	-0.066	0.181
-141.487	36.892	-0.122	0.107
-140.472	-121.225	-0.217	-0.036
-139.458	150.822	0.097	0.131
-138.443	-142.409	0.415	-0.041
-137.429	-79.986	-0.147	-0.049
-136.414	-200.000	-0.024	-0.109
-135.399	588.902	0.198	0.486
-134.385	-3.968	0.203	0.140
-133.370	102.027	-0.052	-0.060
-132.356	344.737	0.020	0.039
-131.341	-200.000	0.075	0.539
-130.326	-117.713	-0.067	-0.012
-129.312	54.193	0.402	-0.385
-128.297	564.316	0.043	0.104
-127.283	443.884	-0.120	-0.261
-126.268	-106.525	-0.322	0.071
-125.253	-200.000	0.021	0.122
-124.239	-2.487	-0.046	-0.032
-123.224	302.182	0.092	-0.170
-122.210	-102.102	-0.217	-0.052
-121.195	800.000	-0.055	-0.229
-120.180	-200.000	-0.028	-0.141
-119.166	-19.906	0.205	-0.126
-118.151	-183.837	0.377	-0.006
-117.137	229.873	0.068	0.111
-116.122	420.249	0.166	-0.353
-115.107	471.807	0.042	0.094
-114.093	226.453	0.126	0.204
-113.078	600.139	-0.084	-0.208
-112.064	-200.000	-0.002	0.015
-111.049	-200.000	-0.041	0.260
-110.034	429.583	-0.161	-0.345
-109.020	-155.268	-0.032	0.002
-108.005	-126.606	0.112	-0.016
-106.991	573.099	-0.022	-0.054
-105.976	-160.275	-0.201	-0.011
-104.962	3.158	0.168	0.122
-103.947	-80.493	0.316	0.105
-102.932	800.000	0.041	0.142
-101.918	243.215	-0.197	0.328
-100.903	27.877	-0.220	0.184
-99.889	89.326	-0.096	-0.106
-98.874	10.663	-0.195	0.148
-97.859	33.081	-0.281	-0.242
-96.845	586.736	0.063	-0.154
-95.830	182.033	-0.066	-0.096
-94.816	-200.000	0.021	-0.128
-93.801	-144.918	0.160	-0.015
-92.786	592.387	0.032	0.078
-91.772	-200.000	-0.029	0.321
-90.757	434.393	0.173	-0.374
-89.743	-45.592	0.351	-0.172
-88.728	-111.001	0.308	0.063
-87.713	3.543	0.141	-0.102
-86.699	-4.302	-0.184	-0.127
-85.684	800.000	0.022	0.078
-84.670	800.000	0.054	0.155
-83.655	639.836	-0.064	0.161
-82.640	104.428	0.092	-0.107
-81.626	-71.146	0.113	-0.042
-80.611	-43.824	0.207	0.103
-79.597	-200.000	-0.023	0.193
-78.582	-28.584	0.099	0.056
-77.567	-37.902	0.202	0.107
-76.553	354.975	0.126	-0.249
-75.538	46.189	-0.019	-0.018
-74.524	16.330	0.200	0.157
-73.509	-16.160	0.079	-0.050
-72.494	536.787	0.113	0.267
-71.480	-200.000	0.061	0.373
-70.465	25.619	-0.252	0.208
-69.451	292.768	-0.116	0.209
-68.436	-33.049	-0.061	-0.033
-67.422	-94.769	-0.172	0.046
-66.407	9.540	0.156	0.117
-65.392	-200.000	0.006	-0.040
-64.378	243.544	-0.191	0.317
-63.363	-34.028	0.359	-0.196
-62.349	315.503	0.209	0.391
-61.334	176.693	-0.587	-0.846
-60.319	373.875	0.195	0.394
-59.305	686.661	-0.295	-0.765
-58.290	154.896	0.735	1.002
-57.276	800.000	0.459	1.559
-56.261	-200.000	95.027	561.091
-55.246	631.552	1384.210	3476.650
-54.232	185.752	2602.991	3837.158
-53.217	121.480	2214.224	2736.896
-52.203	45.714	1747.077	1601.669
-51.188	38.359	1556.361	1375.293
-50.173	35.926	1528.376	1333.682
-49.159	53.859	1578.777	1504.398
-48.144	57.401	1598.160	1547.773
-47.130	38.780	1553.153	1375.196
-46.115	35.480	1537.991	1338.750
-45.100	35.296	1534.931	1334.750
-44.086	35.335	1532.577	1332.926
-43.071	35.331	1530.297	1330.861
-42.057	35.257	1529.503	1329.604
-41.042	35.141	1527.596	1327.091
-40.027	35.236	1525.973	1326.283
-39.013	35.267	1524.325	1325.014
-37.998	35.206	1523.322	1323.670
-36.984	35.235	1522.476	1323.077
-35.969	35.267	1520.760	1321.760
-34.954	35.321	1519.082	1320.620
-33.940	35.138	1518.351	1318.674
-32.925	35.298	1516.468	1318.079
-31.911	35.289	1515.469	1317.103
-30.896	35.243	1514.472	1315.866
-29.881	35.339	1512.509	1314.764
-28.867	35.358	1511.000	1313.533
-27.852	35.309	1509.894	1312.180
-26.838	35.304	1508.176	1310.601
-25.823	35.367	1506.538	1309.560
-24.809	35.376	1504.651	1307.929
-23.794	35.286	1503.608	1306.357
-22.779	35.305	1502.471	1305.448
-21.765	35.145	1502.051	1303.941
-20.750	35.304	1500.476	1303.600
-19.736	35.395	1498.545	1302.494
-18.721	35.267	1498.262	1301.326
-17.706	35.205	1497.287	1300.003
-16.692	35.345	1495.571	1299.410
-15.677	35.259	1494.696	1298.018
-14.663	35.136	1494.356	1296.836
-13.648	35.294	1492.305	1296.074
-12.633	35.234	1491.697	1295.088
-11.619	35.187	1491.095	1294.199
-10.604	35.219	1490.346	1293.713
-9.590	35.149	1489.645	1292.581
-8.575	35.103	1488.951	1291.615
-7.560	35.215	1487.662	1291.205
-6.546	35.199	1487.016	1290.485
-5.531	35.184	1486.042	1289.484
-4.517	35.121	1485.236	1288.310
-3.502	35.155	1484.063	1287.469
-2.487	35.106	1483.029	1286.195
-1.473	35.140	1481.864	1285.360
-0.458	35.245	1480.252	1284.617
0.556	37.314	1470.998	1273.840
1.571	34.041	1443.296	1228.636
2.586	29.849	1379.284	1148.090
3.600	27.543	1294.861	1064.272
4.615	25.267	1246.172	1011.356
5.629	21.259	1188.823	943.134
6.644	12.569	1103.059	831.292
7.659	5.890	1060.661	766.722
8.673	4.835	1055.079	757.493
9.688	4.701	1051.606	754.284
10.702	4.345	1050.690	751.831
11.717	4.629	1048.834	751.814
12.731	7.838	1052.637	770.019
13.746	16.442	1064.537	820.603
14.761	21.933	1071.524	852.676
15.775	22.167	1070.323	852.777
16.790	21.342	1068.469	847.231
17.804	20.413	1066.002	840.702
18.819	19.434	1064.205	834.477
19.834	19.234	1062.668	832.235
20.848	18.920	1061.921	830.061
21.863	18.812	1061.235	828.930
22.877	18.709	1060.540	827.815
23.892	18.427	1060.286	826.183
24.907	18.299	1059.349	824.764
25.921	18.204	1058.998	823.963
26.936	18.320	1057.747	823.475
27.950	18.245	1056.692	822.218
28.965	18.231	1055.695	821.304
29.980	18.482	1054.103	821.193
30.994	18.572	1053.101	820.770
32.009	18.622	1052.529	820.493
33.023	18.657	1051.954	820.140
34.038	18.745	1050.678	819.493
35.053	18.764	1049.405	818.518
36.067	18.444	1048.940	816.554
37.082	18.343	1048.259	815.474
38.096	18.400	1047.449	815.041
39.111	18.527	1046.776	815.051
40.126	18.581	1046.091	814.702
41.140	18.496	1044.488	812.976
42.155	18.283	1043.027	810.760
43.169	18.089	1042.285	809.193
44.184	17.969	1041.182	807.699
45.199	17.899	1040.063	806.428
46.213	17.961	1039.578	806.271
47.228	18.057	1038.449	805.777
48.242	18.468	1037.206	806.676
49.257	18.456	1036.692	806.152
50.271	18.408	1035.592	804.998
51.286	18.412	1034.741	804.285
52.301	18.512	1034.134	804.210
53.315	18.572	1033.151	803.654
54.330	18.320	1032.442	801.854
55.344	18.181	1031.507	800.404
56.359	18.147	1030.149	799.121
57.374	18.164	1029.417	798.562
58.388	18.062	1028.809	797.544
59.403	18.064	1027.750	796.662
60.417	17.960	1026.906	795.455
61.432	18.013	1026.289	795.153
62.447	17.988	1025.648	794.469
63.461	17.894	1024.644	793.182
64.476	17.828	1023.417	791.858
65.490	17.926	1021.854	791.031
66.505	17.736	1021.740	789.996
67.520	17.803	1020.981	789.647
68.534	17.904	1020.528	789.696
69.549	17.913	1019.573	788.929
70.563	17.907	1018.736	788.180
71.578	17.758	1018.264	787.061
72.593	17.810	1016.779	786.082
73.607	17.606	1016.204	784.627
74.622	17.673	1015.048	783.974
75.636	17.710	1014.526	783.673
76.651	17.626	1013.777	782.636
77.666	17.739	1012.810	782.339
78.680	17.760	1012.142	781.853
79.695	17.871	1011.574	781.852
80.709	17.876	1010.986	781.352
81.724	17.918	1010.095	780.786
82.739	18.057	1009.452	780.854
83.753	18.088	1008.927	780.521
84.768	18.215	1008.337	780.574
85.782	18.625	1007.891	782.029
86.797	18.749	1007.083	781.898
87.812	18.750	1006.041	781.024
88.826	18.491	1005.327	779.224
89.841	18.418	1004.440	778.136
90.855	18.462	1003.892	777.843
91.870	18.618	1003.059	777.837
92.884	18.627	1002.302	777.222
93.899	18.555	1001.783	776.424
94.914	18.679	1000.534	775.945
95.928	18.568	999.847	774.844
96.943	18.708	999.519	775.155
97.957	18.528	998.277	773.309
98.972	18.517	997.521	772.608
99.987	18.483	997.148	772.096
101.001	18.553	996.617	771.933
102.016	18.441	995.692	770.643
103.030	18.510	994.241	769.764
104.045	18.478	993.575	769.034
105.060	18.575	992.788	768.794
106.074	18.558	991.294	767.490
107.089	18.324	990.297	765.604
108.103	17.965	989.813	763.561
109.118	17.865	988.930	762.364
110.133	17.893	988.007	761.709
111.147	17.891	986.687	760.614
112.162	17.798	986.027	759.626
113.176	17.931	984.685	759.117
114.191	17.952	984.701	759.155
115.206	18.050	983.788	758.820
116.220	18.037	983.418	758.407
117.235	17.900	981.904	756.567
118.249	17.893	981.221	755.941
119.264	17.973	980.214	755.454
120.279	17.957	979.050	754.419
121.293	17.804	978.479	753.239
122.308	17.749	977.939	752.512
123.322	17.749	976.648	751.451
124.337	17.763	975.474	750.542
125.352	17.751	974.212	749.455
126.366	17.727	973.476	748.717
127.381	17.755	971.989	747.627
128.395	17.725	971.455	747.021
129.410	17.700	970.608	746.193
130.424	17.805	969.647	745.848
131.439	17.807	969.182	745.432
132.454	18.137	968.147	746.010
133.468	17.987	967.801	745.024
134.483	18.078	966.972	744.717
135.497	18.161	966.217	744.432
136.512	18.103	965.864	743.840
137.527	18.077	965.169	743.127
138.541	18.121	964.555	742.778
139.556	18.060	963.798	741.864
140.570	18.178	962.673	741.445
141.585	18.320	961.939	741.427
142.600	18.332	961.561	741.123
143.614	18.461	960.569	740.850
144.629	18.532	959.801	740.500
145.643	18.693	958.957	740.480
146.658	18.641	958.223	739.621
147.673	18.443	957.506	738.152
148.687	18.319	956.321	736.636
149.702	18.103	955.777	735.226
150.716	17.985	955.002	734.057
151.731	17.992	953.856	733.142
152.746	18.089	953.129	732.934
153.760	18.227	952.268	732.799
154.775	18.125	951.949	732.049
155.789	18.362	950.859	732.160
156.804	18.183	950.967	731.412
157.819	18.440	949.075	730.991
158.833	18.418	948.827	730.642
159.848	18.551	948.064	730.553
160.862	18.635	947.612	730.501
161.877	18.496	947.102	729.450
162.892	18.261	945.752	727.348
163.906	18.259	944.549	726.351
164.921	18.180	943.498	725.142
165.935	18.022	942.720	723.813
166.950	18.102	941.729	723.325
167.964	18.189	940.961	723.038
168.979	18.349	939.861	722.806
169.994	18.212	938.863	721.395
171.008	18.171	938.340	720.758
172.023	18.348	937.367	720.693
173.037	18.442	936.994	720.735
174.052	18.592	936.252	720.732
175.067	18.434	935.602	719.505
176.081	18.324	934.215	717.914
177.096	18.051	933.480	716.141
178.110	18.232	932.347	715.967
179.125	18.151	931.670	715.042
180.140	18.191	931.034	714.658
181.154	18.311	930.426	714.632
182.169	18.322	929.966	714.259
183.183	18.432	929.257	714.112
184.198	18.628	928.479	714.267
185.213	18.548	928.284	713.720
186.227	18.715	927.408	713.676
187.242	18.592	926.918	712.725
188.256	18.664	926.397	712.561
189.271	18.820	925.772	712.667
190.286	18.885	925.103	712.355
191.300	18.654	923.869	710.385
192.315	18.297	922.907	708.107
193.329	17.949	922.056	705.953
194.344	17.926	921.310	705.226
195.359	18.148	920.892	705.758
196.373	18.216	920.635	705.781
197.388	18.477	919.619	706.013
198.402	18.614	919.588	706.492
199.417	18.573	919.898	706.500
200.432	18.864	919.258	707.141
201.446	18.998	918.619	707.137
202.461	19.116	918.444	707.426
203.475	19.104	918.156	707.094
204.490	19.046	917.086	705.968
205.504	18.811	916.353	704.377
206.519	18.753	914.610	702.739
207.534	18.717	913.988	702.051
208.548	18.487	913.665	700.801
209.563	18.653	913.317	701.151
210.577	18.730	912.372	700.677
211.592	18.938	911.370	700.692
212.607	18.977	911.436	700.840
213.621	18.973	911.100	700.503
214.636	18.844	909.983	699.057
215.650	18.886	909.256	698.610
216.665	18.899	909.098	698.478
217.680	18.867	908.592	697.900
218.694	18.880	908.444	697.777
219.709	19.114	907.607	698.019
220.723	19.124	906.680	697.287
221.738	19.292	905.797	697.225
222.753	18.929	905.403	695.392
223.767	19.039	904.649	695.194
224.782	19.204	903.685	695.058
225.796	19.143	903.427	694.554
226.811	19.331	902.778	694.751
227.826	19.269	901.641	693.566
228.840	19.079	900.980	692.231
229.855	19.027	900.405	691.519
230.869	18.946	900.149	690.936
231.884	19.062	898.931	690.403
232.899	18.920	898.390	689.357
233.913	18.879	898.086	688.900
234.928	18.845	896.822	687.733
235.942	18.797	896.117	686.939
236.957	18.797	895.351	686.292
237.972	18.777	894.833	685.754
238.986	18.798	894.475	685.504
240.001	18.680	893.975	684.590
241.015	18.891	892.929	684.567
242.030	18.918	892.362	684.178
243.045	19.021	891.500	683.870
244.059	18.913	891.643	683.488
245.074	18.976	890.944	683.139
246.088	19.174	889.767	682.963
247.103	19.276	889.335	682.975
248.117	19.234	888.755	682.303
249.132	19.428	888.215	682.595
250.147	19.484	888.313	682.831
251.161	19.879	887.932	684.043
252.176	19.826	887.301	683.283
253.190	19.879	886.664	682.945
254.205	19.941	885.782	682.448
255.220	20.107	885.472	682.804
256.234	19.988	884.745	681.713
257.249	19.808	884.355	680.643
258.263	19.838	883.628	680.143
259.278	19.726	882.908	679.090
260.293	19.784	882.563	678.991
261.307	19.963	882.025	679.220
262.322	20.034	881.546	679.069
263.336	20.074	881.110	678.831
264.351	20.060	880.002	677.861
265.366	20.084	879.529	677.531
266.380	20.126	878.837	677.102
267.395	20.180	877.844	676.489
268.409	20.012	877.109	675.206
269.424	19.927	876.819	674.592
270.439	19.957	875.791	673.860
271.453	19.873	875.347	673.130
272.468	19.809	874.302	672.020
273.482	19.810	873.623	671.442
274.497	19.756	873.230	670.871
275.512	19.762	872.711	670.436
276.526	19.755	871.880	669.711
277.541	19.879	871.182	669.596
278.555	19.904	870.737	669.291
279.570	19.791	870.442	668.567
280.585	20.255	869.513	669.587
281.599	20.174	869.113	668.907
282.614	19.990	868.441	667.620
283.628	19.966	867.870	667.031
284.643	19.871	867.200	666.089
285.657	19.975	866.680	666.033
286.672	19.842	866.405	665.248
287.687	19.917	865.944	665.126
288.701	19.928	865.465	664.742
289.716	19.970	865.319	664.731
290.730	19.969	864.336	663.913
291.745	20.199	863.091	663.778
292.760	20.231	862.785	663.607
293.774	20.001	862.372	662.352
294.789	20.270	862.186	663.178
295.803	20.282	861.628	662.735
296.818	20.074	860.404	660.941
297.833	20.076	859.733	660.376
298.847	20.129	858.808	659.811
299.862	20.113	858.599	659.528
300.876	20.048	858.069	658.818
301.891	20.219	856.990	658.579
302.906	20.339	856.869	658.884
303.920	20.356	856.290	658.443
304.935	20.475	855.449	658.192
305.949	20.702	854.973	658.627
306.964	20.644	854.231	657.777
307.979	20.337	853.932	656.326
308.993	20.388	853.256	655.941
310.008	20.547	852.506	655.906
311.022	20.581	852.515	655.983
312.037	20.551	851.836	655.292
313.052	20.323	851.316	653.975
314.066	20.131	850.338	652.442
315.081	19.948	849.628	651.153
316.095	20.209	848.710	651.372
317.110	20.114	848.803	651.029
318.125	20.142	848.220	650.628
319.139	20.101	847.819	650.109
320.154	20.009	847.264	649.281
321.168	20.077	846.654	649.011
322.183	20.084	846.351	648.746
323.197	20.365	845.655	649.206
324.212	20.341	844.870	648.460
325.227	20.250	844.710	647.939
326.241	20.344	843.907	647.617
327.256	20.199	843.166	646.448
328.270	20.099	842.609	645.594
329.285	20.198	841.892	645.352
330.300	20.256	841.262	645.030
331.314	20.162	841.204	644.578
332.329	20.311	840.132	644.255
333.343	20.503	839.627	644.521
334.358	20.485	839.028	643.938
335.373	20.572	838.630	643.900
336.387	20.485	838.671	643.548
337.402	20.699	837.687	643.531
338.416	20.655	837.181	642.923
339.431	20.734	836.935	642.965
340.446	20.984	836.373	643.400
341.460	21.017	835.872	643.079
342.475	20.986	835.647	642.737
343.489	20.988	834.883	642.100
344.504	21.193	834.227	642.293
345.519	21.150	833.880	641.810
346.533	21.193	833.143	641.342
347.548	21.124	832.742	640.727
348.562	20.989	832.316	639.845
349.577	20.909	831.474	638.848
350.592	20.733	830.738	637.582
351.606	20.809	830.035	637.263
352.621	20.546	829.607	635.918
353.635	20.581	829.476	635.886
354.650	20.678	829.316	636.063
355.665	20.815	828.475	635.864
356.679	20.857	828.120	635.689
357.694	20.951	827.667	635.624
358.708	21.082	826.428	635.097
359.723	21.001	826.287	634.637
360.738	20.942	825.537	633.789
361.752	21.059	825.043	633.778
362.767	20.942	825.032	633.290
363.781	20.998	824.978	633.396
364.796	21.290	824.080	633.709
365.810	21.343	824.168	633.911
366.825	21.409	824.054	634.009
367.840	21.458	823.284	633.537
368.854	21.508	822.899	633.365
369.869	21.284	822.697	632.344
370.883	21.186	822.022	631.413
371.898	21.246	821.343	631.054
372.913	21.219	820.588	630.321
373.927	21.489	820.008	630.793
374.942	21.392	819.429	629.943
375.956	21.345	818.650	629.117
376.971	21.525	818.058	629.254
377.986	21.585	817.775	629.197
379.000	21.774	817.138	629.329
380.015	21.773	817.022	629.180
381.029	21.770	816.151	628.443
382.044	21.469	815.521	626.827
383.059	21.540	815.073	626.682
384.073	21.618	814.603	626.541
385.088	21.579	814.073	625.940
386.102	21.462	813.316	624.886
387.117	21.316	812.777	623.893
388.132	21.278	812.393	623.408
389.146	21.253	812.171	623.093
390.161	21.342	811.515	622.851
391.175	21.455	811.251	622.997
392.190	21.557	810.807	622.963
393.205	21.603	810.321	622.699
394.219	21.440	809.509	621.440
395.234	21.450	809.109	621.112
396.248	21.288	808.419	619.956
397.263	21.287	807.864	619.470
398.278	21.056	807.463	618.291
399.292	21.152	807.039	618.251
400.307	21.252	806.447	618.095
401.321	21.123	806.499	617.626
402.336	21.283	805.925	617.695
403.350	21.170	806.008	617.306
404.365	21.505	805.270	617.868
405.380	21.803	804.518	618.289
406.394	21.561	804.406	617.292
407.409	21.727	803.819	617.373
408.423	21.837	803.738	617.643
409.438	21.780	803.340	617.082
410.453	21.896	802.702	616.947
411.467	21.924	802.562	616.883
412.482	22.073	801.816	616.780
413.496	22.097	801.763	616.767
414.511	21.991	801.180	615.893
415.526	22.178	800.543	616.004
416.540	22.115	800.047	615.346
417.555	22.070	799.799	614.944
418.569	22.048	799.477	614.566
419.584	22.013	798.976	614.002
420.599	22.100	798.089	613.571
421.613	158.748	1367.791	1789.491
422.628	137.730	1450.803	1789.602
