DTS Sentinel unit serial number:	SN413079Multiplexer serial number:	ORYXHardware model number:	OX4-SRSoftware version number:	ORYX F/W v4.00 Oryx Data Collector v3.7.2.0data status	okinstallation	princeton_trtdifferential loss correction	single-endedforward channel	channel 3reverse channel	N/Adate	2019/09/12time	19:36:04forward acquisition time	15.00reverse acquisition time	0.00gamma	496.2192k internal	0.2322k external	0.2322temperature offset calibration	1.0113default loss term (dB/km)	0.3790temperature slope calibration	1.0000multiplexer offset coefficient	1.0000multiplexer slope coefficient	1.0000fibre end	0.00T internal ref (°C)	32.19T ext. ref 1 (°C)	3.37T ext. ref 2 (°C)	26.66length (m)	temperature (°C)	Stokes	anti-Stokes-747.200	-53.060	0.366	0.170
-746.185	-143.305	-0.580	0.056
-745.171	-47.111	0.385	0.190
-744.156	800.000	-0.192	0.848
-743.142	-200.000	-0.035	-0.493
-742.127	-200.000	-0.085	0.621
-741.112	-151.547	-0.518	0.039
-740.098	-8.383	-0.411	-0.279
-739.083	96.545	-0.062	-0.072
-738.069	800.000	0.232	-0.735
-737.054	119.510	0.751	0.939
-736.039	-200.000	-0.110	1.086
-735.025	591.761	-0.262	0.653
-734.010	-52.874	-0.590	0.274
-732.996	-11.064	-0.759	-0.505
-731.981	-20.844	-0.389	-0.241
-730.966	96.349	0.501	-0.579
-729.952	266.532	-0.301	0.530
-728.937	-200.000	0.002	0.241
-727.923	275.141	-0.519	-0.928
-726.908	-200.000	-0.018	-1.032
-725.894	-129.392	-0.506	-0.071
-724.879	44.141	0.158	0.147
-723.864	-200.000	-0.140	0.951
-722.850	800.000	0.261	0.876
-721.835	4.894	-0.694	0.515
-720.821	800.000	-0.203	-0.616
-719.806	305.865	-0.354	-0.665
-718.791	298.112	0.071	-0.132
-717.777	59.327	0.118	0.117
-716.762	9.533	0.676	0.517
-715.748	-79.676	-0.525	0.179
-714.733	-52.144	-0.945	-0.442
-713.718	146.923	0.452	0.613
-712.704	198.692	-0.394	0.608
-711.689	-158.780	-0.691	0.040
-710.675	147.281	0.093	-0.126
-709.660	-23.952	-0.294	0.177
-708.645	393.908	-0.183	-0.384
-707.631	270.297	0.268	-0.476
-706.616	-168.052	-0.806	-0.032
-705.602	80.356	-0.469	0.509
-704.587	-112.833	0.564	-0.113
-703.572	-72.581	-0.197	-0.073
-702.558	-200.000	0.014	-0.192
-701.543	286.664	0.259	0.471
-700.529	37.625	0.264	0.236
-699.514	-50.274	0.455	0.217
-698.499	-3.686	0.298	-0.208
-697.485	46.854	-0.241	0.226
-696.470	-77.320	-0.617	-0.216
-695.456	-200.000	0.025	0.139
-694.441	239.050	-0.247	0.413
-693.426	265.738	0.555	-0.976
-692.412	-31.841	-0.667	0.377
-691.397	398.266	0.256	0.540
-690.383	31.089	-0.835	0.722
-689.368	-164.822	0.561	0.025
-688.354	63.219	0.380	-0.384
-687.339	-123.197	-0.786	-0.127
-686.324	523.701	-0.286	-0.677
-685.310	-22.750	0.254	0.155
-684.295	800.000	0.226	-0.752
-683.281	312.282	0.233	-0.440
-682.266	-26.989	0.696	-0.409
-681.251	800.000	0.281	0.887
-680.237	800.000	0.144	0.531
-679.222	-200.000	-0.158	-0.967
-678.208	7.855	0.424	-0.320
-677.193	84.900	-0.491	-0.542
-676.178	-149.322	-0.820	-0.066
-675.164	34.414	0.697	-0.613
-674.149	156.223	0.070	0.098
-673.135	-92.488	-0.493	-0.140
-672.120	-200.000	-0.024	0.401
-671.105	97.326	-0.288	-0.333
-670.091	196.424	0.157	-0.240
-669.076	-119.191	-0.733	-0.129
-668.062	445.239	-0.268	0.593
-667.047	501.438	0.082	0.191
-666.032	-200.000	-1.001	0.005
-665.018	-145.196	-0.337	-0.031
-664.003	96.987	-0.134	-0.154
-662.989	-5.737	0.591	-0.408
-661.974	100.230	-0.232	-0.270
-660.959	-101.054	0.298	-0.074
-659.945	107.825	0.373	-0.447
-658.930	-10.756	0.057	-0.038
-657.916	84.275	-0.402	-0.443
-656.901	-135.137	0.957	0.116
-655.886	72.383	1.044	1.095
-654.872	219.719	-0.225	-0.363
-653.857	185.274	0.030	-0.045
-652.843	-37.860	-0.736	-0.394
-651.828	86.231	0.693	0.768
-650.814	-200.000	-0.162	-0.972
-649.799	-200.000	0.077	0.371
-648.784	459.330	-0.266	-0.597
-647.770	452.399	0.088	-0.197
-646.755	-29.140	0.246	0.142
-645.741	-43.440	0.251	0.128
-644.726	-89.957	0.371	-0.109
-643.711	220.295	-0.359	0.579
-642.697	41.584	0.228	-0.208
-641.682	-29.768	0.258	0.148
-640.668	-182.994	0.357	0.006
-639.653	800.000	0.225	-0.794
-638.638	-58.815	0.363	-0.158
-637.624	316.495	-0.354	-0.672
-636.609	-5.246	-0.905	-0.626
-635.595	144.188	0.223	0.299
-634.580	-69.567	-0.783	0.302
-633.565	313.195	-0.170	-0.322
-632.551	-180.607	-0.858	0.018
-631.536	-200.000	0.069	0.608
-630.522	-58.458	0.754	0.329
-629.507	-182.876	-0.380	0.007
-628.492	72.844	0.259	-0.272
-627.478	89.431	-0.629	-0.706
-626.463	800.000	0.093	-0.361
-625.449	-200.000	-0.113	0.940
-624.434	-16.472	0.621	0.396
-623.419	53.601	0.197	-0.190
-622.405	800.000	0.145	0.480
-621.390	279.581	0.239	-0.429
-620.376	-200.000	-0.009	-0.227
-619.361	-149.297	0.654	0.052
-618.346	-200.000	-0.017	-0.318
-617.332	258.903	-0.554	0.959
-616.317	800.000	-0.196	-0.666
-615.303	-105.705	-0.287	0.065
-614.288	-55.331	0.649	0.293
-613.273	-98.349	-0.621	-0.160
-612.259	273.117	0.322	0.571
-611.244	-53.454	-0.148	0.068
-610.230	205.409	-0.291	-0.454
-609.215	-60.115	-0.572	0.245
-608.201	-120.843	0.635	-0.108
-607.186	61.959	0.251	0.252
-606.171	800.000	0.174	0.623
-605.157	54.086	-0.305	0.295
-604.142	202.422	0.217	0.336
-603.128	800.000	-0.221	0.625
-602.113	-35.698	-0.467	0.254
-601.098	-29.218	-0.991	-0.570
-600.084	149.620	-0.245	-0.333
-599.069	800.000	0.022	0.084
-598.055	-45.532	-0.806	0.401
-597.040	82.466	-0.132	0.144
-596.025	-200.000	-0.481	-0.000
-595.011	492.423	-0.220	-0.507
-593.996	143.250	0.295	0.394
-592.982	800.000	0.160	-0.613
-591.967	-200.000	-0.047	0.261
-590.952	80.778	0.092	0.099
-589.938	-102.315	-0.701	-0.169
-588.923	-200.000	-0.016	-0.552
-587.909	-30.796	0.794	-0.451
-586.894	450.430	-0.140	-0.310
-585.879	-25.559	0.362	0.215
-584.865	-200.000	0.188	-1.045
-583.850	381.254	-0.140	-0.289
-582.836	-28.650	0.758	0.438
-581.821	20.287	-0.421	-0.341
-580.806	1.075	0.294	0.212
-579.792	-151.346	0.120	0.009
-578.777	-10.803	-0.899	-0.597
-577.763	800.000	-0.140	-0.486
-576.748	300.246	-0.449	-0.830
-575.733	14.480	-0.678	0.531
-574.719	800.000	-0.117	-0.379
-573.704	-200.000	0.090	-0.561
-572.690	-117.369	0.213	0.039
-571.675	-200.000	-0.040	0.473
-570.661	800.000	-0.136	0.582
-569.646	-91.916	-0.453	-0.129
-568.631	-97.221	0.935	0.245
-567.617	123.672	-0.300	-0.377
-566.602	-200.000	0.004	0.249
-565.588	-100.702	0.535	-0.132
-564.573	76.060	-0.039	0.041
-563.558	-99.179	-0.116	0.029
-562.544	-200.000	-0.097	0.444
-561.529	-96.692	-0.540	0.142
-560.515	800.000	-0.092	-0.380
-559.500	-200.000	-0.024	-0.281
-558.485	151.208	-0.326	-0.444
-557.471	-80.017	0.754	0.254
-556.456	-60.740	-0.417	-0.177
-555.442	-4.384	-0.221	-0.153
-554.427	-200.000	-0.004	-0.277
-553.412	-132.757	0.644	-0.083
-552.398	158.835	0.181	-0.252
-551.383	123.028	-0.257	0.322
-550.369	-200.000	0.085	0.717
-549.354	29.121	0.461	-0.392
-548.339	-200.000	0.067	0.505
-547.325	800.000	-0.139	0.484
-546.310	-105.558	0.369	-0.084
-545.296	147.179	0.187	-0.252
-544.281	800.000	0.087	-0.349
-543.266	-200.000	0.154	0.730
-542.252	93.432	-0.552	-0.626
-541.237	-200.000	0.055	-0.626
-540.223	800.000	0.114	0.446
-539.208	-200.000	-0.006	-0.380
-538.193	-166.150	-0.875	0.037
-537.179	172.752	-0.356	-0.513
-536.164	170.208	-0.275	-0.394
-535.150	243.369	-0.306	-0.514
-534.135	16.791	0.260	-0.206
-533.121	10.008	-0.350	0.267
-532.106	-90.810	-0.477	0.138
-531.091	-200.000	-0.065	0.422
-530.077	-42.936	-0.708	0.360
-529.062	-7.829	-0.257	0.174
-528.048	-111.088	-0.281	0.058
-527.033	-84.612	0.245	-0.077
-526.018	-200.000	-0.008	0.642
-525.004	88.102	0.371	-0.412
-523.989	-118.159	-0.752	-0.134
-522.975	-124.956	0.724	-0.112
-521.960	800.000	0.042	0.130
-520.945	-40.058	-0.475	0.248
-519.931	70.550	0.474	-0.491
-518.916	109.411	0.290	-0.347
-517.902	101.409	-0.137	0.160
-516.887	54.835	0.170	-0.164
-515.872	-200.000	0.047	-0.396
-514.858	401.552	-0.380	-0.800
-513.843	-5.917	0.277	-0.190
-512.829	-142.941	1.048	-0.102
-511.814	-8.772	0.255	0.171
-510.799	-19.361	0.247	-0.153
-509.785	181.853	0.634	-0.934
-508.770	-131.247	0.260	-0.035
-507.756	-200.000	0.059	1.072
-506.741	-123.290	-0.620	-0.099
-505.726	70.647	-0.222	-0.230
-504.712	143.081	0.227	0.302
-503.697	-116.371	-1.223	0.226
-502.683	-49.851	-0.579	-0.275
-501.668	263.038	-0.359	-0.624
-500.653	81.204	0.247	-0.267
-499.639	179.696	0.385	0.564
-498.624	-100.134	-0.848	-0.211
-497.610	-200.000	0.036	0.606
-496.595	160.392	-0.330	0.460
-495.581	522.384	0.111	0.260
-494.566	-54.431	-0.896	-0.406
-493.551	-200.000	0.022	-0.464
-492.537	-200.000	-0.068	0.704
-491.522	800.000	-0.064	0.187
-490.508	-200.000	0.042	0.374
-489.493	-96.951	0.886	0.232
-488.478	93.256	0.642	-0.727
-487.464	-200.000	0.017	0.076
-486.449	-42.145	0.857	0.438
-485.435	-61.594	-0.174	-0.073
-484.420	-200.000	-0.187	0.969
-483.405	-104.674	0.512	0.118
-482.391	419.349	-0.306	-0.654
-481.376	410.236	-0.435	-0.921
-480.362	-109.491	0.497	0.105
-479.347	-119.128	-0.426	0.074
-478.332	58.707	0.237	0.233
-477.318	381.146	-0.241	0.494
-476.303	-112.340	-0.171	-0.034
-475.289	-63.506	-0.529	0.217
-474.274	62.050	-0.119	-0.118
-473.259	126.861	0.179	-0.226
-472.245	30.065	0.929	-0.792
-471.230	128.382	0.502	0.639
-470.216	-200.000	0.019	0.373
-469.201	289.249	-0.293	0.531
-468.186	332.234	-0.305	-0.589
-467.172	188.699	0.672	-1.005
-466.157	-95.652	-1.181	-0.316
-465.143	-101.530	0.921	0.224
-464.128	-1.267	-0.158	0.112
-463.113	209.283	0.021	0.033
-462.099	414.290	0.015	0.031
-461.084	-2.575	0.663	0.464
-460.070	481.881	-0.145	0.330
-459.055	-100.043	-0.806	-0.201
-458.040	359.341	-0.070	-0.139
-457.026	800.000	0.054	0.172
-456.011	696.386	-0.131	-0.344
-454.997	-43.917	1.286	0.646
-453.982	421.327	0.141	-0.302
-452.968	-79.179	-0.357	-0.121
-451.953	-94.152	0.896	0.245
-450.938	342.528	0.094	0.183
-449.924	800.000	0.177	0.571
-448.909	-200.000	0.093	-0.548
-447.895	800.000	-0.084	-0.330
-446.880	-200.000	-0.070	-0.375
-445.865	-200.000	-0.024	0.657
-444.851	-38.320	0.443	0.234
-443.836	-200.000	0.034	0.499
-442.822	-50.674	1.009	-0.474
-441.807	10.074	-0.745	0.565
-440.792	-200.000	-0.032	-0.335
-439.778	747.768	0.342	0.920
-438.763	261.582	-0.435	-0.753
-437.749	-47.276	0.380	-0.185
-436.734	35.619	0.274	-0.241
-435.719	-200.000	-0.277	-1.258
-434.705	-200.000	-0.022	0.150
-433.690	-53.015	0.679	-0.311
-432.676	-200.000	0.050	-0.284
-431.661	326.981	0.326	0.623
-430.646	800.000	-0.105	-0.325
-429.632	27.281	-0.168	-0.141
-428.617	92.661	-0.598	0.673
-427.603	-200.000	-0.055	1.005
-426.588	-23.002	-0.123	0.074
-425.573	200.379	0.100	0.154
-424.559	-136.378	0.303	-0.035
-423.544	-32.203	-0.045	0.025
-422.530	-2.588	-0.380	-0.265
-421.515	-12.143	0.503	-0.328
-420.500	1.053	-0.719	-0.514
-419.486	-121.529	-0.584	-0.097
-418.471	-71.766	-0.180	-0.067
-417.457	-64.969	-0.587	0.237
-416.442	-82.217	-0.807	-0.262
-415.428	800.000	0.265	0.814
-414.413	389.460	0.172	0.356
-413.398	-87.108	0.423	-0.128
-412.384	-86.213	-0.116	0.036
-411.369	-200.000	0.031	0.318
-410.355	-200.000	0.091	0.520
-409.340	-72.342	-0.679	0.251
-408.325	59.330	-0.255	-0.250
-407.311	-103.189	-0.477	0.112
-406.296	-7.034	0.497	0.337
-405.282	-59.078	-0.290	-0.125
-404.267	-157.796	-0.560	0.033
-403.252	-142.455	-0.283	0.028
-402.238	800.000	0.307	0.884
-401.223	87.372	0.379	0.418
-400.209	48.105	0.707	-0.659
-399.194	502.925	-0.358	-0.825
-398.179	320.131	0.398	0.754
-397.165	425.841	-0.086	-0.184
-396.150	25.630	-0.694	-0.576
-395.136	14.876	0.215	0.167
-394.121	83.110	0.516	0.559
-393.106	-86.816	-0.460	0.140
-392.092	370.285	-0.398	-0.803
-391.077	-200.000	0.054	-0.575
-390.063	36.374	-0.514	-0.452
-389.048	337.948	-0.220	-0.426
-388.033	163.609	0.355	0.497
-387.019	-200.000	-0.013	-0.535
-386.004	-49.232	-1.169	0.556
-384.990	-75.899	1.063	-0.375
-383.975	724.284	0.172	0.456
-382.960	-176.913	0.621	-0.016
-381.946	-200.000	-0.128	-0.942
-380.931	-61.216	0.637	0.267
-379.917	329.034	0.262	-0.502
-378.902	66.068	0.315	-0.318
-377.888	-200.000	-0.036	0.332
-376.873	-200.000	-0.004	0.611
-375.858	-65.193	-0.529	0.212
-374.844	-72.372	-0.488	0.180
-373.829	641.161	0.184	0.466
-372.815	91.517	0.111	-0.124
-371.800	-142.081	0.251	0.025
-370.785	800.000	0.267	0.884
-369.771	194.534	0.293	0.443
-368.756	561.696	-0.069	-0.166
-367.742	-200.000	0.029	-0.533
-366.727	127.064	-0.490	0.618
-365.712	-59.287	0.801	0.343
-364.698	-22.539	0.510	-0.307
-363.683	-116.984	0.391	-0.071
-362.669	206.586	-0.560	0.867
-361.654	-110.024	0.566	-0.118
-360.639	15.215	-0.065	-0.051
-359.625	-135.560	0.441	0.052
-358.610	545.323	-0.152	0.361
-357.596	-200.000	-0.022	-0.163
-356.581	243.726	-0.463	-0.773
-355.566	-46.460	0.449	-0.220
-354.552	-69.003	0.548	-0.210
-353.537	800.000	0.313	0.878
-352.523	-161.674	-0.351	-0.018
-351.508	112.199	-0.396	0.476
-350.493	-131.696	0.306	0.040
-349.479	615.110	-0.330	-0.822
-348.464	-115.978	-0.502	-0.093
-347.450	79.897	0.245	0.261
-346.435	-41.622	-0.599	0.306
-345.420	57.625	-0.575	-0.559
-344.406	-180.626	0.340	-0.007
-343.391	13.794	-0.073	0.057
-342.377	314.675	0.175	-0.327
-341.362	800.000	0.108	0.369
-340.348	601.735	0.161	0.397
-339.333	-148.859	-0.749	-0.060
-338.318	42.506	-0.548	-0.495
-337.304	-75.232	-0.853	0.303
-336.289	-200.000	-0.060	-0.357
-335.275	800.000	-0.068	0.240
-334.260	-84.999	-0.623	0.194
-333.245	-64.158	-0.552	-0.224
-332.231	-200.000	-0.027	0.290
-331.216	800.000	0.143	0.543
-330.202	-137.245	-0.572	-0.065
-329.187	-200.000	-0.062	-0.788
-328.172	-200.000	-0.039	-0.720
-327.158	800.000	0.341	-1.211
-326.143	-11.569	-0.202	0.132
-325.129	-16.695	0.499	-0.314
-324.114	25.087	0.291	0.240
-323.099	436.007	0.296	0.640
-322.085	115.568	0.316	-0.384
-321.070	-79.000	-1.053	0.356
-320.056	284.363	-0.102	0.182
-319.041	456.127	-0.147	0.325
-318.026	43.814	0.424	0.385
-317.012	-200.000	0.046	-1.036
-315.997	-20.883	-0.675	0.411
-314.983	-33.115	0.741	-0.408
-313.968	-200.000	-0.073	0.465
-312.953	-12.610	0.556	0.361
-311.939	-21.306	-0.925	-0.561
-310.924	208.307	0.023	-0.036
-309.910	246.388	0.311	0.521
-308.895	150.717	-0.214	0.288
-307.880	-143.464	0.847	-0.080
-306.866	58.753	0.631	-0.615
-305.851	-112.185	0.451	0.090
-304.837	-84.604	0.386	0.121
-303.822	-193.307	0.274	-0.002
-302.807	-157.830	-0.878	0.052
-301.793	-87.523	0.641	-0.193
-300.778	-84.400	-1.138	0.357
-299.764	259.700	0.280	0.480
-298.749	-104.226	0.580	0.134
-297.735	-158.526	0.333	0.019
-296.720	-200.000	0.079	-0.585
-295.705	365.935	-0.215	0.431
-294.691	-139.511	-0.744	-0.079
-293.676	-139.919	0.476	-0.050
-292.662	-88.939	0.681	-0.200
-291.647	-82.414	-0.379	0.122
-290.632	-105.973	-0.421	0.094
-289.618	127.350	-0.817	-1.029
-288.603	89.561	0.480	0.532
-287.589	285.644	0.081	0.145
-286.574	37.559	-0.505	0.445
-285.559	160.163	0.303	-0.419
-284.545	-60.310	-0.578	-0.244
-283.530	-197.246	0.343	-0.002
-282.516	657.920	-0.228	0.582
-281.501	54.370	0.173	-0.165
-280.486	-30.410	0.410	0.231
-279.472	148.982	0.098	-0.131
-278.457	1.562	-0.391	0.279
-277.443	-200.000	-0.025	0.854
-276.428	-65.851	-0.665	0.264
-275.413	800.000	-0.083	0.312
-274.399	-125.742	1.089	0.163
-273.384	91.199	-0.298	-0.332
-272.370	-166.225	0.328	0.014
-271.355	10.749	0.437	0.331
-270.340	-134.638	0.134	-0.016
-269.326	-174.737	0.133	0.004
-268.311	-91.272	1.266	-0.359
-267.297	102.156	-0.608	-0.704
-266.282	364.641	-0.083	-0.166
-265.267	-109.372	0.965	-0.203
-264.253	-32.550	0.895	-0.494
-263.238	-144.508	-0.668	-0.061
-262.224	318.098	0.386	0.725
-261.209	11.799	0.089	-0.068
-260.195	800.000	0.226	0.622
-259.180	31.708	0.449	0.383
-258.165	786.963	-0.243	0.661
-257.151	-46.726	0.320	-0.155
-256.136	126.173	0.373	0.468
-255.122	-200.000	-0.020	0.320
-254.107	190.520	0.173	-0.258
-253.092	-85.277	-0.482	0.149
-252.078	17.639	-0.309	0.243
-251.063	-200.000	-0.160	0.995
-250.049	-57.894	0.466	-0.202
-249.034	427.046	-0.185	-0.396
-248.019	-80.371	-0.995	0.329
-247.005	-200.000	-0.046	0.561
-245.990	800.000	-0.077	0.244
-244.976	-200.000	0.102	0.778
-243.961	78.173	0.980	1.036
-242.946	-200.000	-0.078	-0.604
-241.932	800.000	-0.156	0.579
-240.917	800.000	-0.113	0.451
-239.903	299.788	0.091	0.167
-238.888	-55.990	0.795	-0.351
-237.873	-200.000	-0.014	-0.091
-236.859	-104.480	0.376	0.086
-235.844	289.655	-0.234	0.420
-234.830	-46.544	0.501	-0.243
-233.815	-90.454	-0.332	0.095
-232.800	100.354	0.458	-0.526
-231.786	-88.585	0.840	-0.248
-230.771	-122.390	-0.359	-0.058
-229.757	800.000	-0.238	-0.671
-228.742	-30.429	0.845	0.474
-227.727	43.768	0.011	0.010
-226.713	343.072	0.657	1.273
-225.698	-141.221	0.915	0.092
-224.684	-88.305	0.495	-0.147
-223.669	800.000	0.124	-0.531
-222.655	135.447	-0.232	0.299
-221.640	-68.213	-0.343	0.132
-220.625	119.725	0.507	-0.622
-219.611	-30.191	0.385	-0.217
-218.596	-36.359	0.199	-0.106
-217.582	800.000	0.094	0.381
-216.567	75.325	-0.524	0.547
-215.552	658.758	-0.170	-0.433
-214.538	-119.269	0.322	-0.056
-213.523	-200.000	0.007	-0.538
-212.509	-200.000	0.119	-0.782
-211.494	800.000	0.148	-0.498
-210.479	800.000	-0.058	-0.183
-209.465	-200.000	-0.176	-0.929
-208.450	444.291	-0.098	-0.213
-207.436	800.000	-0.309	-1.120
-206.421	800.000	0.063	-0.232
-205.406	212.694	0.351	-0.548
-204.392	-74.151	0.390	-0.139
-203.377	-24.651	0.356	0.209
-202.363	49.654	-0.505	-0.470
-201.348	580.973	0.134	-0.324
-200.333	-25.222	0.449	0.263
-199.319	-107.483	-0.223	-0.048
-198.304	-200.000	-0.061	-0.478
-197.290	-200.000	0.055	-0.267
-196.275	247.075	-0.480	-0.800
-195.260	-32.943	0.286	-0.157
-194.246	-130.753	0.165	0.022
-193.231	344.054	-0.099	-0.191
-192.217	-174.002	-1.077	-0.031
-191.202	-200.000	-0.122	0.552
-190.187	-200.000	0.071	0.666
-189.173	800.000	0.112	-0.394
-188.158	-136.821	-0.351	-0.040
-187.144	-63.039	-0.701	0.286
-186.129	-161.033	-0.211	-0.011
-185.114	-126.236	1.078	0.159
-184.100	637.850	0.205	0.515
-183.085	-200.000	-0.040	0.488
-182.071	105.393	-0.613	-0.715
-181.056	-200.000	0.121	0.971
-180.042	-200.000	-0.073	-0.450
-179.027	-200.000	-0.100	0.597
-178.012	800.000	-0.099	0.397
-176.998	-48.138	0.957	-0.457
-175.983	114.377	0.167	0.201
-174.969	-105.605	-0.770	-0.172
-173.954	-103.237	-0.352	0.082
-172.939	243.394	-0.339	-0.562
-171.925	-200.000	0.037	0.413
-170.910	-127.953	-0.992	-0.141
-169.896	-105.329	-0.765	0.172
-168.881	-126.247	-0.829	-0.122
-167.866	210.413	-0.311	0.482
-166.852	-181.597	0.997	0.019
-165.837	30.714	0.599	-0.506
-164.823	-95.983	0.354	0.093
-163.808	307.179	0.209	-0.385
-162.793	-153.730	-0.648	0.044
-161.779	171.083	-0.082	0.116
-160.764	12.751	0.550	-0.420
-159.750	-200.000	0.027	-0.256
-158.735	-101.099	0.165	-0.040
-157.720	321.331	0.136	0.256
-156.706	-14.872	-0.250	-0.158
-155.691	-43.905	-0.753	0.374
-154.677	-200.000	0.090	0.760
-153.662	142.438	-0.358	0.469
-152.647	6.039	0.625	0.457
-151.633	365.248	-0.463	-0.919
-150.618	-127.669	-0.548	-0.078
-149.604	264.423	0.465	-0.800
-148.589	-27.086	0.210	-0.121
-147.574	-5.126	0.371	0.252
-146.560	202.597	0.049	-0.075
-145.545	449.830	-0.425	0.926
-144.531	349.765	0.238	-0.465
-143.516	-11.357	0.655	-0.426
-142.502	764.430	-0.227	0.607
-141.487	74.962	-0.080	-0.084
-140.472	-200.000	0.085	-0.410
-139.458	-72.354	-0.661	-0.241
-138.443	-87.348	-0.856	0.256
-137.429	800.000	-0.045	-0.168
-136.414	-50.274	-0.506	0.236
-135.399	231.127	0.445	-0.719
-134.385	95.039	-0.238	0.267
-133.370	712.676	-0.270	0.704
-132.356	-96.800	0.159	-0.041
-131.341	380.411	-0.200	-0.405
-130.326	459.962	-0.545	1.196
-129.312	63.605	-0.229	-0.226
-128.297	800.000	-0.202	0.791
-127.283	57.207	0.262	-0.252
-126.268	-143.132	0.424	0.040
-125.253	-200.000	0.048	-0.252
-124.239	800.000	0.289	-0.857
-123.224	-200.000	0.039	-0.425
-122.210	191.556	0.384	0.571
-121.195	-200.000	0.026	0.360
-120.180	800.000	-0.131	0.512
-119.166	-67.630	0.664	0.256
-118.151	-63.989	-0.466	0.188
-117.137	-4.463	0.332	-0.226
-116.122	-108.405	0.947	-0.201
-115.107	-146.113	0.557	-0.048
-114.093	6.659	0.555	0.407
-113.078	800.000	-0.156	0.490
-112.064	113.132	-0.496	0.592
-111.049	-200.000	-0.026	-0.459
-110.034	18.093	-0.650	-0.511
-109.020	500.299	-0.329	-0.748
-108.005	209.742	-0.627	0.968
-106.991	-50.881	0.176	0.081
-105.976	-75.589	0.936	0.328
-104.962	-10.533	-0.505	-0.330
-103.947	471.517	0.031	0.068
-102.932	800.000	0.027	-0.101
-101.918	283.566	0.373	-0.661
-100.903	521.398	-0.235	0.544
-99.889	41.808	-0.641	-0.572
-98.874	800.000	0.129	-0.398
-97.859	105.358	-0.444	0.517
-96.845	249.455	0.255	0.426
-95.830	-125.611	-0.288	-0.043
-94.816	-45.406	-0.444	-0.217
-93.801	75.777	0.271	0.282
-92.786	89.268	-0.120	-0.132
-91.772	-200.000	0.067	0.307
-90.757	42.980	0.093	-0.084
-89.743	-131.306	0.500	-0.065
-88.728	-30.473	-0.057	-0.032
-87.713	-200.000	0.019	-0.263
-86.699	33.448	-0.470	-0.402
-85.684	-92.471	-0.359	0.099
-84.670	-110.394	-0.443	0.091
-83.655	-10.622	0.500	0.326
-82.640	70.909	-0.372	-0.379
-81.626	-200.000	0.022	-0.161
-80.611	-13.644	-0.400	-0.255
-79.597	658.508	-0.292	-0.740
-78.582	41.033	-0.693	-0.616
-77.567	800.000	0.178	0.714
-76.553	249.552	-0.326	-0.544
-75.538	-127.822	-0.392	0.056
-74.524	463.025	0.024	-0.053
-73.509	17.457	0.368	-0.288
-72.494	-200.000	0.139	0.829
-71.480	-200.000	-0.030	0.787
-70.465	113.022	0.371	0.442
-69.451	119.906	0.154	0.188
-68.436	148.779	-0.290	-0.385
-67.422	5.201	0.451	0.327
-66.407	-124.366	0.362	0.056
-65.392	100.531	-0.473	-0.540
-64.378	800.000	0.096	0.262
-63.363	-148.026	0.437	0.036
-62.349	160.712	0.183	0.252
-61.334	161.565	-0.817	-1.124
-60.319	-134.140	1.031	0.125
-59.305	255.443	-0.383	-0.646
-58.290	33.491	0.480	0.410
-57.276	800.000	0.356	1.534
-56.261	-200.000	96.429	604.441
-55.246	673.190	1355.250	3456.221
-54.232	204.725	2517.138	3839.116
-53.217	119.493	2139.016	2603.922
-52.203	43.004	1689.900	1515.198
-51.188	35.497	1504.350	1298.259
-50.173	33.015	1478.477	1259.356
-49.159	53.972	1530.008	1445.788
-48.144	54.670	1548.450	1467.893
-47.130	35.846	1506.132	1301.954
-46.115	32.498	1492.285	1267.436
-45.100	32.233	1489.639	1263.357
-44.086	32.304	1487.358	1261.855
-43.071	32.304	1483.799	1258.784
-42.057	32.200	1483.440	1257.730
-41.042	32.111	1482.036	1255.894
-40.027	32.216	1479.779	1254.633
-39.013	32.141	1479.298	1253.677
-37.998	32.074	1478.170	1252.228
-36.984	32.172	1476.308	1251.252
-35.969	31.947	1475.541	1249.051
-34.954	32.105	1473.265	1248.124
-33.940	31.935	1473.689	1247.307
-32.925	32.294	1471.059	1247.411
-31.911	32.124	1470.302	1245.591
-30.896	32.374	1468.406	1245.595
-29.881	32.361	1466.057	1243.463
-28.867	32.159	1465.548	1241.648
-27.852	32.248	1463.290	1240.274
-26.838	32.457	1462.552	1240.976
-25.823	32.433	1460.824	1239.304
-24.809	32.168	1459.855	1236.686
-23.794	32.105	1459.102	1235.590
-22.779	32.382	1457.146	1235.703
-21.765	32.152	1456.142	1233.294
-20.750	32.147	1455.317	1232.513
-19.736	32.227	1453.521	1231.468
-18.721	32.358	1452.581	1231.475
-17.706	32.251	1451.810	1230.072
-16.692	32.508	1450.004	1230.174
-15.677	32.227	1449.324	1227.714
-14.663	32.297	1448.141	1227.121
-13.648	32.075	1448.002	1225.506
-12.633	32.203	1446.411	1224.948
-11.619	31.964	1446.447	1223.366
-10.604	32.144	1444.910	1223.190
-9.590	32.111	1444.895	1222.920
-8.575	32.039	1444.614	1222.157
-7.560	32.167	1443.296	1221.829
-6.546	32.118	1441.356	1219.822
-5.531	32.144	1440.646	1219.341
-4.517	32.111	1439.293	1217.933
-3.502	32.170	1438.003	1217.179
-2.487	32.312	1436.929	1217.136
-1.473	32.286	1436.726	1216.746
-0.458	32.098	1434.717	1213.784
0.556	33.555	1425.104	1203.217
1.571	30.254	1400.582	1161.774
2.586	26.655	1343.001	1092.256
3.600	25.133	1261.274	1017.072
4.615	23.673	1215.368	971.979
5.629	20.058	1159.698	908.457
6.644	11.363	1075.887	800.249
7.659	4.493	1034.574	736.952
8.673	3.356	1029.716	728.058
9.688	3.363	1025.673	725.168
10.702	3.168	1023.964	722.981
11.717	3.593	1021.518	723.181
12.731	6.337	1025.712	738.981
13.746	15.226	1037.248	789.258
14.761	22.587	1047.179	831.609
15.775	24.514	1048.572	841.735
16.790	24.289	1047.643	839.858
17.804	23.737	1046.342	836.143
18.819	23.827	1044.534	835.048
19.834	23.384	1044.754	833.067
20.848	23.524	1043.764	832.860
21.863	23.512	1044.214	833.087
22.877	23.434	1043.308	831.928
23.892	23.784	1041.772	832.268
24.907	23.002	1043.144	829.623
25.921	23.559	1040.329	829.915
26.936	23.196	1041.116	828.768
27.950	23.277	1039.300	827.628
28.965	23.157	1037.730	825.748
29.980	23.096	1037.827	825.468
30.994	23.383	1035.232	824.664
32.009	23.251	1035.491	824.184
33.023	23.488	1035.186	824.969
34.038	23.220	1034.427	823.045
35.053	23.616	1032.842	823.551
36.067	23.064	1032.933	820.990
37.082	23.060	1030.590	819.034
38.096	23.226	1029.686	819.013
39.111	23.644	1028.424	819.869
40.126	23.399	1028.968	819.096
41.140	23.057	1028.265	816.884
42.155	22.969	1026.230	814.790
43.169	23.019	1024.349	813.455
44.184	22.591	1024.669	811.667
45.199	22.437	1023.855	810.241
46.213	22.680	1021.586	809.488
47.228	22.907	1020.644	809.711
48.242	23.071	1022.155	811.590
49.257	23.155	1021.232	811.173
50.271	23.708	1018.965	811.828
51.286	23.579	1018.529	810.819
52.301	24.025	1016.844	811.440
53.315	23.761	1017.428	810.631
54.330	23.622	1016.804	809.426
55.344	23.444	1015.673	807.646
56.359	23.237	1014.838	805.969
57.374	23.273	1013.999	805.392
58.388	22.900	1014.044	803.662
59.403	22.599	1013.421	801.727
60.417	23.093	1011.576	802.437
61.432	22.843	1011.232	800.961
62.447	23.007	1010.216	800.828
63.461	22.990	1009.413	800.043
64.476	22.709	1008.396	797.894
65.490	22.512	1008.195	796.775
66.505	22.390	1007.213	795.376
67.520	23.017	1006.385	797.482
68.534	22.887	1005.863	796.412
69.549	22.788	1004.781	795.042
70.563	22.384	1004.154	792.653
71.578	22.406	1002.986	791.760
72.593	22.326	1000.682	789.513
73.607	22.214	999.776	788.226
74.622	21.765	1000.500	786.711
75.636	22.228	999.134	787.642
76.651	22.239	999.162	787.644
77.666	22.217	997.689	786.318
78.680	22.537	996.825	786.997
79.695	21.977	997.019	784.575
80.709	21.896	996.859	784.020
81.724	22.301	995.208	784.458
82.739	22.668	993.902	784.993
83.753	22.579	993.351	784.091
84.768	23.242	993.676	787.231
85.782	23.534	993.661	788.446
86.797	24.015	993.234	790.174
87.812	23.877	991.605	788.197
88.826	23.837	991.447	787.824
89.841	23.409	991.128	785.602
90.855	23.491	990.341	785.273
91.870	23.662	988.985	784.884
92.884	23.909	987.717	784.901
93.899	23.637	987.423	783.396
94.914	23.326	988.140	782.520
95.928	23.828	984.781	782.000
96.943	23.614	985.582	781.626
97.957	23.524	983.992	779.902
98.972	23.255	983.379	778.165
99.987	23.251	982.221	777.159
101.001	23.943	981.905	779.876
102.016	23.466	980.866	776.892
103.030	23.587	978.778	775.699
104.045	23.593	978.927	775.774
105.060	23.789	977.647	775.546
106.074	23.626	977.251	774.456
107.089	23.425	975.361	772.011
108.103	23.105	976.173	771.192
109.118	22.982	974.443	769.223
110.133	22.427	974.384	766.691
111.147	22.468	972.190	765.074
112.162	22.566	970.141	763.817
113.176	22.429	970.250	763.245
114.191	22.386	969.940	762.746
115.206	22.847	968.594	763.615
116.220	22.618	968.124	762.184
117.235	22.554	966.861	760.848
118.249	22.275	966.548	759.329
119.264	22.282	965.366	758.367
120.279	22.381	963.819	757.506
121.293	21.956	964.147	755.871
122.308	22.299	962.777	756.204
123.322	22.070	961.970	754.521
124.337	22.273	960.030	753.799
125.352	22.304	958.709	752.830
126.366	22.223	957.610	751.555
127.381	21.836	957.811	749.991
128.395	22.216	956.411	750.451
129.410	22.235	957.170	751.059
130.424	22.345	955.566	750.205
131.439	22.674	954.862	750.987
132.454	22.887	953.824	751.007
133.468	22.845	953.523	750.527
134.483	22.906	952.524	749.932
135.497	22.687	952.164	748.653
136.512	22.689	951.698	748.228
137.527	22.924	950.412	748.149
138.541	23.149	949.268	748.134
139.556	22.701	949.704	746.516
140.570	22.878	948.820	746.502
141.585	23.229	947.604	746.960
142.600	23.352	947.511	747.339
143.614	23.431	947.167	747.335
144.629	23.542	946.607	747.295
145.643	23.944	945.958	748.411
146.658	23.702	944.802	746.409
147.673	23.625	942.730	744.386
148.687	23.303	941.981	742.378
149.702	22.861	941.366	739.976
150.716	22.941	939.496	738.775
151.731	22.721	939.303	737.638
152.746	22.768	939.455	737.890
153.760	23.062	937.995	737.904
154.775	23.187	937.286	737.804
155.789	23.435	935.896	737.677
156.804	23.401	935.668	737.290
157.819	23.235	934.906	735.932
158.833	23.603	933.365	736.180
159.848	23.322	933.896	735.369
160.862	23.385	933.766	735.465
161.877	23.760	931.949	735.518
162.892	23.312	931.615	733.335
163.906	23.222	929.639	731.347
164.921	23.157	928.527	730.137
165.935	22.939	928.241	728.947
166.950	22.654	927.697	727.280
167.964	23.499	925.488	728.959
168.979	23.077	926.132	727.667
169.994	23.274	923.807	726.584
171.008	22.633	923.640	723.758
172.023	23.232	922.778	725.475
173.037	23.651	922.227	726.693
174.052	23.980	920.493	726.607
175.067	23.821	919.857	725.390
176.081	23.294	919.143	722.613
177.096	22.905	918.956	720.814
178.110	22.592	917.532	718.361
179.125	22.612	916.662	717.698
180.140	22.887	915.493	717.834
181.154	22.875	914.928	717.278
182.169	22.846	915.163	717.281
183.183	23.407	914.294	718.815
184.198	23.384	913.524	718.053
185.213	23.778	913.073	719.230
186.227	23.511	911.693	716.998
187.242	23.242	912.770	716.693
188.256	23.293	912.487	716.614
189.271	23.718	910.591	716.778
190.286	23.897	910.152	717.091
191.300	23.290	910.085	714.527
192.315	22.585	909.422	711.100
193.329	22.298	907.032	708.011
194.344	22.342	906.992	708.096
195.359	22.706	906.844	709.383
196.373	23.080	906.047	710.197
197.388	23.354	905.855	711.084
198.402	23.502	905.382	711.245
199.417	23.815	905.824	712.785
200.432	23.795	905.248	712.186
201.446	23.980	905.145	712.784
202.461	23.841	904.996	712.047
203.475	23.686	904.099	710.658
204.490	23.750	903.032	710.013
205.504	23.400	900.536	706.590
206.519	23.149	900.070	705.162
207.534	23.223	900.996	706.121
208.548	23.516	899.332	705.922
209.563	23.418	898.889	705.122
210.577	23.307	898.198	704.076
211.592	23.500	897.545	704.266
212.607	23.900	897.585	705.825
213.621	23.767	897.773	705.384
214.636	24.176	895.641	705.266
215.650	23.971	895.286	704.110
216.665	23.753	894.462	702.541
217.680	23.742	894.060	702.118
218.694	23.916	893.608	702.390
219.709	23.691	893.372	701.252
220.723	23.855	892.555	701.197
221.738	23.780	891.397	699.928
222.753	23.410	891.527	698.509
223.767	23.401	889.801	697.062
224.782	23.495	890.552	697.959
225.796	24.091	889.310	699.263
226.811	23.928	888.718	698.095
227.826	23.668	888.233	696.635
228.840	23.134	886.699	693.278
229.855	23.413	886.486	694.142
230.869	23.284	886.105	693.277
231.884	23.217	885.955	692.836
232.899	23.389	884.430	692.255
233.913	23.368	883.471	691.362
234.928	23.008	883.473	689.898
235.942	23.012	882.391	689.007
236.957	22.973	882.174	688.625
237.972	22.723	880.933	686.621
238.986	23.004	880.268	687.136
240.001	22.815	879.717	685.911
241.015	23.086	878.764	686.157
242.030	22.913	879.178	685.747
243.045	23.189	877.933	685.784
244.059	23.046	877.679	684.972
245.074	23.161	877.427	685.161
246.088	23.514	876.268	685.561
247.103	23.391	876.823	685.458
248.117	23.616	876.301	685.859
249.132	23.600	876.073	685.559
250.147	24.283	875.592	687.757
251.161	24.457	875.953	688.652
252.176	24.501	874.836	687.880
253.190	24.819	873.955	688.350
254.205	25.113	872.800	688.510
255.220	25.351	872.764	689.333
256.234	24.312	873.575	685.922
257.249	24.503	871.922	685.295
258.263	24.520	870.781	684.401
259.278	24.315	870.843	683.606
260.293	24.250	870.677	683.165
261.307	24.559	868.863	682.863
262.322	24.761	868.544	683.321
263.336	24.557	867.906	681.983
264.351	24.478	868.315	681.942
265.366	24.060	867.368	679.540
266.380	24.250	866.886	679.829
267.395	24.719	865.486	680.458
268.409	24.922	865.016	680.797
269.424	24.425	864.250	678.245
270.439	24.362	864.600	678.220
271.453	24.476	863.381	677.640
272.468	24.228	861.760	675.368
273.482	24.183	861.688	675.080
274.497	24.201	860.497	674.154
275.512	24.156	861.545	674.745
276.526	24.022	859.874	672.871
277.541	24.042	859.176	672.340
278.555	24.405	858.961	673.484
279.570	24.367	858.796	673.152
280.585	24.936	857.803	674.455
281.599	24.872	857.434	673.868
282.614	24.518	857.054	672.176
283.628	24.256	856.095	670.380
284.643	24.088	855.150	668.950
285.657	24.256	854.344	668.888
286.672	24.208	854.205	668.543
287.687	24.293	853.430	668.192
288.701	24.203	853.237	667.647
289.716	24.533	852.662	668.372
290.730	24.378	852.478	667.589
291.745	24.351	852.113	667.144
292.760	24.224	851.615	666.220
293.774	24.299	850.646	665.684
294.789	24.969	850.999	668.402
295.803	25.136	849.526	667.809
296.818	24.981	848.579	666.429
297.833	24.469	848.150	664.129
298.847	24.029	848.209	662.479
299.862	24.212	847.048	662.193
300.876	24.285	847.249	662.560
301.891	24.278	846.266	661.707
302.906	24.937	845.684	663.640
303.920	24.958	845.188	663.269
304.935	24.954	844.673	662.790
305.949	25.173	844.311	663.257
306.964	25.090	843.410	662.184
307.979	24.857	842.461	660.520
308.993	24.655	841.644	659.077
310.008	24.495	842.142	658.819
311.022	25.023	840.777	659.637
312.037	24.883	840.822	659.097
313.052	24.775	839.547	657.643
314.066	24.606	838.644	656.257
315.081	24.531	838.192	655.569
316.095	24.095	837.696	653.523
317.110	24.578	836.509	654.312
318.125	24.492	836.969	654.298
319.139	23.929	836.123	651.515
320.154	23.741	835.764	650.489
321.168	23.586	834.889	649.185
322.183	23.615	834.680	649.073
323.197	24.393	834.203	651.485
324.212	24.127	833.516	649.919
325.227	24.270	833.304	650.218
326.241	24.139	832.386	648.966
327.256	24.272	831.891	649.010
328.270	23.924	831.472	647.357
329.285	24.507	829.951	648.235
330.300	23.919	830.048	646.117
331.314	23.549	829.974	644.657
332.329	24.298	828.844	646.438
333.343	24.042	828.985	645.562
334.358	24.596	828.279	646.964
335.373	24.819	827.286	646.936
336.387	24.485	826.722	645.233
337.402	24.421	826.670	644.904
338.416	24.592	826.408	645.258
339.431	24.863	826.343	646.129
340.446	25.379	825.596	647.349
341.460	24.959	826.222	646.267
342.475	25.014	825.302	645.688
343.489	25.326	824.462	646.096
344.504	25.431	823.838	645.927
345.519	25.607	823.853	646.517
346.533	25.765	823.619	646.842
347.548	25.303	822.685	644.394
348.562	25.466	821.968	644.361
349.577	25.013	821.046	641.956
350.592	25.258	820.142	642.069
351.606	24.474	820.223	639.272
352.621	24.707	819.076	639.153
353.635	24.718	818.546	638.724
354.650	24.660	818.122	638.127
355.665	24.797	817.476	638.056
356.679	24.680	817.289	637.437
357.694	24.791	817.008	637.555
358.708	24.802	816.624	637.241
359.723	24.813	815.883	636.645
360.738	24.509	814.684	634.572
361.752	24.741	815.284	635.807
362.767	24.814	814.642	635.511
363.781	25.095	814.385	636.252
364.796	25.512	813.272	636.801
365.810	25.427	813.488	636.615
366.825	25.617	813.387	637.152
367.840	25.411	813.953	636.808
368.854	25.565	812.261	635.973
369.869	25.122	811.663	633.882
370.883	25.398	810.719	634.066
371.898	25.060	810.345	632.523
372.913	24.968	809.687	631.629
373.927	25.526	809.889	633.699
374.942	25.327	809.259	632.447
375.956	25.355	807.658	631.241
376.971	25.564	806.984	631.393
377.986	25.445	807.118	631.021
379.000	25.959	806.578	632.349
380.015	25.729	806.043	631.065
381.029	25.695	805.622	630.562
382.044	25.585	805.961	630.386
383.059	25.619	804.512	629.314
384.073	25.961	804.193	630.206
385.088	25.638	803.359	628.369
386.102	25.258	802.822	626.568
387.117	25.364	801.443	625.804
388.132	25.099	800.635	624.196
389.146	24.808	801.010	623.417
390.161	24.977	800.498	623.553
391.175	24.954	800.262	623.233
392.190	25.399	800.928	625.246
393.205	25.248	800.365	624.228
394.219	25.308	798.633	623.028
395.234	24.876	797.862	620.875
396.248	24.426	797.311	618.832
397.263	24.636	796.706	619.033
398.278	24.768	796.167	619.017
399.292	24.598	796.118	618.336
400.307	24.664	795.148	617.757
401.321	24.606	794.632	617.101
402.336	24.493	795.265	617.149
403.350	25.188	793.596	618.192
404.365	25.146	794.374	618.601
405.380	25.552	794.078	619.713
406.394	25.668	794.242	620.186
407.409	26.166	793.280	621.094
408.423	26.374	793.144	621.648
409.438	26.118	793.644	621.102
410.453	26.376	791.995	620.645
411.467	26.129	791.226	619.140
412.482	26.175	790.846	618.946
413.496	25.889	790.927	617.974
414.511	26.378	790.398	619.181
415.526	26.123	790.011	617.951
416.540	25.940	789.825	617.123
417.555	25.946	789.046	616.480
418.569	26.055	788.700	616.528
419.584	26.178	788.402	616.660
420.599	25.825	787.133	614.410
421.613	161.184	1369.068	1792.406
422.628	139.509	1453.903	1792.445
