DTS Sentinel unit serial number:	SN413079Multiplexer serial number:	ORYXHardware model number:	OX4-SRSoftware version number:	ORYX F/W v4.00 Oryx Data Collector v3.7.2.0data status	okinstallation	princeton_trtdifferential loss correction	single-endedforward channel	channel 3reverse channel	N/Adate	2019/09/19time	05:16:35forward acquisition time	60.00reverse acquisition time	0.00gamma	496.2192k internal	0.2348k external	0.2348temperature offset calibration	0.9992default loss term (dB/km)	0.3790temperature slope calibration	1.0000multiplexer offset coefficient	1.0000multiplexer slope coefficient	1.0000fibre end	0.00T internal ref (°C)	19.50T ext. ref 1 (°C)	0.60T ext. ref 2 (°C)	12.70length (m)	temperature (°C)	Stokes	anti-Stokes-747.200	800.000	-0.058	0.205
-746.185	800.000	-0.097	0.327
-745.171	21.734	0.259	-0.210
-744.156	164.629	0.076	0.107
-743.142	-134.647	-0.263	0.032
-742.127	-70.296	0.117	0.044
-741.112	260.962	0.100	0.173
-740.098	-124.923	-0.112	0.017
-739.083	800.000	0.135	0.384
-738.069	262.460	-0.153	0.264
-737.054	-13.383	-0.068	-0.044
-736.039	-66.937	-0.259	-0.102
-735.025	800.000	0.200	0.627
-734.010	388.982	0.071	-0.148
-732.996	60.501	-0.139	-0.137
-731.981	76.460	-0.200	-0.211
-730.966	-200.000	-0.016	0.071
-729.952	169.627	0.018	-0.025
-728.937	728.339	-0.117	-0.311
-727.923	-200.000	0.020	-0.295
-726.908	14.130	0.283	0.220
-725.894	-38.105	0.220	-0.117
-724.879	61.114	-0.058	-0.057
-723.864	-108.212	-0.209	-0.045
-722.850	177.122	-0.147	-0.213
-721.835	-98.103	-0.158	0.041
-720.821	44.813	-0.217	0.199
-719.806	19.352	-0.309	-0.247
-718.791	-200.000	0.042	0.188
-717.777	1.806	-0.240	-0.173
-716.762	800.000	0.040	0.160
-715.748	30.458	0.077	-0.066
-714.733	-99.211	0.195	-0.049
-713.718	800.000	-0.028	-0.084
-712.704	57.778	0.264	0.258
-711.689	394.274	-0.121	-0.252
-710.675	-30.800	-0.055	0.031
-709.660	164.217	0.070	-0.099
-708.645	-139.118	0.026	-0.003
-707.631	-172.535	-0.411	0.013
-706.616	96.868	-0.244	-0.279
-705.602	-150.321	0.053	0.004
-704.587	359.853	0.095	-0.189
-703.572	-120.466	-0.283	0.048
-702.558	-75.096	0.029	-0.010
-701.543	315.311	0.048	0.090
-700.529	-54.399	0.205	-0.093
-699.514	-64.739	0.234	0.095
-698.499	55.583	-0.232	-0.224
-697.485	88.586	-0.161	-0.178
-696.470	800.000	0.106	-0.308
-695.456	190.628	0.121	0.181
-694.441	-200.000	-0.017	0.366
-693.426	-200.000	-0.019	-0.175
-692.412	-200.000	0.013	0.120
-691.397	34.038	-0.256	0.222
-690.383	-152.053	-0.024	-0.002
-689.368	167.956	-0.084	-0.118
-688.354	800.000	0.007	-0.024
-687.339	-6.031	-0.212	0.145
-686.324	800.000	0.090	-0.324
-685.310	-118.438	0.167	-0.029
-684.295	-128.945	-0.108	0.015
-683.281	-77.381	-0.222	0.077
-682.266	-136.796	0.117	-0.013
-681.251	-173.099	0.157	0.005
-680.237	800.000	-0.128	-0.420
-679.222	404.900	-0.092	0.193
-678.208	-83.216	-0.419	0.134
-677.193	-200.000	0.036	0.159
-676.178	-200.000	0.040	0.516
-675.164	232.715	-0.161	-0.264
-674.149	70.777	-0.150	0.155
-673.135	-64.682	-0.106	-0.043
-672.120	-9.499	-0.049	-0.033
-671.105	-121.147	-0.276	-0.046
-670.091	225.268	0.022	0.036
-669.076	-102.938	-0.299	0.071
-668.062	233.759	-0.234	0.384
-667.047	0.864	-0.191	-0.137
-666.032	-86.276	0.091	0.028
-665.018	-28.015	0.194	0.112
-664.003	800.000	0.072	0.213
-662.989	-49.905	-0.410	0.194
-661.974	437.484	0.076	-0.165
-660.959	-150.756	-0.169	0.013
-659.945	-153.991	-0.317	-0.021
-658.930	-200.000	0.033	-0.253
-657.916	-76.975	0.243	-0.085
-656.901	-23.773	-0.197	0.117
-655.886	-200.000	-0.062	-0.377
-654.872	72.241	-0.294	0.305
-653.857	-200.000	0.054	0.327
-652.843	143.890	-0.158	-0.210
-651.828	-111.703	0.168	0.034
-650.814	657.908	-0.064	0.163
-649.799	150.342	0.031	0.042
-648.784	-114.203	-0.229	0.044
-647.770	-82.402	-0.174	-0.056
-646.755	549.626	-0.085	-0.202
-645.741	29.575	-0.253	-0.214
-644.726	-81.343	-0.106	-0.035
-643.711	101.709	-0.255	-0.296
-642.697	-9.279	-0.392	-0.261
-641.682	72.651	-0.066	0.068
-640.668	-117.636	-0.282	-0.051
-639.653	-200.000	-0.027	-0.358
-638.638	-55.439	0.144	0.064
-637.624	-73.563	0.266	0.097
-636.609	-200.000	0.035	0.164
-635.595	800.000	0.041	0.163
-634.580	-200.000	0.056	0.342
-633.565	-200.000	0.008	-0.094
-632.551	-200.000	0.027	0.160
-631.536	800.000	0.065	0.218
-630.522	-53.573	-0.262	0.119
-629.507	-200.000	0.063	0.330
-628.492	578.074	0.125	-0.304
-627.478	-107.926	-0.201	-0.043
-626.463	579.138	0.036	-0.089
-625.449	-127.157	0.141	-0.021
-624.434	547.273	-0.047	0.113
-623.419	107.155	-0.105	0.124
-622.405	372.925	0.060	0.121
-621.390	800.000	-0.046	0.186
-620.376	800.000	0.180	0.525
-619.361	52.231	0.227	0.215
-618.346	800.000	-0.083	0.274
-617.332	552.999	0.167	0.399
-616.317	417.212	-0.115	0.244
-615.303	200.689	0.081	0.124
-614.288	51.421	-0.121	-0.114
-613.273	-70.871	-0.430	-0.161
-612.259	-200.000	0.007	-0.055
-611.244	800.000	-0.083	-0.318
-610.230	13.678	0.245	-0.189
-609.215	-23.593	0.126	-0.075
-608.201	95.302	-0.040	-0.045
-607.186	427.516	-0.089	-0.190
-606.171	52.734	-0.153	0.145
-605.157	678.952	0.143	0.369
-604.142	-14.182	0.305	-0.196
-603.128	-31.043	0.166	0.093
-602.113	-59.708	-0.080	0.034
-601.098	-93.052	-0.278	-0.077
-600.084	14.993	0.085	-0.066
-599.069	151.927	0.027	-0.036
-598.055	-135.139	0.238	0.028
-597.040	-200.000	0.067	-0.447
-596.025	158.698	-0.189	0.260
-595.011	17.507	0.148	0.117
-593.996	-122.594	-0.364	0.059
-592.982	800.000	-0.108	0.340
-591.967	-96.523	0.087	0.023
-590.952	308.118	-0.048	-0.089
-589.938	800.000	0.015	-0.056
-588.923	-156.652	-0.079	-0.005
-587.909	195.741	-0.144	0.217
-586.894	-200.000	-0.001	0.036
-585.879	200.459	-0.057	-0.087
-584.865	800.000	-0.060	-0.232
-583.850	213.585	-0.151	-0.238
-582.836	511.035	-0.095	-0.220
-581.821	800.000	-0.034	-0.146
-580.806	-106.379	-0.112	-0.025
-579.792	-127.892	0.303	0.043
-578.777	800.000	-0.032	-0.118
-577.763	33.132	-0.293	-0.252
-576.748	287.432	-0.044	-0.079
-575.733	-200.000	-0.052	0.238
-574.719	134.575	0.087	-0.112
-573.704	294.342	-0.140	-0.254
-572.690	-127.541	-0.129	0.019
-571.675	162.661	0.070	0.097
-570.661	72.246	0.302	0.312
-569.646	-20.477	0.328	-0.200
-568.631	160.729	-0.159	-0.220
-567.617	800.000	-0.042	0.183
-566.602	-200.000	0.027	0.131
-565.588	-200.000	-0.050	-0.289
-564.573	-116.092	-0.375	0.069
-563.558	800.000	-0.016	-0.069
-562.544	800.000	0.086	0.271
-561.529	120.116	0.085	0.104
-560.515	295.798	0.053	-0.097
-559.500	-75.618	0.418	-0.148
-558.485	-73.509	0.240	0.087
-557.471	800.000	-0.106	0.316
-556.456	177.406	-0.050	-0.072
-555.442	800.000	0.050	0.162
-554.427	379.868	0.044	0.090
-553.412	-81.433	-0.263	-0.086
-552.398	108.576	-0.164	-0.194
-551.383	667.524	-0.061	0.156
-550.369	-44.420	-0.092	-0.046
-549.354	38.001	0.137	0.121
-548.339	-23.141	0.160	0.095
-547.325	800.000	0.070	-0.260
-546.310	-106.509	-0.288	0.064
-545.296	-200.000	-0.026	-0.381
-544.281	-125.672	-0.228	-0.034
-543.266	-61.305	0.186	0.078
-542.252	70.963	-0.053	-0.054
-541.237	-20.969	0.110	0.067
-540.223	-200.000	0.001	-0.109
-539.208	-200.000	0.010	-0.112
-538.193	606.669	-0.198	-0.489
-537.179	534.229	-0.169	-0.397
-536.164	48.990	-0.172	-0.160
-535.150	800.000	-0.046	0.181
-534.135	66.042	-0.044	-0.044
-533.121	177.190	-0.057	-0.082
-532.106	-86.661	-0.246	-0.075
-531.091	171.427	-0.190	0.270
-530.077	40.101	-0.085	0.076
-529.062	-96.080	-0.429	-0.113
-528.048	-185.975	-0.120	-0.002
-527.033	313.999	-0.113	0.212
-526.018	-200.000	0.023	-0.106
-525.004	-30.575	0.292	-0.164
-523.989	-38.106	0.110	-0.058
-522.975	-108.635	0.059	0.013
-521.960	-167.254	0.259	-0.010
-520.945	328.460	0.099	-0.188
-519.931	-99.682	-0.042	-0.011
-518.916	491.779	0.160	0.362
-517.902	58.656	-0.130	0.127
-516.887	-144.851	-0.225	-0.020
-515.872	800.000	-0.095	0.380
-514.858	-64.196	-0.162	-0.065
-513.843	-200.000	-0.045	0.255
-512.829	-200.000	0.028	0.229
-511.814	-200.000	-0.017	0.122
-510.799	246.802	0.116	0.193
-509.785	266.350	0.083	-0.144
-508.770	800.000	-0.061	0.192
-507.756	125.151	-0.188	-0.234
-506.741	-200.000	0.013	0.067
-505.726	247.790	-0.189	-0.315
-504.712	13.227	-0.275	-0.211
-503.697	88.739	-0.017	-0.019
-502.683	-46.906	-0.145	-0.070
-501.668	800.000	-0.057	-0.220
-500.653	0.283	-0.124	0.087
-499.639	800.000	0.072	0.255
-498.624	-28.044	0.569	0.326
-497.610	14.232	-0.166	0.128
-496.595	-200.000	-0.046	-0.347
-495.581	-63.274	0.099	0.040
-494.566	-200.000	0.017	0.362
-493.551	-200.000	-0.010	-0.133
-492.537	-200.000	-0.013	0.197
-491.522	107.185	-0.161	-0.189
-490.508	-155.291	0.107	0.007
-489.493	-200.000	-0.018	-0.095
-488.478	65.850	0.201	-0.202
-487.464	184.165	-0.136	0.199
-486.449	800.000	-0.035	-0.121
-485.435	77.328	0.092	-0.097
-484.420	-29.515	-0.139	-0.078
-483.405	-163.573	-0.250	-0.012
-482.391	-195.925	0.093	0.001
-481.376	-200.000	0.004	-0.103
-480.362	650.536	-0.049	0.125
-479.347	-15.281	-0.198	-0.125
-478.332	-197.430	0.327	-0.002
-477.318	109.941	0.159	0.188
-476.303	-46.477	0.149	-0.072
-475.289	-23.175	-0.373	0.222
-474.274	-96.380	-0.123	-0.032
-473.259	472.504	0.086	0.190
-472.245	-200.000	-0.026	-0.137
-471.230	84.447	0.203	0.220
-470.216	105.623	0.140	-0.163
-469.201	-90.429	-0.068	0.020
-468.186	800.000	0.055	-0.207
-467.172	-114.545	0.202	0.038
-466.157	64.202	0.036	-0.036
-465.143	198.858	-0.133	-0.202
-464.128	800.000	-0.049	0.200
-463.113	-71.017	0.290	0.108
-462.099	-200.000	0.005	0.041
-461.084	-143.099	-0.344	0.033
-460.070	-142.237	0.065	-0.006
-459.055	186.846	-0.027	-0.039
-458.040	339.252	0.300	0.578
-457.026	-91.123	-0.302	-0.086
-456.011	-6.766	-0.044	-0.029
-454.997	-181.096	-0.134	-0.003
-453.982	98.122	-0.017	-0.019
-452.968	76.897	0.333	0.349
-451.953	465.964	-0.125	0.276
-450.938	-200.000	-0.014	0.194
-449.924	0.698	0.295	-0.208
-448.909	-45.593	-0.430	-0.210
-447.895	-149.448	0.073	-0.006
-446.880	800.000	-0.028	0.091
-445.865	-43.285	0.227	0.114
-444.851	-13.130	0.355	0.228
-443.836	413.640	-0.141	-0.295
-442.822	83.361	-0.113	-0.122
-441.807	-42.664	0.056	0.028
-440.792	-42.408	0.162	-0.081
-439.778	746.839	-0.088	-0.235
-438.763	481.649	0.094	-0.210
-437.749	-200.000	0.021	-0.158
-436.734	422.312	-0.109	0.231
-435.719	-120.583	-0.046	0.008
-434.705	-34.870	-0.119	-0.064
-433.690	9.682	-0.160	-0.120
-432.676	66.219	0.351	-0.351
-431.661	-66.025	-0.375	-0.148
-430.646	188.948	0.231	0.342
-429.632	-200.000	-0.003	-0.467
-428.617	-200.000	0.016	-0.077
-427.603	-200.000	-0.018	-0.087
-426.588	186.687	-0.099	0.145
-425.573	-49.521	-0.252	-0.119
-424.559	108.254	-0.202	-0.237
-423.544	66.838	-0.375	0.376
-422.530	554.830	-0.018	-0.043
-421.515	118.017	-0.123	0.150
-420.500	84.884	-0.060	0.065
-419.486	-90.453	0.231	-0.066
-418.471	-200.000	-0.014	-0.171
-417.457	800.000	0.024	-0.095
-416.442	360.403	0.175	-0.345
-415.428	-200.000	0.011	0.497
-414.413	-95.882	-0.198	0.052
-413.398	-200.000	-0.023	0.186
-412.384	41.365	0.152	-0.136
-411.369	28.512	-0.301	0.251
-410.355	-200.000	0.033	0.270
-409.340	-200.000	0.015	0.092
-408.325	225.602	-0.081	-0.129
-407.311	-200.000	0.034	0.235
-406.296	-98.730	0.308	-0.077
-405.282	-200.000	-0.016	-0.081
-404.267	39.701	-0.121	-0.107
-403.252	27.262	-0.037	-0.030
-402.238	637.373	0.024	0.061
-401.223	-82.501	0.122	-0.039
-400.209	-200.000	-0.036	0.268
-399.194	-89.444	-0.385	0.112
-398.179	135.975	-0.164	0.211
-397.165	-200.000	0.035	-0.154
-396.150	-109.919	-0.273	0.056
-395.136	-200.000	0.011	-0.140
-394.121	658.763	0.022	0.056
-393.106	-122.489	0.148	-0.024
-392.092	691.600	0.141	-0.364
-391.077	9.156	-0.431	0.321
-390.063	-5.340	-0.125	0.085
-389.048	562.419	0.085	0.202
-388.033	-161.219	-0.431	0.022
-387.019	3.360	0.028	0.020
-386.004	-4.424	0.315	0.215
-384.990	20.600	0.219	-0.174
-383.975	-184.206	-0.199	-0.003
-382.960	535.231	0.014	0.033
-381.946	-158.088	-0.341	-0.020
-380.931	-200.000	-0.034	-0.493
-379.917	133.696	-0.095	-0.122
-378.902	90.365	-0.215	0.237
-377.888	-106.818	-0.109	-0.024
-376.873	-200.000	-0.034	0.158
-375.858	-75.315	0.074	0.026
-374.844	-129.781	0.190	0.026
-373.829	-200.000	0.050	0.296
-372.815	-187.425	0.240	0.003
-371.800	17.352	0.161	0.126
-370.785	-87.301	-0.145	-0.043
-369.771	-41.055	0.293	-0.149
-368.756	800.000	-0.143	-0.401
-367.742	393.465	-0.156	0.320
-366.727	-157.845	0.217	0.013
-365.712	-200.000	0.012	0.181
-364.698	464.853	0.064	0.142
-363.683	-57.189	-0.190	0.082
-362.669	415.372	0.106	-0.222
-361.654	-71.202	0.369	-0.136
-360.639	261.870	-0.129	-0.221
-359.625	-15.266	0.179	-0.112
-358.610	-2.281	0.106	-0.073
-357.596	800.000	-0.119	0.412
-356.581	40.062	-0.289	-0.256
-355.566	-139.363	-0.240	-0.025
-354.552	153.160	0.163	0.220
-353.537	-200.000	0.063	-0.349
-352.523	182.591	0.097	0.141
-351.508	-151.369	0.209	0.015
-350.493	-120.959	0.081	-0.013
-349.479	-45.158	-0.235	0.115
-348.464	800.000	0.028	0.122
-347.450	800.000	0.067	-0.263
-346.435	-67.424	0.290	0.112
-345.420	1.320	-0.111	0.078
-344.406	-86.091	0.358	0.109
-343.391	-200.000	-0.008	-0.235
-342.377	-27.988	0.186	-0.106
-341.362	-145.147	-0.116	-0.010
-340.348	-60.971	-0.119	-0.050
-339.333	800.000	0.025	-0.081
-338.318	-26.602	0.082	-0.047
-337.304	223.152	-0.154	0.243
-336.289	44.941	-0.241	0.218
-335.275	-183.841	-0.506	-0.008
-334.260	80.938	-0.128	-0.136
-333.245	-19.473	0.426	0.259
-332.231	-200.000	0.033	0.306
-331.216	800.000	-0.015	0.052
-330.202	462.411	0.117	-0.256
-329.187	217.615	-0.190	-0.298
-328.172	-39.434	-0.264	0.136
-327.158	12.656	-0.171	-0.130
-326.143	67.240	-0.143	0.143
-325.129	-200.000	0.008	-0.044
-324.114	-81.050	0.209	-0.068
-323.099	70.039	0.188	-0.191
-322.085	211.993	-0.068	0.106
-321.070	-200.000	-0.003	-0.083
-320.056	-200.000	-0.006	-0.096
-319.041	-145.317	-0.097	0.009
-318.026	119.657	-0.121	0.147
-317.012	-135.478	0.351	-0.041
-315.997	-132.662	-0.144	0.018
-314.983	50.386	-0.123	0.114
-313.968	800.000	0.018	-0.076
-312.953	531.866	0.077	-0.179
-311.939	-90.010	0.144	-0.041
-310.924	-67.849	-0.124	0.048
-309.910	-139.670	-0.132	0.014
-308.895	-200.000	0.049	-0.262
-307.880	505.015	0.040	-0.091
-306.866	307.458	0.090	-0.165
-305.851	34.392	-0.094	0.081
-304.837	58.586	0.153	-0.147
-303.822	-200.000	0.010	-0.125
-302.807	138.432	0.131	0.169
-301.793	-6.346	0.078	-0.052
-300.778	-116.144	0.265	0.048
-299.764	300.062	-0.105	0.189
-298.749	-149.087	0.122	-0.010
-297.735	-32.323	-0.223	0.122
-296.720	-147.269	0.106	-0.009
-295.705	-33.956	0.207	-0.112
-294.691	800.000	0.119	0.358
-293.676	800.000	-0.039	0.162
-292.662	197.238	0.193	0.288
-291.647	-149.267	-0.095	0.007
-290.632	800.000	-0.085	0.353
-289.618	-22.305	-0.242	-0.144
-288.603	63.029	-0.199	0.195
-287.589	-200.000	0.011	-0.074
-286.574	800.000	0.115	-0.430
-285.559	-40.153	0.116	-0.059
-284.545	96.051	0.148	0.166
-283.530	800.000	0.067	-0.237
-282.516	-5.540	0.321	0.216
-281.501	27.233	0.257	-0.212
-280.486	139.039	0.130	0.168
-279.472	792.535	0.085	0.230
-278.457	-75.083	0.148	-0.052
-277.443	-162.429	0.154	0.007
-276.428	32.560	0.043	-0.036
-275.413	348.048	-0.080	0.155
-274.399	428.831	0.054	0.115
-273.384	48.168	-0.110	-0.101
-272.370	252.280	-0.056	-0.093
-271.355	177.439	-0.137	0.195
-270.340	-56.228	-0.134	0.058
-269.326	-82.102	0.381	0.122
-268.311	-200.000	-0.014	-0.282
-267.297	-200.000	-0.039	-0.193
-266.282	-200.000	-0.045	0.371
-265.267	-130.658	-0.137	-0.018
-264.253	-200.000	-0.008	-0.366
-263.238	12.661	0.223	-0.169
-262.224	-26.717	-0.031	0.018
-261.209	275.172	-0.068	-0.118
-260.195	92.505	0.117	0.129
-259.180	106.253	0.102	-0.118
-258.165	-58.882	0.302	-0.128
-257.151	800.000	0.097	0.317
-256.136	-200.000	-0.000	-0.083
-255.122	125.514	0.111	0.137
-254.107	-200.000	0.024	-0.466
-253.092	-200.000	-0.008	-0.154
-252.078	512.252	0.068	0.156
-251.063	151.823	0.025	-0.033
-250.049	14.374	0.219	-0.167
-249.034	-34.057	-0.175	0.094
-248.019	-92.892	-0.105	-0.029
-247.005	-64.700	0.134	0.053
-245.990	-71.547	0.294	0.108
-244.976	-200.000	-0.031	-0.242
-243.961	452.621	0.071	-0.153
-242.946	28.474	0.234	-0.194
-241.932	-200.000	-0.049	0.237
-240.917	-145.830	-0.106	0.009
-239.903	-191.339	-0.330	0.003
-238.888	-78.912	-0.171	-0.057
-237.873	72.833	0.229	-0.234
-236.859	-85.073	-0.212	0.065
-235.844	-110.138	0.303	-0.062
-234.830	-66.724	-0.256	0.099
-233.815	-20.549	0.193	0.116
-232.800	800.000	0.058	0.226
-231.786	-200.000	-0.005	0.036
-230.771	-130.259	0.278	0.037
-229.757	-53.263	-0.248	0.111
-228.742	-71.002	-0.225	0.083
-227.727	-2.606	0.265	0.181
-226.713	-127.981	0.508	-0.071
-225.698	5.714	0.398	-0.288
-224.684	250.577	-0.051	-0.085
-223.669	309.080	0.097	-0.177
-222.655	-106.259	0.069	-0.015
-221.640	-200.000	0.004	-0.041
-220.625	-57.193	0.195	0.084
-219.611	107.340	0.406	0.472
-218.596	93.374	-0.039	0.043
-217.582	-37.070	0.149	0.078
-216.567	-124.135	0.278	-0.043
-215.552	-177.215	-0.225	-0.005
-214.538	13.744	0.159	0.121
-213.523	-156.233	0.106	0.007
-212.509	128.102	0.073	-0.090
-211.494	-53.031	0.323	-0.145
-210.479	-150.902	0.278	-0.021
-209.465	-200.000	-0.032	-0.320
-208.450	-200.000	0.008	0.112
-207.436	50.095	0.139	0.128
-206.421	-127.279	-0.282	-0.040
-205.406	-65.797	0.325	0.127
-204.392	-149.152	0.160	-0.013
-203.377	89.964	-0.075	0.082
-202.363	-54.107	0.087	-0.039
-201.348	-69.715	-0.152	0.057
-200.333	34.017	-0.156	-0.133
-199.319	16.220	0.084	-0.064
-198.304	-200.000	0.007	0.031
-197.290	-200.000	0.023	-0.108
-196.275	-86.990	0.202	-0.060
-195.260	-94.155	0.437	-0.117
-194.246	800.000	-0.078	-0.218
-193.231	-123.233	0.278	0.043
-192.217	800.000	-0.082	-0.247
-191.202	88.759	-0.271	0.295
-190.187	607.695	0.138	0.336
-189.173	223.779	-0.197	-0.312
-188.158	-200.000	-0.037	-0.224
-187.144	-18.931	-0.242	0.147
-186.129	392.925	-0.140	-0.284
-185.114	-136.007	0.195	-0.022
-184.100	292.832	-0.022	0.039
-183.085	105.175	0.202	-0.233
-182.071	35.558	-0.074	-0.063
-181.056	800.000	-0.049	-0.159
-180.042	27.303	-0.224	0.184
-179.027	-90.749	0.138	-0.039
-178.012	-18.316	0.178	0.109
-176.998	474.691	0.003	0.006
-175.983	-138.265	-0.294	-0.032
-174.969	148.801	-0.203	-0.268
-173.954	-115.307	0.220	0.041
-172.939	637.936	-0.153	0.381
-171.925	-98.032	0.231	0.058
-170.910	-171.151	-0.183	-0.006
-169.896	-200.000	-0.037	-0.267
-168.881	800.000	-0.032	0.105
-167.866	-71.517	-0.287	-0.105
-166.852	-200.000	-0.022	0.260
-165.837	800.000	0.068	-0.273
-164.823	-166.902	-0.167	0.007
-163.808	-103.724	0.210	0.048
-162.793	-53.284	-0.136	-0.061
-161.779	-12.439	-0.028	-0.018
-160.764	52.255	-0.126	-0.117
-159.750	-200.000	0.063	-0.306
-158.735	-12.297	0.077	-0.049
-157.720	8.412	-0.056	0.041
-156.706	-23.223	0.262	0.154
-155.691	304.598	0.103	0.187
-154.677	-180.632	0.149	0.003
-153.662	-151.282	-0.420	0.031
-152.647	-68.021	-0.173	0.066
-151.633	-9.977	0.114	0.074
-150.618	-72.386	0.252	-0.091
-149.604	-200.000	0.035	-0.163
-148.589	-127.025	0.333	0.048
-147.574	-200.000	0.001	-0.049
-146.560	-200.000	0.003	-0.330
-145.545	284.290	-0.178	-0.313
-144.531	-45.049	-0.090	-0.044
-143.516	28.743	0.170	-0.141
-142.502	-45.107	0.348	-0.169
-141.487	-107.010	0.168	0.036
-140.472	357.666	-0.057	0.111
-139.458	-139.181	0.185	0.019
-138.443	800.000	-0.117	0.359
-137.429	-88.468	0.165	0.048
-136.414	-118.842	-0.222	0.038
-135.399	145.167	-0.197	-0.257
-134.385	52.496	0.231	-0.215
-133.370	-200.000	-0.015	0.234
-132.356	-200.000	-0.056	0.276
-131.341	93.739	-0.236	0.261
-130.326	-74.630	0.207	-0.073
-129.312	-200.000	0.014	-0.155
-128.297	-200.000	-0.007	-0.088
-127.283	606.412	-0.135	0.327
-126.268	-200.000	0.065	0.369
-125.253	194.619	0.098	-0.145
-124.239	-76.770	0.230	0.078
-123.224	41.282	0.144	0.127
-122.210	-151.751	0.333	0.024
-121.195	800.000	-0.042	-0.156
-120.180	14.091	0.246	0.187
-119.166	-200.000	-0.015	-0.156
-118.151	800.000	-0.097	0.275
-117.137	95.133	-0.162	-0.180
-116.122	16.594	-0.128	-0.098
-115.107	800.000	0.044	0.123
-114.093	462.853	-0.104	0.226
-113.078	-200.000	-0.004	-0.040
-112.064	-47.221	0.151	-0.072
-111.049	-8.966	0.042	-0.028
-110.034	-117.995	-0.339	0.059
-109.020	-15.070	0.125	0.078
-108.005	-200.000	-0.003	-0.025
-106.991	169.848	0.191	-0.266
-105.976	89.676	0.089	0.097
-104.962	-145.546	0.303	0.026
-103.947	90.013	-0.074	-0.081
-102.932	182.155	0.090	0.129
-101.918	-200.000	0.017	0.220
-100.903	-33.795	-0.106	0.057
-99.889	-159.965	0.638	0.034
-98.874	-69.579	-0.166	-0.062
-97.859	800.000	0.044	0.135
-96.845	418.130	-0.145	-0.303
-95.830	12.674	0.188	0.141
-94.816	-113.691	-0.323	-0.061
-93.801	281.074	-0.104	0.182
-92.786	24.088	0.182	0.146
-91.772	-39.828	-0.232	-0.118
-90.757	261.690	0.138	0.232
-89.743	133.366	0.133	0.167
-88.728	-200.000	-0.039	0.229
-87.713	-200.000	-0.036	0.161
-86.699	306.899	-0.103	-0.187
-85.684	-200.000	-0.057	0.284
-84.670	-200.000	0.053	-0.471
-83.655	-33.196	0.290	-0.156
-82.640	141.017	0.017	-0.022
-81.626	800.000	-0.064	-0.218
-80.611	637.263	0.009	-0.022
-79.597	192.113	-0.126	-0.184
-78.582	-147.786	-0.181	0.015
-77.567	-200.000	-0.029	0.524
-76.553	171.787	0.149	0.209
-75.538	-45.756	0.035	-0.017
-74.524	87.670	0.104	0.112
-73.509	166.901	0.238	0.329
-72.494	-200.000	0.032	0.161
-71.480	-200.000	0.002	-0.062
-70.465	-144.416	-0.203	0.018
-69.451	42.666	-0.158	-0.140
-68.436	13.734	0.078	0.059
-67.422	-189.385	-0.444	0.005
-66.407	110.149	-0.112	0.131
-65.392	699.549	-0.109	-0.279
-64.378	-105.034	-0.202	-0.045
-63.363	-49.747	0.085	-0.039
-62.349	-152.828	-0.122	-0.008
-61.334	127.080	-1.198	-1.477
-60.319	135.405	0.735	0.929
-59.305	506.347	-0.609	-1.372
-58.290	567.694	0.692	1.634
-57.276	634.618	0.686	1.693
-56.261	-200.000	136.505	630.123
-55.246	346.288	1641.290	3139.170
-54.232	137.946	2773.707	3534.733
-53.217	82.212	2178.368	2297.166
-52.203	29.125	1699.538	1402.391
-51.188	22.354	1524.316	1211.325
-50.173	20.850	1504.165	1185.036
-49.159	43.771	1580.506	1406.795
-48.144	39.941	1589.846	1388.206
-47.130	22.273	1540.060	1223.078
-46.115	19.773	1523.836	1192.917
-45.100	19.622	1520.192	1188.979
-44.086	19.483	1518.917	1186.979
-43.071	19.477	1516.800	1185.237
-42.057	19.514	1515.306	1184.279
-41.042	19.470	1514.050	1182.945
-40.027	19.557	1512.243	1182.085
-39.013	19.390	1511.168	1180.051
-37.998	19.430	1509.584	1179.041
-36.984	19.449	1508.694	1178.430
-35.969	19.513	1507.090	1177.565
-34.954	19.385	1506.274	1176.011
-33.940	19.505	1504.356	1175.287
-32.925	19.375	1503.744	1173.875
-31.911	19.431	1501.637	1172.562
-30.896	19.426	1500.827	1171.849
-29.881	19.601	1498.922	1171.506
-28.867	19.577	1498.045	1170.606
-27.852	19.559	1496.768	1169.439
-26.838	19.677	1495.008	1168.816
-25.823	19.515	1493.554	1166.541
-24.809	19.497	1492.657	1165.675
-23.794	19.561	1490.471	1164.350
-22.779	19.526	1489.942	1163.655
-21.765	19.565	1488.833	1163.007
-20.750	19.521	1487.547	1161.658
-19.736	19.559	1486.122	1160.756
-18.721	19.475	1485.278	1159.483
-17.706	19.573	1484.085	1159.169
-16.692	19.455	1483.564	1157.921
-15.677	19.527	1481.886	1157.048
-14.663	19.439	1481.381	1156.018
-13.648	19.523	1479.934	1155.405
-12.633	19.593	1479.046	1155.136
-11.619	19.515	1478.133	1153.856
-10.604	19.533	1477.319	1153.296
-9.590	19.486	1476.732	1152.473
-8.575	19.500	1475.745	1151.754
-7.560	19.491	1474.737	1150.864
-6.546	19.574	1473.564	1150.453
-5.531	19.485	1472.844	1149.253
-4.517	19.490	1471.946	1148.541
-3.502	19.546	1470.843	1148.007
-2.487	19.481	1470.023	1146.890
-1.473	19.481	1469.127	1146.146
-0.458	19.554	1467.655	1145.437
0.556	18.404	1457.382	1132.429
1.571	15.095	1433.699	1092.374
2.586	11.507	1371.801	1022.685
3.600	9.925	1286.693	949.853
4.615	9.162	1242.958	913.150
5.629	8.323	1186.928	867.355
6.644	4.332	1108.286	789.537
7.659	1.134	1075.200	750.097
8.673	0.758	1069.731	744.366
9.688	0.557	1066.608	741.140
10.702	0.513	1065.587	740.147
11.717	0.562	1062.628	738.268
12.731	1.936	1062.055	744.513
13.746	6.965	1069.001	773.981
14.761	13.260	1077.834	811.291
15.775	16.856	1082.071	832.091
16.790	16.832	1081.615	831.548
17.804	15.885	1078.742	824.633
18.819	15.036	1077.092	819.145
19.834	14.585	1075.879	815.945
20.848	14.271	1075.550	814.088
21.863	14.164	1074.229	812.494
22.877	14.071	1072.950	810.999
23.892	13.644	1072.825	808.748
24.907	13.707	1071.251	807.798
25.921	13.598	1070.945	806.967
26.936	13.728	1069.834	806.688
27.950	13.730	1069.516	806.387
28.965	13.749	1068.714	805.805
29.980	13.735	1068.063	805.171
30.994	13.746	1067.225	804.525
32.009	13.859	1065.773	803.908
33.023	13.835	1065.289	803.352
34.038	13.876	1064.646	802.996
35.053	13.866	1063.506	802.017
36.067	13.885	1062.452	801.242
37.082	13.765	1062.011	800.262
38.096	13.953	1060.553	799.995
39.111	13.901	1060.087	799.325
40.126	13.910	1059.306	798.709
41.140	13.644	1058.520	796.766
42.155	13.748	1056.779	795.884
43.169	13.719	1056.213	795.250
44.184	13.679	1055.100	794.147
45.199	13.704	1054.240	793.548
46.213	13.635	1053.663	792.715
47.228	13.685	1052.277	791.840
48.242	13.706	1051.385	791.203
49.257	13.751	1049.912	790.238
50.271	13.747	1049.118	789.550
51.286	13.760	1048.450	789.040
52.301	13.757	1047.667	788.364
53.315	13.800	1046.722	787.789
54.330	13.809	1045.732	787.016
55.344	13.785	1044.881	786.193
56.359	13.762	1044.088	785.416
57.374	13.653	1043.073	784.069
58.388	13.833	1041.985	784.031
59.403	13.651	1041.760	782.937
60.417	13.716	1040.352	782.111
61.432	13.715	1040.153	781.892
62.447	13.689	1039.102	780.910
63.461	13.754	1038.336	780.570
64.476	13.617	1037.494	779.224
65.490	13.667	1036.263	778.465
66.505	13.735	1035.332	778.015
67.520	13.622	1034.986	777.156
68.534	13.641	1034.309	776.671
69.549	13.653	1033.357	775.939
70.563	13.756	1032.617	775.797
71.578	13.630	1032.223	774.843
72.593	13.665	1031.382	774.308
73.607	13.602	1030.268	773.111
74.622	13.502	1029.292	771.842
75.636	13.620	1028.484	771.720
76.651	13.658	1027.484	771.076
77.666	13.568	1026.628	769.950
78.680	13.705	1026.260	770.239
79.695	13.608	1025.702	769.305
80.709	13.686	1024.598	768.768
81.724	13.640	1023.983	768.025
82.739	13.664	1023.675	767.838
83.753	13.643	1022.413	766.725
84.768	13.724	1022.035	766.747
85.782	13.848	1020.926	766.424
86.797	13.832	1020.450	765.923
87.812	13.916	1019.264	765.352
88.826	13.773	1018.669	764.180
89.841	13.762	1017.633	763.285
90.855	13.741	1017.233	762.819
91.870	13.879	1016.386	762.752
92.884	13.804	1015.603	761.752
93.899	13.943	1014.938	761.824
94.914	13.746	1014.700	760.674
95.928	13.814	1013.734	760.193
96.943	13.822	1013.088	759.678
97.957	13.822	1012.008	758.801
98.972	13.934	1010.715	758.275
99.987	13.952	1009.936	757.706
101.001	13.946	1009.192	757.056
102.016	13.859	1008.364	755.971
103.030	13.762	1007.951	755.152
104.045	13.822	1006.852	754.535
105.060	13.986	1005.448	754.162
106.074	13.907	1004.682	753.160
107.089	13.761	1004.145	752.030
108.103	13.869	1002.956	751.560
109.118	13.644	1001.934	749.712
110.133	13.700	1001.224	749.369
111.147	13.842	999.988	749.017
112.162	13.765	999.676	748.371
113.176	13.719	998.830	747.463
114.191	13.940	997.851	747.659
115.206	13.882	996.798	746.542
116.220	13.822	995.899	745.536
117.235	13.859	995.190	745.104
118.249	13.820	994.508	744.350
119.264	13.726	993.582	743.171
120.279	13.817	992.681	742.837
121.293	13.839	991.986	742.353
122.308	13.786	991.135	741.414
123.322	13.871	989.814	740.739
124.337	13.829	989.110	739.958
125.352	13.731	987.979	738.610
126.366	13.803	986.920	738.075
127.381	13.687	986.179	736.937
128.395	13.659	984.742	735.675
129.410	13.622	984.000	734.894
130.424	13.738	983.365	734.869
131.439	13.738	982.480	734.140
132.454	13.813	981.170	733.427
133.468	13.821	980.627	732.994
134.483	13.804	980.060	732.431
135.497	13.750	979.612	731.793
136.512	13.658	979.097	730.936
137.527	13.746	978.359	730.709
138.541	13.729	977.157	729.670
139.556	13.805	976.777	729.658
140.570	13.905	975.516	729.089
141.585	13.877	974.778	728.351
142.600	13.923	974.315	728.142
143.614	13.983	973.291	727.573
144.629	13.993	972.813	727.197
145.643	14.001	972.151	726.671
146.658	14.127	970.565	725.975
147.673	13.996	970.258	725.106
148.687	13.937	969.315	724.082
149.702	14.004	968.142	723.433
150.716	13.950	967.429	722.602
151.731	13.937	966.823	722.029
152.746	14.053	965.889	721.772
153.760	13.973	965.277	720.904
154.775	14.007	964.657	720.525
155.789	14.073	963.595	719.953
156.804	14.007	962.823	719.026
157.819	13.956	962.077	718.183
158.833	14.043	961.248	717.879
159.848	14.206	960.688	718.099
160.862	14.195	959.846	717.359
161.877	14.161	959.172	716.645
162.892	14.092	958.341	715.664
163.906	14.150	957.481	715.206
164.921	14.006	957.224	714.334
165.935	14.084	955.519	713.334
166.950	14.133	954.584	712.783
167.964	14.164	953.907	712.347
168.979	14.104	952.532	710.999
169.994	14.148	951.811	710.585
171.008	14.158	950.835	709.836
172.023	14.190	949.783	709.126
173.037	14.242	949.105	708.777
174.052	14.409	948.224	708.766
175.067	14.161	948.239	707.660
176.081	14.289	947.265	707.416
177.096	14.193	946.540	706.405
178.110	14.202	945.619	705.693
179.125	14.122	945.055	704.869
180.140	14.149	944.178	704.269
181.154	14.061	943.682	703.462
182.169	14.189	943.096	703.506
183.183	14.230	942.329	703.046
184.198	14.345	941.483	702.837
185.213	14.439	940.708	702.592
186.227	14.470	940.337	702.385
187.242	14.363	939.678	701.377
188.256	14.458	938.780	701.048
189.271	14.388	938.191	700.250
190.286	14.433	937.128	699.585
191.300	14.420	936.263	698.821
192.315	14.341	935.896	698.154
193.329	14.303	935.147	697.373
194.344	14.448	934.453	697.404
195.359	14.286	934.055	696.367
196.373	14.436	933.631	696.615
197.388	14.497	932.677	696.097
198.402	14.540	932.338	695.961
199.417	14.580	931.935	695.765
200.432	14.530	931.448	695.131
201.446	14.585	931.260	695.158
202.461	14.655	930.645	694.933
203.475	14.814	929.967	695.024
204.490	14.644	928.843	693.415
205.504	14.723	927.952	693.016
206.519	14.588	927.205	691.838
207.534	14.578	926.802	691.436
208.548	14.607	926.200	691.046
209.563	14.552	925.508	690.241
210.577	14.594	924.539	689.629
211.592	14.713	923.880	689.568
212.607	14.801	923.629	689.682
213.621	14.863	922.693	689.178
214.636	14.685	922.192	688.009
215.650	14.712	921.928	687.865
216.665	14.690	921.273	687.225
217.680	14.541	920.929	686.293
218.694	14.840	919.870	686.672
219.709	14.859	919.520	686.429
220.723	14.878	918.482	685.669
221.738	15.038	917.937	685.860
222.753	14.870	917.089	684.476
223.767	14.738	916.775	683.641
224.782	14.925	915.867	683.667
225.796	14.954	914.905	683.009
226.811	14.875	914.704	682.475
227.826	15.001	913.723	682.196
228.840	15.003	913.144	681.714
229.855	15.039	912.438	681.272
230.869	14.970	911.762	680.425
231.884	14.941	911.027	679.698
232.899	14.939	910.502	679.239
233.913	14.955	909.601	678.571
234.928	14.922	908.739	677.736
235.942	15.035	907.980	677.566
236.957	14.902	907.738	676.788
237.972	14.980	906.790	676.334
238.986	15.050	905.879	675.880
240.001	15.036	905.367	675.382
241.015	15.073	904.403	674.753
242.030	15.079	904.346	674.673
243.045	15.030	903.757	673.976
244.059	15.305	902.561	674.132
245.074	15.143	902.466	673.348
246.088	15.209	901.554	672.876
247.103	15.122	901.169	672.178
248.117	15.169	900.286	671.650
249.132	15.226	900.291	671.820
250.147	15.314	899.117	671.238
251.161	15.340	898.475	670.802
252.176	15.316	897.925	670.238
253.190	15.588	896.991	670.566
254.205	15.444	896.684	669.705
255.220	15.398	895.863	668.848
256.234	15.441	895.455	668.656
257.249	15.451	894.416	667.861
258.263	15.572	893.934	667.922
259.278	15.494	893.394	667.150
260.293	15.606	892.710	667.025
261.307	15.466	892.436	666.205
262.322	15.516	891.893	665.938
263.336	15.500	891.383	665.435
264.351	15.562	890.503	664.964
265.366	15.714	889.769	664.959
266.380	15.803	889.334	664.927
267.395	15.696	888.618	663.911
268.409	15.700	887.665	663.155
269.424	15.551	887.141	662.120
270.439	15.787	886.273	662.342
271.453	15.909	885.439	662.138
272.468	15.740	884.777	660.924
273.482	15.611	884.263	659.972
274.497	15.832	883.629	660.310
275.512	15.727	883.135	659.468
276.526	15.726	882.427	658.876
277.541	15.814	881.690	658.614
278.555	15.793	881.309	658.187
279.570	15.914	880.561	658.045
280.585	15.907	879.977	657.521
281.599	16.077	879.037	657.426
282.614	15.872	878.752	656.354
283.628	15.925	878.126	656.037
284.643	15.861	877.966	655.609
285.657	15.881	877.372	655.185
286.672	15.968	876.713	654.975
287.687	16.004	876.601	654.971
288.701	16.028	875.515	654.196
289.716	16.088	874.989	653.976
290.730	16.024	874.457	653.274
291.745	16.015	873.902	652.767
292.760	15.965	872.986	651.832
293.774	16.141	872.275	651.921
294.789	16.169	871.653	651.506
295.803	16.099	871.192	650.837
296.818	16.139	870.543	650.448
297.833	16.212	869.319	649.757
298.847	16.214	869.201	649.620
299.862	16.035	868.604	648.428
300.876	16.226	868.145	648.759
301.891	16.209	867.248	647.966
302.906	16.324	866.301	647.642
303.920	16.159	866.079	646.789
304.935	16.224	865.228	646.343
305.949	16.431	864.308	646.393
306.964	16.337	863.733	645.546
307.979	16.272	863.338	644.944
308.993	16.427	862.691	644.996
310.008	16.402	862.263	644.525
311.022	16.245	861.800	643.521
312.037	16.334	861.472	643.558
313.052	16.406	860.940	643.380
314.066	16.430	860.083	642.774
315.081	16.401	859.711	642.330
316.095	16.345	858.869	641.429
317.110	16.425	857.853	640.915
318.125	16.497	857.690	641.011
319.139	16.543	857.216	640.774
320.154	16.399	856.761	639.831
321.168	16.454	856.145	639.524
322.183	16.565	855.933	639.730
323.197	16.454	855.077	638.613
324.212	16.515	854.467	638.333
325.227	16.421	854.445	637.902
326.241	16.544	853.519	637.620
327.256	16.404	852.971	636.626
328.270	16.568	852.547	636.871
329.285	16.488	851.865	636.006
330.300	16.500	851.033	635.372
331.314	16.508	850.641	635.053
332.329	16.477	849.953	634.369
333.343	16.534	849.212	633.971
334.358	16.660	848.772	634.057
335.373	16.735	848.233	633.882
336.387	16.586	847.850	632.980
337.402	16.691	847.018	632.697
338.416	16.686	846.627	632.329
339.431	16.532	846.327	631.473
340.446	16.936	845.062	631.982
341.460	16.855	844.785	631.417
342.475	16.790	844.116	630.618
343.489	16.953	843.614	630.794
344.504	16.886	843.233	630.202
345.519	16.756	842.783	629.328
346.533	16.939	842.150	629.481
347.548	16.818	841.618	628.579
348.562	16.845	840.991	628.155
349.577	16.962	840.436	628.117
350.592	16.993	839.812	627.712
351.606	16.895	839.210	626.843
352.621	16.900	839.383	626.933
353.635	16.860	838.478	626.055
354.650	16.951	838.136	626.082
355.665	17.035	837.564	625.906
356.679	16.928	837.217	625.200
357.694	16.985	836.773	625.023
358.708	17.096	836.199	624.946
359.723	16.949	835.717	623.990
360.738	17.142	835.120	624.197
361.752	17.159	834.689	623.884
362.767	17.087	833.974	623.031
363.781	17.102	833.540	622.705
364.796	17.165	833.127	622.574
365.810	17.025	832.686	621.677
366.825	17.147	832.915	622.237
367.840	17.209	832.227	621.897
368.854	17.271	831.546	621.558
369.869	17.216	831.331	621.142
370.883	17.119	831.197	620.631
371.898	17.358	830.020	620.569
372.913	17.290	829.629	619.975
373.927	17.320	828.970	619.538
374.942	17.292	827.989	618.647
375.956	17.305	827.502	618.277
376.971	17.457	826.912	618.333
377.986	17.246	826.555	617.245
379.000	17.397	825.737	617.129
380.015	17.525	825.485	617.347
381.029	17.569	824.580	616.777
382.044	17.511	824.002	616.079
383.059	17.474	823.654	615.633
384.073	17.355	823.614	615.117
385.088	17.587	822.711	615.227
386.102	17.517	821.995	614.382
387.117	17.600	821.590	614.327
388.132	17.443	821.222	613.431
389.146	17.416	821.076	613.170
390.161	17.468	820.724	613.038
391.175	17.564	820.180	612.924
392.190	17.503	819.668	612.266
393.205	17.689	818.949	612.346
394.219	17.545	818.651	611.550
395.234	17.522	818.174	611.059
396.248	17.637	817.549	610.948
397.263	17.664	817.233	610.754
398.278	17.485	816.494	609.510
399.292	17.573	816.171	609.528
400.307	17.658	815.593	609.347
401.321	17.565	815.024	608.537
402.336	17.719	814.702	608.793
403.350	17.672	814.614	608.504
404.365	17.608	814.225	607.930
405.380	17.753	813.508	607.859
406.394	17.803	812.698	607.376
407.409	17.793	812.656	607.258
408.423	17.744	812.437	606.866
409.438	17.782	812.067	606.671
410.453	17.811	811.461	606.267
411.467	17.991	810.884	606.422
412.482	17.885	810.393	605.624
413.496	17.967	809.545	605.229
414.511	18.118	809.137	605.404
415.526	18.035	809.422	605.270
416.540	17.923	808.835	604.382
417.555	17.838	808.490	603.768
418.569	18.056	807.709	603.902
419.584	18.023	807.330	603.448
420.599	18.080	806.983	603.339
421.613	115.735	1300.525	1491.409
422.628	100.049	1372.341	1491.453
