DTS Sentinel unit serial number:	SN413079Multiplexer serial number:	ORYXHardware model number:	OX4-SRSoftware version number:	ORYX F/W v4.00 Oryx Data Collector v3.7.2.0data status	okinstallation	princeton_trtdifferential loss correction	single-endedforward channel	channel 3reverse channel	N/Adate	2019/09/12time	13:10:10forward acquisition time	60.00reverse acquisition time	0.00gamma	496.2192k internal	0.2291k external	0.2291temperature offset calibration	1.0037default loss term (dB/km)	0.3790temperature slope calibration	1.0000multiplexer offset coefficient	1.0000multiplexer slope coefficient	1.0000fibre end	0.00T internal ref (°C)	41.03T ext. ref 1 (°C)	2.00T ext. ref 2 (°C)	36.30length (m)	temperature (°C)	Stokes	anti-Stokes-747.200	173.991	0.080	-0.118
-746.185	-103.585	0.173	0.042
-745.171	215.943	0.161	0.262
-744.156	-73.328	-0.285	0.107
-743.142	-11.849	0.047	0.031
-742.127	23.002	0.232	0.195
-741.112	-16.007	-0.153	0.100
-740.098	112.235	-0.379	0.469
-739.083	-151.086	0.079	-0.006
-738.069	95.813	-0.217	0.253
-737.054	-51.732	-0.044	-0.021
-736.039	325.917	-0.075	-0.148
-735.025	412.866	-0.045	0.099
-734.010	41.778	-0.179	-0.166
-732.996	168.546	0.036	-0.052
-731.981	50.857	0.143	0.139
-730.966	185.631	0.089	0.135
-729.952	-140.880	-0.392	-0.041
-728.937	231.428	0.075	-0.126
-727.923	-32.547	-0.097	0.055
-726.908	-154.152	-0.213	-0.015
-725.894	116.378	-0.199	-0.249
-724.879	48.766	0.080	0.077
-723.864	800.000	0.056	-0.186
-722.850	-88.138	-0.160	0.049
-721.835	-9.704	0.076	0.052
-720.821	85.301	-0.136	0.153
-719.806	133.565	-0.183	-0.242
-718.791	62.779	0.076	-0.078
-717.777	-200.000	-0.205	-0.001
-716.762	-73.941	-0.482	-0.179
-715.748	800.000	0.056	0.184
-714.733	-87.921	0.261	0.080
-713.718	-200.000	-0.051	-0.236
-712.704	-40.928	0.060	-0.032
-711.689	800.000	0.118	-0.342
-710.675	-200.000	0.103	-0.484
-709.660	395.391	0.140	0.299
-708.645	-128.080	-0.193	-0.028
-707.631	-200.000	-0.001	0.122
-706.616	-88.751	-0.351	0.107
-705.602	-109.038	0.297	0.065
-704.587	-39.923	-0.176	0.094
-703.572	800.000	0.064	-0.237
-702.558	282.496	-0.054	0.099
-701.543	0.666	0.205	0.150
-700.529	-200.000	-0.021	0.325
-699.514	-140.881	-0.130	0.014
-698.499	254.494	0.071	-0.124
-697.485	800.000	0.140	0.449
-696.470	-200.000	-0.018	-0.102
-695.456	95.070	-0.259	0.301
-694.441	-200.000	0.015	0.159
-693.426	800.000	-0.025	-0.071
-692.412	175.743	0.161	0.239
-691.397	38.851	0.285	-0.260
-690.383	664.063	-0.047	-0.124
-689.368	64.182	0.088	-0.091
-688.354	183.789	-0.156	0.235
-687.339	-107.635	-0.526	0.118
-686.324	240.362	0.122	0.208
-685.310	52.416	-0.056	-0.055
-684.295	-102.713	0.098	0.024
-683.281	61.796	-0.285	0.290
-682.266	-98.684	0.386	-0.100
-681.251	14.706	-0.236	-0.189
-680.237	-83.210	-0.303	0.099
-679.222	-172.851	-0.126	0.004
-678.208	-200.000	-0.066	-0.327
-677.193	800.000	0.010	-0.042
-676.178	128.647	0.206	-0.268
-675.164	-49.033	-0.158	-0.077
-674.149	800.000	-0.110	-0.400
-673.135	800.000	0.066	0.232
-672.120	-200.000	0.027	0.389
-671.105	-145.617	-0.090	-0.008
-670.091	20.244	0.130	0.107
-669.076	111.744	-0.096	0.118
-668.062	147.182	0.221	0.303
-667.047	-177.074	-0.370	0.009
-666.032	-77.558	-0.184	0.065
-665.018	-163.631	0.272	0.013
-664.003	-52.239	-0.282	0.133
-662.989	800.000	-0.040	-0.151
-661.974	-108.818	-0.149	0.033
-660.959	-82.160	0.099	0.033
-659.945	153.108	0.183	0.256
-658.930	9.513	0.090	-0.070
-657.916	800.000	-0.041	0.167
-656.901	10.459	-0.127	-0.098
-655.886	327.691	-0.156	0.306
-654.872	800.000	0.039	-0.146
-653.857	34.843	0.033	-0.029
-652.843	135.948	-0.044	0.059
-651.828	180.280	-0.176	-0.264
-650.814	-54.268	-0.358	-0.166
-649.799	-118.722	-0.036	-0.006
-648.784	-82.254	-0.177	-0.059
-647.770	-47.154	0.067	0.033
-646.755	-200.000	-0.000	-0.111
-645.741	37.222	-0.083	-0.075
-644.726	28.145	-0.095	-0.082
-643.711	91.532	-0.036	0.041
-642.697	-200.000	-0.112	-0.000
-641.682	-200.000	-0.014	-0.274
-640.668	312.721	0.097	-0.187
-639.653	-200.000	0.041	0.253
-638.638	166.617	0.055	-0.080
-637.624	-48.535	-0.475	-0.233
-636.609	-123.326	-0.353	0.057
-635.595	-94.475	0.083	-0.023
-634.580	800.000	0.069	-0.220
-633.565	181.445	0.139	-0.209
-632.551	-25.152	-0.445	-0.269
-631.536	800.000	0.072	-0.257
-630.522	-200.000	-0.009	-0.488
-629.507	-108.805	-0.105	-0.023
-628.492	-200.000	0.069	0.355
-627.478	-138.769	-0.278	-0.031
-626.463	-14.745	-0.115	-0.075
-625.449	259.542	-0.056	-0.099
-624.434	-158.147	0.244	0.015
-623.419	413.264	0.084	0.182
-622.405	-7.668	0.195	0.134
-621.390	604.137	0.036	0.092
-620.376	-200.000	-0.005	-0.237
-619.361	-200.000	0.004	-0.069
-618.346	141.551	0.111	-0.149
-617.332	-84.735	0.186	-0.060
-616.317	800.000	-0.050	-0.199
-615.303	136.381	0.120	-0.159
-614.288	284.845	0.139	0.255
-613.273	800.000	-0.065	-0.185
-612.259	629.542	0.013	-0.032
-611.244	-155.442	-0.088	-0.006
-610.230	-100.282	0.337	0.085
-609.215	474.912	-0.050	0.115
-608.201	800.000	0.009	0.031
-607.186	245.620	0.113	-0.194
-606.171	-200.000	0.018	0.081
-605.157	-196.601	0.335	0.002
-604.142	-200.000	-0.019	0.269
-603.128	84.262	0.147	0.164
-602.113	-200.000	0.024	-0.356
-601.098	173.372	0.127	-0.187
-600.084	800.000	0.125	-0.511
-599.069	39.483	-0.008	0.008
-598.055	-151.101	-0.097	0.007
-597.040	50.834	0.335	0.323
-596.025	-200.000	0.006	-0.038
-595.011	106.375	-0.247	-0.298
-593.996	38.667	0.112	-0.102
-592.982	102.797	0.196	-0.234
-591.967	-200.000	-0.008	0.159
-590.952	-44.297	-0.054	0.028
-589.938	800.000	-0.059	-0.199
-588.923	-63.907	-0.227	-0.095
-587.909	-64.021	0.190	-0.079
-586.894	134.603	0.276	-0.364
-585.879	-200.000	0.020	-0.365
-584.865	360.739	-0.192	-0.392
-583.850	-20.732	0.141	-0.088
-582.836	-106.055	-0.094	-0.021
-581.821	451.056	-0.088	-0.198
-580.806	-16.246	0.197	0.127
-579.792	109.385	0.153	0.186
-578.777	800.000	-0.095	0.276
-577.763	-200.000	-0.022	0.135
-576.748	-125.768	0.299	0.046
-575.733	35.811	-0.207	0.185
-574.719	-63.434	-0.035	0.015
-573.704	-200.000	-0.001	0.101
-572.690	-34.136	-0.231	0.129
-571.675	800.000	0.109	-0.387
-570.661	800.000	-0.046	-0.132
-569.646	-200.000	-0.021	0.151
-568.631	-120.814	0.085	0.015
-567.617	-155.744	-0.454	-0.030
-566.602	-33.141	-0.345	0.194
-565.588	-200.000	-0.023	-0.322
-564.573	150.650	0.098	0.136
-563.558	248.585	-0.173	-0.298
-562.544	-7.585	0.125	-0.086
-561.529	-5.930	-0.044	0.031
-560.515	-103.758	-0.067	-0.016
-559.500	409.811	-0.090	0.194
-558.485	69.330	-0.082	-0.086
-557.471	365.863	0.131	0.269
-556.456	-200.000	-0.001	-0.029
-555.442	-101.319	0.069	-0.017
-554.427	-74.292	-0.068	0.025
-553.412	57.128	-0.077	-0.077
-552.398	358.425	0.037	-0.076
-551.383	338.242	0.095	0.187
-550.369	-2.939	-0.137	0.097
-549.354	800.000	-0.098	-0.381
-548.339	-164.458	0.170	-0.008
-547.325	-32.661	0.142	-0.080
-546.310	-171.311	-0.158	0.005
-545.296	-200.000	0.023	-0.240
-544.281	-42.234	-0.201	0.105
-543.266	800.000	-0.108	0.330
-542.252	-54.708	0.152	-0.070
-541.237	-96.775	0.291	-0.078
-540.223	715.010	0.064	-0.173
-539.208	-155.595	0.070	0.005
-538.193	215.832	-0.093	-0.150
-537.179	-200.000	-0.015	0.199
-536.164	28.907	0.097	-0.084
-535.150	-145.013	-0.175	0.016
-534.135	329.735	0.223	-0.435
-533.121	108.881	-0.270	0.328
-532.106	800.000	-0.037	-0.150
-531.091	-130.810	0.236	-0.032
-530.077	-52.349	-0.209	-0.098
-529.062	271.789	-0.076	-0.137
-528.048	-186.792	-0.182	0.003
-527.033	-4.997	0.207	0.145
-526.018	513.975	-0.031	-0.073
-525.004	596.608	-0.070	-0.177
-523.989	-83.852	0.331	0.107
-522.975	609.055	0.123	-0.311
-521.960	-200.000	-0.031	0.170
-520.945	-43.806	-0.260	-0.133
-519.931	-38.254	0.034	0.018
-518.916	591.011	0.045	0.114
-517.902	83.137	-0.111	-0.122
-516.887	-52.141	0.246	-0.116
-515.872	304.718	0.228	-0.430
-514.858	-200.000	0.052	0.323
-513.843	800.000	0.099	0.289
-512.829	-200.000	0.032	-0.166
-511.814	-200.000	0.063	0.297
-510.799	44.357	0.114	-0.106
-509.785	-142.819	-0.036	-0.004
-508.770	122.380	-0.176	0.223
-507.756	-125.098	-0.251	-0.039
-506.741	-90.484	0.173	0.051
-505.726	-200.000	-0.003	0.351
-504.712	235.794	0.137	0.229
-503.697	-4.419	0.082	0.057
-502.683	-200.000	0.021	-0.283
-501.668	800.000	0.026	-0.104
-500.653	7.911	-0.095	0.072
-499.639	115.366	0.129	0.159
-498.624	173.230	0.136	0.199
-497.610	-200.000	0.013	0.316
-496.595	-73.528	-0.360	-0.133
-495.581	66.531	0.095	-0.098
-494.566	-120.175	-0.382	-0.066
-493.551	-63.298	-0.082	-0.034
-492.537	-17.707	0.150	-0.095
-491.522	-56.420	0.131	-0.059
-490.508	259.876	0.202	-0.354
-489.493	623.962	-0.144	-0.367
-488.478	-200.000	-0.040	-0.255
-487.464	-127.717	-0.198	0.029
-486.449	295.957	-0.033	0.062
-485.435	796.908	-0.043	-0.120
-484.420	29.785	0.052	0.045
-483.405	-71.075	-0.059	-0.023
-482.391	-118.958	0.357	-0.064
-481.376	-43.788	-0.221	-0.113
-480.362	-30.872	-0.250	0.143
-479.347	72.530	0.096	-0.101
-478.332	-137.366	-0.055	-0.006
-477.318	98.767	-0.079	0.092
-476.303	-111.311	-0.216	0.045
-475.289	-27.995	0.174	-0.102
-474.274	80.987	0.040	0.044
-473.259	-151.683	-0.224	0.017
-472.245	800.000	-0.058	-0.221
-471.230	-200.000	-0.018	0.279
-470.216	560.252	-0.038	-0.093
-469.201	-119.840	-0.078	0.014
-468.186	638.162	0.106	0.272
-467.172	800.000	0.098	0.291
-466.157	-200.000	0.058	0.279
-465.143	-200.000	-0.002	-0.278
-464.128	157.294	0.089	0.124
-463.113	-11.889	-0.283	-0.188
-462.099	-36.705	-0.268	0.146
-461.084	-181.373	-0.454	-0.009
-460.070	96.523	-0.086	0.099
-459.055	-50.137	-0.340	-0.163
-458.040	-4.912	-0.239	-0.167
-457.026	80.598	0.062	0.067
-456.011	-176.759	0.155	0.004
-454.997	12.066	0.164	-0.127
-453.982	-200.000	-0.023	0.155
-452.968	150.120	0.181	-0.248
-451.953	-23.678	-0.250	0.152
-450.938	647.427	-0.055	0.141
-449.924	217.782	0.177	-0.285
-448.909	-185.026	0.264	0.004
-447.895	-99.588	0.461	-0.117
-446.880	59.780	-0.008	0.008
-445.865	297.323	0.187	-0.347
-444.851	800.000	0.055	0.160
-443.836	157.375	0.060	0.085
-442.822	-78.453	0.209	-0.072
-441.807	397.407	-0.057	-0.122
-440.792	-200.000	0.007	-0.224
-439.778	-65.910	-0.074	-0.030
-438.763	-47.574	0.225	0.111
-437.749	800.000	-0.049	0.215
-436.734	-105.751	-0.197	-0.045
-435.719	800.000	0.019	-0.072
-434.705	-6.002	-0.175	-0.121
-433.690	800.000	-0.078	0.327
-432.676	1.639	0.205	0.150
-431.661	216.876	0.084	-0.136
-430.646	-59.418	0.173	-0.075
-429.632	-113.683	0.151	0.030
-428.617	800.000	0.038	0.141
-427.603	-200.000	-0.029	0.176
-426.588	800.000	0.059	-0.173
-425.573	-108.217	-0.144	0.032
-424.559	-145.857	-0.096	0.009
-423.544	10.558	-0.152	0.117
-422.530	627.433	0.108	0.275
-421.515	-0.171	0.293	0.211
-420.500	-186.070	-0.391	-0.006
-419.486	21.409	-0.052	0.043
-418.471	267.290	-0.142	-0.251
-417.457	-57.787	-0.346	0.153
-416.442	233.629	-0.125	-0.208
-415.428	-25.104	-0.263	-0.157
-414.413	165.723	0.145	0.208
-413.398	800.000	0.053	0.162
-412.384	283.613	0.151	-0.275
-411.369	-39.576	-0.128	0.068
-410.355	53.594	-0.162	-0.158
-409.340	-53.018	0.308	-0.143
-408.325	69.926	-0.321	-0.334
-407.311	23.874	-0.139	0.115
-406.296	-16.852	0.039	0.025
-405.282	-55.221	-0.051	-0.023
-404.267	-95.118	0.268	0.073
-403.252	45.573	0.170	-0.158
-402.238	-132.515	0.100	0.013
-401.223	536.122	0.052	-0.124
-400.209	-200.000	0.028	0.377
-399.194	-200.000	-0.042	-0.295
-398.179	236.394	0.055	0.092
-397.165	-184.487	0.217	0.004
-396.150	65.296	-0.101	0.104
-395.136	800.000	0.075	-0.250
-394.121	-143.930	-0.356	-0.034
-393.106	38.741	0.183	0.165
-392.092	-200.000	-0.035	0.192
-391.077	800.000	0.082	0.236
-390.063	-37.335	0.097	-0.053
-389.048	215.562	0.031	-0.050
-388.033	-200.000	0.019	-0.283
-387.019	-99.647	-0.092	0.023
-386.004	-200.000	-0.000	-0.069
-384.990	-130.254	0.305	0.042
-383.975	111.358	0.147	0.179
-382.960	497.082	-0.137	-0.318
-381.946	-200.000	-0.024	0.158
-380.931	-101.751	-0.172	-0.042
-379.917	800.000	-0.074	-0.225
-378.902	-200.000	0.012	-0.334
-377.888	-200.000	0.027	0.140
-376.873	492.122	-0.075	0.174
-375.858	-200.000	0.012	-0.137
-374.844	-102.409	-0.325	-0.079
-373.829	80.805	0.213	-0.232
-372.815	-53.602	-0.171	0.079
-371.800	-45.848	-0.167	-0.083
-370.785	-114.643	0.298	-0.058
-369.771	-166.558	0.100	-0.004
-368.756	19.305	-0.171	-0.139
-367.742	7.189	0.244	-0.184
-366.727	30.680	-0.035	-0.030
-365.712	352.836	-0.045	0.090
-364.698	-30.738	0.083	0.047
-363.683	-200.000	0.003	0.034
-362.669	-131.975	0.271	0.036
-361.654	78.795	-0.056	0.060
-360.639	-135.134	-0.139	0.017
-359.625	243.899	-0.098	-0.165
-358.610	800.000	0.047	0.184
-357.596	-33.659	-0.214	0.119
-356.581	560.653	-0.060	-0.146
-355.566	-14.101	0.042	-0.027
-354.552	-76.026	0.132	-0.047
-353.537	355.865	-0.117	-0.235
-352.523	101.995	0.183	-0.215
-351.508	-145.267	-0.062	0.006
-350.493	17.772	-0.208	-0.167
-349.479	55.865	-0.246	0.241
-348.464	103.534	-0.195	-0.231
-347.450	35.167	-0.167	0.148
-346.435	55.616	0.286	0.279
-345.420	46.904	-0.204	0.191
-344.406	800.000	-0.062	0.201
-343.391	-81.428	-0.434	0.144
-342.377	30.665	-0.152	0.131
-341.362	-200.000	0.019	0.096
-340.348	243.312	0.117	0.197
-339.333	-200.000	-0.008	-0.132
-338.318	367.404	0.176	-0.359
-337.304	67.021	0.225	0.231
-336.289	-99.100	-0.147	-0.038
-335.275	-132.087	0.410	-0.054
-334.260	24.315	0.313	-0.261
-333.245	364.724	0.134	0.271
-332.231	403.150	0.184	-0.391
-331.216	-76.229	-0.180	-0.064
-330.202	-155.062	-0.207	-0.014
-329.187	1.124	0.212	0.153
-328.172	-176.091	0.087	-0.002
-327.158	-200.000	-0.008	-0.044
-326.143	724.957	-0.002	-0.006
-325.129	-143.681	0.142	0.014
-324.114	141.852	0.144	-0.192
-323.099	-115.501	0.310	0.059
-322.085	81.112	0.053	0.058
-321.070	57.243	-0.285	0.280
-320.056	34.217	0.117	0.102
-319.041	300.728	-0.090	0.168
-318.026	-151.598	-0.289	0.022
-317.012	129.079	-0.151	-0.194
-315.997	800.000	0.075	-0.283
-314.983	-38.720	0.191	0.102
-313.968	800.000	0.035	0.135
-312.953	-43.045	-0.080	0.041
-311.939	-163.575	-0.155	0.007
-310.924	451.034	-0.117	-0.261
-309.910	42.642	0.199	-0.183
-308.895	-44.954	0.389	-0.195
-307.880	-153.484	-0.440	-0.031
-306.866	-200.000	-0.014	0.072
-305.851	-92.569	0.207	-0.059
-304.837	47.330	-0.298	0.279
-303.822	-125.018	-0.277	-0.043
-302.807	158.644	-0.123	-0.172
-301.793	-98.758	0.044	-0.011
-300.778	413.236	-0.122	-0.261
-299.764	-62.946	0.178	-0.074
-298.749	-88.883	0.398	-0.119
-297.735	-200.000	-0.036	0.170
-296.720	-200.000	-0.048	0.340
-295.705	-12.286	-0.022	0.015
-294.691	47.826	0.195	-0.183
-293.676	74.384	-0.019	-0.020
-292.662	5.823	0.082	-0.061
-291.647	-90.693	-0.240	-0.070
-290.632	-200.000	0.024	-0.173
-289.618	36.979	0.146	-0.130
-288.603	-89.973	-0.339	-0.099
-287.589	488.745	-0.125	-0.287
-286.574	729.950	-0.041	-0.111
-285.559	-74.272	0.441	0.160
-284.545	40.570	0.158	0.143
-283.530	800.000	0.027	0.082
-282.516	6.825	0.176	-0.132
-281.501	85.075	0.202	0.223
-280.486	-111.081	0.190	0.039
-279.472	-65.355	-0.196	-0.079
-278.457	132.664	0.057	-0.075
-277.443	-136.929	-0.103	-0.012
-276.428	800.000	0.026	-0.100
-275.413	-116.995	-0.139	0.025
-274.399	104.021	-0.154	0.182
-273.384	206.284	-0.038	-0.060
-272.370	124.747	-0.066	0.083
-271.355	-200.000	0.030	0.152
-270.340	-108.527	0.116	-0.025
-269.326	-200.000	0.018	0.269
-268.311	463.437	0.073	-0.164
-267.297	-105.280	-0.305	-0.070
-266.282	-200.000	-0.015	-0.092
-265.267	-128.891	0.249	0.035
-264.253	409.308	-0.138	0.294
-263.238	-115.923	-0.687	-0.129
-262.224	-86.436	0.321	0.099
-261.209	-89.819	0.039	0.011
-260.195	-67.672	-0.297	0.117
-259.180	339.021	-0.079	-0.155
-258.165	686.325	-0.025	0.065
-257.151	-99.411	0.180	0.045
-256.136	255.348	0.125	-0.216
-255.122	-89.535	-0.380	-0.112
-254.107	-137.134	-0.119	-0.014
-253.092	-200.000	-0.030	0.272
-252.078	-125.738	-0.435	0.066
-251.063	-10.170	0.285	-0.190
-250.049	-200.000	0.017	0.229
-249.034	200.097	-0.190	0.293
-248.019	-200.000	0.061	0.275
-247.005	248.639	0.181	0.308
-245.990	343.516	-0.086	-0.170
-244.976	-120.864	0.302	-0.051
-243.961	-168.898	0.154	-0.006
-242.946	-190.498	0.220	0.002
-241.932	-200.000	-0.016	0.256
-240.917	51.054	-0.169	0.161
-239.903	-160.397	-0.209	0.011
-238.888	24.723	0.181	-0.150
-237.873	-22.556	-0.258	0.157
-236.859	-38.588	-0.250	-0.133
-235.844	135.716	0.195	0.255
-234.830	40.499	0.153	0.138
-233.815	800.000	-0.061	0.171
-232.800	72.345	0.133	0.139
-231.786	169.449	-0.062	-0.088
-230.771	-5.104	-0.288	-0.199
-229.757	25.556	-0.231	0.193
-228.742	-200.000	-0.070	0.396
-227.727	-97.607	0.326	0.085
-226.713	-139.349	0.097	-0.010
-225.698	-42.676	0.330	0.168
-224.684	43.734	-0.096	0.088
-223.669	457.634	-0.134	0.299
-222.655	41.720	0.123	-0.112
-221.640	204.689	-0.056	-0.088
-220.625	-149.955	-0.212	-0.017
-219.611	-45.139	-0.285	-0.142
-218.596	-200.000	-0.024	0.220
-217.582	-85.054	-0.113	0.036
-216.567	-84.379	-0.128	-0.041
-215.552	-114.365	0.045	0.009
-214.538	-64.149	-0.205	0.084
-213.523	272.427	0.047	0.083
-212.509	-27.064	0.146	0.085
-211.494	40.889	-0.087	-0.079
-210.479	95.548	-0.097	-0.110
-209.465	237.531	0.112	0.187
-208.450	-22.620	-0.062	0.037
-207.436	87.877	0.141	0.157
-206.421	-200.000	-0.040	0.377
-205.406	-85.048	-0.038	0.012
-204.392	-155.388	-0.327	0.021
-203.377	87.004	0.057	-0.064
-202.363	12.576	-0.241	0.187
-201.348	-86.519	0.318	0.098
-200.333	-139.719	-0.181	0.019
-199.319	800.000	-0.045	0.192
-198.304	-138.191	0.142	0.016
-197.290	-200.000	0.045	0.283
-196.275	176.101	0.285	0.414
-195.260	-80.793	-0.219	0.073
-194.246	-27.538	-0.123	0.072
-193.231	178.600	-0.202	0.296
-192.217	194.553	-0.105	0.160
-191.202	800.000	0.033	-0.126
-190.187	718.198	0.110	0.294
-189.173	800.000	-0.090	0.251
-188.158	800.000	-0.075	0.228
-187.144	-105.109	0.240	0.055
-186.129	235.886	0.127	0.210
-185.114	20.495	0.339	0.274
-184.100	173.225	0.182	0.263
-183.085	15.957	-0.102	0.081
-182.071	88.775	0.120	-0.134
-181.056	-71.268	-0.229	0.086
-180.042	-200.000	0.007	0.036
-179.027	-56.254	-0.223	0.099
-178.012	657.692	-0.080	0.206
-176.998	-78.891	-0.263	0.090
-175.983	-200.000	0.042	0.185
-174.969	61.803	0.056	-0.056
-173.954	-200.000	0.074	0.417
-172.939	0.046	0.235	-0.168
-171.925	-200.000	-0.000	0.238
-170.910	-28.980	0.091	0.052
-169.896	198.809	0.183	-0.280
-168.881	-8.773	0.076	-0.051
-167.866	23.382	-0.177	0.146
-166.852	800.000	0.084	-0.258
-165.837	51.853	-0.117	-0.112
-164.823	-58.273	0.423	-0.184
-163.808	1.992	0.201	-0.145
-162.793	-200.000	-0.007	-0.075
-161.779	175.233	-0.095	-0.138
-160.764	-0.100	0.337	-0.240
-159.750	-176.783	0.085	-0.002
-158.735	6.978	-0.183	-0.136
-157.720	-96.962	0.191	0.050
-156.706	-200.000	0.000	-0.027
-155.691	-200.000	-0.040	0.211
-154.677	-113.123	0.387	0.076
-153.662	-200.000	-0.022	0.202
-152.647	23.162	0.137	0.112
-151.633	-156.997	0.479	0.029
-150.618	208.806	-0.163	-0.256
-149.604	-83.858	-0.338	0.108
-148.589	294.571	-0.061	0.111
-147.574	-17.403	-0.206	-0.130
-146.560	41.618	0.376	-0.341
-145.545	-7.563	-0.033	-0.022
-144.531	-3.495	-0.109	-0.076
-143.516	-200.000	0.033	0.202
-142.502	-68.580	0.478	-0.185
-141.487	70.441	-0.212	0.219
-140.472	138.260	0.293	-0.385
-139.458	-200.000	-0.059	-0.276
-138.443	-26.393	-0.249	-0.146
-137.429	-200.000	-0.021	0.118
-136.414	394.946	-0.099	0.207
-135.399	-73.473	-0.021	0.008
-134.385	-103.375	0.439	0.103
-133.370	196.370	-0.232	-0.354
-132.356	731.590	0.088	0.236
-131.341	510.438	0.194	-0.452
-130.326	-52.289	0.243	-0.113
-129.312	-121.336	-0.435	0.073
-128.297	299.240	0.197	-0.363
-127.283	-35.196	-0.130	-0.071
-126.268	-105.084	0.378	0.086
-125.253	343.829	-0.083	-0.163
-124.239	-23.415	0.180	-0.108
-123.224	17.833	0.182	-0.145
-122.210	-151.779	-0.267	-0.020
-121.195	-200.000	-0.031	0.209
-120.180	394.575	0.133	-0.277
-119.166	29.106	0.072	-0.061
-118.151	11.700	-0.170	0.130
-117.137	289.520	0.018	-0.032
-116.122	279.568	-0.152	0.272
-115.107	-200.000	-0.023	-0.299
-114.093	571.850	0.106	0.258
-113.078	-149.747	0.118	-0.009
-112.064	156.206	0.174	-0.239
-111.049	-104.645	-0.219	0.051
-110.034	-200.000	-0.042	-0.200
-109.020	-137.914	0.282	-0.031
-108.005	-15.238	0.247	-0.158
-106.991	-131.958	0.039	0.005
-105.976	249.023	0.111	-0.187
-104.962	3.835	-0.196	0.143
-103.947	-70.877	-0.318	0.120
-102.932	-6.237	-0.349	0.238
-101.918	-200.000	0.107	0.472
-100.903	-195.319	0.094	-0.001
-99.889	240.554	-0.218	-0.364
-98.874	-183.703	-0.317	-0.005
-97.859	-58.093	0.162	-0.071
-96.845	-200.000	-0.011	0.191
-95.830	728.327	-0.059	-0.158
-94.816	-190.613	0.327	-0.003
-93.801	-200.000	0.006	-0.298
-92.786	43.712	-0.057	-0.052
-91.772	-200.000	0.007	0.112
-90.757	-84.394	-0.165	0.052
-89.743	800.000	0.060	0.183
-88.728	140.613	-0.096	0.127
-87.713	-200.000	-0.006	-0.273
-86.699	800.000	-0.044	-0.184
-85.684	800.000	0.063	-0.243
-84.670	-11.839	-0.144	0.094
-83.655	21.531	-0.110	-0.089
-82.640	48.366	-0.249	0.232
-81.626	1.801	-0.287	0.207
-80.611	-90.901	-0.124	0.036
-79.597	5.281	-0.145	0.107
-78.582	-33.323	0.356	0.197
-77.567	800.000	-0.069	-0.284
-76.553	157.229	0.220	-0.304
-75.538	779.532	-0.076	-0.207
-74.524	-200.000	0.051	-0.235
-73.509	-152.794	-0.448	0.032
-72.494	-94.733	-0.179	0.049
-71.480	-10.315	-0.145	-0.096
-70.465	-39.849	0.192	0.100
-69.451	697.117	-0.173	0.453
-68.436	-153.441	0.123	-0.009
-67.422	-200.000	-0.000	0.088
-66.407	53.885	0.217	0.208
-65.392	-39.691	0.587	-0.306
-64.378	-35.649	-0.090	0.049
-63.363	-36.921	0.115	-0.062
-62.349	-14.412	-0.189	-0.121
-61.334	-35.060	-0.908	-0.493
-60.319	800.000	0.061	0.249
-59.305	397.174	-0.362	-0.755
-58.290	46.119	0.327	0.302
-57.276	800.000	0.387	1.153
-56.261	-200.000	76.105	508.339
-55.246	522.873	1324.516	3101.712
-54.232	145.908	2556.738	3417.268
-53.217	117.347	2246.213	2753.047
-52.203	51.834	1766.387	1675.640
-51.188	44.413	1564.377	1431.928
-50.173	41.644	1534.500	1385.352
-49.159	57.739	1570.894	1531.171
-48.144	63.646	1590.611	1591.644
-47.130	45.020	1554.255	1426.686
-46.115	41.322	1540.073	1387.926
-45.100	41.180	1536.143	1383.337
-44.086	41.213	1533.753	1381.359
-43.071	41.033	1532.226	1378.682
-42.057	41.031	1530.278	1376.864
-41.042	41.075	1528.585	1375.592
-40.027	40.924	1527.716	1373.709
-39.013	40.966	1526.194	1372.573
-37.998	40.942	1524.907	1371.199
-36.984	41.005	1523.391	1370.216
-35.969	40.984	1522.344	1369.075
-34.954	40.986	1520.873	1367.709
-33.940	40.966	1519.730	1366.489
-32.925	41.065	1517.316	1364.944
-31.911	41.071	1516.062	1363.807
-30.896	41.125	1514.639	1362.838
-29.881	41.092	1513.784	1361.789
-28.867	41.059	1512.561	1360.414
-27.852	41.194	1510.794	1359.691
-26.838	41.087	1509.536	1357.775
-25.823	41.030	1508.086	1356.030
-24.809	41.147	1506.008	1354.902
-23.794	41.114	1504.666	1353.415
-22.779	41.043	1503.664	1351.981
-21.765	41.122	1502.561	1351.471
-20.750	41.103	1501.711	1350.524
-19.736	41.128	1500.176	1349.261
-18.721	41.151	1499.018	1348.317
-17.706	41.052	1498.214	1346.872
-16.692	41.100	1496.813	1345.882
-15.677	41.032	1496.077	1344.707
-14.663	40.990	1494.793	1343.214
-13.648	40.938	1493.931	1342.039
-12.633	40.957	1492.890	1341.180
-11.619	40.985	1492.571	1341.026
-10.604	40.966	1491.631	1340.001
-9.590	40.975	1490.725	1339.197
-8.575	40.958	1489.404	1337.838
-7.560	41.048	1488.620	1337.688
-6.546	40.977	1487.775	1336.397
-5.531	40.955	1486.950	1335.457
-4.517	41.006	1485.637	1334.568
-3.502	40.829	1485.415	1333.129
-2.487	41.001	1483.916	1332.884
-1.473	40.973	1482.975	1331.793
-0.458	41.021	1481.312	1330.573
0.556	41.264	1471.958	1320.821
1.571	38.194	1444.517	1276.072
2.586	34.142	1382.246	1195.560
3.600	32.027	1298.797	1110.781
4.615	30.113	1250.125	1058.149
5.629	25.365	1191.474	982.509
6.644	13.536	1099.114	846.191
7.659	3.691	1052.191	761.639
8.673	2.308	1045.577	750.006
9.688	1.958	1043.058	746.417
10.702	1.835	1041.177	744.406
11.717	1.890	1039.219	743.211
12.731	5.343	1043.932	763.399
13.746	16.167	1059.404	828.045
14.761	24.400	1069.658	876.614
15.775	25.361	1070.244	881.740
16.790	25.555	1069.723	882.183
17.804	25.274	1068.979	880.114
18.819	25.168	1068.002	878.713
19.834	25.233	1067.552	878.586
20.848	25.357	1066.896	878.573
21.863	25.384	1066.765	878.518
22.877	25.273	1066.408	877.606
23.892	25.320	1065.820	877.272
24.907	25.310	1064.564	876.114
25.921	25.257	1064.300	875.559
26.936	25.308	1063.335	874.939
27.950	25.332	1061.716	873.642
28.965	25.257	1061.116	872.706
29.980	25.062	1059.779	870.586
30.994	25.102	1058.343	869.524
32.009	25.378	1057.345	869.962
33.023	25.483	1056.999	870.106
34.038	25.181	1056.428	868.100
35.053	25.157	1055.256	866.943
36.067	25.300	1054.905	867.271
37.082	25.392	1053.798	866.728
38.096	25.276	1053.109	865.523
39.111	25.457	1052.760	866.033
40.126	25.479	1052.090	865.514
41.140	25.501	1050.741	864.432
42.155	25.202	1049.718	862.077
43.169	24.945	1047.857	859.236
44.184	24.952	1046.908	858.419
45.199	24.990	1046.059	857.827
46.213	24.776	1044.946	855.818
47.228	24.965	1044.084	855.936
48.242	24.963	1044.014	855.793
49.257	25.230	1042.657	855.883
50.271	25.180	1041.953	854.990
51.286	25.225	1041.347	854.629
52.301	25.484	1040.666	855.230
53.315	25.443	1040.043	854.444
54.330	25.444	1039.270	853.738
55.344	25.355	1037.943	852.152
56.359	25.277	1037.395	851.255
57.374	25.324	1036.556	850.714
58.388	25.057	1035.932	848.865
59.403	25.089	1035.013	848.186
60.417	25.091	1034.148	847.414
61.432	24.814	1033.993	845.902
62.447	24.895	1033.193	845.555
63.461	25.004	1032.391	845.336
64.476	24.997	1032.027	844.929
65.490	24.915	1031.105	843.715
66.505	24.781	1030.144	842.225
67.520	24.938	1029.198	842.116
68.534	25.027	1028.707	842.057
69.549	24.959	1027.345	840.548
70.563	24.692	1025.999	838.121
71.578	24.440	1025.659	836.589
72.593	24.492	1025.244	836.420
73.607	24.349	1023.120	833.945
74.622	24.320	1022.689	833.384
75.636	24.749	1021.908	834.675
76.651	24.952	1021.221	834.987
77.666	24.818	1020.564	833.749
78.680	24.728	1019.339	832.259
79.695	24.676	1018.916	831.596
80.709	24.711	1018.490	831.338
81.724	24.910	1017.846	831.665
82.739	24.878	1016.852	830.631
83.753	24.952	1015.634	829.904
84.768	25.158	1015.666	830.812
85.782	25.493	1015.287	831.978
86.797	25.585	1014.689	831.842
87.812	25.727	1013.282	831.268
88.826	25.462	1012.441	829.282
89.841	25.432	1012.097	828.790
90.855	25.514	1010.799	828.031
91.870	25.554	1010.496	827.892
92.884	25.415	1009.593	826.440
93.899	25.422	1008.354	825.388
94.914	25.275	1007.602	824.024
95.928	25.413	1006.864	823.982
96.943	25.494	1006.200	823.733
97.957	25.065	1004.828	820.575
98.972	24.976	1003.795	819.250
99.987	24.863	1002.653	817.729
101.001	24.862	1002.146	817.239
102.016	25.234	1001.845	818.618
103.030	25.128	1001.231	817.563
104.045	25.163	1000.003	816.646
105.060	25.138	999.076	815.704
106.074	24.889	997.823	813.475
107.089	24.912	996.873	812.734
108.103	25.097	997.297	813.848
109.118	25.216	995.794	813.089
110.133	24.999	994.400	810.898
111.147	24.961	993.676	810.063
112.162	24.982	992.625	809.229
113.176	24.629	991.256	806.449
114.191	24.800	990.846	806.818
115.206	24.924	990.419	806.954
116.220	24.607	989.422	804.643
117.235	24.344	988.446	802.595
118.249	24.586	987.928	803.193
119.264	24.681	986.736	802.580
120.279	24.583	985.892	801.384
121.293	24.498	985.332	800.475
122.308	24.687	984.768	800.794
123.322	24.624	983.921	799.753
124.337	24.570	982.806	798.532
125.352	24.366	981.598	796.571
126.366	24.214	979.772	794.338
127.381	23.895	978.265	791.630
128.395	24.397	978.413	793.913
129.410	24.887	978.541	796.127
130.424	25.034	977.735	796.052
131.439	25.268	976.637	796.125
132.454	25.132	975.438	794.476
133.468	25.205	974.705	794.132
134.483	25.084	973.543	792.579
135.497	25.148	973.404	792.680
136.512	25.436	972.871	793.449
137.527	25.420	972.034	792.625
138.541	25.565	971.151	792.474
139.556	25.509	970.598	791.703
140.570	25.409	970.059	790.757
141.585	25.569	968.904	790.445
142.600	25.650	968.182	790.144
143.614	25.517	967.566	788.988
144.629	25.587	966.631	788.461
145.643	25.719	966.379	788.767
146.658	25.645	965.118	787.344
147.673	25.502	963.902	785.658
148.687	25.296	962.654	783.672
149.702	25.243	962.064	782.887
150.716	25.207	960.719	781.570
151.731	25.159	959.425	780.240
152.746	25.241	959.166	780.315
153.760	25.436	958.622	780.649
154.775	25.606	957.819	780.666
155.789	25.549	957.047	779.718
156.804	25.445	956.392	778.665
157.819	25.418	955.241	777.546
158.833	25.429	954.292	776.748
159.848	25.601	953.872	777.085
160.862	25.635	953.100	776.533
161.877	25.689	951.936	775.746
162.892	25.481	950.869	773.915
163.906	25.591	950.060	773.660
164.921	25.528	949.567	772.920
165.935	25.437	948.417	771.524
166.950	25.572	947.714	771.463
167.964	25.594	946.147	770.213
168.979	25.739	945.051	769.874
169.994	25.516	944.028	768.019
171.008	25.309	943.517	766.653
172.023	25.429	943.105	766.760
173.037	25.636	941.856	766.561
174.052	25.485	940.632	764.853
175.067	25.304	939.997	763.498
176.081	25.254	938.996	762.407
177.096	25.337	938.655	762.414
178.110	25.425	937.859	762.073
179.125	25.122	936.660	759.749
180.140	24.961	935.793	758.296
181.154	24.864	934.850	757.054
182.169	24.916	934.693	757.083
183.183	25.155	934.346	757.745
184.198	25.422	934.357	758.814
185.213	25.463	933.113	757.908
186.227	25.362	932.555	756.964
187.242	25.470	932.000	756.902
188.256	25.633	931.192	756.864
189.271	25.505	930.727	755.880
190.286	25.643	930.080	755.867
191.300	25.555	928.995	754.547
192.315	24.871	927.466	750.373
193.329	24.087	925.611	745.526
194.344	23.566	925.147	742.907
195.359	24.334	924.986	745.925
196.373	25.314	925.256	750.171
197.388	25.448	925.427	750.805
198.402	25.412	924.616	749.930
199.417	25.323	924.077	749.055
200.432	25.361	923.665	748.813
201.446	25.274	922.895	747.761
202.461	25.151	922.156	746.583
203.475	25.171	921.358	745.953
204.490	24.735	920.233	743.167
205.504	23.435	918.331	736.169
206.519	23.819	917.965	737.403
207.534	24.810	918.252	741.680
208.548	24.926	917.808	741.735
209.563	25.269	917.873	743.143
210.577	25.352	917.315	742.971
211.592	24.990	916.440	740.701
212.607	25.352	916.352	742.057
213.621	25.631	915.485	742.445
214.636	25.610	914.475	741.470
215.650	25.635	914.192	741.277
216.665	25.507	913.687	740.276
217.680	25.561	913.475	740.260
218.694	25.703	912.563	740.042
219.709	25.382	911.734	737.985
220.723	25.088	911.232	736.304
221.738	25.204	910.837	736.397
222.753	25.477	910.203	736.940
223.767	25.353	909.227	735.577
224.782	25.446	908.723	735.482
225.796	25.569	908.363	735.629
226.811	25.829	907.469	735.903
227.826	25.403	906.310	733.162
228.840	24.465	905.158	728.339
229.855	24.505	904.550	727.947
230.869	24.618	904.241	728.096
231.884	24.368	903.252	726.215
232.899	24.327	902.551	725.421
233.913	25.075	902.715	728.533
234.928	25.416	902.170	729.414
235.942	25.253	901.372	728.042
236.957	25.157	901.143	727.402
237.972	25.032	900.180	726.054
238.986	24.903	899.167	724.652
240.001	25.101	898.549	724.891
241.015	25.003	898.069	724.041
242.030	25.104	897.537	723.958
243.045	25.115	897.517	723.922
244.059	25.335	896.827	724.187
245.074	25.395	896.505	724.106
246.088	25.479	895.274	723.387
247.103	25.243	894.010	721.352
248.117	25.090	894.163	720.796
249.132	25.513	894.184	722.450
250.147	26.070	893.511	724.080
251.161	26.163	893.131	724.078
252.176	26.140	893.033	723.844
253.190	26.351	892.259	723.998
254.205	26.299	891.719	723.289
255.220	26.449	891.184	723.388
256.234	26.622	890.300	723.298
257.249	26.315	889.956	721.727
258.263	26.275	889.423	721.073
259.278	26.084	888.972	719.882
260.293	26.283	888.372	720.126
261.307	26.335	887.921	719.904
262.322	26.273	886.949	718.804
263.336	26.138	886.395	717.755
264.351	25.782	885.070	715.207
265.366	24.743	883.033	709.378
266.380	24.178	882.477	706.629
267.395	24.971	882.506	709.731
268.409	25.790	882.861	713.199
269.424	25.844	881.974	712.634
270.439	25.911	881.450	712.414
271.453	26.219	880.732	712.984
272.468	25.893	880.826	711.712
273.482	26.144	879.977	711.951
274.497	26.391	879.429	712.420
275.512	26.126	878.510	710.566
276.526	25.564	877.731	707.665
277.541	25.782	876.972	707.847
278.555	26.125	876.782	708.976
279.570	25.910	875.982	707.424
280.585	25.910	875.119	706.665
281.599	25.834	874.968	706.182
282.614	26.015	874.340	706.322
283.628	25.529	873.398	703.596
284.643	25.081	872.785	701.290
285.657	25.516	872.345	702.574
286.672	25.635	871.302	702.135
287.687	24.906	871.003	698.989
288.701	25.341	870.469	700.192
289.716	25.756	870.231	701.559
290.730	25.421	869.101	699.282
291.745	25.349	868.771	698.673
292.760	25.286	867.486	697.335
293.774	25.115	867.234	696.406
294.789	25.899	868.059	700.054
295.803	26.666	868.127	703.023
296.818	26.565	867.921	702.404
297.833	26.630	867.041	701.879
298.847	26.426	866.044	700.221
299.862	26.097	864.849	697.923
300.876	26.200	864.575	698.037
301.891	26.504	864.203	698.849
302.906	26.605	863.535	698.637
303.920	26.271	862.387	696.359
304.935	26.218	861.573	695.435
305.949	26.510	861.396	696.357
306.964	26.677	860.936	696.565
307.979	26.466	860.220	695.114
308.993	26.223	860.125	694.041
310.008	26.789	859.638	695.759
311.022	26.763	859.311	695.332
312.037	26.661	858.845	694.503
313.052	26.372	858.146	692.769
314.066	26.260	857.433	691.705
315.081	25.535	855.815	687.566
316.095	24.906	854.540	684.077
317.110	25.226	854.587	685.276
318.125	26.229	854.862	689.268
319.139	25.876	854.099	687.246
320.154	24.661	852.384	681.176
321.168	24.165	851.077	678.186
322.183	24.872	851.178	680.896
323.197	25.672	852.230	684.723
324.212	26.225	851.438	686.127
325.227	26.205	851.165	685.771
326.241	26.460	850.840	686.416
327.256	26.402	849.817	685.308
328.270	26.185	849.494	684.166
329.285	26.093	848.603	683.040
330.300	25.912	848.075	681.870
331.314	25.724	847.158	680.361
332.329	25.714	846.774	679.955
333.343	26.165	846.521	681.395
334.358	26.448	846.486	682.372
335.373	26.546	845.600	681.970
336.387	26.551	844.633	681.147
337.402	26.723	844.741	681.823
338.416	26.906	844.278	682.074
339.431	26.845	843.975	681.541
340.446	26.850	843.372	681.013
341.460	27.158	842.778	681.629
342.475	27.138	842.182	681.010
343.489	26.866	841.348	679.256
344.504	26.825	841.104	678.846
345.519	27.071	840.438	679.171
346.533	27.363	840.098	679.925
347.548	27.294	840.015	679.539
348.562	27.477	839.284	679.572
349.577	27.308	838.848	678.529
350.592	27.204	838.375	677.700
351.606	27.177	837.798	677.072
352.621	27.051	837.223	676.077
353.635	27.130	836.792	675.965
354.650	27.017	836.186	674.996
355.665	26.748	835.191	673.133
356.679	25.724	833.441	667.867
357.694	25.409	833.333	666.551
358.708	26.175	832.873	668.963
359.723	26.149	832.476	668.488
360.738	26.379	832.190	669.051
361.752	26.799	832.352	670.677
362.767	26.884	832.027	670.671
363.781	27.374	831.488	671.985
364.796	27.359	831.757	672.086
365.810	27.708	831.281	672.931
366.825	27.697	830.678	672.345
367.840	27.745	830.282	672.139
368.854	27.537	829.542	670.716
369.869	27.131	828.802	668.564
370.883	26.920	828.013	667.094
371.898	26.927	827.602	666.730
372.913	27.007	826.820	666.335
373.927	27.066	825.946	665.787
374.942	27.093	826.072	665.930
375.956	27.286	825.177	665.855
376.971	27.400	824.730	665.853
377.986	27.521	824.113	665.737
379.000	27.619	823.592	665.613
380.015	27.589	823.648	665.492
381.029	27.579	822.291	664.300
382.044	27.402	822.093	663.437
383.059	27.385	821.952	663.203
384.073	27.705	821.021	663.557
385.088	27.524	820.784	662.647
386.102	27.674	820.216	662.675
387.117	27.311	819.453	660.681
388.132	27.187	818.939	659.762
389.146	27.207	818.236	659.208
390.161	26.642	817.010	656.115
391.175	26.598	816.777	655.712
392.190	27.092	817.020	657.638
393.205	27.188	816.474	657.486
394.219	26.347	814.393	652.718
395.234	24.731	812.344	645.191
396.248	23.754	811.210	640.713
397.263	24.874	811.934	645.268
398.278	26.641	813.476	652.812
399.292	27.192	813.612	654.849
400.307	26.829	812.882	652.897
401.321	26.845	812.099	652.267
402.336	26.871	811.894	652.138
403.350	27.200	811.914	653.280
404.365	27.574	811.977	654.617
405.380	27.811	811.810	655.272
406.394	28.062	811.734	656.055
407.409	28.248	811.347	656.352
408.423	28.215	810.854	655.777
409.438	28.025	809.950	654.308
410.453	28.314	809.329	654.782
411.467	28.205	809.445	654.427
412.482	28.244	808.789	653.980
413.496	28.207	807.779	652.972
414.511	28.264	807.831	653.158
415.526	28.259	807.611	652.904
416.540	28.206	807.028	652.189
417.555	28.238	806.230	651.599
418.569	28.019	805.714	650.346
419.584	27.837	805.148	649.184
420.599	27.939	804.922	649.307
421.613	94.285	1260.560	1369.183
422.628	80.877	1326.957	1369.315
