DTS Sentinel unit serial number:	SN413079Multiplexer serial number:	ORYXHardware model number:	OX4-SRSoftware version number:	ORYX F/W v4.00 Oryx Data Collector v3.7.2.0data status	okinstallation	princeton_trtdifferential loss correction	single-endedforward channel	channel 3reverse channel	N/Adate	2019/09/12time	19:44:04forward acquisition time	15.00reverse acquisition time	0.00gamma	496.2192k internal	0.2322k external	0.2322temperature offset calibration	1.0113default loss term (dB/km)	0.3790temperature slope calibration	1.0000multiplexer offset coefficient	1.0000multiplexer slope coefficient	1.0000fibre end	0.00T internal ref (°C)	32.00T ext. ref 1 (°C)	3.40T ext. ref 2 (°C)	26.54length (m)	temperature (°C)	Stokes	anti-Stokes-747.200	-69.436	-0.657	0.255
-746.185	-200.000	0.069	-0.412
-745.171	663.907	-0.083	-0.217
-744.156	54.990	-0.066	0.065
-743.142	-82.779	0.515	0.168
-742.127	-101.501	0.810	-0.199
-741.112	800.000	-0.291	-1.122
-740.098	-200.000	-0.009	0.233
-739.083	-94.230	0.846	0.234
-738.069	-136.690	0.299	-0.035
-737.054	-144.802	0.607	0.056
-736.039	250.139	-0.165	0.282
-735.025	-200.000	-0.078	0.453
-734.010	-75.115	0.279	-0.101
-732.996	-5.946	0.986	-0.681
-731.981	163.913	0.280	0.398
-730.966	-17.599	-0.559	-0.355
-729.952	-48.916	0.177	-0.086
-728.937	-200.000	0.042	-0.343
-727.923	-100.797	0.615	-0.153
-726.908	-26.565	-0.398	-0.235
-725.894	25.185	-1.619	-1.357
-724.879	-64.736	0.245	0.100
-723.864	8.388	0.351	-0.266
-722.850	291.915	0.183	-0.336
-721.835	-132.477	-0.628	0.082
-720.821	-200.000	-0.152	-0.776
-719.806	-200.000	0.021	-0.211
-718.791	114.983	0.026	-0.032
-717.777	161.027	0.347	-0.489
-716.762	-125.114	-0.616	0.095
-715.748	-83.549	-1.213	0.392
-714.733	-81.451	-0.229	-0.076
-713.718	-2.015	0.815	-0.578
-712.704	-74.566	-1.005	-0.365
-711.689	350.034	-0.149	-0.297
-710.675	-90.942	0.582	0.169
-709.660	-78.837	-0.371	-0.128
-708.645	44.330	0.466	0.432
-707.631	728.193	-0.250	-0.674
-706.616	170.300	-0.180	0.260
-705.602	-120.094	-0.396	0.068
-704.587	549.178	-0.153	0.369
-703.572	-9.989	-0.361	0.242
-702.558	7.779	-0.211	0.159
-701.543	-74.863	-0.826	0.299
-700.529	486.644	-0.033	0.076
-699.514	-200.000	-0.024	-0.136
-698.499	-27.150	-0.674	0.396
-697.485	74.662	-0.634	0.673
-696.470	-150.265	-0.441	0.034
-695.456	-104.023	-0.149	0.035
-694.441	157.676	0.254	0.355
-693.426	-200.000	-0.139	-0.722
-692.412	89.026	-0.205	0.230
-691.397	6.068	-0.730	0.545
-690.383	-193.913	0.787	0.007
-689.368	92.893	-0.757	-0.862
-688.354	28.579	-0.479	-0.409
-687.339	139.634	0.324	0.430
-686.324	114.907	-0.420	0.516
-685.310	-200.000	-0.021	-0.367
-684.295	-153.540	-0.418	0.029
-683.281	-200.000	-0.039	0.207
-682.266	-58.360	-0.059	0.026
-681.251	800.000	-0.050	0.161
-680.237	366.136	0.398	-0.808
-679.222	88.573	0.365	0.409
-678.208	-200.000	-0.007	-0.452
-677.193	213.742	0.288	-0.458
-676.178	-200.000	0.005	-0.123
-675.164	800.000	0.210	-0.833
-674.149	800.000	-0.075	-0.246
-673.135	-69.447	0.414	0.160
-672.120	-77.886	0.452	0.157
-671.105	503.614	-0.210	0.489
-670.091	-31.436	-0.413	0.234
-669.076	407.741	-0.056	0.120
-668.062	278.998	0.501	-0.900
-667.047	-155.526	-0.577	0.037
-666.032	-15.938	0.345	-0.221
-665.018	85.819	-0.371	0.411
-664.003	146.066	-0.294	0.397
-662.989	-151.098	0.525	-0.040
-661.974	-142.464	-0.221	-0.022
-660.959	-167.566	-0.529	0.021
-659.945	-101.391	-0.907	0.223
-658.930	-200.000	-0.033	0.550
-657.916	19.553	0.558	-0.452
-656.901	-142.370	0.120	0.012
-655.886	-200.000	-0.118	0.624
-654.872	110.149	0.372	0.449
-653.857	205.325	0.149	-0.233
-652.843	30.582	-0.208	0.179
-651.828	-30.911	-0.401	0.228
-650.814	256.537	-0.297	0.514
-649.799	-200.000	0.066	-0.359
-648.784	101.959	0.242	-0.284
-647.770	754.313	-0.176	0.480
-646.755	34.368	0.434	0.381
-645.741	-157.925	0.233	-0.014
-644.726	261.845	-0.260	0.453
-643.711	-135.158	0.346	0.042
-642.697	800.000	-0.112	0.388
-641.682	-60.278	-0.316	-0.136
-640.668	209.171	0.163	-0.257
-639.653	550.504	-0.188	-0.454
-638.638	-163.980	0.514	-0.024
-637.624	-6.790	-0.152	0.104
-636.609	-154.535	-0.687	0.046
-635.595	124.363	0.464	-0.587
-634.580	18.191	0.342	0.275
-633.565	-200.000	-0.064	-0.412
-632.551	-14.110	-0.545	0.354
-631.536	-200.000	-0.346	-0.000
-630.522	-28.779	-0.222	-0.129
-629.507	-84.099	-0.306	0.098
-628.492	-46.816	0.540	0.266
-627.478	-65.390	0.257	-0.104
-626.463	305.793	-0.364	0.680
-625.449	-13.434	-0.209	0.136
-624.434	-52.243	0.747	-0.348
-623.419	-118.113	-0.159	0.029
-622.405	-200.000	-0.035	0.351
-621.390	-99.299	-0.436	0.111
-620.376	-96.011	0.217	0.058
-619.361	800.000	0.134	0.424
-618.346	-63.253	0.422	0.175
-617.332	15.688	-0.510	0.403
-616.317	37.539	0.268	-0.239
-615.303	800.000	-0.246	0.914
-614.288	-131.471	0.470	0.062
-613.273	800.000	0.166	-0.525
-612.259	800.000	0.185	-0.517
-611.244	2.583	-0.332	0.242
-610.230	535.196	-0.363	0.865
-609.215	-122.656	0.885	0.144
-608.201	-95.352	-0.434	0.117
-607.186	-144.476	-0.221	-0.021
-606.171	72.356	-0.256	0.268
-605.157	-138.608	-0.454	0.050
-604.142	-28.597	-0.270	-0.156
-603.128	-200.000	0.006	-0.641
-602.113	-200.000	0.053	-0.542
-601.098	62.512	0.348	-0.349
-600.084	-119.367	-1.060	0.185
-599.069	6.120	-0.364	0.271
-598.055	91.871	-0.060	-0.068
-597.040	-44.928	-0.656	0.328
-596.025	-137.135	-0.377	0.043
-595.011	-200.000	0.038	0.519
-593.996	86.684	0.088	0.098
-592.982	-200.000	-0.060	0.585
-591.967	-200.000	-0.010	0.446
-590.952	553.184	0.174	0.420
-589.938	-142.301	0.537	-0.053
-588.923	800.000	0.049	0.184
-587.909	-143.376	0.929	-0.089
-586.894	-142.413	0.650	0.064
-585.879	281.181	-0.152	-0.273
-584.865	-160.038	0.780	-0.043
-583.850	800.000	-0.373	-1.115
-582.836	-171.307	-0.270	0.009
-581.821	83.565	-0.287	-0.314
-580.806	-95.387	-0.343	0.093
-579.792	350.760	0.227	-0.451
-578.777	-109.358	-0.186	0.040
-577.763	301.559	-0.232	-0.431
-576.748	-142.686	0.548	0.054
-575.733	-39.289	0.709	-0.374
-574.719	139.300	-0.414	-0.547
-573.704	406.626	-0.162	-0.342
-572.690	50.387	0.492	0.467
-571.675	-75.428	-0.941	-0.336
-570.661	-138.834	-0.284	-0.031
-569.646	-59.537	-0.505	-0.218
-568.631	-122.628	-0.155	0.025
-567.617	-200.000	-0.090	-0.528
-566.602	123.223	0.486	0.610
-565.588	800.000	-0.287	-0.984
-564.573	103.458	0.187	-0.220
-563.558	51.538	-0.191	-0.182
-562.544	-128.557	-1.056	0.150
-561.529	618.556	-0.216	-0.545
-560.515	800.000	-0.141	-0.481
-559.500	97.877	0.516	-0.595
-558.485	800.000	0.092	-0.375
-557.471	-60.597	-0.426	0.181
-556.456	153.281	-0.554	0.761
-555.442	-200.000	-0.036	-0.267
-554.427	301.975	0.270	-0.501
-553.412	-176.943	0.104	0.003
-552.398	-73.620	0.390	0.142
-551.383	61.911	0.207	-0.206
-550.369	68.159	-0.679	-0.697
-549.354	749.356	-0.195	-0.527
-548.339	-200.000	0.126	0.572
-547.325	-27.115	0.476	-0.278
-546.310	-25.451	0.797	-0.472
-545.296	342.045	-0.092	0.181
-544.281	330.890	-0.398	0.768
-543.266	53.927	0.371	0.358
-542.252	135.696	0.194	0.253
-541.237	800.000	0.147	0.498
-540.223	-84.714	-0.266	0.084
-539.208	377.806	-0.471	0.964
-538.193	-55.344	0.135	0.061
-537.179	800.000	0.180	0.624
-536.164	-123.956	0.415	0.066
-535.150	40.958	-0.352	0.318
-534.135	99.703	-0.231	-0.269
-533.121	-90.297	0.384	-0.112
-532.106	-200.000	-0.040	-0.742
-531.091	-34.924	-0.623	-0.341
-530.077	-133.072	0.085	0.011
-529.062	682.979	-0.132	-0.344
-528.048	89.755	0.383	-0.429
-527.033	-171.749	0.427	-0.014
-526.018	-85.706	0.635	-0.198
-525.004	800.000	-0.039	0.121
-523.989	37.512	-0.239	-0.213
-522.975	-200.000	-0.023	0.144
-521.960	-27.464	0.369	-0.215
-520.945	-200.000	0.099	-0.519
-519.931	-68.974	0.215	0.083
-518.916	-123.826	0.058	0.009
-517.902	-145.014	-0.315	-0.029
-516.887	15.128	0.461	-0.362
-515.872	-200.000	-0.068	0.732
-514.858	100.782	-0.466	0.542
-513.843	382.884	-0.257	-0.530
-512.829	402.909	-0.066	0.138
-511.814	-85.097	0.439	-0.138
-510.799	-70.188	-0.119	-0.045
-509.785	-2.265	0.712	0.500
-508.770	-200.000	0.054	-0.607
-507.756	-65.836	0.586	0.235
-506.741	286.233	-0.500	0.903
-505.726	800.000	-0.228	0.655
-504.712	800.000	0.148	0.423
-503.697	-200.000	0.031	0.145
-502.683	15.907	-0.330	0.260
-501.668	14.349	1.066	0.832
-500.653	800.000	0.153	-0.440
-499.639	-200.000	-0.027	0.330
-498.624	-126.635	-0.300	-0.044
-497.610	-200.000	0.009	-0.063
-496.595	97.631	-0.169	-0.194
-495.581	143.251	-0.197	-0.262
-494.566	131.650	0.226	0.291
-493.551	800.000	-0.063	-0.243
-492.537	-200.000	-0.047	0.209
-491.522	58.402	-0.178	-0.175
-490.508	324.838	0.130	-0.249
-489.493	51.618	-0.332	0.315
-488.478	311.061	0.447	-0.838
-487.464	364.660	-0.152	-0.306
-486.449	150.602	-0.206	0.280
-485.435	-200.000	-0.034	-0.238
-484.420	-127.453	0.322	-0.047
-483.405	468.479	0.187	-0.419
-482.391	-182.212	-0.847	-0.016
-481.376	329.750	0.456	-0.878
-480.362	-72.737	0.741	-0.273
-479.347	-200.000	-0.054	0.295
-478.332	27.823	0.648	0.546
-477.318	800.000	-0.266	-0.842
-476.303	-114.721	-0.510	-0.097
-475.289	23.714	-0.168	0.138
-474.274	30.770	0.094	0.080
-473.259	143.893	0.273	-0.364
-472.245	116.972	0.683	-0.839
-471.230	-163.030	0.457	0.022
-470.216	-200.000	0.004	-0.084
-469.201	-37.187	1.028	-0.550
-468.186	169.202	0.303	-0.432
-467.172	173.312	-0.263	-0.379
-466.157	114.134	0.361	-0.438
-465.143	17.873	0.034	-0.027
-464.128	-124.042	-0.899	0.141
-463.113	800.000	-0.162	-0.708
-462.099	-200.000	0.028	0.125
-461.084	282.091	-0.553	0.991
-460.070	800.000	-0.108	-0.345
-459.055	19.787	-0.334	-0.269
-458.040	800.000	-0.177	0.738
-457.026	328.703	0.143	-0.275
-456.011	-200.000	0.042	0.220
-454.997	-200.000	0.011	0.211
-453.982	378.552	0.047	-0.096
-452.968	744.923	0.153	-0.411
-451.953	187.180	0.581	-0.866
-450.938	-102.700	-0.977	-0.233
-449.924	-172.505	0.386	0.012
-448.909	-200.000	0.020	-0.118
-447.895	-38.662	-0.360	-0.190
-446.880	212.286	-0.177	-0.279
-445.865	40.008	0.019	0.017
-444.851	13.037	-0.499	0.385
-443.836	90.854	0.201	-0.225
-442.822	-31.327	-0.328	0.184
-441.807	-69.693	0.547	0.209
-440.792	257.713	-0.530	-0.911
-439.778	-174.147	-0.865	-0.025
-438.763	-200.000	0.004	0.701
-437.749	-3.691	-1.120	0.777
-436.734	-35.064	-0.495	0.269
-435.719	-200.000	-0.074	0.955
-434.705	-11.867	0.068	-0.045
-433.690	725.102	0.092	0.246
-432.676	-114.555	-0.427	0.082
-431.661	-200.000	-0.121	0.717
-430.646	15.617	0.472	-0.370
-429.632	-45.997	0.389	0.192
-428.617	298.869	0.298	0.547
-427.603	80.444	0.501	0.538
-426.588	180.256	0.551	0.806
-425.573	-135.820	-0.068	0.008
-424.559	62.475	0.479	-0.478
-423.544	215.257	0.283	-0.447
-422.530	-110.249	0.326	-0.068
-421.515	-200.000	-0.139	0.736
-420.500	228.136	-0.160	0.260
-419.486	238.531	0.307	0.508
-418.471	242.054	-0.521	-0.869
-417.457	-54.413	-0.250	0.113
-416.442	66.372	-0.126	0.128
-415.428	28.428	-0.732	-0.617
-414.413	7.658	0.458	-0.342
-413.398	-72.023	-0.732	-0.271
-412.384	269.408	-0.460	-0.806
-411.369	333.699	0.265	-0.512
-410.355	-200.000	0.016	-0.413
-409.340	246.776	-0.436	-0.733
-408.325	-50.659	0.568	0.267
-407.311	146.424	0.685	-0.917
-406.296	-91.072	-0.841	0.241
-405.282	800.000	-0.063	0.269
-404.267	-113.061	0.362	0.071
-403.252	178.243	-0.317	0.461
-402.238	-200.000	0.030	0.861
-401.223	31.937	-0.108	-0.093
-400.209	76.624	0.762	-0.805
-399.194	-62.559	0.477	0.197
-398.179	-111.886	0.453	-0.091
-397.165	-200.000	-0.015	0.570
-396.150	-200.000	0.069	0.634
-395.136	-21.424	0.358	-0.218
-394.121	61.311	-0.659	0.652
-393.106	-200.000	-0.065	-0.339
-392.092	208.099	0.304	0.474
-391.077	-200.000	-0.040	-0.363
-390.063	-126.575	-0.134	-0.020
-389.048	-59.442	-0.814	0.348
-388.033	-181.928	-0.414	-0.008
-387.019	23.387	-0.457	0.374
-386.004	182.384	-0.588	-0.864
-384.990	94.287	-0.400	-0.453
-383.975	-130.568	-0.419	0.056
-382.960	-95.612	0.898	-0.239
-381.946	686.279	-0.186	0.483
-380.931	-200.000	-0.010	0.175
-379.917	-119.279	0.727	0.126
-378.902	-123.527	0.518	0.082
-377.888	-200.000	0.068	-0.344
-376.873	412.501	-0.194	-0.410
-375.858	61.837	0.085	0.085
-374.844	-111.903	0.183	-0.037
-373.829	343.268	-0.303	0.591
-372.815	-9.232	0.417	-0.277
-371.800	177.629	-0.182	-0.264
-370.785	-84.182	-0.493	0.156
-369.771	-38.385	0.455	0.240
-368.756	-35.242	0.381	-0.207
-367.742	501.356	0.123	0.282
-366.727	216.499	0.190	0.300
-365.712	268.392	-0.441	0.769
-364.698	-31.632	-1.102	0.616
-363.683	260.798	-0.580	0.998
-362.669	21.261	0.538	0.435
-361.654	-14.274	-0.325	-0.208
-360.639	-200.000	0.074	0.999
-359.625	-87.477	0.648	0.195
-358.610	174.480	0.266	0.383
-357.596	-12.808	-0.216	0.140
-356.581	-200.000	0.048	0.245
-355.566	-32.059	1.243	0.692
-354.552	30.233	-0.289	0.246
-353.537	56.243	0.333	-0.322
-352.523	160.809	0.072	-0.101
-351.508	14.946	-0.561	0.437
-350.493	-140.514	0.378	-0.039
-349.479	76.534	-0.212	0.224
-348.464	-3.534	-0.453	0.314
-347.450	-117.476	-0.208	-0.037
-346.435	-200.000	0.085	-0.497
-345.420	66.038	-0.609	-0.614
-344.406	13.532	0.550	0.424
-343.391	-183.840	-1.293	0.022
-342.377	800.000	0.197	0.553
-341.362	41.741	0.440	-0.397
-340.348	-29.595	0.602	-0.342
-339.333	-42.360	-0.561	0.285
-338.318	-126.362	0.659	-0.098
-337.304	800.000	-0.045	0.143
-336.289	-38.126	-0.720	-0.380
-335.275	1.220	-0.558	-0.398
-334.260	-53.912	-1.072	-0.486
-333.245	79.407	-0.157	-0.167
-332.231	-18.939	-0.546	-0.338
-331.216	-148.496	0.098	-0.008
-330.202	136.612	0.447	0.579
-329.187	-200.000	0.054	-0.782
-328.172	21.118	-0.127	-0.103
-327.158	800.000	-0.121	0.406
-326.143	701.992	-0.133	-0.349
-325.129	-200.000	-0.479	-0.002
-324.114	-111.508	0.967	0.196
-323.099	229.725	0.674	-1.094
-322.085	21.428	0.615	0.497
-321.070	181.278	-0.409	-0.598
-320.056	800.000	-0.071	0.245
-319.041	-200.000	-0.083	-0.506
-318.026	-155.933	0.756	0.048
-317.012	34.421	-0.197	0.171
-315.997	-53.829	0.538	0.244
-314.983	-8.654	0.263	0.175
-313.968	-36.036	0.598	-0.321
-312.953	800.000	0.109	0.325
-311.939	-200.000	0.039	0.590
-310.924	-200.000	-0.014	-0.548
-309.910	-200.000	0.051	-0.320
-308.895	-200.000	-0.056	0.969
-307.880	40.049	0.722	0.644
-306.866	18.475	-0.244	0.194
-305.851	-82.968	-0.386	0.124
-304.837	-16.362	0.137	0.086
-303.822	68.451	-0.424	0.432
-302.807	570.232	-0.295	-0.714
-301.793	225.233	-0.328	-0.527
-300.778	-200.000	0.141	-0.640
-299.764	-200.000	-0.065	0.500
-298.749	82.850	-0.211	-0.227
-297.735	-74.021	0.315	-0.113
-296.720	749.367	0.263	-0.705
-295.705	-200.000	-0.000	0.618
-294.691	800.000	0.165	-0.577
-293.676	34.675	0.323	0.280
-292.662	-81.730	0.149	-0.048
-291.647	72.239	0.088	0.091
-290.632	756.658	0.195	0.524
-289.618	-137.671	-0.777	0.087
-288.603	-200.000	0.019	0.263
-287.589	68.002	0.386	-0.392
-286.574	800.000	0.289	0.886
-285.559	-174.309	-0.518	0.015
-284.545	-5.182	-0.279	-0.191
-283.530	159.881	0.599	0.828
-282.516	-180.082	-0.182	-0.004
-281.501	419.721	0.414	0.879
-280.486	470.464	0.128	-0.284
-279.472	-200.000	0.073	0.518
-278.457	78.194	-0.356	-0.377
-277.443	-73.994	-1.483	0.533
-276.428	-56.767	0.257	-0.113
-275.413	179.519	0.117	0.170
-274.399	136.662	0.152	-0.197
-273.384	-108.093	0.449	-0.097
-272.370	-89.007	0.197	-0.058
-271.355	10.502	0.644	0.486
-270.340	23.983	0.184	-0.150
-269.326	43.647	0.596	-0.541
-268.311	155.479	0.459	-0.627
-267.297	95.785	-0.399	0.452
-266.282	99.855	-0.206	0.237
-265.267	-51.589	-0.298	0.138
-264.253	-174.251	-0.234	0.007
-263.238	186.510	0.448	0.661
-262.224	184.315	-0.251	0.369
-261.209	54.407	0.307	0.293
-260.195	49.631	-0.386	0.360
-259.180	-200.000	-0.056	-0.724
-258.165	-200.000	-0.018	0.271
-257.151	281.598	0.464	-0.825
-256.136	-200.000	-0.052	0.569
-255.122	-86.700	-0.745	-0.226
-254.107	-15.148	0.817	-0.519
-253.092	261.434	0.119	-0.204
-252.078	-120.845	0.680	-0.114
-251.063	254.709	0.075	-0.128
-250.049	260.900	-0.394	-0.675
-249.034	130.396	-0.446	-0.566
-248.019	-48.860	-0.520	0.247
-247.005	-90.434	0.363	0.104
-245.990	12.623	-0.283	-0.216
-244.976	-41.951	-0.658	-0.334
-243.961	230.743	0.085	0.138
-242.946	-137.414	0.789	-0.089
-241.932	50.720	0.468	0.439
-240.917	504.674	-0.181	-0.416
-239.903	-107.549	0.360	-0.078
-238.888	-77.218	0.210	0.073
-237.873	7.217	0.488	-0.361
-236.859	-62.126	-0.400	-0.165
-235.844	-39.159	-0.449	0.234
-234.830	800.000	-0.184	0.571
-233.815	20.953	-0.153	-0.123
-232.800	10.276	0.390	0.294
-231.786	-200.000	0.015	-0.289
-230.771	217.725	-0.565	-0.891
-229.757	-38.625	-0.365	-0.191
-228.742	-112.938	0.412	0.081
-227.727	-200.000	0.527	0.000
-226.713	-89.664	0.718	-0.208
-225.698	497.912	0.107	-0.244
-224.684	-94.867	0.363	0.097
-223.669	-200.000	-0.129	0.568
-222.655	387.481	-0.292	-0.597
-221.640	12.036	0.385	0.293
-220.625	-58.841	-0.802	-0.343
-219.611	-138.035	0.623	-0.069
-218.596	-107.824	-0.359	0.077
-217.582	-200.000	0.015	1.187
-216.567	-108.245	-0.457	-0.098
-215.552	420.285	0.402	-0.852
-214.538	68.885	-0.263	0.267
-213.523	-200.000	0.006	-0.058
-212.509	-70.167	-0.421	-0.158
-211.494	-32.876	0.259	0.142
-210.479	-200.000	0.077	-0.820
-209.465	-200.000	-0.062	-0.513
-208.450	-4.297	0.079	-0.054
-207.436	-106.914	0.776	0.170
-206.421	43.268	-0.107	0.096
-205.406	195.361	0.479	-0.720
-204.392	-169.261	0.234	0.009
-203.377	478.224	-0.383	0.857
-202.363	800.000	0.045	0.166
-201.348	-200.000	-0.059	0.901
-200.333	-200.000	0.092	-0.805
-199.319	195.974	0.093	-0.140
-198.304	94.229	-0.338	0.380
-197.290	800.000	-0.322	1.069
-196.275	73.854	-0.212	-0.219
-195.260	-94.237	-0.760	-0.206
-194.246	187.819	-0.315	-0.465
-193.231	800.000	0.065	-0.255
-192.217	429.627	0.097	0.208
-191.202	74.794	0.443	0.461
-190.187	-69.381	-0.884	0.336
-189.173	43.971	-0.488	0.443
-188.158	59.959	-0.080	-0.078
-187.144	36.820	0.531	-0.464
-186.129	-86.365	-0.840	-0.255
-185.114	-107.764	0.594	-0.128
-184.100	800.000	-0.153	-0.490
-183.085	-173.780	-1.040	-0.031
-182.071	66.239	0.211	0.212
-181.056	616.720	0.225	0.558
-180.042	13.001	0.388	-0.297
-179.027	-93.142	-0.586	-0.161
-178.012	46.605	-0.114	0.104
-176.998	3.606	-0.315	-0.227
-175.983	-69.263	0.395	-0.150
-174.969	-200.000	-0.044	0.334
-173.954	92.670	-0.296	0.330
-172.939	-38.746	0.268	-0.140
-171.925	-200.000	-0.032	-0.719
-170.910	293.198	0.507	-0.914
-169.896	-200.000	0.019	-0.101
-168.881	233.213	-0.317	0.515
-167.866	800.000	0.136	0.399
-166.852	-96.704	0.669	0.174
-165.837	-200.000	0.052	-0.800
-164.823	-102.754	-0.054	-0.013
-163.808	-5.169	-0.102	0.069
-162.793	523.509	-0.134	-0.310
-161.779	75.322	-0.328	-0.342
-160.764	-200.000	0.028	-0.394
-159.750	-136.276	0.445	0.051
-158.735	-43.500	-0.364	0.182
-157.720	-121.903	-0.421	0.069
-156.706	-40.730	-0.649	-0.332
-155.691	262.877	0.184	0.316
-154.677	208.510	0.437	0.675
-153.662	653.832	0.305	0.773
-152.647	-105.873	0.587	-0.131
-151.633	-26.580	0.486	0.281
-150.618	-170.983	-0.796	0.027
-149.604	-3.768	0.953	0.654
-148.589	133.852	-0.451	0.577
-147.574	-200.000	-0.070	0.750
-146.560	-200.000	-0.032	-0.326
-145.545	35.895	-0.765	0.664
-144.531	20.814	0.694	-0.555
-143.516	191.087	0.224	0.333
-142.502	800.000	-0.042	0.159
-141.487	14.095	-0.701	0.539
-140.472	-0.172	-0.432	0.303
-139.458	145.291	0.271	-0.358
-138.443	-84.645	-0.518	0.161
-137.429	64.298	0.582	0.578
-136.414	-46.942	-1.030	0.496
-135.399	45.908	0.202	0.184
-134.385	-200.000	-0.080	0.914
-133.370	-154.841	-0.610	-0.040
-132.356	-200.000	-0.084	0.679
-131.341	-39.105	-0.305	0.158
-130.326	-136.894	-0.927	0.105
-129.312	215.532	0.259	0.405
-128.297	140.970	-0.237	-0.309
-127.283	-135.280	-0.543	0.064
-126.268	612.340	-0.178	0.439
-125.253	-128.345	0.320	-0.045
-124.239	-38.163	0.662	-0.346
-123.224	41.439	0.662	-0.591
-122.210	402.380	-0.161	0.333
-121.195	-200.000	0.023	-0.168
-120.180	656.300	0.288	0.730
-119.166	-98.198	-0.047	0.012
-118.151	-72.258	0.661	-0.242
-117.137	52.767	0.269	0.253
-116.122	-11.589	-0.483	-0.313
-115.107	800.000	-0.161	0.658
-114.093	-21.251	-0.548	-0.330
-113.078	-19.355	0.777	0.475
-112.064	122.367	0.317	0.391
-111.049	23.391	0.475	0.385
-110.034	-200.000	-0.051	-0.348
-109.020	202.156	-0.213	-0.323
-108.005	-200.000	-0.219	1.282
-106.991	-200.000	-0.153	0.805
-105.976	-97.982	-0.708	0.180
-104.962	63.627	0.688	0.681
-103.947	800.000	-0.180	0.636
-102.932	-123.776	0.648	-0.101
-101.918	-14.889	0.195	-0.123
-100.903	139.500	0.233	0.302
-99.889	-174.554	-0.757	0.021
-98.874	-28.530	-0.618	-0.351
-97.859	81.105	0.178	0.190
-96.845	-87.960	-0.658	-0.195
-95.830	-110.554	-0.664	-0.136
-94.816	-121.329	0.473	0.078
-93.801	-200.000	-0.062	0.661
-92.786	222.495	0.088	-0.139
-91.772	-180.518	-1.420	0.029
-90.757	-200.000	-0.026	0.403
-89.743	800.000	0.176	-0.587
-88.728	-200.000	-0.032	0.193
-87.713	-46.968	-0.596	-0.287
-86.699	49.036	-0.101	0.094
-85.684	216.859	0.360	-0.564
-84.670	23.790	0.530	0.430
-83.655	693.911	0.164	-0.423
-82.640	800.000	0.140	0.460
-81.626	-62.747	-0.387	-0.158
-80.611	141.340	-0.330	-0.431
-79.597	-120.096	0.084	0.014
-78.582	-52.545	0.722	0.329
-77.567	74.453	0.462	0.478
-76.553	-19.857	-0.512	-0.311
-75.538	-2.233	0.213	-0.147
-74.524	186.325	-0.431	-0.631
-73.509	246.625	0.533	-0.884
-72.494	272.157	-0.240	0.417
-71.480	-200.000	-0.020	-0.166
-70.465	-30.270	0.659	-0.368
-69.451	80.797	0.399	0.423
-68.436	800.000	0.095	-0.307
-67.422	-154.042	-0.557	-0.037
-66.407	4.761	-0.110	-0.080
-65.392	19.230	-0.440	0.347
-64.378	-151.489	0.327	0.024
-63.363	13.658	-0.457	-0.349
-62.349	-124.227	0.250	-0.038
-61.334	-144.160	-2.015	-0.185
-60.319	-12.161	0.679	0.437
-59.305	-200.000	0.016	-1.065
-58.290	800.000	0.350	1.436
-57.276	229.489	1.014	1.629
-56.261	-200.000	97.760	607.213
-55.246	662.391	1357.678	3442.156
-54.232	203.514	2524.163	3840.398
-53.217	119.468	2139.962	2605.351
-52.203	42.807	1690.828	1514.829
-51.188	35.199	1504.818	1296.886
-50.173	32.656	1478.990	1257.636
-49.159	53.447	1529.469	1442.028
-48.144	53.838	1547.141	1461.282
-47.130	35.473	1506.366	1299.867
-46.115	32.216	1491.416	1265.033
-45.100	32.161	1486.984	1260.860
-44.086	32.096	1486.445	1259.912
-43.071	32.032	1484.081	1257.435
-42.057	32.101	1482.521	1256.525
-41.042	32.244	1480.347	1255.585
-40.027	31.888	1479.798	1252.689
-39.013	31.998	1479.209	1252.882
-37.998	31.962	1477.018	1250.732
-36.984	32.099	1475.679	1250.464
-35.969	32.119	1474.668	1249.691
-34.954	32.000	1472.572	1247.069
-33.940	31.907	1472.063	1245.976
-32.925	32.137	1470.983	1246.539
-31.911	32.081	1469.345	1244.725
-30.896	32.173	1467.859	1244.030
-29.881	32.172	1466.481	1242.804
-28.867	31.932	1465.418	1240.268
-27.852	32.162	1463.462	1240.085
-26.838	31.968	1462.970	1238.335
-25.823	32.185	1460.359	1237.507
-24.809	32.022	1459.366	1235.541
-23.794	32.088	1457.571	1234.407
-22.779	32.076	1456.518	1233.386
-21.765	31.992	1455.986	1232.334
-20.750	31.917	1455.231	1231.155
-19.736	31.982	1453.357	1229.946
-18.721	31.951	1452.138	1228.661
-17.706	31.874	1451.392	1227.483
-16.692	31.936	1449.397	1226.148
-15.677	32.107	1449.226	1227.075
-14.663	31.835	1448.149	1224.340
-13.648	32.010	1446.958	1224.424
-12.633	31.813	1445.588	1221.933
-11.619	31.980	1444.725	1222.242
-10.604	32.092	1445.075	1223.219
-9.590	32.122	1442.990	1221.598
-8.575	31.945	1443.252	1220.621
-7.560	31.927	1441.877	1219.293
-6.546	31.763	1441.579	1217.927
-5.531	31.913	1439.233	1216.871
-4.517	32.102	1438.189	1217.165
-3.502	32.107	1437.040	1216.176
-2.487	31.925	1436.828	1214.772
-1.473	31.818	1437.016	1214.187
-0.458	31.842	1434.704	1212.343
0.556	33.357	1425.010	1202.160
1.571	30.129	1400.342	1161.062
2.586	26.578	1342.592	1091.714
3.600	24.901	1261.623	1016.276
4.615	23.217	1217.158	971.137
5.629	19.970	1160.121	908.543
6.644	11.110	1076.589	799.719
7.659	4.381	1036.035	737.633
8.673	3.662	1029.227	729.327
9.688	3.388	1026.293	725.893
10.702	3.240	1024.904	724.151
11.717	3.311	1022.850	722.970
12.731	6.092	1026.592	738.634
13.746	15.417	1039.062	791.726
14.761	22.606	1047.926	832.489
15.775	24.494	1048.652	841.905
16.790	24.574	1048.197	841.840
17.804	23.625	1046.619	836.031
18.819	23.467	1045.619	834.414
19.834	23.015	1045.578	832.183
20.848	23.237	1045.548	833.127
21.863	23.421	1044.272	832.903
22.877	23.418	1043.401	832.123
23.892	23.218	1043.381	831.094
24.907	23.237	1041.575	829.668
25.921	23.181	1041.349	829.155
26.936	23.096	1040.409	827.933
27.950	22.798	1040.353	826.421
28.965	22.997	1037.741	825.201
29.980	23.148	1036.623	824.942
30.994	23.036	1036.465	824.223
32.009	23.159	1035.594	824.031
33.023	22.878	1035.782	822.796
34.038	23.336	1033.578	823.101
35.053	23.328	1032.465	822.107
36.067	23.332	1031.870	821.580
37.082	23.043	1031.583	819.940
38.096	23.122	1029.855	818.859
39.111	23.087	1029.615	818.434
40.126	23.299	1028.675	818.591
41.140	23.322	1027.375	817.592
42.155	22.751	1026.990	814.579
43.169	22.693	1024.748	812.459
44.184	22.720	1024.116	812.013
45.199	22.393	1023.020	809.566
46.213	22.322	1023.330	809.416
47.228	22.725	1021.789	809.975
48.242	22.929	1021.343	810.486
49.257	23.239	1021.059	811.608
50.271	23.240	1019.987	810.690
51.286	23.176	1019.633	810.044
52.301	23.175	1018.924	809.405
53.315	23.349	1017.959	809.361
54.330	23.553	1016.734	809.248
55.344	23.390	1015.833	807.715
56.359	23.057	1016.150	806.376
57.374	22.630	1015.446	803.800
58.388	22.946	1013.470	803.605
59.403	22.731	1012.906	802.107
60.417	22.669	1011.922	800.974
61.432	22.457	1011.620	799.705
62.447	22.518	1011.219	799.593
63.461	22.639	1009.941	799.061
64.476	22.608	1009.753	798.699
65.490	22.453	1008.399	796.857
66.505	22.574	1007.790	796.851
67.520	22.509	1006.217	795.243
68.534	22.469	1005.616	794.518
69.549	22.746	1004.823	795.071
70.563	22.456	1003.722	792.826
71.578	22.131	1003.243	790.911
72.593	21.841	1001.994	788.552
73.607	21.882	1000.643	787.603
74.622	21.398	1000.913	785.572
75.636	21.846	999.902	786.720
76.651	22.051	998.480	786.453
77.666	21.849	998.142	785.212
78.680	21.927	998.166	785.509
79.695	22.271	996.725	785.842
80.709	22.255	996.245	785.323
81.724	22.501	995.700	785.924
82.739	22.245	995.034	784.187
83.753	22.624	993.649	784.713
84.768	22.718	994.346	785.612
85.782	23.238	993.078	786.850
86.797	23.749	992.101	788.278
87.812	23.689	992.362	788.149
88.826	23.246	991.311	785.281
89.841	23.263	991.282	785.261
90.855	23.906	989.106	786.311
91.870	23.333	989.273	783.843
92.884	23.603	987.933	783.904
93.899	23.475	987.533	782.950
94.914	23.643	986.300	782.645
95.928	23.413	985.976	781.305
96.943	23.513	984.768	780.718
97.957	23.371	983.752	779.221
98.972	23.244	982.058	777.251
99.987	23.382	982.697	778.295
101.001	23.194	982.334	777.111
102.016	23.345	980.779	776.477
103.030	23.111	979.601	774.450
104.045	23.327	978.829	774.715
105.060	23.597	977.607	774.857
106.074	23.169	977.542	772.871
107.089	23.353	976.261	772.592
108.103	22.930	975.349	769.957
109.118	22.840	973.969	768.412
110.133	22.875	972.634	767.439
111.147	22.425	971.516	764.536
112.162	22.201	971.075	763.150
113.176	22.326	969.569	762.439
114.191	22.476	969.435	762.917
115.206	22.543	969.040	762.830
116.220	22.747	967.407	762.360
117.235	22.728	966.178	761.241
118.249	22.099	966.793	758.939
119.264	22.162	965.542	758.164
120.279	22.075	962.749	755.530
121.293	21.886	963.230	755.027
122.308	22.059	962.657	755.254
123.322	22.104	961.632	754.579
124.337	21.783	961.155	752.756
125.352	21.592	960.225	751.145
126.366	21.974	958.166	751.100
127.381	21.836	957.710	750.087
128.395	22.137	957.031	750.774
129.410	22.145	956.909	750.647
130.424	22.135	956.453	750.180
131.439	22.206	954.036	748.519
132.454	22.671	953.692	750.162
133.468	22.657	953.678	750.027
134.483	22.890	952.265	749.835
135.497	22.643	951.654	748.240
136.512	22.360	951.851	747.127
137.527	22.586	951.392	747.661
138.541	22.545	951.129	747.215
139.556	22.472	949.446	745.516
140.570	22.630	949.010	745.776
141.585	22.930	948.236	746.373
142.600	23.243	947.780	747.267
143.614	23.134	947.073	746.185
144.629	23.302	946.445	746.331
145.643	23.430	946.430	746.793
146.658	23.702	944.623	746.444
147.673	23.553	943.545	744.902
148.687	23.184	942.509	742.468
149.702	23.130	941.050	741.028
150.716	22.969	939.556	739.112
151.731	22.449	939.974	737.200
152.746	22.708	938.281	736.890
153.760	22.841	939.182	738.086
154.775	23.050	937.349	737.455
155.789	23.524	935.954	738.264
156.804	23.177	935.583	736.463
157.819	23.071	934.853	735.380
158.833	22.928	934.725	734.623
159.848	23.594	933.280	736.184
160.862	23.397	933.073	735.139
161.877	23.370	932.741	734.699
162.892	22.867	930.919	731.118
163.906	23.099	929.629	730.998
164.921	22.515	929.150	728.148
165.935	22.568	928.392	727.704
166.950	22.867	926.071	727.054
167.964	23.086	925.488	727.433
168.979	23.135	924.829	727.053
169.994	22.640	923.809	724.155
171.008	22.510	923.251	723.119
172.023	22.588	923.130	723.280
173.037	23.108	922.627	724.953
174.052	22.960	922.156	723.912
175.067	23.282	919.770	723.291
176.081	22.791	919.965	721.373
177.096	22.540	918.802	719.373
178.110	22.566	917.524	718.417
179.125	22.503	916.170	717.036
180.140	22.723	915.980	717.720
181.154	22.328	915.640	715.780
182.169	23.099	914.488	717.949
183.183	23.272	913.827	718.069
184.198	23.170	914.336	717.990
185.213	23.347	912.905	717.520
186.227	23.086	912.547	716.117
187.242	23.097	912.746	716.256
188.256	23.370	912.017	716.723
189.271	23.309	910.970	715.592
190.286	23.540	910.583	716.157
191.300	23.545	908.696	714.632
192.315	22.731	908.479	711.118
193.329	22.298	907.818	708.790
194.344	22.152	907.438	707.844
195.359	22.170	906.576	707.182
196.373	23.034	906.253	710.340
197.388	22.938	905.742	709.492
198.402	22.980	906.433	710.142
199.417	23.597	905.405	711.748
200.432	23.654	905.692	712.138
201.446	23.824	904.580	711.881
202.461	24.046	904.020	712.266
203.475	23.712	904.746	711.439
204.490	23.661	903.154	709.918
205.504	22.781	901.832	705.303
206.519	22.974	901.363	705.644
207.534	23.253	900.052	705.668
208.548	23.031	899.495	704.284
209.563	23.299	898.522	704.524
210.577	23.454	897.648	704.392
211.592	23.060	897.721	702.823
212.607	23.396	897.511	703.930
213.621	23.888	897.377	705.716
214.636	23.850	895.812	704.272
215.650	23.454	895.916	702.725
216.665	23.634	895.918	703.376
217.680	23.749	893.526	701.890
218.694	24.002	893.054	702.456
219.709	23.511	892.779	700.241
220.723	23.561	892.900	700.472
221.738	23.388	892.424	699.352
222.753	23.026	891.940	697.484
223.767	23.088	890.493	696.535
224.782	23.218	889.623	696.303
225.796	23.487	890.223	697.770
226.811	23.685	888.945	697.485
227.826	23.599	887.933	696.292
228.840	23.308	886.444	693.921
229.855	22.908	887.164	692.858
230.869	22.946	885.766	691.852
231.884	23.306	885.488	692.981
232.899	23.079	884.578	691.321
233.913	23.222	883.663	691.102
234.928	22.733	883.732	689.185
235.942	23.200	882.068	689.647
236.957	22.341	882.038	686.215
237.972	22.385	881.766	686.114
238.986	22.528	880.865	685.908
240.001	22.666	879.587	685.391
241.015	22.486	879.214	684.340
242.030	22.612	877.635	683.538
243.045	23.008	878.015	685.312
244.059	22.781	878.173	684.492
245.074	23.143	877.864	685.593
246.088	22.869	877.060	683.843
247.103	23.097	876.503	684.230
248.117	23.350	876.938	685.489
249.132	24.022	875.755	687.100
250.147	24.292	875.596	687.956
251.161	24.416	875.490	688.291
252.176	24.639	874.537	688.339
253.190	24.630	874.544	688.249
254.205	24.528	874.705	687.923
255.220	24.873	873.126	687.944
256.234	24.707	871.657	686.088
257.249	24.424	871.162	684.554
258.263	24.347	871.130	684.174
259.278	24.426	869.467	683.108
260.293	24.180	870.462	682.889
261.307	24.434	869.389	682.957
262.322	24.299	868.891	681.989
263.336	24.652	868.632	683.076
264.351	24.242	867.934	680.899
265.366	23.991	867.934	679.880
266.380	23.871	866.661	678.365
267.395	24.289	866.440	679.728
268.409	24.640	865.638	680.375
269.424	24.270	863.844	677.500
270.439	24.018	863.635	676.318
271.453	24.104	863.552	676.519
272.468	24.082	862.804	675.789
273.482	23.857	861.888	674.159
274.497	24.201	861.219	674.880
275.512	24.423	859.914	674.637
276.526	23.944	859.964	672.802
277.541	23.835	859.758	672.173
278.555	24.018	858.414	671.751
279.570	24.481	858.415	673.441
280.585	24.789	857.266	673.638
281.599	24.812	856.289	672.897
282.614	24.329	856.693	671.340
283.628	24.095	855.643	669.577
284.643	23.952	855.728	669.045
285.657	23.818	856.019	668.712
286.672	24.100	854.831	668.781
287.687	23.646	854.280	666.587
288.701	24.096	852.647	666.939
289.716	24.277	853.092	667.907
290.730	24.064	852.981	666.963
291.745	24.227	850.566	665.625
292.760	23.996	851.575	665.492
293.774	24.068	850.407	664.791
294.789	24.736	850.129	667.007
295.803	24.920	850.227	667.709
296.818	24.330	848.838	664.363
297.833	24.249	848.620	663.833
298.847	24.408	847.360	663.379
299.862	23.914	847.079	661.265
300.876	23.999	847.159	661.583
301.891	24.355	845.792	661.778
302.906	24.980	845.436	663.760
303.920	25.089	844.979	663.745
304.935	25.188	843.967	663.258
305.949	24.952	844.729	662.921
306.964	24.921	843.734	661.969
307.979	24.793	842.716	660.640
308.993	24.185	842.762	658.370
310.008	24.489	841.852	658.724
311.022	24.570	841.151	658.415
312.037	24.741	840.867	658.766
313.052	24.269	840.041	656.323
314.066	24.355	839.250	655.962
315.081	23.981	838.791	654.170
316.095	23.822	837.901	652.835
317.110	23.948	838.209	653.481
318.125	23.868	837.299	652.420
319.139	23.886	836.350	651.688
320.154	23.515	836.270	650.209
321.168	23.493	834.990	649.074
322.183	23.584	834.499	648.967
323.197	23.747	834.750	649.702
324.212	23.826	834.562	649.789
325.227	23.919	833.940	649.587
326.241	23.871	833.518	649.025
327.256	23.532	832.152	646.667
328.270	23.689	831.828	646.931
329.285	23.596	831.759	646.481
330.300	23.890	829.776	645.949
331.314	23.251	830.403	644.057
332.329	23.642	829.322	644.584
333.343	23.932	828.418	644.875
334.358	24.346	828.400	646.303
335.373	23.917	828.433	644.716
336.387	24.037	827.466	644.343
337.402	24.366	827.101	645.190
338.416	24.845	826.223	646.181
339.431	25.197	825.934	647.166
340.446	25.002	826.523	646.865
341.460	24.776	826.119	645.679
342.475	25.024	824.866	645.535
343.489	25.135	824.575	645.651
344.504	25.469	823.995	646.338
345.519	25.300	824.271	645.890
346.533	25.549	823.030	645.757
347.548	25.588	822.171	645.166
348.562	25.536	821.881	644.695
349.577	25.021	821.382	642.398
350.592	24.642	820.654	640.417
351.606	24.503	819.885	639.260
352.621	24.092	819.967	637.798
353.635	24.389	819.146	638.165
354.650	24.774	818.297	638.820
355.665	24.816	817.097	637.979
356.679	24.594	817.078	637.114
357.694	24.312	817.456	636.349
358.708	24.534	817.074	636.784
359.723	24.547	815.153	635.279
360.738	24.620	815.474	635.733
361.752	24.227	815.519	634.313
362.767	24.422	814.769	634.364
363.781	24.978	814.677	636.212
364.796	24.962	814.595	636.035
365.810	25.095	814.499	636.378
366.825	25.386	813.430	636.518
367.840	25.387	812.686	635.881
368.854	25.457	812.683	636.071
369.869	24.956	811.815	633.563
370.883	25.064	811.291	633.478
371.898	24.710	810.711	631.720
372.913	24.995	810.229	632.296
373.927	25.479	809.958	633.735
374.942	25.408	808.947	632.638
375.956	24.889	808.479	630.388
376.971	25.202	808.415	631.385
377.986	25.362	808.113	631.656
379.000	25.460	807.987	631.848
380.015	25.559	806.103	630.665
381.029	25.704	805.872	630.938
382.044	25.475	805.794	630.016
383.059	25.603	804.563	629.446
384.073	25.889	803.792	629.789
385.088	25.715	804.412	629.608
386.102	24.905	803.615	626.097
387.117	24.732	802.531	624.594
388.132	24.556	801.851	623.393
389.146	24.752	801.409	623.681
390.161	24.548	801.419	622.922
391.175	25.101	800.905	624.395
392.190	25.051	801.388	624.541
393.205	25.174	799.977	623.813
394.219	25.116	799.066	622.845
395.234	24.523	797.694	619.665
396.248	24.341	796.760	618.255
397.263	24.456	797.048	618.822
398.278	24.947	796.128	619.751
399.292	24.191	796.266	617.187
400.307	24.455	795.653	617.571
401.321	24.168	795.765	616.610
402.336	24.579	794.374	616.898
403.350	24.323	794.770	616.264
404.365	24.767	794.971	617.901
405.380	25.157	793.791	618.273
406.394	25.770	794.268	620.704
407.409	26.179	793.148	621.182
408.423	26.079	793.716	621.227
409.438	25.922	792.874	619.972
410.453	26.178	792.007	620.121
411.467	25.899	792.524	619.510
412.482	25.792	791.558	618.332
413.496	25.737	790.811	617.505
414.511	26.314	791.129	619.680
415.526	26.051	790.717	618.401
416.540	25.945	789.686	617.176
417.555	26.155	789.611	617.783
418.569	26.123	789.166	617.271
419.584	25.890	788.621	615.991
420.599	25.922	788.112	615.651
421.613	161.180	1369.789	1793.749
422.628	139.527	1454.566	1793.782
