DTS Sentinel unit serial number:	SN413079Multiplexer serial number:	ORYXHardware model number:	OX4-SRSoftware version number:	ORYX F/W v4.00 Oryx Data Collector v3.7.2.0data status	okinstallation	princeton_trtdifferential loss correction	single-endedforward channel	channel 3reverse channel	N/Adate	2019/09/12time	19:17:04forward acquisition time	15.00reverse acquisition time	0.00gamma	496.2192k internal	0.2321k external	0.2321temperature offset calibration	1.0103default loss term (dB/km)	0.3790temperature slope calibration	1.0000multiplexer offset coefficient	1.0000multiplexer slope coefficient	1.0000fibre end	0.00T internal ref (°C)	32.50T ext. ref 1 (°C)	3.19T ext. ref 2 (°C)	27.02length (m)	temperature (°C)	Stokes	anti-Stokes-747.200	-181.495	0.448	-0.009
-746.185	-13.150	-0.363	0.238
-745.171	-119.581	-0.541	0.095
-744.156	800.000	-0.017	0.053
-743.142	356.173	-0.218	-0.439
-742.127	26.874	0.341	0.289
-741.112	618.590	0.082	0.209
-740.098	-116.359	0.440	0.082
-739.083	489.259	0.121	0.279
-738.069	249.296	-0.170	-0.291
-737.054	288.506	-0.104	0.190
-736.039	-200.000	-0.060	-0.340
-735.025	292.721	0.100	-0.185
-734.010	-200.000	-0.008	0.068
-732.996	800.000	-0.087	0.260
-731.981	-200.000	-0.042	-0.755
-730.966	-112.615	-0.414	0.083
-729.952	-76.736	-0.425	0.150
-728.937	73.815	-0.389	-0.412
-727.923	25.913	-0.615	-0.518
-726.908	800.000	0.064	0.271
-725.894	9.541	-0.496	-0.380
-724.879	-27.784	0.381	-0.223
-723.864	800.000	-0.059	0.191
-722.850	659.240	-0.060	-0.156
-721.835	-200.000	0.049	-0.453
-720.821	-151.645	-0.527	0.039
-719.806	-132.056	-0.265	-0.035
-718.791	-103.229	-0.451	-0.108
-717.777	144.682	-0.064	0.086
-716.762	413.935	-0.256	-0.551
-715.748	-200.000	0.096	0.922
-714.733	800.000	0.108	0.341
-713.718	-138.280	0.268	-0.030
-712.704	-200.000	0.084	-0.630
-711.689	-123.546	0.477	-0.076
-710.675	184.551	0.068	-0.101
-709.660	-200.000	-0.061	0.721
-708.645	384.631	-0.091	-0.189
-707.631	-48.567	-0.600	0.291
-706.616	-115.580	0.311	0.059
-705.602	56.245	0.280	-0.274
-704.587	-77.986	-0.509	-0.177
-703.572	-73.033	-0.600	0.222
-702.558	52.763	0.494	0.476
-701.543	800.000	0.224	-0.623
-700.529	800.000	-0.202	0.630
-699.514	-131.633	0.833	-0.110
-698.499	641.017	0.372	0.955
-697.485	800.000	0.032	-0.091
-696.470	66.140	-0.359	-0.367
-695.456	-79.799	0.428	0.145
-694.441	800.000	-0.225	0.896
-693.426	437.336	0.021	-0.045
-692.412	-200.000	-0.114	-0.903
-691.397	800.000	-0.087	0.331
-690.383	57.961	-0.396	-0.391
-689.368	-200.000	-0.035	0.221
-688.354	-200.000	-0.037	-0.814
-687.339	554.173	0.334	-0.809
-686.324	60.973	-0.365	-0.366
-685.310	-29.244	0.937	-0.541
-684.295	-123.876	0.141	0.022
-683.281	180.593	0.055	0.082
-682.266	337.474	-0.170	-0.333
-681.251	95.617	0.709	0.815
-680.237	-200.000	-0.005	0.071
-679.222	-144.019	-0.455	0.043
-678.208	49.038	-0.388	0.367
-677.193	-45.000	0.814	0.409
-676.178	-200.000	0.030	0.140
-675.164	-74.763	-0.666	0.241
-674.149	-84.400	0.630	-0.201
-673.135	-139.784	0.957	0.102
-672.120	800.000	0.091	0.354
-671.105	-200.000	-0.013	-0.835
-670.091	-142.000	-1.150	-0.115
-669.076	8.713	0.465	0.353
-668.062	-132.852	0.292	0.037
-667.047	-96.656	-0.434	0.115
-666.032	-94.775	-0.599	0.164
-665.018	-27.142	0.772	-0.453
-664.003	29.220	0.907	-0.776
-662.989	166.073	-0.334	-0.476
-661.974	161.341	0.312	0.440
-660.959	307.167	0.145	-0.272
-659.945	-30.001	-0.470	-0.270
-658.930	202.812	0.204	0.317
-657.916	82.615	-0.248	-0.271
-656.901	97.860	-0.194	0.225
-655.886	-78.346	-0.349	0.121
-654.872	8.729	-0.693	-0.526
-653.857	-68.815	-0.422	0.164
-652.843	-137.174	-0.359	0.041
-651.828	-131.109	-0.526	-0.070
-650.814	-85.779	-0.598	-0.187
-649.799	169.128	-0.540	0.776
-648.784	-49.919	0.038	0.018
-647.770	-43.180	0.289	-0.147
-646.755	-200.000	-0.153	0.758
-645.741	-126.912	-0.159	0.024
-644.726	-169.276	0.759	-0.028
-643.711	-200.000	-0.024	0.608
-642.697	72.776	-0.319	-0.336
-641.682	-200.000	0.086	0.445
-640.668	187.721	-0.114	-0.171
-639.653	7.640	0.298	0.224
-638.638	800.000	-0.056	-0.207
-637.624	-90.279	-0.211	-0.062
-636.609	113.084	0.310	0.379
-635.595	-200.000	0.052	0.483
-634.580	-200.000	-0.064	-0.369
-633.565	-49.943	0.686	-0.327
-632.551	-95.170	0.289	0.079
-631.536	-200.000	-0.001	0.241
-630.522	-130.021	0.257	0.035
-629.507	-200.000	-0.020	-0.709
-628.492	52.279	-0.295	-0.283
-627.478	-138.429	-0.260	0.029
-626.463	-200.000	-0.100	0.870
-625.449	86.484	0.316	0.350
-624.434	800.000	-0.069	-0.211
-623.419	428.677	0.201	0.438
-622.405	-47.077	-0.375	-0.184
-621.390	218.676	0.076	0.123
-620.376	471.167	0.119	-0.270
-619.361	-111.310	-0.999	0.205
-618.346	-116.150	-0.419	0.078
-617.332	-46.528	1.506	0.743
-616.317	251.779	0.326	-0.558
-615.303	-124.568	-0.469	0.073
-614.288	-127.574	-0.716	-0.104
-613.273	287.239	-0.212	-0.386
-612.259	221.632	0.453	-0.732
-611.244	-200.000	0.085	0.461
-610.230	-155.874	0.099	0.006
-609.215	19.042	0.586	0.473
-608.201	163.717	0.102	0.145
-607.186	-139.428	0.398	0.043
-606.171	-142.037	0.973	0.097
-605.157	-13.942	-0.314	0.204
-604.142	-173.883	-0.604	-0.018
-603.128	47.332	-0.351	-0.329
-602.113	514.134	0.234	-0.548
-601.098	-200.000	-0.026	0.281
-600.084	-96.819	-0.142	0.037
-599.069	75.274	0.936	-0.992
-598.055	40.630	0.794	-0.719
-597.040	-81.176	-0.405	-0.134
-596.025	-107.219	-0.498	-0.110
-595.011	363.154	-0.390	-0.787
-593.996	-168.193	0.741	-0.029
-592.982	72.304	0.401	0.420
-591.967	-95.999	-0.647	0.173
-590.952	800.000	0.106	-0.452
-589.938	-200.000	-0.061	0.645
-588.923	311.999	0.256	-0.483
-587.909	-2.914	0.093	0.065
-586.894	224.934	-0.437	-0.710
-585.879	52.200	0.624	-0.597
-584.865	98.560	0.430	-0.498
-583.850	-138.633	0.479	-0.053
-582.836	231.350	-0.403	0.663
-581.821	-17.182	0.429	0.272
-580.806	229.534	-0.461	0.756
-579.792	487.599	-0.285	0.652
-578.777	-4.950	-0.197	-0.136
-577.763	-84.968	0.720	-0.227
-576.748	800.000	-0.396	1.129
-575.733	-100.219	-1.140	-0.285
-574.719	347.182	0.350	-0.691
-573.704	87.337	0.234	0.260
-572.690	-133.900	0.553	-0.069
-571.675	-200.000	-0.067	-0.302
-570.661	800.000	-0.112	-0.436
-569.646	800.000	0.193	0.698
-568.631	49.876	0.226	-0.214
-567.617	-200.000	-0.082	0.435
-566.602	382.115	0.472	0.974
-565.588	-200.000	-0.111	0.840
-564.573	-39.156	0.248	0.131
-563.558	463.187	-0.122	0.274
-562.544	194.169	-0.203	0.308
-561.529	-82.890	0.437	0.142
-560.515	128.164	-0.214	0.273
-559.500	-66.698	-0.551	-0.219
-558.485	-42.334	-0.498	0.255
-557.471	-165.679	-0.780	-0.034
-556.456	-68.613	0.248	0.096
-555.442	-130.402	-0.696	0.095
-554.427	491.870	0.107	-0.245
-553.412	-64.264	0.232	0.095
-552.398	632.401	-0.087	-0.221
-551.383	400.753	-0.198	-0.418
-550.369	-114.973	0.392	-0.075
-549.354	-104.826	-0.719	-0.166
-548.339	-35.046	0.500	0.273
-547.325	-79.366	-0.064	-0.022
-546.310	342.229	-0.363	-0.712
-545.296	-121.437	-0.175	0.029
-544.281	-200.000	0.069	-0.735
-543.266	6.621	-0.938	0.699
-542.252	-99.173	1.180	-0.299
-541.237	-200.000	-0.005	-0.235
-540.223	295.595	0.093	0.171
-539.208	-56.274	-0.331	0.148
-538.193	179.921	-0.257	-0.377
-537.179	-66.569	0.232	-0.092
-536.164	324.627	-0.099	0.190
-535.150	-40.348	0.377	-0.197
-534.135	369.651	-0.158	-0.321
-533.121	-200.000	-0.039	-0.378
-532.106	38.256	0.252	-0.225
-531.091	478.897	-0.173	0.393
-530.077	92.601	0.175	0.198
-529.062	80.530	0.321	0.347
-528.048	-70.482	-1.102	-0.418
-527.033	-200.000	0.135	0.889
-526.018	-200.000	-0.069	-0.335
-525.004	-84.765	0.126	0.040
-523.989	-62.711	-0.582	-0.242
-522.975	-200.000	-0.002	-0.735
-521.960	-6.984	0.786	0.535
-520.945	800.000	0.063	0.178
-519.931	-124.946	0.486	-0.075
-518.916	-200.000	0.002	0.132
-517.902	-200.000	0.003	0.141
-516.887	497.671	0.088	-0.203
-515.872	213.820	0.186	-0.295
-514.858	-21.538	-0.874	0.534
-513.843	45.864	-0.464	-0.430
-512.829	40.034	0.546	-0.491
-511.814	556.275	0.280	0.675
-510.799	-72.128	0.595	-0.221
-509.785	-85.103	-0.693	-0.217
-508.770	-19.018	0.890	-0.554
-507.756	-200.000	-0.003	-0.316
-506.741	97.987	0.348	-0.401
-505.726	-200.000	-0.022	-0.439
-504.712	88.043	0.347	0.386
-503.697	-96.570	-0.244	0.065
-502.683	-56.943	-0.401	0.177
-501.668	800.000	-0.161	-0.447
-500.653	83.459	-0.430	0.469
-499.639	786.192	0.209	-0.574
-498.624	780.252	0.121	-0.331
-497.610	-200.000	0.014	-0.102
-496.595	146.531	0.109	-0.147
-495.581	211.254	0.328	0.517
-494.566	-148.099	-0.791	-0.066
-493.551	54.039	0.513	0.493
-492.537	45.991	-0.739	-0.685
-491.522	150.749	0.324	0.441
-490.508	39.703	0.482	-0.433
-489.493	237.252	-0.283	0.469
-488.478	-200.000	-0.037	0.176
-487.464	-200.000	-0.005	0.721
-486.449	-200.000	0.220	1.210
-485.435	-124.221	0.072	-0.011
-484.420	142.510	0.522	0.693
-483.405	800.000	0.176	0.552
-482.391	147.238	0.063	0.085
-481.376	-200.000	0.058	0.453
-480.362	-182.869	0.695	-0.012
-479.347	-96.965	0.362	-0.095
-478.332	137.232	-0.333	-0.436
-477.318	-62.577	-0.855	-0.355
-476.303	162.777	0.374	0.525
-475.289	30.082	0.187	-0.159
-474.274	-160.709	-0.682	-0.036
-473.259	-200.000	0.091	-0.557
-472.245	800.000	0.059	0.221
-471.230	-77.391	-0.230	0.080
-470.216	148.172	0.741	1.000
-469.201	78.783	0.341	-0.365
-468.186	-161.251	-0.384	-0.020
-467.172	-48.417	-0.080	-0.038
-466.157	800.000	-0.156	-0.565
-465.143	406.079	-0.234	-0.494
-464.128	157.445	0.271	-0.374
-463.113	-200.000	-0.073	-0.351
-462.099	-200.000	0.009	0.237
-461.084	-200.000	0.055	-0.251
-460.070	-28.216	0.447	-0.258
-459.055	800.000	0.244	-0.834
-458.040	-200.000	0.049	-0.313
-457.026	70.665	0.125	-0.129
-456.011	262.278	-0.275	0.477
-454.997	-50.038	0.545	-0.258
-453.982	-136.415	-0.614	0.071
-452.968	-86.059	0.399	0.123
-451.953	-38.390	-0.411	0.218
-450.938	-69.069	0.468	-0.180
-449.924	-77.856	0.400	0.138
-448.909	-200.000	-0.414	0.001
-447.895	-95.383	-0.243	-0.065
-446.880	-94.433	-0.345	0.094
-445.865	-134.620	-0.539	-0.066
-444.851	110.195	-0.235	0.282
-443.836	212.766	-0.241	0.380
-442.822	-200.000	-0.039	0.206
-441.807	-200.000	-0.177	-1.003
-440.792	179.673	0.164	0.240
-439.778	53.841	-0.144	0.139
-438.763	-200.000	0.025	0.269
-437.749	800.000	-0.169	-0.619
-436.734	-5.445	-0.788	0.540
-435.719	-200.000	-0.052	0.533
-434.705	18.599	-0.321	0.256
-433.690	142.332	-0.506	0.670
-432.676	205.028	0.235	0.364
-431.661	-200.000	0.038	-0.378
-430.646	132.277	-0.422	0.543
-429.632	-32.633	-0.159	0.088
-428.617	341.465	-0.393	-0.767
-427.603	-102.152	-0.530	0.127
-426.588	233.687	0.529	-0.870
-425.573	489.414	-0.064	-0.146
-424.559	158.162	-0.212	0.294
-423.544	-200.000	0.016	-0.130
-422.530	-13.743	0.331	0.214
-421.515	-100.199	-0.683	-0.170
-420.500	25.495	-0.480	-0.399
-419.486	14.958	-0.788	0.616
-418.471	-49.620	0.072	0.034
-417.457	-41.110	0.090	0.047
-416.442	64.718	-0.729	-0.733
-415.428	154.358	-0.313	0.429
-414.413	-84.421	-0.429	0.135
-413.398	84.779	0.316	-0.345
-412.384	-136.565	0.667	0.077
-411.369	-34.640	0.644	0.352
-410.355	800.000	0.239	-0.678
-409.340	-149.727	-0.456	-0.036
-408.325	-200.000	-0.179	1.079
-407.311	-200.000	-0.004	0.590
-406.296	-200.000	0.166	0.809
-405.282	-200.000	0.034	-0.579
-404.267	25.038	0.429	0.355
-403.252	-11.117	0.399	0.263
-402.238	800.000	-0.129	0.540
-401.223	409.736	0.333	-0.704
-400.209	-60.117	0.099	-0.042
-399.194	361.452	0.019	-0.038
-398.179	800.000	0.122	0.341
-397.165	-57.377	-0.803	-0.352
-396.150	-200.000	0.050	0.247
-395.136	-61.124	1.326	-0.558
-394.121	-35.835	0.457	-0.247
-393.106	383.396	0.287	-0.589
-392.092	49.219	0.761	0.713
-391.077	457.351	0.161	-0.357
-390.063	-40.916	0.607	-0.313
-389.048	273.179	0.367	0.646
-388.033	-200.000	0.081	0.361
-387.019	-114.417	-0.544	0.104
-386.004	800.000	-0.114	-0.495
-384.990	243.623	-0.377	-0.630
-383.975	-84.898	0.350	0.109
-382.960	-2.701	0.249	-0.174
-381.946	-51.535	-1.383	0.643
-380.931	-105.350	-0.194	-0.044
-379.917	-200.000	-0.054	-0.444
-378.902	-52.046	0.757	-0.350
-377.888	649.396	-0.106	-0.271
-376.873	165.072	-0.297	-0.417
-375.858	-110.356	0.399	0.083
-374.844	-200.000	-0.045	-0.472
-373.829	-106.414	0.735	-0.164
-372.815	-133.108	0.402	0.051
-371.800	205.272	-0.522	-0.807
-370.785	306.996	-0.367	0.681
-369.771	-24.661	0.522	0.309
-368.756	326.977	-0.280	-0.535
-367.742	-47.124	-0.280	0.136
-366.727	-1.045	-0.250	0.176
-365.712	272.188	0.228	-0.401
-364.698	71.051	0.354	0.365
-363.683	79.150	0.628	0.669
-362.669	800.000	-0.168	-0.640
-361.654	-156.233	0.235	-0.015
-360.639	195.623	-0.585	0.886
-359.625	-65.823	-0.116	-0.046
-358.610	648.210	-0.422	-1.075
-357.596	255.806	0.076	-0.130
-356.581	6.793	-0.196	0.145
-355.566	-200.000	0.068	-1.103
-354.552	-200.000	-0.053	0.607
-353.537	304.208	0.586	1.083
-352.523	800.000	-0.087	0.329
-351.508	83.199	-0.271	0.294
-350.493	25.681	0.405	0.336
-349.479	82.320	-0.163	0.176
-348.464	142.479	-0.545	-0.721
-347.450	-200.000	0.057	0.312
-346.435	-51.060	0.257	0.120
-345.420	-105.776	-0.621	-0.140
-344.406	112.112	-0.078	0.094
-343.391	203.258	-0.240	0.369
-342.377	-200.000	-0.043	-0.583
-341.362	-64.782	-0.500	-0.201
-340.348	10.862	-0.644	-0.489
-339.333	-0.780	-0.123	-0.087
-338.318	-86.417	0.292	-0.089
-337.304	-73.639	-0.439	-0.159
-336.289	800.000	-0.173	-0.640
-335.275	-200.000	-0.006	0.135
-334.260	-200.000	0.025	-0.227
-333.245	-200.000	-0.014	-0.408
-332.231	-74.710	0.732	0.262
-331.216	-200.000	0.008	0.112
-330.202	-2.895	0.663	0.461
-329.187	-166.140	-0.613	-0.026
-328.172	-166.645	0.168	-0.007
-327.158	200.682	0.106	-0.162
-326.143	195.263	-0.379	-0.572
-325.129	164.055	0.475	-0.665
-324.114	800.000	0.089	0.279
-323.099	24.982	0.328	-0.270
-322.085	47.187	0.337	-0.311
-321.070	125.725	-0.338	-0.424
-320.056	-22.367	0.573	-0.345
-319.041	-132.467	0.355	0.045
-318.026	14.759	-0.461	-0.359
-317.012	-200.000	0.168	-0.894
-315.997	-142.053	0.578	-0.057
-314.983	800.000	-0.070	-0.284
-313.968	-200.000	0.022	0.128
-312.953	637.557	0.160	0.404
-311.939	800.000	-0.280	0.863
-310.924	62.982	-0.139	0.138
-309.910	800.000	0.180	-0.626
-308.895	-164.801	0.899	0.040
-307.880	800.000	-0.125	0.353
-306.866	137.508	-0.179	-0.233
-305.851	-75.920	-0.875	0.308
-304.837	45.892	0.740	0.680
-303.822	389.516	0.103	0.212
-302.807	-90.935	-0.803	0.230
-301.793	-147.534	0.961	-0.081
-300.778	160.206	-0.190	0.263
-299.764	525.968	0.278	-0.651
-298.749	800.000	0.102	-0.281
-297.735	-200.000	0.128	-0.616
-296.720	-48.234	-0.317	-0.152
-295.705	-200.000	-0.100	-0.438
-294.691	261.323	0.390	0.671
-293.676	393.638	-0.371	-0.768
-292.662	800.000	0.279	0.976
-291.647	359.525	0.356	-0.707
-290.632	800.000	0.184	0.639
-289.618	-144.537	0.305	-0.028
-288.603	67.299	0.476	0.482
-287.589	222.345	0.651	1.040
-286.574	211.495	0.163	0.255
-285.559	141.798	-0.092	0.121
-284.545	800.000	-0.184	0.697
-283.530	-200.000	0.155	-0.780
-282.516	2.664	-0.423	-0.305
-281.501	-23.822	0.469	0.279
-280.486	-136.880	-0.994	-0.113
-279.472	-200.000	-0.002	-0.440
-278.457	7.175	-0.834	-0.618
-277.443	343.386	-0.285	-0.554
-276.428	57.404	-0.294	-0.285
-275.413	17.651	0.764	0.603
-274.399	1.488	-0.054	0.039
-273.384	50.810	0.634	0.596
-272.370	-74.248	0.597	-0.214
-271.355	728.424	-0.201	-0.533
-270.340	550.354	0.212	-0.505
-269.326	-198.729	-0.509	-0.003
-268.311	778.378	-0.157	-0.426
-267.297	150.238	0.185	-0.249
-266.282	285.719	0.173	0.310
-265.267	-200.000	0.116	0.764
-264.253	768.422	-0.273	0.738
-263.238	-151.304	-0.500	-0.037
-262.224	-8.012	0.249	-0.167
-261.209	800.000	0.042	-0.146
-260.195	-16.026	-0.376	0.237
-259.180	-34.643	0.452	-0.245
-258.165	-97.484	0.302	-0.078
-257.151	-44.540	-0.953	-0.472
-256.136	-137.610	-1.182	-0.132
-255.122	-20.721	0.280	0.170
-254.107	141.425	0.401	0.527
-253.092	-74.710	-0.246	0.088
-252.078	-96.469	-0.370	0.097
-251.063	23.821	0.791	-0.647
-250.049	800.000	-0.366	1.236
-249.034	352.877	-0.275	0.541
-248.019	-71.378	-1.068	0.397
-247.005	322.781	0.142	-0.269
-245.990	-200.000	0.060	0.343
-244.976	-108.679	-0.323	-0.069
-243.961	231.069	0.400	0.649
-242.946	275.136	-0.550	-0.965
-241.932	652.512	0.282	-0.715
-240.917	-147.719	0.637	0.053
-239.903	303.999	0.210	0.386
-238.888	-192.558	-0.306	-0.003
-237.873	-95.193	-0.217	-0.058
-236.859	93.032	-0.271	-0.304
-235.844	270.056	-0.294	0.512
-234.830	-93.821	0.961	-0.262
-233.815	123.275	-0.436	-0.541
-232.800	286.477	-0.234	-0.419
-231.786	174.782	-0.089	-0.128
-230.771	-111.131	-0.219	-0.044
-229.757	-120.835	-0.656	0.110
-228.742	17.946	0.345	0.272
-227.727	315.510	-0.333	0.622
-226.713	368.709	0.254	0.508
-225.698	-40.158	-0.329	-0.170
-224.684	397.213	-0.500	1.035
-223.669	-57.060	-0.719	-0.314
-222.655	-161.864	-0.561	-0.028
-221.640	99.715	0.588	-0.674
-220.625	-149.700	-0.248	0.019
-219.611	800.000	0.090	0.280
-218.596	-107.723	-0.328	0.071
-217.582	-200.000	-0.056	-0.331
-216.567	754.489	0.038	0.103
-215.552	698.876	-0.252	-0.655
-214.538	53.746	-0.087	0.083
-213.523	-129.455	-0.503	0.069
-212.509	316.840	0.320	0.599
-211.494	-48.597	0.551	0.262
-210.479	47.599	-0.205	0.190
-209.465	-200.000	-0.033	0.976
-208.450	93.844	-0.469	-0.526
-207.436	800.000	-0.495	-1.437
-206.421	128.162	0.339	0.427
-205.406	148.119	0.598	-0.798
-204.392	77.191	0.558	0.587
-203.377	770.754	-0.086	0.231
-202.363	122.402	-0.490	0.606
-201.348	322.609	-0.178	0.335
-200.333	800.000	0.090	-0.282
-199.319	-97.001	0.885	0.229
-198.304	44.009	0.750	-0.680
-197.290	-200.000	-0.032	-0.377
-196.275	800.000	0.232	0.668
-195.260	225.262	-0.391	-0.626
-194.246	800.000	-0.080	0.256
-193.231	-168.660	-0.096	-0.004
-192.217	-200.000	0.072	0.496
-191.202	-195.139	-0.486	0.004
-190.187	-200.000	0.139	-0.790
-189.173	-200.000	-0.052	-0.461
-188.158	23.914	0.168	-0.137
-187.144	-49.694	0.539	0.254
-186.129	-14.453	-0.188	0.120
-185.114	216.332	-0.255	-0.401
-184.100	482.057	-0.275	0.618
-183.085	42.900	0.692	-0.624
-182.071	-200.000	-0.143	0.648
-181.056	800.000	-0.136	-0.375
-180.042	8.847	-0.279	-0.208
-179.027	122.222	-0.516	-0.637
-178.012	-69.660	-1.171	-0.443
-176.998	597.147	0.514	-1.259
-175.983	76.893	0.533	-0.559
-174.969	-200.000	-0.057	-0.862
-173.954	-200.000	0.097	0.485
-172.939	-19.630	0.357	-0.218
-171.925	199.811	-0.427	-0.647
-170.910	5.313	0.184	0.134
-169.896	-22.096	0.261	-0.156
-168.881	-84.025	-0.460	-0.145
-167.866	-200.000	-0.208	1.063
-166.852	396.616	-0.030	-0.062
-165.837	800.000	-0.157	-0.465
-164.823	75.992	-0.188	-0.196
-163.808	800.000	0.131	0.465
-162.793	95.319	-0.421	0.474
-161.779	-200.000	-0.084	0.397
-160.764	412.475	0.283	0.594
-159.750	209.049	0.578	0.894
-158.735	176.415	0.311	0.447
-157.720	-36.857	0.387	0.205
-156.706	-133.124	0.237	-0.030
-155.691	264.652	0.294	-0.506
-154.677	237.553	-0.168	-0.275
-153.662	288.276	0.750	1.342
-152.647	211.377	0.325	0.506
-151.633	0.955	-0.518	0.366
-150.618	303.825	0.156	0.286
-149.604	-85.424	-0.213	0.066
-148.589	242.971	-0.568	-0.940
-147.574	-200.000	0.142	-0.686
-146.560	-109.133	0.452	-0.095
-145.545	110.570	0.241	-0.286
-144.531	800.000	-0.230	-0.764
-143.516	-200.000	-0.036	-0.630
-142.502	800.000	-0.092	0.274
-141.487	-200.000	0.005	0.381
-140.472	-45.886	-0.400	0.195
-139.458	800.000	-0.223	0.822
-138.443	-200.000	0.040	0.226
-137.429	-118.577	0.983	0.172
-136.414	153.564	0.280	0.379
-135.399	-200.000	-0.121	0.700
-134.385	323.391	0.149	0.281
-133.370	8.369	-0.320	-0.238
-132.356	-200.000	0.032	-0.529
-131.341	800.000	-0.094	0.284
-130.326	317.983	0.134	0.250
-129.312	411.558	0.148	0.309
-128.297	-154.194	0.728	-0.049
-127.283	-33.891	-0.113	0.062
-126.268	430.051	0.125	0.266
-125.253	-60.591	-0.326	-0.137
-124.239	-113.637	-0.529	-0.102
-123.224	800.000	-0.166	0.524
-122.210	670.808	0.298	0.761
-121.195	-200.000	0.068	-0.395
-120.180	126.584	-0.184	-0.230
-119.166	-200.000	-0.001	0.163
-118.151	-200.000	-0.109	-0.612
-117.137	-94.770	0.555	0.149
-116.122	-137.729	0.444	-0.049
-115.107	703.422	0.104	-0.272
-114.093	-200.000	-0.040	0.400
-113.078	-200.000	0.023	0.222
-112.064	142.436	0.431	0.564
-111.049	26.391	0.418	-0.345
-110.034	-22.199	-0.534	0.319
-109.020	-200.000	0.020	0.618
-108.005	800.000	-0.258	-0.977
-106.991	-53.706	0.254	-0.114
-105.976	-65.008	-0.429	0.171
-104.962	-19.102	-0.458	-0.281
-103.947	55.680	0.065	0.062
-102.932	-106.593	-0.349	0.077
-101.918	-109.230	1.299	0.272
-100.903	-77.621	0.418	-0.143
-99.889	-200.000	0.056	-0.623
-98.874	800.000	-0.236	0.775
-97.859	188.470	0.408	-0.602
-96.845	-142.084	-0.397	0.039
-95.830	20.394	-0.334	0.266
-94.816	-40.706	0.366	-0.187
-93.801	-137.568	0.103	-0.011
-92.786	-90.002	0.638	-0.183
-91.772	500.569	-0.135	-0.307
-90.757	108.578	-0.523	-0.616
-89.743	-85.202	0.250	-0.077
-88.728	-137.219	0.338	-0.038
-87.713	-60.869	0.254	0.106
-86.699	-200.000	0.050	0.349
-85.684	-75.291	-0.315	0.111
-84.670	-77.174	0.348	0.119
-83.655	-44.279	-0.305	0.151
-82.640	128.081	0.274	-0.343
-81.626	-83.140	-0.632	0.200
-80.611	-136.918	-0.099	0.011
-79.597	-200.000	0.149	0.846
-78.582	87.552	0.176	0.192
-77.567	-92.459	0.202	-0.056
-76.553	-37.187	-0.553	0.291
-75.538	44.170	0.528	-0.477
-74.524	52.613	0.491	-0.461
-73.509	-200.000	-0.047	-0.354
-72.494	389.845	-0.400	-0.817
-71.480	220.063	0.214	-0.337
-70.465	-171.497	0.666	0.022
-69.451	81.956	0.455	0.486
-68.436	5.708	0.224	0.163
-67.422	465.739	0.260	-0.572
-66.407	-40.965	-0.813	0.414
-65.392	61.932	-0.410	-0.403
-64.378	800.000	-0.116	-0.371
-63.363	-80.661	0.119	0.039
-62.349	-59.550	-0.383	-0.162
-61.334	53.866	-0.839	-0.793
-60.319	137.592	0.282	-0.363
-59.305	-200.000	0.044	-0.599
-58.290	-19.669	1.028	0.626
-57.276	139.095	1.260	1.630
-56.261	-200.000	94.388	589.903
-55.246	684.925	1348.487	3463.137
-54.232	205.324	2513.005	3840.014
-53.217	118.800	2142.702	2604.094
-52.203	43.292	1693.737	1521.689
-51.188	35.636	1508.355	1303.413
-50.173	33.353	1481.573	1264.986
-49.159	53.153	1532.832	1443.788
-48.144	54.305	1549.963	1467.699
-47.130	35.856	1509.667	1305.833
-46.115	32.832	1494.761	1272.533
-45.100	32.574	1491.163	1267.683
-44.086	32.570	1489.931	1266.553
-43.071	32.498	1488.357	1264.684
-42.057	33.010	1485.043	1265.247
-41.042	32.583	1484.381	1261.772
-40.027	32.459	1482.480	1259.276
-39.013	32.616	1481.609	1259.539
-37.998	32.441	1480.669	1257.520
-36.984	32.360	1480.345	1256.654
-35.969	32.710	1478.253	1257.160
-34.954	32.573	1476.645	1254.834
-33.940	32.632	1474.539	1253.385
-32.925	32.312	1474.621	1251.278
-31.911	32.438	1473.095	1250.770
-30.896	32.532	1471.481	1249.972
-29.881	32.591	1469.998	1249.058
-28.867	32.505	1469.344	1247.882
-27.852	32.596	1467.122	1246.547
-26.838	32.899	1465.405	1247.038
-25.823	32.518	1464.701	1243.876
-24.809	32.578	1462.889	1242.681
-23.794	32.558	1460.365	1240.356
-22.779	32.639	1459.402	1240.024
-21.765	32.679	1458.370	1239.360
-20.750	32.503	1457.901	1237.754
-19.736	32.504	1456.551	1236.570
-18.721	32.579	1455.663	1236.256
-17.706	32.353	1455.696	1234.752
-16.692	32.676	1453.615	1235.053
-15.677	32.260	1453.428	1232.120
-14.663	32.521	1451.826	1232.421
-13.648	32.563	1450.762	1231.741
-12.633	32.253	1450.889	1229.779
-11.619	32.380	1449.585	1229.453
-10.604	32.397	1449.244	1229.221
-9.590	32.296	1447.680	1227.188
-8.575	32.430	1446.700	1227.182
-7.560	32.472	1445.486	1226.378
-6.546	32.432	1444.839	1225.521
-5.531	32.446	1443.178	1224.157
-4.517	32.395	1442.391	1223.106
-3.502	32.428	1442.240	1223.142
-2.487	32.497	1440.529	1222.094
-1.473	32.420	1439.328	1220.526
-0.458	32.688	1438.248	1221.301
0.556	33.471	1429.444	1208.227
1.571	30.390	1402.757	1166.251
2.586	26.790	1344.877	1096.307
3.600	24.972	1263.853	1019.823
4.615	23.495	1218.943	975.382
5.629	20.141	1161.097	911.410
6.644	10.964	1077.587	800.803
7.659	4.092	1037.188	738.060
8.673	3.284	1030.740	729.580
9.688	2.920	1027.886	725.775
10.702	3.185	1025.574	725.326
11.717	3.372	1023.551	724.710
12.731	6.165	1026.691	740.029
13.746	15.418	1040.187	793.639
14.761	22.838	1049.941	836.293
15.775	24.722	1049.897	845.099
16.790	24.033	1050.852	842.533
17.804	24.053	1048.964	841.038
18.819	23.822	1047.693	838.858
19.834	23.890	1046.998	838.547
20.848	23.751	1046.385	837.326
21.863	24.267	1045.367	838.867
22.877	23.843	1045.956	837.268
23.892	23.651	1045.748	836.123
24.907	23.561	1044.403	834.550
25.921	23.128	1044.693	832.672
26.936	23.279	1043.983	832.743
27.950	23.558	1041.797	832.232
28.965	23.375	1040.831	830.529
29.980	23.183	1038.895	828.013
30.994	23.835	1037.186	829.622
32.009	23.844	1036.662	829.173
33.023	23.823	1036.018	828.484
34.038	23.595	1036.090	827.408
35.053	23.691	1034.617	826.604
36.067	23.779	1033.433	825.994
37.082	23.482	1033.345	824.468
38.096	23.516	1031.942	823.435
39.111	23.568	1031.864	823.544
40.126	24.005	1030.537	824.436
41.140	23.498	1029.059	820.833
42.155	23.042	1029.049	818.640
43.169	22.771	1027.748	816.280
44.184	22.898	1026.448	815.763
45.199	22.874	1026.019	815.241
46.213	22.797	1024.464	813.576
47.228	22.869	1023.479	813.054
48.242	23.589	1022.800	815.755
49.257	23.838	1022.805	816.833
50.271	23.730	1022.724	816.197
51.286	23.606	1021.741	814.772
52.301	23.842	1020.540	814.825
53.315	23.986	1020.002	814.980
54.330	23.877	1019.260	813.816
55.344	23.544	1018.708	811.783
56.359	23.434	1018.098	810.719
57.374	23.406	1016.816	809.501
58.388	23.492	1015.324	808.633
59.403	23.249	1015.927	807.932
60.417	23.077	1014.734	806.129
61.432	23.253	1013.590	805.948
62.447	23.132	1013.281	805.081
63.461	23.320	1012.142	804.958
64.476	23.432	1011.205	804.650
65.490	23.211	1010.500	803.018
66.505	22.993	1009.810	801.411
67.520	23.229	1009.100	801.844
68.534	23.140	1008.124	800.594
69.549	23.278	1006.258	799.666
70.563	22.660	1006.659	797.120
71.578	22.675	1004.974	795.782
72.593	22.594	1004.328	794.839
73.607	22.325	1002.391	792.022
74.622	22.223	1003.199	792.130
75.636	22.490	1001.154	791.646
76.651	22.729	1000.809	792.378
77.666	22.862	1000.317	792.517
78.680	22.773	1000.373	792.090
79.695	22.867	999.462	791.721
80.709	22.753	998.239	790.171
81.724	23.045	997.712	790.987
82.739	22.957	996.536	789.595
83.753	22.985	996.642	789.734
84.768	22.938	996.215	789.117
85.782	23.756	994.977	791.713
86.797	24.358	994.261	793.750
87.812	24.203	994.781	793.406
88.826	23.869	993.232	790.616
89.841	23.650	992.025	788.613
90.855	23.990	991.686	789.782
91.870	23.923	991.051	788.911
92.884	23.988	990.227	788.472
93.899	23.969	989.557	787.786
94.914	23.605	989.121	785.758
95.928	24.089	988.123	787.035
96.943	23.726	988.018	785.277
97.957	23.779	986.284	784.063
98.972	23.784	984.893	782.909
99.987	23.740	983.889	781.847
101.001	23.820	983.516	781.837
102.016	23.769	983.341	781.403
103.030	23.813	981.414	779.994
104.045	23.781	981.054	779.502
105.060	23.768	980.317	778.788
106.074	23.900	978.522	777.872
107.089	23.909	978.462	777.794
108.103	23.464	977.915	775.344
109.118	23.367	976.573	773.789
110.133	23.014	975.046	770.971
111.147	23.005	974.998	770.825
112.162	22.700	973.693	768.397
113.176	22.979	972.386	768.511
114.191	23.253	971.034	768.566
115.206	23.146	971.099	768.084
116.220	22.922	970.524	766.588
117.235	23.014	969.277	765.934
118.249	22.720	968.891	764.289
119.264	22.817	968.858	764.614
120.279	22.605	967.913	762.886
121.293	22.731	965.977	761.834
122.308	22.635	965.871	761.270
123.322	22.710	963.923	759.987
124.337	22.267	963.898	757.993
125.352	22.411	963.044	757.874
126.366	22.160	961.809	755.756
127.381	22.739	959.476	756.338
128.395	22.313	960.805	755.489
129.410	23.163	958.660	757.377
130.424	23.088	958.647	756.981
131.439	23.338	957.115	756.769
132.454	23.269	957.603	756.796
133.468	23.014	957.385	755.465
134.483	22.887	956.235	753.949
135.497	23.203	955.276	754.473
136.512	23.561	953.003	754.135
137.527	23.263	954.174	753.726
138.541	23.336	953.153	753.162
139.556	23.232	952.920	752.472
140.570	23.188	951.102	750.782
141.585	23.575	951.035	752.305
142.600	23.790	950.482	752.710
143.614	23.866	949.595	752.264
144.629	23.447	949.458	750.316
145.643	24.012	948.759	752.084
146.658	24.005	947.334	750.857
147.673	23.694	945.335	747.900
148.687	23.228	945.495	745.994
149.702	23.253	944.469	745.226
150.716	23.520	942.474	744.708
151.731	23.404	941.450	743.345
152.746	23.183	941.726	742.570
153.760	23.278	941.634	742.831
154.775	23.846	939.553	743.500
155.789	23.782	938.652	742.453
156.804	23.557	940.165	742.644
157.819	23.815	938.492	742.335
158.833	23.629	936.977	740.293
159.848	23.993	936.266	741.181
160.862	24.176	935.794	741.505
161.877	23.846	935.731	740.015
162.892	23.445	933.736	736.708
163.906	23.477	933.554	736.631
164.921	23.073	932.442	734.012
165.935	23.379	930.626	733.785
166.950	23.337	929.181	732.409
167.964	23.571	928.526	732.791
168.979	23.505	928.912	732.758
169.994	23.272	927.590	730.692
171.008	23.363	926.364	730.036
172.023	23.822	924.572	730.445
173.037	23.757	925.736	731.033
174.052	24.079	924.555	731.357
175.067	23.757	923.657	729.262
176.081	23.861	922.132	728.419
177.096	23.470	920.570	725.522
178.110	23.324	919.799	724.252
179.125	23.024	919.042	722.368
180.140	23.057	918.614	722.101
181.154	23.069	917.764	721.419
182.169	23.372	917.873	722.675
183.183	23.604	918.093	723.733
184.198	23.430	918.298	723.119
185.213	23.735	916.492	722.874
186.227	23.426	915.319	720.629
187.242	23.609	915.227	721.236
188.256	23.376	915.596	720.517
189.271	23.688	913.654	720.191
190.286	23.912	913.618	721.007
191.300	23.580	912.932	719.056
192.315	23.213	910.690	715.745
193.329	22.648	910.542	713.278
194.344	22.691	909.337	712.447
195.359	23.016	909.257	713.631
196.373	23.122	909.558	714.232
197.388	23.432	909.837	715.639
198.402	24.031	907.903	716.468
199.417	24.082	907.999	716.686
200.432	24.156	908.306	717.164
201.446	24.442	906.818	717.074
202.461	24.210	906.061	715.480
203.475	24.158	907.259	716.154
204.490	23.708	906.568	713.735
205.504	23.440	904.295	710.812
206.519	23.587	903.201	710.474
207.534	24.004	902.981	711.910
208.548	23.626	902.454	709.917
209.563	23.604	901.375	708.920
210.577	23.578	901.526	708.870
211.592	23.745	900.576	708.729
212.607	23.821	900.496	708.907
213.621	24.146	900.160	709.874
214.636	24.091	899.677	709.212
215.650	23.948	898.035	707.285
216.665	24.105	897.852	707.703
217.680	23.800	898.260	706.750
218.694	24.121	896.747	706.771
219.709	24.310	896.671	707.399
220.723	23.936	895.588	704.997
221.738	23.443	895.700	703.068
222.753	23.593	894.270	702.478
223.767	23.841	892.731	702.188
224.782	23.715	893.610	702.319
225.796	24.002	892.400	702.440
226.811	24.226	891.931	702.890
227.826	23.981	890.565	700.789
228.840	23.554	890.584	699.058
229.855	23.408	888.968	697.154
230.869	23.420	889.041	697.197
231.884	23.306	888.317	696.119
232.899	23.168	888.249	695.462
233.913	23.692	886.885	696.388
234.928	23.567	886.852	695.811
235.942	23.506	885.206	694.220
236.957	23.516	883.711	693.022
237.972	22.934	884.836	691.567
238.986	22.997	884.018	691.113
240.001	23.089	882.779	690.443
241.015	22.975	881.984	689.316
242.030	23.391	880.255	689.522
243.045	23.223	881.767	689.988
244.059	23.315	880.838	689.559
245.074	23.669	880.490	690.603
246.088	23.513	880.157	689.675
247.103	24.031	878.146	690.046
248.117	23.873	879.271	690.256
249.132	24.212	878.655	691.027
250.147	24.632	878.911	692.796
251.161	25.229	878.103	694.409
252.176	25.043	877.854	693.428
253.190	25.005	877.027	692.569
254.205	24.891	876.967	692.022
255.220	25.171	876.058	692.324
256.234	24.766	875.285	690.089
257.249	24.585	874.824	688.967
258.263	24.309	875.260	688.182
259.278	24.549	872.886	687.179
260.293	24.418	873.352	686.979
261.307	24.645	872.868	687.412
262.322	24.611	872.232	686.720
263.336	25.002	871.020	687.207
264.351	25.003	870.284	686.567
265.366	24.552	870.024	684.574
266.380	24.445	868.814	683.152
267.395	24.526	869.108	683.633
268.409	24.800	869.052	684.575
269.424	24.645	867.442	682.654
270.439	25.079	866.884	683.814
271.453	24.691	866.106	681.658
272.468	24.673	864.953	680.623
273.482	24.229	865.493	679.296
274.497	24.857	864.068	680.505
275.512	24.888	862.911	679.653
276.526	24.496	862.326	677.642
277.541	24.522	862.119	677.520
278.555	24.725	861.615	677.832
279.570	24.963	860.971	678.168
280.585	25.139	860.864	678.688
281.599	24.920	860.397	677.433
282.614	24.677	859.260	675.560
283.628	24.111	859.028	673.177
284.643	24.134	858.875	673.086
285.657	24.308	857.796	672.838
286.672	24.191	858.194	672.649
287.687	24.648	855.963	672.559
288.701	24.936	855.797	673.455
289.716	24.509	856.523	672.359
290.730	24.644	855.740	672.191
291.745	24.318	855.283	670.546
292.760	24.507	853.967	670.164
293.774	24.774	852.693	670.107
294.789	25.136	853.081	671.708
295.803	25.039	853.265	671.432
296.818	24.809	852.573	669.965
297.833	24.991	851.451	669.705
298.847	24.542	850.356	667.109
299.862	24.484	850.252	666.752
300.876	24.539	849.604	666.391
301.891	24.801	849.041	666.865
302.906	25.083	848.990	667.819
303.920	25.218	848.001	667.482
304.935	25.199	847.976	667.334
305.949	25.404	847.414	667.594
306.964	25.563	846.347	667.284
307.979	25.269	844.906	665.000
308.993	24.900	844.754	663.453
310.008	24.937	844.480	663.316
311.022	25.411	843.642	664.355
312.037	24.679	844.420	662.195
313.052	25.091	842.894	662.467
314.066	24.701	842.005	660.267
315.081	24.570	841.029	658.960
316.095	24.495	840.564	658.260
317.110	24.399	840.801	658.034
318.125	24.716	840.178	658.657
319.139	24.311	839.308	656.427
320.154	23.908	839.036	654.674
321.168	24.090	837.722	654.256
322.183	24.205	837.048	654.094
323.197	24.303	836.954	654.325
324.212	24.583	836.823	655.190
325.227	24.621	835.588	654.305
326.241	24.280	835.811	653.171
327.256	24.407	835.512	653.345
328.270	24.175	834.795	651.878
329.285	24.012	833.842	650.479
330.300	24.108	832.857	650.005
331.314	24.201	833.008	650.405
332.329	24.216	831.511	649.233
333.343	24.283	832.391	650.109
334.358	24.722	830.791	650.398
335.373	24.749	830.617	650.301
336.387	24.951	829.949	650.456
337.402	25.185	829.192	650.654
338.416	24.865	830.074	650.126
339.431	25.189	830.036	651.216
340.446	25.632	828.780	651.776
341.460	25.345	828.583	650.524
342.475	25.733	827.700	651.177
343.489	25.370	827.851	649.925
344.504	25.460	827.648	650.034
345.519	25.774	826.570	650.263
346.533	25.629	826.072	649.292
347.548	25.478	826.171	648.766
348.562	25.562	824.593	647.775
349.577	25.901	822.879	647.586
350.592	25.373	822.913	645.660
351.606	25.446	822.172	645.282
352.621	25.158	821.305	643.512
353.635	24.620	822.544	642.492
354.650	24.766	821.634	642.248
355.665	24.957	820.776	642.207
356.679	24.829	820.051	641.123
357.694	24.581	820.255	640.338
358.708	25.007	820.012	641.616
359.723	25.065	818.767	640.794
360.738	24.775	817.853	638.987
361.752	24.950	817.441	639.231
362.767	25.369	816.281	639.761
363.781	25.392	817.263	640.556
364.796	25.359	818.101	641.039
365.810	25.908	816.668	641.813
366.825	25.565	816.497	640.403
367.840	25.830	816.768	641.503
368.854	25.597	815.452	639.584
369.869	25.211	814.526	637.430
370.883	25.468	813.190	637.239
371.898	25.414	813.057	636.887
372.913	25.102	813.200	635.836
373.927	25.715	811.865	636.905
374.942	25.526	811.277	635.718
375.956	25.092	810.897	633.832
376.971	25.125	810.777	633.797
377.986	25.328	811.124	634.732
379.000	25.991	809.398	635.662
380.015	26.040	809.347	635.738
381.029	26.006	808.293	634.736
382.044	25.904	807.272	633.519
383.059	25.890	807.660	633.719
384.073	25.910	807.321	633.466
385.088	26.207	805.954	633.379
386.102	25.738	805.690	631.471
387.117	25.645	803.960	629.733
388.132	25.101	804.255	628.003
389.146	25.133	802.683	626.834
390.161	24.999	803.165	626.684
391.175	25.290	802.772	627.340
392.190	25.648	803.047	628.751
393.205	25.861	802.275	628.833
394.219	25.429	801.220	626.447
395.234	25.001	800.421	624.274
396.248	24.460	800.192	622.155
397.263	24.879	799.187	622.777
398.278	25.030	799.822	623.743
399.292	24.964	799.310	623.057
400.307	24.899	797.500	621.367
401.321	24.602	796.937	619.844
402.336	24.709	797.635	620.702
403.350	24.994	797.475	621.513
404.365	25.345	797.016	622.318
405.380	25.846	796.920	623.923
406.394	26.154	796.816	624.851
407.409	26.043	797.002	624.558
408.423	26.344	795.807	624.606
409.438	26.329	795.386	624.167
410.453	26.068	795.160	623.036
411.467	26.270	794.316	623.017
412.482	26.176	793.391	621.911
413.496	26.283	793.089	621.988
414.511	26.162	792.621	621.150
415.526	26.173	792.324	620.900
416.540	25.933	792.417	620.093
417.555	25.770	792.652	619.658
418.569	25.894	792.114	619.611
419.584	26.341	790.367	619.721
420.599	25.757	791.173	618.296
421.613	160.737	1369.440	1793.579
422.628	139.248	1453.713	1793.648
