DTS Sentinel unit serial number:	SN413079Multiplexer serial number:	ORYXHardware model number:	OX4-SRSoftware version number:	ORYX F/W v4.00 Oryx Data Collector v3.7.2.0data status	okinstallation	princeton_trtdifferential loss correction	single-endedforward channel	channel 3reverse channel	N/Adate	2019/09/18time	23:40:35forward acquisition time	60.00reverse acquisition time	0.00gamma	496.2192k internal	0.2346k external	0.2346temperature offset calibration	0.9989default loss term (dB/km)	0.3790temperature slope calibration	1.0000multiplexer offset coefficient	1.0000multiplexer slope coefficient	1.0000fibre end	0.00T internal ref (°C)	23.50T ext. ref 1 (°C)	0.75T ext. ref 2 (°C)	16.30length (m)	temperature (°C)	Stokes	anti-Stokes-747.200	800.000	-0.080	0.234
-746.185	-200.000	0.070	0.570
-745.171	-200.000	-0.008	0.115
-744.156	-106.724	-0.212	-0.047
-743.142	-2.683	0.317	0.222
-742.127	-58.030	-0.217	-0.094
-741.112	-200.000	-0.057	0.314
-740.098	-200.000	0.028	0.219
-739.083	800.000	-0.096	0.322
-738.069	412.949	-0.171	0.364
-737.054	800.000	0.019	-0.083
-736.039	-200.000	-0.345	-0.001
-735.025	-65.795	0.232	0.093
-734.010	-8.649	-0.121	0.081
-732.996	-39.557	-0.027	-0.014
-731.981	-75.649	0.154	0.055
-730.966	-158.819	0.133	0.008
-729.952	219.809	0.139	-0.222
-728.937	800.000	-0.091	-0.324
-727.923	-184.900	0.196	0.003
-726.908	-200.000	-0.071	-0.361
-725.894	-200.000	-0.031	-0.177
-724.879	-36.183	0.059	0.032
-723.864	-200.000	-0.002	-0.058
-722.850	-15.767	0.118	0.075
-721.835	494.190	-0.044	-0.100
-720.821	-39.866	0.206	0.107
-719.806	-200.000	-0.005	0.022
-718.791	0.524	-0.110	-0.078
-717.777	-200.000	0.041	0.275
-716.762	193.707	-0.086	0.130
-715.748	-98.857	0.134	-0.034
-714.733	-52.276	0.233	0.108
-713.718	800.000	-0.043	-0.135
-712.704	647.346	0.175	0.446
-711.689	74.394	0.188	-0.197
-710.675	496.431	-0.109	-0.250
-709.660	-61.976	0.188	-0.078
-708.645	-66.182	-0.194	-0.077
-707.631	48.041	0.297	-0.277
-706.616	-115.927	0.252	-0.047
-705.602	251.194	-0.037	0.063
-704.587	800.000	0.049	-0.158
-703.572	53.319	-0.096	-0.092
-702.558	17.267	-0.054	-0.043
-701.543	-151.452	0.180	-0.013
-700.529	-62.688	-0.070	0.029
-699.514	-200.000	0.057	-0.397
-698.499	-200.000	-0.053	-0.349
-697.485	-200.000	0.029	-0.508
-696.470	160.950	-0.123	-0.172
-695.456	269.474	0.176	0.309
-694.441	5.980	0.162	-0.120
-693.426	470.116	-0.055	0.123
-692.412	780.991	0.130	-0.356
-691.397	9.938	0.335	-0.254
-690.383	-104.987	-0.059	-0.014
-689.368	87.845	0.062	-0.068
-688.354	403.533	-0.169	-0.354
-687.339	-86.012	-0.118	-0.036
-686.324	-139.590	-0.364	0.039
-685.310	800.000	0.033	-0.136
-684.295	-93.797	0.062	-0.017
-683.281	18.649	-0.239	0.191
-682.266	-122.038	0.108	0.018
-681.251	-200.000	-0.033	0.173
-680.237	5.964	0.085	-0.063
-679.222	-86.317	0.392	-0.120
-678.208	375.684	-0.086	-0.176
-677.193	-71.409	-0.249	0.093
-676.178	148.449	0.278	-0.375
-675.164	-0.407	0.034	0.024
-674.149	800.000	-0.116	-0.364
-673.135	337.604	0.079	0.153
-672.120	-41.371	0.268	0.138
-671.105	-200.000	0.010	0.368
-670.091	-132.895	0.302	-0.038
-669.076	-81.952	0.220	0.072
-668.062	-118.490	0.184	-0.032
-667.047	74.594	-0.140	0.147
-666.032	-200.000	-0.023	0.140
-665.018	-200.000	0.007	-0.169
-664.003	-147.914	-0.194	-0.016
-662.989	-45.015	-0.270	-0.134
-661.974	99.724	-0.171	0.197
-660.959	-105.739	0.354	-0.080
-659.945	-69.669	0.378	-0.144
-658.930	34.285	0.329	0.286
-657.916	-200.000	-0.001	0.057
-656.901	-189.324	-0.102	-0.001
-655.886	-41.171	0.037	-0.019
-654.872	-200.000	0.016	-0.381
-653.857	-56.249	0.275	0.122
-652.843	44.517	-0.242	-0.222
-651.828	122.895	0.228	-0.284
-650.814	-81.791	-0.322	0.105
-649.799	800.000	-0.080	-0.256
-648.784	412.926	-0.126	-0.266
-647.770	106.758	0.218	0.258
-646.755	-87.979	-0.309	0.093
-645.741	800.000	0.079	-0.266
-644.726	362.563	0.054	-0.109
-643.711	322.297	0.030	0.057
-642.697	800.000	0.039	-0.138
-641.682	-194.233	-0.341	-0.003
-640.668	229.472	-0.090	0.147
-639.653	442.199	0.053	-0.115
-638.638	-200.000	0.058	-0.308
-637.624	59.546	-0.282	-0.277
-636.609	117.099	-0.137	-0.167
-635.595	-17.217	0.210	0.132
-634.580	-200.000	0.000	0.008
-633.565	-116.477	0.208	0.038
-632.551	43.311	-0.195	0.177
-631.536	-41.348	-0.014	-0.007
-630.522	15.586	0.139	-0.109
-629.507	-53.035	0.193	0.088
-628.492	800.000	0.067	-0.264
-627.478	-200.000	0.005	-0.098
-626.463	-85.443	-0.105	0.033
-625.449	13.393	-0.269	-0.207
-624.434	-150.572	0.208	0.016
-623.419	-123.113	-0.255	0.041
-622.405	-200.000	-0.004	0.066
-621.390	-55.610	-0.149	-0.067
-620.376	-9.621	-0.133	-0.088
-619.361	-132.731	0.253	0.032
-618.346	-139.739	-0.134	0.014
-617.332	-200.000	0.021	-0.301
-616.317	749.152	-0.037	-0.100
-615.303	584.191	0.086	-0.210
-614.288	40.440	-0.144	0.129
-613.273	-124.068	0.453	0.071
-612.259	59.503	0.118	0.116
-611.244	83.450	0.223	-0.242
-610.230	660.263	0.073	0.186
-609.215	734.658	-0.073	-0.194
-608.201	-102.113	0.279	0.067
-607.186	39.761	0.025	0.022
-606.171	28.240	0.247	-0.207
-605.157	-27.675	0.207	0.119
-604.142	-198.578	-0.288	0.002
-603.128	-108.192	-0.249	-0.053
-602.113	800.000	0.079	-0.322
-601.098	117.892	-0.265	0.324
-600.084	-115.461	-0.081	0.015
-599.069	-102.441	0.203	0.048
-598.055	103.372	0.226	0.264
-597.040	-199.521	0.384	0.002
-596.025	800.000	-0.034	0.103
-595.011	24.893	-0.242	0.199
-593.996	47.597	0.120	-0.112
-592.982	800.000	0.061	0.258
-591.967	555.832	-0.034	0.082
-590.952	-128.388	0.152	-0.021
-589.938	800.000	-0.054	-0.162
-588.923	78.141	-0.095	-0.101
-587.909	5.059	0.122	-0.089
-586.894	-168.117	-0.160	-0.006
-585.879	70.106	-0.148	0.151
-584.865	-114.386	-0.225	-0.043
-583.850	-40.875	0.058	-0.030
-582.836	-200.000	0.040	0.276
-581.821	-73.161	0.060	0.022
-580.806	-108.284	-0.418	0.090
-579.792	125.958	0.134	0.169
-578.777	198.870	0.211	-0.321
-577.763	494.382	-0.093	-0.211
-576.748	-103.425	0.191	-0.045
-575.733	-37.771	-0.224	0.118
-574.719	265.045	-0.130	0.226
-573.704	11.222	-0.391	-0.298
-572.690	-74.664	-0.334	-0.119
-571.675	-30.490	-0.102	0.057
-570.661	54.924	-0.111	0.106
-569.646	-61.284	-0.208	-0.087
-568.631	-17.979	-0.187	-0.116
-567.617	292.194	-0.115	0.208
-566.602	197.203	-0.049	0.075
-565.588	412.183	-0.169	-0.357
-564.573	-104.280	0.183	-0.042
-563.558	800.000	-0.081	0.256
-562.544	33.628	-0.057	0.049
-561.529	6.768	-0.189	-0.139
-560.515	224.110	0.106	0.171
-559.500	15.323	0.149	0.116
-558.485	-130.779	-0.270	0.036
-557.471	-101.339	0.179	-0.043
-556.456	314.664	0.036	-0.068
-555.442	-108.604	0.261	0.056
-554.427	481.768	-0.121	0.272
-553.412	177.456	0.080	-0.115
-552.398	77.027	0.048	-0.050
-551.383	232.861	-0.172	-0.281
-550.369	-167.372	-0.295	0.012
-549.354	210.669	0.086	0.133
-548.339	-200.000	0.039	-0.183
-547.325	-52.900	-0.200	0.091
-546.310	356.955	-0.151	-0.299
-545.296	56.323	-0.161	-0.156
-544.281	-200.000	-0.007	-0.349
-543.266	-103.204	0.104	0.024
-542.252	38.715	0.088	0.078
-541.237	62.810	0.205	0.203
-540.223	91.713	-0.115	-0.128
-539.208	101.658	-0.052	-0.060
-538.193	-0.779	-0.222	0.156
-537.179	-124.858	0.172	0.026
-536.164	0.115	0.270	0.191
-535.150	148.477	-0.028	-0.037
-534.135	-73.704	0.222	0.080
-533.121	-126.669	-0.203	0.030
-532.106	-103.457	0.229	-0.053
-531.091	-119.644	-0.292	-0.050
-530.077	800.000	-0.012	-0.033
-529.062	800.000	0.102	-0.301
-528.048	22.175	0.144	0.117
-527.033	68.557	0.103	0.105
-526.018	800.000	0.041	-0.174
-525.004	-82.548	-0.170	0.055
-523.989	77.880	0.162	0.171
-522.975	367.733	-0.150	0.300
-521.960	-154.846	0.386	0.025
-520.945	100.614	0.029	-0.034
-519.931	60.717	0.084	0.083
-518.916	270.715	0.091	0.158
-517.902	215.364	-0.130	0.205
-516.887	-104.122	-0.309	-0.071
-515.872	-69.798	0.110	-0.042
-514.858	-153.839	-0.330	0.022
-513.843	-185.090	0.194	0.003
-512.829	-100.418	0.322	-0.079
-511.814	-200.000	-0.007	0.211
-510.799	-200.000	-0.052	0.271
-509.785	-70.293	0.045	-0.017
-508.770	-200.000	-0.070	-0.348
-507.756	-23.808	0.033	-0.019
-506.741	243.306	0.115	-0.191
-505.726	-200.000	0.065	-0.319
-504.712	132.615	-0.105	0.134
-503.697	-200.000	-0.023	-0.177
-502.683	800.000	0.158	0.481
-501.668	66.879	-0.313	0.315
-500.653	157.491	0.120	-0.164
-499.639	-200.000	0.060	-0.478
-498.624	-124.290	-0.053	-0.008
-497.610	-120.661	0.155	0.026
-496.595	20.945	-0.293	-0.236
-495.581	-23.632	-0.283	-0.168
-494.566	216.979	0.093	0.147
-493.551	776.233	0.058	0.158
-492.537	95.221	0.024	-0.027
-491.522	317.243	0.122	-0.228
-490.508	126.280	0.152	0.191
-489.493	-200.000	0.001	-0.197
-488.478	-134.192	-0.320	-0.039
-487.464	69.736	-0.090	0.092
-486.449	112.020	0.141	-0.168
-485.435	-200.000	-0.052	0.280
-484.420	86.904	0.206	0.226
-483.405	226.674	-0.153	-0.245
-482.391	-47.820	-0.133	-0.064
-481.376	-103.772	0.151	-0.035
-480.362	-106.922	-0.112	0.025
-479.347	31.161	0.246	0.209
-478.332	309.204	-0.131	-0.242
-477.318	370.004	-0.092	-0.184
-476.303	-38.687	-0.178	0.093
-475.289	-37.456	-0.184	0.097
-474.274	-15.237	0.348	0.220
-473.259	-153.427	-0.184	0.013
-472.245	303.007	-0.078	-0.142
-471.230	-0.856	0.318	0.223
-470.216	331.623	0.166	0.316
-469.201	278.898	0.128	-0.225
-468.186	-117.686	-0.253	-0.045
-467.172	-130.295	-0.113	-0.015
-466.157	-200.000	-0.042	0.184
-465.143	-43.924	0.115	-0.057
-464.128	-16.522	-0.120	-0.075
-463.113	-200.000	0.001	0.030
-462.099	112.803	0.064	-0.077
-461.084	181.915	0.080	0.116
-460.070	350.449	-0.123	-0.240
-459.055	-71.189	0.240	-0.089
-458.040	-77.187	-0.480	0.165
-457.026	743.710	-0.064	-0.170
-456.011	-7.092	-0.097	0.065
-454.997	-139.774	-0.495	0.052
-453.982	-20.284	-0.133	0.081
-452.968	42.735	-0.108	-0.097
-451.953	456.468	0.123	-0.271
-450.938	-200.000	-0.027	-0.181
-449.924	300.395	0.189	0.344
-448.909	-57.140	-0.156	-0.068
-447.895	86.595	0.113	-0.123
-446.880	-7.408	-0.241	-0.161
-445.865	800.000	0.017	-0.064
-444.851	145.015	-0.142	-0.187
-443.836	39.044	0.189	0.167
-442.822	-22.522	-0.192	0.115
-441.807	781.457	0.079	-0.214
-440.792	405.925	-0.097	-0.203
-439.778	-77.996	-0.073	0.025
-438.763	113.829	0.129	-0.154
-437.749	219.336	-0.151	-0.238
-436.734	800.000	0.026	-0.095
-435.719	225.391	0.238	-0.381
-434.705	-58.119	-0.115	0.049
-433.690	-161.247	0.049	-0.003
-432.676	27.576	0.061	0.051
-431.661	800.000	-0.081	-0.296
-430.646	0.335	-0.259	0.183
-429.632	3.722	0.264	0.190
-428.617	800.000	0.027	-0.113
-427.603	-200.000	0.017	0.286
-426.588	145.212	0.141	0.186
-425.573	92.550	0.278	-0.310
-424.559	-200.000	-0.011	-0.116
-423.544	-77.603	0.350	-0.120
-422.530	286.004	0.175	-0.312
-421.515	109.932	0.166	-0.197
-420.500	-99.740	-0.166	0.041
-419.486	-40.560	-0.166	0.085
-418.471	-160.045	0.321	0.017
-417.457	668.425	-0.085	0.217
-416.442	-112.868	0.130	-0.025
-415.428	-30.977	0.210	-0.117
-414.413	21.697	0.099	0.080
-413.398	800.000	-0.048	-0.165
-412.384	302.399	0.102	0.186
-411.369	-75.767	0.193	0.068
-410.355	-16.459	-0.178	-0.111
-409.340	189.172	-0.181	0.268
-408.325	-200.000	-0.089	0.000
-407.311	800.000	0.051	0.168
-406.296	-76.164	-0.011	-0.004
-405.282	800.000	-0.087	0.296
-404.267	8.584	-0.052	-0.039
-403.252	71.725	-0.036	-0.036
-402.238	387.006	0.087	0.178
-401.223	4.521	0.247	-0.179
-400.209	76.366	0.164	0.171
-399.194	-124.219	0.287	0.044
-398.179	267.455	-0.172	0.296
-397.165	-12.176	-0.067	-0.043
-396.150	434.776	0.137	-0.293
-395.136	-7.960	0.142	0.094
-394.121	92.796	-0.251	-0.280
-393.106	800.000	0.030	0.116
-392.092	293.629	-0.042	0.076
-391.077	-48.498	-0.074	0.035
-390.063	-102.896	0.314	-0.074
-389.048	-88.243	-0.305	0.090
-388.033	800.000	0.077	0.313
-387.019	-55.959	-0.365	-0.161
-386.004	-200.000	0.019	0.280
-384.990	39.004	0.139	0.123
-383.975	-54.118	0.304	0.136
-382.960	36.605	0.121	-0.106
-381.946	-200.000	0.027	0.431
-380.931	-17.534	0.136	0.085
-379.917	-96.595	-0.270	0.070
-378.902	800.000	-0.017	0.071
-377.888	-74.316	-0.250	0.089
-376.873	800.000	0.068	0.229
-375.858	-19.200	-0.189	0.116
-374.844	258.601	0.077	-0.131
-373.829	-151.502	-0.126	0.009
-372.815	-41.469	0.237	-0.120
-371.800	-200.000	0.054	-0.499
-370.785	-200.000	-0.013	0.365
-369.771	800.000	-0.082	-0.278
-368.756	800.000	0.056	0.173
-367.742	-200.000	0.028	0.167
-366.727	-60.114	0.346	0.145
-365.712	-200.000	0.012	0.161
-364.698	-150.962	-0.074	0.005
-363.683	-18.664	-0.189	0.116
-362.669	-39.651	-0.095	0.049
-361.654	-135.450	0.238	-0.028
-360.639	-200.000	0.005	0.258
-359.625	120.805	-0.261	0.319
-358.610	-27.732	0.108	-0.062
-357.596	-200.000	-0.003	-0.033
-356.581	248.571	0.128	-0.214
-355.566	-133.233	-0.172	-0.021
-354.552	153.514	-0.051	0.068
-353.537	742.259	-0.053	-0.140
-352.523	189.858	0.110	-0.162
-351.508	-107.779	-0.153	0.033
-350.493	-200.000	0.009	-0.327
-349.479	-127.651	0.296	0.042
-348.464	-84.989	-0.184	-0.057
-347.450	-200.000	0.019	-0.131
-346.435	-200.000	0.013	0.085
-345.420	204.951	0.211	0.322
-344.406	-9.440	-0.285	-0.187
-343.391	33.781	0.126	-0.108
-342.377	97.807	0.173	-0.196
-341.362	-97.791	-0.084	0.021
-340.348	-16.351	0.171	0.107
-339.333	-63.124	-0.082	0.033
-338.318	168.865	-0.155	0.217
-337.304	435.713	0.026	0.056
-336.289	-200.000	-0.025	-0.124
-335.275	391.565	-0.107	-0.219
-334.260	-12.297	0.213	-0.137
-333.245	61.403	-0.128	0.125
-332.231	800.000	-0.046	0.174
-331.216	189.683	-0.037	-0.055
-330.202	-27.710	-0.195	-0.111
-329.187	-40.312	0.292	0.150
-328.172	-37.280	-0.101	-0.053
-327.158	28.625	0.035	-0.029
-326.143	-93.025	0.233	0.064
-325.129	-59.683	-0.183	0.077
-324.114	-101.020	-0.109	-0.026
-323.099	110.543	-0.103	0.122
-322.085	800.000	0.088	-0.255
-321.070	-100.799	-0.329	0.080
-320.056	-154.374	0.110	-0.007
-319.041	448.702	-0.012	-0.025
-318.026	-7.192	0.278	-0.186
-317.012	213.851	-0.056	-0.087
-315.997	-200.000	0.012	0.187
-314.983	800.000	-0.095	0.298
-313.968	-108.111	-0.273	0.058
-312.953	-200.000	0.014	-0.073
-311.939	535.093	-0.103	0.241
-310.924	124.963	-0.108	-0.134
-309.910	17.291	0.140	-0.110
-308.895	-85.084	0.395	-0.122
-307.880	95.055	-0.059	-0.066
-306.866	-68.748	0.336	0.128
-305.851	-10.846	-0.207	0.134
-304.837	-200.000	-0.002	-0.302
-303.822	261.474	-0.045	0.077
-302.807	770.752	-0.065	-0.173
-301.793	-200.000	0.012	0.150
-300.778	-157.426	0.257	0.015
-299.764	-200.000	0.030	0.461
-298.749	800.000	-0.046	0.134
-297.735	-59.543	-0.158	0.067
-296.720	305.142	0.072	0.131
-295.705	800.000	0.090	0.355
-294.691	800.000	0.059	-0.166
-293.676	-195.391	-0.039	0.000
-292.662	161.476	-0.036	-0.049
-291.647	800.000	0.050	-0.211
-290.632	-86.029	0.215	-0.065
-289.618	800.000	-0.024	0.086
-288.603	426.149	0.073	0.155
-287.589	-33.200	0.120	0.065
-286.574	-31.887	-0.221	-0.122
-285.559	23.341	0.219	-0.177
-284.545	-34.539	0.234	0.126
-283.530	-147.965	0.519	0.042
-282.516	-200.000	-0.042	0.240
-281.501	-141.761	-0.182	-0.018
-280.486	150.369	-0.307	0.410
-279.472	-200.000	0.000	-0.147
-278.457	-200.000	0.064	-0.453
-277.443	-25.790	0.239	-0.138
-276.428	-59.531	0.123	0.052
-275.413	-82.439	-0.191	-0.061
-274.399	35.486	-0.145	-0.125
-273.384	446.734	-0.095	0.205
-272.370	637.423	0.087	0.216
-271.355	-200.000	0.018	0.111
-270.340	800.000	-0.090	0.287
-269.326	246.653	-0.103	-0.170
-268.311	-23.123	-0.389	-0.230
-267.297	-18.923	0.382	-0.233
-266.282	-97.281	0.509	0.130
-265.267	-200.000	-0.047	0.307
-264.253	-72.191	-0.164	-0.060
-263.238	494.442	-0.087	0.195
-262.224	223.906	0.051	-0.080
-261.209	-24.917	-0.235	0.137
-260.195	-96.029	0.268	0.070
-259.180	428.721	0.049	-0.104
-258.165	-152.963	-0.335	0.023
-257.151	-200.000	-0.022	-0.232
-256.136	1.737	0.178	-0.126
-255.122	-200.000	-0.021	-0.339
-254.107	211.047	0.077	0.118
-253.092	-95.586	-0.233	-0.061
-252.078	44.593	0.084	-0.076
-251.063	800.000	-0.129	0.394
-250.049	800.000	0.110	-0.403
-249.034	-81.638	0.206	-0.066
-248.019	63.788	-0.015	0.015
-247.005	-119.691	-0.277	-0.047
-245.990	448.909	0.026	-0.056
-244.976	-154.590	0.306	-0.020
-243.961	285.604	0.172	0.304
-242.946	800.000	0.090	-0.273
-241.932	372.725	-0.211	-0.420
-240.917	-200.000	0.011	-0.115
-239.903	-180.055	0.387	0.008
-238.888	2.046	0.163	-0.115
-237.873	386.564	-0.018	-0.036
-236.859	174.346	0.191	0.270
-235.844	545.451	0.155	0.362
-234.830	64.531	-0.152	0.150
-233.815	139.221	0.240	-0.309
-232.800	17.339	0.181	0.141
-231.786	-200.000	-0.006	0.072
-230.771	-41.625	-0.318	0.160
-229.757	-200.000	0.068	0.446
-228.742	233.644	-0.038	0.061
-227.727	-174.744	0.191	-0.005
-226.713	-108.617	0.180	-0.038
-225.698	-200.000	-0.008	-0.207
-224.684	185.708	0.157	-0.229
-223.669	-72.417	-0.447	-0.162
-222.655	26.903	-0.034	0.028
-221.640	65.055	0.111	-0.110
-220.625	-200.000	0.077	-0.482
-219.611	-100.310	-0.257	-0.062
-218.596	-59.946	-0.118	0.049
-217.582	-18.856	0.232	-0.142
-216.567	800.000	-0.058	-0.159
-215.552	-200.000	0.020	0.201
-214.538	-102.626	0.072	0.017
-213.523	-24.849	0.258	-0.150
-212.509	800.000	0.031	-0.108
-211.494	176.264	-0.061	0.087
-210.479	-29.002	-0.275	-0.155
-209.465	598.035	0.119	-0.289
-208.450	-170.216	0.142	-0.005
-207.436	283.353	0.068	0.120
-206.421	243.411	-0.037	-0.060
-205.406	-63.304	0.292	-0.118
-204.392	-162.697	0.083	0.004
-203.377	-64.209	0.435	-0.174
-202.363	-14.205	-0.128	0.081
-201.348	-150.219	-0.119	-0.009
-200.333	451.771	-0.117	-0.253
-199.319	-140.573	-0.272	0.028
-198.304	-38.376	-0.154	0.080
-197.290	-133.912	-0.083	-0.010
-196.275	-150.250	0.249	0.019
-195.260	-89.609	-0.108	0.031
-194.246	69.399	0.136	0.137
-193.231	86.798	0.124	0.134
-192.217	800.000	0.069	0.222
-191.202	-94.828	-0.128	-0.034
-190.187	-100.757	-0.102	-0.025
-189.173	-200.000	-0.014	0.092
-188.158	800.000	0.068	0.238
-187.144	-82.382	-0.366	0.116
-186.129	800.000	0.045	0.187
-185.114	81.833	-0.258	0.273
-184.100	99.692	0.156	-0.177
-183.085	800.000	-0.090	0.318
-182.071	-200.000	0.038	-0.350
-181.056	-200.000	0.032	0.142
-180.042	800.000	0.084	0.345
-179.027	-48.392	0.271	-0.127
-178.012	237.662	-0.092	-0.150
-176.998	-87.167	-0.158	-0.047
-175.983	-80.700	0.162	0.053
-174.969	122.737	0.080	0.097
-173.954	-55.451	0.159	-0.070
-172.939	-200.000	-0.031	-0.208
-171.925	160.125	-0.203	0.277
-170.910	133.360	-0.188	0.238
-169.896	800.000	0.145	-0.425
-168.881	800.000	-0.149	-0.475
-167.866	120.633	-0.139	-0.168
-166.852	634.300	0.009	-0.023
-165.837	800.000	-0.069	0.237
-164.823	800.000	0.038	0.126
-163.808	157.249	-0.227	0.307
-162.793	10.843	0.071	-0.053
-161.779	165.252	-0.168	-0.232
-160.764	-200.000	-0.009	0.130
-159.750	29.726	-0.163	0.135
-158.735	342.435	0.189	0.361
-157.720	-89.534	-0.239	-0.069
-156.706	-22.591	-0.238	0.140
-155.691	-200.000	-0.010	0.292
-154.677	-42.458	-0.243	-0.121
-153.662	11.620	0.211	0.158
-152.647	553.765	-0.079	0.185
-151.633	-200.000	-0.005	0.051
-150.618	792.208	0.180	0.485
-149.604	-4.791	-0.224	-0.151
-148.589	-80.340	0.536	-0.175
-147.574	108.981	-0.239	-0.279
-146.560	62.279	0.166	0.162
-145.545	-80.668	0.163	0.053
-144.531	-200.000	0.011	-0.154
-143.516	-57.832	0.207	-0.088
-142.502	216.717	0.034	0.053
-141.487	-200.000	0.060	0.297
-140.472	162.555	-0.065	0.089
-139.458	-155.850	0.145	0.009
-138.443	676.782	0.016	-0.041
-137.429	-149.515	0.272	0.021
-136.414	133.998	0.128	0.162
-135.399	76.634	0.033	-0.035
-134.385	23.380	-0.227	-0.182
-133.370	141.558	-0.212	0.274
-132.356	221.459	0.061	-0.096
-131.341	-76.543	0.055	0.019
-130.326	-26.711	0.223	0.128
-129.312	-73.787	-0.223	0.079
-128.297	-83.641	0.187	0.058
-127.283	259.325	-0.127	0.214
-126.268	291.377	-0.135	0.239
-125.253	-55.373	-0.373	0.163
-124.239	-151.184	0.187	0.014
-123.224	-70.408	-0.032	0.012
-122.210	-33.859	0.244	-0.131
-121.195	-129.483	0.199	0.027
-120.180	-78.391	-0.159	0.053
-119.166	-51.921	0.277	0.126
-118.151	-143.664	-0.218	0.020
-117.137	-129.814	0.286	0.038
-116.122	800.000	0.053	0.157
-115.107	-146.524	-0.203	-0.017
-114.093	-34.152	-0.145	0.078
-113.078	456.893	0.084	-0.181
-112.064	312.114	0.105	0.192
-111.049	-200.000	0.014	-0.092
-110.034	-110.045	0.410	0.084
-109.020	-31.994	-0.172	0.094
-108.005	248.867	-0.144	-0.237
-106.991	-84.191	-0.155	0.048
-105.976	-200.000	-0.009	0.096
-104.962	-105.320	0.296	-0.066
-103.947	209.966	-0.059	0.091
-102.932	3.656	0.141	-0.100
-101.918	800.000	0.027	0.101
-100.903	-66.577	-0.219	-0.085
-99.889	-87.400	-0.274	0.081
-98.874	-200.000	-0.007	0.191
-97.859	-15.921	0.168	-0.105
-96.845	800.000	-0.018	-0.076
-95.830	48.056	-0.096	-0.087
-94.816	-26.604	0.081	0.046
-93.801	-115.808	0.310	-0.056
-92.786	-112.646	-0.357	-0.069
-91.772	67.531	-0.115	0.114
-90.757	88.241	0.067	-0.072
-89.743	-129.458	-0.073	0.010
-88.728	-101.477	-0.042	0.010
-87.713	-31.809	0.635	0.347
-86.699	58.880	-0.199	0.191
-85.684	91.744	0.069	-0.075
-84.670	-64.548	0.240	-0.095
-83.655	-93.531	-0.125	-0.034
-82.640	379.121	0.175	0.349
-81.626	-200.000	-0.028	-0.481
-80.611	-200.000	0.320	0.001
-79.597	800.000	-0.095	0.258
-78.582	-118.131	-0.291	-0.051
-77.567	95.383	0.034	0.037
-76.553	-73.840	0.210	-0.074
-75.538	57.964	0.282	0.269
-74.524	166.915	-0.066	0.091
-73.509	393.796	-0.083	-0.169
-72.494	-5.707	-0.268	0.179
-71.480	800.000	0.099	0.371
-70.465	-117.105	0.304	0.054
-69.451	689.871	-0.051	-0.131
-68.436	728.472	-0.075	0.196
-67.422	800.000	-0.201	-0.628
-66.407	-133.472	-0.310	0.038
-65.392	-143.053	0.116	0.011
-64.378	450.175	-0.068	0.146
-63.363	-31.133	0.133	-0.073
-62.349	325.341	0.181	0.337
-61.334	98.617	-1.101	-1.236
-60.319	19.983	0.708	0.556
-59.305	800.000	-0.419	-1.420
-58.290	518.036	0.550	1.254
-57.276	555.848	0.666	1.562
-56.261	-200.000	126.316	679.591
-55.246	428.875	1582.566	3329.485
-54.232	142.781	2734.920	3538.279
-53.217	96.494	2172.569	2420.601
-52.203	34.124	1691.064	1434.675
-51.188	26.648	1509.150	1229.764
-50.173	24.584	1485.614	1196.723
-49.159	49.417	1557.835	1426.640
-48.144	46.177	1569.902	1415.368
-47.130	26.666	1518.515	1237.316
-46.115	23.778	1502.419	1204.605
-45.100	23.575	1499.252	1200.648
-44.086	23.558	1496.803	1198.519
-43.071	23.423	1495.666	1196.652
-42.057	23.497	1493.804	1195.616
-41.042	23.517	1491.876	1194.157
-40.027	23.403	1490.796	1192.478
-39.013	23.454	1489.122	1191.437
-37.998	23.462	1488.313	1190.794
-36.984	23.459	1487.096	1189.751
-35.969	23.534	1485.374	1188.830
-34.954	23.549	1483.467	1187.355
-33.940	23.440	1482.518	1185.824
-32.925	23.495	1481.480	1185.313
-31.911	23.592	1479.766	1184.544
-30.896	23.455	1478.972	1182.943
-29.881	23.587	1477.524	1182.617
-28.867	23.576	1476.228	1181.460
-27.852	23.487	1474.930	1179.782
-26.838	23.511	1473.611	1178.841
-25.823	23.582	1471.955	1177.945
-24.809	23.454	1470.614	1175.974
-23.794	23.489	1468.572	1174.522
-22.779	23.503	1467.424	1173.656
-21.765	23.545	1466.617	1173.240
-20.750	23.584	1465.498	1172.556
-19.736	23.575	1464.610	1171.740
-18.721	23.542	1463.498	1170.583
-17.706	23.422	1462.653	1169.071
-16.692	23.445	1461.226	1168.033
-15.677	23.523	1460.283	1167.748
-14.663	23.479	1459.562	1166.839
-13.648	23.568	1457.993	1166.122
-12.633	23.512	1457.633	1165.417
-11.619	23.461	1456.727	1164.311
-10.604	23.426	1456.053	1163.500
-9.590	23.523	1455.205	1163.413
-8.575	23.549	1453.819	1162.426
-7.560	23.465	1453.019	1161.189
-6.546	23.557	1452.411	1161.260
-5.531	23.431	1451.852	1159.941
-4.517	23.437	1450.422	1158.794
-3.502	23.441	1449.636	1158.145
-2.487	23.476	1448.706	1157.586
-1.473	23.529	1447.260	1156.732
-0.458	23.370	1446.848	1155.316
0.556	22.441	1435.645	1143.281
1.571	18.972	1411.254	1101.577
2.586	15.221	1349.364	1030.158
3.600	13.461	1266.329	956.519
4.615	12.443	1223.005	918.027
5.629	10.958	1167.203	868.145
6.644	5.836	1087.349	783.160
7.659	1.443	1051.999	736.378
8.673	1.000	1046.931	730.629
9.688	0.662	1043.888	726.814
10.702	0.696	1042.770	726.134
11.717	0.652	1040.114	724.010
12.731	2.418	1041.136	733.125
13.746	8.393	1048.806	767.222
14.761	14.626	1056.932	803.184
15.775	17.246	1059.612	817.772
16.790	17.114	1058.032	815.845
17.804	16.016	1056.407	809.253
18.819	15.185	1054.687	803.876
19.834	14.827	1052.864	800.698
20.848	14.569	1052.008	798.746
21.863	14.285	1051.282	796.761
22.877	13.930	1051.191	794.925
23.892	13.882	1049.515	793.358
24.907	13.736	1049.039	792.230
25.921	13.749	1048.090	791.504
26.936	13.873	1047.267	791.405
27.950	13.823	1046.883	790.807
28.965	13.773	1046.473	790.191
29.980	13.962	1045.371	790.188
30.994	13.964	1044.274	789.299
32.009	13.940	1043.282	788.365
33.023	13.965	1042.664	787.945
34.038	13.979	1042.266	787.642
35.053	14.052	1041.296	787.184
36.067	14.020	1039.904	785.908
37.082	13.866	1039.786	785.023
38.096	13.889	1038.914	784.405
39.111	13.969	1038.027	784.041
40.126	13.970	1037.306	783.433
41.140	13.933	1036.303	782.431
42.155	13.898	1035.019	781.228
43.169	13.872	1034.411	780.577
44.184	13.747	1033.381	779.148
45.199	13.777	1032.095	778.246
46.213	13.854	1031.299	777.939
47.228	13.815	1030.494	777.082
48.242	13.840	1029.014	776.015
49.257	13.803	1028.122	775.100
50.271	14.035	1027.240	775.448
51.286	13.923	1026.914	774.613
52.301	13.926	1025.786	773.704
53.315	13.929	1025.073	773.113
54.330	13.787	1024.414	771.889
55.344	13.872	1023.057	771.190
56.359	13.826	1022.047	770.147
57.374	13.733	1021.765	769.438
58.388	13.879	1020.772	769.298
59.403	13.760	1020.315	768.335
60.417	13.805	1019.120	767.572
61.432	13.792	1019.025	767.374
62.447	13.704	1018.337	766.381
63.461	13.803	1017.082	765.828
64.476	13.793	1016.495	765.269
65.490	13.772	1015.032	764.004
66.505	13.760	1014.276	763.312
67.520	13.636	1013.999	762.468
68.534	13.721	1013.395	762.333
69.549	13.772	1012.011	761.459
70.563	13.790	1011.237	760.894
71.578	13.870	1010.889	760.930
72.593	13.694	1009.753	759.202
73.607	13.759	1008.693	758.638
74.622	13.696	1008.204	757.914
75.636	13.573	1007.236	756.556
76.651	13.648	1006.472	756.259
77.666	13.737	1005.755	756.057
78.680	13.684	1005.398	755.480
79.695	13.756	1004.458	755.037
80.709	13.896	1003.791	755.105
81.724	13.740	1003.123	753.826
82.739	13.836	1002.317	753.592
83.753	13.861	1001.874	753.302
84.768	13.797	1001.346	752.551
85.782	13.928	1000.027	752.087
86.797	14.005	999.014	751.606
87.812	13.954	998.437	750.873
88.826	13.846	998.121	750.081
89.841	13.855	996.910	749.144
90.855	13.934	995.942	748.707
91.870	13.933	995.387	748.219
92.884	13.964	994.590	747.697
93.899	13.915	994.082	747.026
94.914	13.897	993.630	746.538
95.928	14.032	992.611	746.315
96.943	14.034	992.192	745.939
97.957	14.091	991.172	745.363
98.972	13.995	990.472	744.342
99.987	13.955	989.585	743.430
101.001	14.029	988.722	743.048
102.016	14.056	988.100	742.634
103.030	14.125	987.048	742.088
104.045	14.039	986.211	741.008
105.060	14.094	984.886	740.190
106.074	13.897	984.209	738.740
107.089	13.886	983.241	737.900
108.103	13.985	982.501	737.721
109.118	13.910	981.927	736.888
110.133	13.766	980.463	735.087
111.147	13.704	980.137	734.503
112.162	13.931	979.078	734.650
113.176	13.880	978.080	733.612
114.191	13.942	977.669	733.511
115.206	13.965	976.615	732.757
116.220	13.990	975.345	731.849
117.235	13.940	975.160	731.424
118.249	13.975	973.862	730.540
119.264	13.938	973.313	729.904
120.279	13.878	972.368	728.866
121.293	13.886	971.474	728.165
122.308	13.947	970.776	727.848
123.322	13.896	970.155	727.094
124.337	13.832	969.463	726.228
125.352	13.943	968.011	725.561
126.366	14.025	966.561	724.770
127.381	13.871	965.665	723.362
128.395	13.937	964.566	722.761
129.410	13.868	963.828	721.846
130.424	13.979	962.994	721.637
131.439	14.040	961.746	720.903
132.454	13.867	961.515	719.917
133.468	13.988	960.667	719.742
134.483	13.969	960.194	719.241
135.497	13.882	959.401	718.210
136.512	13.856	959.041	717.763
137.527	13.866	957.977	716.948
138.541	13.867	957.198	716.304
139.556	13.901	956.319	715.729
140.570	13.853	955.685	714.985
141.585	13.996	954.520	714.665
142.600	14.008	954.320	714.503
143.614	14.041	953.192	713.737
144.629	14.111	952.592	713.527
145.643	14.034	952.090	712.757
146.658	14.082	951.211	712.240
147.673	14.018	950.167	711.121
148.687	13.983	949.223	710.203
149.702	13.957	948.460	709.458
150.716	13.983	947.722	708.954
151.731	14.016	946.632	708.217
152.746	14.109	945.822	707.945
153.760	14.032	945.407	707.242
154.775	13.927	944.766	706.254
155.789	14.164	943.706	706.406
156.804	14.124	942.901	705.571
157.819	14.096	942.303	704.942
158.833	14.105	941.564	704.368
159.848	14.122	941.333	704.204
160.862	14.207	940.457	703.847
161.877	14.330	939.307	703.442
162.892	14.192	938.531	702.218
163.906	14.215	937.899	701.778
164.921	14.210	937.347	701.282
165.935	14.127	935.988	699.854
166.950	14.275	935.098	699.748
167.964	14.271	934.655	699.338
168.979	14.279	933.357	698.340
169.994	14.251	932.423	697.461
171.008	14.262	931.718	696.919
172.023	14.311	931.015	696.536
173.037	14.353	930.300	696.113
174.052	14.217	929.713	695.048
175.067	14.317	929.188	695.010
176.081	14.293	928.402	694.261
177.096	14.326	927.389	693.577
178.110	14.216	926.660	692.513
179.125	14.329	925.729	692.228
180.140	14.267	924.702	691.141
181.154	14.399	924.395	691.398
182.169	14.397	923.567	690.708
183.183	14.390	923.153	690.308
184.198	14.386	922.460	689.711
185.213	14.327	921.994	689.060
186.227	14.405	921.243	688.759
187.242	14.508	920.477	688.552
188.256	14.459	919.997	687.930
189.271	14.644	919.191	688.026
190.286	14.548	918.389	686.970
191.300	14.566	917.109	686.028
192.315	14.407	917.142	685.336
193.329	14.383	916.354	684.589
194.344	14.472	915.396	684.180
195.359	14.368	915.168	683.521
196.373	14.543	914.569	683.730
197.388	14.466	914.045	682.963
198.402	14.568	913.292	682.758
199.417	14.573	913.074	682.553
200.432	14.662	912.015	682.066
201.446	14.698	911.921	682.084
202.461	14.708	911.437	681.701
203.475	14.825	910.686	681.556
204.490	14.822	910.003	680.974
205.504	14.938	909.115	680.721
206.519	14.858	908.461	679.844
207.534	14.684	907.768	678.559
208.548	14.654	907.486	678.165
209.563	14.747	906.588	677.812
210.577	14.746	906.144	677.416
211.592	14.702	905.570	676.748
212.607	14.947	904.642	676.988
213.621	14.900	904.273	676.461
214.636	14.847	903.478	675.594
215.650	14.897	902.815	675.240
216.665	14.894	902.085	674.622
217.680	14.845	901.718	674.090
218.694	14.965	901.333	674.226
219.709	14.986	900.421	673.569
220.723	15.029	899.912	673.298
221.738	15.094	899.088	672.885
222.753	14.993	898.714	672.140
223.767	15.032	897.689	671.473
224.782	14.921	897.287	670.665
225.796	14.972	896.536	670.249
226.811	15.047	895.719	669.880
227.826	15.193	894.794	669.712
228.840	15.015	894.632	668.819
229.855	14.962	894.056	668.119
230.869	15.085	892.852	667.650
231.884	15.034	892.297	666.974
232.899	15.109	891.627	666.714
233.913	15.016	891.119	665.901
234.928	15.105	890.215	665.522
235.942	15.071	889.811	665.026
236.957	15.090	889.056	664.481
237.972	15.125	888.628	664.240
238.986	15.060	887.642	663.186
240.001	15.127	887.062	662.959
241.015	15.230	886.157	662.631
242.030	15.229	885.673	662.207
243.045	15.157	885.361	661.631
244.059	15.227	884.496	661.202
245.074	15.185	883.965	660.581
246.088	15.232	883.234	660.163
247.103	15.265	882.826	659.927
248.117	15.371	881.734	659.469
249.132	15.335	881.586	659.159
250.147	15.425	881.003	659.018
251.161	15.469	880.225	658.550
252.176	15.522	879.379	658.065
253.190	15.505	878.892	657.577
254.205	15.431	878.440	656.892
255.220	15.612	877.507	656.845
256.234	15.561	876.942	656.164
257.249	15.667	876.195	655.959
258.263	15.685	875.530	655.473
259.278	15.640	874.784	654.681
260.293	15.508	875.213	654.430
261.307	15.661	874.478	654.418
262.322	15.600	873.661	653.514
263.336	15.656	873.274	653.383
264.351	15.774	872.644	653.313
265.366	15.804	871.501	652.514
266.380	15.743	870.971	651.823
267.395	15.817	870.507	651.708
268.409	15.858	869.570	651.105
269.424	15.804	868.995	650.407
270.439	15.833	868.286	649.931
271.453	15.740	867.834	649.179
272.468	15.822	866.592	648.507
273.482	15.752	866.300	647.960
274.497	15.743	866.070	647.697
275.512	15.702	865.474	647.036
276.526	16.052	863.942	647.177
277.541	15.840	863.883	646.263
278.555	15.963	863.077	646.075
279.570	15.891	862.730	645.481
280.585	15.992	862.218	645.429
281.599	15.972	861.591	644.824
282.614	16.032	860.957	644.521
283.628	16.051	860.274	644.026
284.643	15.985	859.845	643.396
285.657	15.933	859.355	642.776
286.672	16.182	858.482	643.013
287.687	15.973	858.636	642.276
288.701	16.096	857.907	642.142
289.716	16.012	857.230	641.258
290.730	16.050	856.420	640.742
291.745	16.178	855.726	640.651
292.760	16.102	854.934	639.715
293.774	16.149	854.398	639.435
294.789	16.187	853.881	639.136
295.803	16.252	853.002	638.667
296.818	16.220	852.630	638.209
297.833	16.165	851.963	637.445
298.847	16.352	851.265	637.574
299.862	16.317	850.269	636.638
300.876	16.195	850.272	636.123
301.891	16.306	849.340	635.791
302.906	16.264	849.111	635.402
303.920	16.486	847.745	635.160
304.935	16.462	847.288	634.670
305.949	16.489	847.152	634.613
306.964	16.412	846.588	633.848
307.979	16.337	845.452	632.660
308.993	16.524	845.180	633.100
310.008	16.444	845.075	632.666
311.022	16.504	844.353	632.293
312.037	16.550	843.365	631.669
313.052	16.543	842.988	631.304
314.066	16.363	842.806	630.443
315.081	16.369	842.152	629.917
316.095	16.433	841.661	629.734
317.110	16.424	840.879	629.059
318.125	16.470	840.359	628.787
319.139	16.618	839.483	628.623
320.154	16.487	839.506	628.102
321.168	16.403	839.366	627.628
322.183	16.504	838.655	627.413
323.197	16.533	838.164	627.099
324.212	16.630	837.305	626.763
325.227	16.710	836.688	626.541
326.241	16.709	836.249	626.153
327.256	16.729	835.692	625.752
328.270	16.656	835.033	624.936
329.285	16.564	834.681	624.275
330.300	16.453	834.074	623.358
331.314	16.561	833.294	623.116
332.329	16.596	833.114	623.058
333.343	16.761	832.026	622.794
334.358	16.748	831.662	622.421
335.373	16.668	831.317	621.811
336.387	16.885	830.520	621.959
337.402	16.849	829.960	621.351
338.416	16.860	829.595	621.064
339.431	16.871	828.990	620.596
340.446	16.989	828.281	620.441
341.460	16.996	827.440	619.781
342.475	16.871	827.223	619.109
343.489	17.023	826.548	619.102
344.504	17.112	825.786	618.801
345.519	16.982	825.812	618.294
346.533	17.031	825.476	618.164
347.548	17.074	825.171	618.039
348.562	16.999	824.440	617.162
349.577	16.922	823.992	616.495
350.592	16.990	823.190	616.086
351.606	17.003	822.646	615.671
352.621	16.934	822.385	615.170
353.635	16.933	822.126	614.918
354.650	17.058	821.185	614.612
355.665	17.079	821.063	614.544
356.679	17.125	820.384	614.147
357.694	17.067	820.033	613.621
358.708	17.218	819.681	613.850
359.723	17.317	818.852	613.533
360.738	17.318	817.893	612.762
361.752	17.169	817.858	612.146
362.767	17.218	817.671	612.126
363.781	17.306	817.184	612.026
364.796	17.236	817.018	611.596
365.810	17.211	816.661	611.182
366.825	17.388	815.799	611.121
367.840	17.422	815.228	610.761
368.854	17.377	815.047	610.411
369.869	17.390	814.502	609.994
370.883	17.281	813.958	609.143
371.898	17.436	813.230	609.097
372.913	17.402	812.715	608.537
373.927	17.497	811.990	608.278
374.942	17.525	811.298	607.809
375.956	17.383	810.686	606.788
376.971	17.463	810.359	606.776
377.986	17.536	810.106	606.793
379.000	17.576	809.168	606.178
380.015	17.686	809.264	606.589
381.029	17.566	808.357	605.429
382.044	17.604	807.907	605.172
383.059	17.764	807.248	605.194
384.073	17.590	806.855	604.227
385.088	17.641	806.350	603.976
386.102	17.541	805.746	603.117
387.117	17.671	805.375	603.248
388.132	17.675	805.060	602.971
389.146	17.513	804.671	602.052
390.161	17.714	804.036	602.233
391.175	17.730	803.709	601.994
392.190	17.727	803.150	601.510
393.205	17.802	802.636	601.337
394.219	17.726	802.364	600.811
395.234	17.758	801.880	600.508
396.248	17.822	800.847	599.908
397.263	17.718	800.876	599.510
398.278	17.536	800.572	598.588
399.292	17.685	800.095	598.703
400.307	17.889	799.413	598.856
401.321	17.793	799.113	598.241
402.336	17.742	798.914	597.862
403.350	17.844	798.495	597.852
404.365	17.890	797.822	597.457
405.380	17.786	797.347	596.682
406.394	17.856	797.056	596.657
407.409	17.911	796.306	596.236
408.423	17.991	795.626	595.953
409.438	17.918	795.675	595.684
410.453	18.044	795.217	595.728
411.467	18.095	794.974	595.668
412.482	18.211	793.984	595.276
413.496	18.193	793.364	594.698
414.511	18.015	793.477	594.111
415.526	18.321	792.923	594.705
416.540	18.134	792.689	593.830
417.555	18.169	791.964	593.356
418.569	18.060	791.692	592.721
419.584	18.066	791.486	592.534
420.599	18.279	790.649	592.595
421.613	116.196	1296.425	1490.917
422.628	100.061	1370.068	1491.009
