DTS Sentinel unit serial number:	SN413079Multiplexer serial number:	ORYXHardware model number:	OX4-SRSoftware version number:	ORYX F/W v4.00 Oryx Data Collector v3.7.2.0data status	okinstallation	princeton_trtdifferential loss correction	single-endedforward channel	channel 3reverse channel	N/Adate	2019/09/13time	13:36:35forward acquisition time	60.00reverse acquisition time	0.00gamma	496.2192k internal	0.2302k external	0.2302temperature offset calibration	1.0145default loss term (dB/km)	0.3790temperature slope calibration	1.0000multiplexer offset coefficient	1.0000multiplexer slope coefficient	1.0000fibre end	0.00T internal ref (°C)	35.06T ext. ref 1 (°C)	4.59T ext. ref 2 (°C)	31.59length (m)	temperature (°C)	Stokes	anti-Stokes-747.200	-200.000	0.017	0.503
-746.185	79.971	-0.110	0.120
-745.171	61.415	-0.078	-0.079
-744.156	-200.000	-0.007	0.079
-743.142	-200.000	0.003	0.056
-742.127	-200.000	-0.053	0.259
-741.112	-200.000	0.034	0.425
-740.098	-200.000	-0.031	0.232
-739.083	-200.000	0.011	0.090
-738.069	-108.450	-0.134	0.029
-737.054	24.634	0.338	0.285
-736.039	100.850	-0.066	-0.078
-735.025	5.066	0.298	0.223
-734.010	139.365	0.173	-0.232
-732.996	31.298	-0.165	-0.145
-731.981	-33.592	-0.027	-0.015
-730.966	261.798	-0.076	-0.133
-729.952	-200.000	-0.017	-0.170
-728.937	-92.981	-0.199	0.056
-727.923	619.503	-0.027	0.069
-726.908	-146.463	-0.157	0.014
-725.894	-18.476	-0.052	0.033
-724.879	800.000	0.035	-0.118
-723.864	61.076	-0.301	-0.304
-722.850	55.405	0.304	-0.300
-721.835	-50.709	0.204	-0.098
-720.821	-9.011	-0.327	-0.223
-719.806	-200.000	0.037	-0.256
-718.791	-38.964	-0.069	-0.037
-717.777	-200.000	-0.007	-0.228
-716.762	-93.748	-0.226	0.063
-715.748	110.893	0.111	0.137
-714.733	800.000	0.160	-0.456
-713.718	-168.352	-0.171	-0.007
-712.704	-200.000	-0.016	-0.134
-711.689	-132.798	0.020	0.003
-710.675	800.000	-0.017	0.054
-709.660	-60.325	-0.105	-0.046
-708.645	-152.774	-0.219	-0.016
-707.631	20.357	0.217	0.178
-706.616	-97.762	-0.106	-0.028
-705.602	-200.000	0.039	-0.259
-704.587	-54.966	-0.212	-0.097
-703.572	-200.000	0.016	-0.287
-702.558	800.000	0.099	-0.377
-701.543	-98.901	-0.122	-0.031
-700.529	-116.807	0.109	0.020
-699.514	800.000	-0.056	-0.202
-698.499	-200.000	-0.004	0.082
-697.485	578.023	-0.118	-0.292
-696.470	800.000	-0.008	-0.029
-695.456	-151.460	0.168	0.013
-694.441	800.000	0.052	-0.223
-693.426	-200.000	-0.007	-0.099
-692.412	-120.085	0.244	-0.043
-691.397	-57.597	-0.102	0.046
-690.383	226.270	0.136	0.224
-689.368	-200.000	-0.010	-0.591
-688.354	-200.000	-0.014	-0.276
-687.339	118.803	0.043	0.054
-686.324	-200.000	0.002	-0.166
-685.310	-138.834	-0.251	0.028
-684.295	36.931	-0.303	-0.272
-683.281	-67.965	0.201	0.080
-682.266	-200.000	-0.048	-0.296
-681.251	-200.000	0.017	-0.147
-680.237	-55.866	-0.238	0.108
-679.222	41.725	-0.184	-0.170
-678.208	-36.979	-0.107	-0.058
-677.193	-160.127	0.392	0.022
-676.178	31.246	0.123	0.107
-675.164	0.054	0.326	0.236
-674.149	145.332	0.116	-0.158
-673.135	47.930	-0.155	-0.147
-672.120	250.608	0.063	-0.109
-671.105	800.000	-0.048	-0.197
-670.091	-71.890	-0.166	0.063
-669.076	252.529	0.083	-0.144
-668.062	60.393	0.257	-0.258
-667.047	380.583	-0.141	-0.294
-666.032	-34.798	0.047	-0.026
-665.018	87.535	-0.158	-0.178
-664.003	555.340	-0.068	-0.167
-662.989	-4.172	0.285	-0.200
-661.974	-99.643	-0.109	0.028
-660.959	-140.608	-0.110	0.012
-659.945	800.000	-0.067	0.262
-658.930	-41.349	0.313	0.164
-657.916	-27.111	0.053	0.032
-656.901	112.614	-0.234	0.288
-655.886	-10.766	-0.238	-0.160
-654.872	-200.000	0.047	0.261
-653.857	-200.000	-0.039	-0.196
-652.843	800.000	-0.084	-0.297
-651.828	381.857	0.154	0.322
-650.814	-177.828	-0.181	0.004
-649.799	-123.017	-0.194	0.032
-648.784	-21.863	-0.143	-0.089
-647.770	-152.276	-0.566	-0.041
-646.755	-88.330	-0.087	-0.026
-645.741	253.600	0.061	-0.105
-644.726	9.636	-0.096	-0.074
-643.711	-26.116	0.160	0.095
-642.697	-52.460	-0.177	-0.083
-641.682	-200.000	-0.003	0.173
-640.668	-200.000	0.038	0.245
-639.653	31.057	-0.095	-0.083
-638.638	-68.936	0.358	-0.140
-637.624	-37.230	-0.189	0.103
-636.609	197.493	0.136	0.210
-635.595	-100.810	-0.090	0.023
-634.580	236.142	-0.061	-0.102
-633.565	706.821	0.030	-0.080
-632.551	-64.524	0.053	0.022
-631.536	-200.000	0.007	0.132
-630.522	-200.000	0.005	-0.121
-629.507	22.321	-0.202	-0.167
-628.492	-104.596	-0.184	0.043
-627.478	-200.000	-0.008	-0.128
-626.463	-31.235	0.220	0.126
-625.449	-200.000	0.021	-0.109
-624.434	98.812	0.118	0.138
-623.419	-3.260	-0.109	0.077
-622.405	-51.109	-0.184	0.088
-621.390	-145.757	0.159	-0.014
-620.376	-64.891	-0.068	0.028
-619.361	-200.000	0.060	-0.328
-618.346	-173.207	-0.209	0.006
-617.332	800.000	-0.008	-0.032
-616.317	-200.000	-0.028	0.127
-615.303	-120.377	0.140	0.024
-614.288	-61.562	0.251	0.107
-613.273	164.288	0.079	-0.113
-612.259	45.333	-0.149	-0.139
-611.244	-200.000	-0.000	-0.002
-610.230	-45.739	0.137	0.069
-609.215	156.000	0.294	-0.411
-608.201	6.075	0.182	0.136
-607.186	368.672	-0.099	-0.203
-606.171	517.624	0.070	-0.167
-605.157	152.043	-0.043	-0.060
-604.142	-51.341	0.317	0.150
-603.128	-154.939	-0.376	0.025
-602.113	-66.737	0.256	-0.103
-601.098	-144.648	0.597	-0.056
-600.084	-127.722	0.245	0.036
-599.069	-109.857	-0.204	0.043
-598.055	-11.083	0.077	-0.051
-597.040	-200.000	0.085	-0.447
-596.025	-101.710	0.385	-0.095
-595.011	800.000	0.023	-0.086
-593.996	-78.171	-0.226	-0.079
-592.982	800.000	-0.134	-0.423
-591.967	-93.711	0.192	-0.054
-590.952	580.765	0.097	0.240
-589.938	46.093	-0.223	0.209
-588.923	-130.273	-0.248	0.034
-587.909	108.747	-0.190	-0.230
-586.894	-200.000	-0.003	-0.138
-585.879	800.000	-0.091	0.266
-584.865	-200.000	0.060	0.277
-583.850	-122.377	-0.343	0.057
-582.836	800.000	0.084	-0.251
-581.821	800.000	0.065	-0.199
-580.806	40.606	0.087	-0.079
-579.792	138.949	-0.033	-0.043
-578.777	-200.000	-0.006	-0.055
-577.763	-88.339	-0.282	0.085
-576.748	689.426	-0.095	-0.251
-575.733	143.721	0.200	0.270
-574.719	-133.618	-0.371	-0.047
-573.704	-200.000	0.015	-0.116
-572.690	48.836	0.132	0.126
-571.675	-134.895	0.307	0.038
-570.661	174.313	0.066	0.097
-569.646	-41.200	-0.219	0.114
-568.631	-161.135	-0.148	-0.008
-567.617	-67.039	-0.133	-0.053
-566.602	-119.370	-0.176	0.031
-565.588	-70.948	-0.199	-0.076
-564.573	800.000	0.076	-0.298
-563.558	-200.000	0.021	-0.209
-562.544	423.666	-0.103	-0.223
-561.529	242.146	-0.128	0.217
-560.515	60.805	-0.118	0.119
-559.500	-132.444	0.523	0.068
-558.485	401.379	0.036	0.076
-557.471	265.106	-0.124	-0.219
-556.456	138.340	-0.198	0.263
-555.442	589.180	-0.075	0.188
-554.427	20.796	-0.037	0.031
-553.412	-128.622	0.135	-0.019
-552.398	-83.917	0.168	-0.054
-551.383	800.000	0.110	0.403
-550.369	-200.000	0.071	0.315
-549.354	-48.115	0.084	-0.041
-548.339	-10.769	0.093	0.062
-547.325	-110.899	-0.165	-0.034
-546.310	170.865	-0.179	0.259
-545.296	61.120	0.043	0.043
-544.281	434.007	0.035	0.078
-543.266	-3.827	-0.115	-0.081
-542.252	49.223	-0.370	-0.352
-541.237	-157.993	0.062	0.004
-540.223	556.963	0.044	-0.106
-539.208	800.000	-0.017	0.048
-538.193	77.936	-0.155	-0.167
-537.179	800.000	0.093	-0.290
-536.164	105.382	0.036	-0.043
-535.150	85.053	0.163	0.181
-534.135	-62.522	0.258	-0.108
-533.121	147.997	-0.362	-0.494
-532.106	-200.000	-0.018	-0.145
-531.091	800.000	-0.079	-0.254
-530.077	31.082	0.135	-0.117
-529.062	-200.000	-0.258	-0.001
-528.048	97.957	-0.148	0.172
-527.033	-200.000	-0.019	-0.120
-526.018	-117.994	0.147	-0.027
-525.004	-111.052	-0.148	0.031
-523.989	800.000	-0.068	-0.230
-522.975	117.154	0.188	0.233
-521.960	50.110	0.175	0.167
-520.945	-28.780	-0.116	0.067
-519.931	-200.000	0.001	0.149
-518.916	800.000	0.023	-0.101
-517.902	-4.167	-0.284	0.199
-516.887	-200.000	-0.086	0.523
-515.872	800.000	-0.020	0.084
-514.858	21.601	-0.148	-0.122
-513.843	-119.725	0.439	-0.076
-512.829	221.566	-0.097	-0.157
-511.814	220.498	0.146	0.236
-510.799	625.646	-0.028	0.070
-509.785	465.950	-0.024	0.055
-508.770	75.169	0.119	-0.127
-507.756	800.000	0.085	0.285
-506.741	800.000	0.020	0.059
-505.726	-174.745	-0.282	0.008
-504.712	216.614	-0.026	-0.042
-503.697	440.217	-0.068	-0.151
-502.683	271.628	-0.122	0.217
-501.668	702.851	0.078	0.207
-500.653	116.270	0.081	-0.100
-499.639	-200.000	-0.020	0.216
-498.624	235.198	-0.052	0.086
-497.610	46.456	0.190	0.178
-496.595	-94.769	-0.150	0.041
-495.581	800.000	0.132	0.547
-494.566	800.000	-0.044	-0.173
-493.551	684.878	-0.062	0.164
-492.537	-26.859	0.269	0.159
-491.522	92.837	0.196	-0.224
-490.508	800.000	-0.011	-0.032
-489.493	800.000	-0.124	0.436
-488.478	140.071	-0.271	0.360
-487.464	-197.160	0.030	0.000
-486.449	-68.569	0.165	-0.065
-485.435	25.591	0.236	0.198
-484.420	-147.333	0.100	0.009
-483.405	285.565	-0.108	-0.197
-482.391	48.892	-0.331	-0.313
-481.376	-149.671	-0.154	0.012
-480.362	79.474	0.032	-0.035
-479.347	-14.147	-0.142	-0.092
-478.332	800.000	0.040	0.136
-477.318	701.867	-0.167	-0.444
-476.303	218.544	-0.163	-0.262
-475.289	800.000	0.081	-0.231
-474.274	-68.318	0.152	-0.060
-473.259	-200.000	-0.051	-0.316
-472.245	800.000	-0.084	0.324
-471.230	6.963	0.066	-0.050
-470.216	-200.000	0.004	0.200
-469.201	-110.505	0.113	0.024
-468.186	800.000	-0.093	-0.385
-467.172	518.801	0.036	0.084
-466.157	-184.740	0.131	-0.002
-465.143	-200.000	0.042	0.222
-464.128	109.123	-0.074	0.089
-463.113	-60.103	-0.410	0.176
-462.099	-35.798	0.024	0.013
-461.084	-200.000	-0.000	0.166
-460.070	-2.833	-0.321	-0.226
-459.055	-101.067	0.219	0.054
-458.040	-50.144	0.184	-0.088
-457.026	-37.095	-0.054	-0.029
-456.011	-200.000	-0.290	0.001
-454.997	-44.750	0.174	0.087
-453.982	800.000	0.015	0.052
-452.968	148.933	0.125	0.170
-451.953	-75.903	0.229	-0.082
-450.938	-5.721	0.147	-0.101
-449.924	362.969	0.020	-0.039
-448.909	286.637	-0.046	0.084
-447.895	-124.794	0.175	0.027
-446.880	-2.084	-0.090	0.064
-445.865	-153.834	-0.209	-0.014
-444.851	-75.273	-0.083	0.030
-443.836	-200.000	-0.014	-0.448
-442.822	-18.812	0.117	0.073
-441.807	800.000	0.047	-0.205
-440.792	800.000	0.055	-0.216
-439.778	143.782	0.010	0.014
-438.763	204.538	-0.224	0.350
-437.749	222.363	0.083	-0.134
-436.734	-109.419	0.460	0.098
-435.719	-200.000	-0.005	-0.201
-434.705	800.000	0.085	-0.276
-433.690	181.452	-0.118	-0.174
-432.676	366.608	0.031	-0.062
-431.661	705.124	-0.060	-0.160
-430.646	-6.223	0.189	-0.130
-429.632	-40.340	-0.372	-0.195
-428.617	-50.646	-0.227	0.108
-427.603	-133.626	0.184	-0.023
-426.588	-167.246	0.223	0.009
-425.573	800.000	-0.015	0.058
-424.559	287.832	0.098	-0.179
-423.544	-105.877	0.057	0.013
-422.530	800.000	0.068	-0.200
-421.515	-26.538	-0.299	0.176
-420.500	786.714	0.053	-0.147
-419.486	-77.309	-0.247	-0.086
-418.471	362.393	0.057	-0.115
-417.457	303.343	0.155	-0.288
-416.442	-75.040	0.292	-0.105
-415.428	562.134	-0.086	-0.209
-414.413	643.670	0.060	-0.153
-413.398	1.721	0.218	-0.158
-412.384	255.688	0.037	-0.064
-411.369	-170.402	-0.174	-0.006
-410.355	-55.794	-0.261	0.117
-409.340	286.964	-0.184	-0.333
-408.325	-34.914	-0.288	0.158
-407.311	800.000	-0.062	0.212
-406.296	54.260	-0.134	-0.130
-405.282	-109.217	-0.132	0.028
-404.267	534.200	0.088	0.209
-403.252	-79.761	0.167	0.057
-402.238	800.000	-0.043	0.163
-401.223	575.598	-0.159	0.390
-400.209	-126.430	0.448	-0.067
-399.194	-16.408	-0.255	-0.163
-398.179	-153.600	-0.356	-0.025
-397.165	-172.746	-0.282	0.009
-396.150	-61.619	0.466	-0.197
-395.136	-158.988	0.294	-0.017
-394.121	-125.273	-0.216	0.033
-393.106	-85.784	0.445	0.139
-392.092	-98.151	-0.032	0.008
-391.077	-200.000	0.060	0.000
-390.063	800.000	-0.050	-0.162
-389.048	63.928	0.198	-0.200
-388.033	-21.995	-0.221	-0.135
-387.019	412.043	0.177	0.377
-386.004	47.569	0.107	-0.100
-384.990	218.111	0.136	0.218
-383.975	265.647	0.153	0.268
-382.960	-45.112	0.194	-0.097
-381.946	-70.252	-0.268	0.102
-380.931	-76.062	-0.185	0.066
-379.917	-174.816	-0.260	-0.007
-378.902	-104.997	0.162	0.037
-377.888	661.152	-0.069	-0.178
-376.873	-95.131	-0.073	-0.020
-375.858	167.900	0.038	0.055
-374.844	133.886	0.160	-0.208
-373.829	-90.222	-0.318	-0.093
-372.815	-200.000	0.004	0.044
-371.800	620.218	0.127	-0.321
-370.785	-125.085	0.148	-0.023
-369.771	194.300	0.122	0.185
-368.756	-200.000	-0.048	0.261
-367.742	800.000	0.092	-0.260
-366.727	800.000	-0.121	-0.340
-365.712	-200.000	0.006	-0.047
-364.698	-200.000	-0.005	0.215
-363.683	-200.000	0.019	0.162
-362.669	-75.646	-0.176	0.063
-361.654	-200.000	0.019	-0.151
-360.639	-149.454	-0.158	0.013
-359.625	-200.000	0.019	-0.147
-358.610	-200.000	-0.008	0.317
-357.596	-46.621	0.144	-0.071
-356.581	-103.913	0.198	-0.046
-355.566	16.328	0.279	0.221
-354.552	-57.161	-0.239	0.106
-353.537	-22.338	0.181	0.110
-352.523	14.950	0.329	0.258
-351.508	-200.000	-0.012	-0.149
-350.493	800.000	0.046	-0.127
-349.479	28.047	0.069	0.059
-348.464	153.324	0.069	0.095
-347.450	-67.129	-0.104	0.041
-346.435	94.342	-0.106	-0.121
-345.420	-59.347	0.293	-0.127
-344.406	77.966	0.307	0.329
-343.391	-79.142	0.238	0.081
-342.377	-200.000	0.017	0.300
-341.362	29.085	0.198	-0.169
-340.348	-169.721	-0.105	0.004
-339.333	-200.000	-0.025	-0.124
-338.318	-87.972	0.234	0.071
-337.304	-28.095	-0.098	0.057
-336.289	228.847	-0.194	0.317
-335.275	-200.000	0.029	-0.321
-334.260	800.000	-0.087	0.254
-333.245	800.000	-0.051	0.165
-332.231	311.071	-0.067	0.127
-331.216	-47.087	0.121	0.059
-330.202	-57.451	0.158	0.069
-329.187	-100.009	-0.037	-0.009
-328.172	-84.692	-0.399	-0.126
-327.158	14.691	0.315	-0.247
-326.143	102.844	-0.114	-0.133
-325.129	-131.200	0.079	0.011
-324.114	800.000	0.081	0.307
-323.099	-193.982	0.066	-0.001
-322.085	-34.354	0.177	-0.097
-321.070	-102.933	0.171	-0.041
-320.056	-200.000	-0.039	-0.188
-319.041	800.000	-0.060	0.209
-318.026	-97.290	0.264	0.069
-317.012	-2.266	0.177	-0.124
-315.997	-200.000	0.001	-0.117
-314.983	-59.860	-0.167	-0.071
-313.968	-136.477	0.198	-0.023
-312.953	-25.979	0.186	-0.109
-311.939	-142.431	-0.177	0.017
-310.924	-99.890	-0.230	0.058
-309.910	-200.000	0.016	-0.118
-308.895	24.352	-0.130	0.107
-307.880	800.000	-0.049	-0.158
-306.866	725.430	-0.152	-0.407
-305.851	43.924	0.095	0.087
-304.837	126.538	0.138	-0.174
-303.822	134.877	0.093	-0.121
-302.807	800.000	0.113	0.322
-301.793	800.000	-0.091	0.258
-300.778	210.691	-0.174	0.274
-299.764	6.353	0.228	-0.169
-298.749	199.481	0.077	0.119
-297.735	253.671	-0.190	-0.326
-296.720	19.254	-0.195	0.157
-295.705	128.572	-0.170	0.216
-294.691	19.392	0.187	-0.150
-293.676	6.288	0.249	-0.185
-292.662	-22.120	-0.153	-0.093
-291.647	-200.000	-0.001	0.288
-290.632	-121.282	-0.296	-0.049
-289.618	-37.854	-0.308	0.164
-288.603	-200.000	0.023	-0.359
-287.589	-200.000	-0.063	-0.355
-286.574	-200.000	-0.030	0.221
-285.559	-200.000	-0.064	-0.311
-284.545	68.339	-0.125	0.129
-283.530	-200.000	-0.002	0.055
-282.516	800.000	0.066	0.193
-281.501	310.133	0.141	-0.264
-280.486	156.924	-0.150	0.208
-279.472	-9.893	-0.204	-0.136
-278.457	800.000	-0.048	-0.165
-277.443	-21.703	-0.074	-0.045
-276.428	-200.000	0.024	-0.134
-275.413	-9.862	0.103	0.069
-274.399	48.527	0.052	0.049
-273.384	-117.548	0.051	-0.009
-272.370	166.210	-0.164	0.232
-271.355	275.282	-0.121	0.215
-270.340	-7.890	0.521	-0.352
-269.326	-4.048	0.065	0.045
-268.311	-178.386	0.250	0.006
-267.297	-200.000	0.025	-0.223
-266.282	-42.291	-0.220	0.112
-265.267	28.916	-0.302	-0.256
-264.253	800.000	0.041	-0.128
-263.238	77.257	-0.091	-0.097
-262.224	-188.244	0.265	-0.003
-261.209	65.191	0.217	-0.219
-260.195	-200.000	-0.012	-0.140
-259.180	14.632	0.110	-0.086
-258.165	269.034	-0.197	0.345
-257.151	-115.674	0.651	-0.122
-256.136	61.190	0.115	-0.114
-255.122	-53.206	0.092	0.042
-254.107	-200.000	0.013	-0.161
-253.092	48.111	0.166	-0.155
-252.078	800.000	0.050	0.180
-251.063	5.812	0.272	0.201
-250.049	-145.105	-0.228	-0.021
-249.034	-72.644	0.275	-0.101
-248.019	-138.821	0.094	0.010
-247.005	255.269	0.107	-0.182
-245.990	172.157	0.013	-0.019
-244.976	-115.788	-0.112	-0.021
-243.961	367.230	0.068	0.137
-242.946	471.477	-0.118	0.265
-241.932	-200.000	0.026	-0.179
-240.917	113.228	-0.072	-0.087
-239.903	-75.474	0.099	0.035
-238.888	800.000	0.042	0.137
-237.873	323.160	-0.052	0.099
-236.859	281.896	0.120	0.214
-235.844	148.531	-0.130	0.175
-234.830	-200.000	0.004	-0.201
-233.815	-28.892	-0.162	0.093
-232.800	-27.573	-0.158	-0.092
-231.786	-200.000	-0.038	-0.326
-230.771	-154.236	0.167	0.011
-229.757	28.750	-0.366	0.309
-228.742	168.976	-0.111	0.158
-227.727	-161.974	0.055	-0.003
-226.713	-115.851	-0.275	-0.051
-225.698	800.000	-0.069	0.272
-224.684	136.059	-0.261	0.340
-223.669	387.401	0.081	0.167
-222.655	-48.726	-0.312	0.150
-221.640	-200.000	-0.029	-0.139
-220.625	-18.959	-0.110	-0.069
-219.611	-200.000	0.008	-0.040
-218.596	-118.119	-0.270	0.048
-217.582	-47.505	-0.294	-0.143
-216.567	-115.097	0.129	-0.025
-215.552	-200.000	-0.062	-0.318
-214.538	472.148	0.019	-0.043
-213.523	-200.000	0.048	0.242
-212.509	51.821	0.168	0.159
-211.494	155.948	-0.088	-0.121
-210.479	305.647	0.060	0.111
-209.465	239.250	0.051	-0.084
-208.450	47.273	0.262	0.243
-207.436	-95.712	-0.058	-0.015
-206.421	144.205	0.041	-0.055
-205.406	199.870	0.138	-0.211
-204.392	56.129	0.047	0.045
-203.377	-200.000	-0.033	0.148
-202.363	160.716	-0.010	-0.014
-201.348	-4.730	0.146	0.100
-200.333	-200.000	0.002	0.143
-199.319	785.930	-0.048	0.131
-198.304	-61.207	0.115	-0.048
-197.290	800.000	-0.113	0.335
-196.275	-2.893	0.166	0.116
-195.260	-191.172	-0.097	-0.001
-194.246	-78.001	-0.454	0.156
-193.231	163.550	-0.113	0.158
-192.217	-200.000	0.064	-0.329
-191.202	-200.000	0.008	0.237
-190.187	-65.180	0.326	-0.131
-189.173	31.955	0.120	-0.103
-188.158	-200.000	-0.013	0.231
-187.144	-189.043	0.220	-0.003
-186.129	351.243	0.096	0.190
-185.114	-200.000	-0.016	0.313
-184.100	-200.000	0.016	-0.324
-183.085	217.508	0.102	-0.162
-182.071	-152.367	-0.126	0.009
-181.056	-200.000	-0.039	0.187
-180.042	202.335	-0.127	0.196
-179.027	-63.323	-0.161	0.066
-178.012	-200.000	0.008	-0.047
-176.998	-110.982	0.189	0.039
-175.983	-75.098	-0.113	0.040
-174.969	-71.327	-0.196	-0.073
-173.954	57.854	-0.149	-0.146
-172.939	6.570	-0.041	0.030
-171.925	-200.000	0.054	0.411
-170.910	-83.358	-0.276	0.088
-169.896	-200.000	0.007	-0.055
-168.881	-115.506	0.084	-0.016
-167.866	-123.331	0.127	-0.020
-166.852	-200.000	-0.023	0.150
-165.837	-19.972	0.144	0.088
-164.823	-56.909	-0.132	0.058
-163.808	-200.000	-0.040	0.420
-162.793	-70.135	-0.095	-0.036
-161.779	275.220	0.118	-0.209
-160.764	334.229	-0.099	0.191
-159.750	-179.302	0.049	-0.001
-158.735	-83.169	0.235	0.075
-157.720	-172.686	-0.229	-0.007
-156.706	-18.258	0.180	0.112
-155.691	-200.000	-0.028	-0.343
-154.677	-64.838	-0.261	0.105
-153.662	800.000	0.026	-0.110
-152.647	317.048	0.044	0.083
-151.633	-61.752	-0.027	-0.011
-150.618	-44.679	-0.214	-0.106
-149.604	492.159	-0.015	-0.034
-148.589	800.000	0.043	-0.125
-147.574	-196.074	0.324	-0.002
-146.560	-200.000	0.036	-0.195
-145.545	-39.033	-0.169	-0.089
-144.531	800.000	-0.032	0.106
-143.516	527.763	0.206	-0.483
-142.502	-6.469	-0.217	0.147
-141.487	-40.505	0.222	-0.115
-140.472	32.623	-0.218	0.188
-139.458	-200.000	-0.110	0.480
-138.443	800.000	-0.008	-0.031
-137.429	604.066	-0.083	-0.205
-136.414	-28.034	-0.048	0.027
-135.399	-136.254	0.208	0.024
-134.385	-200.000	-0.005	0.126
-133.370	497.106	0.058	0.132
-132.356	-10.337	0.154	0.102
-131.341	-108.738	0.255	-0.054
-130.326	-21.947	-0.078	0.047
-129.312	-75.350	0.084	-0.030
-128.297	-200.000	0.159	0.001
-127.283	-200.000	-0.014	-0.079
-126.268	-45.699	-0.275	-0.135
-125.253	10.474	0.191	0.145
-124.239	-9.851	-0.275	0.182
-123.224	800.000	-0.055	0.204
-122.210	45.638	-0.129	0.118
-121.195	323.117	-0.117	0.221
-120.180	505.692	0.050	0.115
-119.166	102.111	0.226	-0.263
-118.151	619.722	-0.114	0.285
-117.137	50.767	0.344	0.324
-116.122	339.984	-0.063	-0.122
-115.107	11.484	-0.138	-0.105
-114.093	-72.386	0.171	0.063
-113.078	-200.000	-0.028	0.249
-112.064	-200.000	0.005	-0.372
-111.049	-73.745	-0.249	-0.090
-110.034	208.616	-0.148	0.230
-109.020	-200.000	0.019	0.141
-108.005	-51.757	0.258	0.119
-106.991	38.678	0.065	0.058
-105.976	16.681	-0.168	-0.132
-104.962	800.000	-0.102	-0.295
-103.947	208.907	-0.201	-0.312
-102.932	800.000	0.080	0.275
-101.918	-200.000	-0.045	-0.232
-100.903	-200.000	0.013	-0.078
-99.889	69.668	0.116	-0.118
-98.874	-122.544	0.254	-0.041
-97.859	-200.000	0.022	0.274
-96.845	-134.770	-0.243	0.029
-95.830	-2.201	-0.132	-0.092
-94.816	66.048	-0.158	0.159
-93.801	135.390	-0.167	0.216
-92.786	103.775	0.138	0.161
-91.772	211.975	-0.201	-0.315
-90.757	-46.498	-0.310	-0.151
-89.743	-39.099	-0.205	-0.107
-88.728	-200.000	-0.014	0.449
-87.713	-87.306	0.240	0.072
-86.699	-168.859	0.138	0.005
-85.684	-200.000	-0.044	-0.323
-84.670	-129.991	0.064	-0.009
-83.655	-200.000	-0.018	-0.165
-82.640	-111.613	0.087	-0.018
-81.626	513.004	-0.027	-0.062
-80.611	374.622	-0.117	-0.236
-79.597	-89.580	0.080	-0.023
-78.582	87.055	-0.101	-0.111
-77.567	800.000	0.011	0.049
-76.553	800.000	0.028	-0.112
-75.538	-72.521	-0.280	0.103
-74.524	-64.862	-0.142	-0.057
-73.509	686.416	-0.172	-0.446
-72.494	784.330	0.099	0.268
-71.480	84.678	0.093	-0.101
-70.465	-32.676	-0.220	-0.121
-69.451	-185.528	-0.199	0.003
-68.436	209.337	-0.154	-0.239
-67.422	24.843	-0.073	0.060
-66.407	134.137	0.207	0.266
-65.392	591.615	0.065	-0.160
-64.378	738.206	0.123	0.327
-63.363	-181.404	0.219	-0.004
-62.349	-63.650	0.156	0.064
-61.334	94.431	-0.718	-0.810
-60.319	715.858	0.156	0.409
-59.305	243.574	-0.500	-0.832
-58.290	324.155	0.519	0.982
-57.276	800.000	0.470	1.529
-56.261	-200.000	94.709	556.713
-55.246	628.324	1381.833	3463.116
-54.232	185.576	2604.050	3836.289
-53.217	120.924	2217.398	2735.358
-52.203	45.634	1749.794	1603.184
-51.188	38.278	1559.536	1377.228
-50.173	35.817	1531.654	1335.497
-49.159	53.242	1581.820	1502.654
-48.144	56.887	1600.807	1546.374
-47.130	38.524	1556.278	1375.864
-46.115	35.328	1540.570	1339.638
-45.100	35.218	1537.075	1335.784
-44.086	35.139	1535.668	1333.955
-43.071	35.034	1533.763	1331.518
-42.057	35.060	1532.115	1330.214
-41.042	35.049	1530.612	1328.777
-40.027	35.033	1529.696	1327.820
-39.013	35.096	1527.513	1326.310
-37.998	35.029	1526.541	1324.949
-36.984	35.080	1525.481	1324.331
-35.969	35.039	1524.248	1322.924
-34.954	35.054	1522.455	1321.417
-33.940	35.085	1521.130	1320.430
-32.925	35.045	1519.730	1318.885
-31.911	35.127	1518.212	1318.083
-30.896	35.138	1516.526	1316.640
-29.881	35.134	1515.209	1315.419
-28.867	35.166	1513.692	1314.266
-27.852	35.112	1512.378	1312.702
-26.838	35.120	1511.021	1311.527
-25.823	35.145	1509.602	1310.415
-24.809	35.168	1507.772	1308.933
-23.794	35.121	1506.737	1307.663
-22.779	35.101	1505.426	1306.335
-21.765	35.054	1504.699	1305.336
-20.750	35.178	1503.099	1304.738
-19.736	35.047	1502.479	1303.255
-18.721	35.093	1500.937	1302.181
-17.706	35.059	1500.270	1301.316
-16.692	34.998	1499.205	1299.932
-15.677	34.946	1498.263	1298.710
-14.663	35.013	1497.045	1298.055
-13.648	35.011	1495.793	1296.905
-12.633	35.039	1494.526	1295.945
-11.619	35.048	1493.911	1295.416
-10.604	35.027	1493.577	1294.934
-9.590	34.998	1492.620	1293.856
-8.575	35.077	1491.510	1293.379
-7.560	34.897	1491.055	1291.718
-6.546	35.044	1489.829	1291.596
-5.531	35.068	1489.094	1291.070
-4.517	35.023	1487.868	1289.654
-3.502	35.060	1487.018	1289.113
-2.487	34.979	1486.518	1288.081
-1.473	35.043	1485.161	1287.286
-0.458	34.932	1483.955	1285.442
0.556	37.272	1474.472	1276.261
1.571	34.325	1446.547	1232.944
2.586	30.050	1382.890	1152.067
3.600	27.845	1298.248	1068.567
4.615	25.475	1249.429	1014.925
5.629	21.352	1191.943	945.881
6.644	12.711	1105.333	833.522
7.659	5.757	1063.495	767.934
8.673	4.794	1057.251	758.667
9.688	4.606	1054.028	755.373
10.702	4.316	1052.689	752.940
11.717	4.635	1050.849	753.102
12.731	7.822	1054.741	771.295
13.746	16.192	1066.678	820.837
14.761	21.934	1073.548	854.086
15.775	22.287	1072.630	854.994
16.790	21.507	1070.844	849.707
17.804	20.526	1068.476	843.000
18.819	19.550	1067.002	837.030
19.834	19.247	1065.265	834.129
20.848	18.968	1064.833	832.367
21.863	18.818	1064.221	831.090
22.877	18.744	1063.300	829.936
23.892	18.466	1062.476	827.878
24.907	18.362	1061.989	826.922
25.921	18.485	1060.883	826.581
26.936	18.222	1060.867	825.228
27.950	18.382	1058.887	824.387
28.965	18.417	1057.943	823.746
29.980	18.451	1057.044	823.138
30.994	18.576	1056.299	823.085
32.009	18.739	1055.289	823.004
33.023	18.737	1055.236	822.881
34.038	18.819	1053.602	821.928
35.053	18.733	1052.768	820.794
36.067	18.652	1051.639	819.452
37.082	18.496	1051.201	818.293
38.096	18.527	1050.498	817.823
39.111	18.609	1049.550	817.405
40.126	18.760	1048.702	817.390
41.140	18.689	1047.332	815.910
42.155	18.352	1046.367	813.487
43.169	18.149	1045.467	811.749
44.184	18.188	1043.866	810.623
45.199	18.040	1043.590	809.634
46.213	18.073	1042.647	808.988
47.228	18.115	1041.375	808.126
48.242	18.492	1040.409	809.087
49.257	18.458	1039.979	808.520
50.271	18.520	1038.517	807.603
51.286	18.525	1037.957	807.121
52.301	18.546	1036.886	806.314
53.315	18.666	1036.333	806.376
54.330	18.408	1036.003	804.838
55.344	18.359	1034.595	803.442
56.359	18.346	1033.457	802.426
57.374	18.372	1032.282	801.565
58.388	18.174	1032.156	800.467
59.403	18.157	1030.871	799.324
60.417	18.063	1030.127	798.237
61.432	18.042	1029.762	797.786
62.447	18.061	1028.781	797.043
63.461	18.008	1027.825	795.985
64.476	18.080	1026.710	795.386
65.490	17.998	1025.847	794.264
66.505	17.946	1025.415	793.621
67.520	17.859	1024.352	792.321
68.534	17.924	1023.996	792.280
69.549	17.993	1023.003	791.760
70.563	18.045	1021.761	790.968
71.578	17.938	1021.401	790.127
72.593	17.787	1020.439	788.615
73.607	17.801	1019.198	787.650
74.622	17.673	1018.244	786.251
75.636	17.760	1017.349	785.890
76.651	17.709	1017.200	785.475
77.666	17.786	1016.420	785.154
78.680	17.783	1015.312	784.218
79.695	17.815	1015.106	784.135
80.709	17.909	1014.434	783.977
81.724	18.105	1013.606	784.168
82.739	18.107	1013.054	783.680
83.753	18.151	1012.648	783.501
84.768	18.386	1011.624	783.714
85.782	18.660	1011.344	784.678
86.797	18.735	1010.897	784.605
87.812	18.806	1009.967	784.137
88.826	18.548	1008.940	782.094
89.841	18.458	1008.475	781.257
90.855	18.526	1007.393	780.656
91.870	18.613	1006.499	780.290
92.884	18.789	1005.294	780.089
93.899	18.790	1004.623	779.504
94.914	18.736	1003.930	778.650
95.928	18.744	1003.298	778.129
96.943	18.833	1002.792	778.071
97.957	18.655	1001.589	776.261
98.972	18.553	1001.051	775.318
99.987	18.625	1000.011	774.765
101.001	18.707	999.162	774.410
102.016	18.525	998.791	773.236
103.030	18.515	997.729	772.296
104.045	18.623	996.747	771.957
105.060	18.683	996.001	771.578
106.074	18.574	994.616	769.948
107.089	18.347	993.935	768.337
108.103	18.020	992.945	766.037
109.118	17.940	991.974	764.860
110.133	17.971	990.985	764.168
111.147	17.932	990.135	763.272
112.162	17.855	989.251	762.180
113.176	18.112	988.124	762.392
114.191	18.225	987.156	762.078
115.206	18.192	986.822	761.608
116.220	18.242	985.671	760.872
117.235	18.133	985.079	759.864
118.249	17.992	984.541	758.756
119.264	17.963	983.511	757.765
120.279	17.900	982.884	756.935
121.293	18.036	981.574	756.461
122.308	17.862	981.215	755.351
123.322	17.729	980.306	753.993
124.337	17.678	979.075	752.756
125.352	17.777	977.469	751.890
126.366	17.861	976.586	751.513
127.381	17.798	975.416	750.273
128.395	17.758	974.701	749.481
129.410	17.799	973.799	748.900
130.424	17.826	972.935	748.286
131.439	18.023	971.891	748.280
132.454	18.081	971.346	748.047
133.468	18.145	970.716	747.778
134.483	18.131	970.304	747.332
135.497	18.194	969.318	746.781
136.512	18.182	968.407	745.964
137.527	18.277	967.436	745.563
138.541	18.087	967.311	744.571
139.556	18.190	966.644	744.442
140.570	18.252	965.891	744.066
141.585	18.324	965.263	743.827
142.600	18.386	964.984	743.817
143.614	18.606	964.149	744.061
144.629	18.661	963.128	743.445
145.643	18.712	962.727	743.291
146.658	18.750	961.221	742.228
147.673	18.536	960.252	740.488
148.687	18.401	959.367	739.158
149.702	18.274	958.393	737.797
150.716	18.259	957.304	736.830
151.731	18.123	956.783	735.775
152.746	18.226	955.857	735.440
153.760	18.264	955.272	735.091
154.775	18.308	954.667	734.747
155.789	18.361	954.220	734.566
156.804	18.524	953.212	734.422
157.819	18.428	952.519	733.416
158.833	18.421	952.030	732.942
159.848	18.623	951.408	733.262
160.862	18.659	950.311	732.504
161.877	18.675	950.055	732.313
162.892	18.365	948.806	729.962
163.906	18.151	947.725	728.154
164.921	18.309	946.396	727.741
165.935	18.171	946.124	726.882
166.950	18.229	945.079	726.262
167.964	18.337	944.105	725.908
168.979	18.319	943.155	725.037
169.994	18.283	941.842	723.809
171.008	18.287	941.317	723.361
172.023	18.352	940.328	722.809
173.037	18.514	939.721	722.962
174.052	18.593	939.406	722.989
175.067	18.597	938.331	722.115
176.081	18.372	937.676	720.600
177.096	18.195	936.617	718.979
178.110	18.191	935.700	718.193
179.125	18.220	935.131	717.816
180.140	18.381	934.158	717.681
181.154	18.218	933.773	716.636
182.169	18.404	933.356	717.034
183.183	18.706	932.481	717.560
184.198	18.639	931.534	716.489
185.213	18.704	930.878	716.191
186.227	18.706	930.663	715.970
187.242	18.677	930.533	715.687
188.256	18.642	929.747	714.872
189.271	18.964	928.799	715.419
190.286	18.826	928.118	714.260
191.300	18.692	927.311	713.019
192.315	18.191	926.216	710.032
193.329	18.023	925.320	708.587
194.344	18.175	924.547	708.561
195.359	18.278	923.892	708.426
196.373	18.328	924.003	708.655
197.388	18.621	923.595	709.488
198.402	18.639	923.225	709.219
199.417	18.858	922.505	709.505
200.432	18.871	922.332	709.363
201.446	18.889	922.274	709.331
202.461	19.066	921.918	709.725
203.475	19.157	921.409	709.644
204.490	19.261	920.032	708.951
205.504	18.908	919.002	706.641
206.519	18.917	918.219	706.014
207.534	18.818	917.556	705.035
208.548	18.828	916.850	704.471
209.563	18.774	915.818	703.395
210.577	18.805	915.449	703.176
211.592	18.838	914.693	702.669
212.607	19.041	914.518	703.304
213.621	19.093	914.057	703.099
214.636	19.028	912.988	701.949
215.650	19.029	912.303	701.363
216.665	18.964	912.276	701.017
217.680	19.155	911.702	701.289
218.694	19.144	910.889	700.558
219.709	19.259	910.488	700.656
220.723	19.084	909.916	699.442
221.738	19.214	909.228	699.381
222.753	19.138	908.167	698.194
223.767	19.030	907.728	697.357
224.782	19.141	907.189	697.330
225.796	19.322	906.223	697.259
226.811	19.409	905.386	696.903
227.826	19.334	905.106	696.324
228.840	19.133	904.032	694.624
229.855	19.030	903.524	693.756
230.869	18.994	903.169	693.278
231.884	19.029	902.287	692.683
232.899	18.988	901.796	692.077
233.913	18.970	900.795	691.177
234.928	19.024	899.837	690.599
235.942	18.915	899.234	689.635
236.957	18.751	898.269	688.178
237.972	18.859	897.239	687.758
238.986	19.066	896.859	688.236
240.001	18.932	896.669	687.492
241.015	18.773	896.344	686.546
242.030	18.950	895.259	686.364
243.045	19.037	894.753	686.262
244.059	19.175	894.046	686.207
245.074	19.249	893.066	685.690
246.088	19.179	892.868	685.200
247.103	19.359	892.227	685.361
248.117	19.243	891.972	684.645
249.132	19.500	891.715	685.406
250.147	19.884	891.000	686.319
251.161	19.955	890.210	685.929
252.176	20.063	889.681	685.890
253.190	19.972	889.307	685.180
254.205	20.033	888.953	685.088
255.220	20.278	887.910	685.192
256.234	20.023	887.494	683.803
257.249	19.955	886.944	683.052
258.263	20.030	886.630	683.046
259.278	20.075	885.437	682.244
260.293	19.994	885.414	681.844
261.307	19.924	884.867	681.089
262.322	20.083	884.305	681.220
263.336	20.171	883.167	680.630
264.351	20.300	882.645	680.673
265.366	20.050	882.483	679.507
266.380	20.270	881.594	679.626
267.395	20.129	881.007	678.562
268.409	20.179	879.699	677.690
269.424	20.066	879.019	676.664
270.439	20.081	878.501	676.264
271.453	20.019	877.828	675.444
272.468	19.860	876.897	674.047
273.482	19.889	876.294	673.639
274.497	19.911	875.621	673.148
275.512	19.843	875.316	672.587
276.526	19.963	874.012	671.994
277.541	19.786	873.662	670.978
278.555	19.881	873.431	671.109
279.570	19.936	872.972	670.911
280.585	20.186	872.666	671.584
281.599	20.374	871.800	671.583
282.614	20.352	870.708	670.598
283.628	20.113	870.309	669.312
284.643	19.960	869.838	668.299
285.657	19.992	869.393	668.020
286.672	19.917	868.629	667.085
287.687	20.027	868.398	667.271
288.701	20.033	867.609	666.630
289.716	19.911	867.607	666.099
290.730	20.187	866.673	666.384
291.745	20.058	866.431	665.644
292.760	20.101	865.476	665.016
293.774	20.181	864.919	664.837
294.789	20.334	864.537	665.072
295.803	20.382	863.850	664.665
296.818	20.091	863.109	662.925
297.833	20.071	862.394	662.241
298.847	20.047	861.300	661.251
299.862	20.107	860.691	660.953
300.876	20.253	860.124	661.015
301.891	20.360	859.490	660.877
302.906	20.362	859.432	660.782
303.920	20.457	858.824	660.617
304.935	20.594	858.207	660.607
305.949	20.720	857.449	660.440
306.964	20.648	857.012	659.771
307.979	20.514	855.993	658.423
308.993	20.556	855.474	658.123
310.008	20.786	854.804	658.420
311.022	20.681	854.452	657.695
312.037	20.587	853.880	656.841
313.052	20.459	853.368	655.905
314.066	20.533	852.386	655.371
315.081	20.326	851.581	653.915
316.095	20.063	851.373	652.708
317.110	20.285	850.699	652.966
318.125	20.071	850.294	651.795
319.139	20.248	849.772	652.000
320.154	20.239	849.297	651.547
321.168	20.298	848.674	651.232
322.183	20.317	848.280	650.944
323.197	20.314	847.701	650.431
324.212	20.371	846.891	649.963
325.227	20.277	846.964	649.610
326.241	20.395	846.258	649.452
327.256	20.189	845.744	648.230
328.270	20.253	845.027	647.861
329.285	20.446	843.753	647.549
330.300	20.530	843.410	647.542
331.314	20.369	843.439	646.907
332.329	20.360	842.472	646.073
333.343	20.527	842.008	646.283
334.358	20.610	841.730	646.319
335.373	20.701	840.864	645.935
336.387	20.653	840.332	645.292
337.402	20.749	839.909	645.263
338.416	20.796	839.646	645.179
339.431	20.701	839.475	644.641
340.446	20.961	838.419	644.735
341.460	21.046	838.106	644.749
342.475	21.145	837.448	644.553
343.489	21.143	836.993	644.137
344.504	21.191	836.469	643.854
345.519	21.234	835.998	643.595
346.533	21.269	835.692	643.430
347.548	21.265	834.950	642.787
348.562	21.038	834.430	641.494
349.577	20.932	833.251	640.141
350.592	20.816	833.086	639.532
351.606	20.690	832.395	638.485
352.621	20.632	831.808	637.764
353.635	20.650	831.744	637.723
354.650	20.783	831.487	637.960
355.665	20.778	830.828	637.378
356.679	20.927	830.240	637.418
357.694	21.063	829.818	637.532
358.708	21.096	829.452	637.317
359.723	20.879	828.727	635.909
360.738	21.058	828.022	635.967
361.752	21.080	827.251	635.397
362.767	21.049	827.331	635.290
363.781	21.124	826.850	635.137
364.796	21.234	826.551	635.252
365.810	21.271	826.322	635.154
366.825	21.610	825.622	635.792
367.840	21.566	825.363	635.376
368.854	21.600	825.303	635.395
369.869	21.458	824.266	634.027
370.883	21.425	823.540	633.292
371.898	21.319	823.334	632.696
372.913	21.407	822.528	632.337
373.927	21.597	821.981	632.547
374.942	21.419	821.122	631.188
375.956	21.513	820.782	631.211
376.971	21.497	820.357	630.769
377.986	21.604	820.021	630.840
379.000	21.695	819.185	630.468
380.015	21.769	818.916	630.475
381.029	21.760	818.505	630.069
382.044	21.776	817.610	629.380
383.059	21.750	816.938	628.713
384.073	21.621	816.842	628.123
385.088	21.884	815.710	628.140
386.102	21.529	814.931	626.213
387.117	21.415	814.964	625.774
388.132	21.455	814.452	625.470
389.146	21.413	813.776	624.746
390.161	21.296	813.745	624.249
391.175	21.535	813.252	624.669
392.190	21.631	812.857	624.651
393.205	21.653	812.304	624.251
394.219	21.586	811.733	623.517
395.234	21.531	811.085	622.769
396.248	21.380	810.355	621.616
397.263	21.421	809.728	621.227
398.278	21.333	809.501	620.686
399.292	21.106	809.141	619.548
400.307	21.193	808.929	619.637
401.321	21.296	808.072	619.294
402.336	21.162	807.980	618.693
403.350	21.417	807.673	619.305
404.365	21.360	807.463	618.887
405.380	21.416	807.096	618.751
406.394	21.758	806.383	619.359
407.409	21.679	806.344	618.993
408.423	21.833	805.683	618.974
409.438	21.997	804.984	618.963
410.453	21.953	804.772	618.589
411.467	22.136	804.329	618.837
412.482	22.194	803.400	618.273
413.496	22.147	803.212	617.908
414.511	22.253	802.967	618.036
415.526	22.328	802.664	618.015
416.540	22.158	802.155	616.971
417.555	22.144	801.933	616.696
418.569	22.011	801.255	615.653
419.584	22.167	800.715	615.729
420.599	22.143	800.530	615.450
421.613	158.393	1368.738	1788.607
422.628	137.478	1451.537	1788.745
