DTS Sentinel unit serial number:	SN413079Multiplexer serial number:	ORYXHardware model number:	OX4-SRSoftware version number:	ORYX F/W v4.00 Oryx Data Collector v3.7.2.0data status	okinstallation	princeton_trtdifferential loss correction	single-endedforward channel	channel 3reverse channel	N/Adate	2019/09/13time	04:08:34forward acquisition time	60.00reverse acquisition time	0.00gamma	496.2192k internal	0.2337k external	0.2337temperature offset calibration	1.0138default loss term (dB/km)	0.3790temperature slope calibration	1.0000multiplexer offset coefficient	1.0000multiplexer slope coefficient	1.0000fibre end	0.00T internal ref (°C)	26.94T ext. ref 1 (°C)	4.05T ext. ref 2 (°C)	21.26length (m)	temperature (°C)	Stokes	anti-Stokes-747.200	800.000	-0.098	-0.318
-746.185	37.388	-0.301	0.268
-745.171	-200.000	0.012	0.299
-744.156	-56.544	-0.107	0.047
-743.142	-95.246	0.394	-0.107
-742.127	353.385	0.032	-0.063
-741.112	-128.775	-0.414	0.059
-740.098	20.589	-0.133	-0.108
-739.083	-111.321	0.359	-0.074
-738.069	435.589	-0.117	0.256
-737.054	-37.842	0.160	-0.085
-736.039	-110.726	-0.246	-0.051
-735.025	-89.081	0.336	0.100
-734.010	-200.000	-0.064	-0.397
-732.996	70.324	-0.228	-0.237
-731.981	800.000	0.041	0.175
-730.966	-128.896	-0.210	-0.030
-729.952	119.986	-0.172	-0.214
-728.937	15.138	-0.192	-0.151
-727.923	800.000	0.019	0.065
-726.908	800.000	-0.087	0.285
-725.894	-83.020	0.484	-0.157
-724.879	123.152	-0.225	0.283
-723.864	-70.267	0.098	0.037
-722.850	155.685	-0.240	-0.332
-721.835	340.534	0.118	-0.231
-720.821	-120.578	-0.306	0.052
-719.806	-78.278	-0.220	0.076
-718.791	21.681	-0.166	0.136
-717.777	51.642	-0.083	0.079
-716.762	-104.126	0.302	-0.071
-715.748	74.161	-0.216	-0.227
-714.733	-46.355	-0.118	-0.058
-713.718	-200.000	-0.005	-0.025
-712.704	-156.343	0.152	0.010
-711.689	-126.760	-0.278	0.041
-710.675	-128.769	0.138	-0.020
-709.660	-190.955	0.579	-0.006
-708.645	-200.000	-0.078	0.385
-707.631	180.916	-0.155	0.228
-706.616	-156.627	0.315	-0.020
-705.602	-200.000	0.376	0.000
-704.587	77.869	-0.262	-0.280
-703.572	107.704	0.254	-0.303
-702.558	-102.133	0.093	0.022
-701.543	87.242	-0.134	-0.149
-700.529	-102.217	0.321	0.077
-699.514	212.855	-0.013	0.021
-698.499	137.902	0.089	-0.117
-697.485	-130.207	-0.309	0.042
-696.470	-120.158	0.158	-0.027
-695.456	800.000	-0.028	-0.124
-694.441	589.059	-0.199	-0.491
-693.426	196.426	-0.119	-0.182
-692.412	-166.196	0.242	0.010
-691.397	-96.817	-0.112	-0.029
-690.383	23.164	0.185	0.152
-689.368	267.440	-0.094	0.165
-688.354	-200.000	0.073	-0.332
-687.339	-152.390	-0.239	0.017
-686.324	-200.000	-0.006	0.130
-685.310	800.000	-0.065	-0.264
-684.295	-143.582	0.169	-0.016
-683.281	-117.421	0.241	0.044
-682.266	-200.000	0.037	0.269
-681.251	-200.000	-0.002	-0.386
-680.237	130.245	-0.218	0.280
-679.222	-86.131	-0.134	-0.042
-678.208	-142.912	0.113	0.011
-677.193	-66.219	-0.327	-0.130
-676.178	-144.401	-0.388	0.036
-675.164	590.305	0.072	-0.179
-674.149	-148.579	0.286	-0.023
-673.135	7.629	-0.273	0.205
-672.120	84.634	0.190	-0.209
-671.105	190.482	0.158	-0.238
-670.091	221.654	0.040	0.064
-669.076	-177.994	0.161	-0.004
-668.062	456.164	-0.051	0.113
-667.047	-56.119	-0.265	0.118
-666.032	25.999	0.219	-0.183
-665.018	-115.848	0.361	0.067
-664.003	800.000	-0.009	-0.025
-662.989	-158.397	-0.189	0.011
-661.974	-200.000	-0.079	-0.435
-660.959	12.222	-0.066	-0.051
-659.945	21.145	-0.064	-0.052
-658.930	254.172	0.133	0.227
-657.916	-113.630	-0.226	0.044
-656.901	-200.000	-0.026	-0.131
-655.886	49.752	0.122	-0.115
-654.872	-20.129	-0.107	-0.066
-653.857	316.335	0.169	-0.319
-652.843	-200.000	-0.082	-0.361
-651.828	-102.682	-0.175	-0.042
-650.814	70.630	0.159	0.164
-649.799	-200.000	0.430	0.000
-648.784	-137.456	-0.282	0.032
-647.770	-14.003	-0.304	0.197
-646.755	125.006	-0.116	0.146
-645.741	374.045	-0.027	-0.054
-644.726	-63.731	-0.271	-0.111
-643.711	-87.413	0.634	-0.192
-642.697	517.371	-0.168	0.392
-641.682	-170.387	0.217	0.008
-640.668	800.000	0.084	-0.237
-639.653	-42.969	-0.418	0.212
-638.638	67.685	0.174	-0.178
-637.624	-200.000	-0.038	0.175
-636.609	-200.000	0.037	0.174
-635.595	-64.654	-0.363	-0.147
-634.580	-77.757	0.211	-0.073
-633.565	-200.000	-0.310	0.001
-632.551	353.515	-0.086	-0.171
-631.536	-200.000	-0.030	-0.162
-630.522	800.000	-0.032	0.094
-629.507	-106.827	-0.355	0.079
-628.492	-119.598	0.250	0.043
-627.478	-35.106	0.231	0.126
-626.463	1.465	0.185	-0.133
-625.449	800.000	-0.026	0.099
-624.434	-148.047	0.367	-0.030
-623.419	-200.000	-0.036	-0.251
-622.405	-200.000	0.021	-0.219
-621.390	70.883	-0.302	-0.312
-620.376	90.885	0.029	-0.032
-619.361	-168.202	-0.271	-0.010
-618.346	-46.107	0.035	0.017
-617.332	800.000	0.079	0.311
-616.317	142.297	0.072	-0.096
-615.303	8.063	-0.202	0.152
-614.288	-200.000	-0.016	-0.073
-613.273	-175.346	-0.510	0.014
-612.259	-59.525	-0.167	0.071
-611.244	499.645	0.132	0.304
-610.230	540.159	-0.189	-0.450
-609.215	-200.000	-0.062	0.280
-608.201	800.000	0.059	0.221
-607.186	22.412	0.153	0.125
-606.171	-93.672	-0.138	0.038
-605.157	-200.000	0.002	0.206
-604.142	86.693	0.097	-0.106
-603.128	-41.941	-0.203	-0.104
-602.113	800.000	-0.043	-0.150
-601.098	-10.533	0.168	0.111
-600.084	-83.441	-0.129	-0.041
-599.069	250.915	-0.048	-0.082
-598.055	481.347	-0.127	-0.287
-597.040	315.010	-0.201	-0.379
-596.025	-128.900	-0.485	-0.068
-595.011	-97.570	0.256	-0.066
-593.996	-122.707	0.396	-0.064
-592.982	657.995	-0.073	-0.188
-591.967	129.647	0.130	-0.166
-590.952	-157.741	0.298	0.018
-589.938	177.489	-0.107	-0.155
-588.923	-141.186	-0.342	-0.035
-587.909	-4.937	-0.059	0.041
-586.894	-76.303	-0.102	0.036
-585.879	-57.138	-0.419	-0.184
-584.865	-83.717	0.232	0.074
-583.850	-39.826	-0.084	0.044
-582.836	305.176	0.063	0.117
-581.821	-200.000	-0.002	0.106
-580.806	44.362	-0.067	0.061
-579.792	-200.000	0.039	0.225
-578.777	35.693	-0.184	-0.161
-577.763	-66.668	-0.215	0.085
-576.748	426.527	-0.022	0.046
-575.733	-200.000	-0.153	0.000
-574.719	-24.898	-0.121	-0.072
-573.704	5.998	-0.147	0.109
-572.690	800.000	0.113	0.391
-571.675	597.660	-0.079	0.195
-570.661	221.238	-0.108	0.173
-569.646	800.000	0.048	-0.185
-568.631	-67.019	-0.141	0.055
-567.617	-88.168	0.257	-0.077
-566.602	77.137	-0.105	0.111
-565.588	144.414	0.107	0.142
-564.573	-53.128	0.295	0.135
-563.558	-200.000	-0.013	0.257
-562.544	252.455	-0.277	-0.471
-561.529	119.695	0.130	0.160
-560.515	-159.463	-0.198	0.011
-559.500	259.322	0.055	-0.094
-558.485	65.975	-0.063	-0.064
-557.471	99.582	0.143	0.165
-556.456	472.629	0.089	-0.199
-555.442	-80.402	-0.229	0.076
-554.427	800.000	-0.059	0.256
-553.412	62.475	0.025	0.024
-552.398	-142.535	-0.226	-0.022
-551.383	-79.457	-0.212	0.071
-550.369	358.149	0.072	0.144
-549.354	209.554	-0.098	-0.153
-548.339	800.000	0.095	-0.262
-547.325	457.374	0.052	-0.116
-546.310	204.074	-0.179	0.276
-545.296	18.320	0.095	0.076
-544.281	-180.009	-0.146	-0.003
-543.266	-42.116	0.111	-0.056
-542.252	-158.275	-0.145	-0.008
-541.237	147.935	-0.198	0.265
-540.223	-200.000	-0.012	-0.438
-539.208	-200.000	-0.057	0.278
-538.193	-131.905	-0.244	-0.032
-537.179	86.329	0.072	0.079
-536.164	-200.000	-0.027	-0.245
-535.150	-200.000	0.027	-0.144
-534.135	-119.378	0.198	0.034
-533.121	800.000	0.016	0.050
-532.106	800.000	0.141	0.410
-531.091	189.224	0.141	0.210
-530.077	-4.420	-0.124	-0.085
-529.062	573.710	0.108	-0.261
-528.048	213.553	0.129	-0.202
-527.033	-200.000	-0.006	0.035
-526.018	-146.810	0.218	0.019
-525.004	-54.988	0.148	-0.066
-523.989	800.000	0.070	-0.261
-522.975	-104.342	-0.165	-0.038
-521.960	22.688	0.256	0.209
-520.945	-200.000	0.009	-0.243
-519.931	-200.000	-0.033	-0.294
-518.916	623.494	0.052	-0.131
-517.902	-94.883	-0.066	-0.018
-516.887	-58.142	-0.250	0.109
-515.872	109.886	0.125	-0.149
-514.858	-147.802	0.224	-0.019
-513.843	513.237	0.116	-0.269
-512.829	-67.565	-0.380	-0.148
-511.814	-56.848	-0.223	0.098
-510.799	-92.789	0.216	-0.060
-509.785	31.398	0.105	0.089
-508.770	-200.000	-0.038	-0.188
-507.756	-82.344	0.311	0.101
-506.741	-125.127	-0.372	0.057
-505.726	27.444	0.240	-0.201
-504.712	-200.000	-0.042	0.217
-503.697	-200.000	-0.001	-0.195
-502.683	-200.000	-0.020	0.136
-501.668	-7.684	0.389	0.261
-500.653	433.278	-0.025	-0.054
-499.639	-200.000	0.017	-0.127
-498.624	-53.465	0.324	-0.147
-497.610	-146.864	-0.168	0.014
-496.595	-81.981	-0.102	-0.033
-495.581	79.037	-0.248	0.264
-494.566	-200.000	0.067	-0.412
-493.551	139.313	0.075	-0.098
-492.537	-200.000	-0.004	0.097
-491.522	549.742	0.121	0.288
-490.508	173.891	0.090	0.129
-489.493	513.199	-0.012	-0.029
-488.478	-20.673	0.082	0.050
-487.464	-74.437	0.269	-0.096
-486.449	6.470	0.206	0.152
-485.435	-23.729	-0.214	0.128
-484.420	-121.485	-0.273	-0.045
-483.405	-140.518	0.042	0.004
-482.391	-73.990	0.082	-0.030
-481.376	191.470	0.035	-0.052
-480.362	177.507	0.196	-0.283
-479.347	550.694	-0.121	-0.289
-478.332	288.013	0.185	-0.332
-477.318	-160.636	-0.172	0.009
-476.303	-57.350	0.090	-0.039
-475.289	-200.000	-0.003	-0.246
-474.274	162.551	0.140	-0.195
-473.259	-45.970	-0.283	-0.138
-472.245	-73.456	0.149	0.054
-471.230	23.451	0.220	0.179
-470.216	-200.000	0.006	-0.113
-469.201	800.000	-0.105	0.371
-468.186	-43.137	0.358	-0.180
-467.172	-85.410	-0.080	0.025
-466.157	-115.962	-0.226	0.042
-465.143	-81.281	-0.085	-0.028
-464.128	-200.000	-0.004	0.106
-463.113	605.808	0.018	0.045
-462.099	-200.000	-0.015	0.082
-461.084	-100.134	-0.185	0.046
-460.070	-21.968	0.043	0.026
-459.055	800.000	-0.051	0.210
-458.040	-40.549	-0.303	0.156
-457.026	-200.000	0.027	-0.333
-456.011	-91.484	0.127	-0.036
-454.997	-3.678	-0.170	0.117
-453.982	316.770	0.177	0.331
-452.968	-107.058	-0.225	-0.049
-451.953	147.061	-0.222	0.297
-450.938	-118.478	0.192	-0.034
-449.924	-53.625	0.167	-0.076
-448.909	-200.000	0.021	0.174
-447.895	-158.960	-0.434	0.024
-446.880	-18.730	0.212	-0.131
-445.865	800.000	-0.020	-0.060
-444.851	-29.576	0.123	0.070
-443.836	-115.927	-0.078	0.014
-442.822	-200.000	0.048	-0.339
-441.807	800.000	-0.039	0.135
-440.792	-89.259	0.120	0.035
-439.778	74.662	0.171	-0.178
-438.763	620.380	-0.069	-0.172
-437.749	-153.863	-0.221	-0.015
-436.734	103.008	0.117	-0.136
-435.719	31.921	-0.318	0.272
-434.705	106.103	0.022	0.025
-433.690	-172.738	0.325	-0.010
-432.676	-200.000	0.015	0.271
-431.661	24.802	-0.298	0.245
-430.646	-32.489	0.086	-0.047
-429.632	649.682	-0.057	-0.145
-428.617	800.000	-0.039	-0.127
-427.603	-58.197	-0.304	-0.131
-426.588	126.656	0.323	-0.405
-425.573	-27.221	0.235	0.136
-424.559	-82.407	0.068	-0.022
-423.544	122.000	-0.152	-0.188
-422.530	-79.483	0.164	-0.055
-421.515	-200.000	0.004	-0.084
-420.500	693.056	0.051	-0.132
-419.486	-28.066	0.058	-0.033
-418.471	-141.388	-0.518	-0.052
-417.457	-49.056	-0.312	0.148
-416.442	427.335	-0.078	-0.166
-415.428	39.934	0.149	0.133
-414.413	-123.907	0.344	0.054
-413.398	87.172	-0.264	0.289
-412.384	800.000	-0.057	0.169
-411.369	69.779	-0.110	0.112
-410.355	-179.202	0.243	0.005
-409.340	-200.000	0.219	0.000
-408.325	181.523	0.108	0.158
-407.311	-125.420	-0.266	-0.040
-406.296	-171.315	-0.166	0.006
-405.282	59.659	-0.053	0.052
-404.267	261.870	0.042	0.072
-403.252	-139.667	0.266	0.028
-402.238	-0.164	0.132	0.093
-401.223	52.753	-0.220	-0.209
-400.209	800.000	-0.031	0.116
-399.194	-200.000	0.010	0.178
-398.179	800.000	-0.065	-0.254
-397.165	-56.887	0.124	0.054
-396.150	-200.000	0.030	0.299
-395.136	-148.344	-0.184	-0.015
-394.121	-200.000	-0.003	0.109
-393.106	291.644	0.063	-0.114
-392.092	-19.905	-0.053	-0.032
-391.077	-42.083	0.283	-0.143
-390.063	-200.000	0.008	-0.061
-389.048	-200.000	0.024	0.158
-388.033	-62.897	-0.073	-0.030
-387.019	-111.544	-0.170	0.034
-386.004	-200.000	-0.004	-0.125
-384.990	-67.558	0.189	-0.074
-383.975	-107.944	0.259	-0.056
-382.960	-98.617	0.187	-0.047
-381.946	-4.580	0.183	0.125
-380.931	76.486	0.176	-0.185
-379.917	-99.242	-0.102	-0.025
-378.902	247.502	-0.090	0.151
-377.888	10.890	-0.112	0.084
-376.873	-18.278	-0.235	-0.145
-375.858	279.611	0.130	-0.230
-374.844	29.065	0.242	-0.203
-373.829	800.000	-0.105	-0.342
-372.815	800.000	0.049	-0.184
-371.800	-47.178	-0.371	0.179
-370.785	41.764	0.189	-0.170
-369.771	-76.124	-0.274	-0.096
-368.756	-63.232	0.275	-0.112
-367.742	-114.231	0.247	0.047
-366.727	18.519	-0.072	0.057
-365.712	-36.180	-0.112	-0.060
-364.698	-200.000	0.001	-0.172
-363.683	-55.091	0.194	0.086
-362.669	-155.410	0.264	0.017
-361.654	234.688	-0.103	0.168
-360.639	366.095	0.157	-0.312
-359.625	479.966	-0.035	-0.079
-358.610	238.774	0.011	0.018
-357.596	-19.080	-0.279	0.172
-356.581	-16.374	0.161	-0.101
-355.566	30.555	-0.179	0.152
-354.552	-167.805	0.392	0.015
-353.537	-70.042	0.067	-0.025
-352.523	141.249	-0.146	-0.191
-351.508	53.329	-0.080	-0.076
-350.493	48.384	0.089	0.082
-349.479	-200.000	-0.038	0.245
-348.464	-200.000	-0.028	-0.303
-347.450	150.682	-0.060	0.081
-346.435	58.791	0.174	-0.169
-345.420	-26.062	0.263	-0.153
-344.406	595.149	-0.063	-0.155
-343.391	185.020	0.145	-0.213
-342.377	-19.136	-0.238	-0.146
-341.362	-200.000	-0.052	-0.281
-340.348	92.842	0.126	0.140
-339.333	-123.481	0.333	-0.052
-338.318	530.782	0.054	-0.126
-337.304	800.000	0.117	-0.343
-336.289	48.498	0.046	-0.042
-335.275	332.955	0.065	-0.124
-334.260	-52.273	-0.099	-0.045
-333.245	-200.000	0.010	-0.097
-332.231	18.400	0.064	-0.050
-331.216	-95.609	-0.156	-0.041
-330.202	-200.000	-0.015	-0.234
-329.187	275.632	-0.122	-0.213
-328.172	-168.446	-0.259	0.010
-327.158	29.560	-0.177	-0.148
-326.143	800.000	0.083	0.343
-325.129	-200.000	0.268	0.001
-324.114	800.000	-0.122	-0.448
-323.099	-58.400	0.222	-0.095
-322.085	117.988	0.198	-0.241
-321.070	25.715	-0.234	0.193
-320.056	-45.072	-0.135	0.066
-319.041	-67.657	-0.533	-0.206
-318.026	-200.000	0.004	0.214
-317.012	-200.000	-0.025	0.301
-315.997	-58.416	-0.224	-0.096
-314.983	21.592	-0.315	-0.253
-313.968	-200.000	-0.010	-0.135
-312.953	-64.915	-0.302	-0.121
-311.939	9.533	0.083	-0.062
-310.924	-155.120	0.226	0.015
-309.910	-29.767	0.233	-0.131
-308.895	124.375	-0.207	0.257
-307.880	163.336	0.099	0.137
-306.866	800.000	-0.066	-0.194
-305.851	204.125	0.043	0.066
-304.837	181.262	-0.011	0.016
-303.822	25.542	-0.063	0.052
-302.807	133.655	0.050	0.064
-301.793	48.669	-0.032	-0.030
-300.778	-33.400	0.308	0.168
-299.764	188.267	-0.080	0.118
-298.749	-136.535	-0.085	0.010
-297.735	6.854	0.261	0.192
-296.720	601.067	0.189	0.464
-295.705	66.590	0.201	0.202
-294.691	-70.587	-0.132	0.049
-293.676	0.948	0.095	0.067
-292.662	-129.570	-0.201	-0.027
-291.647	-200.000	0.074	0.366
-290.632	-65.154	0.120	-0.048
-289.618	800.000	-0.124	-0.352
-288.603	178.776	-0.166	0.240
-287.589	352.632	-0.047	0.092
-286.574	49.844	-0.165	-0.154
-285.559	-26.877	0.189	0.109
-284.545	90.672	-0.053	0.058
-283.530	44.443	-0.206	0.186
-282.516	-173.600	0.245	-0.007
-281.501	-87.703	-0.171	-0.051
-280.486	-15.933	-0.164	0.103
-279.472	-56.601	0.194	0.085
-278.457	-200.000	-0.053	0.424
-277.443	-38.417	-0.272	0.142
-276.428	140.031	-0.104	0.135
-275.413	60.383	-0.248	0.242
-274.399	192.776	-0.171	0.254
-273.384	-32.348	0.383	0.211
-272.370	-200.000	-0.058	-0.273
-271.355	-200.000	-0.053	-0.248
-270.340	29.185	-0.029	-0.025
-269.326	800.000	-0.050	0.149
-268.311	-69.254	-0.059	-0.022
-267.297	31.907	-0.174	-0.147
-266.282	391.084	0.117	0.239
-265.267	-200.000	0.027	-0.153
-264.253	-105.041	-0.118	-0.027
-263.238	-37.260	-0.114	0.060
-262.224	-200.000	-0.007	-0.151
-261.209	25.037	0.177	0.144
-260.195	27.173	0.115	0.095
-259.180	-200.000	0.098	0.474
-258.165	800.000	-0.102	0.309
-257.151	-19.693	-0.125	0.076
-256.136	-82.647	-0.017	-0.005
-255.122	106.956	-0.244	-0.285
-254.107	50.755	-0.145	0.135
-253.092	79.229	0.156	0.165
-252.078	70.525	0.060	0.061
-251.063	-200.000	-0.005	-0.097
-250.049	-111.843	0.387	0.077
-249.034	800.000	-0.078	0.296
-248.019	-200.000	0.008	-0.075
-247.005	-152.475	0.246	-0.017
-245.990	496.188	-0.037	0.083
-244.976	-197.473	-0.461	0.003
-243.961	-200.000	-0.037	0.366
-242.946	-38.492	0.106	0.055
-241.932	784.561	0.016	-0.043
-240.917	800.000	0.050	-0.172
-239.903	-126.588	0.505	0.074
-238.888	-94.543	0.063	0.017
-237.873	-200.000	0.016	0.138
-236.859	-168.320	-0.149	0.006
-235.844	38.647	0.188	0.165
-234.830	-58.597	0.186	-0.079
-233.815	-34.700	0.173	0.093
-232.800	104.901	-0.154	0.179
-231.786	361.117	0.080	0.158
-230.771	320.350	-0.040	0.074
-229.757	537.653	-0.152	-0.355
-228.742	-130.822	0.178	0.023
-227.727	-200.000	-0.010	-0.064
-226.713	-74.052	-0.296	0.106
-225.698	-87.680	0.260	0.077
-224.684	-72.736	0.234	0.085
-223.669	298.483	-0.122	-0.220
-222.655	12.364	-0.026	0.020
-221.640	5.123	0.209	-0.151
-220.625	-31.486	0.233	0.129
-219.611	-60.874	-0.156	0.065
-218.596	87.276	-0.498	0.541
-217.582	-78.508	-0.167	-0.056
-216.567	-104.228	0.210	0.048
-215.552	-68.177	0.407	0.156
-214.538	-200.000	-0.061	0.303
-213.523	-56.999	-0.174	0.076
-212.509	31.548	-0.092	0.078
-211.494	-119.321	0.233	-0.040
-210.479	-200.000	0.003	-0.315
-209.465	-112.512	-0.188	-0.037
-208.450	-33.932	-0.171	-0.092
-207.436	624.644	-0.063	-0.156
-206.421	-63.720	0.204	0.082
-205.406	-169.052	0.333	0.012
-204.392	-83.752	-0.287	0.090
-203.377	8.124	-0.059	-0.044
-202.363	201.700	-0.167	0.254
-201.348	-200.000	-0.025	-0.164
-200.333	-42.059	0.159	0.080
-199.319	800.000	-0.062	-0.257
-198.304	-143.980	0.215	0.020
-197.290	-25.567	0.192	0.111
-196.275	-200.000	-0.008	0.035
-195.260	-33.425	0.253	0.138
-194.246	-133.002	0.241	0.030
-193.231	800.000	0.164	-0.454
-192.217	247.836	-0.039	0.064
-191.202	-137.831	0.232	0.026
-190.187	-200.000	0.042	0.327
-189.173	-46.235	0.245	0.118
-188.158	13.791	0.246	-0.188
-187.144	-15.869	0.216	-0.135
-186.129	-119.375	-0.287	-0.049
-185.114	323.352	-0.068	-0.128
-184.100	-23.065	0.116	-0.069
-183.085	50.359	-0.068	0.063
-182.071	-118.379	-0.151	-0.026
-181.056	-200.000	0.010	0.074
-180.042	-140.710	0.114	0.012
-179.027	303.584	-0.042	0.077
-178.012	198.415	-0.237	-0.355
-176.998	-108.692	0.071	0.015
-175.983	-23.163	-0.070	0.041
-174.969	-136.115	-0.224	-0.026
-173.954	-200.000	-0.007	-0.235
-172.939	-200.000	-0.025	-0.118
-171.925	-99.545	-0.057	0.014
-170.910	-200.000	0.019	-0.203
-169.896	-65.703	-0.186	0.073
-168.881	315.196	-0.108	0.200
-167.866	32.778	0.214	-0.182
-166.852	61.970	0.136	-0.133
-165.837	800.000	0.034	-0.119
-164.823	570.247	0.079	0.188
-163.808	-93.709	0.361	0.098
-162.793	-200.000	0.062	-0.312
-161.779	7.070	-0.125	-0.091
-160.764	335.311	0.137	-0.261
-159.750	265.400	-0.060	0.102
-158.735	85.667	0.376	0.405
-157.720	-200.000	-0.018	0.092
-156.706	-200.000	-0.049	0.312
-155.691	800.000	0.045	0.140
-154.677	259.394	-0.158	-0.267
-153.662	-52.633	-0.068	0.031
-152.647	-200.000	0.060	0.326
-151.633	-158.981	0.213	0.012
-150.618	-105.584	-0.144	0.032
-149.604	-101.419	-0.369	0.088
-148.589	157.710	0.100	0.136
-147.574	124.785	0.071	-0.088
-146.560	-16.786	-0.305	0.189
-145.545	197.972	-0.183	0.275
-144.531	-200.000	0.003	0.221
-143.516	-47.387	0.067	0.032
-142.502	-200.000	0.033	0.278
-141.487	-200.000	0.010	-0.147
-140.472	92.413	0.023	0.026
-139.458	-200.000	0.018	0.102
-138.443	800.000	0.076	-0.254
-137.429	562.816	0.052	0.124
-136.414	500.411	-0.084	0.191
-135.399	290.179	-0.163	-0.291
-134.385	-64.403	0.054	0.022
-133.370	-52.926	-0.173	0.078
-132.356	-145.371	0.323	0.029
-131.341	159.725	0.105	-0.143
-130.326	90.271	-0.182	0.199
-129.312	495.209	-0.062	0.139
-128.297	-26.728	-0.262	0.150
-127.283	-200.000	0.028	0.274
-126.268	65.773	0.380	-0.377
-125.253	-105.390	-0.489	0.109
-124.239	-7.509	-0.264	0.175
-123.224	296.359	0.101	0.181
-122.210	-200.000	-0.019	-0.116
-121.195	-47.829	0.291	-0.138
-120.180	-200.000	0.027	0.240
-119.166	-200.000	-0.006	0.207
-118.151	7.958	0.188	-0.138
-117.137	52.494	0.079	0.074
-116.122	-3.070	0.201	0.137
-115.107	237.191	0.069	0.112
-114.093	11.957	0.318	0.240
-113.078	800.000	-0.021	0.065
-112.064	-200.000	0.054	-0.313
-111.049	204.031	0.210	-0.319
-110.034	-45.125	-0.280	-0.137
-109.020	0.072	-0.087	0.061
-108.005	-70.910	0.430	-0.159
-106.991	800.000	0.053	0.215
-105.976	-200.000	0.042	0.424
-104.962	-200.000	-0.025	0.184
-103.947	-156.932	0.266	-0.016
-102.932	131.037	0.143	-0.180
-101.918	37.791	-0.093	-0.080
-100.903	-200.000	-0.008	0.275
-99.889	395.948	-0.027	0.055
-98.874	28.233	0.198	-0.164
-97.859	-128.743	0.260	-0.036
-96.845	-128.047	0.492	-0.069
-95.830	-17.956	-0.038	-0.023
-94.816	238.349	0.055	-0.090
-93.801	0.308	-0.104	-0.073
-92.786	-194.386	0.189	0.001
-91.772	800.000	0.020	-0.068
-90.757	-74.281	0.218	0.077
-89.743	800.000	0.126	0.403
-88.728	-103.349	-0.244	-0.056
-87.713	-195.136	0.156	-0.001
-86.699	575.987	0.055	-0.130
-85.684	120.930	0.097	-0.118
-84.670	-200.000	-0.021	0.168
-83.655	-56.236	-0.104	0.045
-82.640	800.000	-0.100	0.298
-81.626	-52.864	-0.260	-0.117
-80.611	358.839	0.142	-0.278
-79.597	-200.000	0.004	0.195
-78.582	-0.820	0.187	-0.130
-77.567	42.736	-0.121	-0.108
-76.553	-119.751	0.348	0.059
-75.538	-200.000	-0.015	-0.173
-74.524	57.264	0.305	-0.291
-73.509	-55.466	0.157	0.069
-72.494	-122.885	-0.186	0.029
-71.480	-35.020	0.138	0.073
-70.465	-136.946	0.112	-0.013
-69.451	-157.040	0.243	-0.015
-68.436	286.670	-0.137	0.241
-67.422	-200.000	0.004	-0.131
-66.407	-200.000	-0.001	0.192
-65.392	-108.379	0.325	-0.068
-64.378	-200.000	-0.026	0.227
-63.363	-60.044	0.182	-0.076
-62.349	-200.000	-0.059	-0.301
-61.334	116.121	-0.964	-1.154
-60.319	266.679	0.555	0.948
-59.305	507.605	-0.511	-1.159
-58.290	226.698	0.621	0.985
-57.276	524.802	0.553	1.272
-56.261	-200.000	116.621	660.331
-55.246	526.187	1535.346	3533.338
-54.232	177.230	2702.721	3844.779
-53.217	106.400	2171.410	2514.776
-52.203	37.468	1692.633	1466.557
-51.188	29.970	1509.614	1257.255
-50.173	27.846	1485.019	1222.516
-49.159	51.449	1544.058	1432.950
-48.144	49.726	1559.317	1435.300
-47.130	30.202	1515.128	1263.229
-46.115	27.108	1500.096	1229.744
-45.100	27.034	1495.870	1225.731
-44.086	27.027	1494.392	1224.422
-43.071	26.839	1493.337	1222.241
-42.057	26.815	1491.258	1220.330
-41.042	26.957	1489.740	1219.992
-40.027	26.865	1488.324	1218.171
-39.013	26.954	1486.257	1217.027
-37.998	27.020	1485.445	1216.758
-36.984	26.909	1484.564	1215.242
-35.969	26.907	1482.998	1213.895
-34.954	26.958	1481.234	1212.745
-33.940	26.797	1480.701	1211.188
-32.925	26.937	1478.614	1210.362
-31.911	26.975	1477.351	1209.536
-30.896	26.963	1476.236	1208.495
-29.881	27.023	1475.079	1207.900
-28.867	27.060	1473.657	1206.936
-27.852	26.953	1472.854	1205.519
-26.838	27.034	1470.896	1204.403
-25.823	27.028	1469.484	1203.161
-24.809	27.056	1468.154	1202.208
-23.794	26.948	1466.796	1200.336
-22.779	27.013	1465.329	1199.516
-21.765	26.968	1464.455	1198.453
-20.750	26.881	1463.460	1197.023
-19.736	26.843	1462.480	1195.922
-18.721	26.972	1461.058	1195.558
-17.706	26.903	1459.747	1193.988
-16.692	26.991	1459.152	1194.029
-15.677	26.863	1458.461	1192.576
-14.663	26.939	1456.963	1191.801
-13.648	26.877	1456.532	1190.995
-12.633	26.930	1455.184	1190.192
-11.619	26.856	1454.949	1189.471
-10.604	26.917	1453.557	1188.683
-9.590	26.899	1452.607	1187.744
-8.575	26.940	1451.895	1187.379
-7.560	26.885	1451.188	1186.398
-6.546	26.983	1449.853	1185.896
-5.531	26.913	1449.267	1184.912
-4.517	26.887	1448.457	1184.034
-3.502	26.920	1447.398	1183.341
-2.487	26.976	1446.089	1182.588
-1.473	26.846	1445.745	1181.408
-0.458	26.920	1444.091	1180.491
0.556	28.437	1434.719	1168.333
1.571	25.280	1409.765	1128.107
2.586	21.655	1351.007	1059.113
3.600	20.030	1268.760	985.315
4.615	18.729	1223.584	943.005
5.629	16.565	1167.846	888.611
6.644	10.100	1086.654	795.060
7.659	5.018	1049.902	743.911
8.673	4.257	1044.758	736.584
9.688	4.048	1040.997	732.882
10.702	3.891	1039.587	731.082
11.717	4.004	1037.994	730.428
12.731	6.528	1039.258	743.165
13.746	13.521	1049.558	783.660
14.761	20.215	1058.163	821.840
15.775	22.462	1060.264	834.054
16.790	22.154	1058.671	831.272
17.804	21.335	1056.708	825.789
18.819	20.468	1055.339	820.551
19.834	20.161	1053.671	817.735
20.848	20.009	1053.562	816.860
21.863	20.032	1053.279	816.680
22.877	20.064	1052.032	815.791
23.892	19.684	1051.509	813.525
24.907	19.525	1050.709	812.085
25.921	19.612	1049.623	811.580
26.936	19.538	1048.730	810.470
27.950	19.553	1047.748	809.712
28.965	19.602	1046.608	808.990
29.980	19.579	1045.999	808.340
30.994	19.799	1044.920	808.462
32.009	19.842	1044.511	808.273
33.023	19.925	1043.741	807.994
34.038	20.093	1042.701	807.903
35.053	19.830	1041.520	805.692
36.067	19.724	1040.795	804.565
37.082	19.655	1039.466	803.145
38.096	19.678	1038.819	802.683
39.111	19.848	1038.593	803.226
40.126	20.004	1037.504	803.035
41.140	19.678	1036.621	800.771
42.155	19.394	1035.001	798.134
43.169	19.185	1033.713	796.106
44.184	19.118	1032.511	794.798
45.199	19.093	1031.570	793.891
46.213	19.179	1030.825	793.642
47.228	19.218	1030.346	793.385
48.242	19.561	1029.492	794.231
49.257	19.795	1028.265	794.291
50.271	19.717	1027.367	793.168
51.286	19.771	1026.710	792.837
52.301	19.847	1026.141	792.678
53.315	19.799	1025.455	791.855
54.330	19.644	1024.179	790.093
55.344	19.425	1023.317	788.360
56.359	19.308	1022.497	787.121
57.374	19.450	1021.605	787.015
58.388	19.458	1020.687	786.275
59.403	19.199	1019.786	784.330
60.417	19.100	1019.256	783.405
61.432	19.035	1018.764	782.658
62.447	19.140	1017.990	782.474
63.461	19.018	1016.483	780.694
64.476	19.046	1015.963	780.352
65.490	18.925	1014.864	778.888
66.505	18.769	1013.986	777.441
67.520	18.970	1013.107	777.608
68.534	19.034	1012.738	777.542
69.549	19.044	1011.539	776.602
70.563	18.996	1010.820	775.764
71.578	18.981	1010.396	775.302
72.593	18.757	1009.376	773.441
73.607	18.667	1008.458	772.263
74.622	18.482	1007.539	770.659
75.636	18.646	1006.652	770.648
76.651	18.806	1005.539	770.448
77.666	18.779	1004.780	769.679
78.680	18.751	1004.430	769.216
79.695	18.878	1003.703	769.159
80.709	18.874	1002.976	768.516
81.724	19.130	1002.273	769.053
82.739	19.170	1001.746	768.757
83.753	19.189	1001.130	768.305
84.768	19.556	1000.427	769.332
85.782	19.852	1000.197	770.406
86.797	20.152	999.543	771.169
87.812	20.143	998.802	770.489
88.826	19.957	997.350	768.474
89.841	19.810	996.865	767.379
90.855	19.999	996.119	767.577
91.870	19.939	996.031	767.173
92.884	20.000	995.122	766.673
93.899	19.972	994.466	765.978
94.914	19.984	993.326	765.086
95.928	20.026	992.744	764.757
96.943	19.970	992.550	764.291
97.957	19.925	990.838	762.705
98.972	19.834	990.421	761.918
99.987	19.787	989.495	760.932
101.001	19.865	989.073	760.881
102.016	19.886	988.278	760.295
103.030	19.890	987.193	759.410
104.045	19.813	986.272	758.297
105.060	19.866	985.415	757.804
106.074	19.821	983.970	756.429
107.089	19.622	983.094	754.819
108.103	19.252	981.589	751.981
109.118	19.187	980.875	751.085
110.133	19.142	979.870	750.053
111.147	19.064	978.729	748.774
112.162	19.068	977.760	747.985
113.176	18.963	977.556	747.304
114.191	19.164	976.643	747.414
115.206	19.309	975.739	747.283
116.220	19.297	975.468	746.960
117.235	19.201	974.046	745.387
118.249	19.149	973.594	744.749
119.264	19.063	972.966	743.834
120.279	19.059	971.772	742.838
121.293	19.005	970.853	741.838
122.308	18.722	970.299	740.126
123.322	18.748	969.364	739.461
124.337	18.691	968.062	738.158
125.352	18.637	966.813	736.909
126.366	18.744	965.873	736.584
127.381	18.563	965.111	735.165
128.395	18.535	964.168	734.262
129.410	18.629	963.373	733.993
130.424	18.700	962.122	733.277
131.439	18.728	961.954	733.204
132.454	19.153	961.196	734.375
133.468	19.138	960.472	733.693
134.483	19.225	959.589	733.321
135.497	19.237	959.014	732.871
136.512	18.974	958.504	731.297
137.527	19.227	957.400	731.464
138.541	19.133	956.809	730.548
139.556	19.229	956.297	730.502
140.570	19.301	955.223	729.922
141.585	19.400	954.665	729.847
142.600	19.750	954.555	731.180
143.614	19.750	954.088	730.757
144.629	19.798	953.423	730.388
145.643	20.097	952.195	730.641
146.658	19.880	951.623	729.226
147.673	19.783	949.980	727.494
148.687	19.554	949.225	725.886
149.702	19.390	948.203	724.351
150.716	19.477	947.042	723.766
151.731	19.175	946.439	721.974
152.746	19.331	946.002	722.231
153.760	19.344	945.014	721.467
154.775	19.381	944.344	721.050
155.789	19.502	943.744	721.031
156.804	19.638	942.653	720.702
157.819	19.597	942.044	720.001
158.833	19.634	941.773	719.883
159.848	19.818	941.383	720.288
160.862	19.978	940.901	720.523
161.877	20.015	939.518	719.553
162.892	19.438	938.804	716.546
163.906	19.262	937.618	714.848
164.921	19.253	936.628	713.993
165.935	19.142	935.598	712.686
166.950	19.329	934.782	712.775
167.964	19.598	933.670	712.975
168.979	19.570	932.358	711.793
169.994	19.274	932.264	710.438
171.008	19.237	931.099	709.335
172.023	19.474	930.126	709.508
173.037	19.596	929.736	709.647
174.052	19.901	928.928	710.221
175.067	19.908	928.091	709.545
176.081	19.478	927.490	707.263
177.096	19.306	926.014	705.370
178.110	19.225	925.433	704.534
179.125	19.094	925.225	703.776
180.140	19.178	924.529	703.527
181.154	19.530	923.284	703.954
182.169	19.480	923.294	703.698
183.183	19.882	922.605	704.745
184.198	19.735	922.650	704.120
185.213	19.704	921.601	703.129
186.227	19.737	920.866	702.641
187.242	19.741	920.517	702.330
188.256	19.886	919.713	702.243
189.271	20.023	919.261	702.392
190.286	20.166	918.422	702.265
191.300	19.845	917.655	700.318
192.315	19.320	916.034	696.898
193.329	18.962	915.306	694.835
194.344	19.138	914.603	694.952
195.359	19.180	914.284	694.818
196.373	19.445	913.755	695.423
197.388	19.527	913.454	695.462
198.402	19.775	912.963	696.024
199.417	20.086	912.728	697.034
200.432	20.092	912.828	697.074
201.446	20.343	912.257	697.586
202.461	20.334	911.911	697.221
203.475	20.489	911.442	697.424
204.490	20.363	910.351	696.024
205.504	20.235	909.090	694.486
206.519	19.954	908.429	692.796
207.534	19.862	907.905	691.965
208.548	19.808	907.099	691.074
209.563	19.829	906.133	690.359
210.577	19.966	905.826	690.611
211.592	19.905	905.214	689.839
212.607	20.161	904.714	690.420
213.621	20.325	904.337	690.722
214.636	20.177	903.959	689.783
215.650	19.973	903.247	688.369
216.665	20.192	902.031	688.249
217.680	20.147	902.079	688.046
218.694	20.309	902.168	688.700
219.709	20.511	901.249	688.737
220.723	20.326	900.384	687.283
221.738	20.264	899.296	686.144
222.753	20.165	899.059	685.510
223.767	20.246	898.264	685.164
224.782	20.213	897.273	684.217
225.796	20.469	897.073	685.016
226.811	20.626	896.268	684.956
227.826	20.427	895.601	683.605
228.840	20.227	895.114	682.386
229.855	20.081	894.299	681.132
230.869	20.126	893.766	680.842
231.884	20.159	892.842	680.205
232.899	20.181	891.836	679.467
233.913	19.951	891.285	678.086
234.928	19.942	890.379	677.301
235.942	19.811	889.741	676.244
236.957	19.767	889.086	675.512
237.972	19.737	888.571	674.946
238.986	19.970	887.517	674.995
240.001	19.896	887.193	674.397
241.015	19.846	886.750	673.807
242.030	19.828	886.257	673.304
243.045	19.911	885.624	673.086
244.059	20.062	885.252	673.330
245.074	20.081	884.444	672.731
246.088	20.196	884.339	673.038
247.103	20.146	883.961	672.497
248.117	20.464	883.038	672.967
249.132	20.552	882.633	672.939
250.147	20.977	882.484	674.409
251.161	21.166	882.225	674.882
252.176	21.214	881.706	674.610
253.190	21.368	880.550	674.262
254.205	21.252	880.837	673.974
255.220	21.372	880.050	673.776
256.234	21.259	879.348	672.743
257.249	21.294	878.339	672.046
258.263	21.264	878.115	671.700
259.278	21.129	877.685	670.793
260.293	21.159	876.863	670.218
261.307	21.239	876.367	670.089
262.322	21.329	876.001	670.094
263.336	21.484	875.095	669.937
264.351	21.502	874.527	669.509
265.366	21.410	874.040	668.728
266.380	21.451	873.701	668.565
267.395	21.482	873.021	668.104
268.409	21.174	872.525	666.489
269.424	21.078	871.527	665.301
270.439	21.180	870.314	664.706
271.453	21.173	869.575	664.054
272.468	20.990	869.286	663.078
273.482	20.853	868.462	661.874
274.497	20.934	868.069	661.822
275.512	21.040	867.054	661.392
276.526	20.950	866.371	660.471
277.541	21.037	865.886	660.372
278.555	21.013	865.228	659.723
279.570	21.057	865.322	659.902
280.585	21.477	864.375	660.708
281.599	21.547	864.087	660.692
282.614	21.427	862.719	659.136
283.628	21.150	862.180	657.623
284.643	21.049	861.934	656.996
285.657	20.985	861.665	656.492
286.672	21.159	860.772	656.409
287.687	21.032	860.317	655.527
288.701	21.117	860.058	655.592
289.716	21.057	859.735	655.061
290.730	21.106	858.711	654.404
291.745	21.226	858.202	654.408
292.760	21.302	857.317	653.962
293.774	21.378	856.804	653.796
294.789	21.529	856.918	654.389
295.803	21.606	855.993	653.913
296.818	21.267	854.925	651.774
297.833	21.291	854.012	651.111
298.847	21.124	853.507	650.046
299.862	21.160	853.194	649.883
300.876	21.163	852.904	649.618
301.891	21.382	852.619	650.158
302.906	21.448	852.012	649.883
303.920	21.645	851.177	649.918
304.935	21.784	850.717	650.024
305.949	22.123	850.195	650.823
306.964	21.866	849.461	649.254
307.979	21.738	848.429	647.934
308.993	21.659	847.885	647.172
310.008	21.781	847.443	647.224
311.022	21.827	847.102	647.079
312.037	21.698	846.562	646.133
313.052	21.673	845.711	645.333
314.066	21.336	845.375	643.780
315.081	21.045	844.683	642.123
316.095	21.098	843.846	641.626
317.110	21.277	843.387	641.878
318.125	21.145	842.747	640.848
319.139	21.082	842.838	640.630
320.154	21.194	841.556	640.010
321.168	21.054	841.693	639.545
322.183	21.260	841.007	639.721
323.197	21.310	840.589	639.529
324.212	21.352	839.474	638.780
325.227	21.389	839.301	638.725
326.241	21.295	838.835	637.973
327.256	21.182	838.084	636.932
328.270	21.284	837.620	636.895
329.285	21.328	836.864	636.423
330.300	21.245	836.404	635.715
331.314	21.179	835.704	634.888
332.329	21.160	835.490	634.599
333.343	21.265	835.060	634.599
334.358	21.592	834.679	635.438
335.373	21.624	834.253	635.174
336.387	21.695	833.353	634.690
337.402	21.767	832.912	634.560
338.416	21.859	832.413	634.457
339.431	21.892	832.520	634.598
340.446	22.119	831.851	634.852
341.460	22.156	831.201	634.435
342.475	22.155	830.678	633.978
343.489	22.360	829.834	634.014
344.504	22.446	829.967	634.369
345.519	22.422	829.567	633.923
346.533	22.460	829.429	633.897
347.548	22.449	828.227	632.882
348.562	22.260	827.060	631.255
349.577	21.896	826.811	629.706
350.592	21.840	825.845	628.714
351.606	21.713	825.085	627.626
352.621	21.759	824.536	627.316
353.635	21.539	824.387	626.360
354.650	21.710	824.138	626.726
355.665	21.767	823.762	626.589
356.679	21.864	823.507	626.686
357.694	22.059	822.905	626.869
358.708	21.937	822.300	625.916
359.723	21.883	821.745	625.248
360.738	22.082	821.031	625.357
361.752	21.903	820.303	624.110
362.767	22.071	819.895	624.340
363.781	22.272	819.830	624.951
364.796	22.456	819.682	625.437
365.810	22.634	819.397	625.796
366.825	22.702	818.923	625.620
367.840	22.784	818.895	625.834
368.854	22.698	818.621	625.264
369.869	22.456	817.975	623.858
370.883	22.239	817.425	622.616
371.898	22.298	816.602	622.141
372.913	22.431	816.018	622.110
373.927	22.731	815.280	622.552
374.942	22.632	814.690	621.696
375.956	22.508	814.032	620.706
376.971	22.687	813.315	620.732
377.986	22.854	813.113	621.111
379.000	22.990	812.262	620.881
380.015	22.920	812.131	620.482
381.029	22.805	811.734	619.719
382.044	22.641	811.062	618.576
383.059	22.698	810.383	618.205
384.073	22.811	809.619	617.964
385.088	22.805	809.171	617.545
386.102	22.366	808.983	615.811
387.117	22.384	807.934	615.021
388.132	22.376	807.071	614.281
389.146	22.248	806.990	613.720
390.161	22.300	806.705	613.629
391.175	22.522	806.464	614.167
392.190	22.831	805.914	614.769
393.205	22.677	805.344	613.745
394.219	22.489	804.892	612.690
395.234	22.523	803.938	612.027
396.248	22.267	803.480	610.738
397.263	22.113	802.971	609.761
398.278	22.133	802.638	609.525
399.292	22.183	802.295	609.382
400.307	22.051	801.835	608.523
401.321	21.972	801.348	607.825
402.336	22.015	801.064	607.705
403.350	22.354	800.507	608.402
404.365	22.325	800.584	608.305
405.380	22.641	799.646	608.631
406.394	22.787	799.710	609.128
407.409	22.887	799.303	609.109
408.423	22.970	798.738	608.912
409.438	23.122	798.378	609.107
410.453	23.216	798.075	609.146
411.467	23.053	797.907	608.400
412.482	23.316	797.093	608.631
413.496	23.425	796.651	608.615
414.511	23.368	796.549	608.285
415.526	23.202	796.454	607.590
416.540	23.121	795.753	606.723
417.555	23.412	794.625	606.806
418.569	22.990	794.714	605.375
419.584	23.034	794.237	605.111
420.599	23.201	793.933	605.396
421.613	165.247	1371.851	1799.469
422.628	143.383	1456.029	1799.560
