DTS Sentinel unit serial number:	SN413079Multiplexer serial number:	ORYXHardware model number:	OX4-SRSoftware version number:	ORYX F/W v4.00 Oryx Data Collector v3.7.2.0data status	okinstallation	princeton_trtdifferential loss correction	single-endedforward channel	channel 3reverse channel	N/Adate	2019/09/12time	07:58:10forward acquisition time	60.00reverse acquisition time	0.00gamma	496.2192k internal	0.2314k external	0.2314temperature offset calibration	1.0035default loss term (dB/km)	0.3790temperature slope calibration	1.0000multiplexer offset coefficient	1.0000multiplexer slope coefficient	1.0000fibre end	0.00T internal ref (°C)	33.02T ext. ref 1 (°C)	1.64T ext. ref 2 (°C)	29.38length (m)	temperature (°C)	Stokes	anti-Stokes-747.200	-138.425	0.132	0.015
-746.185	55.770	-0.152	0.149
-745.171	-5.371	0.119	0.083
-744.156	800.000	-0.070	0.197
-743.142	122.257	0.250	-0.317
-742.127	118.287	-0.044	-0.055
-741.112	-142.674	-0.101	0.010
-740.098	-6.126	-0.248	0.172
-739.083	-127.672	-0.230	0.034
-738.069	-200.000	-0.020	0.189
-737.054	30.663	0.255	0.221
-736.039	-98.096	0.181	0.047
-735.025	-6.614	0.139	-0.096
-734.010	-29.829	-0.236	-0.136
-732.996	-200.000	0.003	-0.203
-731.981	-200.000	-0.078	-0.366
-730.966	-6.645	0.166	-0.115
-729.952	125.166	-0.140	-0.179
-728.937	-169.017	-0.413	-0.016
-727.923	-200.000	0.010	-0.221
-726.908	598.643	-0.088	-0.220
-725.894	56.489	-0.192	-0.189
-724.879	97.724	0.256	-0.299
-723.864	321.568	0.109	-0.209
-722.850	252.509	-0.118	-0.203
-721.835	383.883	0.044	-0.092
-720.821	166.131	-0.082	-0.117
-719.806	-200.000	-0.059	-0.283
-718.791	-116.413	-0.075	0.014
-717.777	-136.230	0.210	0.025
-716.762	-35.607	0.410	0.225
-715.748	-106.902	-0.368	0.082
-714.733	-146.185	-0.227	-0.020
-713.718	-163.455	-0.187	-0.009
-712.704	491.399	-0.040	0.093
-711.689	-89.487	-0.114	-0.034
-710.675	-200.000	0.073	0.376
-709.660	-110.793	0.224	0.047
-708.645	-12.927	0.096	-0.063
-707.631	220.732	-0.089	0.145
-706.616	-72.690	-0.309	0.115
-705.602	23.670	0.330	0.275
-704.587	-200.000	-0.018	0.155
-703.572	-41.290	0.285	0.148
-702.558	-165.133	0.243	-0.011
-701.543	-10.539	0.261	-0.175
-700.529	-200.000	-0.066	0.302
-699.514	-107.231	-0.172	0.038
-698.499	65.887	0.158	-0.162
-697.485	-200.000	0.024	-0.193
-696.470	-152.512	-0.218	-0.016
-695.456	-128.648	0.271	-0.039
-694.441	91.943	-0.178	-0.203
-693.426	-49.666	-0.117	0.056
-692.412	238.314	0.168	-0.283
-691.397	-124.815	-0.070	-0.011
-690.383	-126.521	-0.420	-0.063
-689.368	57.984	-0.222	-0.220
-688.354	-109.658	-0.283	-0.060
-687.339	-200.000	-0.012	0.248
-686.324	106.100	0.235	-0.282
-685.310	200.332	0.179	0.278
-684.295	11.421	-0.165	-0.128
-683.281	70.728	-0.050	-0.052
-682.266	800.000	-0.099	-0.290
-681.251	-16.683	-0.091	0.058
-680.237	86.262	0.108	0.120
-679.222	800.000	-0.075	0.247
-678.208	120.928	0.182	0.229
-677.193	13.866	-0.123	0.096
-676.178	262.801	0.142	0.248
-675.164	36.734	0.332	0.296
-674.149	-152.259	-0.379	0.028
-673.135	432.817	-0.038	-0.084
-672.120	-119.883	0.020	-0.003
-671.105	24.445	0.270	-0.226
-670.091	-36.285	-0.132	-0.072
-669.076	-40.998	-0.280	-0.146
-668.062	-47.183	-0.139	-0.068
-667.047	287.129	0.197	-0.360
-666.032	-118.622	-0.401	0.072
-665.018	-151.681	0.264	-0.020
-664.003	800.000	0.076	0.253
-662.989	-44.058	0.160	-0.081
-661.974	800.000	0.025	0.071
-660.959	537.572	0.113	0.271
-659.945	-18.525	0.334	-0.210
-658.930	-200.000	0.018	0.229
-657.916	24.008	0.207	0.172
-656.901	107.704	-0.105	0.127
-655.886	-34.136	-0.080	0.045
-654.872	-10.101	-0.125	-0.084
-653.857	296.576	0.046	0.085
-652.843	130.919	0.111	-0.144
-651.828	800.000	-0.031	-0.091
-650.814	81.521	-0.160	-0.175
-649.799	181.737	-0.041	-0.062
-648.784	241.612	0.051	-0.086
-647.770	52.442	0.140	0.135
-646.755	-29.937	0.154	-0.089
-645.741	-130.426	-0.164	0.022
-644.726	36.820	0.226	-0.201
-643.711	-122.105	0.191	0.032
-642.697	-200.000	-0.013	0.275
-641.682	142.826	0.030	0.041
-640.668	-27.283	0.192	0.113
-639.653	800.000	0.025	0.087
-638.638	800.000	0.027	-0.093
-637.624	142.030	0.106	-0.142
-636.609	-85.608	0.224	0.070
-635.595	-140.734	0.036	-0.004
-634.580	-200.000	-0.042	-0.220
-633.565	-52.430	0.132	-0.062
-632.551	800.000	-0.070	-0.214
-631.536	-46.879	-0.405	-0.200
-630.522	-141.806	0.280	-0.028
-629.507	91.084	0.054	0.061
-628.492	-139.097	-0.027	-0.003
-627.478	-200.000	0.025	-0.210
-626.463	124.805	-0.070	0.089
-625.449	800.000	0.126	-0.392
-624.434	404.979	0.088	-0.188
-623.419	-121.803	-0.285	-0.048
-622.405	-140.408	-0.090	-0.009
-621.390	-200.000	0.014	-0.218
-620.376	800.000	-0.079	-0.280
-619.361	800.000	-0.052	0.201
-618.346	129.090	0.052	0.067
-617.332	34.658	-0.105	0.093
-616.317	218.797	0.021	0.034
-615.303	95.971	-0.270	-0.311
-614.288	230.581	-0.053	-0.087
-613.273	-200.000	-0.036	0.196
-612.259	800.000	-0.064	-0.220
-611.244	616.664	0.050	0.126
-610.230	-104.953	-0.061	0.014
-609.215	8.946	0.189	-0.144
-608.201	39.305	-0.167	0.151
-607.186	-107.472	-0.202	-0.045
-606.171	420.242	0.032	0.068
-605.157	144.666	-0.157	0.211
-604.142	-111.773	-0.308	0.063
-603.128	-56.121	0.200	0.090
-602.113	800.000	-0.026	-0.101
-601.098	765.637	-0.072	-0.196
-600.084	1.453	-0.191	0.139
-599.069	7.014	-0.184	-0.139
-598.055	800.000	-0.059	0.219
-597.040	184.555	0.231	0.345
-596.025	-124.684	-0.123	-0.019
-595.011	-62.948	0.305	0.127
-593.996	-132.329	-0.110	-0.014
-592.982	-200.000	0.008	-0.222
-591.967	-163.861	-0.254	-0.012
-590.952	-200.000	0.035	-0.215
-589.938	800.000	-0.098	-0.323
-588.923	-67.781	0.046	-0.018
-587.909	-54.625	-0.256	-0.117
-586.894	-200.000	-0.022	-0.118
-585.879	49.509	0.254	-0.241
-584.865	-104.214	0.165	0.039
-583.850	-155.052	-0.215	-0.014
-582.836	-186.918	-0.049	0.001
-581.821	-200.000	0.007	0.385
-580.806	-200.000	-0.012	0.128
-579.792	-153.178	0.237	-0.017
-578.777	-52.378	-0.253	0.118
-577.763	-23.037	-0.169	0.103
-576.748	230.840	0.160	-0.263
-575.733	-41.847	-0.106	-0.055
-574.719	-7.573	-0.213	-0.145
-573.704	-200.000	-0.006	0.090
-572.690	-78.254	-0.090	-0.031
-571.675	-76.471	0.346	-0.122
-570.661	-55.710	-0.259	0.117
-569.646	37.030	0.100	0.089
-568.631	32.406	0.045	-0.039
-567.617	-135.321	-0.173	-0.021
-566.602	4.767	0.144	0.107
-565.588	128.516	0.019	0.024
-564.573	-13.155	-0.111	0.072
-563.558	124.927	-0.062	0.079
-562.544	419.145	-0.102	0.220
-561.529	-85.768	-0.048	-0.015
-560.515	-46.878	0.088	0.044
-559.500	-200.000	0.003	0.077
-558.485	105.985	-0.070	-0.083
-557.471	-107.129	0.144	0.032
-556.456	-107.285	-0.198	-0.044
-555.442	2.158	-0.060	0.043
-554.427	-54.728	-0.212	0.096
-553.412	159.971	-0.080	0.112
-552.398	-126.727	-0.282	0.042
-551.383	-200.000	-0.028	0.267
-550.369	8.807	0.076	0.058
-549.354	139.478	-0.202	-0.267
-548.339	-116.273	-0.349	0.065
-547.325	800.000	0.030	-0.113
-546.310	-200.000	-0.022	-0.272
-545.296	70.111	-0.246	-0.255
-544.281	-200.000	0.005	-0.088
-543.266	-26.841	0.329	0.193
-542.252	-98.119	0.299	0.077
-541.237	800.000	0.152	-0.421
-540.223	-29.689	-0.219	-0.126
-539.208	-200.000	0.062	-0.282
-538.193	-125.567	-0.457	-0.070
-537.179	-52.865	-0.069	-0.032
-536.164	164.524	0.174	0.247
-535.150	73.616	-0.136	-0.143
-534.135	-16.699	-0.290	0.185
-533.121	775.221	-0.068	0.186
-532.106	-200.000	-0.015	0.167
-531.091	7.427	0.147	0.111
-530.077	-200.000	0.035	-0.308
-529.062	80.714	-0.195	0.212
-528.048	200.499	-0.140	0.216
-527.033	11.523	0.198	0.153
-526.018	15.212	-0.163	0.128
-525.004	-200.000	0.004	0.033
-523.989	428.861	-0.065	0.142
-522.975	86.139	-0.226	-0.250
-521.960	800.000	0.051	-0.148
-520.945	-64.256	-0.088	-0.036
-519.931	-63.006	-0.213	0.088
-518.916	70.736	0.126	0.131
-517.902	-29.912	-0.070	0.040
-516.887	-59.028	0.136	0.059
-515.872	-200.000	-0.020	-0.120
-514.858	-4.237	-0.225	-0.157
-513.843	30.349	-0.027	-0.023
-512.829	202.396	-0.208	0.322
-511.814	299.371	-0.077	0.143
-510.799	-57.538	-0.316	-0.139
-509.785	-200.000	-0.030	-0.440
-508.770	-144.143	-0.097	-0.009
-507.756	76.266	-0.119	0.127
-506.741	8.643	0.073	0.055
-505.726	-83.887	0.243	-0.078
-504.712	-200.000	0.083	-0.708
-503.697	800.000	0.077	-0.306
-502.683	-28.810	0.268	-0.154
-501.668	-200.000	-0.001	-0.308
-500.653	-147.745	0.445	0.037
-499.639	-184.488	0.496	0.008
-498.624	800.000	-0.122	0.376
-497.610	-200.000	-0.021	-0.218
-496.595	800.000	0.124	0.363
-495.581	-180.672	-0.112	0.002
-494.566	-89.164	0.080	0.024
-493.551	-200.000	-0.019	-0.507
-492.537	-200.000	-0.007	-0.198
-491.522	420.310	-0.174	-0.374
-490.508	-200.000	-0.016	0.119
-489.493	2.958	-0.131	0.095
-488.478	223.611	-0.154	-0.250
-487.464	-2.643	0.117	0.082
-486.449	208.790	0.177	0.278
-485.435	-155.631	0.224	0.014
-484.420	-200.000	-0.021	0.190
-483.405	132.476	0.100	-0.130
-482.391	115.167	0.033	-0.041
-481.376	32.549	0.124	0.108
-480.362	-45.872	0.233	-0.115
-479.347	-34.400	-0.205	0.113
-478.332	469.068	0.069	0.156
-477.318	138.518	0.118	-0.156
-476.303	-49.862	0.237	0.113
-475.289	-200.000	-0.111	0.501
-474.274	-18.029	0.296	0.186
-473.259	800.000	0.051	0.149
-472.245	-200.000	-0.035	0.193
-471.230	-200.000	0.020	0.126
-470.216	-200.000	0.033	-0.165
-469.201	-20.937	0.268	-0.165
-468.186	-97.066	-0.364	-0.095
-467.172	-200.000	-0.002	0.176
-466.157	-200.000	-0.009	0.056
-465.143	407.045	-0.045	-0.094
-464.128	-200.000	0.297	-0.001
-463.113	-8.701	0.249	-0.167
-462.099	-200.000	0.017	-0.126
-461.084	47.649	-0.007	-0.006
-460.070	-59.743	-0.140	0.060
-459.055	-200.000	0.002	0.067
-458.040	-195.304	-0.421	0.003
-457.026	134.857	0.238	-0.310
-456.011	-196.196	0.272	-0.002
-454.997	49.066	-0.175	-0.165
-453.982	168.491	-0.081	0.115
-452.968	-200.000	-0.011	0.262
-451.953	-90.096	-0.049	-0.014
-450.938	-200.000	-0.014	0.219
-449.924	364.130	0.114	0.230
-448.909	-16.616	-0.174	-0.110
-447.895	53.597	-0.167	-0.161
-446.880	-46.813	0.203	-0.100
-445.865	158.666	-0.127	-0.177
-444.851	345.948	0.037	0.073
-443.836	800.000	0.094	0.301
-442.822	-102.379	0.294	-0.071
-441.807	-17.515	-0.397	-0.250
-440.792	468.722	0.096	0.215
-439.778	-64.491	0.072	0.029
-438.763	-119.356	-0.392	0.068
-437.749	-36.523	-0.346	0.187
-436.734	67.537	-0.045	-0.046
-435.719	-103.678	0.618	-0.145
-434.705	47.974	-0.240	0.225
-433.690	207.732	-0.043	0.067
-432.676	-200.000	-0.015	0.234
-431.661	-200.000	0.054	0.360
-430.646	729.758	-0.045	-0.121
-429.632	-183.494	0.203	-0.004
-428.617	77.622	0.163	0.174
-427.603	-71.265	0.200	-0.075
-426.588	-200.000	-0.000	-0.182
-425.573	147.361	-0.227	-0.306
-424.559	-29.956	-0.340	-0.194
-423.544	209.008	-0.159	-0.249
-422.530	-200.000	0.024	-0.146
-421.515	-39.238	-0.163	-0.086
-420.500	800.000	0.047	0.170
-419.486	72.409	-0.187	-0.196
-418.471	-63.746	0.236	0.097
-417.457	212.248	0.128	0.202
-416.442	-128.463	0.187	-0.027
-415.428	-82.429	0.141	0.046
-414.413	-200.000	-0.022	-0.319
-413.398	-110.923	-0.171	-0.035
-412.384	-170.376	-0.276	-0.010
-411.369	74.084	-0.114	-0.120
-410.355	69.521	0.180	0.186
-409.340	-138.019	0.267	-0.030
-408.325	-53.151	0.142	0.065
-407.311	38.055	-0.265	0.236
-406.296	-50.890	-0.085	0.040
-405.282	-200.000	0.015	-0.115
-404.267	143.891	-0.136	0.182
-403.252	-120.689	-0.174	-0.029
-402.238	24.180	0.090	-0.074
-401.223	146.499	-0.175	0.236
-400.209	-167.290	0.237	-0.010
-399.194	-200.000	0.018	0.251
-398.179	71.875	-0.134	0.139
-397.165	-92.525	0.270	-0.076
-396.150	283.311	-0.212	-0.381
-395.136	800.000	-0.073	-0.242
-394.121	-32.852	0.216	-0.120
-393.106	-185.741	0.052	0.001
-392.092	-72.754	-0.383	-0.141
-391.077	-200.000	-0.046	0.264
-390.063	502.903	-0.076	-0.176
-389.048	-159.392	0.222	-0.012
-388.033	-200.000	0.003	0.187
-387.019	-40.603	0.161	0.084
-386.004	-200.000	-0.011	0.139
-384.990	290.357	0.167	0.302
-383.975	-77.303	0.203	-0.071
-382.960	-200.000	0.009	-0.083
-381.946	-181.242	0.162	0.003
-380.931	-48.635	0.285	-0.137
-379.917	366.189	-0.074	-0.149
-378.902	-126.722	0.155	-0.023
-377.888	34.907	0.115	0.100
-376.873	-110.708	0.263	-0.054
-375.858	-200.000	-0.001	0.072
-374.844	-67.139	-0.291	-0.114
-373.829	19.905	0.054	0.044
-372.815	20.082	0.056	-0.045
-371.800	-17.288	0.100	-0.063
-370.785	38.597	0.226	0.201
-369.771	-187.206	-0.551	0.008
-368.756	241.002	-0.207	-0.345
-367.742	-200.000	-0.156	0.000
-366.727	-200.000	-0.049	0.301
-365.712	800.000	-0.132	0.396
-364.698	-35.920	-0.282	-0.152
-363.683	-200.000	0.005	-0.162
-362.669	296.023	-0.114	0.209
-361.654	-63.200	0.272	-0.112
-360.639	231.861	0.155	0.254
-359.625	106.785	0.090	-0.107
-358.610	32.022	0.105	-0.090
-357.596	360.946	-0.139	-0.278
-356.581	800.000	0.110	0.365
-355.566	-200.000	-0.016	-0.526
-354.552	-10.367	0.117	-0.077
-353.537	-129.908	0.255	0.035
-352.523	260.380	-0.053	-0.092
-351.508	181.846	-0.138	0.203
-350.493	-119.997	-0.306	-0.052
-349.479	-200.000	0.038	0.308
-348.464	-63.223	-0.084	0.035
-347.450	800.000	0.024	0.080
-346.435	583.560	-0.102	0.251
-345.420	-200.000	-0.005	0.056
-344.406	275.855	0.095	0.169
-343.391	29.702	0.089	-0.076
-342.377	48.451	-0.125	-0.117
-341.362	142.959	0.128	0.170
-340.348	-112.863	0.281	0.056
-339.333	-92.507	0.234	0.066
-338.318	-104.254	0.157	-0.036
-337.304	-75.131	-0.092	-0.033
-336.289	421.971	0.183	-0.393
-335.275	800.000	0.111	0.421
-334.260	49.099	-0.230	-0.215
-333.245	-159.204	0.210	0.012
-332.231	-200.000	0.001	0.172
-331.216	8.534	0.132	-0.099
-330.202	-200.000	-0.177	0.000
-329.187	-200.000	-0.009	0.100
-328.172	-40.812	-0.220	0.113
-327.158	-200.000	-0.018	-0.128
-326.143	-200.000	0.072	-0.326
-325.129	387.754	-0.047	0.097
-324.114	-113.669	-0.114	0.022
-323.099	98.501	-0.210	0.242
-322.085	-75.594	-0.234	0.083
-321.070	333.264	0.207	-0.398
-320.056	496.892	-0.053	0.122
-319.041	274.596	0.114	-0.201
-318.026	135.133	-0.191	0.247
-317.012	-200.000	-0.026	0.147
-315.997	-126.179	-0.194	0.029
-314.983	-100.370	-0.396	0.098
-313.968	252.081	0.178	0.302
-312.953	-200.000	0.025	0.358
-311.939	-34.238	-0.140	0.077
-310.924	800.000	-0.011	0.038
-309.910	-57.477	0.248	0.108
-308.895	92.825	-0.274	-0.309
-307.880	-37.993	0.183	-0.097
-306.866	751.166	0.051	-0.138
-305.851	131.920	0.081	-0.104
-304.837	187.990	-0.053	0.078
-303.822	800.000	0.076	0.248
-302.807	4.148	-0.106	0.077
-301.793	49.775	0.124	0.116
-300.778	-5.217	0.188	-0.129
-299.764	-200.000	0.015	0.189
-298.749	-139.537	-0.293	0.031
-297.735	-58.601	0.073	-0.031
-296.720	-65.226	0.301	-0.121
-295.705	-119.224	0.242	-0.042
-294.691	-121.657	-0.173	0.029
-293.676	179.098	-0.069	0.101
-292.662	-114.185	-0.276	0.053
-291.647	-28.069	-0.075	0.043
-290.632	-200.000	-0.032	-0.343
-289.618	-171.899	0.586	0.019
-288.603	127.934	0.198	0.251
-287.589	183.403	0.122	0.180
-286.574	279.295	-0.049	-0.087
-285.559	118.287	-0.125	0.154
-284.545	-200.000	-0.013	-0.219
-283.530	-156.353	0.210	0.013
-282.516	-200.000	-0.025	0.179
-281.501	-113.849	0.299	-0.058
-280.486	56.384	0.129	0.125
-279.472	96.493	-0.082	-0.093
-278.457	800.000	-0.066	0.253
-277.443	79.723	-0.061	0.065
-276.428	-120.014	0.247	-0.042
-275.413	-145.180	0.126	-0.011
-274.399	-16.515	0.236	0.149
-273.384	800.000	-0.107	-0.361
-272.370	193.812	0.198	0.299
-271.355	266.654	-0.101	-0.175
-270.340	-41.618	-0.148	0.076
-269.326	8.793	-0.233	-0.175
-268.311	566.844	-0.125	0.302
-267.297	-200.000	0.014	0.253
-266.282	42.918	-0.346	-0.314
-265.267	-14.722	0.160	0.102
-264.253	56.608	0.060	0.059
-263.238	-150.325	0.203	0.016
-262.224	505.040	-0.193	-0.445
-261.209	-61.599	-0.216	-0.090
-260.195	-110.701	0.402	0.083
-259.180	127.789	0.090	-0.113
-258.165	800.000	0.021	-0.064
-257.151	192.590	-0.155	0.233
-256.136	-200.000	0.023	0.260
-255.122	-40.250	0.128	-0.066
-254.107	-153.073	-0.294	0.021
-253.092	-200.000	-0.006	-0.050
-252.078	-200.000	-0.005	0.361
-251.063	-200.000	0.014	0.337
-250.049	127.327	0.183	-0.231
-249.034	187.109	-0.081	-0.120
-248.019	-73.887	0.231	-0.083
-247.005	-58.822	0.230	0.099
-245.990	106.107	0.191	0.224
-244.976	91.168	0.114	0.127
-243.961	409.096	0.023	-0.048
-242.946	-79.359	0.288	0.097
-241.932	-9.190	-0.076	0.051
-240.917	170.992	0.048	0.069
-239.903	124.346	-0.138	-0.172
-238.888	800.000	0.057	-0.216
-237.873	-200.000	-0.009	0.352
-236.859	-13.219	-0.105	0.068
-235.844	-76.925	0.289	-0.100
-234.830	8.150	-0.230	-0.172
-233.815	-200.000	-0.019	0.405
-232.800	173.464	-0.083	-0.119
-231.786	266.950	0.127	-0.221
-230.771	240.164	-0.207	0.342
-229.757	-200.000	-0.006	-0.040
-228.742	-5.755	0.121	-0.082
-227.727	-43.180	0.200	0.101
-226.713	800.000	-0.062	-0.219
-225.698	-67.093	0.225	0.088
-224.684	-200.000	0.005	0.067
-223.669	-200.000	0.032	0.184
-222.655	109.169	-0.116	0.138
-221.640	587.378	0.060	0.148
-220.625	12.627	-0.243	0.186
-219.611	800.000	-0.076	-0.240
-218.596	460.637	0.016	-0.035
-217.582	103.765	-0.061	-0.072
-216.567	-111.022	0.055	0.011
-215.552	20.118	-0.198	-0.158
-214.538	-67.255	0.254	0.099
-213.523	-107.669	0.415	-0.090
-212.509	259.834	-0.118	-0.202
-211.494	-156.683	-0.202	0.012
-210.479	-61.819	0.221	0.092
-209.465	-83.590	0.251	0.080
-208.450	-153.257	0.110	0.008
-207.436	-200.000	0.002	0.534
-206.421	800.000	0.024	0.074
-205.406	-200.000	-0.007	0.061
-204.392	-66.876	-0.283	-0.111
-203.377	-200.000	-0.024	0.114
-202.363	134.643	0.087	-0.113
-201.348	-46.439	-0.097	-0.047
-200.333	-200.000	0.024	0.141
-199.319	74.128	0.238	0.248
-198.304	567.677	0.118	-0.284
-197.290	137.587	-0.159	-0.207
-196.275	-164.685	-0.194	-0.009
-195.260	-1.233	-0.118	0.083
-194.246	-39.296	-0.123	-0.064
-193.231	800.000	-0.071	-0.198
-192.217	-66.975	-0.245	0.096
-191.202	750.001	0.152	-0.408
-190.187	800.000	-0.101	-0.389
-189.173	-65.107	-0.031	-0.012
-188.158	7.348	0.208	0.154
-187.144	502.246	-0.047	0.107
-186.129	-200.000	-0.023	0.191
-185.114	20.019	-0.129	0.103
-184.100	23.657	-0.229	-0.187
-183.085	65.616	0.402	0.404
-182.071	-200.000	-0.005	-0.054
-181.056	12.248	-0.212	-0.162
-180.042	67.496	-0.111	0.112
-179.027	-110.712	0.077	-0.016
-178.012	-39.695	0.121	0.063
-176.998	-200.000	0.044	0.363
-175.983	-65.583	-0.309	0.123
-174.969	139.916	-0.196	-0.256
-173.954	-200.000	0.040	-0.200
-172.939	-200.000	0.151	-0.001
-171.925	-200.000	0.004	-0.164
-170.910	187.932	0.091	0.134
-169.896	-200.000	0.078	-0.412
-168.881	316.446	-0.042	-0.079
-167.866	213.871	0.131	0.206
-166.852	800.000	0.066	0.222
-165.837	260.378	0.049	0.084
-164.823	-16.811	-0.058	-0.036
-163.808	-80.900	-0.273	-0.090
-162.793	486.446	0.013	-0.029
-161.779	800.000	-0.047	0.179
-160.764	-200.000	0.006	-0.224
-159.750	-34.824	0.256	-0.138
-158.735	-76.103	0.132	0.046
-157.720	197.717	0.178	-0.270
-156.706	-200.000	0.015	-0.241
-155.691	105.328	-0.330	-0.387
-154.677	800.000	0.071	-0.275
-153.662	800.000	-0.110	-0.316
-152.647	-89.549	0.224	0.065
-151.633	-200.000	0.008	0.108
-150.618	58.511	0.170	0.166
-149.604	-42.261	0.303	0.154
-148.589	800.000	-0.023	0.080
-147.574	7.351	0.258	-0.191
-146.560	276.802	0.124	-0.219
-145.545	201.478	0.091	-0.139
-144.531	-65.884	-0.564	-0.223
-143.516	-21.624	0.149	0.090
-142.502	-96.767	0.189	0.049
-141.487	800.000	-0.115	0.332
-140.472	-150.074	-0.199	-0.015
-139.458	-200.000	-0.018	0.128
-138.443	72.915	0.256	0.265
-137.429	123.081	-0.297	-0.368
-136.414	-80.423	0.133	0.044
-135.399	121.283	-0.141	-0.174
-134.385	509.537	0.072	-0.165
-133.370	50.118	0.160	0.150
-132.356	25.418	0.257	0.212
-131.341	-155.304	-0.428	-0.028
-130.326	-181.033	0.154	0.003
-129.312	32.035	0.140	0.120
-128.297	-115.875	-0.271	-0.050
-127.283	-200.000	0.015	0.281
-126.268	623.218	-0.121	0.301
-125.253	-146.849	0.376	0.032
-124.239	86.268	-0.191	-0.208
-123.224	347.628	0.035	0.068
-122.210	800.000	0.029	-0.107
-121.195	-125.808	0.293	0.044
-120.180	-200.000	-0.031	-0.187
-119.166	-154.585	0.283	-0.019
-118.151	-200.000	-0.019	-0.384
-117.137	-121.584	-0.340	0.056
-116.122	800.000	0.060	-0.178
-115.107	-126.580	-0.157	0.023
-114.093	34.323	0.179	-0.154
-113.078	800.000	-0.093	0.334
-112.064	-88.045	0.110	0.033
-111.049	-146.821	-0.239	-0.020
-110.034	-157.730	0.160	-0.009
-109.020	58.139	-0.175	0.170
-108.005	-116.686	-0.223	-0.041
-106.991	246.035	0.210	0.350
-105.976	-200.000	0.014	0.198
-104.962	-66.548	-0.221	-0.087
-103.947	800.000	-0.026	0.080
-102.932	133.845	0.387	0.495
-101.918	-200.000	-0.015	-0.248
-100.903	800.000	-0.065	0.182
-99.889	-56.146	-0.212	-0.093
-98.874	-85.751	0.188	0.058
-97.859	282.135	-0.076	-0.135
-96.845	85.517	-0.110	-0.120
-95.830	-143.820	0.098	0.009
-94.816	676.294	-0.084	0.216
-93.801	-35.322	0.252	0.135
-92.786	242.504	0.058	0.096
-91.772	-200.000	-0.013	0.208
-90.757	-119.924	0.463	0.079
-89.743	800.000	0.078	0.312
-88.728	86.571	0.112	-0.122
-87.713	800.000	-0.090	-0.339
-86.699	86.689	-0.018	-0.019
-85.684	258.955	-0.068	-0.116
-84.670	800.000	0.080	0.243
-83.655	-200.000	0.027	-0.261
-82.640	-60.786	0.113	0.047
-81.626	800.000	0.150	0.514
-80.611	-84.319	-0.455	0.142
-79.597	240.902	-0.074	0.122
-78.582	-200.000	0.057	0.331
-77.567	283.113	0.068	0.120
-76.553	-200.000	0.070	0.314
-75.538	107.105	-0.078	-0.091
-74.524	800.000	-0.143	-0.406
-73.509	-200.000	0.002	0.153
-72.494	26.959	-0.167	-0.138
-71.480	-36.662	-0.270	0.143
-70.465	-200.000	0.005	0.169
-69.451	-200.000	0.057	-0.264
-68.436	72.533	-0.142	0.146
-67.422	-8.110	0.297	0.197
-66.407	-175.332	0.182	0.005
-65.392	538.278	0.107	-0.250
-64.378	47.541	-0.060	-0.055
-63.363	-89.657	0.142	0.041
-62.349	628.505	0.040	0.099
-61.334	114.550	-0.813	-0.978
-60.319	-58.164	0.495	0.213
-59.305	800.000	-0.259	-0.960
-58.290	-10.697	1.022	0.667
-57.276	681.370	0.754	1.939
-56.261	-200.000	97.338	599.403
-55.246	540.639	1410.030	3313.623
-54.232	151.854	2601.858	3500.193
-53.217	111.224	2186.946	2600.334
-52.203	43.397	1722.816	1553.382
-51.188	36.207	1535.955	1335.298
-50.173	33.793	1508.914	1295.295
-49.159	54.471	1558.582	1481.592
-48.144	56.072	1576.041	1509.204
-47.130	36.405	1534.309	1335.026
-46.115	33.245	1519.680	1300.560
-45.100	33.151	1516.054	1296.763
-44.086	33.132	1514.133	1294.935
-43.071	33.023	1512.585	1292.813
-42.057	32.974	1510.886	1290.977
-41.042	33.065	1509.281	1290.179
-40.027	33.099	1508.227	1289.459
-39.013	33.006	1506.537	1287.329
-37.998	32.934	1506.057	1286.373
-36.984	32.941	1504.904	1285.389
-35.969	33.079	1503.314	1284.918
-34.954	33.055	1501.652	1283.284
-33.940	33.064	1500.001	1281.883
-32.925	32.999	1499.280	1280.775
-31.911	33.083	1497.759	1279.990
-30.896	33.111	1495.881	1278.522
-29.881	33.110	1494.955	1277.674
-28.867	33.102	1493.179	1276.054
-27.852	32.984	1492.568	1274.685
-26.838	33.071	1490.955	1273.844
-25.823	33.082	1489.611	1272.721
-24.809	33.031	1487.550	1270.562
-23.794	33.069	1486.084	1269.519
-22.779	33.046	1484.670	1268.104
-21.765	33.027	1483.991	1267.349
-20.750	33.021	1482.960	1266.375
-19.736	33.065	1481.796	1265.625
-18.721	32.989	1480.895	1264.297
-17.706	33.134	1479.178	1263.752
-16.692	32.992	1478.420	1262.107
-15.677	33.050	1477.561	1261.705
-14.663	32.980	1476.681	1260.439
-13.648	32.943	1475.923	1259.494
-12.633	32.913	1474.874	1258.352
-11.619	32.991	1473.807	1257.909
-10.604	33.039	1472.882	1257.392
-9.590	32.993	1472.575	1256.774
-8.575	32.995	1471.335	1255.677
-7.560	33.003	1470.609	1255.059
-6.546	32.910	1469.984	1253.859
-5.531	32.958	1468.697	1253.028
-4.517	32.943	1467.756	1252.078
-3.502	33.033	1466.561	1251.604
-2.487	32.918	1465.328	1249.742
-1.473	32.922	1464.583	1249.086
-0.458	33.027	1463.119	1248.482
0.556	33.011	1453.968	1238.123
1.571	30.433	1428.602	1199.790
2.586	27.224	1371.343	1131.665
3.600	25.863	1290.621	1056.977
4.615	24.305	1243.853	1009.772
5.629	20.419	1185.246	941.096
6.644	10.390	1097.503	820.778
7.659	2.883	1054.929	752.203
8.673	1.837	1049.230	742.975
9.688	1.652	1046.251	739.901
10.702	1.537	1044.601	738.110
11.717	1.555	1042.459	736.621
12.731	4.677	1046.330	754.450
13.746	14.566	1060.388	812.919
14.761	22.677	1071.324	860.999
15.775	24.769	1073.252	872.692
16.790	25.122	1072.937	874.081
17.804	24.919	1072.004	872.253
18.819	24.789	1071.320	870.985
19.834	24.893	1070.711	870.918
20.848	24.887	1070.476	870.623
21.863	25.059	1069.946	870.950
22.877	25.076	1069.394	870.508
23.892	25.073	1068.813	869.943
24.907	25.050	1067.881	868.995
25.921	25.085	1067.045	868.410
26.936	25.107	1066.129	867.692
27.950	24.969	1065.444	866.388
28.965	24.933	1064.214	865.141
29.980	24.865	1062.626	863.442
30.994	24.929	1061.424	862.699
32.009	25.139	1060.733	863.073
33.023	25.012	1060.146	861.909
34.038	24.913	1059.283	860.655
35.053	24.796	1058.136	859.085
36.067	24.889	1057.810	859.191
37.082	25.012	1056.620	858.738
38.096	24.971	1056.086	858.029
39.111	25.103	1055.480	858.092
40.126	25.358	1054.649	858.563
41.140	25.184	1053.608	856.807
42.155	24.863	1052.306	854.141
43.169	24.555	1051.256	851.743
44.184	24.537	1050.166	850.702
45.199	24.681	1048.705	850.128
46.213	24.634	1047.636	848.963
47.228	24.421	1047.130	847.463
48.242	24.753	1046.589	848.529
49.257	24.943	1045.762	848.683
50.271	24.957	1045.112	848.144
51.286	25.128	1044.347	848.258
52.301	25.078	1043.673	847.398
53.315	25.102	1042.830	846.756
54.330	25.124	1042.267	846.326
55.344	25.098	1040.894	845.016
56.359	24.923	1040.772	844.017
57.374	24.875	1039.741	842.880
58.388	24.814	1038.766	841.728
59.403	24.682	1038.098	840.490
60.417	24.649	1037.757	839.985
61.432	24.617	1036.453	838.707
62.447	24.625	1036.020	838.317
63.461	24.756	1035.294	838.268
64.476	24.840	1034.310	837.792
65.490	24.687	1033.489	836.336
66.505	24.746	1032.522	835.758
67.520	24.593	1031.687	834.294
68.534	24.839	1031.155	834.935
69.549	24.621	1030.442	833.269
70.563	24.302	1029.047	830.581
71.578	24.267	1028.320	829.759
72.593	24.262	1027.546	829.035
73.607	24.197	1026.016	827.429
74.622	24.287	1025.092	827.027
75.636	24.490	1024.959	827.786
76.651	24.570	1024.098	827.391
77.666	24.467	1023.369	826.250
78.680	24.455	1022.413	825.349
79.695	24.332	1022.124	824.474
80.709	24.456	1021.387	824.381
81.724	24.633	1020.512	824.416
82.739	24.490	1019.869	823.165
83.753	24.614	1018.856	822.845
84.768	24.874	1018.348	823.562
85.782	25.326	1017.473	824.857
86.797	25.518	1017.226	825.466
87.812	25.350	1016.128	823.730
88.826	25.104	1015.400	821.941
89.841	24.987	1015.160	821.135
90.855	25.253	1013.859	821.228
91.870	25.259	1012.878	820.390
92.884	25.353	1011.851	819.914
93.899	25.208	1011.224	818.670
94.914	25.119	1010.080	817.266
95.928	25.188	1009.642	817.155
96.943	25.315	1008.630	816.843
97.957	24.918	1007.468	814.024
98.972	24.780	1006.470	812.520
99.987	24.529	1005.480	810.509
101.001	24.447	1005.246	809.877
102.016	24.917	1004.517	811.347
103.030	25.033	1003.300	810.816
104.045	24.883	1002.275	809.241
105.060	24.797	1001.227	807.935
106.074	24.682	999.905	806.279
107.089	24.686	999.216	805.669
108.103	24.904	999.463	806.777
109.118	25.116	997.639	806.187
110.133	24.700	996.867	803.622
111.147	24.818	995.897	803.299
112.162	24.641	994.497	801.307
113.176	24.447	993.625	799.663
114.191	24.521	993.317	799.677
115.206	24.689	992.483	799.687
116.220	24.378	990.968	797.004
117.235	24.254	989.990	795.597
118.249	24.270	989.543	795.237
119.264	24.498	988.406	795.266
120.279	24.368	987.652	794.013
121.293	24.243	987.231	793.049
122.308	24.498	986.695	793.682
123.322	24.539	985.505	792.837
124.337	24.271	984.911	791.099
125.352	24.192	983.596	789.621
126.366	23.870	981.825	786.705
127.381	23.512	980.652	784.113
128.395	24.088	980.570	786.523
129.410	24.804	980.263	789.370
130.424	25.076	979.224	789.660
131.439	24.937	978.264	788.204
132.454	24.834	977.566	787.120
133.468	24.851	976.559	786.315
134.483	24.829	975.807	785.542
135.497	24.819	975.011	784.788
136.512	25.228	974.453	786.061
137.527	25.111	973.952	785.077
138.541	25.063	972.935	783.976
139.556	25.206	972.234	783.967
140.570	25.203	971.568	783.348
141.585	25.100	970.786	782.200
142.600	25.157	970.193	781.901
143.614	25.112	969.411	781.006
144.629	25.256	968.344	780.701
145.643	25.547	967.756	781.426
146.658	25.398	966.642	779.811
147.673	25.236	965.497	778.115
148.687	25.073	964.074	776.195
149.702	24.947	963.567	775.171
150.716	24.886	962.277	773.801
151.731	24.817	961.514	772.821
152.746	25.012	960.399	772.695
153.760	25.182	960.130	773.147
154.775	25.265	959.423	772.865
155.789	25.318	958.573	772.341
156.804	25.264	957.760	771.385
157.819	25.203	956.573	770.099
158.833	25.351	955.750	770.001
159.848	25.506	954.920	769.930
160.862	25.378	954.482	768.959
161.877	25.338	953.336	767.796
162.892	25.090	952.606	766.081
163.906	25.204	952.076	766.074
164.921	25.300	950.556	765.194
165.935	25.238	949.577	764.072
166.950	25.338	948.164	763.294
167.964	25.335	947.471	762.655
168.979	25.361	946.562	761.967
169.994	25.173	945.636	760.357
171.008	25.132	944.804	759.448
172.023	25.306	943.980	759.452
173.037	25.318	943.661	759.181
174.052	25.229	942.370	757.700
175.067	25.015	941.158	755.754
176.081	25.105	939.953	755.098
177.096	25.147	939.478	754.826
178.110	25.015	938.856	753.706
179.125	24.947	937.524	752.283
180.140	24.652	936.521	750.176
181.154	24.485	936.424	749.329
182.169	24.829	935.583	750.035
183.183	25.034	935.173	750.499
184.198	25.319	934.952	751.447
185.213	25.229	934.091	750.313
186.227	25.283	933.228	749.775
187.242	25.265	933.036	749.481
188.256	25.313	932.408	749.111
189.271	25.216	931.574	747.972
190.286	25.337	930.895	747.863
191.300	25.269	929.857	746.681
192.315	24.735	928.402	743.227
193.329	23.847	926.922	738.291
194.344	23.434	925.755	735.582
195.359	24.140	926.272	738.856
196.373	24.929	926.146	741.961
197.388	25.218	926.253	743.178
198.402	25.069	925.830	742.159
199.417	25.089	925.104	741.593
200.432	25.024	924.829	741.039
201.446	25.154	923.846	740.722
202.461	24.711	922.935	738.097
203.475	24.943	922.652	738.763
204.490	24.471	920.864	735.323
205.504	23.348	918.620	728.850
206.519	23.769	918.808	730.663
207.534	24.700	919.358	734.865
208.548	24.761	918.596	734.443
209.563	24.996	918.902	735.589
210.577	25.198	917.572	735.287
211.592	24.772	916.773	732.837
212.607	25.217	916.837	734.644
213.621	25.407	916.419	735.024
214.636	25.362	915.688	734.185
215.650	25.427	915.095	733.912
216.665	25.271	914.456	732.698
217.680	25.438	914.184	733.098
218.694	25.388	913.830	732.543
219.709	25.101	912.822	730.503
220.723	24.749	911.370	727.843
221.738	24.997	911.271	728.707
222.753	25.038	911.124	728.692
223.767	25.007	910.164	727.735
224.782	25.146	909.537	727.734
225.796	25.422	908.735	728.145
226.811	25.507	908.118	727.930
227.826	25.173	907.055	725.665
228.840	24.384	904.994	720.765
229.855	24.227	904.761	719.883
230.869	24.485	904.665	720.783
231.884	24.183	903.432	718.520
232.899	24.113	903.225	718.010
233.913	24.964	903.499	721.594
234.928	25.143	903.029	721.874
235.942	25.003	902.256	720.630
236.957	25.095	901.634	720.441
237.972	24.872	900.449	718.534
238.986	24.617	900.231	717.272
240.001	24.740	899.287	716.950
241.015	24.811	898.468	716.520
242.030	24.931	897.948	716.520
243.045	24.909	897.636	716.119
244.059	25.069	897.329	716.451
245.074	25.339	896.683	716.948
246.088	25.231	896.261	716.117
247.103	24.870	895.179	713.751
248.117	24.965	894.494	713.519
249.132	25.518	894.443	715.617
250.147	25.854	894.242	716.732
251.161	25.734	894.160	716.124
252.176	26.037	893.537	716.768
253.190	26.225	892.379	716.520
254.205	26.108	892.173	715.825
255.220	26.253	891.992	716.195
256.234	26.423	890.997	716.006
257.249	25.912	890.973	713.897
258.263	26.028	889.820	713.372
259.278	25.965	889.604	712.886
260.293	26.115	889.048	712.970
261.307	25.970	888.785	712.123
262.322	26.090	887.765	711.714
263.336	26.035	886.988	710.812
264.351	25.459	885.687	707.441
265.366	24.223	884.334	701.434
266.380	23.953	883.079	699.319
267.395	24.888	883.361	703.153
268.409	25.667	883.213	706.032
269.424	25.621	882.823	705.477
270.439	25.803	881.962	705.438
271.453	25.881	881.640	705.426
272.468	25.897	881.138	705.021
273.482	25.962	881.058	705.152
274.497	26.023	880.698	705.037
275.512	26.036	878.914	703.599
276.526	25.370	877.888	700.121
277.541	25.449	877.648	700.173
278.555	25.843	877.656	701.654
279.570	25.681	877.035	700.464
280.585	25.486	876.053	698.857
281.599	25.711	875.358	699.117
282.614	25.827	875.055	699.262
283.628	25.478	873.744	696.801
284.643	24.892	873.133	693.981
285.657	25.363	872.791	695.474
286.672	25.334	872.063	694.720
287.687	24.610	871.236	691.198
288.701	25.077	871.225	692.934
289.716	25.458	870.873	694.064
290.730	25.145	870.033	692.127
291.745	25.140	869.275	691.445
292.760	24.899	868.787	690.066
293.774	24.867	867.711	689.027
294.789	25.733	868.286	692.757
295.803	26.315	868.641	695.218
296.818	26.274	868.031	694.508
297.833	26.501	867.572	694.952
298.847	26.214	866.450	692.891
299.862	25.831	865.652	690.723
300.876	25.979	864.921	690.647
301.891	26.212	865.033	691.567
302.906	26.337	864.208	691.324
303.920	25.911	863.034	688.696
304.935	25.829	862.487	687.888
305.949	26.359	861.842	689.333
306.964	26.381	861.740	689.273
307.979	26.143	861.108	687.801
308.993	26.112	860.329	686.998
310.008	26.356	860.236	687.795
311.022	26.633	859.963	688.568
312.037	26.268	859.084	686.416
313.052	26.117	858.739	685.506
314.066	26.154	857.605	684.680
315.081	25.332	856.422	680.562
316.095	24.706	854.965	676.975
317.110	25.143	855.240	678.788
318.125	25.852	855.846	681.892
319.139	25.531	854.491	679.538
320.154	24.378	852.529	673.568
321.168	23.907	851.785	671.144
322.183	24.690	851.972	674.185
323.197	25.531	852.503	677.718
324.212	25.848	852.195	678.606
325.227	26.071	851.849	679.110
326.241	26.165	851.111	678.815
327.256	26.070	850.513	677.921
328.270	25.954	849.846	676.895
329.285	25.896	849.173	676.080
330.300	25.810	848.483	675.151
331.314	25.382	847.789	672.936
332.329	25.550	847.115	672.969
333.343	25.891	847.190	674.245
334.358	26.225	846.656	675.008
335.373	26.182	845.948	674.224
336.387	26.342	845.239	674.196
337.402	26.460	845.144	674.503
338.416	26.779	844.684	675.263
339.431	26.814	844.017	674.800
340.446	26.602	844.012	673.949
341.460	26.923	843.251	674.474
342.475	26.890	842.598	673.770
343.489	26.580	842.233	672.268
344.504	26.617	841.400	671.680
345.519	26.742	841.416	672.095
346.533	27.061	840.876	672.789
347.548	27.226	840.096	672.714
348.562	27.169	839.867	672.262
349.577	27.031	839.451	671.359
350.592	26.789	838.756	669.848
351.606	27.038	838.054	670.149
352.621	26.905	837.727	669.338
353.635	26.846	837.085	668.546
354.650	26.846	836.281	667.847
355.665	26.419	835.757	665.798
356.679	25.417	834.092	660.728
357.694	25.316	833.397	659.749
358.708	26.016	833.341	662.215
359.723	25.874	833.148	661.484
360.738	26.083	832.711	661.844
361.752	26.580	832.471	663.418
362.767	26.670	832.366	663.606
363.781	26.950	832.271	664.494
364.796	27.293	832.160	665.603
365.810	27.308	831.436	665.017
366.825	27.499	830.858	665.196
367.840	27.471	830.610	664.836
368.854	27.375	829.692	663.692
369.869	26.773	829.147	661.005
370.883	26.616	828.452	659.821
371.898	26.855	827.672	660.008
372.913	26.870	827.247	659.666
373.927	26.795	826.467	658.715
374.942	26.850	825.855	658.366
375.956	26.900	825.408	658.134
376.971	27.082	825.305	658.652
377.986	27.304	824.467	658.731
379.000	27.519	823.867	658.970
380.015	27.453	823.817	658.633
381.029	27.217	823.107	657.156
382.044	27.224	822.489	656.630
383.059	27.347	821.719	656.398
384.073	27.443	821.351	656.394
385.088	27.463	820.590	655.797
386.102	27.316	820.342	655.013
387.117	27.153	819.503	653.702
388.132	26.950	819.416	652.842
389.146	26.868	818.364	651.652
390.161	26.215	817.505	648.566
391.175	26.493	816.897	649.023
392.190	26.991	817.380	651.136
393.205	26.836	817.036	650.249
394.219	25.935	815.433	645.690
395.234	24.430	812.838	638.200
396.248	23.527	811.758	634.072
397.263	24.702	812.750	638.991
398.278	26.628	813.926	646.744
399.292	26.969	813.857	647.850
400.307	26.487	813.208	645.558
401.321	26.594	812.651	645.438
402.336	26.577	812.215	644.976
403.350	26.825	812.123	645.727
404.365	27.345	812.197	647.582
405.380	27.596	811.984	648.248
406.394	28.125	811.721	649.857
407.409	28.159	811.284	649.572
408.423	28.071	811.001	648.975
409.438	28.077	809.939	648.091
410.453	28.016	809.965	647.836
411.467	28.030	809.266	647.271
412.482	28.024	808.919	646.913
413.496	27.909	808.211	645.885
414.511	27.971	808.207	646.044
415.526	27.959	807.955	645.743
416.540	28.099	806.877	645.316
417.555	27.991	806.419	644.512
418.569	27.675	805.853	642.889
419.584	27.539	805.457	642.038
420.599	27.813	804.959	642.550
421.613	108.244	1285.092	1452.227
422.628	93.356	1355.064	1452.341
