DTS Sentinel unit serial number:	SN413079Multiplexer serial number:	ORYXHardware model number:	OX4-SRSoftware version number:	ORYX F/W v4.00 Oryx Data Collector v3.7.2.0data status	okinstallation	princeton_trtdifferential loss correction	single-endedforward channel	channel 3reverse channel	N/Adate	2019/09/15time	16:20:35forward acquisition time	60.00reverse acquisition time	0.00gamma	496.2192k internal	0.2288k external	0.2288temperature offset calibration	0.9936default loss term (dB/km)	0.3790temperature slope calibration	1.0000multiplexer offset coefficient	1.0000multiplexer slope coefficient	1.0000fibre end	0.00T internal ref (°C)	43.61T ext. ref 1 (°C)	5.50T ext. ref 2 (°C)	40.15length (m)	temperature (°C)	Stokes	anti-Stokes-747.200	18.417	-0.146	0.120
-746.185	73.687	0.199	0.214
-745.171	800.000	-0.084	0.280
-744.156	800.000	0.033	0.102
-743.142	224.381	0.042	-0.070
-742.127	549.776	0.063	0.154
-741.112	-10.491	0.190	-0.129
-740.098	-200.000	0.061	-0.384
-739.083	29.235	-0.192	-0.167
-738.069	-166.548	-0.474	0.020
-737.054	-200.000	0.002	0.097
-736.039	36.628	-0.007	-0.007
-735.025	85.023	0.227	-0.255
-734.010	800.000	-0.027	-0.087
-732.996	-145.252	0.208	-0.019
-731.981	-141.965	-0.095	0.010
-730.966	94.728	0.245	0.285
-729.952	189.434	0.223	0.342
-728.937	-200.000	-0.039	-0.186
-727.923	800.000	-0.074	0.243
-726.908	322.297	-0.072	0.141
-725.894	-8.009	-0.205	0.142
-724.879	761.393	-0.024	0.067
-723.864	60.225	0.268	0.271
-722.850	-17.782	-0.032	-0.020
-721.835	-117.318	-0.330	0.061
-720.821	-37.540	0.059	0.032
-719.806	249.669	-0.059	0.103
-718.791	-121.364	0.302	0.052
-717.777	-114.689	0.253	0.050
-716.762	708.727	-0.077	-0.208
-715.748	-200.000	0.005	0.064
-714.733	-30.886	0.312	0.181
-713.718	800.000	-0.069	0.275
-712.704	-150.896	-0.067	-0.005
-711.689	-200.000	0.014	-0.075
-710.675	-150.375	-0.047	0.004
-709.660	-154.362	0.296	0.020
-708.645	234.714	-0.066	0.112
-707.631	83.253	-0.084	0.094
-706.616	-79.222	-0.231	-0.080
-705.602	622.056	-0.078	0.201
-704.587	-157.891	-0.066	-0.004
-703.572	605.571	0.150	0.384
-702.558	-84.376	0.348	0.113
-701.543	12.360	0.169	0.134
-700.529	-30.241	-0.094	0.055
-699.514	800.000	0.109	0.468
-698.499	-102.383	0.156	0.038
-697.485	-40.490	0.329	-0.175
-696.470	-171.588	0.184	0.006
-695.456	45.314	-0.324	0.306
-694.441	-110.068	-0.336	0.072
-693.426	116.631	-0.079	0.099
-692.412	249.944	0.119	-0.207
-691.397	8.531	-0.290	0.223
-690.383	42.513	-0.264	-0.245
-689.368	44.622	-0.049	-0.046
-688.354	207.723	-0.047	0.076
-687.339	-82.279	0.343	-0.114
-686.324	-132.583	0.449	0.059
-685.310	-200.000	-0.029	0.211
-684.295	72.177	-0.171	-0.182
-683.281	-200.000	-0.070	-0.350
-682.266	64.747	-0.112	-0.115
-681.251	198.752	0.201	-0.315
-680.237	16.952	0.058	-0.047
-679.222	386.258	-0.056	0.118
-678.208	-72.069	0.159	0.060
-677.193	-114.548	-0.073	0.014
-676.178	138.918	-0.044	0.059
-675.164	-200.000	-0.039	0.351
-674.149	-50.520	-0.535	-0.258
-673.135	83.899	0.199	-0.222
-672.120	-82.597	0.354	-0.117
-671.105	-200.000	-0.020	0.129
-670.091	800.000	0.087	0.280
-669.076	-25.705	0.085	0.051
-668.062	-82.591	0.202	-0.067
-667.047	-123.956	0.134	-0.022
-666.032	58.290	-0.137	-0.137
-665.018	-89.870	-0.332	0.099
-664.003	-200.000	-0.004	0.158
-662.989	117.901	0.156	0.196
-661.974	-14.668	-0.375	-0.246
-660.959	117.561	-0.114	-0.143
-659.945	800.000	-0.039	-0.114
-658.930	32.041	-0.159	0.140
-657.916	-139.284	0.344	-0.038
-656.901	23.595	0.121	-0.101
-655.886	-146.419	0.022	-0.002
-654.872	-41.267	-0.266	-0.140
-653.857	-54.046	0.196	0.091
-652.843	569.507	0.028	-0.068
-651.828	-44.806	0.048	0.024
-650.814	-200.000	0.014	-0.114
-649.799	-90.279	-0.066	-0.020
-648.784	-95.160	0.057	0.016
-647.770	-29.137	0.191	-0.112
-646.755	800.000	-0.100	-0.326
-645.741	463.068	-0.085	-0.193
-644.726	-51.100	-0.282	0.135
-643.711	-175.014	-0.229	-0.007
-642.697	565.655	0.028	-0.069
-641.682	-200.000	0.001	0.067
-640.668	-88.545	0.297	-0.090
-639.653	-200.000	0.018	-0.135
-638.638	-96.533	-0.089	0.024
-637.624	-8.036	-0.156	0.107
-636.609	-80.494	0.234	-0.080
-635.595	17.051	-0.185	-0.150
-634.580	-115.711	0.104	-0.020
-633.565	143.259	-0.126	-0.171
-632.551	-9.800	-0.160	-0.109
-631.536	558.430	0.123	-0.304
-630.522	800.000	0.064	-0.277
-629.507	115.904	0.116	0.144
-628.492	187.321	0.046	0.070
-627.478	-39.120	-0.296	0.159
-626.463	275.253	-0.072	-0.129
-625.449	-65.289	-0.298	-0.122
-624.434	-112.253	-0.111	0.023
-623.419	-200.000	0.023	0.121
-622.405	-43.076	-0.261	0.135
-621.390	-200.000	0.015	-0.169
-620.376	800.000	-0.096	0.421
-619.361	-200.000	-0.019	0.185
-618.346	61.623	0.221	0.224
-617.332	-114.634	-0.078	-0.015
-616.317	2.739	-0.152	0.112
-615.303	-81.167	-0.222	-0.075
-614.288	-132.436	0.385	-0.051
-613.273	-128.504	0.016	0.002
-612.259	-165.090	-0.391	-0.018
-611.244	800.000	-0.008	0.034
-610.230	800.000	-0.017	-0.075
-609.215	-115.737	-0.168	0.032
-608.201	-97.678	0.078	-0.021
-607.186	-108.822	-0.227	-0.050
-606.171	-75.604	-0.186	-0.067
-605.157	-87.285	-0.085	-0.026
-604.142	-105.048	-0.132	0.031
-603.128	-200.000	-0.006	-0.069
-602.113	-200.000	0.018	0.168
-601.098	-12.948	0.080	-0.053
-600.084	355.635	-0.036	0.073
-599.069	800.000	0.036	0.113
-598.055	57.656	-0.117	0.117
-597.040	223.355	-0.004	0.006
-596.025	140.678	0.176	0.237
-595.011	-108.559	0.243	0.053
-593.996	-200.000	-0.133	-0.001
-592.982	170.692	0.172	0.251
-591.967	108.774	0.039	-0.048
-590.952	163.779	-0.181	0.260
-589.938	-95.930	-0.310	0.084
-588.923	-116.500	-0.118	0.022
-587.909	14.444	-0.121	-0.096
-586.894	122.259	0.142	-0.181
-585.879	568.331	0.045	-0.112
-584.865	-77.116	0.039	0.014
-583.850	10.099	0.147	-0.114
-582.836	-67.548	-0.229	0.092
-581.821	-50.548	0.290	0.139
-580.806	-31.421	-0.301	0.172
-579.792	-85.388	0.278	-0.088
-578.777	-200.000	0.013	-0.067
-577.763	-85.606	0.110	0.035
-576.748	-99.231	-0.090	-0.023
-575.733	56.301	0.075	0.074
-574.719	-106.972	0.105	0.024
-573.704	-200.000	0.003	-0.067
-572.690	637.022	0.188	-0.488
-571.675	-100.762	0.236	0.059
-570.661	60.400	-0.150	-0.151
-569.646	284.952	0.146	0.268
-568.631	-128.785	-0.159	0.023
-567.617	30.942	0.217	0.189
-566.602	-159.860	0.231	-0.013
-565.588	-48.896	-0.180	0.088
-564.573	-36.241	-0.384	-0.211
-563.558	75.941	-0.258	0.278
-562.544	54.391	-0.136	0.133
-561.529	-75.302	-0.111	-0.040
-560.515	-200.000	0.004	0.057
-559.500	191.442	0.092	-0.141
-558.485	-17.266	0.336	0.215
-557.471	-79.893	-0.492	0.168
-556.456	70.395	0.109	0.114
-555.442	-80.991	0.218	-0.073
-554.427	17.733	-0.101	0.082
-553.412	13.987	-0.085	0.068
-552.398	12.893	0.273	-0.214
-551.383	-83.079	-0.325	0.107
-550.369	-170.974	0.192	-0.007
-549.354	800.000	0.039	0.137
-548.339	-74.010	-0.166	-0.061
-547.325	-53.399	0.325	0.151
-546.310	185.798	0.069	0.104
-545.296	800.000	0.046	0.140
-544.281	-88.968	0.086	0.026
-543.266	17.731	-0.086	-0.070
-542.252	14.972	0.250	-0.199
-541.237	-200.000	0.002	0.053
-540.223	35.927	0.159	0.143
-539.208	59.507	0.151	-0.152
-538.193	46.260	0.250	-0.236
-537.179	-74.747	0.154	0.056
-536.164	127.523	-0.140	0.181
-535.150	754.766	-0.029	0.078
-534.135	10.002	0.264	0.204
-533.121	-199.829	0.276	0.001
-532.106	155.946	0.021	0.030
-531.091	217.754	0.158	-0.256
-530.077	243.186	0.197	-0.336
-529.062	-127.236	-0.255	0.038
-528.048	423.383	0.088	-0.193
-527.033	153.503	-0.203	-0.283
-526.018	-200.000	-0.031	-0.433
-525.004	12.941	0.277	0.218
-523.989	-200.000	-0.030	-0.193
-522.975	14.715	0.143	-0.114
-521.960	-200.000	0.005	0.144
-520.945	-50.499	0.263	-0.126
-519.931	28.929	-0.121	-0.104
-518.916	30.410	-0.243	-0.211
-517.902	-200.000	0.067	0.535
-516.887	277.909	-0.253	0.457
-515.872	-37.402	0.050	-0.027
-514.858	-130.397	0.060	-0.008
-513.843	-79.762	0.117	-0.040
-512.829	341.009	0.133	0.264
-511.814	-123.261	-0.120	-0.019
-510.799	-200.000	-0.067	-0.336
-509.785	73.207	-0.036	-0.038
-508.770	2.422	-0.190	0.139
-507.756	-200.000	0.021	-0.150
-506.741	-200.000	0.002	0.101
-505.726	-62.234	0.111	0.047
-504.712	-135.825	-0.271	-0.033
-503.697	-113.358	0.163	-0.032
-502.683	169.468	-0.092	0.133
-501.668	119.947	0.141	0.177
-500.653	-73.109	0.143	0.053
-499.639	363.746	0.097	0.197
-498.624	100.674	-0.060	0.070
-497.610	-174.699	-0.283	-0.008
-496.595	-95.993	0.395	-0.107
-495.581	-200.000	-0.046	-0.218
-494.566	468.879	0.072	-0.165
-493.551	-115.311	0.211	-0.040
-492.537	253.653	-0.168	-0.292
-491.522	248.411	0.031	0.053
-490.508	-132.689	0.337	0.044
-489.493	-166.214	-0.138	0.006
-488.478	-131.382	0.027	0.004
-487.464	-59.708	-0.361	-0.157
-486.449	-200.000	0.033	0.236
-485.435	241.403	-0.063	0.106
-484.420	49.470	-0.035	0.034
-483.405	-200.000	-0.084	-0.424
-482.391	209.106	-0.175	-0.278
-481.376	513.173	-0.065	-0.153
-480.362	-7.132	0.188	-0.130
-479.347	-10.758	0.044	-0.030
-478.332	-200.000	0.030	-0.226
-477.318	-98.081	0.332	0.087
-476.303	12.718	0.264	-0.207
-475.289	-19.002	-0.400	0.252
-474.274	103.761	-0.053	-0.063
-473.259	-82.752	0.159	0.052
-472.245	-200.000	0.038	-0.178
-471.230	-88.295	-0.151	-0.046
-470.216	-69.995	-0.252	0.097
-469.201	155.781	0.106	0.149
-468.186	-200.000	0.035	-0.262
-467.172	-86.018	-0.132	-0.041
-466.157	162.228	0.085	-0.121
-465.143	-200.000	0.034	0.290
-464.128	-146.612	0.223	-0.020
-463.113	-92.302	-0.184	-0.053
-462.099	-128.689	-0.065	-0.009
-461.084	-134.619	-0.270	0.033
-460.070	-100.428	-0.159	0.040
-459.055	304.807	0.065	-0.121
-458.040	-200.000	0.028	0.206
-457.026	-23.731	-0.310	0.188
-456.011	303.282	0.038	-0.071
-454.997	52.096	0.061	0.059
-453.982	-200.000	0.051	0.334
-452.968	-86.480	-0.156	0.048
-451.953	-94.327	-0.149	0.041
-450.938	-11.937	-0.106	0.070
-449.924	-19.142	-0.261	0.164
-448.909	112.131	-0.290	0.355
-447.895	800.000	-0.057	0.199
-446.880	-62.633	0.129	0.054
-445.865	-108.697	-0.475	-0.103
-444.851	94.449	0.101	-0.116
-443.836	-77.752	0.227	0.079
-442.822	-94.514	-0.191	0.053
-441.807	51.609	0.271	0.261
-440.792	-45.038	-0.176	-0.089
-439.778	-200.000	-0.067	-0.304
-438.763	524.245	0.088	-0.211
-437.749	-159.887	0.180	-0.010
-436.734	800.000	-0.061	0.265
-435.719	333.627	-0.050	0.099
-434.705	-154.698	0.291	0.020
-433.690	6.265	-0.315	0.237
-432.676	374.032	-0.046	-0.094
-431.661	-64.035	0.215	-0.089
-430.646	-37.403	0.133	0.072
-429.632	-140.047	-0.361	0.038
-428.617	-62.905	-0.106	0.044
-427.603	-113.075	0.294	0.059
-426.588	-200.000	0.003	-0.253
-425.573	37.693	-0.155	0.139
-424.559	86.224	0.070	0.078
-423.544	195.583	0.092	-0.142
-422.530	82.438	0.060	0.066
-421.515	-200.000	-0.035	0.218
-420.500	-135.757	0.158	-0.019
-419.486	-52.078	0.123	0.058
-418.471	109.989	0.080	-0.097
-417.457	-200.000	-0.002	0.134
-416.442	366.951	0.042	0.085
-415.428	-45.023	0.225	0.113
-414.413	-20.954	0.185	0.115
-413.398	-96.253	-0.184	-0.049
-412.384	-200.000	-0.022	0.196
-411.369	-180.920	-0.381	0.008
-410.355	77.759	-0.114	-0.123
-409.340	175.207	-0.067	0.098
-408.325	-101.758	-0.131	-0.032
-407.311	-200.000	-0.063	-0.404
-406.296	-200.000	-0.048	-0.222
-405.282	261.702	-0.178	-0.311
-404.267	-150.817	0.209	0.016
-403.252	-136.901	0.181	0.021
-402.238	-200.000	-0.009	0.119
-401.223	5.985	-0.249	0.186
-400.209	-119.052	0.163	0.029
-399.194	-37.443	0.173	-0.093
-398.179	-24.858	0.253	-0.152
-397.165	800.000	0.147	-0.475
-396.150	110.042	0.078	0.094
-395.136	800.000	0.009	0.040
-394.121	-179.321	0.245	-0.005
-393.106	22.703	-0.221	0.183
-392.092	-61.734	-0.178	-0.075
-391.077	-169.684	0.079	0.003
-390.063	84.633	-0.032	0.035
-389.048	11.990	0.342	-0.266
-388.033	-94.718	-0.028	0.008
-387.019	47.834	0.102	-0.096
-386.004	215.726	-0.027	-0.044
-384.990	-138.347	0.112	-0.013
-383.975	-55.549	0.332	0.150
-382.960	-10.768	0.146	-0.097
-381.946	46.978	-0.091	0.086
-380.931	306.757	-0.067	0.125
-379.917	85.156	0.101	-0.112
-378.902	-119.004	-0.072	-0.013
-377.888	-100.340	0.064	0.016
-376.873	-30.768	-0.149	-0.085
-375.858	196.670	-0.127	0.195
-374.844	-200.000	0.011	-0.202
-373.829	-110.865	0.401	0.083
-372.815	-60.027	-0.469	-0.202
-371.800	-200.000	-0.006	-0.275
-370.785	-185.157	0.174	-0.003
-369.771	-200.000	-0.022	-0.406
-368.756	36.700	-0.198	-0.177
-367.742	504.863	-0.034	-0.079
-366.727	-141.721	0.400	0.041
-365.712	800.000	-0.081	0.252
-364.698	-180.109	0.406	-0.009
-363.683	-167.343	0.120	-0.005
-362.669	-200.000	0.043	0.290
-361.654	786.867	-0.049	-0.136
-360.639	23.200	-0.093	0.077
-359.625	75.484	0.054	-0.057
-358.610	-55.418	-0.135	-0.061
-357.596	-40.948	0.036	-0.019
-356.581	-26.342	0.063	-0.038
-355.566	3.661	-0.139	0.102
-354.552	800.000	0.066	-0.192
-353.537	800.000	-0.028	0.109
-352.523	109.787	0.125	0.151
-351.508	167.504	-0.052	-0.075
-350.493	-20.715	-0.182	0.113
-349.479	800.000	0.065	0.213
-348.464	-66.653	-0.156	0.062
-347.450	-50.316	-0.129	0.062
-346.435	-200.000	-0.068	-0.346
-345.420	79.327	0.170	0.184
-344.406	-72.468	-0.139	0.052
-343.391	45.753	0.179	-0.167
-342.377	-200.000	-0.088	-0.396
-341.362	349.094	-0.182	0.362
-340.348	800.000	-0.160	-0.450
-339.333	204.620	0.128	0.200
-338.318	-200.000	0.025	0.225
-337.304	-39.079	-0.289	-0.154
-336.289	257.937	-0.161	0.280
-335.275	-44.780	-0.132	-0.066
-334.260	-156.349	0.163	-0.010
-333.245	-40.760	0.056	0.029
-332.231	68.867	0.126	-0.131
-331.216	135.215	-0.107	0.141
-330.202	-200.000	0.028	0.141
-329.187	75.263	0.046	-0.049
-328.172	603.355	-0.063	-0.159
-327.158	-200.000	0.018	-0.092
-326.143	-149.177	0.106	-0.009
-325.129	529.601	-0.112	-0.266
-324.114	-96.143	0.122	0.033
-323.099	-176.187	-0.364	0.010
-322.085	-142.549	-0.253	0.025
-321.070	257.511	0.084	-0.146
-320.056	-135.434	0.410	-0.049
-319.041	-200.000	-0.013	0.129
-318.026	64.116	-0.218	-0.221
-317.012	147.890	-0.132	-0.180
-315.997	142.504	-0.195	-0.261
-314.983	-75.916	0.283	-0.101
-313.968	800.000	0.062	-0.188
-312.953	-200.000	0.019	-0.091
-311.939	75.222	0.136	-0.145
-310.924	17.021	0.113	0.091
-309.910	-200.000	0.017	-0.166
-308.895	-26.485	0.108	0.064
-307.880	302.163	-0.145	-0.270
-306.866	-200.000	0.036	-0.232
-305.851	800.000	0.082	0.330
-304.837	-128.271	0.108	0.016
-303.822	86.654	-0.239	-0.266
-302.807	235.813	0.162	0.270
-301.793	800.000	-0.100	0.278
-300.778	-200.000	0.007	0.267
-299.764	91.257	0.031	0.036
-298.749	-41.428	0.056	0.029
-297.735	-30.317	0.077	-0.044
-296.720	25.282	-0.125	0.104
-295.705	-106.403	0.166	0.037
-294.691	-200.000	-0.013	0.238
-293.676	-127.729	0.068	-0.010
-292.662	250.695	0.131	0.224
-291.647	-200.000	0.028	0.163
-290.632	53.105	0.241	0.232
-289.618	-200.000	-0.027	-0.259
-288.603	-117.176	0.351	-0.064
-287.589	-54.158	-0.058	0.027
-286.574	-200.000	-0.030	-0.384
-285.559	-146.740	-0.117	0.010
-284.545	800.000	0.010	-0.033
-283.530	-179.270	0.249	-0.006
-282.516	230.421	-0.144	0.237
-281.501	97.086	0.180	0.208
-280.486	-200.000	-0.004	-0.158
-279.472	647.168	-0.107	0.275
-278.457	-86.096	0.355	0.110
-277.443	-65.955	0.316	0.127
-276.428	-45.097	-0.132	0.066
-275.413	800.000	0.101	0.301
-274.399	-79.355	-0.201	0.069
-273.384	-69.595	-0.175	-0.068
-272.370	800.000	-0.045	-0.161
-271.355	407.143	0.126	0.267
-270.340	-200.000	-0.010	0.068
-269.326	-19.261	-0.202	0.126
-268.311	590.283	0.057	0.142
-267.297	-113.228	0.092	0.018
-266.282	-28.016	-0.078	0.046
-265.267	-200.000	-0.412	-0.002
-264.253	111.781	-0.107	-0.130
-263.238	90.486	-0.120	0.135
-262.224	-31.597	0.299	0.169
-261.209	-143.343	0.335	0.032
-260.195	-109.807	-0.233	-0.049
-259.180	216.552	-0.178	-0.285
-258.165	-15.926	0.180	0.115
-257.151	200.712	-0.134	0.207
-256.136	-200.000	0.023	-0.219
-255.122	252.488	-0.145	0.248
-254.107	-200.000	-0.034	0.312
-253.092	415.519	0.166	0.356
-252.078	493.616	-0.077	-0.177
-251.063	81.090	-0.153	0.166
-250.049	35.696	-0.183	0.162
-249.034	183.627	0.215	-0.320
-248.019	479.003	0.034	-0.078
-247.005	-200.000	0.023	-0.134
-245.990	-200.000	0.004	-0.027
-244.976	127.370	0.146	-0.186
-243.961	-200.000	0.015	0.120
-242.946	-95.159	-0.191	-0.052
-241.932	-180.925	-0.270	-0.005
-240.917	-147.018	0.073	-0.006
-239.903	-101.180	0.011	-0.003
-238.888	222.360	-0.195	0.316
-237.873	-145.651	-0.262	0.024
-236.859	-200.000	0.016	-0.081
-235.844	133.591	-0.116	0.150
-234.830	-86.164	0.071	-0.022
-233.815	548.065	0.048	-0.117
-232.800	252.860	-0.198	-0.339
-231.786	683.099	0.161	0.421
-230.771	-117.673	-0.154	0.028
-229.757	-137.354	-0.345	0.039
-228.742	67.039	-0.046	0.047
-227.727	89.883	-0.132	-0.148
-226.713	-200.000	-0.010	0.047
-225.698	-91.203	-0.338	0.097
-224.684	-71.731	-0.443	-0.166
-223.669	-31.197	0.114	-0.065
-222.655	-3.652	0.118	-0.082
-221.640	-81.444	0.079	-0.026
-220.625	800.000	0.014	-0.060
-219.611	-66.844	0.232	-0.092
-218.596	-10.972	-0.206	-0.136
-217.582	800.000	0.090	0.354
-216.567	128.901	0.181	0.232
-215.552	-117.538	0.510	-0.093
-214.538	5.376	0.191	0.141
-213.523	-200.000	-0.008	0.127
-212.509	-68.005	0.434	0.170
-211.494	247.355	-0.025	-0.043
-210.479	-61.934	-0.157	0.066
-209.465	309.410	0.099	-0.186
-208.450	-200.000	-0.004	-0.133
-207.436	800.000	0.066	0.210
-206.421	-49.735	-0.144	0.069
-205.406	252.256	0.072	-0.123
-204.392	-98.952	-0.287	0.073
-203.377	56.893	0.127	0.125
-202.363	800.000	-0.080	0.281
-201.348	-67.643	-0.231	-0.091
-200.333	22.134	0.080	0.065
-199.319	14.293	0.269	0.210
-198.304	55.838	-0.125	0.121
-197.290	800.000	0.071	0.196
-196.275	-44.094	-0.225	-0.113
-195.260	37.569	-0.087	-0.077
-194.246	-142.443	0.073	0.007
-193.231	-110.340	-0.241	0.050
-192.217	8.744	0.240	-0.181
-191.202	-47.044	0.095	-0.046
-190.187	113.500	0.074	0.090
-189.173	-200.000	-0.011	-0.148
-188.158	-157.529	-0.050	-0.003
-187.144	223.076	-0.074	0.120
-186.129	383.554	0.126	-0.261
-185.114	107.953	0.287	-0.343
-184.100	4.962	0.037	0.028
-183.085	-2.562	0.029	0.021
-182.071	800.000	-0.064	-0.281
-181.056	-200.000	0.010	0.335
-180.042	-34.839	-0.318	-0.174
-179.027	-187.108	0.064	-0.001
-178.012	61.229	0.090	-0.089
-176.998	-134.142	-0.183	-0.023
-175.983	50.764	0.124	0.118
-174.969	-200.000	-0.006	0.072
-173.954	227.525	-0.072	-0.118
-172.939	-200.000	-0.001	-0.084
-171.925	-72.812	0.392	0.145
-170.910	239.716	-0.211	-0.352
-169.896	-127.136	0.171	0.025
-168.881	375.621	0.188	-0.384
-167.866	133.949	0.133	-0.172
-166.852	297.135	0.036	-0.067
-165.837	44.137	0.301	0.277
-164.823	800.000	0.056	0.185
-163.808	304.738	0.088	0.164
-162.793	-200.000	0.023	-0.268
-161.779	-58.497	0.243	-0.106
-160.764	114.894	-0.358	-0.437
-159.750	-200.000	0.007	-0.053
-158.735	183.446	0.043	-0.064
-157.720	-200.000	0.010	-0.206
-156.706	-200.000	-0.031	-0.184
-155.691	800.000	-0.093	0.259
-154.677	128.292	-0.110	0.141
-153.662	8.503	-0.265	0.200
-152.647	124.964	0.122	-0.153
-151.633	800.000	-0.064	-0.264
-150.618	-92.324	-0.106	0.030
-149.604	482.353	-0.117	-0.266
-148.589	471.967	0.023	0.053
-147.574	434.231	-0.055	-0.119
-146.560	-55.075	0.353	0.159
-145.545	72.850	0.048	0.050
-144.531	70.364	-0.114	-0.118
-143.516	-107.456	0.040	-0.009
-142.502	100.090	-0.182	0.211
-141.487	-161.781	0.063	0.003
-140.472	-200.000	0.027	0.163
-139.458	-107.644	-0.350	-0.077
-138.443	-116.220	0.074	0.014
-137.429	-170.665	0.366	0.013
-136.414	-2.516	0.166	-0.116
-135.399	-49.865	-0.340	-0.162
-134.385	800.000	0.002	0.008
-133.370	-148.676	-0.412	-0.034
-132.356	71.569	0.220	-0.229
-131.341	82.620	0.037	0.040
-130.326	-200.000	0.027	0.153
-129.312	-106.413	-0.161	-0.036
-128.297	183.404	-0.191	-0.282
-127.283	497.301	0.005	-0.011
-126.268	127.869	0.070	0.089
-125.253	-77.082	-0.149	-0.052
-124.239	-200.000	-0.007	-0.051
-123.224	-200.000	0.002	-0.261
-122.210	-90.729	0.241	-0.070
-121.195	-200.000	0.000	0.329
-120.180	-61.689	0.121	0.051
-119.166	-85.934	0.252	0.078
-118.151	-200.000	0.041	0.188
-117.137	-73.564	-0.082	0.030
-116.122	94.541	-0.196	-0.223
-115.107	-200.000	-0.007	0.242
-114.093	417.579	-0.087	-0.185
-113.078	800.000	-0.063	0.190
-112.064	800.000	0.051	0.176
-111.049	73.159	-0.157	0.164
-110.034	201.520	-0.079	0.122
-109.020	26.648	0.198	-0.166
-108.005	188.102	0.025	0.038
-106.991	800.000	0.118	0.337
-105.976	131.399	0.143	0.184
-104.962	-129.210	0.248	0.035
-103.947	36.036	0.349	0.307
-102.932	800.000	0.059	0.205
-101.918	-113.693	0.147	0.029
-100.903	-123.642	0.304	-0.048
-99.889	395.970	0.094	-0.196
-98.874	-200.000	-0.033	-0.181
-97.859	-97.446	-0.120	0.031
-96.845	599.324	0.070	0.172
-95.830	800.000	0.047	0.165
-94.816	800.000	-0.111	-0.359
-93.801	456.056	0.151	0.334
-92.786	179.028	-0.080	-0.118
-91.772	152.295	-0.056	-0.077
-90.757	-13.245	0.351	-0.228
-89.743	613.165	0.144	-0.360
-88.728	-200.000	0.016	-0.233
-87.713	-64.959	0.301	-0.122
-86.699	-200.000	-0.012	-0.232
-85.684	10.350	0.082	0.062
-84.670	109.446	0.056	-0.067
-83.655	-38.279	0.144	-0.076
-82.640	664.419	-0.126	0.324
-81.626	335.144	-0.053	0.103
-80.611	240.042	-0.060	-0.099
-79.597	-200.000	-0.048	0.335
-78.582	-54.013	0.194	0.088
-77.567	-152.003	0.181	0.013
-76.553	-158.096	0.194	0.011
-75.538	-200.000	0.029	0.290
-74.524	-93.584	0.085	0.023
-73.509	-1.535	0.095	-0.067
-72.494	-85.661	0.252	0.078
-71.480	131.620	-0.085	0.109
-70.465	220.551	0.055	0.088
-69.451	4.379	-0.176	0.129
-68.436	-80.565	-0.130	-0.043
-67.422	-200.000	-0.001	0.062
-66.407	39.127	-0.115	-0.102
-65.392	800.000	0.011	-0.047
-64.378	122.472	-0.141	0.176
-63.363	-47.025	-0.269	0.131
-62.349	800.000	-0.031	0.121
-61.334	28.960	-0.641	-0.542
-60.319	330.669	0.200	0.384
-59.305	800.000	-0.212	-0.825
-58.290	-38.153	0.524	0.277
-57.276	800.000	0.435	1.631
-56.261	-200.000	70.504	531.945
-55.246	581.835	1281.359	3135.891
-54.232	140.494	2535.734	3340.737
-53.217	120.538	2265.866	2808.965
-52.203	55.328	1782.423	1720.416
-51.188	47.278	1573.986	1462.596
-50.173	44.431	1542.884	1413.876
-49.159	59.557	1576.535	1551.010
-48.144	67.290	1596.731	1624.946
-47.130	47.686	1561.621	1453.736
-46.115	43.900	1547.059	1413.771
-45.100	43.643	1543.642	1408.804
-44.086	43.614	1541.332	1406.435
-43.071	43.532	1539.687	1404.314
-42.057	43.528	1537.631	1402.349
-41.042	43.567	1535.987	1401.067
-40.027	43.550	1534.860	1399.865
-39.013	43.569	1533.287	1398.509
-37.998	43.570	1531.747	1397.053
-36.984	43.596	1530.949	1396.448
-35.969	43.610	1529.821	1395.464
-34.954	43.604	1528.255	1393.935
-33.940	43.601	1526.762	1392.496
-32.925	43.654	1524.920	1391.129
-31.911	43.657	1523.595	1389.886
-30.896	43.675	1522.352	1388.822
-29.881	43.716	1520.483	1387.341
-28.867	43.713	1519.450	1386.324
-27.852	43.669	1518.181	1384.808
-26.838	43.640	1516.631	1383.143
-25.823	43.657	1514.364	1381.135
-24.809	43.575	1512.757	1379.059
-23.794	43.679	1511.122	1378.216
-22.779	43.712	1510.122	1377.475
-21.765	43.607	1509.235	1375.902
-20.750	43.670	1508.031	1375.172
-19.736	43.591	1507.500	1374.100
-18.721	43.654	1505.531	1372.674
-17.706	43.646	1504.399	1371.536
-16.692	43.600	1503.339	1370.207
-15.677	43.634	1502.089	1369.237
-14.663	43.548	1501.639	1368.192
-13.648	43.604	1500.556	1367.535
-12.633	43.593	1499.746	1366.666
-11.619	43.552	1498.608	1365.299
-10.604	43.515	1497.793	1364.248
-9.590	43.573	1497.020	1363.882
-8.575	43.593	1495.949	1362.991
-7.560	43.522	1495.240	1361.813
-6.546	43.559	1494.056	1360.924
-5.531	43.619	1492.691	1360.032
-4.517	43.465	1492.141	1358.439
-3.502	43.541	1491.040	1357.893
-2.487	43.646	1489.449	1357.095
-1.473	43.468	1489.158	1355.586
-0.458	43.555	1487.727	1354.809
0.556	41.950	1478.523	1346.285
1.571	39.329	1450.950	1303.729
2.586	35.145	1386.358	1219.023
3.600	32.410	1300.713	1127.258
4.615	29.873	1251.188	1069.597
5.629	25.624	1194.052	997.170
6.644	15.709	1103.600	870.485
7.659	7.285	1056.167	791.104
8.673	5.692	1050.118	778.591
9.688	5.606	1047.081	775.842
10.702	5.307	1045.996	773.492
11.717	5.406	1044.081	772.496
12.731	8.825	1047.911	792.187
13.746	17.103	1060.078	842.560
14.761	20.638	1063.789	863.005
15.775	18.526	1059.392	848.916
16.790	16.848	1056.227	838.017
17.804	15.753	1053.865	830.663
18.819	14.809	1052.145	824.578
19.834	14.403	1050.427	821.156
20.848	13.976	1049.678	818.398
21.863	13.725	1048.803	816.405
22.877	13.577	1047.815	814.835
23.892	13.446	1047.066	813.540
24.907	13.242	1046.316	811.884
25.921	13.180	1046.014	811.271
26.936	13.319	1044.891	811.012
27.950	13.427	1043.877	810.682
28.965	13.378	1043.015	809.701
29.980	13.450	1041.428	808.746
30.994	13.515	1040.186	808.031
32.009	13.504	1039.592	807.444
33.023	13.537	1038.883	806.983
34.038	13.558	1038.090	806.398
35.053	13.664	1036.796	805.834
36.067	13.416	1036.253	804.138
37.082	13.524	1035.440	803.960
38.096	13.400	1034.787	802.781
39.111	13.570	1033.938	802.871
40.126	13.470	1033.160	801.716
41.140	13.499	1031.883	800.793
42.155	13.216	1031.089	798.736
43.169	13.251	1030.047	798.030
44.184	13.187	1028.878	796.744
45.199	13.202	1027.472	795.659
46.213	13.185	1026.670	794.882
47.228	13.293	1026.023	794.829
48.242	13.287	1024.823	793.802
49.257	13.432	1024.233	793.970
50.271	13.361	1023.403	792.918
51.286	13.288	1022.410	791.726
52.301	13.487	1021.506	791.912
53.315	13.388	1020.741	790.772
54.330	13.371	1019.922	789.989
55.344	13.245	1019.109	788.689
56.359	13.228	1018.291	787.904
57.374	13.257	1017.214	787.141
58.388	13.291	1016.337	786.551
59.403	13.129	1015.313	784.921
60.417	13.191	1014.592	784.587
61.432	13.128	1014.097	783.838
62.447	13.191	1013.258	783.416
63.461	13.158	1012.452	782.569
64.476	13.125	1011.711	781.773
65.490	13.185	1010.521	781.064
66.505	13.102	1010.002	780.201
67.520	13.207	1009.018	779.869
68.534	13.200	1008.680	779.506
69.549	13.178	1007.608	778.505
70.563	13.215	1006.539	777.783
71.578	13.094	1006.327	776.984
72.593	13.109	1005.185	776.104
73.607	13.100	1004.366	775.359
74.622	13.070	1003.362	774.374
75.636	13.126	1002.213	773.680
76.651	12.984	1001.797	772.629
77.666	13.097	1000.821	772.334
78.680	13.151	1000.115	771.976
79.695	13.085	999.947	771.469
80.709	13.104	999.367	771.042
81.724	13.188	998.693	770.843
82.739	13.233	997.488	770.057
83.753	13.272	996.977	769.774
84.768	13.316	995.863	769.051
85.782	13.389	995.478	769.024
86.797	13.559	994.553	769.032
87.812	13.498	994.009	768.261
88.826	13.440	993.278	767.359
89.841	13.312	992.302	765.944
90.855	13.286	991.795	765.365
91.870	13.358	991.034	765.042
92.884	13.424	990.365	764.764
93.899	13.557	989.303	764.487
94.914	13.634	988.624	764.253
95.928	13.604	988.094	763.637
96.943	13.607	987.247	762.926
97.957	13.399	986.575	761.383
98.972	13.526	985.566	761.120
99.987	13.619	984.497	760.658
101.001	13.543	983.764	759.673
102.016	13.516	983.124	758.990
103.030	13.458	982.451	758.135
104.045	13.511	981.367	757.477
105.060	13.617	980.015	756.849
106.074	13.442	979.525	755.604
107.089	13.391	978.692	754.661
108.103	13.275	977.757	753.345
109.118	13.304	976.929	752.774
110.133	13.139	976.539	751.654
111.147	13.272	975.403	751.318
112.162	13.105	974.987	750.176
113.176	13.219	974.017	749.880
114.191	13.239	972.777	748.947
115.206	13.335	972.110	748.802
116.220	13.242	971.774	748.058
117.235	13.301	970.508	747.283
118.249	13.303	969.627	746.545
119.264	13.332	968.741	745.929
120.279	13.260	968.217	745.134
121.293	13.251	967.074	744.149
122.308	13.242	966.409	743.530
123.322	13.121	965.599	742.302
124.337	13.134	964.769	741.653
125.352	13.092	963.918	740.744
126.366	13.219	962.370	740.061
127.381	13.276	961.287	739.417
128.395	13.175	960.610	738.379
129.410	13.184	959.590	737.571
130.424	13.228	958.628	736.959
131.439	13.376	957.822	736.934
132.454	13.337	957.282	736.281
133.468	13.351	956.448	735.636
134.483	13.407	955.920	735.412
135.497	13.468	954.636	734.634
136.512	13.398	954.020	733.783
137.527	13.410	953.830	733.627
138.541	13.450	952.887	733.013
139.556	13.449	952.545	732.680
140.570	13.465	951.405	731.810
141.585	13.525	950.964	731.669
142.600	13.657	950.041	731.479
143.614	13.459	949.584	730.185
144.629	13.580	948.823	730.070
145.643	13.729	947.883	729.940
146.658	13.710	946.946	729.067
147.673	13.497	946.101	727.418
148.687	13.530	945.290	726.877
149.702	13.453	944.335	725.738
150.716	13.422	943.816	725.141
151.731	13.479	942.373	724.218
152.746	13.464	942.007	723.804
153.760	13.451	941.272	723.119
154.775	13.333	940.732	722.124
155.789	13.532	939.536	722.010
156.804	13.492	939.121	721.454
157.819	13.483	938.592	720.946
158.833	13.582	938.052	720.897
159.848	13.748	937.127	720.844
160.862	13.650	936.853	720.144
161.877	13.731	935.897	719.699
162.892	13.478	935.058	717.892
163.906	13.494	934.617	717.559
164.921	13.448	933.489	716.431
165.935	13.462	932.331	715.539
166.950	13.478	931.282	714.738
167.964	13.554	930.455	714.367
168.979	13.552	929.570	713.620
169.994	13.563	928.532	712.806
171.008	13.552	927.564	711.953
172.023	13.580	926.996	711.573
173.037	13.560	926.519	711.056
174.052	13.626	925.462	710.466
175.067	13.589	925.057	709.935
176.081	13.666	923.815	709.250
177.096	13.587	922.962	708.192
178.110	13.454	922.181	706.961
179.125	13.620	921.824	707.334
180.140	13.542	921.120	706.401
181.154	13.625	920.110	705.915
182.169	13.659	919.513	705.539
183.183	13.688	918.921	705.148
184.198	13.771	918.074	704.786
185.213	13.797	917.609	704.481
186.227	13.837	916.722	703.902
187.242	13.828	916.487	703.625
188.256	13.861	915.912	703.262
189.271	13.832	915.095	702.448
190.286	13.896	914.378	702.106
191.300	13.796	913.461	700.918
192.315	13.663	913.167	700.069
193.329	13.580	911.911	698.691
194.344	13.678	911.081	698.407
195.359	13.641	911.003	698.132
196.373	13.747	910.377	698.036
197.388	13.850	909.803	697.966
198.402	13.949	909.459	698.058
199.417	13.989	908.788	697.649
200.432	13.957	908.596	697.306
201.446	14.026	907.944	697.031
202.461	14.128	907.818	697.302
203.475	14.136	907.145	696.756
204.490	14.188	906.424	696.358
205.504	14.164	905.394	695.406
206.519	14.114	904.288	694.285
207.534	14.003	903.808	693.391
208.548	14.118	903.102	693.269
209.563	13.919	902.903	692.225
210.577	14.059	901.777	691.885
211.592	14.120	901.221	691.651
212.607	14.162	900.784	691.428
213.621	14.329	899.986	691.449
214.636	14.194	899.574	690.510
215.650	14.252	898.565	689.915
216.665	14.200	898.520	689.604
217.680	14.255	897.802	689.218
218.694	14.309	897.244	688.953
219.709	14.354	896.751	688.700
220.723	14.313	896.141	688.002
221.738	14.319	895.351	687.357
222.753	14.348	894.444	686.721
223.767	14.273	894.152	686.126
224.782	14.351	893.098	685.578
225.796	14.346	892.531	685.060
226.811	14.325	891.847	684.388
227.826	14.472	891.300	684.512
228.840	14.433	890.335	683.550
229.855	14.389	889.652	682.785
230.869	14.346	889.267	682.253
231.884	14.237	888.659	681.282
232.899	14.331	887.982	681.085
233.913	14.248	887.180	680.070
234.928	14.329	885.834	679.311
235.942	14.272	885.528	678.782
236.957	14.325	884.964	678.508
237.972	14.364	884.055	677.908
238.986	14.450	883.483	677.759
240.001	14.447	882.822	677.181
241.015	14.388	882.196	676.400
242.030	14.475	881.670	676.290
243.045	14.287	881.469	675.312
244.059	14.473	880.515	675.275
245.074	14.448	879.912	674.652
246.088	14.594	879.467	674.844
247.103	14.700	878.538	674.499
248.117	14.567	878.253	673.683
249.132	14.736	877.572	673.782
250.147	14.633	877.284	673.087
251.161	14.732	876.672	672.955
252.176	14.865	875.844	672.796
253.190	14.893	875.004	672.204
254.205	14.951	874.395	671.909
255.220	14.931	874.083	671.529
256.234	14.875	873.289	670.638
257.249	14.834	872.502	669.809
258.263	14.903	872.254	669.836
259.278	15.022	871.443	669.630
260.293	14.908	871.279	668.987
261.307	14.936	870.447	668.403
262.322	14.997	869.927	668.188
263.336	15.250	868.855	668.316
264.351	15.179	868.487	667.690
265.366	15.104	867.738	666.753
266.380	15.117	867.347	666.448
267.395	15.203	866.362	665.973
268.409	15.242	865.698	665.559
269.424	15.005	865.508	664.413
270.439	15.065	864.723	663.988
271.453	15.084	863.926	663.393
272.468	15.177	863.185	663.134
273.482	15.052	862.357	661.945
274.497	15.073	861.914	661.628
275.512	15.128	861.207	661.246
276.526	15.092	860.264	660.321
277.541	15.053	859.843	659.787
278.555	15.227	859.074	659.821
279.570	15.147	858.865	659.287
280.585	15.307	857.884	659.106
281.599	15.300	857.402	658.650
282.614	15.222	856.759	657.792
283.628	15.241	855.961	657.195
284.643	15.221	855.855	656.975
285.657	15.318	854.990	656.637
286.672	15.295	854.703	656.268
287.687	15.261	853.876	655.442
288.701	15.324	853.983	655.711
289.716	15.311	853.182	654.989
290.730	15.347	852.484	654.534
291.745	15.370	852.077	654.252
292.760	15.393	851.236	653.638
293.774	15.339	850.640	652.913
294.789	15.243	850.561	652.421
295.803	15.525	849.369	652.544
296.818	15.524	848.770	652.024
297.833	15.432	848.433	651.349
298.847	15.316	848.194	650.657
299.862	15.497	846.955	650.350
300.876	15.502	846.533	649.991
301.891	15.546	845.766	649.513
302.906	15.654	844.904	649.212
303.920	15.594	844.499	648.611
304.935	15.677	843.618	648.197
305.949	15.695	843.594	648.191
306.964	15.651	843.086	647.572
307.979	15.665	841.902	646.661
308.993	15.756	841.575	646.700
310.008	15.780	840.818	646.153
311.022	15.890	840.693	646.424
312.037	15.854	840.262	645.898
313.052	15.791	839.575	645.071
314.066	15.713	838.698	644.040
315.081	15.650	838.500	643.589
316.095	15.543	837.801	642.589
317.110	15.586	837.339	642.342
318.125	15.646	836.883	642.164
319.139	15.582	836.273	641.393
320.154	15.651	835.532	641.033
321.168	15.511	835.662	640.543
322.183	15.759	834.666	640.667
323.197	15.782	834.151	640.303
324.212	15.682	833.746	639.553
325.227	15.733	833.292	639.343
326.241	15.746	832.518	638.743
327.256	15.732	831.881	638.142
328.270	15.719	831.290	637.583
329.285	15.853	830.629	637.527
330.300	16.011	830.223	637.758
331.314	15.872	829.533	636.645
332.329	15.778	829.198	635.978
333.343	15.944	828.627	636.110
334.358	15.894	828.046	635.420
335.373	16.016	827.378	635.311
336.387	15.941	826.909	634.612
337.402	15.954	826.569	634.343
338.416	16.046	825.823	634.062
339.431	15.982	825.752	633.712
340.446	16.089	825.116	633.568
341.460	16.321	824.181	633.666
342.475	16.262	823.510	632.870
343.489	16.233	823.133	632.418
344.504	16.288	822.488	632.072
345.519	16.382	821.953	631.954
346.533	16.292	821.685	631.356
347.548	16.362	821.321	631.282
348.562	16.354	820.626	630.663
349.577	16.314	819.894	629.896
350.592	16.199	819.597	629.183
351.606	16.180	818.825	628.465
352.621	16.143	818.230	627.813
353.635	16.209	817.789	627.664
354.650	16.251	817.558	627.588
355.665	16.263	817.180	627.288
356.679	16.315	816.992	627.283
357.694	16.299	816.589	626.858
358.708	16.358	815.820	626.431
359.723	16.434	815.216	626.191
360.738	16.390	814.420	625.362
361.752	16.394	813.652	624.734
362.767	16.423	813.606	624.750
363.781	16.430	813.301	624.485
364.796	16.405	813.174	624.241
365.810	16.736	812.209	624.664
366.825	16.493	811.892	623.469
367.840	16.575	812.101	623.877
368.854	16.607	811.515	623.491
369.869	16.443	811.068	622.487
370.883	16.508	810.548	622.273
371.898	16.600	809.666	621.878
372.913	16.771	808.897	621.861
373.927	16.778	808.232	621.322
374.942	16.720	807.527	620.509
375.956	16.793	807.072	620.373
376.971	16.694	806.583	619.579
377.986	16.872	806.002	619.729
379.000	16.857	805.783	619.451
380.015	16.934	805.192	619.226
381.029	16.925	804.919	618.927
382.044	16.776	804.345	617.888
383.059	16.829	803.776	617.587
384.073	16.783	803.151	616.885
385.088	16.841	802.929	616.874
386.102	16.779	802.152	615.994
387.117	16.859	801.569	615.785
388.132	16.845	800.813	615.096
389.146	16.781	800.678	614.706
390.161	16.787	800.308	614.390
391.175	16.893	800.121	614.578
392.190	16.959	799.582	614.349
393.205	16.940	798.922	613.717
394.219	17.001	798.207	613.333
395.234	16.824	798.047	612.517
396.248	16.845	797.442	612.074
397.263	16.771	797.117	611.502
398.278	16.873	796.354	611.234
399.292	16.796	796.015	610.639
400.307	16.803	795.661	610.339
401.321	16.927	795.102	610.302
402.336	16.814	795.118	609.854
403.350	16.895	794.643	609.727
404.365	17.004	794.162	609.698
405.380	16.848	793.790	608.797
406.394	17.112	793.298	609.312
407.409	17.083	792.930	608.873
408.423	17.104	792.753	608.757
409.438	17.368	791.751	608.879
410.453	17.265	791.550	608.302
411.467	17.241	791.081	607.802
412.482	17.309	790.821	607.791
413.496	17.391	790.065	607.450
414.511	17.418	789.735	607.238
415.526	17.322	789.566	606.713
416.540	17.354	788.995	606.336
417.555	17.413	788.588	606.179
418.569	17.431	788.020	605.753
419.584	17.410	787.714	605.388
420.599	17.472	786.970	604.985
421.613	80.293	1241.456	1292.641
422.628	67.720	1307.702	1292.789
