DTS Sentinel unit serial number:	SN413079Multiplexer serial number:	ORYXHardware model number:	OX4-SRSoftware version number:	ORYX F/W v4.00 Oryx Data Collector v3.7.2.0data status	okinstallation	princeton_trtdifferential loss correction	single-endedforward channel	channel 3reverse channel	N/Adate	2019/09/19time	12:48:35forward acquisition time	60.00reverse acquisition time	0.00gamma	496.2192k internal	0.2331k external	0.2331temperature offset calibration	0.9990default loss term (dB/km)	0.3790temperature slope calibration	1.0000multiplexer offset coefficient	1.0000multiplexer slope coefficient	1.0000fibre end	0.00T internal ref (°C)	27.98T ext. ref 1 (°C)	0.90T ext. ref 2 (°C)	26.20length (m)	temperature (°C)	Stokes	anti-Stokes-747.200	309.272	-0.082	-0.153
-746.185	800.000	-0.076	0.248
-745.171	-134.618	0.228	0.028
-744.156	401.645	-0.063	0.134
-743.142	-200.000	-0.006	0.168
-742.127	-200.000	-0.043	0.244
-741.112	772.775	0.078	-0.215
-740.098	-37.122	0.171	-0.092
-739.083	504.666	-0.072	0.168
-738.069	34.663	-0.260	0.229
-737.054	-90.572	-0.307	-0.089
-736.039	-77.928	-0.216	0.075
-735.025	-3.959	0.105	0.073
-734.010	-141.498	-0.104	0.011
-732.996	800.000	0.013	-0.040
-731.981	8.954	-0.331	0.252
-730.966	65.319	-0.134	0.137
-729.952	675.080	-0.043	0.112
-728.937	-200.000	-0.005	0.304
-727.923	-3.534	-0.136	-0.095
-726.908	39.837	0.040	0.036
-725.894	-19.216	0.087	0.055
-724.879	106.223	-0.177	0.211
-723.864	-95.474	-0.436	0.118
-722.850	-200.000	0.033	-0.231
-721.835	-91.803	-0.300	0.086
-720.821	-200.000	-0.074	0.390
-719.806	-200.000	-0.029	0.192
-718.791	800.000	0.060	0.174
-717.777	-36.545	0.066	0.036
-716.762	515.817	-0.143	0.336
-715.748	-200.000	-0.007	-0.069
-714.733	800.000	-0.096	-0.325
-713.718	33.412	-0.078	-0.068
-712.704	509.040	-0.054	0.127
-711.689	58.020	-0.127	0.125
-710.675	-41.463	0.368	0.190
-709.660	308.865	-0.207	-0.389
-708.645	800.000	-0.099	0.317
-707.631	17.400	-0.186	-0.149
-706.616	16.093	0.272	-0.215
-705.602	-200.000	-0.002	0.198
-704.587	188.988	0.100	-0.150
-703.572	-68.247	0.217	-0.085
-702.558	-200.000	-0.032	0.237
-701.543	-94.263	-0.135	0.037
-700.529	-177.524	-0.402	0.010
-699.514	-200.000	-0.023	-0.168
-698.499	55.679	-0.102	-0.100
-697.485	-114.092	0.105	0.020
-696.470	-137.559	0.136	0.015
-695.456	593.765	0.035	0.086
-694.441	21.769	0.208	0.170
-693.426	-64.081	-0.161	-0.066
-692.412	800.000	0.012	0.042
-691.397	-200.000	0.020	0.148
-690.383	-55.358	-0.272	0.123
-689.368	130.492	-0.090	-0.115
-688.354	800.000	0.076	0.282
-687.339	-113.807	-0.362	0.071
-686.324	644.621	-0.121	-0.311
-685.310	-154.914	-0.264	0.017
-684.295	-108.234	-0.332	0.072
-683.281	207.185	0.106	-0.165
-682.266	140.524	0.141	-0.187
-681.251	296.362	-0.043	-0.078
-680.237	-200.000	-0.048	0.223
-679.222	-17.973	0.027	-0.017
-678.208	-200.000	0.045	-0.278
-677.193	430.899	-0.209	-0.454
-676.178	-41.654	-0.144	0.074
-675.164	-200.000	0.057	0.266
-674.149	800.000	0.058	-0.214
-673.135	800.000	-0.024	-0.099
-672.120	232.126	-0.028	-0.047
-671.105	622.162	0.094	-0.236
-670.091	39.188	0.107	0.096
-669.076	-27.593	-0.153	0.089
-668.062	-200.000	0.009	-0.247
-667.047	-139.496	-0.272	0.029
-666.032	-95.538	-0.314	0.084
-665.018	-200.000	0.048	0.290
-664.003	-200.000	0.004	-0.054
-662.989	-146.230	-0.104	0.009
-661.974	-55.953	0.230	0.103
-660.959	-0.205	-0.126	-0.090
-659.945	286.340	-0.183	0.332
-658.930	46.061	-0.055	0.051
-657.916	-41.496	0.228	0.118
-656.901	-127.293	-0.147	0.021
-655.886	321.801	-0.136	0.260
-654.872	87.061	0.273	0.302
-653.857	343.808	-0.097	-0.191
-652.843	-182.874	0.112	0.002
-651.828	800.000	-0.014	-0.049
-650.814	-200.000	0.031	0.168
-649.799	-200.000	0.030	-0.170
-648.784	210.643	-0.100	0.157
-647.770	-53.920	0.194	-0.089
-646.755	40.550	0.163	0.147
-645.741	-3.698	0.190	0.133
-644.726	284.756	-0.024	-0.044
-643.711	-71.470	-0.187	0.070
-642.697	-200.000	-0.041	0.238
-641.682	49.508	0.245	-0.231
-640.668	-129.091	-0.440	0.062
-639.653	800.000	0.113	-0.425
-638.638	-200.000	-0.012	0.229
-637.624	-92.424	0.346	0.097
-636.609	800.000	0.056	-0.199
-635.595	-200.000	-0.030	-0.265
-634.580	-155.728	0.093	-0.006
-633.565	552.048	0.051	0.122
-632.551	-0.795	-0.162	-0.115
-631.536	146.844	-0.163	-0.220
-630.522	-200.000	-0.004	-0.191
-629.507	-82.868	-0.318	0.103
-628.492	-9.587	-0.037	-0.025
-627.478	24.849	0.078	0.065
-626.463	-4.241	-0.264	0.183
-625.449	18.002	-0.292	0.233
-624.434	-49.851	0.057	0.027
-623.419	520.983	-0.021	-0.048
-622.405	-14.616	-0.162	-0.104
-621.390	-200.000	0.003	-0.046
-620.376	-55.358	-0.078	-0.035
-619.361	-200.000	-0.070	0.350
-618.346	185.236	-0.044	0.066
-617.332	49.884	-0.022	0.021
-616.317	-200.000	-0.045	-0.304
-615.303	405.397	-0.041	0.086
-614.288	-96.559	-0.149	-0.039
-613.273	-102.282	0.311	0.075
-612.259	-132.117	0.029	0.004
-611.244	-101.677	-0.102	0.025
-610.230	-19.785	0.121	-0.075
-609.215	318.179	-0.145	0.274
-608.201	8.923	-0.153	-0.116
-607.186	261.331	0.090	0.156
-606.171	800.000	-0.051	0.169
-605.157	-14.994	-0.374	0.240
-604.142	597.099	0.140	0.347
-603.128	-91.580	0.227	0.065
-602.113	800.000	0.039	0.153
-601.098	195.489	0.210	-0.320
-600.084	-200.000	-0.066	-0.329
-599.069	57.049	0.033	0.032
-598.055	-124.496	0.421	-0.065
-597.040	148.944	-0.083	0.112
-596.025	-111.048	-0.375	-0.077
-595.011	-200.000	0.034	-0.180
-593.996	-200.000	0.001	-0.077
-592.982	-179.881	0.066	0.001
-591.967	-3.412	0.125	0.087
-590.952	-18.973	0.231	0.144
-589.938	145.241	-0.139	-0.186
-588.923	-200.000	0.032	-0.238
-587.909	138.920	-0.186	-0.244
-586.894	354.663	-0.080	-0.158
-585.879	-53.209	0.306	-0.140
-584.865	-139.919	0.436	-0.046
-583.850	-200.000	-0.028	-0.170
-582.836	-70.583	-0.240	0.091
-581.821	37.192	-0.191	0.169
-580.806	122.196	-0.086	-0.107
-579.792	51.652	-0.200	0.190
-578.777	-118.227	0.175	0.031
-577.763	800.000	-0.007	-0.026
-576.748	-200.000	-0.029	0.221
-575.733	-200.000	0.079	0.403
-574.719	12.500	-0.236	0.182
-573.704	191.127	0.175	0.264
-572.690	-200.000	0.071	0.312
-571.675	-60.503	-0.023	0.010
-570.661	38.366	0.060	0.054
-569.646	21.969	-0.134	-0.109
-568.631	77.902	-0.097	0.103
-567.617	800.000	0.050	0.183
-566.602	-86.226	-0.115	0.036
-565.588	-200.000	0.046	-0.287
-564.573	-141.916	0.123	0.012
-563.558	-200.000	-0.020	0.225
-562.544	-200.000	0.049	0.267
-561.529	-31.768	-0.221	-0.124
-560.515	278.809	0.159	-0.283
-559.500	-200.000	-0.022	-0.266
-558.485	-103.288	0.180	-0.043
-557.471	-64.913	0.261	0.106
-556.456	-200.000	-0.004	-0.269
-555.442	800.000	-0.115	-0.412
-554.427	19.863	-0.167	-0.134
-553.412	-76.418	0.350	0.123
-552.398	-12.944	0.182	0.118
-551.383	601.821	0.100	-0.247
-550.369	207.758	0.121	0.189
-549.354	98.011	-0.060	0.069
-548.339	-61.420	0.122	-0.051
-547.325	-200.000	0.001	-0.029
-546.310	26.144	-0.160	0.133
-545.296	-200.000	-0.057	-0.281
-544.281	-200.000	-0.006	-0.056
-543.266	-200.000	-0.031	0.210
-542.252	-169.927	-0.189	-0.007
-541.237	128.045	-0.182	-0.231
-540.223	-19.710	-0.093	-0.057
-539.208	-154.440	0.298	-0.020
-538.193	-200.000	-0.018	-0.246
-537.179	717.226	-0.076	-0.202
-536.164	17.323	-0.132	0.104
-535.150	28.256	0.246	0.207
-534.135	-119.401	0.495	0.086
-533.121	-200.000	0.048	-0.253
-532.106	-92.847	-0.168	-0.047
-531.091	-166.527	-0.123	-0.005
-530.077	-200.000	-0.023	-0.127
-529.062	-140.771	-0.084	-0.009
-528.048	-22.497	0.208	0.126
-527.033	-28.259	-0.042	0.024
-526.018	-200.000	0.001	-0.236
-525.004	157.821	-0.065	0.090
-523.989	107.224	-0.165	-0.195
-522.975	161.558	0.121	-0.169
-521.960	121.626	-0.067	0.084
-520.945	-9.039	-0.168	0.112
-519.931	27.879	-0.054	-0.045
-518.916	584.826	-0.088	-0.215
-517.902	38.021	-0.401	-0.356
-516.887	-82.511	-0.234	-0.076
-515.872	95.501	-0.260	0.296
-514.858	91.041	0.126	0.141
-513.843	-181.522	-0.203	0.004
-512.829	-38.479	0.263	-0.139
-511.814	800.000	-0.100	-0.287
-510.799	196.578	-0.200	-0.303
-509.785	143.319	0.030	-0.039
-508.770	176.240	-0.162	0.234
-507.756	800.000	-0.035	-0.123
-506.741	-123.619	-0.182	-0.029
-505.726	-200.000	0.020	0.091
-504.712	-200.000	-0.031	-0.170
-503.697	-120.785	-0.109	-0.018
-502.683	33.028	-0.222	-0.192
-501.668	-31.284	-0.324	-0.182
-500.653	800.000	0.066	0.183
-499.639	34.643	0.111	0.097
-498.624	-200.000	0.002	0.143
-497.610	-163.844	0.450	0.021
-496.595	-87.355	0.286	0.086
-495.581	-114.813	-0.128	-0.024
-494.566	-136.788	0.212	0.024
-493.551	62.206	0.269	-0.268
-492.537	453.990	0.067	-0.149
-491.522	56.311	-0.286	0.277
-490.508	367.722	-0.143	-0.287
-489.493	-55.527	-0.328	-0.147
-488.478	-63.526	-0.112	0.046
-487.464	-26.308	-0.362	-0.211
-486.449	-42.483	0.431	0.219
-485.435	210.888	-0.147	-0.230
-484.420	-200.000	-0.023	-0.175
-483.405	-200.000	0.056	0.250
-482.391	142.543	-0.272	-0.360
-481.376	-200.000	-0.087	-0.402
-480.362	-200.000	-0.002	0.176
-479.347	-166.199	0.164	0.007
-478.332	800.000	-0.062	0.235
-477.318	58.244	0.134	0.130
-476.303	118.737	0.151	-0.185
-475.289	321.742	0.112	-0.212
-474.274	492.143	0.114	0.260
-473.259	101.047	-0.058	0.067
-472.245	-200.000	0.019	0.200
-471.230	-62.565	0.032	0.013
-470.216	-22.092	-0.242	-0.146
-469.201	-200.000	-0.022	-0.161
-468.186	-200.000	-0.003	-0.127
-467.172	-200.000	0.044	0.302
-466.157	800.000	-0.065	-0.180
-465.143	-61.543	-0.349	0.146
-464.128	-149.657	0.370	0.029
-463.113	800.000	0.056	-0.178
-462.099	-9.463	-0.265	0.176
-461.084	246.986	-0.045	0.076
-460.070	-200.000	-0.004	0.181
-459.055	-20.522	0.108	-0.066
-458.040	3.578	-0.219	-0.159
-457.026	101.743	-0.135	-0.156
-456.011	188.805	-0.154	-0.230
-454.997	48.317	0.025	0.023
-453.982	-73.228	0.064	0.023
-452.968	-45.520	-0.216	-0.107
-451.953	-74.874	-0.110	-0.039
-450.938	36.212	-0.182	0.159
-449.924	1.805	-0.157	0.112
-448.909	78.787	0.191	-0.203
-447.895	26.596	0.128	0.106
-446.880	800.000	0.025	0.073
-445.865	419.292	-0.063	0.134
-444.851	-9.274	-0.133	-0.088
-443.836	-200.000	0.020	-0.121
-442.822	-76.932	-0.079	0.028
-441.807	-57.843	0.200	0.087
-440.792	-136.126	0.155	0.018
-439.778	-24.968	-0.350	0.207
-438.763	-94.357	0.092	0.025
-437.749	217.715	-0.125	0.198
-436.734	800.000	-0.096	0.412
-435.719	321.291	-0.055	-0.105
-434.705	476.694	0.087	0.196
-433.690	800.000	0.108	0.363
-432.676	-112.285	-0.143	-0.029
-431.661	-46.374	-0.178	0.087
-430.646	-99.065	0.119	-0.030
-429.632	26.346	-0.292	-0.242
-428.617	59.819	0.273	-0.268
-427.603	-200.000	0.021	-0.092
-426.588	441.250	0.122	0.266
-425.573	264.962	0.170	0.295
-424.559	-106.941	0.233	0.051
-423.544	479.103	0.059	-0.134
-422.530	-72.459	-0.347	0.128
-421.515	13.667	-0.053	-0.041
-420.500	-130.515	-0.096	-0.013
-419.486	-66.209	0.201	0.080
-418.471	58.327	0.037	0.036
-417.457	26.631	-0.118	-0.098
-416.442	98.504	-0.035	0.040
-415.428	-157.015	-0.351	0.021
-414.413	800.000	-0.048	-0.131
-413.398	-58.420	0.296	0.128
-412.384	-79.624	0.160	0.053
-411.369	592.148	-0.037	0.090
-410.355	88.642	0.266	-0.293
-409.340	-68.822	-0.440	0.169
-408.325	-200.000	0.020	-0.347
-407.311	-152.393	-0.115	0.008
-406.296	67.238	0.332	-0.336
-405.282	-106.132	-0.116	-0.026
-404.267	-126.390	-0.043	-0.006
-403.252	4.652	0.240	0.175
-402.238	198.011	0.088	-0.134
-401.223	-20.765	0.103	-0.063
-400.209	598.119	-0.067	-0.164
-399.194	549.330	0.077	-0.182
-398.179	625.397	0.090	-0.225
-397.165	800.000	-0.040	0.165
-396.150	667.846	0.006	-0.016
-395.136	-0.048	-0.342	0.242
-394.121	-200.000	0.087	0.385
-393.106	-110.074	-0.123	-0.026
-392.092	-93.491	-0.167	-0.046
-391.077	800.000	0.074	0.279
-390.063	-59.029	-0.273	0.117
-389.048	-200.000	0.034	-0.270
-388.033	-200.000	-0.023	-0.146
-387.019	-200.000	-0.019	-0.187
-386.004	541.818	0.075	-0.178
-384.990	-81.723	0.182	0.059
-383.975	-43.758	-0.266	0.133
-382.960	-143.184	-0.245	0.023
-381.946	-14.927	0.223	0.142
-380.931	-74.985	-0.166	-0.059
-379.917	309.127	-0.107	-0.198
-378.902	-200.000	0.002	-0.098
-377.888	-127.847	0.173	-0.025
-376.873	28.696	-0.215	-0.181
-375.858	-111.013	0.256	0.052
-374.844	285.550	0.139	-0.248
-373.829	666.373	0.147	0.377
-372.815	-97.296	0.281	-0.073
-371.800	678.081	-0.085	0.218
-370.785	-52.923	-0.256	0.117
-369.771	-22.856	-0.240	0.144
-368.756	97.701	-0.221	-0.252
-367.742	-200.000	-0.023	-0.144
-366.727	-78.607	0.406	-0.138
-365.712	-81.520	0.100	-0.033
-364.698	-176.159	-0.083	0.002
-363.683	800.000	-0.091	0.282
-362.669	169.908	-0.112	-0.158
-361.654	-48.930	-0.068	0.032
-360.639	48.697	-0.140	-0.130
-359.625	182.710	0.060	-0.087
-358.610	-42.401	0.117	-0.059
-357.596	291.860	-0.119	0.216
-356.581	106.195	0.219	0.257
-355.566	-63.741	-0.267	0.108
-354.552	514.604	-0.034	0.079
-353.537	-200.000	-0.026	0.260
-352.523	-151.937	-0.241	0.017
-351.508	800.000	-0.099	0.282
-350.493	-200.000	-0.044	0.364
-349.479	-46.189	-0.216	-0.106
-348.464	-73.737	0.250	-0.090
-347.450	-139.895	-0.222	-0.023
-346.435	-109.486	-0.397	-0.083
-345.420	406.583	-0.166	-0.347
-344.406	598.787	-0.055	-0.135
-343.391	207.321	0.032	-0.050
-342.377	-91.721	-0.236	-0.067
-341.362	-112.027	0.385	0.077
-340.348	-40.668	0.220	-0.113
-339.333	154.452	0.132	0.179
-338.318	524.178	-0.092	0.215
-337.304	66.592	-0.072	-0.073
-336.289	800.000	-0.091	0.289
-335.275	152.119	0.096	-0.130
-334.260	-126.962	-0.146	0.021
-333.245	800.000	0.124	0.428
-332.231	800.000	-0.059	-0.224
-331.216	-200.000	-0.014	-0.141
-330.202	-200.000	0.039	0.173
-329.187	126.399	-0.128	-0.161
-328.172	-5.800	-0.079	-0.053
-327.158	800.000	0.065	-0.264
-326.143	-3.950	-0.061	0.042
-325.129	64.137	0.093	0.093
-324.114	-114.935	0.204	0.039
-323.099	61.049	0.242	0.238
-322.085	17.057	-0.228	-0.179
-321.070	-50.394	-0.480	-0.225
-320.056	-70.527	0.080	0.030
-319.041	-56.594	0.094	-0.041
-318.026	-142.811	0.321	0.031
-317.012	50.619	0.134	0.126
-315.997	88.832	-0.191	0.210
-314.983	378.351	0.107	0.217
-313.968	241.984	0.135	-0.223
-312.953	-200.000	0.038	0.365
-311.939	-26.615	-0.245	-0.142
-310.924	800.000	0.032	0.135
-309.910	-128.411	0.578	-0.081
-308.895	87.906	0.070	-0.076
-307.880	-200.000	0.043	-0.350
-306.866	-200.000	-0.014	0.158
-305.851	26.907	-0.315	-0.261
-304.837	184.295	0.122	0.179
-303.822	800.000	-0.094	0.363
-302.807	120.384	0.045	-0.055
-301.793	42.960	0.191	0.172
-300.778	90.412	-0.191	0.212
-299.764	2.180	-0.290	0.208
-298.749	-45.816	0.123	-0.060
-297.735	-65.151	-0.215	0.086
-296.720	-66.242	0.244	-0.096
-295.705	-39.467	0.087	0.045
-294.691	-179.312	0.247	-0.005
-293.676	59.857	0.101	0.099
-292.662	-93.705	0.185	0.050
-291.647	-72.011	0.250	-0.092
-290.632	-31.415	0.212	0.118
-289.618	-93.407	-0.312	-0.086
-288.603	-63.359	-0.291	-0.118
-287.589	-200.000	0.002	0.092
-286.574	18.567	0.119	-0.094
-285.559	-200.000	-0.072	0.331
-284.545	-193.505	-0.130	-0.001
-283.530	-85.275	0.180	-0.055
-282.516	23.469	0.187	-0.152
-281.501	-37.225	0.148	-0.078
-280.486	54.150	0.074	-0.070
-279.472	42.590	0.099	0.089
-278.457	-178.599	-0.231	-0.005
-277.443	131.529	0.024	-0.031
-276.428	-174.033	-0.156	-0.005
-275.413	-135.730	-0.085	-0.010
-274.399	255.288	-0.183	-0.309
-273.384	-56.808	0.125	-0.055
-272.370	-90.212	-0.235	-0.067
-271.355	-80.725	0.050	0.017
-270.340	-175.123	-0.349	-0.010
-269.326	38.235	0.291	0.256
-268.311	800.000	0.078	0.264
-267.297	-83.395	-0.121	-0.038
-266.282	-200.000	-0.044	0.202
-265.267	-56.720	0.174	-0.076
-264.253	321.865	-0.051	0.096
-263.238	-200.000	0.071	0.394
-262.224	-200.000	0.027	0.363
-261.209	11.390	0.377	-0.285
-260.195	800.000	-0.069	-0.244
-259.180	26.415	0.188	-0.155
-258.165	-34.063	0.353	-0.191
-257.151	-18.297	-0.068	-0.042
-256.136	-108.268	-0.190	-0.041
-255.122	-200.000	0.010	-0.206
-254.107	-200.000	-0.070	0.532
-253.092	-156.420	0.324	0.020
-252.078	549.052	0.044	0.104
-251.063	-200.000	0.071	0.373
-250.049	-103.641	0.439	0.102
-249.034	-66.078	-0.408	0.161
-248.019	-200.000	-0.008	-0.046
-247.005	59.111	-0.256	-0.248
-245.990	-125.447	-0.143	0.021
-244.976	800.000	0.006	-0.024
-243.961	697.459	-0.112	-0.290
-242.946	-200.000	-0.019	0.139
-241.932	-200.000	-0.024	-0.266
-240.917	-84.371	-0.146	-0.046
-239.903	-112.761	-0.371	-0.073
-238.888	-103.975	0.507	-0.117
-237.873	42.124	0.149	-0.133
-236.859	-200.000	0.001	0.216
-235.844	-112.077	0.363	0.072
-234.830	253.435	0.128	-0.216
-233.815	800.000	0.031	-0.112
-232.800	61.946	-0.137	-0.135
-231.786	-10.544	-0.323	-0.211
-230.771	-200.000	-0.012	0.172
-229.757	-142.444	-0.201	0.020
-228.742	-12.469	0.309	-0.199
-227.727	-90.207	0.081	-0.023
-226.713	338.852	0.071	-0.137
-225.698	85.811	-0.207	-0.224
-224.684	800.000	-0.076	-0.208
-223.669	103.804	-0.242	0.280
-222.655	-200.000	-0.018	0.103
-221.640	800.000	-0.027	-0.096
-220.625	-171.189	0.244	0.008
-219.611	-176.728	-0.428	-0.011
-218.596	-57.955	0.360	0.155
-217.582	-51.930	0.242	0.111
-216.567	800.000	0.045	0.179
-215.552	179.256	-0.125	0.181
-214.538	800.000	-0.045	-0.142
-213.523	196.978	0.232	0.349
-212.509	-58.921	-0.158	-0.067
-211.494	119.911	0.146	0.179
-210.479	-63.840	0.331	0.134
-209.465	121.477	-0.281	0.345
-208.450	-5.715	0.198	0.134
-207.436	800.000	-0.137	0.394
-206.421	50.760	0.112	-0.104
-205.406	55.894	-0.332	-0.317
-204.392	-200.000	0.017	0.328
-203.377	800.000	-0.070	0.193
-202.363	108.023	0.161	-0.190
-201.348	-200.000	-0.028	-0.144
-200.333	-2.376	0.408	0.282
-199.319	-54.392	0.159	-0.071
-198.304	-66.617	0.096	0.037
-197.290	92.001	-0.114	0.126
-196.275	-95.415	0.213	0.056
-195.260	-200.000	-0.052	-0.440
-194.246	563.999	0.060	0.142
-193.231	121.978	0.076	0.094
-192.217	-75.469	0.330	0.116
-191.202	-62.683	0.151	-0.061
-190.187	800.000	-0.039	0.117
-189.173	-94.802	0.135	0.036
-188.158	-29.430	0.197	-0.111
-187.144	800.000	0.061	0.238
-186.129	-101.621	0.144	0.034
-185.114	96.804	0.322	-0.363
-184.100	308.916	-0.148	-0.273
-183.085	-27.397	0.071	-0.041
-182.071	-104.732	0.097	0.022
-181.056	-48.569	0.496	-0.235
-180.042	-200.000	0.025	0.255
-179.027	81.855	0.078	-0.083
-178.012	-55.850	-0.191	-0.084
-176.998	151.407	-0.123	-0.165
-175.983	70.338	0.093	-0.094
-174.969	-200.000	0.026	0.206
-173.954	-96.948	-0.266	0.069
-172.939	23.920	0.321	0.261
-171.925	114.423	0.056	0.067
-170.910	-157.235	0.143	0.009
-169.896	-200.000	0.019	-0.224
-168.881	-33.851	0.335	-0.182
-167.866	-200.000	0.071	0.357
-166.852	800.000	0.049	-0.140
-165.837	75.970	-0.082	-0.085
-164.823	-200.000	0.072	0.377
-163.808	-200.000	0.073	0.372
-162.793	-5.807	-0.227	-0.153
-161.779	42.497	-0.269	-0.241
-160.764	386.818	-0.147	-0.299
-159.750	80.880	0.206	0.219
-158.735	388.189	0.112	-0.229
-157.720	118.082	0.125	-0.151
-156.706	65.177	0.135	0.135
-155.691	-55.324	-0.195	0.086
-154.677	358.389	0.084	-0.165
-153.662	-48.103	-0.101	0.048
-152.647	-80.202	-0.195	-0.064
-151.633	-200.000	0.014	-0.419
-150.618	-48.522	-0.149	-0.070
-149.604	-200.000	-0.046	-0.390
-148.589	-58.567	-0.124	0.053
-147.574	216.244	0.109	0.170
-146.560	32.901	-0.200	0.170
-145.545	671.756	-0.060	0.154
-144.531	800.000	-0.128	0.355
-143.516	-1.204	-0.143	0.099
-142.502	413.220	0.093	-0.194
-141.487	89.857	0.088	0.096
-140.472	-68.247	0.116	0.044
-139.458	92.485	0.019	0.021
-138.443	-165.503	-0.109	-0.005
-137.429	41.076	-0.146	0.129
-136.414	72.634	0.227	-0.233
-135.399	800.000	0.104	0.287
-134.385	-200.000	0.035	-0.265
-133.370	-97.532	0.133	0.034
-132.356	-200.000	0.003	-0.232
-131.341	800.000	0.081	-0.274
-130.326	800.000	0.086	0.271
-129.312	-200.000	0.013	0.168
-128.297	-200.000	-0.011	0.156
-127.283	284.993	0.063	0.112
-126.268	10.460	-0.238	-0.178
-125.253	79.514	0.300	0.316
-124.239	-43.623	-0.144	-0.071
-123.224	-11.456	-0.370	-0.239
-122.210	-76.168	0.523	0.181
-121.195	-200.000	0.008	-0.210
-120.180	90.699	-0.121	-0.133
-119.166	-200.000	-0.028	0.128
-118.151	170.755	0.119	-0.167
-117.137	2.597	0.023	0.017
-116.122	213.966	0.133	-0.207
-115.107	272.216	0.097	0.168
-114.093	-149.115	0.195	0.015
-113.078	-152.456	0.117	0.008
-112.064	35.169	0.113	0.097
-111.049	-34.506	0.093	0.050
-110.034	93.937	-0.215	-0.239
-109.020	50.701	0.114	-0.106
-108.005	-179.356	-0.181	-0.004
-106.991	800.000	-0.037	0.136
-105.976	143.684	-0.091	-0.120
-104.962	-200.000	-0.024	0.206
-103.947	800.000	0.035	0.099
-102.932	-111.838	-0.131	0.026
-101.918	-150.294	-0.307	0.023
-100.903	800.000	0.034	-0.095
-99.889	304.223	0.022	-0.040
-98.874	-200.000	0.011	0.376
-97.859	129.568	0.127	0.159
-96.845	-99.203	-0.267	-0.066
-95.830	800.000	0.082	0.227
-94.816	130.433	0.108	-0.136
-93.801	-44.759	-0.273	0.134
-92.786	-47.050	0.227	-0.109
-91.772	0.044	0.143	-0.100
-90.757	-7.481	0.312	0.207
-89.743	-200.000	0.035	0.168
-88.728	195.578	0.060	0.089
-87.713	7.540	-0.078	0.057
-86.699	95.660	-0.103	-0.115
-85.684	136.837	-0.247	-0.317
-84.670	60.228	-0.151	-0.147
-83.655	-200.000	-0.031	-0.291
-82.640	41.716	-0.235	-0.209
-81.626	-200.000	-0.425	-0.002
-80.611	-200.000	-0.095	0.000
-79.597	112.071	0.016	0.020
-78.582	260.606	0.031	-0.052
-77.567	-122.358	0.522	0.083
-76.553	-124.430	0.102	0.016
-75.538	535.410	0.143	-0.334
-74.524	152.765	0.248	0.332
-73.509	85.752	0.118	0.127
-72.494	-127.318	0.237	-0.034
-71.480	311.823	-0.098	-0.180
-70.465	118.208	-0.085	-0.103
-69.451	-200.000	0.015	-0.067
-68.436	-52.377	0.103	-0.046
-67.422	22.645	-0.196	-0.157
-66.407	167.275	0.067	-0.093
-65.392	319.869	0.066	0.123
-64.378	124.102	-0.120	0.148
-63.363	-198.751	0.096	0.001
-62.349	-200.000	0.036	0.275
-61.334	-15.277	-1.085	-0.680
-60.319	131.507	0.622	0.784
-59.305	800.000	-0.449	-1.265
-58.290	214.476	0.790	1.225
-57.276	702.032	0.585	1.508
-56.261	-200.000	109.656	588.704
-55.246	410.383	1534.529	3186.562
-54.232	138.829	2738.786	3524.292
-53.217	100.752	2224.241	2531.672
-52.203	38.374	1741.866	1519.898
-51.188	31.024	1555.583	1306.050
-50.173	28.737	1530.969	1269.544
-49.159	50.268	1588.262	1469.301
-48.144	49.847	1604.794	1481.567
-47.130	31.320	1559.682	1311.359
-46.115	28.331	1544.187	1277.474
-45.100	28.115	1540.734	1273.062
-44.086	28.038	1538.983	1271.029
-43.071	28.079	1536.775	1269.436
-42.057	28.000	1535.450	1267.748
-41.042	27.979	1534.147	1266.478
-40.027	27.955	1532.414	1264.829
-39.013	27.978	1530.944	1263.726
-37.998	28.005	1529.498	1262.670
-36.984	27.970	1528.238	1261.333
-35.969	27.980	1526.945	1260.285
-34.954	27.980	1525.329	1258.899
-33.940	27.940	1523.929	1257.421
-32.925	27.992	1522.588	1256.619
-31.911	28.018	1521.177	1255.586
-30.896	28.001	1519.633	1254.149
-29.881	27.976	1519.042	1253.435
-28.867	28.073	1516.902	1252.283
-27.852	28.084	1516.161	1251.703
-26.838	27.977	1514.367	1249.436
-25.823	27.958	1512.912	1248.055
-24.809	28.038	1511.250	1247.180
-23.794	28.006	1509.985	1245.869
-22.779	27.981	1509.243	1245.036
-21.765	27.967	1508.015	1243.885
-20.750	28.060	1507.246	1243.834
-19.736	28.052	1505.509	1242.296
-18.721	28.040	1504.811	1241.590
-17.706	27.975	1503.711	1240.191
-16.692	28.070	1502.263	1239.586
-15.677	28.030	1501.262	1238.446
-14.663	27.985	1500.169	1237.186
-13.648	27.912	1499.288	1235.919
-12.633	27.945	1498.393	1235.351
-11.619	28.005	1497.524	1234.991
-10.604	27.892	1496.737	1233.534
-9.590	27.892	1495.691	1232.623
-8.575	28.050	1494.213	1232.421
-7.560	27.966	1493.747	1231.422
-6.546	27.964	1492.602	1230.418
-5.531	27.941	1491.665	1229.438
-4.517	27.944	1490.868	1228.752
-3.502	27.934	1489.871	1227.818
-2.487	27.884	1489.077	1226.775
-1.473	27.938	1487.858	1226.086
-0.458	28.011	1486.709	1225.577
0.556	27.490	1477.101	1217.245
1.571	25.176	1452.791	1181.878
2.586	22.145	1390.367	1111.848
3.600	20.341	1303.377	1031.482
4.615	18.279	1256.625	982.572
5.629	15.260	1198.414	920.419
6.644	7.823	1112.346	816.211
7.659	1.885	1072.253	757.287
8.673	1.019	1066.970	749.207
9.688	0.867	1063.693	746.090
10.702	0.808	1062.218	744.703
11.717	0.907	1060.086	743.625
12.731	2.996	1062.005	755.181
13.746	9.838	1071.549	795.731
14.761	15.668	1078.790	829.898
15.775	17.272	1079.946	838.635
16.790	17.082	1078.868	836.787
17.804	16.090	1076.544	830.027
18.819	15.296	1074.405	824.406
19.834	14.762	1073.329	820.879
20.848	14.544	1071.825	818.591
21.863	14.205	1071.715	816.771
22.877	13.901	1071.035	814.688
23.892	13.616	1069.881	812.339
24.907	13.716	1068.311	811.566
25.921	13.689	1068.203	811.279
26.936	13.734	1067.267	810.718
27.950	13.704	1066.960	810.266
28.965	13.728	1066.130	809.681
29.980	13.770	1065.222	809.124
30.994	13.756	1064.551	808.477
32.009	13.885	1062.895	807.775
33.023	13.805	1062.983	807.381
34.038	13.875	1061.677	806.659
35.053	13.780	1060.911	805.541
36.067	13.827	1059.807	804.859
37.082	13.745	1059.442	804.113
38.096	13.850	1058.246	803.643
39.111	13.832	1057.710	803.078
40.126	13.809	1057.129	802.453
41.140	13.875	1055.566	801.514
42.155	13.801	1054.679	800.414
43.169	13.673	1053.975	799.191
44.184	13.659	1053.115	798.405
45.199	13.675	1051.791	797.404
46.213	13.702	1050.916	796.804
47.228	13.652	1050.247	795.983
48.242	13.666	1048.534	794.683
49.257	13.775	1047.595	794.424
50.271	13.828	1046.666	793.900
51.286	13.723	1045.751	792.633
52.301	13.788	1045.268	792.508
53.315	13.755	1044.221	791.489
54.330	13.814	1043.378	791.062
55.344	13.845	1041.771	789.920
56.359	13.730	1041.282	788.931
57.374	13.727	1040.770	788.460
58.388	13.590	1040.190	787.298
59.403	13.695	1039.068	786.879
60.417	13.664	1038.389	786.147
61.432	13.683	1037.559	785.541
62.447	13.654	1036.693	784.676
63.461	13.664	1035.829	784.000
64.476	13.578	1034.799	782.747
65.490	13.565	1034.259	782.205
66.505	13.645	1033.768	782.142
67.520	13.572	1033.356	781.418
68.534	13.611	1032.129	780.604
69.549	13.614	1031.575	780.133
70.563	13.708	1030.079	779.375
71.578	13.655	1029.912	778.930
72.593	13.670	1029.060	778.287
73.607	13.545	1028.223	777.000
74.622	13.547	1027.191	776.157
75.636	13.616	1026.008	775.517
76.651	13.640	1025.301	775.027
77.666	13.634	1024.508	774.334
78.680	13.658	1023.565	773.663
79.695	13.560	1023.660	773.210
80.709	13.673	1022.563	772.838
81.724	13.582	1022.227	772.090
82.739	13.618	1021.033	771.288
83.753	13.654	1020.291	770.829
84.768	13.685	1019.620	770.399
85.782	13.854	1018.687	770.408
86.797	13.831	1017.421	769.274
87.812	13.779	1017.250	768.836
88.826	13.838	1016.232	768.273
89.841	13.585	1015.802	766.708
90.855	13.794	1014.580	766.686
91.870	13.839	1013.704	766.166
92.884	13.861	1012.918	765.601
93.899	13.847	1012.333	765.028
94.914	13.865	1011.500	764.415
95.928	13.940	1010.892	764.234
96.943	13.764	1010.533	763.082
97.957	13.812	1009.596	762.529
98.972	13.894	1008.719	762.176
99.987	13.828	1007.757	761.077
101.001	13.877	1007.277	760.875
102.016	13.942	1006.376	760.422
103.030	13.775	1005.556	758.974
104.045	13.884	1004.329	758.478
105.060	13.912	1003.080	757.594
106.074	13.957	1001.982	756.902
107.089	13.866	1001.051	755.718
108.103	13.790	1000.574	754.945
109.118	13.711	999.680	753.845
110.133	13.733	998.893	753.286
111.147	13.775	997.734	752.534
112.162	13.731	997.035	751.744
113.176	13.729	996.297	751.108
114.191	13.750	995.202	750.312
115.206	13.805	994.483	749.956
116.220	13.831	993.547	749.296
117.235	13.720	992.595	748.014
118.249	13.839	991.799	747.886
119.264	13.730	991.090	746.790
120.279	13.742	990.080	746.017
121.293	13.736	989.215	745.276
122.308	13.780	988.292	744.712
123.322	13.650	988.020	743.857
124.337	13.722	986.890	743.264
125.352	13.726	985.377	742.076
126.366	13.760	984.524	741.521
127.381	13.623	983.324	739.940
128.395	13.808	981.747	739.510
129.410	13.794	980.994	738.816
130.424	13.716	980.190	737.800
131.439	13.760	979.695	737.557
132.454	13.741	978.417	736.445
133.468	13.839	977.541	736.154
134.483	13.732	977.674	735.716
135.497	13.811	976.339	734.995
136.512	13.788	975.482	734.184
137.527	13.738	975.161	733.656
138.541	13.742	974.351	733.000
139.556	13.729	973.309	732.093
140.570	13.803	972.494	731.741
141.585	13.769	972.119	731.244
142.600	13.850	971.156	730.811
143.614	13.844	970.208	730.006
144.629	14.014	969.360	730.050
145.643	13.929	968.855	729.232
146.658	13.851	967.877	728.092
147.673	13.945	966.691	727.545
148.687	13.950	965.606	726.685
149.702	13.860	965.422	726.090
150.716	13.758	964.576	724.943
151.731	13.909	963.649	724.840
152.746	13.906	962.847	724.162
153.760	13.812	962.385	723.341
154.775	13.940	961.002	722.795
155.789	13.970	960.547	722.516
156.804	14.043	959.920	722.302
157.819	14.073	959.057	721.719
158.833	13.979	958.084	720.513
159.848	14.063	957.591	720.442
160.862	14.081	957.206	720.167
161.877	14.131	956.440	719.744
162.892	14.004	955.504	718.425
163.906	14.069	954.397	717.810
164.921	13.936	953.781	716.711
165.935	13.938	953.062	716.114
166.950	13.955	951.659	715.070
167.964	13.963	950.931	714.494
168.979	14.131	949.691	714.221
169.994	14.098	948.750	713.308
171.008	13.981	948.418	712.496
172.023	14.084	947.533	712.207
173.037	14.173	946.698	711.897
174.052	14.085	945.729	710.730
175.067	14.188	944.846	710.443
176.081	14.086	944.174	709.442
177.096	14.180	943.153	709.010
178.110	13.980	942.979	707.966
179.125	14.154	941.889	707.824
180.140	14.012	941.134	706.591
181.154	14.091	940.457	706.358
182.169	14.171	939.610	705.997
183.183	14.225	938.941	705.661
184.198	14.335	938.419	705.673
185.213	14.223	938.023	704.840
186.227	14.149	937.278	703.901
187.242	14.224	936.473	703.554
188.256	14.304	936.041	703.506
189.271	14.452	934.455	702.874
190.286	14.326	934.229	702.112
191.300	14.339	933.399	701.482
192.315	14.211	933.063	700.627
193.329	14.279	932.117	700.140
194.344	14.179	931.438	699.150
195.359	14.232	930.947	698.938
196.373	14.241	930.381	698.492
197.388	14.424	929.538	698.564
198.402	14.533	929.162	698.676
199.417	14.451	928.484	697.762
200.432	14.410	928.194	697.309
201.446	14.589	927.383	697.386
202.461	14.323	927.764	696.499
203.475	14.531	927.181	696.868
204.490	14.546	926.105	696.060
205.504	14.472	925.363	695.134
206.519	14.603	924.720	695.133
207.534	14.485	923.882	693.952
208.548	14.415	923.356	693.205
209.563	14.600	922.217	693.058
210.577	14.512	921.441	692.046
211.592	14.626	920.707	691.907
212.607	14.626	920.448	691.649
213.621	14.642	919.707	691.098
214.636	14.570	919.301	690.433
215.650	14.698	918.327	690.174
216.665	14.653	917.832	689.554
217.680	14.687	917.527	689.404
218.694	14.696	916.928	688.928
219.709	15.018	915.998	689.495
220.723	14.828	915.687	688.417
221.738	14.842	914.391	687.443
222.753	14.713	913.812	686.413
223.767	14.826	913.028	686.231
224.782	14.753	912.239	685.275
225.796	14.769	911.817	684.964
226.811	14.848	911.506	684.993
227.826	14.843	910.606	684.234
228.840	14.930	909.709	683.856
229.855	14.832	909.454	683.203
230.869	14.880	908.624	682.716
231.884	14.917	907.611	682.045
232.899	14.794	907.495	681.395
233.913	14.793	906.251	680.400
234.928	14.856	905.568	680.083
235.942	14.803	905.066	679.427
236.957	14.808	904.087	678.653
237.972	14.818	903.432	678.143
238.986	14.870	903.198	678.118
240.001	14.978	902.088	677.663
241.015	14.859	901.499	676.677
242.030	14.944	900.778	676.419
243.045	14.910	900.258	675.831
244.059	15.036	899.144	675.447
245.074	15.060	899.090	675.443
246.088	15.027	898.541	674.837
247.103	15.060	897.467	674.105
248.117	15.126	896.971	673.939
249.132	15.115	896.484	673.466
250.147	15.143	895.805	673.008
251.161	15.178	894.923	672.429
252.176	15.146	894.440	671.877
253.190	15.374	893.698	672.173
254.205	15.310	893.530	671.733
255.220	15.371	892.958	671.486
256.234	15.362	892.129	670.767
257.249	15.371	891.398	670.195
258.263	15.459	890.866	670.087
259.278	15.351	890.423	669.263
260.293	15.401	889.645	668.818
261.307	15.335	889.154	668.128
262.322	15.506	888.437	668.209
263.336	15.499	888.093	667.863
264.351	15.578	887.368	667.576
265.366	15.594	886.647	667.036
266.380	15.532	886.140	666.350
267.395	15.510	885.464	665.696
268.409	15.646	884.438	665.402
269.424	15.429	884.213	664.317
270.439	15.536	882.988	663.762
271.453	15.564	882.204	663.223
272.468	15.573	881.696	662.818
273.482	15.618	880.743	662.220
274.497	15.680	880.294	662.066
275.512	15.773	879.392	661.696
276.526	15.636	878.804	660.659
277.541	15.612	878.592	660.345
278.555	15.662	877.995	660.036
279.570	15.709	877.079	659.473
280.585	15.687	876.969	659.247
281.599	15.869	875.968	659.147
282.614	15.841	875.184	658.387
283.628	15.846	874.491	657.828
284.643	15.815	874.203	657.433
285.657	15.677	874.129	656.781
286.672	15.778	873.401	656.569
287.687	15.792	873.013	656.272
288.701	15.828	872.301	655.822
289.716	15.795	871.344	654.916
290.730	15.885	871.085	655.013
291.745	16.011	870.150	654.742
292.760	15.904	869.795	654.002
293.774	15.917	868.971	653.375
294.789	15.901	868.811	653.134
295.803	16.107	867.795	653.111
296.818	15.856	867.772	652.063
297.833	15.877	866.740	651.310
298.847	15.975	865.918	651.013
299.862	15.965	865.463	650.573
300.876	16.016	864.532	650.014
301.891	16.093	863.394	649.400
302.906	16.000	863.259	648.882
303.920	16.012	862.676	648.430
304.935	16.209	861.925	648.567
305.949	16.136	861.438	647.864
306.964	16.281	860.489	647.647
307.979	16.239	859.830	646.934
308.993	16.281	859.319	646.653
310.008	16.225	859.160	646.260
311.022	16.167	858.642	645.593
312.037	16.272	857.913	645.390
313.052	16.111	857.959	644.751
314.066	16.393	856.537	644.703
315.081	16.325	856.286	644.198
316.095	16.191	856.043	643.447
317.110	16.186	854.975	642.568
318.125	16.238	854.698	642.500
319.139	16.087	854.411	641.653
320.154	16.210	853.672	641.509
321.168	16.285	853.004	641.235
322.183	16.309	852.378	640.798
323.197	16.462	851.349	640.548
324.212	16.261	851.415	639.780
325.227	16.311	850.613	639.310
326.241	16.518	849.832	639.449
327.256	16.377	849.544	638.643
328.270	16.268	849.076	637.823
329.285	16.534	848.271	638.163
330.300	16.422	847.616	637.192
331.314	16.301	847.625	636.687
332.329	16.344	846.689	636.091
333.343	16.473	845.764	635.823
334.358	16.477	845.199	635.358
335.373	16.584	844.787	635.393
336.387	16.561	844.175	634.791
337.402	16.591	843.527	634.358
338.416	16.454	843.315	633.630
339.431	16.563	842.793	633.590
340.446	16.471	842.115	632.681
341.460	16.652	841.437	632.791
342.475	16.559	840.816	631.921
343.489	16.626	840.163	631.624
344.504	16.822	839.858	632.073
345.519	16.862	839.021	631.534
346.533	16.747	839.033	631.059
347.548	16.809	838.241	630.639
348.562	16.846	837.581	630.225
349.577	16.838	837.168	629.828
350.592	16.795	836.479	629.094
351.606	16.775	836.284	628.816
352.621	16.715	835.953	628.292
353.635	16.711	835.497	627.878
354.650	16.909	834.821	628.048
355.665	16.804	834.417	627.299
356.679	16.773	834.166	626.939
357.694	16.804	833.582	626.560
358.708	16.880	833.072	626.401
359.723	16.981	831.976	625.893
360.738	16.920	831.544	625.291
361.752	16.999	831.073	625.172
362.767	16.941	830.987	624.837
363.781	17.062	830.319	624.725
364.796	16.820	830.485	623.904
365.810	17.026	829.602	623.943
366.825	17.085	829.161	623.773
367.840	17.199	828.708	623.798
368.854	17.027	828.524	622.971
369.869	17.203	827.693	622.938
370.883	17.121	827.070	622.111
371.898	17.298	826.630	622.375
372.913	17.250	826.186	621.811
373.927	17.125	825.462	620.752
374.942	17.164	824.877	620.400
375.956	17.113	824.422	619.817
376.971	17.378	823.612	620.119
377.986	17.377	822.813	619.459
379.000	17.427	822.477	619.331
380.015	17.406	821.995	618.839
381.029	17.408	821.464	618.393
382.044	17.315	821.183	617.786
383.059	17.311	820.360	617.098
384.073	17.594	819.857	617.693
385.088	17.408	819.344	616.578
386.102	17.325	818.932	615.913
387.117	17.301	818.511	615.452
388.132	17.277	818.118	615.017
389.146	17.345	817.444	614.700
390.161	17.407	817.411	614.848
391.175	17.585	816.624	614.843
392.190	17.480	816.402	614.241
393.205	17.533	815.936	614.029
394.219	17.517	815.560	613.634
395.234	17.497	814.981	613.071
396.248	17.579	814.551	612.988
397.263	17.463	814.035	612.130
398.278	17.489	813.428	611.712
399.292	17.359	813.295	611.090
400.307	17.295	812.916	610.521
401.321	17.494	812.143	610.601
402.336	17.620	811.831	610.765
403.350	17.663	811.228	610.411
404.365	17.516	810.948	609.619
405.380	17.668	810.217	609.559
406.394	17.651	810.260	609.479
407.409	17.743	809.673	609.312
408.423	17.727	809.338	608.946
409.438	17.905	808.552	608.938
410.453	17.745	808.353	608.162
411.467	17.816	807.980	608.082
412.482	17.727	807.260	607.168
413.496	17.712	806.586	606.554
414.511	17.922	806.271	607.009
415.526	17.863	806.047	606.579
416.540	17.801	805.563	605.942
417.555	17.910	805.304	606.079
418.569	17.891	804.936	605.682
419.584	17.837	804.255	604.924
420.599	18.094	803.447	605.173
421.613	111.973	1294.191	1476.573
422.628	96.592	1365.667	1476.675
