DTS Sentinel unit serial number:	SN413079Multiplexer serial number:	ORYXHardware model number:	OX4-SRSoftware version number:	ORYX F/W v4.00 Oryx Data Collector v3.7.2.0data status	okinstallation	princeton_trtdifferential loss correction	single-endedforward channel	channel 3reverse channel	N/Adate	2019/09/16time	03:04:35forward acquisition time	60.00reverse acquisition time	0.00gamma	496.2192k internal	0.2334k external	0.2334temperature offset calibration	0.9953default loss term (dB/km)	0.3790temperature slope calibration	1.0000multiplexer offset coefficient	1.0000multiplexer slope coefficient	1.0000fibre end	0.00T internal ref (°C)	27.75T ext. ref 1 (°C)	10.44T ext. ref 2 (°C)	22.14length (m)	temperature (°C)	Stokes	anti-Stokes-747.200	16.369	0.395	0.314
-746.185	800.000	-0.150	0.548
-745.171	-117.058	-0.200	0.037
-744.156	-97.680	-0.457	-0.119
-743.142	-25.120	0.068	0.041
-742.127	265.938	-0.134	0.235
-741.112	52.152	0.264	-0.253
-740.098	800.000	0.103	0.315
-739.083	800.000	0.071	0.238
-738.069	-171.459	0.233	0.008
-737.054	-39.102	0.388	-0.205
-736.039	375.666	-0.081	-0.166
-735.025	-12.846	0.246	0.161
-734.010	-49.461	-0.195	-0.093
-732.996	800.000	-0.098	-0.396
-731.981	59.452	-0.318	-0.315
-730.966	523.290	-0.126	-0.297
-729.952	-72.422	-0.324	-0.120
-728.937	-50.201	-0.108	-0.051
-727.923	65.980	0.014	-0.015
-726.908	800.000	0.062	-0.189
-725.894	-89.167	0.293	-0.087
-724.879	-200.000	-0.037	-0.280
-723.864	78.930	0.221	-0.238
-722.850	3.013	-0.185	-0.135
-721.835	800.000	0.036	0.139
-720.821	-184.147	-0.494	-0.008
-719.806	74.417	-0.065	0.068
-718.791	12.882	-0.281	0.218
-717.777	-88.197	-0.194	-0.058
-716.762	-45.301	0.343	-0.171
-715.748	800.000	-0.103	-0.307
-714.733	10.289	-0.306	-0.234
-713.718	83.998	-0.225	0.247
-712.704	-66.719	0.168	0.067
-711.689	800.000	-0.032	-0.107
-710.675	-200.000	0.047	-0.441
-709.660	242.437	0.239	-0.402
-708.645	13.144	0.174	0.135
-707.631	502.898	-0.042	0.097
-706.616	46.483	-0.152	0.141
-705.602	21.054	-0.040	0.032
-704.587	93.124	0.134	-0.152
-703.572	-200.000	-0.068	-0.404
-702.558	74.945	0.126	-0.133
-701.543	72.600	0.129	0.135
-700.529	-10.541	0.279	-0.185
-699.514	40.642	-0.174	0.157
-698.499	-200.000	-0.001	0.228
-697.485	-45.065	0.151	-0.075
-696.470	5.284	-0.286	-0.212
-695.456	-200.000	0.006	0.660
-694.441	1.751	-0.178	-0.129
-693.426	165.799	-0.134	-0.191
-692.412	-85.821	-0.193	0.060
-691.397	-200.000	-0.003	0.197
-690.383	197.245	0.103	0.158
-689.368	-26.548	-0.071	0.042
-688.354	-46.403	0.082	-0.041
-687.339	550.975	0.144	-0.346
-686.324	467.950	0.041	-0.093
-685.310	-95.703	0.334	-0.089
-684.295	-139.201	-0.343	-0.037
-683.281	-56.418	-0.089	0.039
-682.266	-37.608	0.247	0.132
-681.251	-200.000	0.004	0.054
-680.237	800.000	0.036	-0.132
-679.222	-200.000	-0.088	-0.414
-678.208	303.670	0.100	0.185
-677.193	313.160	0.050	-0.094
-676.178	610.298	0.122	0.305
-675.164	90.425	-0.158	-0.178
-674.149	-104.449	-0.385	-0.089
-673.135	-22.703	-0.307	0.186
-672.120	-69.213	-0.166	-0.064
-671.105	-11.301	0.153	0.101
-670.091	-200.000	-0.009	-0.042
-669.076	-200.000	0.020	-0.117
-668.062	-106.609	0.197	-0.044
-667.047	173.490	0.071	-0.103
-666.032	239.517	0.199	-0.331
-665.018	-200.000	-0.004	-0.391
-664.003	-200.000	-0.015	-0.235
-662.989	38.709	-0.174	-0.156
-661.974	800.000	-0.009	-0.029
-660.959	-5.653	0.130	-0.090
-659.945	800.000	0.075	0.208
-658.930	-152.760	-0.212	0.015
-657.916	664.913	0.053	-0.138
-656.901	-200.000	0.037	0.205
-655.886	-42.578	0.094	0.048
-654.872	242.697	-0.172	-0.288
-653.857	-116.269	0.332	0.062
-652.843	800.000	-0.085	-0.275
-651.828	-76.870	0.203	0.071
-650.814	262.716	0.090	0.157
-649.799	-200.000	-0.087	-0.490
-648.784	800.000	-0.125	0.348
-647.770	800.000	0.041	0.137
-646.755	800.000	-0.074	0.317
-645.741	41.211	-0.154	-0.139
-644.726	-88.756	-0.449	0.134
-643.711	-200.000	0.088	0.389
-642.697	-50.157	-0.155	0.074
-641.682	-43.597	0.246	0.124
-640.668	-97.624	-0.119	-0.031
-639.653	-81.407	0.176	-0.058
-638.638	-82.751	-0.176	0.057
-637.624	-106.255	-0.125	0.028
-636.609	-51.781	-0.260	0.121
-635.595	-176.441	-0.450	-0.012
-634.580	32.723	0.043	0.038
-633.565	-200.000	-0.053	-0.572
-632.551	516.141	-0.060	-0.139
-631.536	-200.000	-0.070	0.470
-630.522	207.717	0.074	-0.115
-629.507	-72.344	0.096	-0.036
-628.492	-200.000	0.017	0.318
-627.478	-15.302	-0.254	0.163
-626.463	50.787	-0.124	0.118
-625.449	132.628	-0.197	0.254
-624.434	21.360	-0.198	0.161
-623.419	164.897	0.023	-0.033
-622.405	-200.000	0.003	0.024
-621.390	-90.235	-0.322	0.094
-620.376	5.694	0.189	0.140
-619.361	-200.000	0.033	0.218
-618.346	-97.286	0.159	-0.042
-617.332	257.862	0.321	0.553
-616.317	800.000	0.034	0.139
-615.303	-200.000	-0.026	0.225
-614.288	-143.187	0.303	0.029
-613.273	400.404	0.075	0.157
-612.259	-149.520	-0.320	0.025
-611.244	599.550	-0.070	-0.173
-610.230	71.965	-0.133	-0.139
-609.215	-88.770	0.212	0.063
-608.201	487.366	0.066	0.152
-607.186	62.550	-0.238	-0.238
-606.171	-200.000	-0.031	0.272
-605.157	9.724	-0.347	0.263
-604.142	-135.402	0.379	0.045
-603.128	-200.000	-0.011	-0.292
-602.113	-125.989	0.448	-0.067
-601.098	160.662	0.114	-0.159
-600.084	430.914	-0.080	-0.174
-599.069	-74.023	0.186	0.067
-598.055	263.809	-0.037	-0.065
-597.040	-57.785	-0.051	-0.022
-596.025	167.665	-0.101	-0.144
-595.011	98.033	0.280	0.322
-593.996	-155.039	-0.040	0.003
-592.982	785.101	0.124	-0.341
-591.967	-170.747	-0.157	0.005
-590.952	113.102	-0.031	-0.038
-589.938	-94.177	0.502	-0.137
-588.923	-55.214	-0.216	0.097
-587.909	-66.388	0.280	-0.111
-586.894	-200.000	-0.033	-0.276
-585.879	259.305	-0.247	0.426
-584.865	86.444	-0.167	0.183
-583.850	129.124	-0.162	0.206
-582.836	-200.000	0.031	-0.431
-581.821	-86.684	0.250	0.077
-580.806	16.046	-0.184	0.145
-579.792	-117.821	-0.255	0.046
-578.777	39.103	0.055	-0.049
-577.763	55.136	0.074	0.071
-576.748	-50.367	0.200	-0.095
-575.733	-200.000	0.030	0.245
-574.719	101.529	0.195	-0.227
-573.704	-61.179	-0.338	0.142
-572.690	30.870	0.145	0.124
-571.675	-114.271	-0.370	-0.071
-570.661	-200.000	0.000	-0.140
-569.646	337.295	-0.078	-0.151
-568.631	800.000	-0.050	-0.170
-567.617	-200.000	-0.073	0.360
-566.602	633.949	-0.157	0.396
-565.588	-200.000	-0.002	-0.013
-564.573	-130.619	-0.236	0.032
-563.558	-130.186	0.152	0.021
-562.544	-87.569	-0.317	-0.096
-561.529	-200.000	-0.028	-0.122
-560.515	-61.492	0.224	-0.094
-559.500	-98.101	-0.160	0.041
-558.485	-200.000	0.007	0.124
-557.471	139.962	0.040	0.052
-556.456	791.534	-0.118	-0.324
-555.442	-134.037	0.413	0.051
-554.427	-200.000	-0.011	-0.156
-553.412	38.186	-0.231	-0.205
-552.398	718.339	-0.044	-0.116
-551.383	-200.000	0.001	-0.339
-550.369	800.000	0.060	0.193
-549.354	-65.048	-0.267	0.108
-548.339	16.369	-0.263	-0.207
-547.325	-200.000	0.008	-0.250
-546.310	-87.595	0.218	-0.066
-545.296	-29.259	0.400	-0.228
-544.281	350.751	-0.045	-0.089
-543.266	4.149	0.134	-0.098
-542.252	-163.552	0.247	-0.012
-541.237	512.832	0.056	-0.130
-540.223	264.375	0.226	-0.393
-539.208	-200.000	0.005	-0.265
-538.193	186.344	0.122	-0.181
-537.179	-2.552	-0.115	-0.080
-536.164	-200.000	0.003	-0.084
-535.150	98.058	-0.232	-0.266
-534.135	60.039	0.359	-0.354
-533.121	-163.493	0.428	0.020
-532.106	-90.980	-0.063	-0.018
-531.091	-59.160	-0.178	-0.076
-530.077	299.804	-0.016	-0.029
-529.062	-110.525	0.239	-0.049
-528.048	-2.241	-0.110	-0.077
-527.033	-88.271	0.141	-0.042
-526.018	800.000	-0.087	-0.282
-525.004	-33.161	0.110	0.061
-523.989	25.803	0.297	-0.246
-522.975	9.426	-0.203	-0.153
-521.960	581.752	0.033	0.080
-520.945	-49.961	-0.053	0.025
-519.931	620.028	-0.054	0.135
-518.916	-62.077	0.314	-0.131
-517.902	207.126	-0.006	-0.009
-516.887	-0.625	-0.258	0.182
-515.872	133.546	-0.156	0.201
-514.858	161.701	-0.073	-0.102
-513.843	157.281	0.111	-0.153
-512.829	-200.000	0.017	0.188
-511.814	19.753	0.085	-0.068
-510.799	-200.000	-0.045	-0.257
-509.785	38.797	-0.252	0.224
-508.770	-130.097	0.411	0.056
-507.756	799.602	0.099	-0.272
-506.741	84.707	0.193	0.210
-505.726	393.513	0.175	0.364
-504.712	-81.175	0.383	-0.126
-503.697	-155.579	0.173	-0.011
-502.683	-76.035	0.257	0.090
-501.668	-77.668	-0.025	0.009
-500.653	-150.269	-0.385	-0.030
-499.639	-200.000	-0.045	-0.416
-498.624	-112.857	-0.170	0.033
-497.610	-200.000	0.006	0.344
-496.595	-200.000	-0.004	0.055
-495.581	248.649	0.023	0.040
-494.566	537.885	-0.127	0.302
-493.551	592.494	0.215	-0.529
-492.537	526.007	0.082	-0.191
-491.522	-28.650	0.232	-0.133
-490.508	-120.243	-0.194	0.033
-489.493	59.638	-0.223	0.219
-488.478	-200.000	0.066	-0.551
-487.464	30.020	-0.101	-0.086
-486.449	-94.500	0.071	-0.019
-485.435	-23.229	-0.305	-0.182
-484.420	-119.407	-0.396	0.068
-483.405	189.350	-0.064	0.095
-482.391	-200.000	0.008	-0.067
-481.376	352.920	0.077	-0.152
-480.362	79.700	0.224	-0.239
-479.347	-45.449	-0.291	-0.144
-478.332	201.811	-0.109	0.167
-477.318	63.676	0.093	0.093
-476.303	800.000	0.024	-0.073
-475.289	308.330	0.221	0.411
-474.274	-139.670	-0.058	-0.006
-473.259	-146.068	-0.175	0.015
-472.245	202.449	-0.116	0.178
-471.230	181.514	-0.150	0.220
-470.216	-139.430	-0.045	-0.005
-469.201	647.940	0.062	0.157
-468.186	-107.801	-0.199	0.043
-467.172	-200.000	-0.003	0.068
-466.157	-130.348	0.179	-0.024
-465.143	-200.000	-0.009	0.239
-464.128	-47.940	-0.214	0.103
-463.113	-15.369	-0.040	0.025
-462.099	-157.160	0.193	0.012
-461.084	-200.000	0.008	-0.088
-460.070	-56.623	0.265	0.117
-459.055	-200.000	-0.004	0.159
-458.040	800.000	0.020	-0.081
-457.026	1.525	-0.091	-0.065
-456.011	-109.797	-0.082	-0.017
-454.997	-100.760	0.102	0.025
-453.982	-50.856	-0.336	0.157
-452.968	160.702	0.039	-0.054
-451.953	800.000	0.078	-0.274
-450.938	-90.373	0.304	0.088
-449.924	419.685	0.115	-0.246
-448.909	88.794	0.133	0.147
-447.895	55.671	-0.131	0.126
-446.880	-138.148	0.173	0.019
-445.865	-200.000	-0.064	-0.310
-444.851	640.017	-0.117	-0.296
-443.836	-66.411	-0.220	0.087
-442.822	800.000	0.104	-0.391
-441.807	-131.593	0.352	-0.046
-440.792	-51.837	0.089	-0.041
-439.778	-200.000	0.046	-0.324
-438.763	159.974	0.087	-0.120
-437.749	-27.667	-0.081	-0.047
-436.734	-13.375	0.265	-0.171
-435.719	-89.268	0.300	-0.088
-434.705	731.594	-0.114	0.302
-433.690	182.280	-0.081	-0.119
-432.676	3.414	-0.223	-0.161
-431.661	42.011	-0.135	-0.122
-430.646	-47.686	-0.368	-0.177
-429.632	144.620	0.205	-0.273
-428.617	23.174	-0.080	-0.065
-427.603	-200.000	0.085	-0.563
-426.588	13.919	-0.293	-0.226
-425.573	-71.029	0.337	0.126
-424.559	69.030	-0.019	0.020
-423.544	-200.000	0.010	-0.101
-422.530	53.134	0.179	0.170
-421.515	27.133	-0.264	-0.220
-420.500	146.073	0.029	-0.039
-419.486	435.606	0.032	0.069
-418.471	-22.786	0.153	0.092
-417.457	800.000	-0.047	-0.201
-416.442	-200.000	-0.029	0.234
-415.428	-200.000	-0.058	0.429
-414.413	308.369	-0.016	0.030
-413.398	-200.000	0.011	0.103
-412.384	-57.270	0.229	-0.100
-411.369	-200.000	-0.075	0.467
-410.355	-41.332	0.184	-0.094
-409.340	-12.600	-0.248	-0.160
-408.325	-38.378	-0.313	-0.165
-407.311	-200.000	0.006	-0.232
-406.296	-47.164	-0.277	-0.134
-405.282	-136.064	-0.076	-0.009
-404.267	-200.000	-0.012	0.293
-403.252	-136.745	0.232	0.027
-402.238	-13.236	-0.060	-0.039
-401.223	-16.191	0.019	0.012
-400.209	171.426	-0.058	0.082
-399.194	-200.000	0.048	0.311
-398.179	-97.873	-0.013	0.003
-397.165	-200.000	-0.014	-0.166
-396.150	-176.977	-0.306	0.008
-395.136	561.165	-0.175	0.419
-394.121	127.996	-0.113	0.142
-393.106	-200.000	-0.009	0.121
-392.092	-57.135	0.078	0.034
-391.077	-10.825	0.108	0.071
-390.063	-84.216	0.243	0.076
-389.048	-200.000	-0.019	0.266
-388.033	154.113	0.206	0.280
-387.019	11.362	-0.152	0.116
-386.004	104.913	-0.042	-0.049
-384.990	-120.393	-0.327	0.055
-383.975	-200.000	0.055	0.299
-382.960	92.155	-0.188	-0.210
-381.946	335.186	0.152	-0.291
-380.931	800.000	-0.134	0.419
-379.917	565.505	-0.100	0.240
-378.902	-193.411	0.061	-0.001
-377.888	-54.992	-0.340	-0.152
-376.873	-200.000	0.008	0.286
-375.858	35.232	0.218	0.189
-374.844	253.629	0.084	0.142
-373.829	-24.101	0.089	-0.052
-372.815	-142.963	-0.188	0.018
-371.800	253.381	0.147	0.248
-370.785	-142.442	0.170	0.017
-369.771	-200.000	0.041	0.251
-368.756	-200.000	-0.126	-0.001
-367.742	-200.000	0.040	-0.283
-366.727	161.197	-0.202	-0.280
-365.712	-200.000	-0.052	0.531
-364.698	-200.000	0.015	-0.263
-363.683	-110.377	-0.299	-0.062
-362.669	-35.245	0.282	0.152
-361.654	127.282	0.163	0.205
-360.639	5.636	0.190	0.139
-359.625	-61.103	0.256	0.107
-358.610	-95.196	-0.032	0.009
-357.596	-200.000	0.012	-0.461
-356.581	-48.160	-0.096	-0.046
-355.566	-38.161	-0.122	-0.064
-354.552	800.000	0.049	-0.157
-353.537	-80.205	-0.239	0.079
-352.523	-79.168	0.167	-0.056
-351.508	-137.584	0.051	0.006
-350.493	-78.525	0.278	0.094
-349.479	-200.000	0.033	-0.261
-348.464	-200.000	0.065	-0.301
-347.450	-66.850	-0.100	-0.039
-346.435	155.686	0.085	-0.116
-345.420	-31.944	-0.322	-0.178
-344.406	-200.000	0.290	0.000
-343.391	-200.000	0.019	-0.099
-342.377	108.590	-0.211	-0.249
-341.362	-200.000	0.060	-0.303
-340.348	108.349	-0.063	-0.075
-339.333	800.000	0.052	0.187
-338.318	-200.000	0.000	0.072
-337.304	-6.278	0.208	-0.141
-336.289	-69.938	0.259	0.097
-335.275	25.199	0.153	-0.126
-334.260	-135.137	0.097	-0.012
-333.245	-119.285	-0.202	-0.035
-332.231	800.000	0.031	-0.114
-331.216	67.690	0.186	0.188
-330.202	68.536	-0.200	-0.203
-329.187	18.831	0.038	0.030
-328.172	3.367	0.255	0.184
-327.158	372.782	-0.086	0.173
-326.143	179.295	0.181	0.262
-325.129	-90.823	0.370	0.106
-324.114	560.491	-0.053	0.127
-323.099	13.956	-0.288	0.222
-322.085	132.811	-0.154	-0.197
-321.070	-200.000	-0.018	-0.308
-320.056	42.278	-0.153	0.138
-319.041	-86.827	-0.206	-0.062
-318.026	-71.986	0.192	0.070
-317.012	-59.638	0.321	-0.136
-315.997	225.700	-0.077	0.124
-314.983	411.125	0.101	0.212
-313.968	66.199	-0.260	-0.261
-312.953	-61.120	-0.088	0.037
-311.939	-0.929	0.075	-0.053
-310.924	800.000	0.070	-0.217
-309.910	-145.554	-0.255	0.023
-308.895	-53.615	-0.290	0.131
-307.880	800.000	0.073	0.211
-306.866	180.493	-0.078	0.114
-305.851	-118.678	0.167	-0.029
-304.837	-103.063	0.363	-0.085
-303.822	81.025	0.122	-0.131
-302.807	-38.020	-0.118	0.062
-301.793	354.000	-0.063	-0.124
-300.778	-23.376	0.169	0.101
-299.764	-125.501	-0.338	-0.051
-298.749	446.326	-0.038	0.082
-297.735	800.000	-0.056	0.222
-296.720	-200.000	0.030	0.136
-295.705	-88.206	0.369	0.109
-294.691	-32.050	0.159	-0.088
-293.676	237.149	0.127	-0.207
-292.662	107.593	-0.109	-0.128
-291.647	-72.951	0.052	-0.019
-290.632	-200.000	0.004	-0.497
-289.618	-200.000	0.033	-0.362
-288.603	-148.451	-0.177	0.014
-287.589	-106.275	-0.086	0.019
-286.574	800.000	-0.072	0.252
-285.559	-55.077	-0.352	-0.157
-284.545	674.441	0.043	-0.110
-283.530	-5.971	-0.132	-0.089
-282.516	-71.612	-0.160	-0.059
-281.501	14.387	0.357	0.275
-280.486	800.000	0.077	0.239
-279.472	-200.000	-0.019	0.227
-278.457	-200.000	-0.016	-0.175
-277.443	-155.356	-0.235	0.015
-276.428	-200.000	0.087	0.402
-275.413	340.715	-0.167	0.322
-274.399	-200.000	-0.004	-0.206
-273.384	617.775	0.150	-0.372
-272.370	-68.556	-0.103	0.040
-271.355	800.000	-0.019	0.070
-270.340	-101.922	0.393	0.094
-269.326	564.034	0.021	0.051
-268.311	556.935	-0.054	0.128
-267.297	800.000	0.017	-0.047
-266.282	194.048	0.143	-0.213
-265.267	-200.000	0.006	0.027
-264.253	130.625	0.179	-0.226
-263.238	800.000	-0.026	0.100
-262.224	-26.748	0.232	-0.134
-261.209	43.785	-0.151	-0.137
-260.195	-29.549	0.164	-0.093
-259.180	-200.000	0.012	0.067
-258.165	-154.086	-0.139	0.009
-257.151	17.252	-0.126	-0.098
-256.136	-129.657	0.152	-0.021
-255.122	-200.000	-0.006	0.169
-254.107	21.475	-0.310	-0.249
-253.092	-110.634	0.313	0.064
-252.078	-200.000	-0.013	0.321
-251.063	-200.000	0.019	0.161
-250.049	-97.353	0.114	0.029
-249.034	96.796	-0.235	-0.265
-248.019	780.744	-0.061	-0.166
-247.005	76.488	-0.123	-0.129
-245.990	-200.000	0.053	-0.417
-244.976	85.334	-0.187	-0.202
-243.961	118.774	0.117	0.142
-242.946	525.872	-0.062	-0.145
-241.932	800.000	-0.041	0.150
-240.917	785.531	0.092	0.248
-239.903	-200.000	0.025	-0.151
-238.888	551.850	-0.038	-0.090
-237.873	112.931	-0.066	0.079
-236.859	800.000	-0.063	-0.248
-235.844	-127.997	-0.050	0.007
-234.830	2.085	0.216	-0.154
-233.815	-154.548	-0.105	0.007
-232.800	800.000	0.063	0.232
-231.786	138.685	-0.143	0.185
-230.771	-200.000	-0.009	0.122
-229.757	-89.923	-0.248	-0.071
-228.742	357.191	0.067	0.131
-227.727	-200.000	-0.037	0.385
-226.713	-200.000	-0.029	-0.375
-225.698	38.582	0.207	0.182
-224.684	-162.759	0.347	-0.017
-223.669	475.507	-0.008	-0.019
-222.655	118.780	-0.176	-0.214
-221.640	156.595	0.104	0.141
-220.625	214.851	-0.069	0.108
-219.611	800.000	-0.075	0.211
-218.596	-200.000	-0.028	0.223
-217.582	-138.867	-0.249	0.027
-216.567	7.037	0.110	-0.081
-215.552	131.033	0.181	-0.229
-214.538	-164.465	-0.253	-0.011
-213.523	77.913	-0.161	-0.168
-212.509	-200.000	0.018	-0.242
-211.494	140.650	0.048	-0.063
-210.479	1.302	0.208	0.147
-209.465	-200.000	-0.027	0.269
-208.450	191.536	-0.183	-0.272
-207.436	6.686	-0.056	0.041
-206.421	-115.843	0.513	0.094
-205.406	-53.256	-0.420	-0.190
-204.392	30.255	0.196	0.164
-203.377	-200.000	0.041	0.262
-202.363	-200.000	0.004	0.020
-201.348	-54.073	0.121	-0.054
-200.333	101.768	-0.184	0.211
-199.319	734.049	-0.116	0.305
-198.304	83.873	-0.317	0.341
-197.290	-58.813	-0.076	0.032
-196.275	-15.104	-0.146	-0.092
-195.260	17.863	-0.214	0.168
-194.246	-93.455	0.096	0.026
-193.231	-200.000	0.017	0.180
-192.217	59.914	0.284	0.276
-191.202	-63.266	0.222	0.090
-190.187	370.653	0.125	0.250
-189.173	47.987	0.080	-0.074
-188.158	25.653	-0.338	-0.277
-187.144	-19.509	0.344	0.209
-186.129	470.670	0.145	0.321
-185.114	135.474	0.074	-0.094
-184.100	-35.492	0.219	-0.117
-183.085	800.000	0.020	0.059
-182.071	667.754	0.112	-0.285
-181.056	-135.977	-0.153	-0.018
-180.042	88.080	-0.076	-0.082
-179.027	-26.045	-0.089	0.052
-178.012	-200.000	-0.007	0.198
-176.998	-105.566	-0.392	-0.087
-175.983	0.594	0.095	0.067
-174.969	-200.000	0.002	0.257
-173.954	-90.633	-0.407	-0.116
-172.939	-87.132	0.187	-0.056
-171.925	-200.000	0.034	-0.243
-170.910	-147.654	0.301	0.025
-169.896	-200.000	0.028	0.239
-168.881	28.536	0.339	-0.282
-167.866	-160.080	0.226	-0.012
-166.852	-20.879	-0.330	0.198
-165.837	-200.000	0.003	-0.114
-164.823	-167.666	-0.413	-0.016
-163.808	-109.764	0.211	0.044
-162.793	184.807	0.102	0.149
-161.779	-92.854	0.441	-0.121
-160.764	-20.474	0.102	-0.062
-159.750	-200.000	-0.003	-0.087
-158.735	514.237	0.066	-0.151
-157.720	-30.223	-0.378	0.211
-156.706	205.707	0.062	0.094
-155.691	102.834	-0.063	-0.072
-154.677	-61.488	0.277	0.114
-153.662	15.803	0.141	0.109
-152.647	-7.185	-0.125	-0.083
-151.633	-68.356	-0.173	0.066
-150.618	800.000	-0.030	-0.109
-149.604	417.340	0.072	0.150
-148.589	800.000	-0.072	-0.290
-147.574	59.582	-0.154	-0.149
-146.560	800.000	0.039	0.144
-145.545	-200.000	0.061	0.364
-144.531	232.600	-0.206	0.332
-143.516	-52.849	0.193	0.087
-142.502	227.548	0.063	0.100
-141.487	15.077	0.396	0.305
-140.472	9.162	-0.026	-0.019
-139.458	71.876	-0.114	0.117
-138.443	-154.518	0.184	0.012
-137.429	0.463	-0.226	0.159
-136.414	-4.101	-0.113	-0.077
-135.399	-74.472	-0.222	0.078
-134.385	206.326	0.284	0.434
-133.370	138.552	-0.069	-0.089
-132.356	77.861	-0.047	0.049
-131.341	-200.000	-0.005	0.110
-130.326	252.165	0.035	-0.059
-129.312	-107.258	-0.501	-0.108
-128.297	272.192	-0.146	0.252
-127.283	-44.354	-0.029	0.014
-126.268	-200.000	0.015	0.092
-125.253	178.781	-0.274	-0.393
-124.239	-43.350	0.137	-0.068
-123.224	-200.000	-0.009	-0.045
-122.210	800.000	-0.153	0.416
-121.195	-200.000	-0.057	0.262
-120.180	373.099	-0.034	-0.067
-119.166	-48.222	0.119	-0.056
-118.151	-200.000	0.019	0.409
-117.137	12.376	-0.364	-0.275
-116.122	426.341	-0.080	0.170
-115.107	-38.229	-0.055	-0.029
-114.093	-181.383	0.343	0.007
-113.078	-200.000	-0.056	0.301
-112.064	-87.799	-0.315	-0.093
-111.049	35.974	-0.089	0.077
-110.034	36.159	0.152	-0.131
-109.020	-161.003	-0.134	-0.007
-108.005	-2.581	-0.255	-0.175
-106.991	605.985	-0.074	-0.180
-105.976	-19.402	-0.315	0.191
-104.962	-12.417	0.187	0.120
-103.947	54.050	-0.136	-0.128
-102.932	-145.215	0.146	0.013
-101.918	252.361	-0.160	0.268
-100.903	-200.000	0.015	-0.170
-99.889	76.030	-0.187	0.194
-98.874	-200.000	-0.077	-0.416
-97.859	-91.266	0.223	-0.063
-96.845	-72.182	0.152	-0.055
-95.830	-200.000	-0.037	0.167
-94.816	141.778	-0.258	0.335
-93.801	221.045	-0.048	0.076
-92.786	-105.909	0.462	0.102
-91.772	-175.878	-0.259	0.007
-90.757	410.290	-0.033	-0.068
-89.743	-39.876	-0.397	0.203
-88.728	800.000	-0.059	0.178
-87.713	92.234	-0.152	0.168
-86.699	-43.837	0.365	0.180
-85.684	28.686	0.054	0.044
-84.670	800.000	-0.050	0.174
-83.655	326.002	-0.221	0.415
-82.640	-65.844	-0.091	-0.036
-81.626	-200.000	0.017	-0.115
-80.611	-200.000	-0.025	-0.208
-79.597	800.000	-0.059	0.184
-78.582	376.682	-0.034	-0.068
-77.567	800.000	-0.089	-0.281
-76.553	-46.846	0.094	0.045
-75.538	-35.597	0.253	0.135
-74.524	-150.277	0.349	-0.026
-73.509	-9.663	0.301	0.196
-72.494	-40.166	-0.230	-0.117
-71.480	-27.708	0.335	-0.191
-70.465	73.127	-0.133	0.137
-69.451	406.247	0.043	0.089
-68.436	800.000	0.033	-0.117
-67.422	800.000	-0.035	0.102
-66.407	354.137	0.166	-0.323
-65.392	80.908	-0.219	-0.231
-64.378	474.416	0.203	0.449
-63.363	4.501	0.033	0.024
-62.349	-21.536	-0.011	-0.007
-61.334	17.743	-1.059	-0.825
-60.319	187.530	0.429	0.626
-59.305	370.823	-0.420	-0.834
-58.290	662.656	0.588	1.484
-57.276	338.922	0.733	1.398
-56.261	-200.000	112.187	635.793
-55.246	471.619	1500.673	3304.692
-54.232	148.630	2664.442	3522.492
-53.217	103.185	2173.109	2492.349
-52.203	38.035	1705.142	1483.819
-51.188	30.809	1524.461	1277.192
-50.173	28.617	1500.758	1242.461
-49.159	52.476	1557.292	1454.292
-48.144	51.354	1572.995	1461.177
-47.130	31.110	1529.654	1283.412
-46.115	28.023	1515.149	1250.117
-45.100	27.883	1511.534	1246.130
-44.086	27.878	1509.497	1244.370
-43.071	27.786	1507.598	1242.123
-42.057	27.722	1506.313	1240.582
-41.042	27.777	1505.201	1239.993
-40.027	27.802	1503.142	1238.417
-39.013	27.736	1501.400	1236.480
-37.998	27.665	1500.343	1235.084
-36.984	27.738	1499.288	1234.664
-35.969	27.685	1497.895	1233.107
-34.954	27.844	1496.558	1233.027
-33.940	27.693	1495.462	1231.058
-32.925	27.875	1493.173	1230.349
-31.911	27.764	1492.547	1229.040
-30.896	27.739	1490.976	1227.530
-29.881	27.765	1489.964	1226.821
-28.867	27.842	1488.516	1226.100
-27.852	27.757	1487.508	1224.649
-26.838	27.868	1485.694	1223.853
-25.823	27.797	1484.767	1222.561
-24.809	27.831	1482.586	1220.949
-23.794	27.639	1481.833	1218.997
-22.779	27.864	1479.841	1218.806
-21.765	27.774	1479.467	1217.851
-20.750	27.849	1478.203	1217.262
-19.736	27.877	1476.860	1216.293
-18.721	27.754	1476.029	1214.744
-17.706	27.845	1474.444	1213.998
-16.692	27.835	1473.737	1213.298
-15.677	27.731	1472.965	1211.927
-14.663	27.717	1471.830	1210.847
-13.648	27.649	1470.820	1209.519
-12.633	27.660	1470.046	1208.912
-11.619	27.638	1469.777	1208.490
-10.604	27.689	1468.852	1208.024
-9.590	27.696	1467.633	1207.018
-8.575	27.743	1466.462	1206.316
-7.560	27.729	1465.989	1205.790
-6.546	27.693	1465.044	1204.729
-5.531	27.758	1463.815	1204.098
-4.517	27.722	1463.327	1203.413
-3.502	27.790	1462.004	1202.724
-2.487	27.689	1460.819	1201.032
-1.473	27.650	1460.079	1200.119
-0.458	27.791	1458.492	1199.696
0.556	26.068	1448.600	1187.663
1.571	23.232	1423.504	1148.612
2.586	19.924	1363.397	1079.422
3.600	18.405	1280.088	1004.477
4.615	17.255	1235.003	962.502
5.629	16.458	1181.666	916.531
6.644	13.551	1105.818	842.858
7.659	10.870	1071.431	803.344
8.673	10.536	1066.056	797.600
9.688	10.462	1063.261	795.073
10.702	10.274	1062.052	793.179
11.717	10.478	1059.371	792.105
12.731	11.585	1059.398	797.460
13.746	14.546	1062.908	814.510
14.761	17.148	1066.478	829.906
15.775	17.814	1066.233	832.891
16.790	17.018	1063.948	827.158
17.804	15.873	1061.905	819.922
18.819	14.976	1060.089	814.082
19.834	14.479	1058.656	810.493
20.848	14.248	1057.646	808.528
21.863	14.027	1056.783	806.723
22.877	13.785	1056.243	805.068
23.892	13.588	1054.752	802.906
24.907	13.505	1054.235	802.036
25.921	13.434	1053.561	801.110
26.936	13.613	1052.680	801.238
27.950	13.567	1051.872	800.329
28.965	13.449	1051.350	799.288
29.980	13.671	1049.725	799.051
30.994	13.717	1048.830	798.522
32.009	13.757	1047.522	797.648
33.023	13.772	1047.165	797.378
34.038	13.714	1046.355	796.413
35.053	13.741	1045.303	795.672
36.067	13.710	1044.073	794.514
37.082	13.729	1043.408	794.028
38.096	13.661	1042.543	792.977
39.111	13.704	1041.664	792.445
40.126	13.874	1040.568	792.349
41.140	13.609	1039.546	790.239
42.155	13.562	1038.432	789.097
43.169	13.457	1037.754	788.012
44.184	13.550	1036.513	787.445
45.199	13.417	1035.517	785.985
46.213	13.418	1034.793	785.374
47.228	13.431	1033.885	784.673
48.242	13.616	1032.428	784.376
49.257	13.641	1031.612	783.806
50.271	13.599	1030.675	782.822
51.286	13.581	1030.141	782.263
52.301	13.584	1029.235	781.521
53.315	13.623	1028.661	781.202
54.330	13.568	1027.747	780.179
55.344	13.566	1026.811	779.387
56.359	13.545	1025.646	778.338
57.374	13.497	1024.773	777.382
58.388	13.463	1024.545	776.978
59.403	13.552	1023.520	776.552
60.417	13.417	1022.776	775.285
61.432	13.355	1021.939	774.289
62.447	13.446	1020.869	773.836
63.461	13.474	1020.055	773.281
64.476	13.366	1019.365	772.189
65.490	13.282	1018.474	771.054
66.505	13.326	1017.439	770.406
67.520	13.346	1016.902	770.026
68.534	13.456	1016.329	770.036
69.549	13.432	1015.429	769.172
70.563	13.407	1014.831	768.534
71.578	13.375	1014.007	767.693
72.593	13.330	1013.195	766.804
73.607	13.452	1011.402	765.942
74.622	13.393	1010.999	765.297
75.636	13.254	1010.437	764.159
76.651	13.317	1009.528	763.698
77.666	13.438	1008.529	763.432
78.680	13.363	1007.806	762.472
79.695	13.361	1007.625	762.259
80.709	13.417	1006.743	761.783
81.724	13.449	1006.271	761.502
82.739	13.483	1005.594	761.080
83.753	13.508	1004.673	760.432
84.768	13.525	1004.268	760.133
85.782	13.694	1002.933	759.831
86.797	13.768	1002.701	759.926
87.812	13.787	1001.603	759.115
88.826	13.701	1000.760	758.014
89.841	13.554	1000.143	756.809
90.855	13.512	999.905	756.370
91.870	13.613	998.487	755.694
92.884	13.668	997.784	755.345
93.899	13.761	996.969	755.083
94.914	13.806	996.163	754.610
95.928	13.837	995.493	754.178
96.943	13.974	994.349	753.868
97.957	13.784	994.039	752.704
98.972	13.727	992.814	751.451
99.987	13.782	992.412	751.329
101.001	13.710	991.363	750.141
102.016	13.798	990.493	749.814
103.030	13.694	989.449	748.488
104.045	13.751	988.596	748.035
105.060	13.743	987.740	747.286
106.074	13.634	987.018	746.181
107.089	13.622	985.902	745.217
108.103	13.387	985.504	743.796
109.118	13.505	984.435	743.452
110.133	13.566	982.988	742.567
111.147	13.549	982.378	741.963
112.162	13.511	981.738	741.244
113.176	13.510	981.184	740.759
114.191	13.599	980.122	740.289
115.206	13.600	979.133	739.479
116.220	13.517	978.225	738.356
117.235	13.562	977.548	737.983
118.249	13.529	976.794	737.199
119.264	13.706	975.682	737.084
120.279	13.479	975.281	735.707
121.293	13.567	973.977	735.050
122.308	13.543	973.238	734.317
123.322	13.475	972.721	733.561
124.337	13.559	971.401	732.873
125.352	13.529	970.238	731.798
126.366	13.485	969.428	730.928
127.381	13.617	968.051	730.407
128.395	13.563	967.211	729.471
129.410	13.404	966.373	728.074
130.424	13.453	965.397	727.490
131.439	13.460	964.884	727.072
132.454	13.576	963.596	726.545
133.468	13.605	962.936	726.112
134.483	13.559	962.315	725.376
135.497	13.606	961.749	725.089
136.512	13.599	960.835	724.307
137.527	13.700	960.053	724.095
138.541	13.530	959.605	722.952
139.556	13.619	958.563	722.489
140.570	13.586	958.017	721.869
141.585	13.667	957.196	721.541
142.600	13.665	956.817	721.183
143.614	13.780	955.959	720.971
144.629	13.867	955.036	720.589
145.643	13.923	954.007	719.992
146.658	13.857	953.354	719.151
147.673	13.846	952.144	718.127
148.687	13.733	951.423	717.030
149.702	13.752	950.525	716.374
150.716	13.711	950.004	715.738
151.731	13.573	949.151	714.438
152.746	13.713	948.245	714.295
153.760	13.842	947.728	714.399
154.775	13.761	946.790	713.278
155.789	13.751	945.882	712.490
156.804	13.860	945.323	712.473
157.819	13.990	944.506	712.352
158.833	13.865	944.220	711.540
159.848	13.935	943.387	711.146
160.862	13.946	942.564	710.512
161.877	13.874	942.062	709.762
162.892	13.807	941.243	708.794
163.906	13.825	939.986	707.861
164.921	13.598	939.563	706.514
165.935	13.731	938.526	706.238
166.950	13.855	937.428	705.876
167.964	13.882	936.694	705.374
168.979	13.886	935.785	704.647
169.994	13.982	934.457	703.992
171.008	13.842	934.021	703.006
172.023	13.995	932.968	702.800
173.037	13.901	932.238	701.789
174.052	13.965	931.890	701.735
175.067	13.998	930.816	701.003
176.081	14.048	929.946	700.500
177.096	13.811	929.557	699.144
178.110	14.034	928.369	699.130
179.125	13.969	927.620	698.228
180.140	13.886	927.602	697.802
181.154	13.937	926.524	697.146
182.169	14.005	925.718	696.761
183.183	13.974	925.456	696.374
184.198	14.106	924.048	695.807
185.213	14.075	924.188	695.721
186.227	14.069	923.642	695.221
187.242	14.264	922.483	695.100
188.256	14.246	922.050	694.639
189.271	14.184	920.914	693.462
190.286	14.182	920.692	693.226
191.300	14.133	919.848	692.326
192.315	14.013	919.181	691.263
193.329	13.907	918.674	690.382
194.344	13.875	918.024	689.697
195.359	13.969	916.798	689.106
196.373	14.116	916.699	689.579
197.388	14.064	915.983	688.764
198.402	14.307	915.628	689.441
199.417	14.315	915.055	688.983
200.432	14.290	914.883	688.690
201.446	14.309	914.485	688.409
202.461	14.530	913.683	688.654
203.475	14.578	913.286	688.493
204.490	14.435	912.862	687.524
205.504	14.417	912.060	686.785
206.519	14.303	911.097	685.527
207.534	14.333	910.163	684.887
208.548	14.471	909.195	684.668
209.563	14.444	908.787	684.188
210.577	14.287	908.208	683.048
211.592	14.407	907.847	683.207
212.607	14.483	907.104	682.900
213.621	14.502	906.519	682.478
214.636	14.656	905.557	682.322
215.650	14.352	905.389	680.890
216.665	14.490	904.697	680.874
217.680	14.614	904.087	680.864
218.694	14.661	903.815	680.789
219.709	14.630	903.220	680.152
220.723	14.683	902.595	679.837
221.738	14.538	902.050	678.779
222.753	14.644	901.073	678.414
223.767	14.657	899.879	677.505
224.782	14.738	899.487	677.482
225.796	14.792	898.378	676.803
226.811	14.638	898.270	676.038
227.826	14.672	897.647	675.647
228.840	14.834	896.557	675.423
229.855	14.682	896.018	674.343
230.869	14.804	895.264	674.206
231.884	14.756	894.926	673.702
232.899	14.676	894.337	672.876
233.913	14.769	893.225	672.355
234.928	14.654	892.458	671.254
235.942	14.526	891.966	670.309
236.957	14.679	891.084	670.204
237.972	14.662	890.737	669.813
238.986	14.787	889.975	669.680
240.001	14.810	888.933	668.931
241.015	14.642	888.836	668.125
242.030	14.783	888.183	668.141
243.045	14.766	887.493	667.496
244.059	14.819	886.597	666.973
245.074	14.866	885.783	666.489
246.088	14.697	885.681	665.680
247.103	14.981	884.714	666.023
248.117	14.962	884.534	665.755
249.132	14.971	883.821	665.196
250.147	15.087	883.169	665.107
251.161	15.191	882.541	664.987
252.176	15.247	881.926	664.688
253.190	15.335	880.962	664.251
254.205	15.376	880.606	664.084
255.220	15.302	880.107	663.358
256.234	15.192	879.693	662.554
257.249	15.309	878.672	662.188
258.263	15.184	878.147	661.239
259.278	15.367	877.259	661.233
260.293	15.272	877.171	660.735
261.307	15.400	876.587	660.738
262.322	15.361	875.685	659.848
263.336	15.361	875.322	659.516
264.351	15.420	874.779	659.279
265.366	15.555	874.046	659.199
266.380	15.449	873.636	658.414
267.395	15.570	872.592	658.045
268.409	15.511	871.806	657.162
269.424	15.512	870.944	656.460
270.439	15.444	870.627	655.895
271.453	15.378	869.728	654.904
272.468	15.429	869.145	654.605
273.482	15.436	868.217	653.877
274.497	15.581	867.897	654.143
275.512	15.521	867.141	653.282
276.526	15.518	866.583	652.792
277.541	15.414	866.606	652.347
278.555	15.592	865.436	652.100
279.570	15.581	865.067	651.719
280.585	15.517	864.347	650.873
281.599	15.861	863.401	651.434
282.614	15.647	863.219	650.409
283.628	15.559	862.365	649.368
284.643	15.592	861.722	648.955
285.657	15.729	861.075	648.938
286.672	15.591	860.910	648.226
287.687	15.596	860.674	648.009
288.701	15.812	859.789	648.116
289.716	15.729	859.075	647.203
290.730	15.744	858.860	647.040
291.745	15.694	858.159	646.262
292.760	15.874	856.954	645.988
293.774	15.689	856.197	644.651
294.789	15.806	855.870	644.796
295.803	15.807	855.812	644.700
296.818	15.750	854.864	643.710
297.833	15.750	854.393	643.300
298.847	15.889	853.507	643.107
299.862	15.987	852.799	642.891
300.876	15.776	851.983	641.414
301.891	15.886	851.413	641.346
302.906	16.035	850.891	641.463
303.920	16.135	850.338	641.369
304.935	15.987	849.505	640.122
305.949	16.101	849.145	640.230
306.964	16.190	848.368	639.925
307.979	16.026	847.933	638.915
308.993	15.882	847.538	638.017
310.008	15.995	846.992	637.976
311.022	16.028	846.227	637.469
312.037	16.175	845.593	637.490
313.052	16.244	845.382	637.537
314.066	16.054	844.478	636.080
315.081	16.019	843.645	635.267
316.095	16.053	843.161	634.973
317.110	16.041	842.651	634.488
318.125	16.094	842.297	634.364
319.139	16.044	842.127	633.992
320.154	16.146	841.290	633.689
321.168	16.039	840.885	632.928
322.183	16.117	839.864	632.397
323.197	16.301	839.783	632.966
324.212	16.164	839.031	631.832
325.227	16.188	838.667	631.592
326.241	16.324	838.025	631.560
327.256	16.070	837.408	630.092
328.270	16.312	836.889	630.547
329.285	16.161	836.447	629.596
330.300	16.195	835.996	629.328
331.314	16.229	835.228	628.821
332.329	16.201	834.616	628.201
333.343	16.226	834.244	627.956
334.358	16.370	833.332	627.751
335.373	16.219	833.001	626.883
336.387	16.282	832.428	626.633
337.402	16.409	831.942	626.682
338.416	16.555	831.198	626.607
339.431	16.427	830.835	625.803
340.446	16.416	830.230	625.253
341.460	16.408	829.817	624.857
342.475	16.622	828.957	624.942
343.489	16.594	828.974	624.796
344.504	16.589	828.661	624.487
345.519	16.627	827.874	623.980
346.533	16.768	826.567	623.458
347.548	16.731	826.516	623.227
348.562	16.650	825.891	622.405
349.577	16.576	825.711	621.942
350.592	16.475	825.200	621.129
351.606	16.481	824.959	620.915
352.621	16.620	824.183	620.785
353.635	16.583	823.479	620.065
354.650	16.591	823.089	619.746
355.665	16.615	822.651	619.451
356.679	16.544	822.379	618.930
357.694	16.712	821.738	619.007
358.708	16.625	821.413	618.389
359.723	16.828	820.542	618.421
360.738	16.744	820.082	617.714
361.752	16.719	819.769	617.332
362.767	16.799	818.954	616.955
363.781	16.895	818.590	616.975
364.796	16.850	818.365	616.588
365.810	16.944	817.926	616.545
366.825	16.957	817.659	616.336
367.840	16.851	817.251	615.587
368.854	16.986	817.010	615.841
369.869	16.806	816.643	614.859
370.883	16.880	815.740	614.391
371.898	16.946	815.251	614.206
372.913	16.977	814.460	613.670
373.927	16.958	814.224	613.368
374.942	17.090	813.242	613.049
375.956	17.068	812.431	612.307
376.971	17.094	811.945	611.978
377.986	17.079	811.586	611.600
379.000	17.151	811.098	611.436
380.015	17.098	810.672	610.874
381.029	17.296	810.029	611.046
382.044	17.321	809.554	610.724
383.059	17.252	808.817	609.866
384.073	17.262	808.421	609.547
385.088	17.317	808.080	609.437
386.102	17.205	807.598	608.616
387.117	17.220	806.732	607.965
388.132	17.183	806.564	607.651
389.146	17.104	805.977	606.872
390.161	17.204	805.849	607.077
391.175	17.283	805.304	606.896
392.190	17.255	805.082	606.575
393.205	17.348	804.558	606.459
394.219	17.364	804.182	606.179
395.234	17.203	803.479	605.022
396.248	17.191	803.060	604.610
397.263	17.200	802.347	604.053
398.278	17.277	801.705	603.790
399.292	17.244	801.561	603.512
400.307	17.105	801.202	602.691
401.321	17.271	800.319	602.566
402.336	17.264	800.624	602.714
403.350	17.223	800.063	602.095
404.365	17.203	799.688	601.689
405.380	17.294	799.543	601.848
406.394	17.430	798.530	601.515
407.409	17.385	798.272	601.107
408.423	17.397	798.124	600.983
409.438	17.525	797.284	600.751
410.453	17.700	796.589	600.789
411.467	17.622	796.249	600.206
412.482	17.607	795.696	599.683
413.496	17.608	795.411	599.418
414.511	17.613	795.314	599.310
415.526	17.723	795.065	599.456
416.540	17.768	794.289	598.977
417.555	17.744	793.897	598.543
418.569	17.789	793.335	598.224
419.584	17.636	793.118	597.471
420.599	17.862	792.206	597.523
421.613	111.167	1292.559	1474.746
422.628	95.545	1365.442	1474.831
