DTS Sentinel unit serial number:	SN413079Multiplexer serial number:	ORYXHardware model number:	OX4-SRSoftware version number:	ORYX F/W v4.00 Oryx Data Collector v3.7.2.0data status	okinstallation	princeton_trtdifferential loss correction	single-endedforward channel	channel 3reverse channel	N/Adate	2019/09/18time	01:32:35forward acquisition time	60.00reverse acquisition time	0.00gamma	496.2192k internal	0.2344k external	0.2344temperature offset calibration	0.9949default loss term (dB/km)	0.3790temperature slope calibration	1.0000multiplexer offset coefficient	1.0000multiplexer slope coefficient	1.0000fibre end	0.00T internal ref (°C)	23.08T ext. ref 1 (°C)	0.17T ext. ref 2 (°C)	16.74length (m)	temperature (°C)	Stokes	anti-Stokes-747.200	-200.000	0.095	0.508
-746.185	629.497	-0.115	0.292
-745.171	-130.145	0.387	0.053
-744.156	-200.000	-0.024	0.184
-743.142	627.708	0.025	0.062
-742.127	278.139	-0.114	0.203
-741.112	-200.000	-0.083	0.473
-740.098	-5.271	0.065	0.045
-739.083	-86.194	0.210	0.065
-738.069	800.000	0.136	0.377
-737.054	318.455	-0.068	0.129
-736.039	-7.911	0.203	-0.137
-735.025	-19.480	0.132	-0.082
-734.010	283.834	-0.098	-0.176
-732.996	-5.144	0.140	-0.097
-731.981	-200.000	0.015	0.306
-730.966	126.483	-0.119	0.151
-729.952	-137.694	-0.420	0.047
-728.937	-47.235	-0.101	0.049
-727.923	591.622	-0.098	0.242
-726.908	-94.307	-0.491	-0.134
-725.894	64.272	-0.148	0.149
-724.879	310.398	0.096	0.180
-723.864	-71.633	-0.239	-0.089
-722.850	-67.534	-0.221	0.087
-721.835	-199.002	-0.342	0.002
-720.821	800.000	-0.037	0.106
-719.806	-141.008	-0.215	-0.022
-718.791	-10.298	-0.198	-0.131
-717.777	800.000	-0.044	-0.169
-716.762	-107.389	-0.252	0.055
-715.748	402.459	0.032	-0.067
-714.733	151.890	0.428	0.584
-713.718	449.312	-0.024	0.052
-712.704	-113.801	-0.254	0.049
-711.689	24.879	-0.429	-0.355
-710.675	105.896	-0.195	0.231
-709.660	-149.748	-0.437	-0.034
-708.645	-200.000	-0.018	-0.161
-707.631	-32.209	-0.201	0.112
-706.616	-69.970	-0.397	-0.151
-705.602	27.809	0.158	-0.133
-704.587	-200.000	-0.003	0.255
-703.572	-68.409	-0.063	-0.025
-702.558	-70.889	0.248	-0.093
-701.543	225.032	0.176	-0.284
-700.529	39.801	-0.363	-0.326
-699.514	-63.966	0.251	-0.103
-698.499	48.463	-0.020	0.019
-697.485	596.175	-0.062	-0.152
-696.470	800.000	-0.158	-0.438
-695.456	5.111	-0.212	-0.156
-694.441	469.476	-0.067	0.150
-693.426	227.775	-0.009	-0.015
-692.412	-200.000	0.020	0.108
-691.397	-150.333	0.149	-0.011
-690.383	470.973	-0.146	0.327
-689.368	296.524	-0.145	-0.265
-688.354	144.221	-0.169	-0.225
-687.339	30.497	0.105	-0.090
-686.324	800.000	-0.087	-0.267
-685.310	450.524	0.059	-0.131
-684.295	800.000	-0.057	0.206
-683.281	-200.000	0.060	-0.314
-682.266	800.000	0.048	0.147
-681.251	-168.172	0.086	-0.003
-680.237	800.000	-0.069	0.196
-679.222	7.251	0.058	-0.043
-678.208	-31.548	0.126	-0.071
-677.193	-59.159	0.111	-0.048
-676.178	200.501	-0.112	-0.172
-675.164	156.566	0.152	-0.209
-674.149	5.988	0.134	-0.099
-673.135	188.070	0.036	-0.054
-672.120	-70.412	-0.371	0.140
-671.105	-65.747	-0.244	-0.098
-670.091	-40.949	0.215	-0.111
-669.076	3.541	-0.102	0.074
-668.062	82.969	0.090	-0.098
-667.047	632.399	-0.035	-0.088
-666.032	-90.996	-0.220	0.063
-665.018	-189.462	-0.198	0.002
-664.003	-131.227	0.069	-0.009
-662.989	-200.000	-0.009	0.147
-661.974	-154.483	-0.088	-0.006
-660.959	-1.537	-0.192	0.135
-659.945	-54.974	0.033	-0.015
-658.930	21.128	0.075	0.060
-657.916	50.494	0.296	-0.279
-656.901	-31.448	-0.419	-0.235
-655.886	-200.000	0.003	-0.089
-654.872	-54.347	0.161	0.073
-653.857	24.262	-0.059	-0.049
-652.843	121.373	-0.305	0.379
-651.828	126.696	0.089	0.112
-650.814	-48.380	0.195	-0.094
-649.799	-198.370	0.192	-0.001
-648.784	-27.609	-0.056	-0.032
-647.770	68.059	-0.211	-0.215
-646.755	-200.000	-0.070	0.379
-645.741	-117.515	-0.084	0.015
-644.726	43.061	-0.049	-0.045
-643.711	-83.384	0.117	-0.037
-642.697	-101.548	0.171	0.041
-641.682	-103.872	0.133	0.031
-640.668	-115.046	-0.069	0.013
-639.653	147.783	-0.163	-0.219
-638.638	-73.766	0.525	0.190
-637.624	-200.000	-0.024	-0.174
-636.609	173.185	0.151	-0.217
-635.595	348.843	0.101	-0.198
-634.580	-132.798	-0.438	-0.056
-633.565	153.875	-0.048	-0.065
-632.551	-73.792	-0.404	-0.146
-631.536	-80.041	0.113	0.038
-630.522	800.000	-0.105	-0.333
-629.507	-95.490	0.334	-0.089
-628.492	47.703	0.107	0.100
-627.478	-58.523	0.308	-0.133
-626.463	2.234	0.095	-0.068
-625.449	-14.371	-0.240	0.154
-624.434	101.661	-0.053	-0.062
-623.419	532.693	-0.077	-0.182
-622.405	71.586	0.086	0.089
-621.390	-20.170	-0.188	0.116
-620.376	-109.427	-0.183	0.039
-619.361	24.343	-0.064	0.053
-618.346	-77.217	0.163	0.057
-617.332	-7.213	0.170	0.115
-616.317	-119.989	-0.328	-0.056
-615.303	53.671	0.371	-0.354
-614.288	120.675	0.120	-0.148
-613.273	-200.000	0.004	0.104
-612.259	271.431	-0.054	-0.094
-611.244	-82.019	-0.298	0.097
-610.230	-120.146	-0.058	0.010
-609.215	-83.477	-0.191	-0.061
-608.201	81.752	0.258	-0.278
-607.186	-118.839	-0.382	-0.067
-606.171	800.000	0.130	-0.426
-605.157	607.194	-0.034	-0.085
-604.142	77.281	-0.051	-0.053
-603.128	56.665	-0.213	-0.207
-602.113	-200.000	-0.029	0.191
-601.098	-40.127	0.166	-0.086
-600.084	112.604	-0.101	0.121
-599.069	-16.951	0.123	0.077
-598.055	-200.000	0.016	0.167
-597.040	-141.449	-0.096	-0.010
-596.025	71.891	0.081	-0.084
-595.011	-36.315	-0.291	0.156
-593.996	30.561	-0.237	0.202
-592.982	376.299	0.089	-0.180
-591.967	-200.000	-0.034	-0.155
-590.952	-128.766	-0.356	0.050
-589.938	28.994	-0.114	0.096
-588.923	-42.337	-0.137	-0.070
-587.909	-6.697	0.056	-0.038
-586.894	403.221	-0.105	0.220
-585.879	198.855	-0.245	0.373
-584.865	-200.000	-0.006	0.048
-583.850	-70.442	-0.227	0.086
-582.836	-200.000	-0.005	-0.202
-581.821	69.173	0.125	-0.128
-580.806	357.153	0.057	0.114
-579.792	-14.501	-0.152	-0.097
-578.777	190.439	0.214	0.320
-577.763	169.784	0.278	-0.395
-576.748	-76.322	0.218	0.076
-575.733	390.356	0.071	0.146
-574.719	-32.020	0.329	-0.183
-573.704	248.263	0.086	-0.145
-572.690	-25.171	-0.102	0.060
-571.675	406.716	-0.060	-0.126
-570.661	-126.092	-0.205	0.031
-569.646	-200.000	0.000	0.030
-568.631	19.638	0.188	0.151
-567.617	-200.000	0.020	0.152
-566.602	79.054	-0.104	0.111
-565.588	-136.239	0.251	0.029
-564.573	-121.855	-0.079	-0.013
-563.558	13.530	0.181	-0.140
-562.544	137.649	0.098	0.127
-561.529	-6.570	-0.274	0.186
-560.515	-139.623	0.264	0.028
-559.500	32.553	-0.085	-0.073
-558.485	-200.000	-0.007	-0.202
-557.471	-10.009	0.163	-0.107
-556.456	54.880	-0.065	-0.063
-555.442	-159.480	0.240	-0.013
-554.427	-75.226	-0.232	0.082
-553.412	433.768	-0.089	-0.192
-552.398	-111.715	-0.317	-0.064
-551.383	-57.716	-0.338	0.147
-550.369	-123.950	0.316	0.049
-549.354	-68.068	-0.214	-0.083
-548.339	-21.847	0.434	0.262
-547.325	-65.665	-0.197	0.078
-546.310	-14.735	-0.286	0.183
-545.296	249.024	-0.115	-0.194
-544.281	-200.000	-0.006	0.146
-543.266	97.856	0.171	-0.196
-542.252	212.572	-0.177	-0.278
-541.237	25.931	-0.101	-0.084
-540.223	-200.000	0.030	-0.231
-539.208	-150.229	-0.072	0.006
-538.193	196.607	0.112	-0.169
-537.179	359.821	-0.083	-0.164
-536.164	-17.898	-0.112	-0.070
-535.150	29.532	0.179	-0.151
-534.135	800.000	-0.110	-0.370
-533.121	-192.297	-0.056	0.001
-532.106	-200.000	0.063	0.433
-531.091	-200.000	0.011	-0.181
-530.077	-150.866	0.546	0.041
-529.062	62.128	-0.147	0.146
-528.048	450.230	0.045	-0.098
-527.033	146.818	-0.160	0.213
-526.018	-200.000	0.004	-0.307
-525.004	-16.003	0.098	0.062
-523.989	-1.571	-0.341	-0.238
-522.975	-117.584	0.131	0.024
-521.960	800.000	0.015	0.047
-520.945	-200.000	-0.062	0.405
-519.931	-118.470	-0.492	0.086
-518.916	-58.432	-0.154	0.067
-517.902	-200.000	0.014	0.167
-516.887	-53.431	0.281	-0.128
-515.872	152.711	-0.231	0.313
-514.858	800.000	0.072	0.245
-513.843	-106.888	-0.199	-0.044
-512.829	203.619	0.064	0.098
-511.814	-200.000	0.005	-0.041
-510.799	-6.171	0.077	-0.052
-509.785	-45.836	-0.175	0.086
-508.770	-62.479	0.046	0.019
-507.756	57.490	0.204	0.198
-506.741	-103.539	-0.181	-0.042
-505.726	-2.683	0.094	-0.065
-504.712	-92.311	-0.318	-0.089
-503.697	763.133	-0.074	-0.200
-502.683	23.270	0.030	-0.025
-501.668	212.070	-0.063	0.099
-500.653	-200.000	0.014	-0.359
-499.639	-200.000	0.003	-0.172
-498.624	144.203	0.098	0.130
-497.610	-200.000	-0.009	-0.103
-496.595	-9.697	0.214	0.141
-495.581	800.000	-0.102	-0.304
-494.566	-13.391	0.128	-0.082
-493.551	-200.000	-0.088	0.471
-492.537	441.177	0.075	-0.162
-491.522	6.006	0.189	0.139
-490.508	50.891	0.226	-0.212
-489.493	800.000	0.059	-0.178
-488.478	-23.897	0.257	0.152
-487.464	596.623	0.096	0.236
-486.449	800.000	-0.068	0.257
-485.435	-68.721	0.204	0.078
-484.420	-64.881	-0.133	-0.053
-483.405	161.293	0.191	-0.264
-482.391	103.981	-0.158	-0.184
-481.376	-200.000	0.007	-0.035
-480.362	-200.000	-0.018	-0.084
-479.347	58.630	-0.163	-0.158
-478.332	-140.028	-0.160	-0.017
-477.318	-200.000	0.013	0.077
-476.303	800.000	-0.151	0.497
-475.289	-95.753	-0.257	-0.068
-474.274	456.657	0.021	-0.045
-473.259	662.015	0.074	0.189
-472.245	-200.000	-0.026	-0.155
-471.230	-108.007	-0.269	-0.058
-470.216	-18.259	0.101	-0.062
-469.201	31.460	-0.085	0.073
-468.186	-151.915	0.196	0.014
-467.172	168.036	-0.177	0.250
-466.157	-63.886	-0.108	-0.044
-465.143	452.757	0.162	0.355
-464.128	-84.113	0.155	-0.049
-463.113	212.693	-0.168	0.262
-462.099	53.479	-0.030	-0.028
-461.084	417.273	-0.207	-0.437
-460.070	483.351	0.026	0.060
-459.055	7.665	-0.081	0.060
-458.040	-122.821	0.049	-0.008
-457.026	800.000	-0.037	-0.106
-456.011	-171.539	-0.197	-0.006
-454.997	233.301	-0.149	0.242
-453.982	56.040	-0.053	-0.051
-452.968	-191.326	-0.229	0.002
-451.953	-102.703	0.159	-0.037
-450.938	-200.000	0.015	0.295
-449.924	-111.735	-0.298	0.060
-448.909	12.949	-0.118	0.090
-447.895	282.741	0.155	0.276
-446.880	-15.855	-0.186	0.117
-445.865	-141.256	-0.291	0.029
-444.851	172.329	0.143	0.203
-443.836	67.016	-0.151	-0.152
-442.822	115.367	-0.130	-0.157
-441.807	800.000	0.050	0.143
-440.792	-7.366	0.200	-0.134
-439.778	34.029	0.203	-0.175
-438.763	-71.050	0.239	-0.089
-437.749	-144.974	-0.109	-0.010
-436.734	800.000	0.018	-0.076
-435.719	14.464	0.192	-0.148
-434.705	73.857	-0.045	0.047
-433.690	-67.596	0.167	0.065
-432.676	-35.175	0.152	0.082
-431.661	-200.000	-0.004	-0.242
-430.646	235.492	0.127	-0.208
-429.632	-125.374	-0.334	-0.050
-428.617	348.210	0.118	-0.231
-427.603	-192.172	0.275	0.003
-426.588	800.000	-0.038	-0.123
-425.573	-103.628	-0.169	0.039
-424.559	-116.328	0.229	-0.042
-423.544	800.000	-0.026	-0.082
-422.530	71.256	-0.141	-0.145
-421.515	-41.618	0.186	0.094
-420.500	712.995	0.087	-0.227
-419.486	-15.952	-0.248	0.156
-418.471	74.600	0.275	0.286
-417.457	-17.014	0.206	0.128
-416.442	210.766	-0.272	-0.423
-415.428	23.565	0.148	-0.120
-414.413	726.174	0.081	0.212
-413.398	800.000	-0.095	-0.285
-412.384	800.000	-0.095	0.298
-411.369	-4.510	0.133	0.091
-410.355	38.162	0.247	0.217
-409.340	-17.496	-0.132	0.082
-408.325	-132.782	0.247	-0.031
-407.311	-200.000	0.009	-0.136
-406.296	200.046	0.036	-0.055
-405.282	36.415	0.185	0.161
-404.267	-123.347	-0.095	-0.015
-403.252	-109.426	0.060	-0.013
-402.238	25.497	0.253	0.208
-401.223	47.003	0.162	0.148
-400.209	12.232	0.311	0.236
-399.194	-36.324	0.231	-0.123
-398.179	8.835	0.034	-0.026
-397.165	800.000	0.119	0.398
-396.150	440.022	0.124	-0.267
-395.136	84.484	-0.311	0.336
-394.121	-178.940	0.083	-0.002
-393.106	-200.000	-0.057	-0.256
-392.092	800.000	-0.031	-0.132
-391.077	-69.326	-0.365	0.138
-390.063	-200.000	0.060	-0.281
-389.048	138.495	0.119	0.154
-388.033	-6.996	0.332	-0.222
-387.019	-157.989	-0.149	-0.009
-386.004	515.303	-0.014	0.032
-384.990	248.654	-0.230	0.384
-383.975	76.358	0.072	0.075
-382.960	-1.554	-0.177	0.123
-381.946	2.644	0.048	0.035
-380.931	260.352	-0.043	0.073
-379.917	-200.000	-0.011	0.189
-378.902	800.000	-0.049	0.206
-377.888	168.064	0.122	-0.171
-376.873	-59.272	0.166	-0.071
-375.858	106.564	-0.071	0.083
-374.844	-76.201	-0.186	0.065
-373.829	180.432	-0.089	0.129
-372.815	688.311	-0.067	-0.173
-371.800	-50.354	0.276	0.129
-370.785	-19.045	-0.183	0.112
-369.771	454.725	0.143	0.312
-368.756	-16.939	-0.147	0.091
-367.742	-200.000	-0.001	-0.059
-366.727	372.358	0.031	-0.062
-365.712	-200.000	0.002	-0.230
-364.698	-79.401	0.176	-0.059
-363.683	-123.777	-0.312	-0.049
-362.669	-39.138	-0.034	0.018
-361.654	-52.359	0.301	0.137
-360.639	272.088	0.035	0.062
-359.625	144.942	0.051	0.068
-358.610	-21.964	0.183	0.110
-357.596	-59.024	0.318	-0.135
-356.581	51.764	-0.292	0.273
-355.566	-95.656	-0.176	-0.046
-354.552	91.363	-0.134	0.149
-353.537	-87.138	0.131	0.039
-352.523	800.000	-0.030	0.113
-351.508	-144.970	0.199	-0.018
-350.493	-200.000	0.024	-0.235
-349.479	-200.000	0.046	-0.232
-348.464	292.039	0.117	-0.210
-347.450	135.143	0.160	0.205
-346.435	199.666	-0.078	-0.117
-345.420	-34.605	-0.207	0.112
-344.406	800.000	0.009	0.038
-343.391	-78.465	0.175	-0.059
-342.377	-169.619	0.263	0.009
-341.362	84.580	-0.167	-0.180
-340.348	-85.649	0.096	0.029
-339.333	211.202	0.093	-0.144
-338.318	800.000	-0.157	0.543
-337.304	609.205	0.067	0.166
-336.289	378.709	-0.190	-0.382
-335.275	102.354	-0.096	0.111
-334.260	-50.943	-0.221	0.102
-333.245	-69.134	-0.165	-0.063
-332.231	-0.139	-0.167	-0.117
-331.216	-80.220	0.235	0.078
-330.202	67.311	-0.126	-0.127
-329.187	-200.000	0.042	-0.211
-328.172	-46.343	0.177	0.086
-327.158	279.180	0.066	0.116
-326.143	-73.242	-0.235	-0.085
-325.129	-13.198	0.159	0.102
-324.114	800.000	-0.064	0.241
-323.099	24.437	0.101	-0.082
-322.085	49.688	-0.211	0.195
-321.070	-200.000	-0.035	0.228
-320.056	-8.527	0.179	-0.118
-319.041	-89.368	-0.216	-0.063
-318.026	-200.000	-0.057	-0.255
-317.012	71.604	-0.317	-0.325
-315.997	800.000	-0.079	0.225
-314.983	69.031	-0.264	0.267
-313.968	800.000	-0.079	0.280
-312.953	85.711	0.029	0.031
-311.939	146.279	0.091	0.120
-310.924	-200.000	0.074	-0.355
-309.910	-170.411	0.274	-0.009
-308.895	-30.837	0.290	0.161
-307.880	-73.849	-0.098	0.035
-306.866	36.390	0.259	0.225
-305.851	-17.781	0.362	0.223
-304.837	-178.883	-0.335	-0.007
-303.822	37.618	0.209	0.183
-302.807	184.708	0.189	0.276
-301.793	-82.503	0.329	-0.105
-300.778	-124.852	0.171	-0.026
-299.764	528.326	0.135	-0.313
-298.749	-13.419	-0.088	0.056
-297.735	-34.891	-0.166	0.089
-296.720	344.368	0.184	-0.355
-295.705	-90.487	-0.139	-0.040
-294.691	19.601	0.221	0.175
-293.676	-200.000	0.013	-0.104
-292.662	-113.625	-0.151	0.029
-291.647	227.712	-0.130	-0.207
-290.632	-160.971	-0.157	0.008
-289.618	789.454	0.069	-0.186
-288.603	-200.000	-0.082	-0.367
-287.589	-49.897	0.138	0.065
-286.574	40.188	-0.094	0.083
-285.559	-135.363	0.126	-0.015
-284.545	-16.786	-0.076	-0.048
-283.530	-195.008	0.167	-0.001
-282.516	14.280	-0.114	0.087
-281.501	-3.604	0.219	-0.149
-280.486	25.513	-0.193	-0.158
-279.472	-37.252	0.284	-0.149
-278.457	800.000	0.079	0.278
-277.443	-199.390	0.216	0.001
-276.428	36.966	-0.164	0.143
-275.413	604.666	-0.129	-0.315
-274.399	-47.058	0.433	0.208
-273.384	38.007	0.193	0.168
-272.370	-82.991	-0.129	-0.041
-271.355	-103.543	0.129	-0.030
-270.340	463.476	0.077	0.168
-269.326	359.607	-0.109	0.213
-268.311	354.600	0.027	-0.053
-267.297	60.071	-0.194	0.188
-266.282	-84.827	-0.111	-0.034
-265.267	71.730	-0.212	0.217
-264.253	-200.000	-0.047	0.297
-263.238	-200.000	-0.001	0.041
-262.224	555.602	0.121	0.286
-261.209	138.947	0.235	-0.303
-260.195	-126.652	-0.357	0.052
-259.180	-200.000	-0.001	0.202
-258.165	66.263	-0.161	-0.161
-257.151	184.452	-0.068	-0.100
-256.136	88.796	0.174	0.190
-255.122	-26.930	0.406	0.233
-254.107	-63.853	-0.186	-0.075
-253.092	-53.293	-0.189	0.085
-252.078	-29.045	-0.425	-0.240
-251.063	784.451	0.030	0.080
-250.049	800.000	-0.033	0.091
-249.034	116.526	-0.150	0.181
-248.019	-165.109	-0.203	0.009
-247.005	54.343	-0.179	0.169
-245.990	-107.026	-0.273	-0.059
-244.976	3.976	-0.075	0.054
-243.961	-76.182	0.384	0.133
-242.946	-160.457	-0.323	-0.017
-241.932	0.239	-0.201	0.141
-240.917	-200.000	-0.039	-0.210
-239.903	211.407	0.256	0.396
-238.888	-122.339	-0.135	-0.022
-237.873	-200.000	-0.017	-0.177
-236.859	-196.732	-0.286	0.002
-235.844	77.113	0.052	0.055
-234.830	170.186	-0.093	-0.130
-233.815	76.874	0.125	-0.130
-232.800	-139.874	-0.192	0.020
-231.786	-200.000	0.020	0.090
-230.771	-200.000	-0.002	0.144
-229.757	800.000	0.036	-0.139
-228.742	-16.258	0.234	0.145
-227.727	10.133	0.112	0.083
-226.713	-169.781	0.145	-0.005
-225.698	109.723	0.232	0.273
-224.684	-111.328	-0.164	0.033
-223.669	-175.544	0.248	0.007
-222.655	155.669	-0.043	0.058
-221.640	-200.000	-0.072	-0.361
-220.625	3.382	0.384	-0.274
-219.611	14.776	0.184	0.141
-218.596	-19.444	-0.224	-0.136
-217.582	167.854	-0.157	-0.219
-216.567	654.613	-0.064	0.162
-215.552	-46.743	-0.234	0.112
-214.538	-27.169	0.216	0.123
-213.523	-26.443	-0.132	0.076
-212.509	-200.000	-0.065	-0.363
-211.494	-200.000	0.025	-0.192
-210.479	402.660	0.094	0.195
-209.465	-7.908	0.213	-0.141
-208.450	-84.041	0.304	-0.095
-207.436	-200.000	-0.057	-0.326
-206.421	11.030	0.090	-0.068
-205.406	276.640	0.088	0.153
-204.392	-93.302	-0.019	0.005
-203.377	-200.000	0.071	-0.398
-202.363	-76.865	0.080	0.028
-201.348	800.000	-0.061	0.174
-200.333	-93.195	0.160	-0.044
-199.319	139.345	-0.157	-0.202
-198.304	-200.000	0.448	0.001
-197.290	667.175	0.005	0.013
-196.275	163.314	-0.152	-0.209
-195.260	17.271	0.092	-0.072
-194.246	800.000	0.086	-0.278
-193.231	32.524	0.182	0.154
-192.217	34.219	0.102	0.087
-191.202	-74.910	-0.432	-0.152
-190.187	606.781	0.130	-0.316
-189.173	325.301	0.082	-0.154
-188.158	198.550	0.009	0.014
-187.144	-97.322	-0.192	0.049
-186.129	800.000	0.096	-0.391
-185.114	-105.527	0.038	0.008
-184.100	800.000	0.033	0.091
-183.085	-6.604	0.067	-0.045
-182.071	594.974	-0.011	0.028
-181.056	66.357	-0.023	0.023
-180.042	-69.163	0.157	0.059
-179.027	38.930	-0.201	-0.176
-178.012	800.000	-0.054	0.206
-176.998	-39.402	-0.121	0.062
-175.983	-22.509	0.267	0.158
-174.969	-200.000	-0.065	0.350
-173.954	62.585	-0.062	0.060
-172.939	-61.593	-0.099	0.041
-171.925	-200.000	0.005	-0.055
-170.910	-200.000	-0.009	-0.344
-169.896	800.000	-0.052	0.162
-168.881	55.714	0.158	0.150
-167.866	160.982	-0.107	-0.146
-166.852	106.170	0.117	-0.135
-165.837	375.801	-0.126	-0.252
-164.823	-16.397	-0.209	-0.130
-163.808	-72.990	0.263	-0.094
-162.793	-56.817	-0.174	0.075
-161.779	800.000	0.024	-0.070
-160.764	800.000	-0.096	0.322
-159.750	192.638	0.217	0.321
-158.735	-38.585	0.280	-0.145
-157.720	75.092	-0.250	-0.257
-156.706	-200.000	0.001	-0.087
-155.691	-63.929	0.068	0.027
-154.677	134.785	-0.236	0.300
-153.662	-200.000	-0.032	-0.225
-152.647	223.705	0.152	-0.239
-151.633	-114.944	-0.374	0.070
-150.618	-200.000	0.037	-0.189
-149.604	-56.837	-0.146	-0.063
-148.589	16.732	0.047	-0.037
-147.574	54.938	-0.141	-0.133
-146.560	436.917	-0.048	-0.101
-145.545	800.000	-0.023	-0.094
-144.531	-200.000	0.001	-0.265
-143.516	-50.281	0.205	-0.095
-142.502	-81.893	0.249	0.080
-141.487	-84.442	-0.186	-0.057
-140.472	-200.000	-0.005	-0.167
-139.458	14.186	-0.154	-0.118
-138.443	44.162	0.224	-0.201
-137.429	120.951	-0.271	0.329
-136.414	346.909	0.135	0.260
-135.399	-200.000	-0.027	0.276
-134.385	639.256	0.081	0.202
-133.370	-87.507	0.068	0.020
-132.356	744.317	0.113	0.297
-131.341	-200.000	-0.008	0.146
-130.326	141.886	-0.196	-0.254
-129.312	-50.222	-0.054	0.025
-128.297	-27.409	0.157	0.089
-127.283	17.478	-0.133	0.103
-126.268	41.177	-0.157	-0.139
-125.253	-200.000	-0.018	0.126
-124.239	9.428	-0.061	-0.045
-123.224	-115.983	0.361	0.066
-122.210	-200.000	0.018	0.206
-121.195	-76.337	0.286	0.098
-120.180	-200.000	-0.027	-0.326
-119.166	-200.000	-0.005	-0.200
-118.151	-113.860	-0.306	0.058
-117.137	294.307	0.103	0.184
-116.122	-200.000	0.030	-0.221
-115.107	-87.996	-0.281	-0.082
-114.093	544.257	0.147	0.343
-113.078	46.114	-0.180	0.163
-112.064	168.415	-0.107	-0.148
-111.049	-200.000	0.047	0.488
-110.034	800.000	0.019	0.081
-109.020	321.574	-0.052	0.096
-108.005	2.972	0.024	0.017
-106.991	171.073	0.226	0.316
-105.976	146.721	0.051	-0.067
-104.962	307.207	0.112	0.203
-103.947	-200.000	-0.024	-0.123
-102.932	-7.747	0.170	0.112
-101.918	-113.922	0.251	0.048
-100.903	646.643	0.089	-0.221
-99.889	6.510	0.097	-0.071
-98.874	800.000	0.037	-0.128
-97.859	-200.000	-0.002	0.072
-96.845	-162.212	-0.284	-0.014
-95.830	-32.214	0.133	-0.073
-94.816	36.328	-0.074	-0.064
-93.801	49.910	0.143	-0.132
-92.786	-43.203	0.474	0.234
-91.772	62.479	0.252	-0.245
-90.757	143.342	0.114	0.148
-89.743	96.817	-0.208	-0.232
-88.728	800.000	0.038	-0.112
-87.713	19.390	0.121	-0.095
-86.699	265.143	0.149	-0.253
-85.684	-200.000	0.009	0.094
-84.670	-81.426	-0.102	0.033
-83.655	-66.798	-0.172	0.066
-82.640	-200.000	-0.014	-0.081
-81.626	-53.217	-0.319	0.143
-80.611	-200.000	-0.007	0.172
-79.597	442.091	0.129	-0.275
-78.582	-8.559	0.187	0.122
-77.567	-13.556	-0.368	0.232
-76.553	-58.557	0.265	-0.112
-75.538	26.011	0.030	0.025
-74.524	-101.312	-0.205	0.049
-73.509	193.567	0.014	0.020
-72.494	442.446	-0.117	-0.249
-71.480	-200.000	-0.036	-0.235
-70.465	-102.361	0.144	0.034
-69.451	-149.852	0.231	0.018
-68.436	-200.000	0.020	-0.132
-67.422	22.252	0.138	-0.110
-66.407	-200.000	0.036	0.362
-65.392	800.000	0.064	0.191
-64.378	77.338	0.187	0.194
-63.363	800.000	-0.078	0.259
-62.349	-116.150	-0.318	0.057
-61.334	112.295	-1.157	-1.364
-60.319	6.584	0.871	0.631
-59.305	302.896	-0.621	-1.121
-58.290	334.437	0.795	1.500
-57.276	312.881	0.757	1.386
-56.261	-200.000	126.352	673.019
-55.246	421.385	1587.907	3317.601
-54.232	141.531	2740.306	3534.911
-53.217	95.685	2175.853	2418.767
-52.203	33.482	1693.693	1433.026
-51.188	26.132	1511.878	1229.301
-50.173	24.319	1487.912	1197.608
-49.159	48.869	1560.285	1426.115
-48.144	45.720	1573.070	1416.030
-47.130	26.175	1521.348	1237.103
-46.115	23.381	1504.700	1204.551
-45.100	23.132	1501.805	1200.500
-44.086	23.094	1499.575	1198.411
-43.071	23.010	1497.976	1196.518
-42.057	23.050	1496.110	1195.251
-41.042	22.984	1495.128	1193.969
-40.027	23.121	1493.172	1193.289
-39.013	23.036	1491.498	1191.331
-37.998	23.065	1490.498	1190.679
-36.984	22.957	1489.876	1189.406
-35.969	22.996	1488.056	1188.166
-34.954	23.017	1486.573	1187.075
-33.940	22.975	1485.825	1186.150
-32.925	23.048	1484.157	1185.266
-31.911	23.032	1483.101	1184.266
-30.896	23.163	1481.304	1183.659
-29.881	23.106	1480.436	1182.540
-28.867	23.157	1478.821	1181.541
-27.852	23.158	1477.471	1180.423
-26.838	23.191	1475.948	1179.379
-25.823	23.124	1474.378	1177.635
-24.809	23.075	1473.094	1176.236
-23.794	23.073	1471.634	1175.006
-22.779	23.117	1470.354	1174.230
-21.765	23.160	1469.097	1173.463
-20.750	23.165	1467.808	1172.424
-19.736	23.059	1467.555	1171.471
-18.721	23.105	1466.005	1170.496
-17.706	23.095	1464.977	1169.556
-16.692	23.071	1464.064	1168.626
-15.677	22.981	1463.567	1167.591
-14.663	23.069	1462.128	1166.971
-13.648	23.129	1460.919	1166.356
-12.633	23.144	1460.044	1165.714
-11.619	23.128	1459.175	1164.864
-10.604	23.072	1458.813	1164.160
-9.590	23.038	1457.577	1162.908
-8.575	23.018	1456.520	1161.885
-7.560	23.204	1455.488	1162.239
-6.546	23.052	1455.104	1160.890
-5.531	23.100	1454.175	1160.418
-4.517	23.159	1452.637	1159.527
-3.502	23.018	1452.353	1158.332
-2.487	23.093	1451.175	1157.838
-1.473	23.064	1450.405	1156.988
-0.458	23.049	1448.797	1155.562
0.556	21.325	1439.072	1144.087
1.571	18.161	1415.521	1104.853
2.586	14.827	1354.095	1036.181
3.600	13.391	1271.079	964.209
4.615	12.341	1228.031	925.558
5.629	10.714	1171.961	874.460
6.644	5.310	1090.916	786.772
7.659	0.763	1056.380	739.592
8.673	0.180	1050.797	732.780
9.688	0.187	1047.472	730.431
10.702	0.085	1045.948	728.809
11.717	0.207	1043.026	727.297
12.731	2.031	1044.348	736.969
13.746	8.130	1052.524	772.288
14.761	14.366	1060.808	808.651
15.775	16.688	1063.454	821.885
16.790	16.502	1061.733	819.577
17.804	15.431	1059.967	812.957
18.819	14.719	1057.765	807.754
19.834	14.167	1056.235	803.847
20.848	13.998	1055.424	802.342
21.863	13.756	1054.683	800.541
22.877	13.508	1054.280	798.969
23.892	13.313	1053.415	797.301
24.907	13.400	1051.946	796.539
25.921	13.149	1051.731	795.096
26.936	13.332	1051.086	795.418
27.950	13.255	1050.325	794.404
28.965	13.256	1049.848	793.976
29.980	13.300	1048.687	793.242
30.994	13.405	1047.594	792.848
32.009	13.500	1046.453	792.367
33.023	13.486	1046.202	792.039
34.038	13.350	1045.971	791.145
35.053	13.429	1044.259	790.159
36.067	13.390	1043.431	789.273
37.082	13.415	1042.704	788.773
38.096	13.397	1042.154	788.201
39.111	13.290	1041.551	787.168
40.126	13.314	1040.575	786.475
41.140	13.299	1039.418	785.458
42.155	13.248	1038.335	784.328
43.169	13.255	1037.233	783.461
44.184	13.175	1036.267	782.284
45.199	13.247	1035.125	781.693
46.213	13.190	1034.249	780.694
47.228	13.232	1033.403	780.183
48.242	13.336	1032.027	779.566
49.257	13.353	1031.174	778.932
50.271	13.351	1029.852	777.855
51.286	13.227	1029.657	777.057
52.301	13.331	1028.285	776.442
53.315	13.337	1027.646	775.916
54.330	13.268	1026.951	775.001
55.344	13.238	1025.959	774.041
56.359	13.184	1024.901	772.924
57.374	13.224	1024.241	772.545
58.388	13.144	1023.560	771.590
59.403	13.164	1022.579	770.876
60.417	13.192	1021.960	770.470
61.432	13.201	1021.222	769.887
62.447	13.170	1020.409	769.062
63.461	13.158	1019.693	768.400
64.476	13.107	1018.717	767.359
65.490	13.171	1018.020	767.063
66.505	13.213	1017.043	766.452
67.520	13.146	1016.317	765.527
68.534	13.176	1015.532	765.010
69.549	13.299	1014.326	764.598
70.563	13.351	1013.594	764.221
71.578	13.184	1013.170	763.062
72.593	13.177	1012.174	762.211
73.607	13.009	1011.503	760.864
74.622	13.018	1010.701	760.237
75.636	13.200	1009.399	760.025
76.651	13.176	1009.251	759.737
77.666	13.054	1008.089	758.234
78.680	13.047	1007.453	757.657
79.695	13.110	1007.413	757.848
80.709	13.102	1006.888	757.352
81.724	13.167	1005.718	756.702
82.739	13.195	1004.693	755.993
83.753	13.266	1003.836	755.605
84.768	13.266	1003.734	755.460
85.782	13.392	1002.404	754.968
86.797	13.393	1001.827	754.472
87.812	13.361	1000.631	753.358
88.826	13.356	999.826	752.664
89.841	13.442	998.795	752.208
90.855	13.340	998.141	751.189
91.870	13.345	997.820	750.902
92.884	13.461	996.685	750.508
93.899	13.475	996.298	750.212
94.914	13.440	995.731	749.563
95.928	13.571	994.925	749.483
96.943	13.533	994.063	748.592
97.957	13.443	993.548	747.732
98.972	13.491	992.583	747.157
99.987	13.492	991.880	746.567
101.001	13.513	990.941	745.890
102.016	13.396	990.691	745.110
103.030	13.379	989.641	744.176
104.045	13.476	988.048	743.346
105.060	13.430	987.537	742.691
106.074	13.493	986.272	741.955
107.089	13.291	985.820	740.644
108.103	13.219	984.972	739.622
109.118	13.256	983.908	738.920
110.133	13.284	983.151	738.413
111.147	13.269	982.161	737.536
112.162	13.263	981.720	737.115
113.176	13.334	980.316	736.310
114.191	13.363	979.377	735.670
115.206	13.386	978.398	734.973
116.220	13.399	977.880	734.577
117.235	13.427	976.806	733.827
118.249	13.347	976.351	733.068
119.264	13.352	975.739	732.564
120.279	13.416	974.586	731.916
121.293	13.395	973.910	731.249
122.308	13.251	972.738	729.671
123.322	13.336	972.396	729.722
124.337	13.216	971.114	728.167
125.352	13.314	969.938	727.652
126.366	13.247	968.908	726.520
127.381	13.235	967.675	725.480
128.395	13.164	966.698	724.372
129.410	13.181	966.121	723.952
130.424	13.287	965.421	723.827
131.439	13.364	963.873	722.938
132.454	13.396	962.933	722.310
133.468	13.387	962.565	721.930
134.483	13.314	962.067	721.173
135.497	13.245	961.268	720.212
136.512	13.360	960.280	719.908
137.527	13.473	959.208	719.530
138.541	13.333	959.048	718.739
139.556	13.308	958.317	718.018
140.570	13.401	957.859	718.016
141.585	13.314	956.792	716.775
142.600	13.477	956.039	716.856
143.614	13.500	955.635	716.586
144.629	13.500	954.723	715.839
145.643	13.605	953.826	715.558
146.658	13.682	952.707	714.988
147.673	13.483	952.064	713.582
148.687	13.434	950.899	712.437
149.702	13.520	950.562	712.489
150.716	13.516	949.290	711.458
151.731	13.437	948.722	710.629
152.746	13.521	947.923	710.326
153.760	13.429	947.180	709.315
154.775	13.496	946.596	709.100
155.789	13.516	945.709	708.458
156.804	13.591	945.354	708.452
157.819	13.499	944.745	707.539
158.833	13.620	943.865	707.335
159.848	13.695	943.234	707.117
160.862	13.671	942.596	706.475
161.877	13.701	941.551	705.759
162.892	13.710	940.410	704.877
163.906	13.624	939.914	704.080
164.921	13.443	939.543	702.970
165.935	13.444	938.254	701.947
166.950	13.596	937.430	701.911
167.964	13.672	936.187	701.240
168.979	13.743	935.607	701.043
169.994	13.665	934.345	699.707
171.008	13.565	934.030	698.988
172.023	13.682	932.905	698.580
173.037	13.738	932.099	698.147
174.052	13.677	931.610	697.462
175.067	13.859	930.500	697.334
176.081	13.745	929.995	696.415
177.096	13.679	929.128	695.429
178.110	13.555	928.260	694.199
179.125	13.670	927.784	694.262
180.140	13.587	927.223	693.432
181.154	13.738	926.331	693.336
182.169	13.657	925.717	692.477
183.183	13.813	925.148	692.641
184.198	13.737	924.212	691.564
185.213	13.989	923.415	691.953
186.227	13.892	922.888	691.094
187.242	13.875	922.549	690.710
188.256	13.974	921.612	690.359
189.271	13.944	921.116	689.801
190.286	13.983	920.774	689.646
191.300	13.931	919.794	688.633
192.315	13.809	918.620	687.190
193.329	13.833	917.874	686.669
194.344	13.877	917.188	686.279
195.359	13.881	916.950	686.058
196.373	13.890	916.272	685.524
197.388	13.955	916.003	685.532
198.402	14.004	915.055	684.965
199.417	14.069	914.811	684.988
200.432	14.080	914.175	684.497
201.446	14.067	914.069	684.304
202.461	14.322	913.350	684.753
203.475	14.300	912.809	684.197
204.490	14.111	912.511	683.138
205.504	14.193	911.124	682.373
206.519	14.184	910.442	681.765
207.534	14.224	909.730	681.334
208.548	14.123	909.269	680.515
209.563	14.099	908.304	679.637
210.577	14.151	907.731	679.358
211.592	14.232	907.063	679.129
212.607	14.228	906.851	678.897
213.621	14.285	905.781	678.266
214.636	14.361	905.040	677.960
215.650	14.268	904.176	676.874
216.665	14.301	904.078	676.875
217.680	14.258	903.634	676.308
218.694	14.330	903.035	676.091
219.709	14.426	902.332	675.897
220.723	14.404	901.640	675.229
221.738	14.322	901.075	674.414
222.753	14.226	900.642	673.643
223.767	14.233	899.848	673.018
224.782	14.263	899.226	672.613
225.796	14.455	898.095	672.483
226.811	14.477	897.910	672.372
227.826	14.368	897.305	671.421
228.840	14.393	896.293	670.707
229.855	14.449	895.625	670.370
230.869	14.447	894.996	669.835
231.884	14.596	893.847	669.512
232.899	14.533	893.512	668.947
233.913	14.517	892.491	668.063
234.928	14.466	892.329	667.679
235.942	14.541	891.480	667.283
236.957	14.531	890.728	666.620
237.972	14.572	890.047	666.217
238.986	14.438	889.761	665.406
240.001	14.480	888.829	664.818
241.015	14.564	888.296	664.697
242.030	14.643	887.281	664.193
243.045	14.581	886.980	663.662
244.059	14.651	886.518	663.538
245.074	14.703	885.558	662.964
246.088	14.561	885.350	662.187
247.103	14.655	884.577	661.924
248.117	14.695	883.951	661.555
249.132	14.780	883.573	661.551
250.147	14.838	882.795	661.138
251.161	14.838	882.129	660.581
252.176	15.046	881.209	660.653
253.190	14.876	881.170	659.895
254.205	14.920	880.436	659.461
255.220	15.100	879.301	659.263
256.234	15.065	878.545	658.500
257.249	15.086	877.833	657.991
258.263	15.104	877.681	657.889
259.278	15.091	877.139	657.373
260.293	15.095	876.679	656.986
261.307	15.145	875.788	656.456
262.322	15.201	875.800	656.625
263.336	15.200	874.934	655.916
264.351	15.277	873.973	655.438
265.366	15.146	873.981	654.874
266.380	15.223	873.095	654.451
267.395	15.238	872.419	653.944
268.409	15.269	871.490	653.313
269.424	15.152	870.875	652.339
270.439	15.330	870.448	652.654
271.453	15.241	869.707	651.693
272.468	15.153	868.921	650.705
273.482	15.211	868.284	650.396
274.497	15.171	868.070	650.023
275.512	15.149	867.184	649.216
276.526	15.254	866.077	648.738
277.541	15.424	865.421	648.843
278.555	15.245	864.805	647.633
279.570	15.241	864.948	647.667
280.585	15.324	863.950	647.185
281.599	15.413	863.791	647.353
282.614	15.302	863.097	646.345
283.628	15.431	862.144	646.074
284.643	15.337	862.065	645.595
285.657	15.450	861.019	645.187
286.672	15.388	860.760	644.698
287.687	15.478	860.461	644.764
288.701	15.346	859.910	643.786
289.716	15.561	858.880	643.782
290.730	15.500	858.222	642.997
291.745	15.569	857.908	642.970
292.760	15.543	857.241	642.314
293.774	15.441	856.771	641.515
294.789	15.672	855.778	641.597
295.803	15.597	855.280	640.881
296.818	15.755	854.285	640.681
297.833	15.580	854.071	639.795
298.847	15.489	853.472	638.945
299.862	15.674	852.305	638.718
300.876	15.799	851.817	638.771
301.891	15.681	851.409	637.958
302.906	15.749	850.443	637.438
303.920	15.702	850.226	637.040
304.935	15.685	849.665	636.501
305.949	15.753	849.122	636.295
306.964	15.716	848.588	635.696
307.979	15.860	847.505	635.374
308.993	15.874	847.428	635.313
310.008	15.795	846.512	634.273
311.022	15.905	846.406	634.551
312.037	15.927	845.567	633.950
313.052	15.875	845.180	633.406
314.066	15.791	844.358	632.418
315.081	15.918	843.793	632.417
316.095	15.842	843.379	631.764
317.110	15.840	842.829	631.290
318.125	15.832	842.424	630.899
319.139	15.919	841.864	630.751
320.154	15.943	841.666	630.637
321.168	15.891	841.287	630.101
322.183	15.972	840.474	629.741
323.197	15.957	839.585	628.962
324.212	16.100	839.180	629.135
325.227	16.040	838.409	628.279
326.241	16.129	837.911	628.183
327.256	15.950	837.354	627.042
328.270	15.993	836.955	626.849
329.285	16.162	836.287	626.920
330.300	16.019	835.538	625.772
331.314	16.093	834.910	625.521
332.329	16.056	834.622	625.114
333.343	15.985	833.852	624.218
334.358	16.141	833.304	624.329
335.373	16.215	832.877	624.231
336.387	16.103	832.259	623.296
337.402	16.252	831.653	623.337
338.416	16.202	831.168	622.736
339.431	16.197	830.683	622.298
340.446	16.463	829.954	622.678
341.460	16.155	829.343	621.029
342.475	16.389	829.153	621.692
343.489	16.464	828.170	621.176
344.504	16.339	828.118	620.622
345.519	16.441	827.025	620.123
346.533	16.540	826.997	620.412
347.548	16.517	826.400	619.826
348.562	16.457	825.897	619.171
349.577	16.369	825.600	618.574
350.592	16.387	825.080	618.193
351.606	16.436	824.632	617.984
352.621	16.416	823.987	617.371
353.635	16.304	823.581	616.602
354.650	16.529	823.380	617.220
355.665	16.420	822.841	616.362
356.679	16.650	821.932	616.468
357.694	16.375	821.814	615.323
358.708	16.420	821.143	614.928
359.723	16.498	820.844	614.935
360.738	16.581	819.996	614.548
361.752	16.604	819.255	614.021
362.767	16.454	819.247	613.414
363.781	16.538	818.860	613.376
364.796	16.506	818.381	612.848
365.810	16.687	817.792	613.007
366.825	16.736	817.373	612.814
367.840	16.712	816.927	612.339
368.854	16.828	816.732	612.561
369.869	16.721	816.360	611.839
370.883	16.716	815.677	611.254
371.898	16.843	814.690	610.919
372.913	16.857	814.313	610.635
373.927	16.912	813.760	610.362
374.942	16.927	813.052	609.832
375.956	16.796	812.370	608.796
376.971	16.830	811.892	608.505
377.986	16.972	811.107	608.372
379.000	16.900	810.982	607.968
380.015	17.125	810.161	608.104
381.029	17.003	809.818	607.354
382.044	17.060	809.175	607.022
383.059	16.957	808.752	606.284
384.073	17.032	808.263	606.132
385.088	17.215	807.592	606.229
386.102	16.996	807.245	605.132
387.117	16.886	806.585	604.191
388.132	16.965	806.263	604.180
389.146	16.970	805.766	603.771
390.161	16.960	805.494	603.480
391.175	16.972	805.272	603.300
392.190	16.961	805.072	603.061
393.205	17.193	804.139	603.132
394.219	17.030	804.093	602.466
395.234	17.090	803.291	602.021
396.248	17.144	802.606	601.647
397.263	17.121	802.185	601.197
398.278	17.082	802.009	600.873
399.292	17.189	800.976	600.424
400.307	17.076	801.057	600.032
401.321	17.207	800.606	600.106
402.336	17.146	800.492	599.751
403.350	17.205	799.685	599.301
404.365	17.203	799.388	599.021
405.380	17.177	799.104	598.662
406.394	17.270	798.211	598.268
407.409	17.336	798.150	598.399
408.423	17.382	797.803	598.250
409.438	17.354	797.048	597.529
410.453	17.440	796.762	597.566
411.467	17.296	796.503	596.813
412.482	17.665	795.286	597.143
413.496	17.342	795.638	596.222
414.511	17.467	795.124	596.222
415.526	17.418	794.719	595.693
416.540	17.414	794.378	595.372
417.555	17.582	794.110	595.704
418.569	17.434	793.778	594.884
419.584	17.638	792.430	594.534
420.599	17.608	792.445	594.389
421.613	113.853	1297.522	1487.665
422.628	97.935	1371.068	1487.732
