DTS Sentinel unit serial number:	SN413079Multiplexer serial number:	ORYXHardware model number:	OX4-SRSoftware version number:	ORYX F/W v4.00 Oryx Data Collector v3.7.2.0data status	okinstallation	princeton_trtdifferential loss correction	single-endedforward channel	channel 3reverse channel	N/Adate	2019/09/16time	22:40:34forward acquisition time	60.00reverse acquisition time	0.00gamma	496.2192k internal	0.2325k external	0.2325temperature offset calibration	0.9939default loss term (dB/km)	0.3790temperature slope calibration	1.0000multiplexer offset coefficient	1.0000multiplexer slope coefficient	1.0000fibre end	0.00T internal ref (°C)	30.62T ext. ref 1 (°C)	0.08T ext. ref 2 (°C)	24.22length (m)	temperature (°C)	Stokes	anti-Stokes-747.200	-58.042	0.377	0.166
-746.185	-133.417	0.117	0.015
-745.171	277.847	0.056	-0.101
-744.156	139.353	0.138	0.183
-743.142	-145.218	0.261	0.024
-742.127	-129.087	0.149	0.021
-741.112	-198.598	0.252	0.001
-740.098	-31.414	-0.206	0.117
-739.083	-107.067	0.207	-0.046
-738.069	-155.733	-0.103	0.007
-737.054	284.436	-0.160	-0.290
-736.039	800.000	-0.127	-0.473
-735.025	10.238	0.337	-0.258
-734.010	-200.000	0.060	-0.479
-732.996	-68.329	-0.605	-0.237
-731.981	-200.000	0.027	0.170
-730.966	21.508	-0.157	-0.129
-729.952	-106.166	-0.300	0.068
-728.937	-162.964	-0.141	0.007
-727.923	74.339	0.142	-0.150
-726.908	-200.000	0.018	0.365
-725.894	-178.189	-0.263	-0.006
-724.879	-148.677	0.070	0.006
-723.864	800.000	-0.078	0.238
-722.850	0.303	0.223	0.161
-721.835	647.923	0.056	0.145
-720.821	182.535	0.196	0.291
-719.806	-103.128	0.370	-0.088
-718.791	800.000	0.045	-0.126
-717.777	-46.315	-0.102	0.050
-716.762	-200.000	0.018	-0.129
-715.748	0.543	0.100	-0.072
-714.733	-200.000	-0.009	-0.083
-713.718	-200.000	0.024	-0.381
-712.704	44.135	-0.409	-0.378
-711.689	-200.000	0.038	-0.209
-710.675	-135.254	0.165	0.020
-709.660	81.904	0.131	0.143
-708.645	380.846	0.112	0.231
-707.631	-168.466	0.026	0.001
-706.616	186.814	0.208	0.312
-705.602	95.397	0.089	-0.102
-704.587	-3.302	-0.193	-0.135
-703.572	-82.565	-0.233	0.076
-702.558	317.483	-0.226	-0.431
-701.543	14.799	0.164	-0.129
-700.529	-200.000	-0.010	0.218
-699.514	-200.000	-0.043	-0.264
-698.499	-200.000	-0.000	-0.205
-697.485	596.895	0.065	0.162
-696.470	357.793	-0.189	-0.379
-695.456	129.177	-0.177	0.228
-694.441	-200.000	-0.017	-0.248
-693.426	-94.113	-0.112	-0.031
-692.412	591.273	-0.139	0.346
-691.397	-200.000	-0.005	-0.175
-690.383	-200.000	-0.004	-0.048
-689.368	254.837	-0.148	0.255
-688.354	-168.034	0.496	-0.019
-687.339	-92.736	-0.066	-0.019
-686.324	455.716	0.114	-0.255
-685.310	20.758	-0.023	0.019
-684.295	368.541	-0.096	0.196
-683.281	156.929	-0.105	-0.147
-682.266	160.492	-0.110	0.154
-681.251	160.153	0.106	0.148
-680.237	-89.243	-0.339	0.101
-679.222	-200.000	0.002	0.042
-678.208	-200.000	0.035	0.290
-677.193	185.323	0.061	0.092
-676.178	42.911	0.172	0.158
-675.164	800.000	-0.030	-0.130
-674.149	800.000	0.114	-0.393
-673.135	72.253	-0.163	0.171
-672.120	119.444	0.010	-0.013
-671.105	303.482	-0.161	-0.300
-670.091	-95.944	-0.238	-0.064
-669.076	259.053	-0.064	-0.111
-668.062	414.425	-0.081	-0.174
-667.047	581.833	-0.090	0.221
-666.032	-24.605	0.243	0.146
-665.018	163.474	-0.056	-0.079
-664.003	-200.000	0.008	0.115
-662.989	-200.000	0.018	0.289
-661.974	143.974	-0.185	-0.248
-660.959	-16.890	0.113	-0.072
-659.945	35.610	0.035	0.031
-658.930	66.486	-0.020	0.021
-657.916	-200.000	-0.004	-0.077
-656.901	115.336	-0.013	-0.016
-655.886	800.000	0.084	0.302
-654.872	-153.178	-0.156	0.011
-653.857	-200.000	0.069	-0.483
-652.843	-200.000	-0.016	-0.087
-651.828	58.400	-0.077	0.076
-650.814	461.867	0.027	-0.060
-649.799	-200.000	0.017	-0.289
-648.784	165.234	-0.233	-0.331
-647.770	-200.000	0.004	-0.196
-646.755	60.314	-0.159	-0.158
-645.741	235.704	-0.158	0.263
-644.726	800.000	-0.083	-0.283
-643.711	-91.357	0.191	0.055
-642.697	-200.000	-0.047	0.255
-641.682	-97.884	-0.177	-0.046
-640.668	-83.666	0.128	-0.041
-639.653	193.924	-0.112	0.170
-638.638	-32.511	0.045	-0.025
-637.624	17.101	-0.183	-0.146
-636.609	98.679	0.087	0.101
-635.595	494.280	-0.116	-0.267
-634.580	162.992	0.140	-0.197
-633.565	800.000	-0.067	-0.276
-632.551	-24.490	0.192	-0.115
-631.536	-200.000	0.003	-0.291
-630.522	-200.000	-0.012	0.057
-629.507	-105.894	0.161	-0.037
-628.492	-54.730	-0.212	-0.096
-627.478	251.850	0.155	-0.265
-626.463	194.746	-0.027	-0.041
-625.449	-41.938	0.331	-0.170
-624.434	117.423	-0.245	-0.303
-623.419	170.275	-0.074	0.107
-622.405	-55.618	-0.180	0.081
-621.390	56.717	-0.047	0.046
-620.376	-14.589	-0.338	-0.218
-619.361	-73.808	-0.278	-0.101
-618.346	6.692	0.242	0.181
-617.332	-102.115	-0.213	0.051
-616.317	104.786	-0.081	0.096
-615.303	-111.926	0.303	0.061
-614.288	-200.000	-0.042	-0.254
-613.273	-134.274	0.129	-0.016
-612.259	-7.321	-0.273	0.186
-611.244	-82.799	-0.104	-0.034
-610.230	792.837	0.148	0.410
-609.215	-86.720	-0.347	-0.107
-608.201	-200.000	0.035	0.342
-607.186	-200.000	0.019	-0.482
-606.171	-109.337	-0.044	-0.009
-605.157	-200.000	0.025	-0.173
-604.142	-200.000	-0.043	0.304
-603.128	-163.829	0.027	0.001
-602.113	44.619	-0.218	-0.201
-601.098	29.695	-0.331	0.282
-600.084	35.857	0.051	0.045
-599.069	-200.000	-0.034	0.189
-598.055	242.790	-0.066	0.111
-597.040	800.000	0.061	0.234
-596.025	-171.250	-0.281	0.009
-595.011	314.833	0.107	-0.203
-593.996	699.063	0.088	-0.233
-592.982	800.000	-0.012	-0.048
-591.967	-5.283	0.235	-0.162
-590.952	69.193	-0.230	0.237
-589.938	129.013	-0.140	-0.179
-588.923	-120.146	0.199	0.034
-587.909	-200.000	0.012	-0.074
-586.894	112.588	-0.111	-0.134
-585.879	115.374	-0.300	0.367
-584.865	52.451	0.080	-0.076
-583.850	-114.794	-0.167	-0.032
-582.836	-200.000	0.005	-0.111
-581.821	-76.563	0.051	0.018
-580.806	-200.000	0.002	0.129
-579.792	-101.236	0.042	-0.010
-578.777	-19.580	-0.238	-0.148
-577.763	-131.879	0.351	-0.046
-576.748	45.859	0.035	-0.032
-575.733	-143.923	0.469	0.044
-574.719	205.041	0.070	0.110
-573.704	-114.225	-0.418	0.081
-572.690	165.438	0.115	-0.163
-571.675	-134.630	-0.090	-0.011
-570.661	82.501	-0.173	-0.188
-569.646	103.967	0.083	-0.098
-568.631	242.851	0.080	-0.134
-567.617	-55.285	0.255	-0.115
-566.602	200.252	0.204	0.314
-565.588	32.821	0.344	0.298
-564.573	248.232	-0.131	-0.222
-563.558	468.857	-0.082	0.185
-562.544	-200.000	0.000	0.296
-561.529	-51.093	0.231	-0.109
-560.515	-44.505	0.132	0.066
-559.500	-0.117	0.128	-0.091
-558.485	-55.768	0.043	-0.019
-557.471	-200.000	-0.005	-0.529
-556.456	-200.000	-0.019	0.111
-555.442	800.000	0.025	-0.099
-554.427	45.999	-0.147	-0.136
-553.412	800.000	0.110	-0.464
-552.398	800.000	0.015	-0.063
-551.383	800.000	0.019	0.071
-550.369	-122.276	-0.202	-0.033
-549.354	-148.625	0.460	-0.038
-548.339	-200.000	0.099	0.487
-547.325	-10.073	-0.316	0.210
-546.310	26.782	-0.285	-0.239
-545.296	800.000	0.018	-0.064
-544.281	-103.291	-0.090	0.021
-543.266	72.317	0.191	0.199
-542.252	-151.868	-0.090	-0.007
-541.237	-200.000	0.033	0.274
-540.223	-88.196	0.172	0.052
-539.208	214.443	0.179	-0.283
-538.193	-39.898	-0.261	0.136
-537.179	800.000	0.117	-0.428
-536.164	109.143	-0.201	-0.240
-535.150	-4.656	-0.199	-0.138
-534.135	-185.810	-0.225	0.003
-533.121	-48.699	0.294	0.141
-532.106	88.493	-0.098	-0.108
-531.091	144.128	0.100	-0.133
-530.077	69.977	0.169	-0.174
-529.062	800.000	-0.093	0.271
-528.048	-67.805	0.316	0.124
-527.033	69.589	0.236	-0.244
-526.018	-120.501	-0.164	0.028
-525.004	177.873	0.113	-0.164
-523.989	-175.842	0.080	-0.002
-522.975	-69.067	-0.189	-0.073
-521.960	-7.489	-0.027	-0.018
-520.945	-200.000	0.041	0.331
-519.931	91.412	0.181	0.204
-518.916	-46.566	-0.373	-0.183
-517.902	14.136	0.180	-0.140
-516.887	483.285	-0.086	0.195
-515.872	97.444	0.167	0.192
-514.858	800.000	0.104	-0.353
-513.843	223.524	-0.116	-0.187
-512.829	-200.000	0.002	0.058
-511.814	-93.735	0.151	-0.042
-510.799	-200.000	0.021	-0.367
-509.785	800.000	-0.098	0.313
-508.770	-200.000	-0.029	0.266
-507.756	-93.722	-0.446	0.123
-506.741	-200.000	-0.066	-0.351
-505.726	-100.803	0.267	-0.066
-504.712	384.179	-0.081	0.166
-503.697	204.537	-0.122	0.188
-502.683	80.874	-0.218	0.235
-501.668	423.627	-0.029	0.063
-500.653	-42.584	0.315	0.160
-499.639	-66.834	0.465	-0.184
-498.624	46.309	0.196	-0.181
-497.610	-1.112	-0.243	-0.172
-496.595	-155.699	-0.275	0.018
-495.581	-200.000	-0.016	-0.141
-494.566	-92.006	-0.051	-0.015
-493.551	-200.000	0.023	0.161
-492.537	457.473	0.180	-0.399
-491.522	662.603	-0.026	0.067
-490.508	-200.000	-0.095	-0.000
-489.493	140.468	-0.106	0.140
-488.478	-62.013	0.142	-0.059
-487.464	115.375	0.073	-0.089
-486.449	195.867	-0.212	0.323
-485.435	800.000	0.072	-0.262
-484.420	463.233	-0.171	0.382
-483.405	800.000	0.063	0.230
-482.391	96.882	0.070	0.081
-481.376	-104.662	-0.150	-0.035
-480.362	-200.000	0.006	0.067
-479.347	64.802	0.113	-0.114
-478.332	259.264	0.026	-0.045
-477.318	800.000	0.051	0.185
-476.303	-62.862	-0.042	-0.018
-475.289	-123.624	0.282	-0.045
-474.274	120.962	0.150	-0.186
-473.259	-200.000	0.025	0.197
-472.245	94.963	-0.117	0.133
-471.230	551.982	0.081	0.195
-470.216	79.419	-0.170	0.182
-469.201	4.460	-0.085	-0.062
-468.186	565.404	-0.125	-0.303
-467.172	509.107	0.112	-0.259
-466.157	254.604	-0.083	0.141
-465.143	-200.000	0.004	-0.052
-464.128	-79.365	-0.096	0.032
-463.113	-53.578	0.252	0.115
-462.099	1.322	-0.181	0.130
-461.084	-167.340	-0.186	-0.007
-460.070	-40.388	0.339	0.176
-459.055	800.000	-0.072	0.264
-458.040	19.133	0.092	-0.074
-457.026	-200.000	-0.060	-0.303
-456.011	-146.640	0.305	-0.026
-454.997	-60.150	0.052	-0.022
-453.982	-29.056	-0.286	0.164
-452.968	-55.989	-0.079	-0.035
-451.953	-59.246	0.239	0.103
-450.938	-200.000	-0.001	0.058
-449.924	21.480	-0.208	0.169
-448.909	-200.000	0.023	-0.204
-447.895	797.195	-0.145	-0.399
-446.880	-84.564	-0.412	-0.130
-445.865	-190.852	-0.171	-0.002
-444.851	11.633	0.237	-0.182
-443.836	-200.000	0.003	-0.123
-442.822	-200.000	-0.027	0.217
-441.807	600.266	-0.073	-0.182
-440.792	364.853	0.152	-0.304
-439.778	-200.000	0.008	0.212
-438.763	20.842	-0.183	-0.147
-437.749	7.379	-0.127	-0.095
-436.734	-75.789	0.303	-0.107
-435.719	75.596	0.092	0.096
-434.705	-200.000	0.005	-0.281
-433.690	-59.022	0.164	-0.071
-432.676	-144.372	0.375	-0.035
-431.661	176.174	0.217	0.314
-430.646	-26.531	0.066	0.039
-429.632	120.363	0.248	-0.307
-428.617	20.105	-0.119	-0.096
-427.603	6.311	-0.170	0.126
-426.588	-200.000	-0.056	0.268
-425.573	443.413	-0.127	-0.278
-424.559	-41.519	-0.123	-0.063
-423.544	13.898	0.127	-0.098
-422.530	-200.000	-0.008	0.272
-421.515	800.000	0.031	-0.096
-420.500	-200.000	0.036	0.160
-419.486	12.653	0.162	-0.125
-418.471	73.208	-0.108	-0.113
-417.457	25.191	0.098	0.081
-416.442	-200.000	-0.013	0.234
-415.428	800.000	0.060	-0.230
-414.413	167.573	0.139	-0.197
-413.398	67.609	-0.229	0.233
-412.384	-200.000	0.003	0.029
-411.369	-30.311	0.133	0.075
-410.355	82.719	0.121	-0.131
-409.340	800.000	-0.086	0.252
-408.325	260.706	0.085	0.146
-407.311	38.046	0.182	-0.161
-406.296	28.455	-0.081	-0.068
-405.282	226.831	-0.148	-0.240
-404.267	800.000	0.108	0.366
-403.252	551.117	0.084	0.200
-402.238	77.462	-0.173	-0.184
-401.223	-200.000	-0.019	-0.222
-400.209	800.000	0.062	0.258
-399.194	-37.975	0.234	-0.124
-398.179	439.702	-0.079	0.172
-397.165	221.082	0.031	-0.050
-396.150	97.741	-0.173	0.198
-395.136	-44.996	0.183	-0.091
-394.121	-159.736	-0.134	0.007
-393.106	-4.549	-0.128	0.088
-392.092	-172.508	-0.210	0.007
-391.077	44.618	-0.138	0.126
-390.063	724.017	0.060	0.158
-389.048	-185.473	0.360	0.005
-388.033	-170.485	0.131	0.005
-387.019	-200.000	0.004	0.105
-386.004	-200.000	0.038	0.324
-384.990	483.974	-0.141	0.320
-383.975	-94.899	0.077	0.021
-382.960	-200.000	-0.041	0.256
-381.946	131.152	0.245	0.313
-380.931	-149.182	-0.374	0.030
-379.917	28.798	-0.162	-0.136
-378.902	-79.891	0.238	-0.080
-377.888	53.867	0.349	-0.334
-376.873	-153.318	0.248	0.017
-375.858	636.846	0.065	-0.163
-374.844	-148.869	0.109	0.009
-373.829	-142.560	-0.216	-0.021
-372.815	26.447	-0.167	0.139
-371.800	-4.805	-0.136	-0.093
-370.785	-62.627	-0.332	0.137
-369.771	-76.338	0.143	0.050
-368.756	-118.496	-0.126	-0.022
-367.742	36.681	0.135	0.118
-366.727	307.804	0.059	0.109
-365.712	214.284	0.133	0.210
-364.698	2.918	0.324	-0.234
-363.683	-200.000	-0.011	-0.459
-362.669	-200.000	0.014	-0.161
-361.654	39.584	0.156	0.139
-360.639	47.622	0.221	0.205
-359.625	-20.088	0.261	-0.160
-358.610	66.786	0.109	0.111
-357.596	74.370	0.118	0.123
-356.581	-200.000	0.114	-0.509
-355.566	-72.237	0.133	-0.049
-354.552	-102.050	-0.297	-0.071
-353.537	-77.849	-0.117	0.040
-352.523	140.189	0.097	0.127
-351.508	12.273	0.127	0.097
-350.493	-172.598	-0.317	0.010
-349.479	-200.000	-0.047	0.235
-348.464	800.000	0.042	0.137
-347.450	-200.000	-0.073	0.342
-346.435	729.630	-0.071	0.190
-345.420	-178.332	0.194	-0.004
-344.406	-110.570	0.068	0.014
-343.391	-80.173	0.259	0.086
-342.377	727.337	-0.128	0.338
-341.362	-23.478	0.191	0.114
-340.348	297.508	-0.115	0.209
-339.333	800.000	-0.073	0.265
-338.318	800.000	-0.042	-0.116
-337.304	-200.000	0.005	-0.165
-336.289	800.000	-0.079	0.266
-335.275	-200.000	-0.018	0.131
-334.260	322.834	-0.068	-0.129
-333.245	617.864	-0.107	-0.266
-332.231	96.029	0.331	0.376
-331.216	800.000	0.080	0.239
-330.202	236.938	-0.071	0.117
-329.187	-89.295	0.321	-0.094
-328.172	800.000	0.053	0.227
-327.158	361.634	-0.205	0.408
-326.143	-200.000	0.023	0.238
-325.129	-56.986	-0.043	-0.019
-324.114	-118.266	0.356	-0.063
-323.099	78.393	0.217	-0.230
-322.085	-17.882	0.076	0.047
-321.070	-132.174	-0.139	-0.018
-320.056	-85.801	0.106	-0.032
-319.041	239.705	-0.107	-0.177
-318.026	-86.362	0.218	-0.066
-317.012	315.115	0.096	0.180
-315.997	-99.225	0.016	-0.004
-314.983	423.769	0.027	-0.059
-313.968	785.228	-0.133	-0.363
-312.953	-75.579	0.165	-0.058
-311.939	-25.701	0.213	-0.125
-310.924	-43.718	-0.028	-0.014
-309.910	800.000	-0.016	0.051
-308.895	-59.563	-0.142	0.061
-307.880	282.196	-0.073	0.130
-306.866	17.703	-0.199	-0.157
-305.851	-36.255	0.230	-0.123
-304.837	800.000	0.050	0.143
-303.822	251.076	-0.092	-0.155
-302.807	242.497	-0.027	0.045
-301.793	41.438	-0.085	-0.076
-300.778	-2.823	0.135	-0.093
-299.764	35.325	-0.128	-0.112
-298.749	-57.790	-0.218	0.095
-297.735	21.009	0.012	0.009
-296.720	800.000	0.076	0.233
-295.705	229.522	0.188	0.305
-294.691	-142.163	0.069	0.007
-293.676	671.568	0.129	-0.330
-292.662	270.030	-0.102	-0.178
-291.647	-124.814	0.130	0.020
-290.632	-200.000	-0.003	0.061
-289.618	-152.694	-0.448	-0.032
-288.603	238.002	-0.052	0.086
-287.589	-59.374	0.146	0.062
-286.574	384.915	0.081	-0.166
-285.559	-71.047	0.251	0.094
-284.545	258.382	-0.081	-0.138
-283.530	105.507	-0.165	0.193
-282.516	800.000	0.106	0.357
-281.501	-74.652	-0.089	-0.032
-280.486	-72.688	0.100	-0.037
-279.472	-101.971	-0.259	-0.062
-278.457	-154.652	0.152	0.010
-277.443	-175.606	0.122	-0.003
-276.428	-150.360	0.219	0.017
-275.413	-200.000	0.023	0.208
-274.399	-130.950	0.134	0.018
-273.384	121.908	-0.387	-0.478
-272.370	310.393	-0.041	-0.076
-271.355	-18.897	0.081	-0.050
-270.340	-200.000	-0.015	0.167
-269.326	-120.677	-0.152	0.025
-268.311	-158.278	-0.133	0.008
-267.297	800.000	0.063	-0.216
-266.282	-24.631	-0.177	0.104
-265.267	-90.563	0.252	0.072
-264.253	397.610	0.211	-0.436
-263.238	72.431	0.114	-0.118
-262.224	350.425	0.202	-0.396
-261.209	-22.291	-0.139	-0.084
-260.195	-166.888	-0.130	0.005
-259.180	89.661	0.374	0.413
-258.165	165.641	-0.313	-0.438
-257.151	-200.000	0.006	-0.118
-256.136	-148.903	0.254	0.020
-255.122	-68.269	0.203	0.078
-254.107	-147.372	0.121	-0.010
-253.092	-61.131	0.535	-0.223
-252.078	608.302	0.065	-0.159
-251.063	-6.208	-0.089	-0.060
-250.049	-107.865	-0.218	0.047
-249.034	-18.946	0.173	0.106
-248.019	-136.074	0.179	-0.021
-247.005	800.000	0.028	-0.095
-245.990	72.005	0.101	0.104
-244.976	115.452	-0.211	-0.256
-243.961	-37.513	-0.212	0.112
-242.946	24.706	-0.102	0.083
-241.932	-43.228	0.111	-0.055
-240.917	-200.000	-0.006	0.147
-239.903	-16.114	-0.088	0.056
-238.888	-43.206	-0.340	-0.170
-237.873	-168.645	0.195	-0.007
-236.859	57.507	0.250	0.241
-235.844	297.672	0.130	-0.236
-234.830	-200.000	-0.029	0.180
-233.815	-200.000	-0.027	0.138
-232.800	344.815	-0.129	0.251
-231.786	-200.000	-0.023	0.220
-230.771	-33.594	-0.096	0.053
-229.757	-61.210	0.132	-0.055
-228.742	-146.282	-0.253	-0.022
-227.727	40.436	-0.080	-0.072
-226.713	-200.000	0.001	-0.201
-225.698	-164.427	0.239	0.011
-224.684	30.923	-0.179	0.151
-223.669	-11.254	0.168	0.109
-222.655	-200.000	0.014	0.162
-221.640	-131.336	-0.342	0.045
-220.625	263.691	0.120	-0.207
-219.611	-200.000	-0.011	0.181
-218.596	-2.307	-0.279	0.194
-217.582	48.408	0.261	-0.242
-216.567	-200.000	0.032	0.195
-215.552	-47.578	-0.137	-0.066
-214.538	180.372	0.304	-0.441
-213.523	-100.656	-0.360	0.088
-212.509	390.002	-0.034	0.069
-211.494	-20.822	-0.114	0.069
-210.479	47.273	-0.274	0.252
-209.465	-7.160	0.125	0.084
-208.450	-61.598	0.237	-0.098
-207.436	-200.000	-0.004	0.048
-206.421	539.013	-0.183	-0.429
-205.406	3.816	-0.171	-0.124
-204.392	-101.496	0.239	0.057
-203.377	-46.103	-0.123	-0.060
-202.363	800.000	-0.092	0.261
-201.348	26.502	-0.362	0.299
-200.333	-97.285	-0.257	0.066
-199.319	311.763	-0.203	0.376
-198.304	-3.451	-0.156	-0.107
-197.290	800.000	0.016	0.048
-196.275	32.796	-0.206	-0.176
-195.260	-200.000	-0.033	-0.192
-194.246	800.000	-0.040	0.171
-193.231	-200.000	0.004	0.203
-192.217	-32.733	0.241	0.133
-191.202	5.983	0.119	-0.087
-190.187	-200.000	0.028	0.138
-189.173	317.549	0.223	-0.416
-188.158	-171.731	-0.351	0.011
-187.144	800.000	0.081	0.320
-186.129	0.796	0.053	-0.037
-185.114	-59.957	-0.174	0.074
-184.100	-36.380	-0.202	0.107
-183.085	43.891	-0.056	0.051
-182.071	204.240	-0.136	-0.209
-181.056	159.050	0.109	-0.150
-180.042	-171.251	0.161	-0.005
-179.027	-72.754	0.238	0.087
-178.012	-0.899	-0.081	0.057
-176.998	263.669	-0.174	-0.298
-175.983	239.691	-0.135	0.221
-174.969	34.728	0.095	0.082
-173.954	-94.761	0.140	0.038
-172.939	204.344	-0.092	-0.140
-171.925	-176.662	-0.148	-0.004
-170.910	139.530	-0.144	0.187
-169.896	800.000	-0.030	-0.100
-168.881	-123.627	-0.082	0.013
-167.866	-200.000	0.047	-0.383
-166.852	21.160	-0.261	0.209
-165.837	628.635	0.069	0.173
-164.823	-200.000	0.021	-0.462
-163.808	177.777	-0.103	0.148
-162.793	-10.980	-0.324	-0.211
-161.779	375.191	-0.059	0.120
-160.764	-88.597	-0.158	-0.046
-159.750	-100.572	0.282	-0.069
-158.735	139.856	-0.142	0.185
-157.720	97.594	-0.177	0.200
-156.706	-62.205	0.019	-0.008
-155.691	5.229	-0.414	-0.301
-154.677	569.171	-0.114	0.274
-153.662	-140.728	0.106	0.011
-152.647	556.142	0.076	0.179
-151.633	-44.109	0.111	0.055
-150.618	-120.547	0.290	0.048
-149.604	-67.979	0.186	0.072
-148.589	-200.000	-0.034	0.279
-147.574	0.575	0.058	0.041
-146.560	800.000	-0.057	-0.185
-145.545	552.719	-0.114	-0.271
-144.531	800.000	0.079	0.322
-143.516	385.317	0.098	-0.200
-142.502	-9.942	-0.247	0.162
-141.487	-39.524	-0.190	0.098
-140.472	308.894	0.189	0.347
-139.458	-200.000	0.101	0.530
-138.443	13.662	0.220	0.168
-137.429	270.574	0.187	0.324
-136.414	171.172	-0.041	0.058
-135.399	-161.866	0.175	-0.009
-134.385	-36.695	0.157	-0.083
-133.370	800.000	-0.175	0.580
-132.356	13.916	-0.199	0.153
-131.341	342.927	-0.062	0.120
-130.326	-78.005	-0.307	0.104
-129.312	24.223	0.295	-0.240
-128.297	350.543	-0.173	0.338
-127.283	-200.000	-0.006	-0.216
-126.268	800.000	-0.044	0.141
-125.253	-100.929	-0.034	-0.008
-124.239	-109.027	0.120	0.025
-123.224	-32.506	0.141	-0.077
-122.210	800.000	0.046	-0.189
-121.195	44.691	0.017	-0.016
-120.180	-121.063	0.158	0.026
-119.166	-200.000	-0.022	-0.251
-118.151	-44.314	0.221	-0.109
-117.137	-51.420	-0.232	0.107
-116.122	426.791	0.089	-0.188
-115.107	-14.664	-0.166	0.105
-114.093	51.111	0.123	-0.115
-113.078	-200.000	0.012	-0.186
-112.064	21.790	0.124	-0.100
-111.049	-200.000	0.007	0.092
-110.034	-92.368	0.228	0.063
-109.020	-200.000	0.008	-0.098
-108.005	-16.939	-0.460	-0.286
-106.991	31.538	-0.060	0.051
-105.976	-200.000	0.011	-0.276
-104.962	33.034	-0.070	-0.060
-103.947	-103.680	0.076	0.018
-102.932	-175.993	0.124	0.003
-101.918	-23.475	-0.091	0.054
-100.903	-200.000	-0.033	0.392
-99.889	415.679	-0.029	0.061
-98.874	151.253	-0.034	-0.046
-97.859	32.721	-0.190	-0.162
-96.845	53.563	-0.015	-0.014
-95.830	-103.625	0.195	0.045
-94.816	447.137	0.202	0.438
-93.801	46.851	0.282	0.257
-92.786	-70.030	-0.158	0.059
-91.772	46.846	-0.165	-0.151
-90.757	-200.000	0.003	-0.085
-89.743	23.582	-0.256	-0.207
-88.728	674.791	-0.040	0.101
-87.713	-36.729	0.310	-0.164
-86.699	-200.000	0.007	-0.104
-85.684	-54.819	-0.234	-0.104
-84.670	-123.090	0.240	-0.038
-83.655	-84.248	-0.138	0.043
-82.640	192.796	0.080	0.119
-81.626	800.000	-0.060	-0.256
-80.611	292.194	-0.127	-0.227
-79.597	-200.000	-0.027	0.223
-78.582	-200.000	0.020	-0.151
-77.567	-200.000	-0.009	0.130
-76.553	-200.000	-0.019	0.166
-75.538	-54.372	0.148	0.066
-74.524	-28.097	0.288	0.164
-73.509	-8.740	0.175	-0.115
-72.494	136.620	-0.160	-0.206
-71.480	-158.166	0.198	0.011
-70.465	503.864	-0.100	0.228
-69.451	169.975	0.211	-0.297
-68.436	205.259	0.093	0.143
-67.422	80.793	0.103	0.109
-66.407	21.658	0.159	-0.127
-65.392	122.166	0.085	-0.104
-64.378	692.608	0.044	0.113
-63.363	26.983	0.085	0.070
-62.349	-200.000	0.043	-0.198
-61.334	76.489	-0.936	-0.975
-60.319	244.888	0.479	0.791
-59.305	-200.000	-0.119	-1.140
-58.290	298.945	0.648	1.173
-57.276	728.081	0.630	1.651
-56.261	-200.000	103.456	573.788
-55.246	479.302	1434.052	3191.954
-54.232	153.801	2610.152	3513.910
-53.217	108.081	2163.560	2533.624
-52.203	41.131	1695.950	1505.038
-51.188	33.897	1507.271	1288.706
-50.173	31.349	1480.504	1248.771
-49.159	51.452	1533.571	1430.835
-48.144	52.445	1551.192	1453.986
-47.130	33.903	1508.324	1289.443
-46.115	30.945	1493.184	1256.540
-45.100	30.645	1490.101	1251.880
-44.086	30.699	1488.147	1250.546
-43.071	30.650	1486.410	1248.709
-42.057	30.620	1484.234	1246.629
-41.042	30.583	1483.376	1245.612
-40.027	30.630	1481.555	1244.352
-39.013	30.583	1480.205	1242.850
-37.998	30.534	1479.207	1241.636
-36.984	30.572	1478.071	1240.887
-35.969	30.684	1476.611	1240.358
-34.954	30.577	1475.171	1238.388
-33.940	30.605	1473.781	1237.360
-32.925	30.578	1472.649	1236.178
-31.911	30.761	1470.779	1235.774
-30.896	30.705	1469.982	1234.688
-29.881	30.766	1468.449	1233.755
-28.867	30.653	1467.400	1232.075
-27.852	30.736	1465.854	1231.278
-26.838	30.594	1464.615	1229.247
-25.823	30.654	1463.157	1228.372
-24.809	30.713	1461.173	1227.046
-23.794	30.632	1460.235	1225.675
-22.779	30.678	1458.538	1224.508
-21.765	30.702	1458.085	1224.239
-20.750	30.710	1456.894	1223.242
-19.736	30.660	1455.643	1221.813
-18.721	30.616	1454.345	1220.386
-17.706	30.646	1453.244	1219.609
-16.692	30.683	1452.020	1218.777
-15.677	30.589	1451.371	1217.567
-14.663	30.665	1450.128	1216.974
-13.648	30.573	1449.538	1215.830
-12.633	30.664	1448.907	1215.847
-11.619	30.644	1447.586	1214.559
-10.604	30.564	1447.121	1213.602
-9.590	30.481	1446.491	1212.478
-8.575	30.605	1444.889	1211.901
-7.560	30.572	1444.371	1211.203
-6.546	30.565	1443.739	1210.574
-5.531	30.531	1443.087	1209.762
-4.517	30.520	1441.765	1208.530
-3.502	30.584	1440.590	1207.913
-2.487	30.633	1439.145	1206.974
-1.473	30.631	1438.333	1206.231
-0.458	30.547	1437.327	1204.798
0.556	28.632	1427.439	1193.201
1.571	25.427	1402.944	1152.108
2.586	21.840	1342.743	1080.517
3.600	20.064	1261.935	1005.104
4.615	18.871	1216.836	962.421
5.629	16.313	1160.685	904.252
6.644	8.304	1076.434	798.617
7.659	1.282	1035.932	734.600
8.673	0.325	1030.213	725.875
9.688	0.027	1027.258	722.297
10.702	-0.015	1025.874	721.056
11.717	-0.037	1023.736	719.385
12.731	2.616	1026.436	733.934
13.746	10.620	1037.653	780.517
14.761	16.935	1044.607	816.165
15.775	17.436	1044.396	818.335
16.790	16.429	1042.099	811.631
17.804	15.425	1039.879	805.014
18.819	14.578	1038.252	799.629
19.834	14.124	1036.748	796.226
20.848	13.874	1035.801	794.232
21.863	13.597	1035.094	792.296
22.877	13.272	1034.478	790.201
23.892	13.135	1033.424	788.673
24.907	13.094	1032.643	787.811
25.921	12.943	1032.141	786.634
26.936	13.026	1031.587	786.542
27.950	13.124	1030.746	786.295
28.965	13.208	1029.964	786.030
29.980	13.182	1029.193	785.248
30.994	13.303	1028.104	784.920
32.009	13.382	1027.117	784.476
33.023	13.382	1026.201	783.705
34.038	13.305	1026.091	783.187
35.053	13.228	1025.029	781.942
36.067	13.288	1024.151	781.489
37.082	13.170	1023.572	780.418
38.096	13.236	1022.853	780.114
39.111	13.302	1021.774	779.532
40.126	13.277	1021.317	779.000
41.140	13.219	1019.965	777.626
42.155	13.145	1019.002	776.474
43.169	12.984	1018.440	775.219
44.184	12.943	1017.626	774.338
45.199	12.972	1016.163	773.294
46.213	13.048	1015.181	772.834
47.228	13.143	1013.984	772.298
48.242	13.105	1013.084	771.367
49.257	13.157	1012.504	771.102
50.271	13.167	1011.434	770.263
51.286	13.261	1010.457	769.890
52.301	13.237	1009.912	769.293
53.315	13.213	1009.314	768.660
54.330	13.139	1008.505	767.629
55.344	13.100	1007.570	766.672
56.359	13.127	1006.234	765.712
57.374	13.196	1005.544	765.439
58.388	13.132	1004.562	764.324
59.403	13.056	1003.875	763.384
60.417	12.909	1003.672	762.484
61.432	12.967	1002.544	761.826
62.447	13.089	1001.729	761.700
63.461	12.992	1000.975	760.613
64.476	12.885	1000.559	759.739
65.490	12.945	999.786	759.362
66.505	12.935	998.902	758.574
67.520	13.034	997.710	758.056
68.534	13.099	997.339	758.009
69.549	13.057	996.672	757.241
70.563	13.055	995.742	756.457
71.578	13.033	995.164	755.852
72.593	13.000	994.149	754.863
73.607	12.905	993.213	753.650
74.622	12.963	992.299	753.154
75.636	13.014	991.244	752.521
76.651	12.920	990.657	751.578
77.666	12.945	989.813	750.985
78.680	13.098	988.375	750.525
79.695	13.027	988.587	750.296
80.709	12.985	987.669	749.344
81.724	13.037	987.359	749.278
82.739	12.943	986.678	748.268
83.753	13.076	986.078	748.349
84.768	13.179	984.963	747.905
85.782	13.241	984.293	747.610
86.797	13.250	983.537	747.008
87.812	13.409	982.698	747.025
88.826	13.183	982.231	745.585
89.841	13.151	981.392	744.738
90.855	13.227	980.267	744.160
91.870	13.279	979.822	743.988
92.884	13.182	979.442	743.197
93.899	13.369	977.893	742.795
94.914	13.331	977.684	742.401
95.928	13.380	976.661	741.778
96.943	13.365	976.029	741.166
97.957	13.320	975.526	740.519
98.972	13.252	974.730	739.541
99.987	13.303	974.052	739.194
101.001	13.331	972.926	738.398
102.016	13.300	972.061	737.535
103.030	13.303	971.313	736.916
104.045	13.382	970.211	736.369
105.060	13.213	969.967	735.363
106.074	13.164	968.675	734.105
107.089	13.255	967.861	733.824
108.103	13.155	967.032	732.689
109.118	13.103	965.987	731.601
110.133	13.095	965.541	731.162
111.147	13.072	964.514	730.220
112.162	13.141	963.527	729.711
113.176	13.204	962.717	729.312
114.191	13.267	961.618	728.693
115.206	13.205	960.958	727.856
116.220	13.215	960.301	727.338
117.235	13.184	959.796	726.753
118.249	13.091	958.929	725.626
119.264	13.225	957.805	725.297
120.279	13.195	956.966	724.468
121.293	13.078	956.254	723.352
122.308	13.120	955.944	723.237
123.322	13.162	954.674	722.397
124.337	13.142	953.470	721.333
125.352	13.124	952.418	720.396
126.366	13.060	951.427	719.301
127.381	13.120	950.552	718.841
128.395	13.075	949.257	717.601
129.410	13.164	948.281	717.184
130.424	12.966	947.864	715.947
131.439	13.038	946.922	715.486
132.454	13.181	946.023	715.362
133.468	13.261	945.362	715.145
134.483	13.247	944.459	714.337
135.497	13.181	944.027	713.663
136.512	13.250	943.146	713.232
137.527	13.171	942.582	712.403
138.541	13.247	941.495	711.842
139.556	13.220	940.956	711.257
140.570	13.392	940.096	711.285
141.585	13.158	939.644	709.874
142.600	13.257	939.125	709.842
143.614	13.289	938.434	709.395
144.629	13.374	937.618	709.081
145.643	13.397	936.575	708.328
146.658	13.485	935.936	708.157
147.673	13.353	935.079	706.884
148.687	13.370	934.202	706.231
149.702	13.294	933.321	705.176
150.716	13.231	932.790	704.444
151.731	13.248	931.763	703.679
152.746	13.366	930.696	703.310
153.760	13.344	930.277	702.841
154.775	13.417	929.287	702.342
155.789	13.492	928.278	701.835
156.804	13.355	927.949	700.943
157.819	13.371	927.275	700.438
158.833	13.279	926.871	699.683
159.848	13.507	926.068	699.976
160.862	13.439	925.471	699.177
161.877	13.465	924.825	698.736
162.892	13.348	923.996	697.555
163.906	13.352	922.747	696.568
164.921	13.485	921.909	696.431
165.935	13.277	921.279	695.020
166.950	13.347	919.956	694.258
167.964	13.519	919.222	694.361
168.979	13.530	918.208	693.580
169.994	13.476	917.627	692.853
171.008	13.443	916.543	691.835
172.023	13.561	915.559	691.525
173.037	13.596	914.818	691.050
174.052	13.518	914.687	690.566
175.067	13.604	913.664	690.090
176.081	13.566	912.961	689.341
177.096	13.496	912.090	688.328
178.110	13.433	911.297	687.410
179.125	13.532	910.227	686.953
180.140	13.518	909.561	686.329
181.154	13.563	908.590	685.721
182.169	13.505	908.557	685.397
183.183	13.602	908.008	685.322
184.198	13.598	907.401	684.787
185.213	13.539	906.948	684.141
186.227	13.613	906.050	683.709
187.242	13.785	905.291	683.787
188.256	13.692	904.708	682.902
189.271	13.774	903.876	682.549
190.286	13.826	903.539	682.448
191.300	13.726	902.476	681.177
192.315	13.657	901.600	680.172
193.329	13.534	900.913	679.086
194.344	13.590	900.280	678.782
195.359	13.601	899.548	678.211
196.373	13.598	899.350	677.990
197.388	13.770	898.781	678.206
198.402	13.824	898.284	677.990
199.417	13.894	897.746	677.810
200.432	14.047	897.238	677.991
201.446	14.026	897.003	677.668
202.461	13.995	896.868	677.378
203.475	13.966	896.326	676.791
204.490	14.043	895.324	676.291
205.504	14.013	894.132	675.206
206.519	13.966	893.494	674.476
207.534	13.949	892.997	673.973
208.548	13.943	892.553	673.554
209.563	13.877	891.876	672.714
210.577	13.975	890.826	672.259
211.592	14.002	890.198	671.836
212.607	14.016	889.923	671.624
213.621	14.012	889.583	671.291
214.636	14.005	888.685	670.529
215.650	14.063	888.217	670.348
216.665	14.095	887.527	669.897
217.680	14.028	887.031	669.193
218.694	14.169	886.173	669.056
219.709	14.121	886.396	668.971
220.723	14.134	885.569	668.340
221.738	14.189	884.599	667.770
222.753	14.244	883.893	667.399
223.767	14.133	883.315	666.458
224.782	14.187	882.259	665.817
225.796	14.403	881.563	666.098
226.811	14.210	881.380	665.129
227.826	14.359	880.661	665.123
228.840	14.288	880.074	664.339
229.855	14.218	879.357	663.460
230.869	14.332	878.385	663.119
231.884	14.220	877.995	662.322
232.899	14.112	877.451	661.423
233.913	14.075	876.873	660.780
234.928	14.138	876.074	660.370
235.942	14.263	875.397	660.297
236.957	14.201	874.801	659.545
237.972	14.276	873.898	659.102
238.986	14.145	873.734	658.399
240.001	14.309	872.827	658.307
241.015	14.299	872.242	657.770
242.030	14.368	871.343	657.305
243.045	14.433	870.711	657.026
244.059	14.400	870.292	656.524
245.074	14.483	869.390	656.110
246.088	14.434	868.927	655.509
247.103	14.347	868.250	654.601
248.117	14.523	867.631	654.766
249.132	14.534	867.473	654.630
250.147	14.645	867.037	654.679
251.161	14.728	866.165	654.291
252.176	14.655	865.775	653.653
253.190	14.809	864.917	653.549
254.205	14.799	864.326	653.003
255.220	14.898	863.664	652.832
256.234	14.752	863.140	651.811
257.249	14.720	862.709	651.302
258.263	14.793	862.002	650.995
259.278	14.847	861.572	650.820
260.293	14.890	860.732	650.297
261.307	14.880	860.411	649.960
262.322	14.876	859.882	649.486
263.336	14.927	859.414	649.274
264.351	14.956	858.661	648.761
265.366	14.949	858.017	648.187
266.380	15.035	857.065	647.745
267.395	14.945	856.791	647.131
268.409	15.053	856.187	647.036
269.424	15.095	854.838	646.121
270.439	14.962	854.524	645.315
271.453	15.092	853.212	644.766
272.468	14.998	853.069	644.238
273.482	14.987	852.555	643.754
274.497	14.985	852.047	643.305
275.512	15.047	851.065	642.743
276.526	14.966	850.607	642.031
277.541	15.080	849.629	641.672
278.555	15.265	849.012	641.856
279.570	15.115	849.044	641.249
280.585	15.076	848.043	640.290
281.599	15.228	847.613	640.489
282.614	15.240	846.960	639.983
283.628	15.177	846.327	639.209
284.643	15.273	845.589	638.962
285.657	15.229	845.243	638.476
286.672	15.248	844.883	638.220
287.687	15.228	844.568	637.850
288.701	15.288	843.646	637.323
289.716	15.253	843.118	636.737
290.730	15.264	843.207	636.789
291.745	15.150	842.310	635.620
292.760	15.459	841.598	636.198
293.774	15.165	840.878	634.487
294.789	15.423	840.387	635.037
295.803	15.328	839.878	634.234
296.818	15.380	839.380	633.999
297.833	15.308	838.555	633.047
298.847	15.480	837.779	633.057
299.862	15.306	837.404	632.061
300.876	15.567	836.215	632.089
301.891	15.500	835.821	631.483
302.906	15.586	835.410	631.441
303.920	15.521	834.568	630.503
304.935	15.555	833.955	630.112
305.949	15.723	833.233	630.143
306.964	15.595	832.898	629.354
307.979	15.644	832.174	628.934
308.993	15.598	831.888	628.490
310.008	15.726	831.550	628.656
311.022	15.511	831.120	627.472
312.037	15.547	830.660	627.205
313.052	15.651	829.737	626.839
314.066	15.594	829.266	626.216
315.081	15.745	828.084	625.831
316.095	15.568	827.801	624.903
317.110	15.457	827.933	624.536
318.125	15.414	827.096	623.686
319.139	15.582	826.443	623.763
320.154	15.728	825.615	623.624
321.168	15.617	825.575	623.126
322.183	15.638	824.729	622.512
323.197	15.779	824.398	622.730
324.212	15.621	823.719	621.576
325.227	15.778	823.258	621.756
326.241	15.733	822.697	621.108
327.256	15.836	822.045	620.942
328.270	15.763	821.554	620.245
329.285	15.741	820.790	619.534
330.300	15.689	820.690	619.212
331.314	15.821	819.803	618.973
332.329	15.847	819.520	618.801
333.343	15.983	818.588	618.541
334.358	15.887	817.944	617.648
335.373	15.863	817.744	617.356
336.387	15.824	817.092	616.665
337.402	15.905	816.778	616.672
338.416	16.138	815.794	616.723
339.431	15.995	815.502	615.925
340.446	16.177	814.673	615.911
341.460	16.045	814.405	615.172
342.475	16.172	813.991	615.268
343.489	16.256	813.118	614.858
344.504	16.314	812.345	614.431
345.519	16.251	811.956	613.856
346.533	16.205	811.822	613.532
347.548	16.210	811.467	613.226
348.562	16.234	810.883	612.817
349.577	16.135	809.947	611.699
350.592	16.014	809.748	611.054
351.606	16.268	809.215	611.519
352.621	16.261	808.637	611.003
353.635	16.120	808.500	610.336
354.650	16.197	808.164	610.307
355.665	16.176	807.620	609.766
356.679	16.189	806.968	609.266
357.694	16.292	806.605	609.307
358.708	16.208	806.448	608.832
359.723	16.156	805.608	607.959
360.738	16.359	804.560	607.844
361.752	16.341	804.508	607.688
362.767	16.425	803.933	607.500
363.781	16.305	803.470	606.664
364.796	16.470	803.111	606.934
365.810	16.440	802.731	606.483
366.825	16.446	802.468	606.254
367.840	16.379	802.372	605.887
368.854	16.609	801.819	606.242
369.869	16.487	801.571	605.561
370.883	16.429	800.867	604.768
371.898	16.508	800.210	604.503
372.913	16.466	799.724	603.930
373.927	16.735	798.736	604.091
374.942	16.698	798.410	603.659
375.956	16.524	797.504	602.303
376.971	16.667	797.143	602.485
377.986	16.744	796.277	602.049
379.000	16.789	795.989	601.939
380.015	16.669	795.983	601.453
381.029	16.805	794.953	601.105
382.044	16.686	794.610	600.372
383.059	16.786	793.960	600.183
384.073	16.970	793.327	600.300
385.088	16.706	793.023	599.084
386.102	16.753	792.544	598.836
387.117	16.655	792.147	598.135
388.132	16.769	791.585	598.061
389.146	16.683	791.114	597.349
390.161	16.609	791.093	597.021
391.175	16.849	790.112	597.072
392.190	16.811	789.994	596.797
393.205	16.645	789.801	596.012
394.219	16.835	788.968	596.000
395.234	16.853	788.416	595.592
396.248	16.792	787.832	594.885
397.263	16.838	787.222	594.532
398.278	16.706	787.238	594.031
399.292	16.893	786.246	593.882
400.307	16.699	786.416	593.281
401.321	16.845	785.803	593.275
402.336	16.810	785.651	592.985
403.350	16.798	785.157	592.518
404.365	16.884	784.884	592.562
405.380	17.001	784.319	592.490
406.394	17.103	783.580	592.234
407.409	16.881	783.480	591.334
408.423	17.131	782.806	591.644
409.438	17.074	782.522	591.179
410.453	17.237	782.083	591.362
411.467	17.341	781.793	591.453
412.482	17.190	781.276	590.484
413.496	17.095	781.043	589.924
414.511	17.247	780.508	589.995
415.526	17.214	780.071	589.501
416.540	17.301	779.805	589.546
417.555	17.360	779.091	589.161
418.569	17.485	778.406	589.022
419.584	17.233	778.228	587.965
420.599	17.214	777.871	587.577
421.613	108.584	1289.339	1465.995
422.628	92.814	1363.844	1466.102
