DTS Sentinel unit serial number:	SN413079Multiplexer serial number:	ORYXHardware model number:	OX4-SRSoftware version number:	ORYX F/W v4.00 Oryx Data Collector v3.7.2.0data status	okinstallation	princeton_trtdifferential loss correction	single-endedforward channel	channel 3reverse channel	N/Adate	2019/09/11time	22:38:11forward acquisition time	60.00reverse acquisition time	0.00gamma	496.2192k internal	0.2315k external	0.2315temperature offset calibration	1.0049default loss term (dB/km)	0.3790temperature slope calibration	1.0000multiplexer offset coefficient	1.0000multiplexer slope coefficient	1.0000fibre end	0.00T internal ref (°C)	34.94T ext. ref 1 (°C)	1.80T ext. ref 2 (°C)	28.53length (m)	temperature (°C)	Stokes	anti-Stokes-747.200	37.355	0.144	-0.130
-746.185	208.206	0.163	0.258
-745.171	800.000	0.059	-0.170
-744.156	357.142	-0.031	0.064
-743.142	37.503	-0.122	-0.110
-742.127	-145.792	-0.240	0.022
-741.112	800.000	-0.052	0.150
-740.098	0.020	0.114	0.082
-739.083	-200.000	-0.019	0.094
-738.069	-46.922	0.114	-0.056
-737.054	20.304	-0.227	0.186
-736.039	-138.698	-0.301	-0.033
-735.025	99.489	0.263	0.308
-734.010	800.000	-0.086	-0.338
-732.996	-200.000	-0.001	0.038
-731.981	-144.795	-0.139	-0.013
-730.966	36.630	-0.380	-0.339
-729.952	-143.820	-0.066	0.006
-728.937	726.959	-0.066	-0.179
-727.923	133.394	-0.209	-0.274
-726.908	-19.346	-0.257	-0.161
-725.894	800.000	-0.033	0.094
-724.879	253.965	-0.029	0.050
-723.864	-103.180	-0.353	-0.085
-722.850	54.771	0.023	0.022
-721.835	-200.000	-0.079	-0.403
-720.821	159.860	-0.111	0.157
-719.806	-12.106	-0.155	0.102
-718.791	-20.569	-0.339	0.211
-717.777	800.000	-0.074	0.325
-716.762	-163.572	0.188	0.009
-715.748	-86.797	-0.247	-0.077
-714.733	-139.672	0.267	0.029
-713.718	-84.824	0.063	-0.020
-712.704	462.873	-0.074	-0.167
-711.689	556.481	-0.055	-0.135
-710.675	-121.405	0.122	0.021
-709.660	-200.000	0.009	-0.069
-708.645	103.726	0.137	-0.163
-707.631	-24.905	0.140	-0.084
-706.616	-79.833	-0.028	-0.010
-705.602	-30.370	-0.387	0.222
-704.587	380.921	-0.065	0.135
-703.572	151.388	0.214	-0.295
-702.558	800.000	0.114	-0.443
-701.543	240.004	0.154	-0.260
-700.529	249.865	0.160	0.274
-699.514	-108.386	-0.315	0.069
-698.499	52.698	-0.182	0.176
-697.485	238.824	0.134	0.225
-696.470	-59.474	0.074	-0.032
-695.456	-62.111	-0.172	0.073
-694.441	800.000	-0.050	-0.187
-693.426	185.955	-0.092	-0.138
-692.412	-117.880	0.326	-0.059
-691.397	782.344	-0.037	0.101
-690.383	-121.123	0.228	-0.039
-689.368	-49.331	-0.262	0.127
-688.354	-73.200	-0.298	0.110
-687.339	18.121	-0.289	0.233
-686.324	85.513	-0.050	0.055
-685.310	5.970	0.137	-0.103
-684.295	41.302	-0.116	0.106
-683.281	-15.715	-0.186	-0.120
-682.266	307.373	-0.045	-0.085
-681.251	-200.000	-0.012	0.123
-680.237	-22.700	0.141	0.086
-679.222	-21.711	-0.049	-0.030
-678.208	153.853	0.158	-0.219
-677.193	138.537	0.070	0.093
-676.178	223.053	-0.168	-0.274
-675.164	-21.565	0.273	0.168
-674.149	80.990	-0.133	-0.146
-673.135	-51.400	-0.122	0.058
-672.120	-66.456	0.211	-0.085
-671.105	-60.684	-0.251	-0.107
-670.091	-13.059	-0.134	0.088
-669.076	-136.106	0.166	0.020
-668.062	-122.463	-0.365	-0.060
-667.047	-50.031	-0.179	-0.086
-666.032	20.824	-0.118	-0.097
-665.018	800.000	0.049	0.160
-664.003	242.997	0.142	0.240
-662.989	33.943	-0.189	0.166
-661.974	-200.000	-0.035	-0.217
-660.959	91.139	-0.177	-0.200
-659.945	-29.691	0.168	0.097
-658.930	-200.000	0.013	0.160
-657.916	800.000	0.020	-0.066
-656.901	-200.000	0.025	0.143
-655.886	120.100	-0.111	-0.139
-654.872	72.214	0.073	-0.077
-653.857	112.237	0.128	0.156
-652.843	-65.537	-0.210	0.085
-651.828	17.209	0.077	0.062
-650.814	13.453	0.054	0.042
-649.799	182.952	-0.059	0.088
-648.784	-200.000	0.002	-0.256
-647.770	-50.750	0.115	0.055
-646.755	50.883	-0.144	0.138
-645.741	-135.825	-0.317	-0.038
-644.726	-200.000	0.320	0.001
-643.711	180.451	-0.183	-0.271
-642.697	694.943	0.096	-0.255
-641.682	65.387	-0.109	-0.111
-640.668	345.276	-0.064	0.126
-639.653	-159.180	0.198	0.011
-638.638	-19.409	-0.150	0.094
-637.624	-164.423	0.091	-0.004
-636.609	324.783	-0.040	-0.077
-635.595	-200.000	0.008	-0.116
-634.580	-200.000	0.021	0.221
-633.565	76.870	0.057	0.061
-632.551	159.901	0.140	-0.197
-631.536	232.221	-0.082	-0.136
-630.522	-178.313	0.126	-0.003
-629.507	800.000	-0.063	0.224
-628.492	-159.172	-0.075	0.004
-627.478	-146.967	-0.299	0.026
-626.463	-48.775	-0.212	0.103
-625.449	-200.000	-0.004	-0.251
-624.434	-76.879	0.403	-0.142
-623.419	165.959	0.089	0.127
-622.405	-74.781	0.020	0.007
-621.390	-72.885	-0.211	-0.078
-620.376	-16.158	0.084	0.054
-619.361	-123.528	0.337	-0.054
-618.346	134.403	-0.128	0.167
-617.332	-104.726	0.191	-0.044
-616.317	-70.273	0.178	0.068
-615.303	800.000	0.052	0.165
-614.288	-124.157	0.296	0.047
-613.273	106.331	-0.294	-0.352
-612.259	174.126	0.179	-0.261
-611.244	308.585	-0.064	0.120
-610.230	425.051	-0.155	0.336
-609.215	-128.532	-0.201	-0.029
-608.201	-152.151	0.124	-0.009
-607.186	-200.000	0.010	-0.115
-606.171	430.129	-0.129	0.281
-605.157	-149.058	-0.218	-0.018
-604.142	-104.800	-0.403	-0.093
-603.128	-200.000	-0.006	-0.085
-602.113	66.566	0.085	0.087
-601.098	-136.902	0.124	0.014
-600.084	20.467	0.209	-0.171
-599.069	-81.337	-0.527	-0.175
-598.055	770.885	0.076	-0.207
-597.040	-200.000	0.066	-0.405
-596.025	89.313	-0.228	-0.256
-595.011	252.199	0.150	0.257
-593.996	-188.477	0.034	0.000
-592.982	800.000	-0.059	-0.176
-591.967	800.000	-0.062	-0.235
-590.952	-200.000	-0.022	-0.391
-589.938	800.000	0.126	-0.387
-588.923	30.510	0.182	-0.156
-587.909	-150.595	0.181	-0.014
-586.894	-131.078	0.158	-0.021
-585.879	-200.000	0.025	0.233
-584.865	58.822	-0.072	0.071
-583.850	-200.000	-0.003	-0.179
-582.836	672.497	-0.094	-0.245
-581.821	-8.636	0.079	-0.053
-580.806	197.487	-0.068	0.105
-579.792	629.673	-0.067	-0.171
-578.777	90.297	0.167	0.188
-577.763	-75.128	-0.165	-0.059
-576.748	800.000	-0.058	-0.217
-575.733	217.437	-0.074	-0.119
-574.719	-63.165	-0.070	-0.029
-573.704	-53.338	-0.106	-0.049
-572.690	450.393	-0.080	0.177
-571.675	-200.000	-0.005	-0.124
-570.661	800.000	-0.078	0.225
-569.646	406.356	0.088	-0.186
-568.631	-160.652	-0.078	-0.004
-567.617	60.554	-0.201	0.201
-566.602	-106.459	0.176	0.040
-565.588	190.067	-0.064	0.096
-564.573	303.293	-0.169	-0.316
-563.558	82.539	-0.217	0.237
-562.544	-57.923	-0.086	-0.038
-561.529	174.898	0.193	0.282
-560.515	-200.000	0.025	-0.123
-559.500	-200.000	0.011	0.104
-558.485	8.980	0.241	0.183
-557.471	-40.622	0.374	-0.195
-556.456	-200.000	-0.041	0.288
-555.442	800.000	-0.027	0.083
-554.427	-179.609	-0.381	-0.008
-553.412	218.784	-0.092	-0.148
-552.398	-140.429	0.266	0.028
-551.383	631.702	-0.044	0.112
-550.369	-98.332	-0.214	-0.055
-549.354	-0.905	-0.274	0.195
-548.339	262.220	0.147	-0.256
-547.325	-200.000	0.083	-0.405
-546.310	33.630	-0.102	-0.089
-545.296	235.461	0.109	0.181
-544.281	-17.838	0.161	0.101
-543.266	84.642	0.167	0.183
-542.252	193.449	-0.210	0.320
-541.237	800.000	-0.024	0.100
-540.223	-1.097	0.156	0.111
-539.208	0.438	0.244	0.175
-538.193	209.550	0.075	-0.119
-537.179	-77.491	-0.077	-0.027
-536.164	-151.656	0.275	-0.020
-535.150	-124.565	-0.462	0.072
-534.135	198.428	0.108	-0.166
-533.121	-106.414	-0.223	-0.050
-532.106	-50.763	-0.282	-0.133
-531.091	8.221	-0.273	0.206
-530.077	-200.000	0.181	-0.000
-529.062	385.559	-0.194	-0.403
-528.048	-105.050	-0.263	-0.060
-527.033	48.275	-0.189	-0.178
-526.018	436.451	0.085	0.187
-525.004	0.299	0.049	0.035
-523.989	-14.953	0.283	-0.182
-522.975	-73.161	0.103	0.038
-521.960	417.358	-0.076	0.162
-520.945	-24.082	-0.081	-0.049
-519.931	-102.163	0.201	-0.049
-518.916	3.233	0.102	-0.075
-517.902	185.384	0.105	-0.157
-516.887	258.912	-0.090	-0.156
-515.872	86.107	0.130	-0.144
-514.858	93.559	-0.051	0.059
-513.843	-110.326	0.168	0.035
-512.829	21.075	-0.396	-0.322
-511.814	-200.000	0.023	0.229
-510.799	800.000	0.061	0.253
-509.785	-46.122	0.227	0.112
-508.770	676.938	0.064	0.168
-507.756	-200.000	-0.023	-0.179
-506.741	56.318	-0.093	0.091
-505.726	800.000	-0.060	-0.228
-504.712	67.942	-0.048	0.049
-503.697	454.007	0.042	0.093
-502.683	800.000	-0.020	-0.080
-501.668	-200.000	-0.031	-0.147
-500.653	-86.561	-0.530	0.163
-499.639	-32.572	0.161	0.090
-498.624	274.625	0.164	-0.291
-497.610	-200.000	0.032	-0.160
-496.595	-200.000	0.024	0.275
-495.581	-3.853	0.316	0.220
-494.566	361.615	0.103	0.207
-493.551	-200.000	-0.038	-0.176
-492.537	109.108	0.188	0.226
-491.522	-32.886	-0.271	0.151
-490.508	-200.000	0.085	-0.377
-489.493	101.470	-0.123	-0.144
-488.478	-118.967	0.197	-0.035
-487.464	14.364	0.313	0.245
-486.449	-19.014	-0.142	-0.089
-485.435	800.000	0.030	-0.090
-484.420	-114.813	-0.302	-0.058
-483.405	-92.688	-0.133	0.037
-482.391	334.300	0.057	-0.110
-481.376	-132.354	-0.210	0.027
-480.362	696.699	-0.050	0.131
-479.347	-81.450	-0.186	-0.061
-478.332	-74.361	-0.188	-0.068
-477.318	647.507	-0.082	0.210
-476.303	800.000	0.095	0.276
-475.289	-128.771	0.185	-0.026
-474.274	262.929	0.056	0.098
-473.259	800.000	-0.084	0.290
-472.245	800.000	0.079	0.226
-471.230	64.882	0.336	0.340
-470.216	-200.000	0.053	-0.443
-469.201	468.985	-0.022	0.050
-468.186	277.519	-0.152	-0.271
-467.172	-75.847	0.058	-0.021
-466.157	-83.847	0.205	0.066
-465.143	-200.000	-0.001	-0.063
-464.128	-200.000	-0.047	0.290
-463.113	75.329	-0.251	0.265
-462.099	-12.637	0.351	-0.229
-461.084	800.000	-0.084	-0.295
-460.070	-72.470	0.175	0.065
-459.055	431.710	-0.045	-0.097
-458.040	2.328	-0.201	0.145
-457.026	142.486	0.217	-0.289
-456.011	800.000	-0.031	-0.110
-454.997	692.064	0.038	0.101
-453.982	11.534	-0.208	0.159
-452.968	-58.067	0.259	-0.113
-451.953	-177.542	0.375	0.009
-450.938	-200.000	-0.096	0.556
-449.924	800.000	-0.040	-0.152
-448.909	520.765	0.030	-0.072
-447.895	-86.813	0.117	-0.036
-446.880	545.582	0.073	0.174
-445.865	-200.000	-0.000	-0.070
-444.851	-200.000	-0.005	0.058
-443.836	-164.943	0.352	-0.016
-442.822	-200.000	-0.001	-0.017
-441.807	332.618	0.057	-0.111
-440.792	-60.546	-0.203	-0.086
-439.778	-45.068	-0.042	-0.021
-438.763	-159.116	0.363	-0.021
-437.749	322.359	-0.225	-0.429
-436.734	-200.000	-0.019	-0.101
-435.719	-200.000	0.048	0.285
-434.705	-29.889	0.243	0.139
-433.690	-200.000	-0.033	-0.148
-432.676	-200.000	-0.068	-0.364
-431.661	126.174	-0.152	-0.192
-430.646	-200.000	0.009	-0.043
-429.632	463.717	0.136	-0.305
-428.617	128.474	-0.134	-0.170
-427.603	745.222	0.069	-0.187
-426.588	-118.488	-0.324	-0.057
-425.573	800.000	-0.067	0.199
-424.559	800.000	0.062	0.195
-423.544	-56.590	-0.307	0.136
-422.530	245.920	0.140	0.237
-421.515	-200.000	0.039	-0.380
-420.500	-200.000	-0.079	0.409
-419.486	231.244	0.223	0.366
-418.471	-41.822	-0.190	0.098
-417.457	-192.654	0.227	-0.002
-416.442	127.345	0.247	0.313
-415.428	800.000	-0.003	0.008
-414.413	459.265	-0.060	0.133
-413.398	-103.234	0.215	-0.051
-412.384	82.961	0.241	-0.262
-411.369	52.888	-0.404	-0.387
-410.355	192.381	0.219	-0.330
-409.340	-121.050	0.249	0.042
-408.325	-200.000	0.037	-0.313
-407.311	74.030	-0.206	0.216
-406.296	-39.452	-0.045	-0.024
-405.282	195.894	-0.075	-0.114
-404.267	-129.805	0.084	-0.012
-403.252	117.326	-0.300	0.369
-402.238	-76.005	-0.186	-0.066
-401.223	-15.533	-0.237	-0.152
-400.209	25.348	-0.127	0.106
-399.194	-200.000	-0.019	0.323
-398.179	-200.000	0.022	0.244
-397.165	800.000	-0.080	-0.306
-396.150	-88.167	-0.120	-0.036
-395.136	-13.481	0.280	-0.182
-394.121	-78.382	0.378	0.129
-393.106	-44.928	0.515	-0.257
-392.092	91.324	0.167	0.187
-391.077	180.686	0.073	-0.107
-390.063	240.980	0.099	0.165
-389.048	800.000	0.012	0.050
-388.033	247.426	-0.178	0.300
-387.019	-95.937	0.036	0.010
-386.004	580.067	0.150	-0.366
-384.990	800.000	0.058	-0.250
-383.975	800.000	0.007	-0.028
-382.960	-105.384	0.140	-0.032
-381.946	-64.005	-0.146	0.060
-380.931	101.101	0.082	0.096
-379.917	52.619	-0.152	0.145
-378.902	7.736	-0.257	0.192
-377.888	22.961	-0.178	-0.146
-376.873	-157.953	-0.423	-0.025
-375.858	-200.000	0.034	-0.294
-374.844	31.172	-0.237	-0.203
-373.829	71.634	0.157	-0.163
-372.815	-160.084	0.207	0.011
-371.800	-200.000	-0.073	0.321
-370.785	-200.000	0.071	0.425
-369.771	-200.000	-0.018	-0.099
-368.756	300.842	0.117	-0.215
-367.742	-86.860	-0.149	0.045
-366.727	33.542	-0.167	-0.145
-365.712	-145.581	-0.266	0.024
-364.698	-110.899	-0.279	-0.057
-363.683	-200.000	-0.007	-0.375
-362.669	-158.236	0.236	0.014
-361.654	-86.606	-0.218	0.067
-360.639	791.741	0.076	-0.209
-359.625	27.805	-0.200	-0.168
-358.610	-50.063	0.335	0.158
-357.596	489.088	-0.133	0.303
-356.581	-73.677	-0.224	0.081
-355.566	-20.312	0.275	-0.169
-354.552	749.961	0.071	0.190
-353.537	131.660	0.157	0.201
-352.523	-200.000	0.003	0.020
-351.508	119.463	-0.142	0.175
-350.493	800.000	0.075	0.237
-349.479	172.606	0.113	-0.163
-348.464	43.681	0.049	0.045
-347.450	-81.420	-0.228	-0.075
-346.435	-200.000	0.027	0.152
-345.420	-83.513	0.118	-0.038
-344.406	99.382	0.076	0.088
-343.391	-15.633	0.395	-0.251
-342.377	12.205	0.081	0.062
-341.362	-37.618	-0.328	0.174
-340.348	622.880	0.065	-0.163
-339.333	-107.234	-0.296	-0.065
-338.318	58.590	0.083	-0.081
-337.304	800.000	0.075	-0.241
-336.289	505.217	-0.076	0.176
-335.275	-69.770	0.314	0.119
-334.260	152.099	-0.347	0.472
-333.245	36.755	-0.264	0.233
-332.231	-86.612	0.229	-0.070
-331.216	184.615	0.058	-0.085
-330.202	42.619	0.041	0.038
-329.187	311.649	-0.147	0.274
-328.172	-200.000	0.003	0.219
-327.158	290.829	-0.027	0.050
-326.143	202.972	-0.096	-0.148
-325.129	194.400	-0.186	-0.281
-324.114	800.000	-0.057	-0.167
-323.099	18.654	-0.265	-0.211
-322.085	176.656	-0.020	-0.029
-321.070	257.682	-0.153	-0.262
-320.056	82.264	0.161	0.174
-319.041	13.384	-0.164	-0.127
-318.026	-86.116	-0.475	0.146
-317.012	667.048	0.104	-0.267
-315.997	212.085	-0.227	0.356
-314.983	-141.980	0.106	-0.011
-313.968	-200.000	0.063	-0.285
-312.953	-200.000	-0.001	-0.195
-311.939	85.828	-0.168	0.184
-310.924	-25.892	-0.162	0.095
-309.910	-200.000	-0.008	-0.078
-308.895	-26.987	-0.194	-0.113
-307.880	-141.900	-0.308	0.031
-306.866	-67.005	0.309	-0.121
-305.851	-27.166	0.172	0.100
-304.837	59.484	-0.041	0.040
-303.822	-143.629	0.138	0.013
-302.807	-30.022	0.239	0.135
-301.793	-125.128	0.217	0.033
-300.778	406.003	-0.106	0.222
-299.764	174.603	0.105	0.152
-298.749	555.829	0.047	-0.113
-297.735	-200.000	0.024	0.187
-296.720	-83.008	-0.191	-0.061
-295.705	-200.000	-0.043	0.397
-294.691	155.764	-0.184	0.252
-293.676	-200.000	-0.028	0.217
-292.662	-200.000	-0.017	-0.227
-291.647	-200.000	0.010	-0.128
-290.632	113.811	0.118	-0.143
-289.618	-4.357	0.339	-0.233
-288.603	11.497	-0.116	-0.089
-287.589	800.000	-0.006	-0.022
-286.574	763.260	0.073	0.196
-285.559	800.000	-0.042	-0.159
-284.545	-99.281	-0.187	-0.047
-283.530	3.246	-0.110	-0.080
-282.516	39.822	0.204	-0.182
-281.501	-23.174	0.199	-0.119
-280.486	58.782	0.138	0.134
-279.472	136.369	0.265	-0.344
-278.457	-56.591	-0.369	0.163
-277.443	-116.326	-0.501	0.092
-276.428	-200.000	0.047	-0.325
-275.413	-146.998	0.195	-0.017
-274.399	609.413	-0.053	0.132
-273.384	-59.723	-0.364	-0.155
-272.370	124.392	0.019	0.024
-271.355	-108.557	-0.140	-0.030
-270.340	-14.319	-0.167	0.107
-269.326	-75.989	0.360	-0.127
-268.311	-153.060	0.083	-0.006
-267.297	-10.742	0.216	-0.142
-266.282	114.256	0.058	-0.070
-265.267	-175.784	-0.123	-0.003
-264.253	-62.445	-0.333	0.138
-263.238	-200.000	0.010	0.131
-262.224	-56.497	0.197	0.087
-261.209	65.648	0.152	-0.154
-260.195	-52.643	-0.337	0.155
-259.180	-111.387	-0.208	0.042
-258.165	800.000	-0.068	0.223
-257.151	-155.945	-0.134	-0.008
-256.136	-123.915	0.341	0.053
-255.122	128.423	-0.362	0.459
-254.107	356.098	-0.136	0.270
-253.092	-200.000	0.028	0.230
-252.078	-29.400	0.278	-0.158
-251.063	393.160	0.114	0.236
-250.049	267.594	-0.137	0.238
-249.034	-200.000	-0.025	0.233
-248.019	31.080	-0.217	-0.185
-247.005	77.248	-0.156	0.165
-245.990	-76.742	0.378	0.132
-244.976	-200.000	0.005	0.237
-243.961	305.282	0.029	-0.054
-242.946	389.114	0.123	0.254
-241.932	-200.000	-0.011	0.332
-240.917	-112.752	0.273	-0.054
-239.903	129.818	-0.157	0.199
-238.888	-1.333	-0.139	-0.098
-237.873	800.000	-0.057	0.183
-236.859	58.305	-0.115	-0.112
-235.844	71.446	-0.135	-0.140
-234.830	800.000	0.039	-0.129
-233.815	210.747	-0.091	-0.141
-232.800	147.734	-0.188	-0.251
-231.786	-55.477	-0.092	0.041
-230.771	473.948	-0.108	0.243
-229.757	800.000	0.064	0.276
-228.742	12.889	-0.162	0.125
-227.727	99.535	-0.143	0.165
-226.713	-33.152	0.180	-0.099
-225.698	-36.048	0.195	0.105
-224.684	5.101	0.468	-0.342
-223.669	-12.680	-0.086	-0.056
-222.655	800.000	0.081	0.273
-221.640	-200.000	0.078	0.352
-220.625	-147.539	0.273	-0.023
-219.611	-121.443	0.296	0.049
-218.596	-106.861	0.268	-0.059
-217.582	6.784	-0.138	-0.102
-216.567	-153.044	-0.085	-0.006
-215.552	-91.393	0.533	-0.151
-214.538	-38.948	-0.183	-0.096
-213.523	151.487	-0.041	0.056
-212.509	800.000	0.136	-0.428
-211.494	-55.542	0.104	-0.046
-210.479	-53.812	0.374	-0.169
-209.465	-180.018	0.209	0.004
-208.450	-200.000	0.001	0.024
-207.436	-26.956	0.343	0.199
-206.421	364.168	0.021	0.042
-205.406	-195.284	0.125	-0.001
-204.392	-134.159	-0.144	-0.018
-203.377	-135.798	-0.141	-0.016
-202.363	-44.971	-0.038	-0.019
-201.348	-9.410	0.145	-0.096
-200.333	-107.330	-0.274	-0.060
-199.319	143.237	0.163	0.215
-198.304	422.504	0.192	0.410
-197.290	129.255	0.171	0.217
-196.275	800.000	-0.049	0.180
-195.260	-88.997	0.272	0.080
-194.246	461.588	0.061	-0.136
-193.231	28.506	-0.223	0.187
-192.217	-41.874	0.269	-0.137
-191.202	72.686	-0.096	-0.099
-190.187	66.932	-0.117	-0.118
-189.173	-200.000	-0.054	0.329
-188.158	-92.452	0.050	0.014
-187.144	109.563	0.129	0.153
-186.129	1.593	0.147	-0.105
-185.114	327.418	-0.143	-0.272
-184.100	545.098	-0.108	0.255
-183.085	-200.000	-0.013	0.195
-182.071	-65.908	-0.286	0.113
-181.056	800.000	-0.024	-0.088
-180.042	-48.886	-0.252	0.120
-179.027	-200.000	-0.064	-0.629
-178.012	-200.000	-0.043	-0.209
-176.998	-2.159	-0.187	-0.130
-175.983	-57.192	0.185	0.081
-174.969	-76.244	-0.296	-0.104
-173.954	-122.663	0.239	-0.038
-172.939	252.794	-0.039	0.066
-171.925	-11.825	0.059	0.039
-170.910	-179.642	0.322	0.007
-169.896	263.246	-0.143	-0.246
-168.881	33.327	-0.060	0.052
-167.866	197.516	-0.082	0.125
-166.852	-145.205	-0.179	-0.016
-165.837	156.076	-0.056	-0.077
-164.823	-8.744	0.190	0.126
-163.808	-200.000	0.012	0.293
-162.793	75.907	0.095	0.100
-161.779	800.000	-0.022	0.075
-160.764	-200.000	-0.010	-0.188
-159.750	-200.000	0.006	0.044
-158.735	-34.401	-0.006	0.004
-157.720	-35.678	0.172	-0.092
-156.706	-16.469	0.334	-0.210
-155.691	800.000	-0.079	-0.218
-154.677	-200.000	-0.006	-0.067
-153.662	-43.890	-0.019	0.009
-152.647	139.784	0.055	0.071
-151.633	-74.071	-0.145	0.052
-150.618	-200.000	0.008	-0.083
-149.604	-28.030	-0.276	-0.158
-148.589	608.714	-0.113	0.280
-147.574	-200.000	-0.036	-0.195
-146.560	-109.343	0.184	0.039
-145.545	81.428	0.138	0.147
-144.531	-181.425	0.311	0.006
-143.516	-200.000	0.023	-0.113
-142.502	-200.000	-0.029	0.386
-141.487	148.627	0.072	0.097
-140.472	534.550	0.042	-0.099
-139.458	107.853	-0.092	0.108
-138.443	800.000	-0.059	0.175
-137.429	10.144	-0.174	-0.131
-136.414	95.816	-0.247	-0.280
-135.399	493.837	-0.123	0.280
-134.385	357.113	0.095	-0.187
-133.370	-42.421	-0.359	0.181
-132.356	-200.000	-0.024	0.110
-131.341	78.288	0.069	0.073
-130.326	145.072	-0.152	0.201
-129.312	131.227	-0.229	0.291
-128.297	-130.549	-0.072	0.010
-127.283	-151.152	0.354	0.026
-126.268	-200.000	-0.027	0.157
-125.253	-200.000	0.002	-0.035
-124.239	-103.873	0.101	0.023
-123.224	250.365	-0.243	0.409
-122.210	22.359	-0.095	-0.077
-121.195	197.579	0.100	0.151
-120.180	-31.334	-0.179	0.100
-119.166	91.918	-0.077	-0.086
-118.151	-125.600	-0.413	-0.062
-117.137	-200.000	0.007	0.083
-116.122	-91.859	0.171	-0.048
-115.107	800.000	-0.056	0.240
-114.093	105.472	-0.190	-0.222
-113.078	334.288	-0.020	-0.038
-112.064	-42.970	0.143	0.072
-111.049	-200.000	-0.011	-0.238
-110.034	241.730	0.060	-0.100
-109.020	61.608	0.298	0.293
-108.005	800.000	0.022	-0.082
-106.991	615.897	-0.050	0.123
-105.976	-200.000	0.021	-0.167
-104.962	-127.997	0.181	0.026
-103.947	-20.129	-0.201	0.122
-102.932	-114.940	0.382	0.072
-101.918	-118.403	0.286	-0.050
-100.903	-82.690	-0.099	-0.032
-99.889	800.000	0.155	-0.500
-98.874	-200.000	0.018	0.111
-97.859	-98.681	-0.044	0.011
-96.845	-63.530	-0.061	0.025
-95.830	-177.832	0.211	0.005
-94.816	-107.472	0.089	0.019
-93.801	800.000	-0.119	0.438
-92.786	244.790	-0.109	0.182
-91.772	-37.874	0.427	-0.224
-90.757	40.000	-0.207	-0.184
-89.743	492.675	-0.192	0.435
-88.728	-200.000	-0.000	0.145
-87.713	138.571	0.070	-0.091
-86.699	800.000	0.114	-0.347
-85.684	-20.237	0.286	0.174
-84.670	226.479	-0.092	0.147
-83.655	-14.687	0.112	-0.071
-82.640	-200.000	-0.054	-0.242
-81.626	-36.827	-0.297	-0.157
-80.611	-200.000	-0.001	-0.140
-79.597	136.526	-0.083	0.107
-78.582	217.788	-0.213	-0.335
-77.567	-200.000	0.000	-0.148
-76.553	-25.003	0.156	0.091
-75.538	-59.563	-0.226	0.096
-74.524	75.143	0.052	0.054
-73.509	800.000	0.072	0.233
-72.494	-97.760	0.278	-0.071
-71.480	-200.000	0.025	0.199
-70.465	-121.017	-0.226	-0.037
-69.451	98.822	0.104	-0.119
-68.436	-51.019	-0.020	-0.009
-67.422	-200.000	-0.044	0.230
-66.407	-49.851	0.230	-0.108
-65.392	800.000	0.063	-0.213
-64.378	83.063	-0.042	0.045
-63.363	-2.116	-0.180	0.125
-62.349	-62.714	-0.208	-0.085
-61.334	130.477	-0.872	-1.102
-60.319	114.737	0.352	0.423
-59.305	800.000	-0.331	-1.069
-58.290	337.051	0.459	0.880
-57.276	418.087	0.833	1.757
-56.261	-200.000	97.311	592.104
-55.246	573.085	1376.939	3310.845
-54.232	154.290	2579.962	3492.260
-53.217	115.747	2178.269	2627.965
-52.203	45.575	1716.567	1563.681
-51.188	38.144	1528.165	1341.220
-50.173	35.641	1501.178	1300.567
-49.159	55.642	1551.655	1482.291
-48.144	59.599	1571.337	1528.217
-47.130	38.470	1525.769	1341.142
-46.115	35.249	1509.768	1305.137
-45.100	35.083	1506.417	1301.059
-44.086	35.028	1505.081	1299.480
-43.071	34.964	1503.343	1297.493
-42.057	34.835	1502.045	1295.446
-41.042	34.922	1500.292	1294.472
-40.027	34.891	1498.926	1293.031
-39.013	34.962	1497.119	1291.901
-37.998	34.914	1496.583	1291.067
-36.984	34.876	1495.465	1289.796
-35.969	34.905	1494.318	1288.945
-34.954	34.995	1492.117	1287.603
-33.940	34.952	1490.935	1286.244
-32.925	34.932	1489.713	1285.004
-31.911	34.896	1488.547	1283.709
-30.896	34.972	1487.212	1283.013
-29.881	34.973	1485.931	1281.865
-28.867	35.019	1484.224	1280.646
-27.852	34.973	1483.128	1279.347
-26.838	34.948	1481.528	1277.746
-25.823	34.957	1480.154	1276.572
-24.809	35.010	1478.451	1275.402
-23.794	35.010	1477.374	1274.427
-22.779	34.998	1476.120	1273.212
-21.765	34.954	1474.997	1271.901
-20.750	34.978	1474.131	1271.262
-19.736	34.990	1472.465	1269.855
-18.721	34.916	1471.991	1268.909
-17.706	34.991	1470.544	1268.103
-16.692	34.960	1469.447	1266.900
-15.677	34.866	1468.919	1265.778
-14.663	34.854	1467.692	1264.586
-13.648	34.957	1466.665	1264.335
-12.633	34.946	1465.475	1263.188
-11.619	34.911	1464.587	1262.139
-10.604	35.022	1463.788	1262.132
-9.590	34.881	1463.075	1260.536
-8.575	34.867	1462.385	1259.803
-7.560	34.958	1461.027	1259.184
-6.546	34.861	1460.480	1258.019
-5.531	34.904	1459.812	1257.681
-4.517	34.878	1458.826	1256.607
-3.502	34.924	1457.605	1255.810
-2.487	34.904	1456.532	1254.702
-1.473	34.957	1455.379	1254.007
-0.458	34.980	1453.937	1252.863
0.556	35.118	1444.544	1241.489
1.571	31.925	1418.227	1198.402
2.586	28.371	1357.385	1125.109
3.600	26.770	1275.395	1047.814
4.615	25.116	1229.165	1000.523
5.629	21.392	1171.690	933.801
6.644	11.206	1084.986	813.988
7.659	3.074	1041.883	742.445
8.673	1.950	1035.837	732.671
9.688	1.838	1032.758	729.893
10.702	1.745	1031.085	728.204
11.717	1.687	1029.466	726.718
12.731	5.408	1033.221	747.106
13.746	15.492	1047.725	806.168
14.761	23.208	1057.494	850.859
15.775	24.682	1058.754	858.886
16.790	24.973	1058.168	859.730
17.804	24.761	1057.555	858.139
18.819	24.618	1056.562	856.573
19.834	24.648	1056.041	856.216
20.848	24.847	1055.955	857.026
21.863	24.928	1055.390	856.879
22.877	24.872	1054.951	856.179
23.892	24.907	1054.216	855.671
24.907	24.734	1053.381	854.093
25.921	24.762	1052.937	853.793
26.936	24.759	1052.247	853.143
27.950	24.706	1050.873	851.699
28.965	24.717	1049.957	850.936
29.980	24.598	1048.346	848.990
30.994	24.595	1047.260	848.021
32.009	24.775	1046.277	848.005
33.023	24.934	1045.582	848.117
34.038	24.662	1044.792	846.115
35.053	24.660	1044.102	845.472
36.067	24.820	1043.501	845.665
37.082	24.768	1042.769	844.752
38.096	24.780	1041.907	844.038
39.111	24.976	1041.498	844.553
40.126	25.124	1040.565	844.420
41.140	24.964	1038.952	842.283
42.155	24.723	1037.607	839.989
43.169	24.423	1036.661	837.737
44.184	24.450	1035.397	836.768
45.199	24.352	1034.622	835.610
46.213	24.410	1033.338	834.770
47.228	24.300	1032.294	833.341
48.242	24.592	1031.994	834.388
49.257	24.697	1030.999	833.997
50.271	24.816	1030.252	833.875
51.286	24.816	1030.066	833.650
52.301	24.863	1029.210	833.104
53.315	24.934	1028.427	832.725
54.330	24.831	1027.868	831.721
55.344	24.811	1026.963	830.820
56.359	24.775	1025.814	829.652
57.374	24.836	1025.467	829.580
58.388	24.581	1024.568	827.598
59.403	24.442	1023.521	826.037
60.417	24.553	1022.997	826.055
61.432	24.371	1022.279	824.561
62.447	24.392	1021.638	824.066
63.461	24.550	1021.319	824.465
64.476	24.652	1019.896	823.715
65.490	24.510	1019.224	822.448
66.505	24.450	1018.448	821.470
67.520	24.517	1017.612	821.033
68.534	24.676	1016.740	820.985
69.549	24.492	1016.058	819.519
70.563	24.151	1015.070	817.084
71.578	24.042	1013.879	815.554
72.593	24.001	1013.389	814.899
73.607	24.001	1011.843	813.587
74.622	23.918	1011.130	812.561
75.636	24.229	1010.380	813.304
76.651	24.327	1009.893	813.288
77.666	24.220	1009.038	812.038
78.680	24.185	1007.935	810.923
79.695	24.152	1007.740	810.543
80.709	24.150	1006.956	809.832
81.724	24.262	1006.543	809.936
82.739	24.439	1005.373	809.728
83.753	24.317	1004.567	808.451
84.768	24.620	1003.732	809.081
85.782	25.000	1003.021	810.153
86.797	25.156	1002.559	810.414
87.812	25.058	1001.911	809.379
88.826	24.793	1001.114	807.464
89.841	24.841	1000.269	806.931
90.855	25.031	999.286	806.922
91.870	25.031	998.844	806.492
92.884	25.107	997.890	805.991
93.899	24.858	996.801	803.923
94.914	24.678	996.156	802.523
95.928	25.017	995.219	803.216
96.943	25.100	994.036	802.563
97.957	24.576	993.351	799.594
98.972	24.386	992.058	797.635
99.987	24.217	991.310	796.208
101.001	24.306	990.661	796.013
102.016	24.570	990.351	796.872
103.030	24.808	989.087	796.844
104.045	24.688	988.418	795.702
105.060	24.562	986.872	793.823
106.074	24.393	985.942	792.258
107.089	24.447	985.016	791.683
108.103	24.723	984.900	792.741
109.118	24.775	983.835	792.045
110.133	24.531	982.602	789.902
111.147	24.409	981.959	788.779
112.162	24.347	980.553	787.303
113.176	24.081	979.794	785.451
114.191	24.339	978.965	785.854
115.206	24.341	978.171	785.159
116.220	24.058	977.334	783.173
117.235	23.976	976.097	781.749
118.249	24.247	975.297	782.230
119.264	24.237	974.775	781.701
120.279	23.957	973.957	779.747
121.293	24.148	972.944	779.703
122.308	24.095	972.695	779.202
123.322	24.116	971.911	778.595
124.337	24.188	970.353	777.596
125.352	23.973	969.422	775.842
126.366	23.638	967.929	773.120
127.381	23.401	966.211	770.649
128.395	23.834	966.349	772.572
129.410	24.529	965.768	775.056
130.424	24.558	965.722	775.076
131.439	24.649	964.263	774.231
132.454	24.523	963.751	773.209
133.468	24.547	962.623	772.337
134.483	24.571	961.549	771.510
135.497	24.680	961.395	771.790
136.512	24.875	960.830	772.110
137.527	24.829	959.864	771.069
138.541	24.885	959.263	770.757
139.556	24.817	958.701	769.943
140.570	25.015	957.716	769.936
141.585	24.986	956.806	769.014
142.600	25.022	955.977	768.431
143.614	24.828	955.258	766.954
144.629	24.953	954.322	766.672
145.643	25.420	953.233	767.725
146.658	25.158	952.415	765.877
147.673	24.846	951.254	763.546
148.687	24.815	950.226	762.522
149.702	24.787	949.279	761.576
150.716	24.665	948.508	760.371
151.731	24.679	947.199	759.312
152.746	24.635	946.748	758.698
153.760	24.895	946.264	759.344
154.775	25.125	945.557	759.687
155.789	25.134	944.429	758.748
156.804	25.051	943.656	757.710
157.819	24.950	943.016	756.703
158.833	24.968	942.074	755.956
159.848	25.119	941.269	755.882
160.862	25.324	940.064	755.711
161.877	24.997	939.552	753.855
162.892	25.085	937.973	752.889
163.906	25.262	937.758	753.395
164.921	25.054	936.923	751.784
165.935	25.024	935.780	750.676
166.950	25.037	934.893	749.952
167.964	24.970	933.810	748.738
168.979	24.861	933.392	747.881
169.994	24.830	931.753	746.370
171.008	24.792	930.751	745.345
172.023	24.889	930.444	745.437
173.037	25.209	929.239	745.735
174.052	24.986	928.482	744.137
175.067	24.754	927.427	742.263
176.081	24.789	926.663	741.731
177.096	24.856	925.658	741.139
178.110	24.861	925.422	740.902
179.125	24.682	923.965	738.930
180.140	24.421	923.303	737.258
181.154	24.388	922.267	736.230
182.169	24.544	922.033	736.621
183.183	24.856	921.777	737.637
184.198	25.035	921.301	737.930
185.213	24.923	920.620	736.857
186.227	24.943	919.793	736.215
187.242	25.118	919.663	736.762
188.256	24.978	918.762	735.400
189.271	25.036	917.737	734.755
190.286	25.030	917.609	734.563
191.300	25.021	916.477	733.555
192.315	24.350	915.309	729.807
193.329	23.723	913.498	725.739
194.344	23.325	912.316	723.113
195.359	23.991	912.710	726.077
196.373	24.680	913.100	729.135
197.388	24.965	912.935	730.102
198.402	24.803	912.253	728.833
199.417	24.877	911.364	728.359
200.432	24.857	911.253	728.125
201.446	24.719	910.271	726.712
202.461	24.534	909.755	725.486
203.475	24.512	909.241	724.924
204.490	24.158	907.935	722.383
205.504	23.137	905.162	715.982
206.519	23.416	905.279	717.141
207.534	24.410	905.707	721.438
208.548	24.298	905.595	720.831
209.563	24.942	905.067	722.947
210.577	24.767	904.542	721.761
211.592	24.673	903.565	720.537
212.607	25.016	903.637	721.912
213.621	25.193	903.070	722.110
214.636	24.994	902.340	720.661
215.650	25.199	901.680	720.892
216.665	25.109	901.161	720.052
217.680	25.094	900.477	719.381
218.694	25.170	900.047	719.282
219.709	24.814	899.165	717.084
220.723	24.491	898.125	714.898
221.738	24.741	897.692	715.494
222.753	24.997	896.947	715.858
223.767	24.806	896.640	714.788
224.782	25.017	895.841	714.928
225.796	25.145	895.172	714.840
226.811	25.333	894.658	715.117
227.826	24.890	893.667	712.500
228.840	24.086	891.842	707.785
229.855	23.916	891.483	706.764
230.869	24.332	891.017	707.982
231.884	23.941	890.109	705.648
232.899	23.794	890.035	704.943
233.913	24.595	890.078	708.090
234.928	24.873	889.777	708.889
235.942	24.763	888.640	707.486
236.957	24.873	888.117	707.442
237.972	24.463	887.305	705.114
238.986	24.422	886.318	704.105
240.001	24.449	886.245	704.093
241.015	24.615	885.636	704.198
242.030	24.637	884.821	703.575
243.045	24.792	884.308	703.714
244.059	24.759	884.206	703.440
245.074	24.985	883.445	703.663
246.088	24.952	882.789	702.947
247.103	24.702	881.301	700.721
248.117	24.753	881.278	700.839
249.132	25.154	880.957	702.096
250.147	25.456	880.861	703.138
251.161	25.613	880.307	703.245
252.176	25.753	879.801	703.327
253.190	25.976	878.730	703.279
254.205	25.822	878.762	702.640
255.220	25.924	878.459	702.733
256.234	26.093	877.291	702.394
257.249	25.946	877.009	701.536
258.263	25.662	876.337	699.831
259.278	25.637	876.138	699.514
260.293	26.077	875.149	700.371
261.307	26.106	874.638	700.012
262.322	25.814	874.117	698.399
263.336	25.701	873.638	697.520
264.351	25.161	872.204	694.223
265.366	24.166	870.225	688.742
266.380	23.652	869.441	686.076
267.395	24.548	870.047	689.954
268.409	25.512	869.652	693.301
269.424	25.401	868.721	692.067
270.439	25.486	868.541	692.190
271.453	25.671	867.853	692.295
272.468	25.606	867.311	691.552
273.482	25.765	866.848	691.730
274.497	25.926	866.417	691.945
275.512	25.610	865.424	689.877
276.526	25.103	863.947	686.696
277.541	25.378	863.620	687.431
278.555	25.600	863.680	688.266
279.570	25.567	862.644	687.252
280.585	25.384	862.327	686.241
281.599	25.420	861.678	685.800
282.614	25.564	861.417	686.085
283.628	25.102	860.208	683.300
284.643	24.667	859.484	681.005
285.657	25.155	859.159	682.548
286.672	25.074	858.870	681.947
287.687	24.527	857.839	678.990
288.701	24.819	857.899	680.088
289.716	25.385	857.421	681.797
290.730	25.055	856.711	679.920
291.745	24.830	855.911	678.374
292.760	24.590	854.907	676.609
293.774	24.536	854.275	675.846
294.789	25.479	854.963	679.899
295.803	26.071	854.807	681.951
296.818	26.220	854.439	682.162
297.833	26.178	853.735	681.380
298.847	25.936	852.817	679.674
299.862	25.579	852.119	677.712
300.876	25.789	851.762	678.158
301.891	26.100	851.311	678.912
302.906	26.069	850.595	678.163
303.920	25.674	849.905	676.071
304.935	25.620	849.131	675.191
305.949	25.943	848.705	676.005
306.964	26.134	848.410	676.426
307.979	25.949	847.472	674.925
308.993	25.808	847.007	673.969
310.008	26.112	846.673	674.778
311.022	26.418	846.285	675.555
312.037	26.204	845.799	674.306
313.052	25.916	845.263	672.744
314.066	25.763	844.528	671.529
315.081	25.029	843.193	667.676
316.095	24.431	841.576	664.111
317.110	24.766	842.233	665.819
318.125	25.803	842.419	669.763
319.139	25.315	841.269	666.979
320.154	24.376	839.052	661.681
321.168	23.811	838.470	659.070
322.183	24.442	838.657	661.497
323.197	25.369	838.812	664.996
324.212	25.524	838.902	665.581
325.227	25.865	838.445	666.422
326.241	25.817	838.418	666.163
327.256	25.639	837.770	664.932
328.270	25.758	836.940	664.653
329.285	25.594	836.180	663.387
330.300	25.337	835.442	661.794
331.314	25.292	834.837	661.091
332.329	25.352	834.146	660.706
333.343	25.745	833.717	661.755
334.358	26.052	833.569	662.705
335.373	25.971	832.838	661.769
336.387	26.046	832.172	661.457
337.402	26.183	832.306	662.005
338.416	26.428	831.737	662.392
339.431	26.368	831.103	661.610
340.446	26.572	830.219	661.592
341.460	26.621	829.975	661.516
342.475	26.547	829.719	660.985
343.489	26.258	828.602	658.983
344.504	26.358	828.276	659.031
345.519	26.537	827.947	659.361
346.533	26.700	827.687	659.691
347.548	26.903	827.054	659.867
348.562	26.931	826.492	659.459
349.577	26.915	825.969	658.927
350.592	26.895	825.212	658.191
351.606	26.607	825.163	657.050
352.621	26.761	824.575	657.082
353.635	26.562	824.198	656.003
354.650	26.549	823.578	655.405
355.665	26.242	822.461	653.347
356.679	25.521	820.540	649.160
357.694	25.038	820.314	647.180
358.708	25.688	820.195	649.375
359.723	25.677	819.404	648.654
360.738	26.038	819.211	649.742
361.752	26.335	819.498	650.980
362.767	26.460	819.196	651.136
363.781	26.704	819.012	651.807
364.796	26.983	818.893	652.659
365.810	26.982	818.757	652.489
366.825	27.139	818.449	652.749
367.840	27.126	817.822	652.148
368.854	27.014	817.131	651.136
369.869	26.606	815.884	648.622
370.883	26.537	815.294	647.849
371.898	26.548	814.810	647.445
372.913	26.509	813.953	646.570
373.927	26.500	813.532	646.144
374.942	26.480	813.423	645.931
375.956	26.749	812.315	645.952
376.971	26.746	812.033	645.660
377.986	26.955	811.348	645.802
379.000	26.990	811.220	645.767
380.015	27.104	810.744	645.737
381.029	26.936	810.198	644.647
382.044	26.932	809.228	643.807
383.059	27.030	808.871	643.811
384.073	27.117	808.377	643.670
385.088	27.002	807.996	642.902
386.102	27.063	807.862	642.955
387.117	26.835	806.941	641.358
388.132	26.759	806.280	640.507
389.146	26.689	805.548	639.623
390.161	25.987	804.870	636.551
391.175	26.047	804.513	636.424
392.190	26.716	804.270	638.533
393.205	26.676	803.934	638.070
394.219	25.886	801.990	633.693
395.234	24.072	800.033	625.722
396.248	23.361	798.646	622.087
397.263	24.335	799.522	626.134
398.278	26.277	800.937	634.009
399.292	26.749	800.660	635.388
400.307	26.426	800.164	633.807
401.321	26.331	799.843	633.164
402.336	26.490	799.716	633.564
403.350	26.719	799.272	633.956
404.365	27.061	799.478	635.263
405.380	27.458	799.170	636.349
406.394	27.730	798.659	636.834
407.409	27.826	798.250	636.789
408.423	27.829	798.231	636.728
409.438	27.749	797.410	635.736
410.453	27.548	797.323	634.910
411.467	27.812	796.551	635.158
412.482	27.826	796.095	634.786
413.496	27.750	795.594	634.066
414.511	27.743	795.203	633.674
415.526	27.761	794.612	633.211
416.540	27.899	794.135	633.252
417.555	27.866	793.767	632.790
418.569	27.527	793.185	631.095
419.584	27.280	793.047	630.074
420.599	27.519	792.082	630.079
421.613	108.372	1279.788	1444.176
422.628	93.201	1350.862	1444.317
