DTS Sentinel unit serial number:	SN413079Multiplexer serial number:	ORYXHardware model number:	OX4-SRSoftware version number:	ORYX F/W v4.00 Oryx Data Collector v3.7.2.0data status	okinstallation	princeton_trtdifferential loss correction	single-endedforward channel	channel 3reverse channel	N/Adate	2019/09/14time	09:36:34forward acquisition time	60.00reverse acquisition time	0.00gamma	496.2192k internal	0.2319k external	0.2319temperature offset calibration	1.0056default loss term (dB/km)	0.3790temperature slope calibration	1.0000multiplexer offset coefficient	1.0000multiplexer slope coefficient	1.0000fibre end	0.00T internal ref (°C)	31.77T ext. ref 1 (°C)	3.87T ext. ref 2 (°C)	29.92length (m)	temperature (°C)	Stokes	anti-Stokes-747.200	-200.000	-0.020	0.334
-746.185	372.209	-0.077	0.158
-745.171	429.756	0.162	-0.355
-744.156	202.450	0.108	0.168
-743.142	665.481	0.041	0.106
-742.127	-200.000	0.016	0.332
-741.112	-200.000	-0.018	-0.182
-740.098	-22.580	-0.354	0.217
-739.083	-102.639	0.802	0.194
-738.069	30.324	-0.134	0.116
-737.054	53.478	0.151	-0.147
-736.039	800.000	-0.042	0.138
-735.025	161.744	0.087	0.123
-734.010	-73.759	-0.388	-0.143
-732.996	168.208	-0.035	0.050
-731.981	-64.104	0.275	-0.113
-730.966	-134.113	-0.143	0.018
-729.952	-165.428	-0.203	-0.009
-728.937	191.660	-0.045	-0.069
-727.923	-96.258	-0.178	0.048
-726.908	-36.168	0.200	0.109
-725.894	-143.731	-0.077	-0.007
-724.879	228.026	-0.092	-0.152
-723.864	-85.061	-0.294	-0.093
-722.850	136.539	-0.082	-0.108
-721.835	86.466	-0.128	0.143
-720.821	376.174	-0.043	0.088
-719.806	360.149	0.152	0.307
-718.791	281.693	0.136	-0.247
-717.777	-73.946	-0.137	-0.050
-716.762	-135.076	0.302	-0.037
-715.748	-200.000	-0.017	0.217
-714.733	-30.935	-0.185	0.106
-713.718	-6.363	0.093	0.064
-712.704	557.164	-0.159	-0.387
-711.689	-130.632	-0.231	-0.032
-710.675	217.580	-0.077	-0.123
-709.660	-68.087	-0.150	-0.059
-708.645	112.798	0.089	0.109
-707.631	-55.843	-0.292	0.132
-706.616	580.713	0.182	0.452
-705.602	-65.095	-0.060	-0.024
-704.587	400.441	-0.074	0.156
-703.572	-71.407	-0.249	0.094
-702.558	-98.866	-0.293	-0.075
-701.543	151.059	0.117	-0.161
-700.529	-56.755	0.260	-0.116
-699.514	43.646	0.293	-0.271
-698.499	-200.000	-0.045	-0.411
-697.485	-158.575	0.333	0.019
-696.470	1.962	-0.186	-0.136
-695.456	132.759	0.092	0.120
-694.441	-73.884	-0.113	-0.041
-693.426	135.428	-0.108	-0.142
-692.412	-91.044	0.210	0.061
-691.397	51.787	-0.102	-0.098
-690.383	-88.923	-0.162	-0.048
-689.368	590.239	-0.112	0.279
-688.354	351.733	-0.247	-0.494
-687.339	15.442	-0.186	0.148
-686.324	800.000	0.027	-0.083
-685.310	-97.699	-0.095	-0.025
-684.295	-200.000	-0.030	-0.184
-683.281	-69.026	-0.330	-0.128
-682.266	-136.737	-0.279	0.032
-681.251	800.000	0.041	-0.149
-680.237	-200.000	0.018	0.270
-679.222	407.339	-0.089	-0.190
-678.208	800.000	-0.087	-0.278
-677.193	186.635	-0.153	-0.231
-676.178	73.625	0.066	-0.070
-675.164	61.965	-0.080	0.080
-674.149	446.191	0.099	0.219
-673.135	-84.930	0.272	-0.086
-672.120	-128.894	0.095	0.014
-671.105	166.521	0.130	-0.185
-670.091	-38.688	-0.199	-0.106
-669.076	-173.255	-0.166	0.005
-668.062	26.324	-0.319	-0.269
-667.047	800.000	0.088	-0.273
-666.032	-200.000	0.003	-0.110
-665.018	459.709	0.119	-0.267
-664.003	-85.124	0.116	-0.037
-662.989	-88.110	-0.162	0.049
-661.974	-200.000	-0.025	0.265
-660.959	-147.694	-0.192	-0.016
-659.945	563.119	0.182	-0.443
-658.930	-176.679	-0.383	0.010
-657.916	310.605	0.119	-0.226
-656.901	-168.520	-0.060	0.002
-655.886	54.737	0.176	-0.171
-654.872	-21.871	-0.202	0.124
-653.857	45.079	0.231	-0.214
-652.843	800.000	-0.008	0.033
-651.828	-73.365	-0.255	-0.094
-650.814	-200.000	-0.010	-0.084
-649.799	-200.000	0.058	0.291
-648.784	196.793	0.056	-0.086
-647.770	155.976	0.092	-0.128
-646.755	-50.016	-0.192	0.092
-645.741	800.000	0.064	0.238
-644.726	-200.000	0.070	-0.369
-643.711	-95.231	-0.441	0.120
-642.697	131.163	0.065	-0.084
-641.682	-3.734	-0.133	-0.093
-640.668	-12.806	0.128	-0.084
-639.653	-36.978	0.228	-0.123
-638.638	-200.000	0.007	0.330
-637.624	-56.821	0.436	0.194
-636.609	24.167	0.187	0.155
-635.595	-63.375	-0.222	-0.092
-634.580	-150.980	0.143	-0.011
-633.565	25.034	0.174	-0.145
-632.551	-54.631	0.131	0.060
-631.536	140.091	-0.131	-0.174
-630.522	800.000	0.025	-0.091
-629.507	-190.367	0.068	0.001
-628.492	192.331	-0.167	-0.254
-627.478	-38.306	-0.422	-0.225
-626.463	-17.687	-0.211	-0.134
-625.449	274.164	0.122	-0.217
-624.434	-42.303	-0.117	-0.060
-623.419	-200.000	-0.129	-0.678
-622.405	233.304	-0.118	-0.196
-621.390	25.281	0.256	-0.214
-620.376	-200.000	0.044	-0.337
-619.361	-200.000	0.008	-0.069
-618.346	255.672	-0.079	0.137
-617.332	-152.365	0.143	-0.010
-616.317	-2.238	0.339	-0.239
-615.303	-200.000	0.011	0.147
-614.288	-200.000	0.030	0.148
-613.273	-200.000	-0.003	0.034
-612.259	800.000	0.060	-0.205
-611.244	-200.000	-0.006	0.038
-610.230	245.976	-0.094	-0.160
-609.215	-158.289	0.270	-0.016
-608.201	-198.203	-0.188	-0.001
-607.186	127.511	0.070	-0.089
-606.171	583.124	0.093	-0.229
-605.157	-200.000	-0.037	-0.175
-604.142	-20.472	-0.225	0.139
-603.128	800.000	0.133	0.383
-602.113	-121.583	0.359	-0.060
-601.098	-36.082	-0.367	0.200
-600.084	161.921	0.249	-0.351
-599.069	-200.000	-0.019	-0.202
-598.055	-35.046	0.068	-0.037
-597.040	-19.571	0.142	-0.089
-596.025	231.168	-0.107	-0.176
-595.011	126.285	0.076	0.097
-593.996	-147.088	-0.473	-0.041
-592.982	39.516	0.142	0.128
-591.967	-129.495	0.091	-0.013
-590.952	-73.972	0.188	0.069
-589.938	451.209	-0.044	0.098
-588.923	-36.709	0.087	-0.047
-587.909	-124.820	-0.275	0.043
-586.894	64.628	-0.250	0.254
-585.879	-19.474	-0.186	0.116
-584.865	-42.712	-0.270	0.138
-583.850	-14.257	-0.203	-0.131
-582.836	290.942	0.162	-0.296
-581.821	-200.000	-0.011	-0.140
-580.806	-100.098	0.179	0.045
-579.792	-30.993	0.050	0.028
-578.777	-200.000	-0.028	0.250
-577.763	-200.000	-0.014	-0.073
-576.748	165.877	0.179	0.254
-575.733	-200.000	-0.002	-0.216
-574.719	-1.343	-0.037	-0.026
-573.704	-200.000	0.013	-0.113
-572.690	186.164	0.151	-0.226
-571.675	-63.558	-0.217	-0.089
-570.661	-78.338	-0.107	0.037
-569.646	-175.505	-0.122	0.003
-568.631	20.155	-0.028	0.023
-567.617	-200.000	-0.003	-0.088
-566.602	149.943	-0.057	-0.078
-565.588	-98.657	0.169	-0.043
-564.573	146.031	0.224	0.302
-563.558	800.000	0.048	-0.178
-562.544	-35.112	0.052	-0.029
-561.529	-76.472	-0.075	0.027
-560.515	800.000	-0.030	-0.132
-559.500	-145.612	0.073	-0.007
-558.485	-75.031	-0.111	0.040
-557.471	800.000	0.110	0.365
-556.456	211.841	-0.036	0.057
-555.442	-200.000	-0.001	0.024
-554.427	204.730	-0.176	0.275
-553.412	-200.000	-0.025	0.192
-552.398	800.000	-0.041	-0.161
-551.383	415.393	0.049	-0.105
-550.369	-104.403	-0.180	0.042
-549.354	-11.685	0.148	-0.097
-548.339	-113.505	-0.337	0.066
-547.325	800.000	0.072	0.201
-546.310	-102.237	0.237	0.057
-545.296	229.762	-0.105	-0.173
-544.281	-142.139	-0.109	0.011
-543.266	-60.672	-0.182	-0.077
-542.252	6.790	-0.145	-0.109
-541.237	-68.679	0.089	-0.034
-540.223	-102.597	0.229	-0.055
-539.208	32.267	-0.068	0.059
-538.193	55.335	-0.145	0.140
-537.179	-108.643	0.117	-0.025
-536.164	80.877	-0.306	-0.331
-535.150	-94.194	-0.192	-0.053
-534.135	-62.222	0.320	-0.134
-533.121	75.754	-0.133	0.141
-532.106	-67.610	-0.137	-0.054
-531.091	-0.514	-0.210	-0.149
-530.077	19.034	0.124	0.100
-529.062	-200.000	0.006	-0.181
-528.048	-185.185	-0.513	-0.008
-527.033	108.029	0.040	-0.048
-526.018	790.412	-0.117	-0.324
-525.004	800.000	-0.040	0.156
-523.989	-45.640	0.205	0.102
-522.975	-39.655	-0.103	-0.054
-521.960	-153.124	0.175	0.012
-520.945	-200.000	0.024	-0.219
-519.931	153.170	-0.105	0.144
-518.916	521.750	0.073	0.171
-517.902	-63.019	-0.338	-0.140
-516.887	800.000	-0.087	-0.326
-515.872	-200.000	-0.020	-0.242
-514.858	-200.000	0.015	0.135
-513.843	-52.584	0.121	0.056
-512.829	10.042	0.248	-0.189
-511.814	-186.334	-0.255	-0.004
-510.799	-130.694	-0.147	-0.020
-509.785	-200.000	-0.025	-0.429
-508.770	-18.250	0.095	-0.060
-507.756	68.990	0.087	-0.089
-506.741	334.953	0.048	-0.092
-505.726	-60.065	0.173	-0.074
-504.712	-99.047	-0.173	0.044
-503.697	-150.426	0.181	-0.014
-502.683	-57.999	0.047	-0.021
-501.668	-112.383	0.191	-0.038
-500.653	-125.434	-0.263	0.040
-499.639	162.924	0.229	-0.322
-498.624	-102.211	-0.290	0.070
-497.610	-200.000	-0.063	-0.316
-496.595	-126.469	0.140	-0.021
-495.581	-200.000	-0.022	-0.129
-494.566	39.021	0.074	-0.066
-493.551	-200.000	0.006	0.397
-492.537	-173.767	-0.132	-0.004
-491.522	-22.612	0.101	-0.061
-490.508	445.462	-0.100	0.219
-489.493	-30.000	-0.139	-0.079
-488.478	62.791	-0.154	0.154
-487.464	-112.087	-0.372	-0.075
-486.449	-54.060	-0.404	-0.184
-485.435	60.772	0.158	-0.157
-484.420	-131.806	0.089	-0.012
-483.405	67.106	0.155	0.158
-482.391	164.590	0.026	-0.037
-481.376	-168.286	-0.380	0.015
-480.362	-200.000	-0.109	0.001
-479.347	51.768	-0.196	0.186
-478.332	284.436	-0.085	-0.153
-477.318	-200.000	0.046	0.238
-476.303	-179.254	-0.197	0.004
-475.289	417.952	0.139	-0.298
-474.274	-46.909	-0.066	-0.032
-473.259	-12.695	-0.125	-0.081
-472.245	-200.000	-0.014	-0.176
-471.230	-200.000	0.012	-0.083
-470.216	800.000	-0.110	-0.409
-469.201	-200.000	0.029	-0.151
-468.186	19.114	-0.242	-0.194
-467.172	79.526	-0.039	-0.042
-466.157	386.789	-0.120	-0.248
-465.143	127.289	0.182	0.231
-464.128	-128.264	0.386	-0.055
-463.113	800.000	0.054	-0.228
-462.099	-70.185	-0.125	0.048
-461.084	800.000	-0.052	-0.157
-460.070	46.161	0.257	-0.238
-459.055	279.040	-0.005	0.009
-458.040	-54.699	0.112	0.051
-457.026	221.922	-0.107	0.173
-456.011	-154.842	-0.273	0.018
-454.997	1.029	-0.267	-0.192
-453.982	-200.000	0.033	-0.193
-452.968	-7.178	-0.274	0.186
-451.953	30.792	-0.143	-0.122
-450.938	-109.506	0.190	-0.040
-449.924	800.000	0.054	-0.161
-448.909	62.096	0.199	-0.198
-447.895	-200.000	-0.008	-0.088
-446.880	-200.000	0.016	-0.421
-445.865	800.000	-0.016	-0.046
-444.851	800.000	-0.077	0.240
-443.836	-200.000	-0.016	-0.149
-442.822	549.821	-0.034	0.081
-441.807	-200.000	0.024	0.232
-440.792	180.238	0.346	0.507
-439.778	395.298	0.186	0.387
-438.763	-200.000	0.033	0.208
-437.749	-200.000	-0.030	0.441
-436.734	-39.301	0.233	0.122
-435.719	-136.446	-0.041	-0.005
-434.705	576.337	-0.100	-0.243
-433.690	-200.000	-0.059	0.503
-432.676	-200.000	-0.015	0.174
-431.661	141.731	-0.007	0.010
-430.646	-90.591	0.132	-0.038
-429.632	-87.663	0.081	-0.025
-428.617	-200.000	0.004	0.026
-427.603	4.819	-0.109	0.080
-426.588	-200.000	0.001	0.017
-425.573	30.543	0.049	0.042
-424.559	-200.000	0.036	0.232
-423.544	-114.945	-0.201	0.038
-422.530	-32.299	0.114	0.063
-421.515	-143.849	-0.281	-0.026
-420.500	800.000	0.067	0.220
-419.486	61.778	0.173	-0.172
-418.471	196.777	-0.166	0.253
-417.457	735.927	0.122	0.328
-416.442	10.911	-0.273	-0.208
-415.428	-98.916	0.044	-0.011
-414.413	-148.596	0.206	-0.017
-413.398	-200.000	0.009	-0.187
-412.384	-78.034	0.247	-0.085
-411.369	-151.154	0.377	0.028
-410.355	-46.367	-0.169	0.083
-409.340	800.000	0.027	0.079
-408.325	-145.777	0.200	-0.018
-407.311	33.927	0.091	-0.079
-406.296	101.567	-0.303	0.353
-405.282	31.585	-0.158	-0.136
-404.267	288.477	-0.110	-0.199
-403.252	61.438	-0.143	-0.142
-402.238	800.000	-0.028	0.103
-401.223	52.949	0.201	0.192
-400.209	-26.116	-0.079	0.046
-399.194	-29.405	0.229	-0.131
-398.179	237.079	0.122	0.202
-397.165	800.000	0.019	0.059
-396.150	-156.159	-0.106	0.007
-395.136	800.000	-0.084	-0.285
-394.121	-134.760	0.180	0.022
-393.106	800.000	-0.042	-0.159
-392.092	-97.869	0.197	-0.051
-391.077	584.098	-0.105	-0.257
-390.063	-71.365	-0.020	-0.007
-389.048	145.677	-0.033	-0.044
-388.033	306.844	0.094	-0.175
-387.019	224.728	0.215	-0.347
-386.004	-22.559	-0.147	-0.089
-384.990	-92.702	0.241	0.067
-383.975	-200.000	0.066	0.515
-382.960	281.310	-0.043	-0.076
-381.946	-200.000	0.041	0.193
-380.931	12.723	-0.229	0.177
-379.917	-157.262	-0.273	0.016
-378.902	800.000	-0.088	0.297
-377.888	104.140	-0.211	-0.248
-376.873	184.683	-0.118	-0.174
-375.858	-200.000	0.036	0.263
-374.844	-200.000	0.006	0.088
-373.829	-16.255	0.152	-0.096
-372.815	-32.139	0.083	-0.046
-371.800	-118.590	0.316	0.056
-370.785	41.424	0.218	0.197
-369.771	800.000	0.037	-0.111
-368.756	18.394	-0.286	-0.227
-367.742	-47.115	0.067	0.032
-366.727	-139.789	0.190	0.020
-365.712	31.351	-0.077	0.066
-364.698	-200.000	-0.048	0.324
-363.683	135.395	-0.231	0.300
-362.669	379.441	-0.148	-0.301
-361.654	-45.550	0.165	0.081
-360.639	465.157	-0.058	0.129
-359.625	166.263	-0.119	0.168
-358.610	93.407	-0.291	0.329
-357.596	800.000	-0.100	0.304
-356.581	-141.518	0.216	0.022
-355.566	22.630	-0.095	0.078
-354.552	-43.689	0.081	-0.041
-353.537	-96.061	0.146	0.039
-352.523	38.273	0.149	-0.132
-351.508	-39.695	0.251	-0.131
-350.493	-117.584	-0.348	-0.063
-349.479	772.490	0.053	-0.145
-348.464	-0.523	0.070	0.050
-347.450	157.183	0.103	-0.143
-346.435	122.636	-0.108	0.135
-345.420	-105.405	0.245	0.056
-344.406	-23.863	-0.450	-0.268
-343.391	229.488	-0.097	0.157
-342.377	112.795	0.133	0.160
-341.362	-118.907	-0.124	-0.022
-340.348	-110.627	0.346	-0.071
-339.333	-133.349	0.421	0.053
-338.318	800.000	-0.046	0.142
-337.304	491.034	0.045	0.102
-336.289	96.479	0.028	0.032
-335.275	747.747	-0.071	0.192
-334.260	-187.237	0.379	0.005
-333.245	-18.240	0.220	-0.137
-332.231	800.000	0.058	0.198
-331.216	-139.601	-0.520	0.055
-330.202	-29.862	0.173	0.098
-329.187	-200.000	-0.004	0.117
-328.172	662.031	0.041	0.106
-327.158	182.913	0.179	-0.264
-326.143	98.708	0.129	-0.148
-325.129	-35.884	-0.348	-0.187
-324.114	101.003	-0.053	0.061
-323.099	-177.772	0.142	-0.003
-322.085	800.000	-0.061	-0.247
-321.070	66.330	0.034	-0.034
-320.056	37.947	-0.231	-0.205
-319.041	9.137	-0.175	-0.132
-318.026	-200.000	0.051	0.238
-317.012	-129.886	-0.311	0.042
-315.997	38.672	-0.041	-0.036
-314.983	149.211	-0.186	0.250
-313.968	-53.573	0.341	0.155
-312.953	-23.281	0.339	-0.203
-311.939	-108.867	-0.263	-0.056
-310.924	-92.464	-0.503	-0.141
-309.910	103.503	-0.058	-0.067
-308.895	246.492	-0.078	0.130
-307.880	179.536	-0.097	0.142
-306.866	370.801	0.055	0.111
-305.851	179.717	-0.148	0.216
-304.837	800.000	-0.026	-0.106
-303.822	101.638	0.190	0.220
-302.807	-200.000	-0.017	0.214
-301.793	-45.268	-0.159	0.078
-300.778	14.253	0.223	-0.172
-299.764	68.333	-0.142	-0.145
-298.749	298.198	-0.079	-0.144
-297.735	-87.653	0.207	-0.062
-296.720	-200.000	-0.046	-0.234
-295.705	800.000	0.076	-0.216
-294.691	-119.794	-0.207	0.035
-293.676	358.916	0.094	-0.187
-292.662	-3.248	0.103	0.071
-291.647	-66.784	0.065	-0.026
-290.632	-200.000	-0.008	0.074
-289.618	-200.000	-0.010	0.172
-288.603	-200.000	0.022	0.166
-287.589	-200.000	-0.030	-0.358
-286.574	-200.000	-0.061	-0.449
-285.559	94.955	-0.149	-0.169
-284.545	-173.720	-0.365	-0.011
-283.530	-12.089	0.299	-0.194
-282.516	800.000	-0.047	-0.165
-281.501	-200.000	0.058	0.368
-280.486	82.638	-0.147	-0.158
-279.472	-61.921	-0.135	-0.056
-278.457	43.480	0.097	0.089
-277.443	-91.738	0.097	0.027
-276.428	-200.000	-0.017	0.077
-275.413	-82.551	0.230	-0.074
-274.399	-200.000	-0.052	0.285
-273.384	122.425	0.152	0.189
-272.370	-1.539	-0.122	0.086
-271.355	-113.294	0.032	-0.006
-270.340	339.795	-0.134	-0.259
-269.326	191.905	-0.089	-0.133
-268.311	-200.000	0.025	-0.162
-267.297	32.834	0.145	0.124
-266.282	-57.049	-0.180	-0.079
-265.267	-97.606	-0.350	0.090
-264.253	-200.000	0.025	0.146
-263.238	800.000	-0.057	0.182
-262.224	478.590	-0.093	0.210
-261.209	0.008	0.308	0.218
-260.195	-200.000	-0.017	-0.102
-259.180	-200.000	-0.025	0.560
-258.165	-31.116	0.108	-0.061
-257.151	176.079	0.151	-0.217
-256.136	161.215	-0.051	-0.070
-255.122	800.000	-0.067	0.204
-254.107	-200.000	-0.023	-0.226
-253.092	-32.647	0.044	-0.025
-252.078	-100.494	0.051	0.013
-251.063	-20.083	-0.208	0.127
-250.049	11.844	0.197	-0.150
-249.034	800.000	-0.091	-0.292
-248.019	-200.000	0.015	-0.169
-247.005	-138.247	0.074	0.008
-245.990	800.000	0.089	-0.349
-244.976	-55.912	0.237	-0.105
-243.961	88.959	0.069	0.076
-242.946	133.290	-0.227	0.290
-241.932	800.000	0.084	0.345
-240.917	186.960	0.043	-0.064
-239.903	800.000	-0.063	0.245
-238.888	-7.694	0.130	0.087
-237.873	124.243	-0.093	-0.116
-236.859	34.550	0.088	-0.076
-235.844	-4.604	0.163	-0.112
-234.830	-122.536	0.316	-0.051
-233.815	-62.198	0.083	0.034
-232.800	-200.000	0.010	0.169
-231.786	-200.000	0.030	-0.272
-230.771	-200.000	-0.078	0.444
-229.757	-115.002	-0.279	0.053
-228.742	-19.837	0.170	0.104
-227.727	-133.326	-0.236	0.030
-226.713	107.526	0.207	0.244
-225.698	-200.000	-0.006	0.088
-224.684	-200.000	0.007	0.212
-223.669	-165.899	0.342	-0.015
-222.655	800.000	0.044	0.126
-221.640	-200.000	-0.001	0.303
-220.625	-160.084	0.252	0.014
-219.611	-114.281	0.220	0.042
-218.596	-200.000	0.009	0.152
-217.582	-2.206	0.342	0.238
-216.567	330.265	-0.057	0.109
-215.552	269.922	-0.129	-0.225
-214.538	383.575	-0.099	0.203
-213.523	54.159	-0.183	0.174
-212.509	-157.871	-0.080	-0.005
-211.494	-164.619	-0.149	0.007
-210.479	452.313	0.108	-0.238
-209.465	1.472	0.049	0.035
-208.450	237.384	0.185	0.304
-207.436	-65.407	0.162	-0.065
-206.421	-95.754	0.085	0.022
-205.406	-84.704	-0.323	0.101
-204.392	361.602	-0.198	0.392
-203.377	-69.166	-0.054	-0.021
-202.363	-54.137	0.247	0.111
-201.348	262.644	-0.101	0.173
-200.333	-200.000	-0.018	0.125
-199.319	-178.753	0.183	-0.004
-198.304	116.939	0.104	0.127
-197.290	-75.550	0.166	-0.058
-196.275	-141.283	-0.167	-0.017
-195.260	-200.000	0.070	-0.327
-194.246	184.645	0.008	-0.012
-193.231	-0.214	-0.270	0.190
-192.217	283.440	-0.101	-0.180
-191.202	-200.000	0.019	0.128
-190.187	-42.460	0.443	0.224
-189.173	42.771	-0.097	0.088
-188.158	124.716	0.259	0.323
-187.144	-148.940	0.299	0.024
-186.129	-84.010	0.333	0.105
-185.114	126.893	-0.089	-0.112
-184.100	555.549	-0.059	-0.140
-183.085	-33.176	0.268	-0.147
-182.071	692.987	-0.105	0.271
-181.056	53.620	-0.028	-0.027
-180.042	380.479	0.113	0.229
-179.027	-149.770	0.214	0.017
-178.012	-71.047	0.104	-0.039
-176.998	-72.001	0.122	-0.045
-175.983	77.406	-0.099	0.104
-174.969	3.184	-0.191	-0.137
-173.954	-35.784	-0.218	0.117
-172.939	-200.000	-0.018	-0.126
-171.925	-200.000	-0.032	-0.323
-170.910	-44.254	-0.234	-0.116
-169.896	31.579	-0.088	0.075
-168.881	94.857	-0.204	0.230
-167.866	-200.000	0.026	-0.229
-166.852	-28.145	0.473	-0.270
-165.837	43.360	-0.225	0.203
-164.823	-23.588	0.170	0.101
-163.808	-86.024	-0.324	0.099
-162.793	244.799	0.129	0.215
-161.779	-155.089	0.139	0.009
-160.764	-200.000	0.039	0.223
-159.750	-200.000	-0.039	-0.196
-158.735	800.000	0.008	-0.029
-157.720	-86.992	-0.209	-0.063
-156.706	-113.461	0.128	0.025
-155.691	144.262	0.298	0.393
-154.677	314.265	0.157	0.292
-153.662	404.305	-0.109	-0.227
-152.647	-121.172	-0.102	0.017
-151.633	4.793	0.188	-0.136
-150.618	135.180	0.037	0.048
-149.604	-200.000	-0.017	0.255
-148.589	-47.305	0.382	-0.184
-147.574	52.331	0.083	0.078
-146.560	-200.000	-0.061	-0.348
-145.545	-200.000	-0.017	-0.170
-144.531	-36.249	-0.157	-0.084
-143.516	-200.000	0.002	0.176
-142.502	97.644	-0.160	-0.182
-141.487	-200.000	0.018	0.244
-140.472	283.746	0.097	-0.173
-139.458	800.000	-0.046	0.200
-138.443	800.000	0.042	-0.138
-137.429	87.067	-0.129	0.141
-136.414	-200.000	-0.014	-0.199
-135.399	-89.181	0.070	0.020
-134.385	27.460	0.260	0.216
-133.370	-37.155	0.082	0.043
-132.356	-39.018	0.065	-0.034
-131.341	-200.000	-0.071	0.379
-130.326	-63.306	-0.267	0.108
-129.312	175.005	0.023	0.033
-128.297	-200.000	0.006	0.109
-127.283	335.467	-0.204	0.391
-126.268	-122.006	0.307	0.050
-125.253	-200.000	0.016	0.182
-124.239	-200.000	-0.007	0.113
-123.224	-98.548	-0.364	-0.092
-122.210	75.387	-0.079	-0.083
-121.195	45.406	0.194	-0.177
-120.180	533.659	0.032	-0.076
-119.166	-153.844	-0.170	0.011
-118.151	-200.000	0.018	-0.081
-117.137	-46.278	0.109	0.053
-116.122	-197.741	0.468	-0.003
-115.107	-134.169	0.124	-0.015
-114.093	71.553	-0.079	-0.081
-113.078	38.098	-0.177	-0.155
-112.064	3.027	0.045	-0.032
-111.049	483.541	0.142	-0.319
-110.034	311.881	0.098	0.181
-109.020	-100.408	0.294	0.072
-108.005	-132.100	-0.136	-0.017
-106.991	-104.915	-0.208	0.047
-105.976	-106.186	0.283	-0.063
-104.962	-5.843	0.310	-0.209
-103.947	220.025	-0.196	-0.310
-102.932	164.297	0.103	-0.144
-101.918	25.274	0.106	0.087
-100.903	52.597	0.085	0.080
-99.889	-170.665	0.100	0.003
-98.874	-119.319	-0.131	0.022
-97.859	705.064	0.076	-0.197
-96.845	78.548	0.150	0.159
-95.830	-137.366	-0.141	0.016
-94.816	559.509	0.126	-0.300
-93.801	22.433	-0.158	0.128
-92.786	177.841	0.343	0.493
-91.772	-63.328	-0.250	-0.101
-90.757	-76.265	-0.100	-0.035
-89.743	-124.300	-0.230	-0.035
-88.728	-59.946	-0.168	-0.071
-87.713	-25.989	0.194	0.112
-86.699	156.094	0.044	-0.059
-85.684	-172.985	-0.229	0.007
-84.670	-200.000	-0.004	0.044
-83.655	160.415	0.169	-0.233
-82.640	337.909	-0.085	0.164
-81.626	-64.725	0.084	0.033
-80.611	-200.000	-0.032	0.266
-79.597	-200.000	0.004	-0.061
-78.582	388.683	0.079	0.160
-77.567	-200.000	0.053	-0.248
-76.553	91.330	0.290	0.321
-75.538	41.100	0.216	0.192
-74.524	-42.263	0.204	-0.103
-73.509	-23.595	0.354	0.209
-72.494	379.412	-0.188	-0.379
-71.480	-45.649	0.216	0.105
-70.465	405.368	-0.096	0.200
-69.451	-200.000	-0.037	0.272
-68.436	800.000	-0.046	0.196
-67.422	-144.922	-0.102	-0.009
-66.407	44.085	-0.023	-0.021
-65.392	136.139	0.132	0.170
-64.378	800.000	0.078	0.247
-63.363	800.000	-0.141	0.454
-62.349	800.000	-0.093	0.318
-61.334	238.331	-0.713	-1.167
-60.319	-108.093	0.345	0.074
-59.305	-200.000	-0.001	-0.778
-58.290	218.933	0.512	0.807
-57.276	800.000	0.611	1.715
-56.261	-200.000	96.335	581.141
-55.246	605.447	1420.374	3484.241
-54.232	186.531	2618.292	3838.617
-53.217	117.663	2203.496	2670.781
-52.203	42.563	1734.582	1554.296
-51.188	34.936	1545.127	1331.638
-50.173	32.615	1517.545	1291.928
-49.159	51.965	1566.181	1468.483
-48.144	53.721	1583.246	1496.646
-47.130	35.304	1543.607	1332.679
-46.115	32.036	1528.890	1297.376
-45.100	31.844	1525.503	1293.127
-44.086	31.823	1523.813	1291.497
-43.071	31.719	1521.838	1289.055
-42.057	31.737	1519.817	1287.415
-41.042	31.810	1518.734	1286.949
-40.027	31.797	1517.324	1285.617
-39.013	31.845	1514.918	1283.853
-37.998	31.665	1514.548	1282.257
-36.984	31.808	1512.861	1281.759
-35.969	31.795	1511.847	1280.755
-34.954	31.828	1510.170	1279.515
-33.940	31.745	1509.146	1278.025
-32.925	31.836	1507.121	1276.880
-31.911	31.869	1505.846	1275.977
-30.896	31.797	1504.495	1274.287
-29.881	31.796	1503.577	1273.452
-28.867	31.850	1501.634	1272.129
-27.852	31.891	1500.377	1271.290
-26.838	31.897	1498.627	1269.796
-25.823	31.843	1497.445	1268.381
-24.809	31.836	1495.585	1266.704
-23.794	31.800	1494.124	1265.176
-22.779	31.696	1493.586	1263.970
-21.765	31.799	1492.071	1263.327
-20.750	31.854	1490.064	1261.951
-19.736	31.804	1489.734	1261.281
-18.721	31.809	1488.680	1260.378
-17.706	31.685	1487.942	1258.867
-16.692	31.832	1486.397	1258.499
-15.677	31.758	1485.655	1257.324
-14.663	31.713	1484.418	1255.921
-13.648	31.615	1483.969	1254.838
-12.633	31.682	1482.255	1253.787
-11.619	31.731	1481.788	1253.670
-10.604	31.667	1481.003	1252.524
-9.590	31.728	1479.863	1251.923
-8.575	31.718	1479.181	1251.229
-7.560	31.706	1478.065	1250.152
-6.546	31.614	1477.193	1248.754
-5.531	31.754	1475.896	1248.538
-4.517	31.587	1475.593	1247.119
-3.502	31.675	1474.632	1246.843
-2.487	31.642	1473.527	1245.643
-1.473	31.700	1472.397	1245.024
-0.458	31.717	1470.768	1243.709
0.556	32.355	1461.916	1235.356
1.571	30.212	1435.769	1199.310
2.586	27.397	1374.987	1130.980
3.600	25.848	1292.177	1053.717
4.615	24.057	1245.738	1005.652
5.629	20.187	1187.372	937.568
6.644	11.412	1100.308	824.588
7.659	4.783	1060.186	762.084
8.673	3.872	1054.392	753.416
9.688	3.889	1051.373	751.274
10.702	3.896	1049.968	750.240
11.717	3.842	1048.302	748.722
12.731	6.294	1050.719	762.270
13.746	14.524	1061.043	809.804
14.761	20.022	1068.278	842.055
15.775	19.908	1067.269	840.632
16.790	19.140	1065.282	835.268
17.804	18.027	1063.603	828.482
18.819	17.163	1061.384	822.500
19.834	16.693	1060.196	819.234
20.848	16.456	1059.210	817.253
21.863	16.301	1058.265	815.702
22.877	16.134	1057.811	814.475
23.892	15.846	1057.267	812.593
24.907	15.794	1056.489	811.672
25.921	15.898	1055.467	811.318
26.936	15.850	1054.902	810.579
27.950	15.967	1053.566	810.041
28.965	15.860	1052.602	808.715
29.980	15.993	1051.660	808.559
30.994	16.020	1050.511	807.735
32.009	16.172	1049.566	807.662
33.023	16.233	1049.128	807.546
34.038	16.238	1047.686	806.391
35.053	16.130	1046.943	805.228
36.067	16.042	1046.021	804.029
37.082	16.036	1045.136	803.249
38.096	15.911	1044.879	802.385
39.111	16.114	1043.271	802.046
40.126	16.069	1042.926	801.494
41.140	16.004	1041.959	800.373
42.155	15.841	1040.513	798.418
43.169	15.658	1039.722	796.872
44.184	15.763	1038.119	796.069
45.199	15.712	1037.255	795.098
46.213	15.805	1036.298	794.733
47.228	15.771	1035.576	793.950
48.242	15.880	1034.889	793.865
49.257	15.947	1033.933	793.375
50.271	15.947	1032.606	792.288
51.286	15.942	1032.029	791.752
52.301	16.017	1031.251	791.435
53.315	15.977	1030.704	790.758
54.330	15.887	1029.921	789.668
55.344	15.827	1028.884	788.520
56.359	15.864	1027.795	787.790
57.374	15.652	1027.585	786.566
58.388	15.793	1026.510	786.335
59.403	15.892	1025.170	785.698
60.417	15.624	1024.772	784.076
61.432	15.698	1024.324	784.009
62.447	15.679	1023.525	783.238
63.461	15.454	1022.830	781.591
64.476	15.578	1021.638	781.186
65.490	15.561	1020.304	780.019
66.505	15.636	1019.282	779.516
67.520	15.636	1018.708	779.009
68.534	15.652	1018.374	778.758
69.549	15.560	1017.399	777.520
70.563	15.705	1016.301	777.279
71.578	15.623	1015.808	776.457
72.593	15.481	1014.924	775.054
73.607	15.401	1014.028	773.933
74.622	15.422	1013.206	773.334
75.636	15.464	1012.264	772.743
76.651	15.548	1011.623	772.567
77.666	15.471	1011.106	771.752
78.680	15.516	1010.440	771.382
79.695	15.473	1009.765	770.604
80.709	15.489	1009.261	770.221
81.724	15.556	1008.421	769.818
82.739	15.714	1007.908	770.082
83.753	15.705	1007.078	769.341
84.768	15.870	1006.168	769.333
85.782	15.954	1005.355	769.026
86.797	16.233	1004.501	769.575
87.812	16.094	1003.941	768.447
88.826	15.974	1003.006	767.116
89.841	15.981	1002.321	766.553
90.855	16.069	1001.150	765.990
91.870	16.041	1000.682	765.438
92.884	16.185	999.675	765.255
93.899	16.265	998.898	764.955
94.914	16.058	998.575	763.700
95.928	16.170	997.463	763.288
96.943	16.228	997.135	763.235
97.957	16.196	996.202	762.308
98.972	16.132	995.097	761.107
99.987	16.149	994.406	760.586
101.001	16.124	993.571	759.767
102.016	16.057	993.051	759.000
103.030	16.086	992.182	758.399
104.045	16.073	990.908	757.299
105.060	16.067	990.259	756.709
106.074	16.033	989.449	755.872
107.089	15.857	988.224	754.084
108.103	15.740	987.468	752.913
109.118	15.606	986.479	751.496
110.133	15.512	985.946	750.603
111.147	15.582	985.096	750.203
112.162	15.724	983.404	749.480
113.176	15.740	982.974	749.156
114.191	15.768	982.476	748.833
115.206	15.896	981.229	748.387
116.220	15.856	980.246	747.392
117.235	15.782	979.860	746.703
118.249	15.672	978.790	745.335
119.264	15.690	977.932	744.697
120.279	15.674	977.244	744.037
121.293	15.698	976.445	743.467
122.308	15.663	975.517	742.539
123.322	15.539	974.640	741.262
124.337	15.543	973.711	740.508
125.352	15.579	972.502	739.682
126.366	15.533	971.556	738.691
127.381	15.420	970.591	737.398
128.395	15.618	969.332	737.243
129.410	15.608	968.246	736.310
130.424	15.681	967.481	735.982
131.439	15.765	966.700	735.687
132.454	15.662	966.187	734.785
133.468	15.886	965.281	735.008
134.483	15.849	964.810	734.422
135.497	15.909	963.985	733.990
136.512	15.902	963.645	733.636
137.527	15.932	962.924	733.155
138.541	15.834	962.005	731.962
139.556	15.806	961.162	731.135
140.570	15.850	960.299	730.607
141.585	15.897	959.399	730.060
142.600	16.016	959.365	730.483
143.614	16.189	958.237	730.309
144.629	16.017	957.886	729.235
145.643	16.107	956.879	728.790
146.658	16.077	955.751	727.737
147.673	16.020	955.245	727.041
148.687	15.953	954.263	725.941
149.702	15.790	953.323	724.464
150.716	15.821	952.099	723.603
151.731	15.824	951.288	722.935
152.746	15.868	950.657	722.578
153.760	15.923	949.779	722.084
154.775	16.025	949.155	721.981
155.789	15.885	948.710	720.979
156.804	15.958	947.998	720.688
157.819	15.949	947.245	720.011
158.833	15.991	946.180	719.318
159.848	16.153	945.879	719.719
160.862	16.260	945.136	719.543
161.877	16.270	944.534	719.066
162.892	16.090	943.351	717.335
163.906	15.958	942.643	716.172
164.921	15.905	941.390	714.931
165.935	15.922	940.599	714.341
166.950	15.859	939.745	713.362
167.964	16.071	938.439	713.202
168.979	16.018	937.449	712.163
169.994	15.877	937.080	711.225
171.008	15.927	935.950	710.516
172.023	16.160	934.507	710.337
173.037	16.196	934.236	710.220
174.052	16.210	933.957	710.007
175.067	16.230	932.925	709.241
176.081	16.085	932.363	708.144
177.096	16.053	931.053	706.952
178.110	15.955	930.491	706.051
179.125	16.042	929.507	705.605
180.140	16.079	928.768	705.139
181.154	16.099	928.281	704.789
182.169	16.172	927.799	704.666
183.183	16.264	927.022	704.399
184.198	16.288	926.559	704.085
185.213	16.260	925.863	703.374
186.227	16.185	925.366	702.623
187.242	16.304	924.634	702.501
188.256	16.436	923.787	702.343
189.271	16.417	923.385	701.896
190.286	16.288	922.960	700.975
191.300	16.324	921.665	700.078
192.315	16.037	920.665	698.071
193.329	15.949	920.077	697.199
194.344	15.908	919.504	696.531
195.359	15.965	919.060	696.371
196.373	16.161	918.577	696.753
197.388	16.285	917.703	696.539
198.402	16.350	917.672	696.723
199.417	16.499	917.365	697.042
200.432	16.601	916.523	696.763
201.446	16.646	916.484	696.854
202.461	16.806	915.724	696.873
203.475	16.676	915.457	696.075
204.490	16.753	914.840	695.858
205.504	16.689	913.413	694.449
206.519	16.455	913.162	693.239
207.534	16.605	911.864	692.807
208.548	16.499	911.215	691.817
209.563	16.495	910.767	691.399
210.577	16.466	910.098	690.713
211.592	16.510	909.350	690.262
212.607	16.592	909.457	690.618
213.621	16.793	908.195	690.417
214.636	16.752	907.606	689.742
215.650	16.630	907.505	689.109
216.665	16.728	906.258	688.499
217.680	16.651	906.401	688.231
218.694	16.745	906.013	688.258
219.709	16.734	905.413	687.697
220.723	16.801	904.434	687.164
221.738	16.795	903.759	686.566
222.753	16.823	902.712	685.823
223.767	16.766	902.556	685.415
224.782	16.813	901.539	684.772
225.796	16.868	900.986	684.512
226.811	16.878	900.146	683.856
227.826	16.947	899.626	683.676
228.840	16.888	898.973	682.884
229.855	16.728	898.304	681.668
230.869	16.844	897.122	681.178
231.884	16.733	897.053	680.622
232.899	16.742	896.041	679.828
233.913	16.687	895.487	679.127
234.928	16.828	894.611	678.967
235.942	16.731	893.706	677.833
236.957	16.674	893.150	677.124
237.972	16.584	892.691	676.355
238.986	16.689	891.801	676.039
240.001	16.784	891.070	675.806
241.015	16.705	890.723	675.166
242.030	16.707	890.172	674.699
243.045	16.867	889.108	674.469
244.059	16.835	889.012	674.208
245.074	16.918	887.972	673.688
246.088	16.949	887.633	673.496
247.103	17.039	887.266	673.517
248.117	17.065	886.538	673.006
249.132	17.201	885.891	672.996
250.147	17.229	885.293	672.593
251.161	17.416	885.034	673.074
252.176	17.538	884.188	672.853
253.190	17.627	883.558	672.667
254.205	17.641	882.398	671.778
255.220	17.661	882.539	671.908
256.234	17.626	881.842	671.178
257.249	17.501	881.161	670.107
258.263	17.477	880.746	669.641
259.278	17.558	880.048	669.366
260.293	17.559	879.746	669.085
261.307	17.761	878.965	669.224
262.322	17.820	878.240	668.840
263.336	17.599	877.938	667.686
264.351	17.541	877.670	667.198
265.366	17.624	876.885	666.867
266.380	17.745	876.170	666.735
267.395	17.791	875.250	666.158
268.409	17.580	874.597	664.779
269.424	17.623	873.826	664.299
270.439	17.619	873.233	663.774
271.453	17.656	872.225	663.095
272.468	17.586	871.397	662.135
273.482	17.574	870.869	661.627
274.497	17.362	871.148	660.956
275.512	17.610	869.630	660.708
276.526	17.728	868.757	660.445
277.541	17.649	868.310	659.742
278.555	17.702	867.977	659.635
279.570	17.641	867.576	659.034
280.585	17.906	866.906	659.490
281.599	17.918	866.386	659.083
282.614	17.744	865.926	658.002
283.628	17.802	864.826	657.334
284.643	17.748	864.747	657.008
285.657	17.753	863.869	656.299
286.672	17.825	863.188	656.002
287.687	17.952	862.491	655.905
288.701	17.797	862.486	655.245
289.716	17.959	861.405	654.990
290.730	17.862	861.069	654.302
291.745	17.902	860.900	654.270
292.760	17.762	860.091	653.060
293.774	17.936	859.468	653.195
294.789	17.824	859.371	652.636
295.803	18.080	858.297	652.741
296.818	17.982	857.863	651.977
297.833	17.730	857.214	650.467
298.847	17.861	856.441	650.322
299.862	17.935	855.917	650.149
300.876	17.830	855.055	649.036
301.891	18.032	854.392	649.242
302.906	18.148	854.179	649.463
303.920	18.106	853.103	648.428
304.935	18.238	852.720	648.581
305.949	18.450	851.887	648.693
306.964	18.277	851.341	647.567
307.979	18.194	850.934	646.884
308.993	18.015	850.666	645.945
310.008	18.107	849.773	645.557
311.022	18.335	849.460	646.126
312.037	18.284	849.155	645.642
313.052	18.101	848.312	644.257
314.066	18.041	847.596	643.428
315.081	17.969	846.899	642.573
316.095	18.033	846.393	642.371
317.110	18.185	845.611	642.291
318.125	18.093	845.462	641.778
319.139	17.962	845.172	641.007
320.154	18.058	844.485	640.789
321.168	18.125	843.961	640.588
322.183	18.166	843.553	640.372
323.197	18.216	842.498	639.704
324.212	18.271	841.890	639.390
325.227	18.293	841.614	639.207
326.241	18.048	841.353	638.036
327.256	18.103	840.477	637.523
328.270	18.129	839.841	637.081
329.285	18.255	839.577	637.294
330.300	18.205	838.806	636.464
331.314	18.067	838.295	635.507
332.329	18.169	837.719	635.394
333.343	18.406	837.152	635.788
334.358	18.308	837.053	635.291
335.373	18.411	835.635	634.539
336.387	18.362	835.428	634.146
337.402	18.446	835.009	634.085
338.416	18.614	834.345	634.145
339.431	18.437	834.023	633.188
340.446	18.692	833.285	633.515
341.460	18.699	833.164	633.392
342.475	18.702	832.342	632.721
343.489	18.879	831.578	632.736
344.504	18.696	831.576	632.004
345.519	18.852	830.745	631.892
346.533	18.928	830.071	631.601
347.548	18.907	829.794	631.259
348.562	18.899	828.954	630.533
349.577	18.684	828.785	629.560
350.592	18.602	828.192	628.755
351.606	18.641	827.414	628.251
352.621	18.659	826.455	627.532
353.635	18.491	826.604	626.975
354.650	18.616	826.510	627.307
355.665	18.595	826.192	626.933
356.679	18.732	825.256	626.669
357.694	18.838	824.610	626.507
358.708	18.841	824.047	626.037
359.723	18.754	823.409	625.179
360.738	18.735	822.809	624.601
361.752	18.770	822.675	624.570
362.767	18.742	822.274	624.107
363.781	18.762	822.415	624.232
364.796	18.984	821.454	624.252
365.810	19.179	820.968	624.537
366.825	19.128	820.638	624.045
367.840	19.154	820.254	623.791
368.854	19.204	819.942	623.680
369.869	19.055	819.773	622.957
370.883	19.008	818.618	621.854
371.898	19.035	817.917	621.366
372.913	19.251	817.270	621.598
373.927	19.156	817.233	621.173
374.942	19.210	816.232	620.551
375.956	19.070	815.800	619.663
376.971	19.332	815.207	620.098
377.986	19.287	814.561	619.394
379.000	19.412	814.294	619.584
380.015	19.441	813.912	619.344
381.029	19.459	812.991	618.652
382.044	19.508	812.361	618.292
383.059	19.318	811.794	617.125
384.073	19.302	811.591	616.862
385.088	19.436	810.824	616.703
386.102	19.263	809.990	615.394
387.117	19.215	809.628	614.894
388.132	19.210	809.398	614.648
389.146	19.119	809.349	614.230
390.161	19.161	808.872	613.964
391.175	19.327	808.248	614.029
392.190	19.467	807.737	614.083
393.205	19.404	807.140	613.352
394.219	19.254	806.793	612.500
395.234	19.316	806.130	612.163
396.248	19.355	805.608	611.852
397.263	19.205	804.992	610.796
398.278	19.118	805.032	610.465
399.292	18.983	804.285	609.363
400.307	18.999	804.317	609.394
401.321	19.230	803.707	609.694
402.336	19.259	803.122	609.299
403.350	19.198	802.915	608.872
404.365	19.207	802.550	608.573
405.380	19.445	801.916	608.880
406.394	19.577	801.371	608.878
407.409	19.644	801.155	608.893
408.423	19.719	800.274	608.435
409.438	19.732	799.899	608.143
410.453	19.738	799.707	607.962
411.467	19.722	799.357	607.585
412.482	19.877	798.246	607.234
413.496	19.855	798.253	607.107
414.511	19.995	797.601	607.050
415.526	19.832	797.433	606.294
416.540	19.868	797.034	606.066
417.555	19.968	796.728	606.127
418.569	19.855	796.369	605.407
419.584	19.930	795.271	604.781
420.599	19.948	795.621	605.055
421.613	157.943	1370.171	1791.381
422.628	136.875	1453.869	1791.489
