DTS Sentinel unit serial number:	SN413079Multiplexer serial number:	ORYXHardware model number:	OX4-SRSoftware version number:	ORYX F/W v4.00 Oryx Data Collector v3.7.2.0data status	okinstallation	princeton_trtdifferential loss correction	single-endedforward channel	channel 3reverse channel	N/Adate	2019/09/12time	18:10:04forward acquisition time	15.00reverse acquisition time	0.00gamma	496.2192k internal	0.2316k external	0.2316temperature offset calibration	1.0099default loss term (dB/km)	0.3790temperature slope calibration	1.0000multiplexer offset coefficient	1.0000multiplexer slope coefficient	1.0000fibre end	0.00T internal ref (°C)	33.62T ext. ref 1 (°C)	3.00T ext. ref 2 (°C)	28.17length (m)	temperature (°C)	Stokes	anti-Stokes-747.200	74.041	-0.482	0.512
-746.185	-200.000	0.056	0.451
-745.171	-161.660	0.923	0.048
-744.156	-200.000	0.009	0.305
-743.142	-55.607	0.476	-0.216
-742.127	-200.000	0.022	0.746
-741.112	800.000	-0.223	-0.796
-740.098	-200.000	0.004	-0.041
-739.083	-130.823	-0.283	0.038
-738.069	-200.000	-0.099	-0.624
-737.054	-29.245	-1.255	0.728
-736.039	214.973	-0.299	0.479
-735.025	236.179	0.255	-0.427
-734.010	210.629	-0.184	0.293
-732.996	491.281	-0.066	0.153
-731.981	-80.859	0.264	0.089
-730.966	185.442	-0.212	-0.319
-729.952	-67.564	-0.862	-0.342
-728.937	800.000	0.214	-0.679
-727.923	-96.184	-0.149	0.040
-726.908	50.072	-0.230	-0.220
-725.894	20.419	0.159	0.130
-724.879	-122.333	0.457	-0.075
-723.864	326.339	-0.211	0.408
-722.850	-200.000	0.014	-0.140
-721.835	708.298	0.142	-0.380
-720.821	398.091	0.265	0.560
-719.806	-23.734	-0.687	-0.417
-718.791	800.000	-0.186	-0.774
-717.777	50.839	-0.185	-0.177
-716.762	-29.227	0.392	-0.227
-715.748	-200.000	0.172	-0.000
-714.733	-44.654	-0.375	0.189
-713.718	800.000	0.176	0.598
-712.704	20.880	0.168	0.138
-711.689	-12.372	-0.555	-0.367
-710.675	-54.256	-0.140	-0.064
-709.660	-14.714	0.270	0.176
-708.645	-104.078	-0.628	-0.148
-707.631	-200.000	-0.055	0.566
-706.616	324.269	-0.302	0.583
-705.602	-146.488	-0.151	-0.013
-704.587	-200.000	0.023	0.318
-703.572	322.898	0.132	-0.254
-702.558	326.647	0.131	0.254
-701.543	479.463	-0.050	0.115
-700.529	183.930	-0.057	-0.086
-699.514	-200.000	0.058	0.692
-698.499	-200.000	0.022	-0.693
-697.485	285.930	0.139	0.254
-696.470	-141.688	-0.834	-0.085
-695.456	-107.398	-0.506	0.112
-694.441	155.999	-0.358	0.499
-693.426	29.201	-0.436	0.374
-692.412	-143.121	0.782	0.076
-691.397	800.000	0.200	-0.593
-690.383	27.883	-0.175	0.149
-689.368	-116.577	-0.525	0.098
-688.354	-70.405	-1.018	0.390
-687.339	-120.019	0.171	-0.030
-686.324	-200.000	-0.025	0.521
-685.310	312.781	0.247	-0.470
-684.295	164.127	-0.156	-0.222
-683.281	-111.221	-0.768	-0.159
-682.266	-200.000	0.128	-0.860
-681.251	-173.341	0.637	0.020
-680.237	-82.673	-0.994	0.325
-679.222	-160.833	0.850	-0.045
-678.208	199.368	-0.098	0.152
-677.193	-20.607	-0.777	-0.482
-676.178	123.243	-0.208	-0.263
-675.164	-43.420	0.423	0.216
-674.149	-113.311	0.298	0.059
-673.135	800.000	-0.133	0.383
-672.120	-161.795	-0.248	0.013
-671.105	5.760	0.871	0.650
-670.091	800.000	0.241	-0.708
-669.076	-107.445	0.445	0.099
-668.062	181.149	-0.148	0.220
-667.047	-91.089	0.396	-0.115
-666.032	-75.756	-0.139	-0.050
-665.018	154.437	0.312	0.432
-664.003	6.153	-0.816	0.611
-662.989	80.484	0.246	0.268
-661.974	-93.754	-0.476	-0.133
-660.959	-82.496	0.862	0.283
-659.945	496.959	-0.225	-0.522
-658.930	-66.048	-0.465	-0.187
-657.916	800.000	0.290	1.154
-656.901	-137.067	-0.544	-0.063
-655.886	-90.958	0.377	-0.109
-654.872	-200.000	-0.031	-0.621
-653.857	-155.061	-0.130	0.009
-652.843	800.000	0.072	0.224
-651.828	-200.000	0.038	-0.189
-650.814	342.574	0.063	-0.125
-649.799	-200.000	0.013	-0.752
-648.784	-200.000	0.024	0.327
-647.770	-114.728	-0.171	0.033
-646.755	-59.369	0.403	0.175
-645.741	-27.201	-0.961	-0.565
-644.726	800.000	-0.474	-1.387
-643.711	239.854	-0.066	-0.111
-642.697	157.621	-0.134	-0.188
-641.682	265.305	0.044	0.077
-640.668	-122.077	0.575	0.095
-639.653	800.000	-0.067	0.291
-638.638	800.000	-0.317	1.179
-637.624	-30.138	0.524	0.300
-636.609	-200.000	-0.033	-1.143
-635.595	800.000	-0.147	-0.524
-634.580	-34.046	0.420	-0.233
-633.565	-58.131	-0.227	-0.100
-632.551	-2.983	-0.660	0.465
-631.536	-136.256	0.762	0.090
-630.522	-200.000	-0.061	-0.291
-629.507	-79.456	0.591	0.201
-628.492	800.000	-0.090	0.364
-627.478	-27.270	-0.723	-0.424
-626.463	377.726	-0.341	0.702
-625.449	-200.000	-0.074	0.854
-624.434	46.347	-0.481	0.450
-623.419	-42.045	0.387	0.200
-622.405	-17.009	-0.910	-0.579
-621.390	-23.227	-0.603	0.365
-620.376	800.000	0.150	-0.460
-619.361	-22.320	0.254	-0.155
-618.346	-200.000	0.047	-0.799
-617.332	65.417	0.334	-0.340
-616.317	179.123	-0.386	0.569
-615.303	-200.000	0.136	1.009
-614.288	0.853	0.982	0.709
-613.273	800.000	0.037	-0.115
-612.259	-35.229	-0.461	-0.253
-611.244	264.573	-0.287	-0.503
-610.230	172.923	-0.455	-0.660
-609.215	800.000	0.075	0.266
-608.201	-200.000	-0.096	0.669
-607.186	-200.000	-0.050	1.035
-606.171	-200.000	0.044	0.482
-605.157	-66.311	-0.541	-0.217
-604.142	279.439	-0.496	-0.891
-603.128	100.764	-0.486	-0.569
-602.113	-91.937	-0.300	0.086
-601.098	-59.713	-0.064	0.028
-600.084	652.312	0.095	-0.246
-599.069	-65.386	-0.926	-0.375
-598.055	-51.045	0.562	0.266
-597.040	373.762	-0.034	0.069
-596.025	-200.000	0.055	0.632
-595.011	25.460	-0.329	-0.276
-593.996	93.916	0.334	0.382
-592.982	42.995	0.125	-0.115
-591.967	401.145	0.544	-1.150
-590.952	511.146	-0.346	-0.812
-589.938	317.784	-0.342	-0.652
-588.923	43.383	-0.440	-0.405
-587.909	-46.581	-0.462	-0.228
-586.894	163.266	-0.380	0.537
-585.879	-114.514	0.610	-0.118
-584.865	-126.739	-0.136	0.020
-583.850	800.000	-0.223	-0.713
-582.836	40.299	-0.155	0.141
-581.821	-200.000	0.040	0.448
-580.806	-104.659	0.564	0.131
-579.792	265.454	0.149	0.261
-578.777	-105.293	-0.451	0.104
-577.763	-200.000	0.122	0.784
-576.748	-103.210	-0.604	0.144
-575.733	-200.000	-0.107	-0.540
-574.719	-122.879	-0.510	-0.083
-573.704	-200.000	-0.062	-0.984
-572.690	-200.000	0.080	-1.010
-571.675	-200.000	0.172	-0.977
-570.661	-159.712	0.639	-0.035
-569.646	137.224	-0.331	0.436
-568.631	-200.000	-0.041	0.202
-567.617	-200.000	0.044	-0.203
-566.602	57.588	0.297	0.292
-565.588	-89.714	-0.509	0.150
-564.573	-53.518	0.119	-0.055
-563.558	95.731	0.260	-0.298
-562.544	-200.000	0.123	-0.874
-561.529	-200.000	-0.016	-1.038
-560.515	54.520	-0.136	0.132
-559.500	47.269	-0.290	0.272
-558.485	-200.000	-0.025	0.685
-557.471	-14.398	-0.444	0.287
-556.456	800.000	0.045	-0.161
-555.442	-89.274	0.366	-0.108
-554.427	306.243	-0.503	0.941
-553.412	19.744	0.523	-0.423
-552.398	-200.000	-0.003	0.344
-551.383	-139.354	-0.652	-0.070
-550.369	-68.303	-0.383	0.149
-549.354	-18.220	0.076	0.048
-548.339	150.609	0.169	0.230
-547.325	800.000	-0.217	-0.670
-546.310	46.312	-0.044	0.041
-545.296	-60.342	-0.254	-0.108
-544.281	40.858	-0.500	-0.453
-543.266	75.981	-0.269	0.286
-542.252	455.041	-0.115	0.256
-541.237	220.359	-0.057	0.092
-540.223	305.864	-0.041	-0.077
-539.208	800.000	0.080	0.322
-538.193	800.000	0.102	-0.336
-537.179	-91.761	0.365	0.104
-536.164	528.416	-0.210	0.499
-535.150	-54.863	-0.413	-0.187
-534.135	-12.827	-0.311	-0.203
-533.121	19.416	-0.540	0.436
-532.106	-91.810	0.509	0.145
-531.091	-200.000	0.058	-0.365
-530.077	800.000	-0.240	-0.753
-529.062	458.088	-0.085	-0.190
-528.048	-156.493	-0.382	-0.024
-527.033	-200.000	0.042	0.239
-526.018	79.564	-0.925	-0.997
-525.004	-123.739	0.603	-0.096
-523.989	-73.704	0.280	-0.102
-522.975	161.054	-0.224	0.315
-521.960	-200.000	-0.016	0.258
-520.945	260.268	-0.335	-0.581
-519.931	23.760	0.267	0.221
-518.916	-78.467	-0.325	0.112
-517.902	-200.000	-0.100	0.636
-516.887	-200.000	-0.092	0.504
-515.872	454.470	0.145	-0.322
-514.858	106.618	0.231	0.275
-513.843	-22.618	-0.306	-0.185
-512.829	437.155	0.086	0.189
-511.814	-200.000	0.033	0.357
-510.799	-161.652	-0.910	0.047
-509.785	800.000	0.236	-0.804
-508.770	154.478	-0.225	0.310
-507.756	34.469	-0.215	0.188
-506.741	-200.000	0.007	0.205
-505.726	630.012	-0.256	0.649
-504.712	800.000	-0.106	0.398
-503.697	23.169	-0.694	0.572
-502.683	-200.000	0.009	0.552
-501.668	259.449	-0.326	-0.565
-500.653	151.796	-0.473	-0.646
-499.639	-200.000	-0.035	0.580
-498.624	-46.428	0.324	-0.160
-497.610	800.000	-0.317	1.198
-496.595	20.750	-0.066	0.053
-495.581	55.330	-0.384	0.373
-494.566	60.847	-0.232	-0.231
-493.551	14.155	-0.425	-0.332
-492.537	235.016	0.074	-0.122
-491.522	-143.529	0.722	-0.069
-490.508	-200.000	-0.018	-0.384
-489.493	-19.512	0.686	0.426
-488.478	800.000	0.202	0.762
-487.464	742.729	-0.195	-0.525
-486.449	104.674	-0.345	0.407
-485.435	800.000	0.274	0.881
-484.420	-200.000	0.049	0.535
-483.405	-200.000	0.050	0.387
-482.391	-169.749	0.574	0.021
-481.376	9.861	0.213	0.162
-480.362	-173.623	-1.011	0.030
-479.347	143.804	0.132	-0.177
-478.332	800.000	0.121	0.418
-477.318	103.000	0.403	0.473
-476.303	-200.000	0.078	-0.523
-475.289	364.053	-0.309	0.622
-474.274	205.369	-0.639	-0.995
-473.259	-49.404	-0.413	0.197
-472.245	-200.000	0.016	0.826
-471.230	800.000	-0.205	0.722
-470.216	-200.000	-0.134	0.609
-469.201	-73.549	-0.750	0.274
-468.186	93.705	0.532	-0.604
-467.172	-57.787	0.799	-0.350
-466.157	-82.157	-1.210	-0.395
-465.143	-124.857	0.704	0.109
-464.128	-200.000	0.094	0.784
-463.113	-200.000	-0.117	-0.897
-462.099	-45.162	0.838	-0.417
-461.084	-70.155	0.395	-0.150
-460.070	-168.898	-0.351	-0.013
-459.055	-52.676	0.848	-0.392
-458.040	-153.384	0.410	-0.029
-457.026	800.000	-0.057	-0.160
-456.011	91.374	-0.308	-0.346
-454.997	449.365	-0.075	-0.166
-453.982	37.576	-0.226	0.201
-452.968	15.390	-0.404	-0.318
-451.953	-200.000	0.022	-0.384
-450.938	-90.315	0.565	-0.164
-449.924	-141.522	0.119	-0.012
-448.909	-159.772	-0.510	-0.028
-447.895	-12.603	-1.109	0.724
-446.880	-17.804	0.359	0.225
-445.865	283.250	0.112	-0.201
-444.851	-61.322	0.176	0.074
-443.836	-164.121	0.588	-0.027
-442.822	-68.091	0.775	-0.302
-441.807	-90.239	0.169	-0.049
-440.792	800.000	-0.166	-0.466
-439.778	-99.009	-0.312	-0.079
-438.763	2.581	0.546	-0.396
-437.749	800.000	0.261	0.849
-436.734	-127.206	0.570	0.083
-435.719	100.304	-0.447	0.519
-434.705	79.759	-0.726	0.780
-433.690	-102.473	-0.471	0.113
-432.676	-129.206	0.734	0.102
-431.661	-200.000	-0.138	1.043
-430.646	800.000	0.323	-0.965
-429.632	-76.870	-0.331	0.116
-428.617	-5.850	-0.338	-0.231
-427.603	-63.350	-0.184	0.076
-426.588	28.242	-0.882	0.745
-425.573	3.542	0.354	-0.258
-424.559	488.596	-0.473	1.080
-423.544	-200.000	0.623	0.003
-422.530	-200.000	-0.066	-0.426
-421.515	-119.084	-0.133	-0.023
-420.500	-99.856	0.125	-0.031
-419.486	-200.000	0.131	-0.940
-418.471	-200.000	-0.076	-0.646
-417.457	142.040	-0.258	-0.342
-416.442	800.000	0.196	-0.624
-415.428	-87.229	-0.814	-0.247
-414.413	800.000	0.106	-0.428
-413.398	-1.708	0.185	-0.130
-412.384	-40.248	-0.633	-0.330
-411.369	395.504	0.247	-0.516
-410.355	-63.898	0.150	0.061
-409.340	-129.418	0.389	0.054
-408.325	508.658	0.193	-0.447
-407.311	800.000	0.162	0.486
-406.296	-46.600	-0.801	0.393
-405.282	-200.000	0.007	-0.457
-404.267	-67.048	-0.588	-0.232
-403.252	31.961	-0.372	-0.320
-402.238	-200.000	0.155	-0.755
-401.223	-36.714	-0.401	0.215
-400.209	-154.591	0.349	-0.023
-399.194	-104.856	0.932	-0.214
-398.179	614.407	-0.120	-0.300
-397.165	-200.000	-0.004	0.612
-396.150	453.721	0.504	1.116
-395.136	237.447	0.566	0.938
-394.121	-37.813	0.403	-0.214
-393.106	800.000	-0.177	-0.497
-392.092	-200.000	0.108	-0.625
-391.077	232.191	0.343	0.562
-390.063	101.497	-0.120	0.140
-389.048	-116.118	0.931	0.173
-388.033	-200.000	-0.018	0.553
-387.019	81.652	0.294	-0.318
-386.004	800.000	0.112	-0.413
-384.990	68.005	0.262	0.268
-383.975	-20.978	0.449	0.275
-382.960	87.035	-0.635	-0.700
-381.946	-53.633	1.227	0.560
-380.931	89.131	-0.447	0.497
-379.917	26.941	0.699	-0.585
-378.902	24.851	0.324	-0.268
-377.888	-96.284	-0.619	0.164
-376.873	71.530	0.579	-0.600
-375.858	-6.774	-0.031	0.021
-374.844	-200.000	-0.093	-0.601
-373.829	-126.415	0.281	-0.042
-372.815	379.224	-0.089	0.182
-371.800	-42.747	0.323	0.164
-370.785	-200.000	-0.058	0.308
-369.771	-200.000	0.014	-0.412
-368.756	-59.767	0.570	-0.244
-367.742	-200.000	-0.006	0.364
-366.727	-110.463	0.766	0.159
-365.712	43.190	-0.182	0.166
-364.698	51.330	0.446	-0.423
-363.683	42.766	-0.402	-0.366
-362.669	469.804	-0.299	0.671
-361.654	182.404	-0.186	-0.273
-360.639	-88.171	-0.672	0.201
-359.625	-84.747	-1.029	-0.323
-358.610	77.371	-0.269	-0.286
-357.596	242.196	0.524	-0.874
-356.581	800.000	-0.094	-0.298
-355.566	19.846	-0.156	-0.125
-354.552	-58.694	0.192	-0.083
-353.537	670.457	0.021	0.053
-352.523	125.232	0.070	-0.088
-351.508	800.000	0.134	-0.585
-350.493	365.624	0.116	0.233
-349.479	-121.654	0.807	0.133
-348.464	4.824	-0.340	-0.249
-347.450	-200.000	0.050	0.445
-346.435	447.179	0.309	-0.677
-345.420	-32.049	-0.848	0.473
-344.406	-115.662	-0.019	0.004
-343.391	161.339	0.379	-0.529
-342.377	-200.000	0.031	-0.694
-341.362	-82.008	-0.832	-0.271
-340.348	14.040	-0.223	-0.173
-339.333	-112.766	0.268	0.053
-338.318	580.913	-0.223	0.546
-337.304	169.503	0.400	-0.570
-336.289	-12.745	-0.216	0.141
-335.275	43.016	0.262	0.239
-334.260	793.483	-0.396	-1.086
-333.245	-114.098	-0.293	0.056
-332.231	-200.000	0.021	0.566
-331.216	-200.000	0.021	-0.692
-330.202	302.670	0.221	0.408
-329.187	-70.778	-0.767	0.289
-328.172	616.937	0.275	0.688
-327.158	-200.000	-0.134	0.843
-326.143	-85.635	0.345	0.107
-325.129	-200.000	-0.048	-0.467
-324.114	-53.698	-0.302	-0.138
-323.099	-40.555	0.823	-0.425
-322.085	-142.280	0.375	0.037
-321.070	23.641	-0.500	-0.410
-320.056	-200.000	0.007	-0.342
-319.041	-58.171	-0.399	-0.173
-318.026	-143.094	-0.398	0.038
-317.012	-110.786	0.702	-0.144
-315.997	-200.000	-0.030	-0.684
-314.983	72.009	0.377	-0.391
-313.968	-27.583	-0.310	0.179
-312.953	21.848	0.996	-0.808
-311.939	66.737	0.068	0.069
-310.924	800.000	-0.145	0.427
-309.910	50.575	-0.248	-0.234
-308.895	143.183	0.225	0.298
-307.880	800.000	0.253	0.755
-306.866	-10.809	0.460	-0.303
-305.851	800.000	-0.125	0.509
-304.837	-33.252	-0.569	0.314
-303.822	201.957	0.607	-0.931
-302.807	-100.836	-0.809	0.198
-301.793	-200.000	0.101	-0.593
-300.778	-32.378	0.301	0.167
-299.764	-58.821	-0.193	0.083
-298.749	22.775	-0.490	-0.399
-297.735	-200.000	0.067	-0.412
-296.720	800.000	-0.067	-0.213
-295.705	-200.000	0.078	-0.407
-294.691	-112.057	0.142	-0.028
-293.676	164.263	0.146	0.205
-292.662	39.401	0.591	0.526
-291.647	-154.199	-0.183	0.012
-290.632	-200.000	0.151	-1.275
-289.618	-107.060	0.828	0.182
-288.603	-200.000	0.097	0.805
-287.589	93.953	0.363	0.410
-286.574	-0.933	-0.318	-0.224
-285.559	-105.553	-0.582	0.131
-284.545	108.587	-0.500	0.594
-283.530	54.445	0.524	0.502
-282.516	-92.529	1.048	0.293
-281.501	63.776	-0.306	-0.306
-280.486	19.949	-0.418	0.335
-279.472	521.467	0.380	0.887
-278.457	6.611	0.723	-0.534
-277.443	-26.236	-0.362	0.211
-276.428	105.499	0.644	0.757
-275.413	276.201	-0.076	0.135
-274.399	-139.832	-0.607	0.064
-273.384	-200.000	-0.031	0.335
-272.370	8.439	-0.279	0.209
-271.355	543.631	-0.247	-0.587
-270.340	414.939	0.159	-0.337
-269.326	448.559	0.180	0.395
-268.311	70.732	0.316	-0.325
-267.297	701.912	-0.159	-0.417
-266.282	-200.000	-0.228	1.028
-265.267	-142.213	-0.391	-0.038
-264.253	-127.180	-0.417	-0.061
-263.238	164.381	-0.268	0.376
-262.224	-200.000	0.030	-0.477
-261.209	-130.472	0.474	-0.064
-260.195	133.688	0.157	0.202
-259.180	120.171	-0.544	-0.671
-258.165	-118.232	-0.885	-0.157
-257.151	-134.808	0.215	0.026
-256.136	252.488	-0.198	0.335
-255.122	158.859	0.278	0.384
-254.107	-28.180	-0.348	-0.200
-253.092	-9.936	-0.062	-0.041
-252.078	800.000	-0.146	-0.622
-251.063	157.636	-0.193	-0.265
-250.049	-60.010	-0.167	0.071
-249.034	-200.000	0.001	0.210
-248.019	-200.000	-0.033	1.080
-247.005	-200.000	0.021	0.889
-245.990	800.000	-0.227	0.868
-244.976	435.216	0.179	-0.388
-243.961	208.165	0.198	-0.308
-242.946	158.391	0.451	-0.622
-241.932	800.000	-0.181	-0.695
-240.917	-16.295	1.046	-0.659
-239.903	544.520	-0.332	0.788
-238.888	-131.682	0.701	0.091
-237.873	126.652	-0.078	-0.098
-236.859	721.716	-0.146	-0.385
-235.844	-2.894	0.682	0.473
-234.830	67.468	0.234	0.237
-233.815	-81.785	-0.739	0.240
-232.800	-33.229	0.641	0.352
-231.786	-90.939	-0.758	-0.216
-230.771	-177.811	0.632	0.015
-229.757	-92.366	0.522	-0.146
-228.742	166.707	-0.238	-0.335
-227.727	234.143	0.356	0.583
-226.713	-151.711	-0.368	0.027
-225.698	-158.606	0.340	-0.019
-224.684	233.412	0.133	0.217
-223.669	167.246	-0.338	0.476
-222.655	211.097	-0.127	-0.198
-221.640	77.258	0.138	-0.145
-220.625	800.000	0.043	-0.151
-219.611	-61.736	-1.004	-0.418
-218.596	-200.000	-0.031	-0.394
-217.582	164.491	0.218	-0.305
-216.567	-200.000	-0.062	0.347
-215.552	800.000	0.112	-0.320
-214.538	47.971	0.339	-0.315
-213.523	700.979	0.375	-0.980
-212.509	-11.116	-0.384	0.251
-211.494	23.140	0.379	-0.308
-210.479	-152.844	0.566	0.040
-209.465	-168.025	0.800	0.031
-208.450	82.972	0.225	-0.243
-207.436	-200.000	0.701	0.000
-206.421	-22.203	0.174	0.104
-205.406	-200.000	0.002	0.044
-204.392	-108.900	-0.508	0.108
-203.377	-12.969	0.726	-0.468
-202.363	800.000	0.242	0.898
-201.348	199.702	0.467	0.711
-200.333	-110.466	0.356	-0.073
-199.319	-93.660	0.667	-0.183
-198.304	155.333	0.466	-0.636
-197.290	-81.113	0.777	-0.255
-196.275	453.514	-0.243	0.534
-195.260	-200.000	-0.025	0.659
-194.246	800.000	0.196	0.564
-193.231	210.477	0.475	0.740
-192.217	171.574	-0.494	-0.704
-191.202	-200.000	-0.052	-0.362
-190.187	-89.742	0.631	-0.183
-189.173	800.000	-0.177	0.656
-188.158	-28.424	-0.405	0.231
-187.144	-200.000	-0.163	0.730
-186.129	151.756	0.476	0.643
-185.114	0.864	0.340	0.242
-184.100	-20.658	-0.241	0.147
-183.085	-93.141	0.353	0.097
-182.071	683.882	-0.101	0.261
-181.056	556.719	0.156	0.372
-180.042	136.779	-0.191	0.247
-179.027	-121.851	-0.667	-0.109
-178.012	-88.901	0.760	-0.223
-176.998	-200.000	0.046	0.324
-175.983	125.066	-0.529	0.660
-174.969	-14.079	-0.692	0.442
-173.954	438.204	-0.121	0.261
-172.939	-23.130	0.516	-0.308
-171.925	17.267	0.166	-0.130
-170.910	-28.076	0.518	0.297
-169.896	502.342	0.158	0.362
-168.881	-31.240	0.135	-0.076
-167.866	45.754	0.499	0.457
-166.852	412.695	0.273	-0.575
-165.837	800.000	-0.130	0.495
-164.823	-200.000	-0.048	0.832
-163.808	558.675	-0.369	0.882
-162.793	181.855	0.246	-0.359
-161.779	-16.843	-0.265	0.166
-160.764	-48.138	0.229	0.109
-159.750	88.375	-0.178	0.196
-158.735	120.710	0.083	0.103
-157.720	7.465	-0.573	-0.424
-156.706	46.214	-0.493	-0.452
-155.691	-82.254	0.785	-0.253
-154.677	571.617	-0.167	-0.403
-153.662	800.000	0.134	-0.442
-152.647	-15.067	-0.245	-0.155
-151.633	1.833	0.580	-0.414
-150.618	-82.370	-0.826	-0.266
-149.604	-200.000	0.036	-0.207
-148.589	-200.000	0.046	0.496
-147.574	352.914	0.255	0.500
-146.560	118.120	-0.133	-0.162
-145.545	399.799	-0.300	-0.621
-144.531	-125.095	0.432	0.066
-143.516	-200.000	-0.064	0.624
-142.502	-3.988	0.103	0.070
-141.487	155.241	0.413	0.562
-140.472	537.950	-0.092	-0.215
-139.458	107.535	0.297	0.350
-138.443	-102.899	-0.736	0.173
-137.429	-173.000	0.501	-0.015
-136.414	17.564	0.122	0.096
-135.399	-58.788	1.287	0.551
-134.385	309.335	0.196	-0.362
-133.370	235.613	-0.514	0.839
-132.356	-117.737	0.366	-0.065
-131.341	-84.947	0.393	-0.122
-130.326	-200.000	0.167	-0.761
-129.312	189.531	0.235	-0.349
-128.297	-200.000	0.065	-0.283
-127.283	37.126	-0.173	-0.152
-126.268	342.703	0.489	0.947
-125.253	-168.490	0.517	-0.020
-124.239	-115.693	0.245	0.045
-123.224	124.631	-0.118	-0.146
-122.210	18.862	0.354	0.280
-121.195	81.476	0.433	-0.462
-120.180	-136.221	-0.131	0.015
-119.166	-200.000	-0.067	0.609
-118.151	-130.904	0.949	-0.126
-117.137	-200.000	0.111	0.582
-116.122	-200.000	0.145	-0.799
-115.107	-89.733	0.421	-0.122
-114.093	457.016	-0.447	-0.981
-113.078	244.226	0.325	0.539
-112.064	89.154	-0.379	0.417
-111.049	-60.264	0.621	-0.261
-110.034	51.681	-0.334	-0.314
-109.020	-116.459	0.646	-0.118
-108.005	-200.000	-0.113	0.790
-106.991	-18.519	-0.419	0.259
-105.976	-91.640	-0.275	-0.077
-104.962	-12.931	0.477	-0.307
-103.947	-45.008	-0.437	-0.215
-102.932	79.278	0.266	0.282
-101.918	800.000	0.229	-0.637
-100.903	-103.124	0.234	-0.055
-99.889	202.219	0.396	0.603
-98.874	-23.086	0.907	-0.539
-97.859	800.000	-0.163	0.610
-96.845	-115.408	-0.305	-0.057
-95.830	-111.973	0.234	0.047
-94.816	-60.476	0.221	0.093
-93.801	301.959	-0.193	0.352
-92.786	-56.229	1.310	-0.575
-91.772	800.000	0.150	-0.609
-90.757	800.000	0.029	0.089
-89.743	-200.000	0.052	-0.766
-88.728	172.944	-0.414	0.588
-87.713	103.366	0.289	0.334
-86.699	771.963	0.336	-0.903
-85.684	-85.310	0.486	0.150
-84.670	4.050	-0.388	0.280
-83.655	-200.000	0.040	-0.416
-82.640	50.889	0.161	0.150
-81.626	-12.601	-0.368	0.237
-80.611	82.551	0.461	-0.494
-79.597	655.642	0.098	-0.247
-78.582	-18.312	0.568	0.350
-77.567	-95.978	0.744	-0.195
-76.553	-85.075	0.445	-0.138
-75.538	503.991	0.194	0.444
-74.524	-146.210	-0.601	0.052
-73.509	561.598	0.135	-0.323
-72.494	283.990	0.345	0.612
-71.480	-200.000	-0.043	-1.152
-70.465	145.918	-0.520	0.688
-69.451	265.618	0.317	0.546
-68.436	-90.401	-0.701	-0.200
-67.422	-195.867	0.748	0.005
-66.407	-137.262	0.823	-0.092
-65.392	-101.034	-0.321	-0.078
-64.378	-73.009	-0.972	-0.352
-63.363	-105.686	0.725	-0.162
-62.349	249.309	-0.207	-0.346
-61.334	291.860	-0.526	-0.944
-60.319	342.003	0.623	1.202
-59.305	65.820	-0.810	-0.810
-58.290	-200.000	0.207	0.999
-57.276	243.216	1.136	1.877
-56.261	-200.000	96.712	575.859
-55.246	634.820	1376.893	3443.343
-54.232	197.486	2550.919	3838.888
-53.217	116.930	2155.465	2608.985
-52.203	44.098	1700.664	1537.087
-51.188	36.816	1515.836	1320.554
-50.173	34.355	1490.681	1282.058
-49.159	54.803	1540.445	1465.038
-48.144	55.658	1559.833	1489.263
-47.130	36.822	1516.860	1321.278
-46.115	33.837	1502.471	1288.484
-45.100	33.762	1498.008	1284.095
-44.086	33.800	1495.870	1282.466
-43.071	33.529	1494.569	1279.473
-42.057	33.570	1493.269	1278.586
-41.042	33.626	1491.312	1277.235
-40.027	33.697	1490.218	1276.728
-39.013	33.760	1488.628	1275.740
-37.998	33.416	1487.724	1272.604
-36.984	33.747	1486.130	1273.411
-35.969	33.372	1485.817	1270.572
-34.954	33.665	1482.488	1269.637
-33.940	33.563	1482.047	1268.525
-32.925	33.752	1480.824	1268.695
-31.911	33.802	1479.052	1267.461
-30.896	33.676	1478.313	1265.938
-29.881	33.631	1476.081	1263.673
-28.867	33.922	1475.132	1264.748
-27.852	33.627	1474.987	1262.609
-26.838	33.706	1472.919	1261.314
-25.823	33.570	1471.488	1259.136
-24.809	33.474	1470.532	1257.632
-23.794	33.696	1467.412	1256.383
-22.779	33.652	1467.192	1255.854
-21.765	33.753	1466.133	1255.565
-20.750	33.421	1466.332	1253.488
-19.736	33.669	1464.019	1253.098
-18.721	33.864	1461.753	1252.399
-17.706	33.589	1461.834	1250.606
-16.692	33.439	1460.788	1248.668
-15.677	33.670	1459.937	1249.418
-14.663	33.607	1459.354	1248.451
-13.648	33.778	1457.431	1247.882
-12.633	33.627	1457.459	1246.866
-11.619	33.538	1456.233	1245.181
-10.604	33.578	1454.239	1243.687
-9.590	33.475	1454.133	1242.872
-8.575	33.591	1453.525	1243.066
-7.560	33.573	1451.990	1241.581
-6.546	33.641	1451.262	1241.360
-5.531	33.653	1450.225	1240.500
-4.517	33.586	1450.331	1240.102
-3.502	33.492	1450.440	1239.532
-2.487	33.566	1447.019	1237.039
-1.473	33.497	1446.693	1236.267
-0.458	33.749	1445.042	1236.449
0.556	34.595	1436.073	1224.016
1.571	31.404	1410.513	1181.984
2.586	27.514	1350.875	1108.298
3.600	25.898	1269.647	1032.314
4.615	24.458	1223.420	986.690
5.629	20.751	1167.160	921.641
6.644	11.534	1081.451	808.461
7.659	4.446	1040.620	744.011
8.673	3.312	1035.357	734.776
9.688	3.019	1032.038	730.961
10.702	2.855	1031.068	729.431
11.717	2.814	1028.745	727.527
12.731	6.262	1032.125	746.227
13.746	15.561	1044.164	799.304
14.761	23.413	1055.275	845.344
15.775	25.905	1057.847	859.225
16.790	26.114	1058.099	860.352
17.804	26.382	1056.750	860.454
18.819	26.375	1055.930	859.677
19.834	26.328	1055.090	858.693
20.848	26.218	1055.438	858.378
21.863	26.344	1055.629	859.055
22.877	26.338	1054.529	858.057
23.892	26.522	1053.038	857.642
24.907	26.192	1053.550	856.418
25.921	26.368	1051.439	855.459
26.936	26.505	1050.602	855.347
27.950	26.324	1049.994	853.923
28.965	26.352	1049.345	853.453
29.980	26.090	1048.598	851.531
30.994	26.313	1047.065	851.261
32.009	26.522	1046.332	851.576
33.023	26.566	1045.518	851.042
34.038	26.230	1044.058	848.203
35.053	26.154	1043.316	847.168
36.067	26.455	1043.631	848.763
37.082	26.338	1042.233	847.002
38.096	26.590	1041.595	847.587
39.111	26.485	1041.073	846.594
40.126	26.331	1040.456	845.298
41.140	26.733	1038.398	845.430
42.155	26.385	1036.464	842.158
43.169	26.296	1035.596	840.962
44.184	26.143	1035.237	839.885
45.199	26.004	1033.919	838.097
46.213	26.241	1032.920	838.313
47.228	25.857	1032.605	836.202
48.242	26.086	1031.437	836.244
49.257	26.141	1032.053	836.924
50.271	26.212	1030.695	836.079
51.286	26.615	1029.445	836.850
52.301	26.553	1029.145	836.248
53.315	26.644	1028.594	836.145
54.330	26.443	1027.970	834.639
55.344	26.154	1026.984	832.434
56.359	26.244	1026.031	832.002
57.374	26.369	1025.463	832.040
58.388	26.208	1024.739	830.638
59.403	25.846	1024.109	828.390
60.417	26.265	1022.679	829.086
61.432	25.793	1023.073	827.163
62.447	26.157	1021.177	827.223
63.461	26.318	1021.084	827.814
64.476	26.444	1019.757	827.240
65.490	26.293	1019.205	826.029
66.505	25.849	1018.419	823.289
67.520	26.267	1017.641	824.498
68.534	26.366	1016.813	824.207
69.549	26.205	1016.248	822.939
70.563	25.835	1014.169	819.503
71.578	26.071	1013.895	820.279
72.593	25.827	1012.747	818.174
73.607	25.619	1011.157	815.871
74.622	25.591	1011.307	815.795
75.636	25.667	1011.636	816.330
76.651	26.486	1009.574	818.303
77.666	25.814	1009.246	814.922
78.680	26.046	1007.292	814.321
79.695	25.936	1008.211	814.495
80.709	26.003	1007.113	813.840
81.724	26.220	1006.165	813.976
82.739	26.156	1005.493	813.072
83.753	25.989	1004.626	811.550
84.768	26.221	1004.287	812.249
85.782	26.790	1004.041	814.535
86.797	26.927	1002.584	813.896
87.812	26.659	1002.788	812.785
88.826	26.728	1000.566	811.223
89.841	26.523	1000.042	809.808
90.855	26.762	999.643	810.481
91.870	26.662	999.658	809.975
92.884	26.635	998.981	809.234
93.899	26.355	997.849	806.995
94.914	26.746	995.694	806.924
95.928	26.621	995.991	806.537
96.943	26.666	995.374	806.164
97.957	26.391	994.276	803.981
98.972	26.242	992.026	801.430
99.987	25.848	992.122	799.688
101.001	26.082	991.491	800.148
102.016	26.377	991.213	801.158
103.030	26.441	989.361	799.875
104.045	26.527	987.977	799.066
105.060	26.412	987.136	797.808
106.074	26.027	987.577	796.391
107.089	26.198	985.677	795.543
108.103	26.481	986.007	796.984
109.118	26.586	984.309	796.006
110.133	26.168	982.923	792.977
111.147	26.193	981.626	791.970
112.162	26.189	981.104	791.462
113.176	25.638	979.736	787.876
114.191	25.936	980.746	789.928
115.206	26.010	978.594	788.446
116.220	25.546	978.688	786.423
117.235	25.844	976.130	785.599
118.249	25.711	976.820	785.500
119.264	25.955	975.067	785.088
120.279	25.499	975.731	783.565
121.293	25.371	973.901	781.468
122.308	25.507	974.657	782.598
123.322	25.933	972.425	782.588
124.337	25.792	971.947	781.522
125.352	25.519	970.440	779.058
126.366	24.927	970.010	776.077
127.381	24.608	967.928	772.962
128.395	25.529	968.376	777.238
129.410	26.209	966.980	778.980
130.424	26.492	966.321	779.600
131.439	26.294	965.122	777.712
132.454	26.303	964.834	777.449
133.468	26.293	963.982	776.654
134.483	26.167	962.593	774.925
135.497	26.352	962.493	775.570
136.512	26.319	962.172	775.101
137.527	26.251	960.742	773.590
138.541	26.552	960.050	774.251
139.556	26.576	959.784	774.070
140.570	26.605	957.755	772.491
141.585	26.741	958.235	773.390
142.600	26.726	956.825	772.118
143.614	26.416	955.820	769.920
144.629	26.649	955.923	770.926
145.643	26.511	954.672	769.263
146.658	26.787	954.108	769.912
147.673	26.428	953.227	767.609
148.687	26.130	952.817	765.945
149.702	26.494	951.237	766.149
150.716	26.363	950.297	764.771
151.731	26.225	949.314	763.332
152.746	26.395	947.711	762.689
153.760	26.446	947.771	762.886
154.775	26.830	946.342	763.283
155.789	26.610	945.951	761.977
156.804	26.861	945.239	762.393
157.819	26.878	943.871	761.292
158.833	26.666	943.523	760.052
159.848	26.711	943.189	759.906
160.862	26.629	942.240	758.729
161.877	26.749	941.200	758.330
162.892	26.239	940.728	755.748
163.906	26.572	938.878	755.586
164.921	26.497	938.548	754.939
165.935	26.650	937.250	754.467
166.950	26.407	937.298	753.425
167.964	26.424	935.758	752.194
168.979	26.697	934.601	752.331
169.994	26.736	933.122	751.234
171.008	26.394	932.130	748.950
172.023	26.611	932.283	749.907
173.037	26.712	930.971	749.204
174.052	26.995	929.840	749.398
175.067	26.803	929.164	747.991
176.081	26.612	927.452	745.761
177.096	26.350	928.572	745.515
178.110	26.490	926.647	744.483
179.125	26.158	925.450	742.088
180.140	25.912	926.025	741.474
181.154	26.086	924.385	740.810
182.169	26.038	923.677	739.980
183.183	25.862	924.577	739.911
184.198	26.581	923.498	741.931
185.213	26.500	922.502	740.734
186.227	26.258	922.033	739.302
187.242	26.712	921.624	740.765
188.256	26.834	920.676	740.433
189.271	26.718	920.257	739.557
190.286	26.941	918.524	739.008
191.300	26.601	917.160	736.461
192.315	26.347	916.139	734.547
193.329	25.350	915.067	729.574
194.344	24.977	914.183	727.291
195.359	25.567	914.496	729.867
196.373	26.502	914.822	733.858
197.388	26.804	913.821	734.214
198.402	26.637	913.525	733.237
199.417	26.486	913.671	732.675
200.432	26.739	912.523	732.713
201.446	26.413	912.654	731.437
202.461	26.357	911.561	730.270
203.475	26.048	911.709	729.075
204.490	26.135	909.768	727.807
205.504	25.005	907.068	721.038
206.519	25.101	908.337	722.369
207.534	26.117	907.832	725.995
208.548	26.238	907.090	725.821
209.563	26.569	906.833	726.884
210.577	26.540	906.044	726.071
211.592	26.303	905.139	724.331
212.607	26.556	905.343	725.441
213.621	26.785	904.732	725.806
214.636	26.756	904.718	725.615
215.650	26.793	903.451	724.682
216.665	26.552	903.530	723.719
217.680	26.860	902.423	723.996
218.694	26.950	901.587	723.620
219.709	26.581	901.418	721.952
220.723	26.189	901.024	720.008
221.738	26.564	899.659	720.346
222.753	26.654	899.304	720.356
223.767	26.227	898.954	718.314
224.782	26.859	897.912	719.926
225.796	27.005	897.246	719.908
226.811	26.627	897.996	718.947
227.826	26.479	895.475	716.278
228.840	25.789	894.112	712.397
229.855	25.558	893.687	711.081
230.869	25.819	893.002	711.505
231.884	25.772	891.624	710.160
232.899	25.695	892.269	710.304
233.913	26.515	891.940	713.214
234.928	26.482	891.985	713.056
235.942	26.290	891.978	712.231
236.957	26.344	890.351	711.083
237.972	26.481	888.628	710.181
238.986	26.130	888.855	708.921
240.001	26.085	888.649	708.518
241.015	26.089	887.861	707.840
242.030	26.158	886.783	707.190
243.045	26.426	886.664	708.080
244.059	26.515	885.673	707.577
245.074	26.648	886.450	708.656
246.088	26.520	885.342	707.205
247.103	26.654	883.804	706.437
248.117	26.434	883.942	705.627
249.132	26.680	884.169	706.704
250.147	27.002	883.398	707.281
251.161	27.295	883.914	708.775
252.176	27.479	881.974	707.872
253.190	27.519	881.137	707.293
254.205	27.371	882.068	707.401
255.220	27.607	881.050	707.438
256.234	27.390	881.393	706.808
257.249	27.514	879.724	705.889
258.263	27.286	879.202	704.523
259.278	27.471	877.899	704.134
260.293	27.350	878.373	703.983
261.307	27.343	877.971	703.571
262.322	27.299	876.662	702.291
263.336	27.307	875.945	701.683
264.351	26.994	873.693	698.614
265.366	25.883	873.291	693.956
266.380	25.788	872.383	692.805
267.395	26.380	873.011	695.524
268.409	27.142	872.551	698.023
269.424	27.112	871.797	697.243
270.439	26.945	872.302	696.942
271.453	27.229	871.311	697.180
272.468	26.994	870.872	695.866
273.482	27.464	870.031	696.928
274.497	27.569	869.107	696.528
275.512	27.623	867.934	695.735
276.526	27.083	866.663	692.594
277.541	27.060	867.161	692.844
278.555	27.542	867.095	694.570
279.570	27.146	865.867	692.018
280.585	26.882	865.871	690.953
281.599	27.202	864.102	690.698
282.614	27.157	864.765	690.993
283.628	26.912	863.135	688.702
284.643	26.797	862.039	687.328
285.657	26.957	862.383	688.148
286.672	26.403	861.727	685.464
287.687	26.765	859.964	685.373
288.701	26.385	861.226	684.879
289.716	27.015	859.882	686.130
290.730	26.359	859.951	683.643
291.745	26.071	858.694	681.495
292.760	25.967	857.715	680.267
293.774	26.388	856.509	680.836
294.789	27.115	856.962	683.874
295.803	27.685	858.038	686.817
296.818	27.599	857.734	686.192
297.833	27.720	857.061	686.047
298.847	27.477	856.058	684.270
299.862	27.790	854.176	683.880
300.876	27.396	854.664	682.730
301.891	27.888	854.234	684.170
302.906	27.534	854.328	682.860
303.920	27.545	852.285	681.207
304.935	27.314	852.072	680.114
305.949	27.557	851.519	680.519
306.964	28.241	850.874	682.495
307.979	27.557	850.723	679.764
308.993	27.234	850.441	678.273
310.008	27.728	850.332	679.969
311.022	28.126	848.850	680.204
312.037	28.195	848.213	679.887
313.052	27.616	848.075	677.566
314.066	27.363	847.314	675.957
315.081	26.481	846.319	671.832
316.095	25.960	844.906	668.720
317.110	26.373	845.558	670.706
318.125	27.661	844.560	674.624
319.139	26.666	844.681	670.981
320.154	25.994	842.586	666.772
321.168	25.361	841.585	663.582
322.183	26.040	842.433	666.703
323.197	27.005	842.056	669.907
324.212	27.146	842.163	670.454
325.227	27.251	841.486	670.245
326.241	27.713	841.060	671.547
327.256	27.676	840.124	670.603
328.270	27.359	839.784	669.108
329.285	27.270	839.899	668.812
330.300	27.236	838.682	667.658
331.314	26.918	837.004	665.098
332.329	27.036	836.074	664.733
333.343	27.202	837.092	666.092
334.358	27.767	836.173	667.370
335.373	27.931	835.693	667.526
336.387	27.760	834.821	666.145
337.402	27.799	835.113	666.463
338.416	28.276	834.898	667.973
339.431	27.931	834.186	666.087
340.446	28.533	833.197	667.429
341.460	28.283	833.176	666.442
342.475	28.398	832.579	666.323
343.489	27.917	833.211	665.020
344.504	28.199	830.776	664.041
345.519	28.350	831.230	664.896
346.533	28.503	831.634	665.715
347.548	28.481	830.879	664.970
348.562	28.593	829.508	664.221
349.577	27.976	830.305	662.564
350.592	28.486	828.292	662.742
351.606	28.479	827.929	662.367
352.621	28.318	828.588	662.254
353.635	27.891	827.733	659.970
354.650	27.834	827.323	659.379
355.665	28.053	825.673	658.793
356.679	26.859	824.031	653.131
357.694	26.510	823.741	651.585
358.708	27.548	823.232	654.857
359.723	27.299	822.604	653.408
360.738	27.555	822.819	654.438
361.752	27.879	823.478	656.069
362.767	28.097	822.505	656.018
363.781	28.617	822.790	658.053
364.796	28.144	822.696	656.223
365.810	29.026	821.360	658.255
366.825	29.117	820.662	657.963
367.840	28.981	820.869	657.584
368.854	28.654	819.541	655.297
369.869	28.385	818.660	653.574
370.883	27.968	818.007	651.511
371.898	28.142	818.202	652.226
372.913	28.005	817.904	651.443
373.927	27.946	817.296	650.692
374.942	28.455	816.662	651.941
375.956	28.235	816.216	650.745
376.971	28.436	815.252	650.631
377.986	28.395	815.396	650.545
379.000	28.952	814.187	651.493
380.015	28.807	813.908	650.701
381.029	28.528	814.019	649.744
382.044	28.319	812.904	648.056
383.059	28.567	812.380	648.456
384.073	28.852	811.763	648.914
385.088	28.585	811.298	647.543
386.102	28.595	810.564	646.936
387.117	28.589	810.018	646.422
388.132	28.406	809.245	645.102
389.146	28.441	808.551	644.615
390.161	27.729	808.060	641.665
391.175	27.803	807.259	641.232
392.190	28.517	807.727	644.054
393.205	27.852	807.672	641.620
394.219	27.341	805.994	638.437
395.234	25.867	803.812	631.488
396.248	25.089	802.464	627.653
397.263	26.025	803.286	631.517
398.278	27.780	804.943	638.916
399.292	28.407	804.463	640.668
400.307	28.055	803.643	638.732
401.321	28.034	803.679	638.631
402.336	27.949	802.968	637.712
403.350	28.396	802.727	639.021
404.365	28.920	803.227	641.192
405.380	29.163	803.312	642.050
406.394	29.400	801.378	641.273
407.409	29.567	802.236	642.483
408.423	29.468	801.925	641.831
409.438	29.344	800.903	640.527
410.453	28.927	801.058	639.146
411.467	29.561	799.733	640.229
412.482	29.574	799.262	639.843
413.496	29.628	798.533	639.388
414.511	29.282	799.047	638.543
415.526	29.519	798.670	639.007
416.540	29.522	798.220	638.602
417.555	29.663	796.469	637.631
418.569	29.221	796.332	635.939
419.584	28.898	796.683	635.049
420.599	28.852	795.695	634.045
421.613	159.634	1369.642	1793.001
422.628	138.372	1453.382	1793.027
