DTS Sentinel unit serial number:	SN413079Multiplexer serial number:	ORYXHardware model number:	OX4-SRSoftware version number:	ORYX F/W v4.00 Oryx Data Collector v3.7.2.0data status	okinstallation	princeton_trtdifferential loss correction	single-endedforward channel	channel 3reverse channel	N/Adate	2019/09/15time	04:28:35forward acquisition time	60.00reverse acquisition time	0.00gamma	496.2192k internal	0.2323k external	0.2323temperature offset calibration	0.9970default loss term (dB/km)	0.3790temperature slope calibration	1.0000multiplexer offset coefficient	1.0000multiplexer slope coefficient	1.0000fibre end	0.00T internal ref (°C)	30.87T ext. ref 1 (°C)	4.65T ext. ref 2 (°C)	25.51length (m)	temperature (°C)	Stokes	anti-Stokes-747.200	-122.662	0.180	-0.030
-746.185	-117.987	-0.301	0.054
-745.171	-31.738	0.392	0.222
-744.156	18.824	0.140	0.113
-743.142	-200.000	-0.067	0.436
-742.127	-63.696	-0.282	0.117
-741.112	800.000	-0.106	-0.340
-740.098	-200.000	-0.007	-0.099
-739.083	82.943	-0.271	-0.298
-738.069	175.564	0.194	0.284
-737.054	-42.549	-0.141	0.073
-736.039	369.271	-0.139	-0.285
-735.025	289.729	0.232	-0.424
-734.010	242.420	-0.188	-0.317
-732.996	43.723	0.104	0.096
-731.981	-103.379	-0.308	-0.073
-730.966	-37.825	-0.085	-0.046
-729.952	800.000	0.067	0.252
-728.937	-136.914	-0.388	-0.045
-727.923	-200.000	0.032	-0.261
-726.908	-200.000	-0.044	-0.245
-725.894	196.723	0.130	0.200
-724.879	85.008	0.105	0.117
-723.864	-65.379	0.483	-0.196
-722.850	649.416	-0.024	-0.063
-721.835	800.000	0.209	-0.585
-720.821	-4.947	0.027	-0.019
-719.806	-42.736	-0.129	-0.066
-718.791	-101.978	-0.408	0.099
-717.777	-200.000	0.008	-0.103
-716.762	-200.000	-0.001	0.227
-715.748	-105.882	-0.211	0.048
-714.733	-22.602	0.048	-0.030
-713.718	-149.525	0.216	0.017
-712.704	-175.439	-0.140	0.004
-711.689	-200.000	-0.001	-0.174
-710.675	-186.481	0.102	0.001
-709.660	-200.000	-0.005	0.087
-708.645	-0.705	-0.239	0.171
-707.631	-200.000	0.014	0.169
-706.616	-173.415	0.306	-0.009
-705.602	677.182	0.177	0.463
-704.587	170.198	0.072	-0.104
-703.572	-191.465	0.209	0.002
-702.558	-66.402	-0.148	0.059
-701.543	-23.720	-0.231	-0.140
-700.529	437.306	-0.049	0.109
-699.514	-67.888	0.153	0.060
-698.499	-1.558	0.175	-0.124
-697.485	-144.173	0.303	-0.029
-696.470	93.309	0.124	0.142
-695.456	800.000	0.059	-0.189
-694.441	-200.000	-0.030	-0.232
-693.426	-101.484	0.218	-0.053
-692.412	-156.446	0.453	0.028
-691.397	800.000	-0.086	-0.293
-690.383	-79.684	-0.197	0.067
-689.368	23.718	-0.264	0.219
-688.354	79.023	-0.093	0.100
-687.339	-132.803	0.337	0.043
-686.324	-200.000	0.067	-0.365
-685.310	-200.000	0.002	0.396
-684.295	-4.022	-0.354	0.248
-683.281	149.149	0.088	-0.120
-682.266	54.116	0.107	-0.104
-681.251	-200.000	0.018	-0.202
-680.237	94.305	-0.230	-0.262
-679.222	-107.408	-0.146	-0.032
-678.208	160.321	-0.242	-0.340
-677.193	350.089	-0.038	-0.077
-676.178	288.518	0.200	-0.364
-675.164	280.799	-0.269	-0.484
-674.149	8.776	0.060	0.046
-673.135	-78.204	0.114	-0.040
-672.120	-200.000	-0.006	-0.266
-671.105	800.000	0.117	0.346
-670.091	-200.000	-0.001	0.259
-669.076	-200.000	0.032	0.220
-668.062	-200.000	-0.078	0.356
-667.047	484.123	-0.052	-0.120
-666.032	63.877	-0.291	0.295
-665.018	-148.310	-0.144	-0.012
-664.003	427.343	0.149	-0.323
-662.989	777.730	-0.084	-0.232
-661.974	-156.765	0.203	-0.013
-660.959	-200.000	-0.032	-0.336
-659.945	800.000	0.086	-0.306
-658.930	130.646	0.123	0.159
-657.916	129.661	-0.079	0.101
-656.901	-84.717	0.135	0.043
-655.886	136.754	-0.074	0.097
-654.872	-29.954	-0.256	0.147
-653.857	240.333	-0.059	-0.100
-652.843	68.524	0.144	0.149
-651.828	-122.104	-0.059	0.010
-650.814	-200.000	0.013	-0.130
-649.799	-120.800	0.282	-0.048
-648.784	-58.784	-0.098	0.042
-647.770	34.519	-0.072	-0.063
-646.755	68.408	-0.085	0.088
-645.741	156.559	0.138	-0.192
-644.726	-43.216	-0.137	0.070
-643.711	-177.536	-0.344	0.008
-642.697	-148.231	-0.094	-0.008
-641.682	800.000	0.067	-0.207
-640.668	-127.129	0.380	-0.056
-639.653	280.154	0.215	0.386
-638.638	-107.825	-0.345	-0.076
-637.624	-59.090	-0.151	-0.065
-636.609	-200.000	0.006	-0.066
-635.595	-15.124	-0.186	0.120
-634.580	-200.000	0.020	-0.152
-633.565	310.686	-0.073	-0.137
-632.551	183.344	-0.074	-0.110
-631.536	800.000	0.061	0.195
-630.522	100.922	-0.092	-0.108
-629.507	-200.000	-0.028	0.176
-628.492	7.803	0.475	0.357
-627.478	-50.751	0.100	0.047
-626.463	397.883	-0.028	0.058
-625.449	-132.095	-0.161	0.021
-624.434	-172.302	0.108	0.003
-623.419	33.187	0.256	-0.223
-622.405	-34.553	-0.215	0.119
-621.390	-200.000	-0.030	0.144
-620.376	60.254	0.044	-0.044
-619.361	-107.050	0.289	0.064
-618.346	-48.578	0.127	0.061
-617.332	-107.824	-0.211	0.046
-616.317	48.649	-0.071	-0.067
-615.303	-157.096	0.186	0.011
-614.288	25.781	-0.067	-0.056
-613.273	287.268	0.061	-0.111
-612.259	120.171	0.291	-0.362
-611.244	137.496	-0.107	-0.141
-610.230	-94.664	-0.095	0.026
-609.215	-200.000	-0.086	-0.388
-608.201	-115.010	-0.146	0.028
-607.186	343.438	-0.071	-0.139
-606.171	85.244	-0.016	0.017
-605.157	-200.000	0.016	-0.122
-604.142	-17.255	-0.092	-0.059
-603.128	53.064	0.308	0.296
-602.113	-106.235	-0.332	-0.075
-601.098	800.000	0.099	0.275
-600.084	205.150	-0.146	0.227
-599.069	-19.024	0.192	0.120
-598.055	-34.532	-0.232	-0.127
-597.040	-10.378	0.143	0.095
-596.025	-139.403	-0.362	-0.039
-595.011	66.848	0.286	-0.292
-593.996	-200.000	0.041	-0.291
-592.982	78.354	0.203	-0.218
-591.967	-107.226	-0.224	0.050
-590.952	-84.427	-0.187	0.059
-589.938	-20.703	0.215	-0.132
-588.923	800.000	-0.037	0.135
-587.909	-115.045	0.336	-0.064
-586.894	-126.923	0.157	-0.023
-585.879	704.708	0.045	-0.119
-584.865	634.502	-0.021	0.053
-583.850	39.620	-0.306	-0.275
-582.836	800.000	-0.044	-0.121
-581.821	-72.572	0.037	-0.014
-580.806	222.748	0.106	-0.171
-579.792	240.119	-0.161	-0.269
-578.777	-7.295	-0.123	-0.083
-577.763	-13.843	0.013	-0.009
-576.748	373.530	-0.068	0.139
-575.733	157.234	-0.146	-0.203
-574.719	-173.143	-0.261	-0.008
-573.704	-156.729	-0.099	0.006
-572.690	-158.570	-0.305	-0.018
-571.675	-200.000	-0.001	0.108
-570.661	33.149	0.146	0.127
-569.646	-11.805	-0.047	0.031
-568.631	622.794	-0.202	0.510
-567.617	-200.000	0.045	0.223
-566.602	-132.555	-0.226	-0.029
-565.588	15.607	0.139	0.109
-564.573	800.000	0.064	0.228
-563.558	-200.000	-0.023	0.138
-562.544	233.801	-0.084	-0.139
-561.529	-200.000	-0.027	-0.164
-560.515	-58.147	0.147	-0.064
-559.500	-121.519	0.258	0.043
-558.485	-53.048	0.101	-0.047
-557.471	318.739	-0.200	0.380
-556.456	-200.000	-0.016	0.079
-555.442	-86.783	-0.277	-0.085
-554.427	64.724	0.193	0.195
-553.412	-24.905	-0.327	0.195
-552.398	-122.094	-0.202	-0.033
-551.383	14.500	-0.477	0.373
-550.369	0.647	0.181	0.130
-549.354	-130.990	-0.095	0.013
-548.339	-111.814	0.231	-0.047
-547.325	-104.200	-0.752	-0.175
-546.310	-20.210	-0.096	0.059
-545.296	-162.323	0.105	0.005
-544.281	-54.994	0.133	-0.060
-543.266	-176.293	0.151	-0.004
-542.252	800.000	0.046	-0.163
-541.237	-97.833	0.136	0.035
-540.223	-88.088	-0.447	-0.134
-539.208	218.937	0.066	-0.106
-538.193	-145.498	-0.162	-0.015
-537.179	527.901	0.007	0.016
-536.164	-183.204	0.277	0.005
-535.150	143.011	0.136	-0.181
-534.135	45.902	0.277	0.257
-533.121	109.192	0.100	0.120
-532.106	-200.000	0.017	-0.124
-531.091	12.862	0.196	-0.152
-530.077	201.812	0.167	0.257
-529.062	763.346	0.093	0.253
-528.048	-57.411	-0.340	0.149
-527.033	443.674	0.122	0.269
-526.018	-44.727	0.388	0.194
-525.004	-161.363	0.319	0.017
-523.989	-91.029	-0.078	-0.023
-522.975	-1.224	-0.250	0.177
-521.960	800.000	0.046	0.203
-520.945	-200.000	0.019	0.088
-519.931	281.400	0.024	-0.043
-518.916	-86.367	-0.117	0.036
-517.902	26.679	-0.133	0.112
-516.887	-11.506	0.087	0.057
-515.872	400.350	-0.060	-0.125
-514.858	800.000	-0.020	0.080
-513.843	-22.426	-0.298	0.181
-512.829	20.522	-0.189	0.153
-511.814	-139.344	-0.305	0.033
-510.799	605.282	-0.144	0.360
-509.785	-45.861	-0.158	0.078
-508.770	-200.000	-0.020	-0.173
-507.756	-104.702	0.239	-0.055
-506.741	-45.210	-0.107	-0.053
-505.726	-41.207	0.030	0.016
-504.712	-200.000	-0.016	-0.184
-503.697	-97.326	-0.237	0.062
-502.683	795.342	0.029	-0.081
-501.668	-200.000	0.043	0.319
-500.653	-40.365	-0.311	-0.162
-499.639	258.223	0.073	0.125
-498.624	97.549	-0.190	-0.218
-497.610	126.379	0.151	-0.191
-496.595	-102.010	-0.207	-0.050
-495.581	708.441	-0.017	-0.044
-494.566	-11.349	-0.168	0.110
-493.551	-24.697	-0.271	0.161
-492.537	365.210	0.073	-0.147
-491.522	185.482	-0.221	0.328
-490.508	-65.742	-0.216	-0.087
-489.493	80.271	-0.233	-0.251
-488.478	-94.527	0.306	0.083
-487.464	-200.000	0.027	-0.197
-486.449	-150.390	-0.166	0.013
-485.435	6.457	-0.230	0.171
-484.420	134.312	-0.188	0.243
-483.405	0.337	0.163	0.117
-482.391	-144.607	0.191	-0.018
-481.376	74.947	0.249	-0.262
-480.362	-21.289	0.169	0.103
-479.347	245.618	-0.193	-0.325
-478.332	85.332	0.121	0.132
-477.318	565.109	-0.136	0.330
-476.303	169.139	-0.096	0.137
-475.289	-112.847	0.113	-0.022
-474.274	-200.000	0.010	0.238
-473.259	-14.028	-0.205	0.132
-472.245	360.589	-0.040	0.079
-471.230	65.590	0.071	0.072
-470.216	121.228	0.259	-0.322
-469.201	-200.000	0.006	0.178
-468.186	-187.114	0.278	-0.004
-467.172	-107.658	0.300	-0.066
-466.157	-200.000	0.005	-0.144
-465.143	583.646	-0.003	-0.008
-464.128	-136.881	0.244	-0.028
-463.113	-77.672	-0.221	0.077
-462.099	-38.793	-0.384	0.202
-461.084	-127.616	-0.223	-0.032
-460.070	-71.961	-0.159	-0.059
-459.055	-17.872	-0.097	-0.061
-458.040	669.893	0.015	-0.039
-457.026	52.570	0.151	-0.144
-456.011	10.472	-0.118	0.090
-454.997	-14.658	-0.034	-0.022
-453.982	548.909	0.057	-0.136
-452.968	-109.567	-0.250	-0.053
-451.953	-103.522	0.462	0.108
-450.938	230.824	-0.090	-0.147
-449.924	800.000	0.053	-0.208
-448.909	28.280	0.275	-0.231
-447.895	-87.402	0.159	-0.048
-446.880	270.029	0.172	-0.302
-445.865	20.806	-0.349	0.283
-444.851	16.289	0.080	0.063
-443.836	-55.306	0.278	-0.125
-442.822	18.070	0.029	-0.023
-441.807	-34.897	0.118	0.064
-440.792	-100.024	-0.414	0.103
-439.778	-200.000	-0.026	-0.180
-438.763	114.240	0.125	-0.152
-437.749	-100.699	0.273	0.067
-436.734	-200.000	0.033	-0.242
-435.719	327.505	0.119	-0.227
-434.705	-33.354	0.375	0.207
-433.690	-85.788	-0.178	-0.055
-432.676	63.375	-0.131	-0.131
-431.661	800.000	-0.062	-0.261
-430.646	8.570	-0.199	0.149
-429.632	204.265	-0.079	-0.122
-428.617	-200.000	-0.020	0.231
-427.603	-148.321	0.129	0.011
-426.588	-200.000	-0.029	0.166
-425.573	-200.000	0.001	0.044
-424.559	483.561	0.043	-0.097
-423.544	-200.000	0.041	0.418
-422.530	213.070	-0.100	-0.158
-421.515	193.974	0.079	-0.120
-420.500	-7.380	-0.114	-0.077
-419.486	-160.764	-0.283	-0.015
-418.471	-81.461	-0.305	0.100
-417.457	-78.648	0.172	-0.059
-416.442	728.286	0.046	-0.121
-415.428	800.000	0.034	-0.118
-414.413	-89.720	-0.200	0.058
-413.398	-117.785	0.249	-0.045
-412.384	800.000	-0.062	0.220
-411.369	-200.000	-0.051	0.313
-410.355	38.542	-0.309	-0.275
-409.340	-129.486	-0.196	0.027
-408.325	129.473	-0.018	-0.022
-407.311	-52.280	0.221	-0.102
-406.296	683.592	-0.058	-0.151
-405.282	754.389	-0.006	-0.017
-404.267	800.000	-0.036	0.118
-403.252	-152.167	-0.561	0.041
-402.238	-7.530	-0.251	-0.169
-401.223	-200.000	0.008	-0.100
-400.209	-200.000	-0.023	-0.178
-399.194	378.845	-0.055	-0.112
-398.179	-79.367	0.248	0.084
-397.165	-200.000	-0.085	-0.507
-396.150	-200.000	0.002	0.040
-395.136	43.954	-0.228	-0.208
-394.121	301.580	-0.096	-0.177
-393.106	27.973	-0.214	-0.180
-392.092	79.976	-0.211	-0.226
-391.077	30.173	-0.291	-0.248
-390.063	-159.581	-0.040	0.002
-389.048	119.728	0.048	-0.059
-388.033	26.004	0.184	-0.153
-387.019	302.074	0.061	0.113
-386.004	-81.975	-0.206	0.067
-384.990	91.429	0.210	-0.235
-383.975	-127.851	0.088	0.013
-382.960	-34.780	0.206	0.112
-381.946	-109.984	0.128	0.027
-380.931	-200.000	-0.005	-0.036
-379.917	-34.929	0.313	-0.170
-378.902	-118.351	0.099	-0.017
-377.888	-48.306	0.072	0.035
-376.873	749.908	0.065	0.175
-375.858	-9.994	-0.205	0.136
-374.844	-78.653	-0.179	0.061
-373.829	3.459	0.177	-0.128
-372.815	-200.000	0.010	0.150
-371.800	-200.000	0.005	-0.350
-370.785	-21.046	0.069	0.042
-369.771	127.407	0.120	0.151
-368.756	800.000	0.128	0.459
-367.742	582.779	0.127	0.311
-366.727	-200.000	0.029	0.219
-365.712	550.314	0.196	0.467
-364.698	-200.000	0.013	0.190
-363.683	-200.000	-0.026	0.318
-362.669	800.000	-0.106	-0.453
-361.654	182.071	-0.124	-0.182
-360.639	-65.790	0.222	-0.088
-359.625	-48.344	0.444	-0.213
-358.610	196.246	-0.143	-0.217
-357.596	-200.000	0.021	0.263
-356.581	-200.000	-0.034	0.191
-355.566	178.099	-0.223	0.324
-354.552	154.611	0.259	0.354
-353.537	-200.000	0.077	0.487
-352.523	-71.429	0.210	0.078
-351.508	-108.762	-0.238	-0.051
-350.493	7.778	-0.060	0.045
-349.479	705.907	0.096	0.253
-348.464	-118.348	-0.399	-0.070
-347.450	86.595	0.079	-0.087
-346.435	82.246	0.061	-0.066
-345.420	31.824	0.146	-0.125
-344.406	-93.282	0.132	0.037
-343.391	-153.645	-0.392	-0.027
-342.377	54.596	0.168	0.161
-341.362	-200.000	-0.045	0.414
-340.348	139.267	0.142	0.185
-339.333	39.374	0.129	-0.114
-338.318	11.476	0.130	-0.099
-337.304	51.640	-0.048	0.045
-336.289	399.416	0.068	-0.142
-335.275	-174.046	-0.204	-0.006
-334.260	-4.672	0.181	0.124
-333.245	-200.000	-0.011	-0.185
-332.231	-200.000	-0.019	0.184
-331.216	575.459	0.043	-0.104
-330.202	156.799	0.256	0.351
-329.187	414.857	-0.020	-0.043
-328.172	-110.013	-0.176	-0.037
-327.158	742.622	-0.086	-0.228
-326.143	308.669	-0.020	0.038
-325.129	-182.547	-0.351	-0.006
-324.114	28.395	-0.139	-0.116
-323.099	800.000	-0.021	-0.083
-322.085	-200.000	-0.016	-0.080
-321.070	-122.206	0.388	0.063
-320.056	-42.239	0.162	0.082
-319.041	65.417	-0.100	0.100
-318.026	800.000	0.079	0.272
-317.012	-57.385	0.067	0.029
-315.997	55.609	-0.042	-0.041
-314.983	50.324	-0.199	-0.186
-313.968	800.000	-0.054	-0.177
-312.953	-200.000	0.019	-0.274
-311.939	-200.000	0.002	-0.142
-310.924	128.259	-0.208	-0.263
-309.910	381.973	-0.094	0.193
-308.895	713.117	0.100	0.264
-307.880	-60.230	0.246	0.104
-306.866	293.914	0.050	-0.090
-305.851	-68.238	-0.111	-0.043
-304.837	-84.304	0.257	-0.081
-303.822	-126.330	-0.065	-0.010
-302.807	800.000	-0.045	0.181
-301.793	-84.952	-0.181	-0.056
-300.778	355.236	-0.071	0.140
-299.764	-200.000	0.005	-0.084
-298.749	-200.000	0.023	-0.347
-297.735	800.000	-0.035	-0.131
-296.720	-145.970	-0.076	0.007
-295.705	-104.195	-0.210	0.048
-294.691	-79.029	0.449	0.151
-293.676	-142.534	0.312	-0.030
-292.662	-200.000	-0.004	0.175
-291.647	-200.000	-0.005	0.061
-290.632	-77.717	-0.268	0.092
-289.618	-1.668	-0.117	0.082
-288.603	427.692	0.135	0.288
-287.589	357.105	0.131	0.259
-286.574	-84.875	-0.188	0.058
-285.559	254.494	-0.174	0.295
-284.545	-113.082	0.214	0.042
-283.530	156.005	0.166	0.227
-282.516	800.000	0.128	0.416
-281.501	-200.000	0.003	-0.323
-280.486	441.437	-0.103	-0.223
-279.472	182.472	0.278	0.406
-278.457	-152.237	-0.424	0.030
-277.443	-159.765	0.276	-0.015
-276.428	800.000	-0.046	0.167
-275.413	-200.000	0.035	0.212
-274.399	1.421	0.326	-0.232
-273.384	279.592	-0.086	0.152
-272.370	-200.000	0.011	-0.099
-271.355	800.000	-0.031	-0.131
-270.340	358.972	0.115	-0.228
-269.326	-58.478	-0.188	0.081
-268.311	-138.411	0.158	-0.017
-267.297	-111.190	0.190	0.039
-266.282	-16.482	-0.259	0.163
-265.267	374.450	-0.034	0.069
-264.253	800.000	0.017	-0.054
-263.238	182.420	0.230	0.335
-262.224	293.532	-0.030	0.055
-261.209	800.000	0.061	0.227
-260.195	108.060	-0.111	0.131
-259.180	119.953	-0.239	0.293
-258.165	14.009	0.157	0.121
-257.151	-56.433	-0.130	0.057
-256.136	800.000	0.079	-0.281
-255.122	-121.539	0.288	0.047
-254.107	217.669	-0.132	-0.208
-253.092	-114.336	-0.087	0.017
-252.078	-200.000	-0.041	0.314
-251.063	413.089	0.112	-0.235
-250.049	-187.764	-0.092	-0.001
-249.034	170.617	0.181	-0.257
-248.019	315.883	0.077	-0.143
-247.005	-40.094	-0.119	-0.061
-245.990	419.209	-0.108	-0.229
-244.976	8.744	0.277	-0.207
-243.961	-1.642	0.102	0.071
-242.946	355.853	0.099	-0.196
-241.932	27.498	0.120	-0.100
-240.917	-95.038	-0.313	-0.084
-239.903	-200.000	0.016	0.100
-238.888	389.174	0.116	-0.238
-237.873	397.360	-0.123	0.255
-236.859	286.768	0.132	0.236
-235.844	-22.369	0.163	-0.098
-234.830	70.352	-0.076	0.078
-233.815	192.950	0.225	-0.337
-232.800	176.069	-0.213	-0.307
-231.786	-131.764	0.237	-0.031
-230.771	-39.679	0.189	0.098
-229.757	-113.436	0.159	-0.031
-228.742	525.715	-0.104	-0.241
-227.727	4.925	-0.144	-0.105
-226.713	-68.789	-0.122	0.047
-225.698	623.013	0.076	0.190
-224.684	380.962	0.072	-0.146
-223.669	247.019	-0.188	-0.314
-222.655	205.485	-0.089	0.137
-221.640	-31.782	0.186	0.103
-220.625	39.754	-0.090	-0.080
-219.611	-44.070	0.270	0.134
-218.596	-166.016	0.164	-0.007
-217.582	-200.000	0.006	-0.148
-216.567	-168.288	-0.153	0.006
-215.552	-200.000	-0.001	-0.035
-214.538	4.778	0.217	0.158
-213.523	-200.000	0.007	-0.032
-212.509	-80.093	0.207	0.069
-211.494	45.027	0.126	0.114
-210.479	48.381	0.178	0.165
-209.465	-48.119	0.284	0.136
-208.450	-31.900	-0.114	-0.063
-207.436	-200.000	-0.034	0.184
-206.421	67.150	0.072	0.073
-205.406	48.013	-0.159	-0.147
-204.392	348.038	0.125	-0.244
-203.377	-56.235	0.308	-0.135
-202.363	749.393	0.081	0.217
-201.348	-200.000	0.153	-0.001
-200.333	185.474	-0.110	-0.161
-199.319	799.266	0.167	-0.455
-198.304	-105.938	0.034	-0.008
-197.290	86.173	0.185	-0.202
-196.275	800.000	-0.107	-0.301
-195.260	-158.267	0.134	0.008
-194.246	-123.424	-0.133	0.021
-193.231	168.932	-0.072	-0.101
-192.217	-200.000	0.057	-0.292
-191.202	-200.000	-0.024	-0.216
-190.187	380.315	-0.184	-0.373
-189.173	-200.000	0.012	-0.362
-188.158	-147.550	0.186	-0.016
-187.144	-200.000	-0.012	-0.054
-186.129	-200.000	0.033	-0.372
-185.114	391.450	-0.143	-0.293
-184.100	1.001	0.320	0.227
-183.085	201.398	-0.094	0.143
-182.071	-149.031	0.345	-0.027
-181.056	-13.814	-0.131	-0.084
-180.042	-92.398	-0.432	-0.120
-179.027	436.197	-0.044	0.095
-178.012	-87.084	0.123	-0.037
-176.998	-163.789	0.045	-0.002
-175.983	318.297	0.106	-0.199
-174.969	35.986	-0.100	0.087
-173.954	-24.378	-0.098	-0.058
-172.939	-104.778	-0.052	0.012
-171.925	-101.723	0.111	-0.026
-170.910	760.133	0.034	0.092
-169.896	-111.959	0.095	0.019
-168.881	211.462	-0.109	0.169
-167.866	-14.037	0.172	0.109
-166.852	-200.000	0.029	0.212
-165.837	353.588	-0.095	0.186
-164.823	-16.633	-0.090	-0.057
-163.808	302.209	0.220	0.402
-162.793	-200.000	0.021	0.138
-161.779	800.000	0.034	-0.096
-160.764	165.828	-0.349	-0.488
-159.750	-146.994	-0.189	-0.016
-158.735	-68.152	0.166	0.064
-157.720	540.292	0.125	-0.293
-156.706	141.261	0.207	-0.270
-155.691	-200.000	-0.018	0.096
-154.677	-86.652	-0.418	0.126
-153.662	-88.012	-0.192	-0.057
-152.647	-27.413	0.333	0.191
-151.633	20.318	0.104	-0.083
-150.618	-3.024	-0.144	-0.099
-149.604	457.416	0.020	-0.044
-148.589	130.302	0.237	0.300
-147.574	32.205	0.029	0.025
-146.560	-200.000	-0.061	0.316
-145.545	357.723	0.073	0.143
-144.531	571.033	0.063	0.151
-143.516	90.213	-0.050	0.055
-142.502	-45.518	-0.218	-0.106
-141.487	220.443	0.027	0.042
-140.472	548.207	-0.095	-0.224
-139.458	-78.320	-0.285	0.096
-138.443	800.000	-0.047	-0.155
-137.429	755.788	-0.027	0.073
-136.414	-1.386	-0.248	0.172
-135.399	-133.786	-0.436	0.054
-134.385	534.530	0.105	0.246
-133.370	-93.398	0.209	0.057
-132.356	191.222	0.227	0.336
-131.341	-155.481	-0.164	0.010
-130.326	-110.879	0.185	0.038
-129.312	147.604	0.197	0.262
-128.297	-126.151	-0.126	-0.019
-127.283	29.289	0.443	-0.371
-126.268	800.000	-0.043	-0.134
-125.253	-92.730	-0.138	-0.038
-124.239	3.824	-0.036	0.026
-123.224	104.825	0.099	0.115
-122.210	-79.756	0.153	0.051
-121.195	-3.116	0.177	0.121
-120.180	-200.000	0.005	0.223
-119.166	425.404	0.090	-0.190
-118.151	108.666	0.073	-0.085
-117.137	800.000	-0.079	0.237
-116.122	360.908	-0.104	0.205
-115.107	-34.001	-0.182	0.099
-114.093	-78.513	-0.129	0.043
-113.078	-82.674	-0.116	-0.037
-112.064	-200.000	-0.018	-0.223
-111.049	-200.000	0.015	-0.224
-110.034	96.677	0.135	0.152
-109.020	-168.368	0.218	-0.008
-108.005	12.166	-0.109	0.083
-106.991	-75.565	0.130	-0.046
-105.976	-200.000	0.017	0.082
-104.962	-57.955	-0.206	-0.089
-103.947	-76.912	-0.187	0.065
-102.932	334.774	-0.155	0.296
-101.918	673.108	-0.031	0.080
-100.903	217.310	-0.101	0.159
-99.889	20.942	0.236	0.188
-98.874	-53.470	-0.295	-0.133
-97.859	44.939	-0.165	0.149
-96.845	159.016	-0.101	-0.138
-95.830	-200.000	-0.012	-0.131
-94.816	77.105	-0.157	0.164
-93.801	63.442	0.112	0.111
-92.786	-125.947	-0.270	0.040
-91.772	301.757	-0.146	0.266
-90.757	-200.000	0.021	0.134
-89.743	-200.000	-0.024	0.326
-88.728	619.193	-0.114	-0.283
-87.713	-52.614	0.103	-0.047
-86.699	-98.799	0.348	0.087
-85.684	-11.085	0.212	0.137
-84.670	355.312	-0.126	0.246
-83.655	176.747	-0.087	-0.124
-82.640	-62.264	0.387	0.159
-81.626	-156.228	-0.182	0.011
-80.611	81.471	0.093	-0.099
-79.597	103.682	-0.193	0.223
-78.582	-93.831	0.048	0.013
-77.567	-53.245	0.331	-0.150
-76.553	475.530	0.056	0.124
-75.538	-200.000	-0.077	-0.375
-74.524	-200.000	-0.032	0.205
-73.509	-58.166	0.333	0.143
-72.494	-26.241	-0.182	-0.105
-71.480	800.000	-0.031	-0.094
-70.465	-200.000	-0.000	-0.127
-69.451	112.676	-0.078	0.093
-68.436	8.860	0.107	0.079
-67.422	-45.011	0.314	0.154
-66.407	459.914	-0.109	-0.239
-65.392	404.772	-0.053	-0.110
-64.378	-200.000	-0.026	0.253
-63.363	-200.000	0.005	0.184
-62.349	-200.000	-0.024	-0.314
-61.334	27.014	-0.986	-0.813
-60.319	120.969	0.443	0.542
-59.305	650.019	-0.291	-0.733
-58.290	204.653	0.625	0.953
-57.276	800.000	0.440	1.491
-56.261	-200.000	101.984	592.167
-55.246	563.820	1421.888	3384.982
-54.232	189.704	2607.737	3844.319
-53.217	116.352	2164.691	2607.664
-52.203	41.788	1696.346	1511.323
-51.188	34.077	1507.055	1290.570
-50.173	31.721	1479.753	1251.421
-49.159	51.382	1532.293	1430.087
-48.144	52.915	1550.128	1457.110
-47.130	34.251	1507.298	1291.748
-46.115	31.132	1492.726	1258.221
-45.100	30.947	1489.381	1254.109
-44.086	30.965	1487.498	1252.592
-43.071	30.846	1485.705	1250.230
-42.057	30.861	1483.685	1248.583
-41.042	30.877	1482.597	1247.726
-40.027	30.839	1481.073	1246.143
-39.013	30.872	1479.080	1244.636
-37.998	30.734	1478.245	1242.960
-36.984	30.881	1476.606	1242.516
-35.969	30.820	1475.786	1241.371
-34.954	30.907	1474.397	1240.730
-33.940	30.822	1472.828	1238.795
-32.925	30.856	1471.482	1237.837
-31.911	31.002	1469.876	1237.410
-30.896	30.893	1469.324	1236.169
-29.881	30.974	1467.775	1235.356
-28.867	30.985	1465.901	1233.802
-27.852	30.962	1464.891	1232.750
-26.838	30.958	1463.450	1231.462
-25.823	30.943	1461.713	1229.856
-24.809	30.911	1460.095	1228.233
-23.794	30.868	1459.160	1227.111
-22.779	30.925	1457.676	1226.193
-21.765	30.859	1456.852	1225.017
-20.750	30.996	1455.779	1224.964
-19.736	30.803	1454.856	1222.875
-18.721	30.927	1453.665	1222.640
-17.706	30.854	1452.210	1220.886
-16.692	30.914	1451.031	1220.239
-15.677	30.918	1450.413	1219.697
-14.663	30.862	1449.295	1218.341
-13.648	30.834	1448.025	1217.044
-12.633	30.856	1447.398	1216.615
-11.619	30.826	1446.987	1216.023
-10.604	30.822	1445.881	1215.018
-9.590	30.772	1445.579	1214.392
-8.575	30.835	1444.634	1213.963
-7.560	30.883	1443.140	1212.969
-6.546	30.860	1442.119	1211.915
-5.531	30.859	1441.683	1211.493
-4.517	30.724	1440.732	1209.767
-3.502	30.917	1439.327	1209.795
-2.487	30.866	1438.453	1208.676
-1.473	30.865	1437.379	1207.724
-0.458	30.777	1436.030	1205.974
0.556	29.524	1426.371	1195.129
1.571	26.652	1401.646	1156.009
2.586	23.278	1342.995	1086.868
3.600	21.645	1262.086	1011.873
4.615	20.339	1216.983	968.343
5.629	17.728	1161.288	910.031
6.644	10.682	1080.229	811.335
7.659	5.611	1041.577	757.748
8.673	4.781	1036.689	750.126
9.688	4.687	1033.425	747.247
10.702	4.580	1032.419	745.942
11.717	4.563	1030.380	744.320
12.731	6.465	1031.822	754.413
13.746	13.032	1040.565	792.356
14.761	18.004	1047.027	821.161
15.775	18.263	1046.064	821.577
16.790	17.341	1044.044	815.502
17.804	16.222	1042.143	808.583
18.819	15.301	1040.401	802.754
19.834	14.924	1038.692	799.562
20.848	14.605	1037.703	797.208
21.863	14.436	1036.958	795.756
22.877	14.130	1036.422	793.813
23.892	14.033	1035.194	792.341
24.907	13.902	1034.524	791.134
25.921	13.988	1033.746	790.879
26.936	13.905	1033.559	790.271
27.950	14.036	1032.387	789.929
28.965	14.040	1031.211	788.978
29.980	14.142	1029.840	788.341
30.994	14.258	1028.408	787.723
32.009	14.213	1028.079	787.191
33.023	14.177	1027.412	786.439
34.038	14.318	1026.446	786.298
35.053	14.170	1025.566	784.854
36.067	14.111	1024.728	783.864
37.082	14.041	1023.772	782.733
38.096	14.204	1022.699	782.614
39.111	14.209	1022.120	782.123
40.126	14.211	1021.861	781.864
41.140	14.093	1019.986	779.808
42.155	13.954	1019.350	778.599
43.169	13.934	1017.997	777.407
44.184	13.943	1016.744	776.422
45.199	13.920	1015.812	775.535
46.213	13.887	1014.792	774.534
47.228	13.889	1014.110	773.956
48.242	14.035	1012.914	773.653
49.257	14.022	1012.374	773.112
50.271	14.045	1011.434	772.429
51.286	14.154	1009.995	771.767
52.301	14.206	1009.634	771.664
53.315	14.155	1008.663	770.619
54.330	14.041	1007.985	769.506
55.344	13.907	1006.956	768.033
56.359	13.891	1006.199	767.315
57.374	14.011	1004.931	766.832
58.388	13.945	1004.137	765.853
59.403	13.888	1003.816	765.279
60.417	13.837	1003.031	764.377
61.432	13.787	1002.149	763.410
62.447	13.803	1001.591	762.990
63.461	13.747	1000.694	761.982
64.476	13.776	999.407	761.069
65.490	13.787	998.677	760.495
66.505	13.701	997.939	759.471
67.520	13.751	997.474	759.280
68.534	13.841	996.591	758.950
69.549	13.810	995.879	758.199
70.563	13.851	995.253	757.843
71.578	13.840	994.439	757.108
72.593	13.750	993.335	755.789
73.607	13.676	992.616	754.835
74.622	13.713	991.634	754.194
75.636	13.785	990.505	753.592
76.651	13.680	989.906	752.593
77.666	13.722	989.347	752.294
78.680	13.723	988.933	751.919
79.695	13.700	988.295	751.262
80.709	13.814	987.555	751.146
81.724	13.900	986.764	750.867
82.739	13.936	985.833	750.258
83.753	13.821	985.615	749.506
84.768	13.905	984.665	749.096
85.782	14.118	983.972	749.462
86.797	14.201	983.421	749.351
87.812	14.268	982.188	748.644
88.826	14.143	981.416	747.427
89.841	14.102	980.700	746.633
90.855	14.106	980.084	746.118
91.870	14.073	979.442	745.415
92.884	14.169	978.353	744.949
93.899	14.216	977.949	744.787
94.914	14.272	976.630	743.967
95.928	14.233	976.416	743.562
96.943	14.329	975.848	743.491
97.957	14.170	975.065	742.120
98.972	14.181	974.112	741.380
99.987	14.107	973.462	740.489
101.001	14.269	972.273	740.240
102.016	14.062	972.110	739.132
103.030	14.101	970.828	738.261
104.045	14.188	969.816	737.813
105.060	14.210	968.918	737.162
106.074	14.153	967.802	735.998
107.089	13.987	967.352	734.857
108.103	13.927	966.199	733.649
109.118	13.851	965.396	732.640
110.133	13.805	964.421	731.630
111.147	13.872	963.566	731.215
112.162	13.978	962.560	730.850
113.176	13.942	961.910	730.134
114.191	13.952	960.922	729.366
115.206	13.958	960.273	728.833
116.220	13.961	959.281	728.029
117.235	14.044	957.987	727.348
118.249	13.905	957.826	726.550
119.264	14.058	956.636	726.253
120.279	13.836	955.989	724.727
121.293	13.932	955.006	724.336
122.308	13.796	954.296	723.142
123.322	13.846	953.699	722.844
124.337	13.768	952.449	721.495
125.352	13.867	951.324	721.009
126.366	13.888	950.361	720.303
127.381	13.827	949.254	719.139
128.395	13.760	948.835	718.465
129.410	13.781	947.714	717.644
130.424	13.723	947.431	717.116
131.439	13.816	945.830	716.243
132.454	13.852	945.418	716.022
133.468	14.021	944.722	716.159
134.483	13.996	944.155	715.559
135.497	14.071	942.869	714.844
136.512	13.866	942.996	713.994
137.527	14.007	941.554	713.445
138.541	13.950	940.940	712.673
139.556	13.951	940.328	712.152
140.570	13.884	939.851	711.440
141.585	13.963	938.856	710.963
142.600	14.138	938.324	711.243
143.614	14.097	937.560	710.426
144.629	14.182	936.573	709.980
145.643	14.217	935.245	709.057
146.658	14.271	934.960	709.011
147.673	14.128	934.028	707.631
148.687	14.102	932.934	706.630
149.702	13.987	932.371	705.654
150.716	13.950	931.182	704.535
151.731	14.076	930.178	704.245
152.746	13.931	930.138	703.539
153.760	13.995	929.114	702.974
154.775	14.010	928.703	702.661
155.789	14.153	927.769	702.497
156.804	14.245	927.135	702.342
157.819	14.192	926.316	701.438
158.833	14.245	925.466	700.955
159.848	14.223	925.108	700.531
160.862	14.358	924.120	700.289
161.877	14.334	923.500	699.653
162.892	14.260	922.542	698.555
163.906	14.149	921.580	697.300
164.921	13.978	921.003	696.086
165.935	14.094	919.751	695.565
166.950	14.192	918.543	694.997
167.964	14.133	918.078	694.337
168.979	14.219	917.096	693.893
169.994	14.182	915.882	692.758
171.008	14.197	915.442	692.427
172.023	14.242	914.574	691.897
173.037	14.238	913.711	691.165
174.052	14.267	913.339	690.943
175.067	14.390	912.577	690.815
176.081	14.166	912.157	689.507
177.096	14.230	910.703	688.611
178.110	14.113	910.119	687.626
179.125	14.441	908.907	688.006
180.140	14.289	908.565	687.056
181.154	14.276	907.716	686.300
182.169	14.311	907.351	686.107
183.183	14.362	906.831	685.865
184.198	14.466	906.133	685.705
185.213	14.455	905.213	684.900
186.227	14.531	904.874	684.898
187.242	14.451	904.680	684.361
188.256	14.574	903.315	683.771
189.271	14.543	903.175	683.477
190.286	14.694	901.809	683.000
191.300	14.499	901.367	681.811
192.315	14.396	900.909	680.983
193.329	14.183	899.788	679.204
194.344	14.171	899.441	678.835
195.359	14.244	898.855	678.630
196.373	14.422	898.265	678.849
197.388	14.444	897.802	678.528
198.402	14.535	897.396	678.533
199.417	14.768	896.831	678.991
200.432	14.676	896.712	678.469
201.446	14.812	896.122	678.513
202.461	14.854	896.140	678.636
203.475	14.863	895.386	678.044
204.490	14.920	894.494	677.537
205.504	14.861	893.481	676.473
206.519	14.680	893.211	675.477
207.534	14.697	891.642	674.298
208.548	14.605	891.628	673.855
209.563	14.570	891.483	673.547
210.577	14.548	890.358	672.549
211.592	14.752	889.333	672.534
212.607	14.800	889.361	672.689
213.621	14.865	888.613	672.327
214.636	14.952	887.628	671.872
215.650	14.904	887.006	671.149
216.665	14.882	886.522	670.634
217.680	14.880	886.059	670.217
218.694	14.958	885.953	670.390
219.709	15.026	885.280	670.095
220.723	14.961	884.533	669.210
221.738	14.832	884.340	668.489
222.753	14.900	883.332	667.937
223.767	14.812	882.869	667.177
224.782	15.016	881.836	667.152
225.796	15.111	881.085	666.903
226.811	15.121	880.287	666.278
227.826	15.008	879.980	665.537
228.840	15.151	879.043	665.339
229.855	14.996	878.254	664.067
230.869	14.885	877.665	663.123
231.884	15.155	876.850	663.518
232.899	14.847	876.124	661.692
233.913	14.925	875.582	661.531
234.928	14.792	875.196	660.655
235.942	15.025	873.950	660.577
236.957	14.921	873.016	659.401
237.972	14.936	872.905	659.319
238.986	15.004	872.095	658.917
240.001	14.879	871.438	657.872
241.015	14.931	871.158	657.805
242.030	15.037	870.158	657.409
243.045	14.999	869.648	656.815
244.059	15.056	869.501	656.869
245.074	15.136	868.581	656.430
246.088	15.173	867.816	655.939
247.103	15.141	867.240	655.323
248.117	15.373	866.646	655.722
249.132	15.274	866.386	655.078
250.147	15.301	865.538	654.484
251.161	15.713	864.671	655.378
252.176	15.663	864.125	654.712
253.190	15.632	863.574	654.116
254.205	15.681	862.976	653.797
255.220	15.715	862.518	653.525
256.234	15.574	861.912	652.460
257.249	15.645	861.446	652.323
258.263	15.660	861.057	652.028
259.278	15.616	860.444	651.337
260.293	15.652	859.743	650.889
261.307	15.612	859.437	650.443
262.322	15.651	858.911	650.137
263.336	15.797	857.882	649.866
264.351	15.768	857.313	649.267
265.366	15.878	857.046	649.433
266.380	15.810	856.334	648.572
267.395	15.813	855.806	648.127
268.409	15.732	855.112	647.233
269.424	15.719	854.131	646.381
270.439	15.707	853.327	645.671
271.453	15.809	852.764	645.580
272.468	15.718	851.752	644.407
273.482	15.863	851.023	644.355
274.497	15.708	850.942	643.641
275.512	15.895	849.936	643.538
276.526	15.774	849.474	642.668
277.541	15.774	848.707	642.032
278.555	15.798	848.457	641.876
279.570	15.943	847.941	641.984
280.585	15.846	847.330	641.096
281.599	15.967	847.180	641.386
282.614	16.025	846.247	640.842
283.628	15.924	845.340	639.716
284.643	15.990	845.102	639.729
285.657	15.929	844.243	638.790
286.672	16.043	843.838	638.860
287.687	16.037	843.663	638.649
288.701	15.943	842.667	637.484
289.716	15.977	842.200	637.200
290.730	15.908	842.344	636.992
291.745	16.054	841.113	636.557
292.760	15.915	840.819	635.755
293.774	16.056	839.855	635.500
294.789	16.105	839.627	635.454
295.803	16.138	838.942	635.006
296.818	16.171	838.208	634.519
297.833	16.053	838.015	633.872
298.847	16.116	836.778	633.118
299.862	16.210	835.884	632.738
300.876	15.976	836.095	631.963
301.891	16.220	835.295	632.218
302.906	16.308	834.437	631.840
303.920	16.366	833.674	631.423
304.935	16.406	833.174	631.140
305.949	16.368	832.885	630.722
306.964	16.453	832.136	630.417
307.979	16.330	831.612	629.505
308.993	16.361	830.832	628.973
310.008	16.371	830.789	628.925
311.022	16.447	830.333	628.806
312.037	16.477	829.579	628.288
313.052	16.457	828.675	627.475
314.066	16.359	828.098	626.620
315.081	16.391	827.388	626.143
316.095	16.378	827.051	625.786
317.110	16.306	826.630	625.147
318.125	16.324	825.956	624.646
319.139	16.264	825.853	624.291
320.154	16.283	825.082	623.723
321.168	16.397	824.218	623.438
322.183	16.341	824.218	623.176
323.197	16.419	823.438	622.818
324.212	16.356	823.136	622.302
325.227	16.350	822.655	621.860
326.241	16.419	821.832	621.436
327.256	16.418	821.232	620.925
328.270	16.457	820.901	620.763
329.285	16.443	820.283	620.188
330.300	16.513	819.619	619.889
331.314	16.358	819.316	619.038
332.329	16.473	818.501	618.788
333.343	16.443	818.091	618.314
334.358	16.518	817.653	618.203
335.373	16.514	817.024	617.657
336.387	16.566	816.663	617.520
337.402	16.722	815.675	617.287
338.416	16.673	815.236	616.722
339.431	16.702	814.897	616.516
340.446	16.859	814.020	616.369
341.460	16.747	813.593	615.583
342.475	16.829	813.139	615.482
343.489	16.900	812.655	615.320
344.504	16.925	811.963	614.831
345.519	17.006	811.742	614.906
346.533	17.010	811.050	614.340
347.548	16.981	810.488	613.756
348.562	16.894	810.209	613.174
349.577	16.848	809.295	612.262
350.592	16.874	808.863	611.976
351.606	16.652	808.755	611.037
352.621	16.808	808.220	611.143
353.635	16.760	807.651	610.485
354.650	16.946	807.080	610.669
355.665	16.820	806.936	610.054
356.679	16.862	806.679	609.958
357.694	17.101	805.750	610.058
358.708	16.914	805.328	609.014
359.723	17.018	804.875	608.990
360.738	17.028	804.026	608.329
361.752	17.115	803.798	608.417
362.767	17.058	803.647	608.044
363.781	17.090	802.955	607.579
364.796	17.064	802.793	607.313
365.810	17.202	801.958	607.117
366.825	17.241	801.645	606.966
367.840	17.361	801.658	607.353
368.854	17.375	801.053	606.888
369.869	17.293	800.710	606.283
370.883	17.278	800.081	605.700
371.898	17.115	799.488	604.619
372.913	17.390	798.691	604.941
373.927	17.305	798.170	604.190
374.942	17.323	797.372	603.595
375.956	17.353	796.874	603.273
376.971	17.365	796.230	602.772
377.986	17.573	795.623	602.998
379.000	17.556	795.030	602.433
380.015	17.662	794.659	602.476
381.029	17.464	794.439	601.555
382.044	17.479	794.089	601.288
383.059	17.527	793.234	600.757
384.073	17.550	792.676	600.362
385.088	17.500	792.258	599.818
386.102	17.493	791.512	599.175
387.117	17.393	791.202	598.535
388.132	17.430	790.722	598.248
389.146	17.338	790.493	597.699
390.161	17.303	790.292	597.372
391.175	17.498	789.875	597.690
392.190	17.606	789.148	597.465
393.205	17.521	788.946	596.961
394.219	17.422	788.287	596.064
395.234	17.584	787.888	596.275
396.248	17.432	787.051	595.059
397.263	17.418	787.117	595.005
398.278	17.254	786.607	593.994
399.292	17.475	785.723	594.045
400.307	17.330	785.640	593.425
401.321	17.386	785.172	593.212
402.336	17.477	784.921	593.289
403.350	17.537	784.735	593.304
404.365	17.523	783.960	592.618
405.380	17.550	783.816	592.551
406.394	17.732	783.017	592.524
407.409	17.861	782.697	592.680
408.423	17.790	782.202	592.005
409.438	17.886	781.834	592.008
410.453	17.845	781.707	591.718
411.467	17.940	780.826	591.326
412.482	18.009	780.393	591.184
413.496	17.916	780.066	590.565
414.511	17.933	779.800	590.370
415.526	18.066	779.303	590.400
416.540	17.969	778.836	589.658
417.555	18.030	778.523	589.581
418.569	18.023	778.062	589.155
419.584	17.955	777.623	588.534
420.599	17.987	777.185	588.263
421.613	156.934	1369.134	1797.202
422.628	135.352	1455.380	1797.278
