DTS Sentinel unit serial number:	SN413079Multiplexer serial number:	ORYXHardware model number:	OX4-SRSoftware version number:	ORYX F/W v4.00 Oryx Data Collector v3.7.2.0data status	okinstallation	princeton_trtdifferential loss correction	single-endedforward channel	channel 3reverse channel	N/Adate	2019/09/10time	17:22:10forward acquisition time	60.00reverse acquisition time	0.00gamma	496.2192k internal	0.2298k external	0.2298temperature offset calibration	0.9911default loss term (dB/km)	0.3790temperature slope calibration	1.0000multiplexer offset coefficient	1.0000multiplexer slope coefficient	1.0000fibre end	0.00T internal ref (°C)	37.62T ext. ref 1 (°C)	-0.37T ext. ref 2 (°C)	32.30length (m)	temperature (°C)	Stokes	anti-Stokes-747.200	701.847	-0.090	0.241
-746.185	-118.503	-0.191	0.035
-745.171	-200.000	-0.024	0.248
-744.156	49.223	0.202	0.194
-743.142	-40.011	-0.096	0.051
-742.127	657.096	0.103	0.271
-741.112	-109.574	0.225	0.049
-740.098	59.014	0.149	0.149
-739.083	800.000	-0.072	0.231
-738.069	6.503	-0.094	0.071
-737.054	-85.627	0.114	0.036
-736.039	-200.000	-0.064	0.371
-735.025	273.503	-0.024	-0.043
-734.010	239.604	-0.164	-0.279
-732.996	-161.800	-0.596	0.031
-731.981	-200.000	0.019	-0.203
-730.966	292.861	-0.209	-0.389
-729.952	-72.137	-0.101	0.038
-728.937	-113.154	0.278	-0.056
-727.923	558.236	0.129	0.317
-726.908	-200.000	-0.030	-0.240
-725.894	800.000	-0.082	-0.265
-724.879	53.270	-0.229	-0.224
-723.864	187.498	0.091	-0.139
-722.850	-18.682	-0.012	-0.008
-721.835	-6.953	-0.061	-0.042
-720.821	-90.710	-0.125	-0.037
-719.806	-87.010	-0.264	-0.082
-718.791	32.382	0.160	0.141
-717.777	-60.182	-0.277	-0.120
-716.762	603.562	-0.020	0.052
-715.748	293.598	-0.154	-0.287
-714.733	154.091	0.014	-0.019
-713.718	-44.600	0.227	-0.116
-712.704	-26.289	-0.189	-0.113
-711.689	-10.530	0.151	-0.102
-710.675	116.945	-0.265	-0.332
-709.660	532.748	0.143	-0.344
-708.645	-200.000	-0.011	-0.156
-707.631	-200.000	-0.009	0.042
-706.616	-200.000	0.032	0.241
-705.602	-2.220	0.098	0.070
-704.587	-18.833	0.127	-0.081
-703.572	-67.548	-0.095	0.038
-702.558	247.946	-0.146	-0.252
-701.543	-200.000	-0.041	0.216
-700.529	-32.243	0.147	-0.084
-699.514	-95.683	0.229	-0.062
-698.499	-8.376	-0.225	-0.154
-697.485	-34.830	0.333	-0.185
-696.470	800.000	0.063	-0.219
-695.456	-109.765	-0.287	-0.062
-694.441	40.187	-0.187	-0.172
-693.426	-4.480	-0.024	-0.017
-692.412	181.187	-0.139	-0.208
-691.397	198.440	-0.168	0.261
-690.383	-200.000	0.031	0.194
-689.368	37.700	0.135	-0.122
-688.354	800.000	0.140	-0.523
-687.339	617.595	0.103	-0.264
-686.324	81.556	0.168	0.185
-685.310	-22.886	-0.301	0.185
-684.295	92.123	-0.024	0.027
-683.281	213.714	0.127	-0.205
-682.266	-98.372	-0.209	0.055
-681.251	-56.584	-0.272	0.123
-680.237	-76.632	-0.030	0.011
-679.222	-200.000	0.008	0.270
-678.208	344.382	0.166	-0.331
-677.193	800.000	-0.045	-0.174
-676.178	-46.669	0.038	0.019
-675.164	280.126	-0.184	-0.336
-674.149	-200.000	-0.031	-0.221
-673.135	323.253	-0.045	0.087
-672.120	-43.294	0.109	-0.056
-671.105	-200.000	-0.034	-0.255
-670.091	-200.000	-0.010	0.102
-669.076	-14.539	0.021	0.014
-668.062	-96.059	0.257	0.070
-667.047	-102.546	-0.098	-0.024
-666.032	800.000	0.063	-0.184
-665.018	-150.831	-0.065	-0.005
-664.003	-200.000	-0.029	-0.322
-662.989	-63.068	-0.102	-0.043
-661.974	103.246	-0.071	-0.084
-660.959	79.910	0.046	0.050
-659.945	235.833	0.071	-0.120
-658.930	-154.307	-0.126	-0.009
-657.916	-140.015	-0.186	-0.020
-656.901	598.283	0.033	0.082
-655.886	-200.000	-0.008	-0.300
-654.872	-59.813	-0.146	0.063
-653.857	-113.650	-0.146	0.029
-652.843	-200.000	0.001	-0.067
-651.828	-79.296	0.205	0.071
-650.814	-200.000	0.004	0.173
-649.799	-77.934	-0.389	-0.137
-648.784	800.000	0.100	0.301
-647.770	191.196	-0.086	-0.131
-646.755	11.010	-0.106	0.083
-645.741	-178.350	0.229	-0.005
-644.726	800.000	0.059	-0.207
-643.711	343.708	-0.015	-0.031
-642.697	-200.000	-0.036	-0.166
-641.682	-32.373	0.144	-0.082
-640.668	-200.000	0.022	-0.354
-639.653	495.843	0.146	-0.340
-638.638	-11.739	0.069	-0.046
-637.624	-16.155	-0.134	-0.087
-636.609	-4.255	-0.153	-0.108
-635.595	123.115	0.271	-0.345
-634.580	-200.000	0.001	0.216
-633.565	425.381	-0.154	0.337
-632.551	60.691	0.287	-0.289
-631.536	-200.000	-0.075	-0.423
-630.522	157.454	0.225	-0.317
-629.507	-200.000	0.011	-0.075
-628.492	-200.000	-0.020	-0.177
-627.478	56.175	-0.134	-0.133
-626.463	-42.943	-0.099	0.051
-625.449	800.000	0.073	-0.228
-624.434	-31.651	0.321	-0.183
-623.419	-200.000	0.027	0.338
-622.405	65.248	0.109	-0.112
-621.390	-36.551	0.143	-0.078
-620.376	-43.007	-0.417	0.215
-619.361	-200.000	0.009	0.174
-618.346	242.418	-0.204	-0.347
-617.332	231.843	-0.100	-0.167
-616.317	-50.738	0.368	-0.176
-615.303	-125.130	0.218	0.034
-614.288	-200.000	0.004	0.148
-613.273	-99.916	0.294	-0.075
-612.259	24.903	-0.133	-0.112
-611.244	-95.011	0.195	0.054
-610.230	468.125	0.059	-0.135
-609.215	-46.215	0.317	0.158
-608.201	-200.000	0.021	-0.226
-607.186	800.000	0.069	0.208
-606.171	310.866	-0.059	-0.112
-605.157	-42.391	-0.330	0.171
-604.142	-165.051	-0.227	0.010
-603.128	-157.226	0.088	0.005
-602.113	-18.015	-0.419	-0.267
-601.098	406.605	-0.049	-0.105
-600.084	1.795	-0.295	-0.215
-599.069	-135.883	-0.161	0.019
-598.055	184.691	-0.086	-0.129
-597.040	-100.985	0.223	-0.056
-596.025	386.097	-0.117	-0.246
-595.011	693.978	-0.090	0.240
-593.996	-104.337	0.471	0.111
-592.982	-40.419	0.125	-0.066
-591.967	-81.604	0.238	-0.079
-590.952	0.946	-0.316	-0.230
-589.938	163.414	-0.262	-0.374
-588.923	-57.770	-0.098	0.043
-587.909	-86.610	0.214	-0.066
-586.894	800.000	-0.084	-0.259
-585.879	-8.735	0.078	-0.053
-584.865	2.087	0.248	-0.181
-583.850	65.922	0.399	-0.410
-582.836	5.210	-0.132	0.099
-581.821	-200.000	-0.002	-0.278
-580.806	507.699	-0.012	0.029
-579.792	-32.026	-0.219	0.125
-578.777	-200.000	0.031	0.214
-577.763	-83.325	-0.337	-0.110
-576.748	-89.322	-0.123	0.037
-575.733	-123.153	0.353	-0.057
-574.719	594.098	-0.091	-0.228
-573.704	-48.213	0.292	-0.143
-572.690	-80.039	0.201	-0.068
-571.675	-1.549	-0.262	0.187
-570.661	42.839	-0.184	0.170
-569.646	780.371	0.090	0.251
-568.631	-156.761	0.331	-0.021
-567.617	238.707	-0.025	0.042
-566.602	50.535	-0.375	-0.360
-565.588	-40.579	0.091	0.048
-564.573	-14.050	0.098	-0.064
-563.558	-200.000	0.004	0.258
-562.544	-30.863	-0.283	0.162
-561.529	-23.745	-0.013	-0.008
-560.515	-72.871	-0.309	0.115
-559.500	-12.010	0.319	0.212
-558.485	-23.675	0.092	-0.056
-557.471	-116.085	0.181	0.034
-556.456	517.558	-0.100	0.237
-555.442	-52.177	-0.450	-0.211
-554.427	-106.259	0.322	-0.073
-553.412	-56.904	-0.073	-0.033
-552.398	-200.000	0.025	0.216
-551.383	-11.998	-0.033	-0.022
-550.369	-10.491	0.261	-0.175
-549.354	-200.000	-0.011	0.363
-548.339	-33.078	-0.091	0.051
-547.325	-185.722	0.127	-0.002
-546.310	92.709	0.140	0.160
-545.296	-79.867	-0.315	-0.107
-544.281	644.660	0.170	0.439
-543.266	800.000	-0.054	-0.180
-542.252	-50.870	-0.143	-0.068
-541.237	-151.035	0.117	-0.009
-540.223	-200.000	-0.018	0.285
-539.208	-125.854	0.154	-0.024
-538.193	83.066	-0.167	0.184
-537.179	-108.441	-0.282	-0.062
-536.164	800.000	-0.068	0.213
-535.150	-200.000	-0.034	0.334
-534.135	334.188	-0.136	0.266
-533.121	-200.000	0.020	-0.099
-532.106	-16.945	-0.155	0.099
-531.091	111.261	-0.098	0.120
-530.077	800.000	0.046	-0.137
-529.062	-70.329	0.361	0.139
-528.048	643.694	-0.101	-0.261
-527.033	56.944	0.108	-0.107
-526.018	800.000	-0.055	-0.198
-525.004	311.967	-0.045	-0.086
-523.989	-26.678	0.237	-0.141
-522.975	-188.268	0.185	0.002
-521.960	-167.261	0.186	0.008
-520.945	173.731	-0.126	0.184
-519.931	-18.218	0.111	-0.070
-518.916	25.825	-0.314	0.265
-517.902	800.000	0.093	0.397
-516.887	350.257	0.075	-0.150
-515.872	374.018	-0.083	0.170
-514.858	424.380	-0.122	0.266
-513.843	-43.766	-0.177	-0.090
-512.829	-26.138	0.136	-0.081
-511.814	-13.953	-0.095	-0.062
-510.799	-84.786	0.039	-0.012
-509.785	-42.661	-0.290	-0.149
-508.770	-64.169	-0.091	0.037
-507.756	25.271	0.052	0.044
-506.741	-82.568	-0.082	0.027
-505.726	237.246	0.019	-0.031
-504.712	109.597	0.129	0.157
-503.697	-92.768	-0.420	0.119
-502.683	211.776	-0.100	-0.159
-501.668	88.799	-0.183	-0.206
-500.653	-200.000	-0.008	0.157
-499.639	-200.000	0.701	-0.001
-498.624	213.373	0.120	-0.192
-497.610	216.261	0.018	0.029
-496.595	-1.175	-0.273	-0.195
-495.581	-200.000	-0.045	-0.279
-494.566	800.000	-0.056	-0.217
-493.551	-73.609	-0.352	0.130
-492.537	800.000	-0.116	0.356
-491.522	-162.835	0.185	0.009
-490.508	800.000	-0.031	0.120
-489.493	118.137	0.187	-0.232
-488.478	-71.180	-0.223	0.085
-487.464	13.108	0.135	0.105
-486.449	158.760	-0.060	0.084
-485.435	-200.000	0.020	0.101
-484.420	-134.029	0.055	-0.007
-483.405	4.828	0.145	-0.108
-482.391	-166.227	0.073	0.003
-481.376	-177.870	-0.353	-0.009
-480.362	-16.738	0.106	-0.068
-479.347	-141.620	0.071	-0.007
-478.332	155.401	-0.124	-0.172
-477.318	-200.000	-0.036	0.346
-476.303	-67.047	-0.209	-0.083
-475.289	100.756	-0.151	-0.177
-474.274	-105.814	-0.203	-0.046
-473.259	-174.841	0.113	-0.003
-472.245	-138.727	-0.210	-0.023
-471.230	-200.000	-0.016	0.153
-470.216	393.726	-0.098	-0.207
-469.201	144.887	0.032	0.043
-468.186	-102.929	0.363	-0.087
-467.172	585.357	0.136	0.339
-466.157	-123.524	-0.198	0.032
-465.143	-200.000	-0.017	0.306
-464.128	-200.000	0.024	0.125
-463.113	-200.000	-0.016	0.294
-462.099	-132.206	-0.042	-0.005
-461.084	-145.426	0.353	0.032
-460.070	-105.476	-0.339	-0.078
-459.055	-129.435	-0.055	0.008
-458.040	-121.174	0.254	-0.043
-457.026	-200.000	0.001	-0.149
-456.011	-198.118	-0.101	-0.001
-454.997	-200.000	0.012	0.277
-453.982	28.637	0.050	-0.043
-452.968	-49.642	-0.226	-0.109
-451.953	164.207	-0.193	-0.275
-450.938	-117.242	-0.200	-0.037
-449.924	-200.000	0.044	-0.301
-448.909	-66.844	0.297	-0.119
-447.895	172.357	0.241	0.350
-446.880	359.580	0.058	-0.118
-445.865	-200.000	0.000	0.169
-444.851	-137.011	-0.461	0.053
-443.836	-73.960	-0.186	-0.068
-442.822	-200.000	0.021	0.369
-441.807	-14.294	0.240	0.156
-440.792	800.000	0.053	0.193
-439.778	306.061	0.062	-0.117
-438.763	800.000	0.037	0.119
-437.749	9.505	-0.146	0.112
-436.734	-31.506	0.325	-0.184
-435.719	281.964	-0.095	-0.173
-434.705	-89.145	0.208	-0.062
-433.690	-71.600	-0.116	0.044
-432.676	36.877	-0.181	0.161
-431.661	-3.206	0.136	-0.096
-430.646	97.639	0.079	0.092
-429.632	-200.000	0.024	0.239
-428.617	-113.711	0.084	0.017
-427.603	-157.867	-0.047	0.003
-426.588	-200.000	-0.004	-0.340
-425.573	-96.311	-0.085	0.023
-424.559	-200.000	0.016	-0.106
-423.544	-138.630	-0.259	-0.029
-422.530	17.586	-0.180	-0.144
-421.515	-116.054	0.340	-0.064
-420.500	-48.309	0.237	-0.115
-419.486	-106.241	0.309	0.070
-418.471	-110.250	-0.399	-0.084
-417.457	-200.000	-0.036	0.220
-416.442	183.881	-0.143	0.213
-415.428	-113.642	0.100	-0.020
-414.413	-46.165	-0.232	-0.115
-413.398	94.311	0.082	-0.094
-412.384	346.773	-0.093	-0.184
-411.369	-116.586	-0.039	0.007
-410.355	-178.438	0.230	0.005
-409.340	-158.790	-0.067	0.004
-408.325	-94.079	0.104	0.029
-407.311	90.523	-0.137	0.154
-406.296	517.482	-0.064	0.152
-405.282	304.801	-0.149	-0.278
-404.267	-43.354	-0.149	-0.076
-403.252	33.065	-0.200	0.174
-402.238	800.000	-0.023	0.077
-401.223	-11.697	0.329	-0.218
-400.209	-120.536	-0.161	0.027
-399.194	556.656	-0.101	0.245
-398.179	-25.273	-0.275	-0.164
-397.165	652.378	0.111	0.287
-396.150	-200.000	0.024	-0.120
-395.136	-200.000	-0.035	0.236
-394.121	-59.327	0.192	0.083
-393.106	-200.000	0.028	-0.173
-392.092	42.604	0.209	-0.191
-391.077	243.044	0.019	0.032
-390.063	-200.000	-0.033	0.311
-389.048	-200.000	0.003	0.084
-388.033	-8.412	-0.344	-0.233
-387.019	739.917	-0.067	-0.180
-386.004	201.543	0.113	0.175
-384.990	125.981	0.090	-0.115
-383.975	89.796	0.108	-0.122
-382.960	-43.430	0.235	-0.120
-381.946	-70.173	0.095	0.036
-380.931	-123.476	-0.102	-0.016
-379.917	-51.856	-0.126	0.059
-378.902	-86.888	0.291	-0.089
-377.888	-200.000	-0.038	-0.168
-376.873	-94.386	-0.167	0.046
-375.858	59.812	0.175	0.174
-374.844	12.853	0.122	-0.095
-373.829	239.771	0.060	0.100
-372.815	-200.000	0.048	-0.252
-371.800	15.040	0.205	-0.161
-370.785	-168.577	-0.449	-0.017
-369.771	-152.679	-0.212	0.015
-368.756	245.711	-0.083	-0.140
-367.742	554.325	-0.169	-0.408
-366.727	-19.161	0.202	0.126
-365.712	-37.484	0.245	-0.131
-364.698	-8.387	0.260	0.176
-363.683	-30.020	-0.084	-0.048
-362.669	-171.403	-0.402	-0.013
-361.654	118.095	-0.293	0.364
-360.639	119.990	0.203	0.254
-359.625	44.954	0.155	-0.144
-358.610	207.918	-0.153	0.240
-357.596	800.000	-0.079	0.219
-356.581	317.026	0.055	0.105
-355.566	26.443	0.163	-0.137
-354.552	-200.000	-0.044	0.196
-353.537	203.368	0.134	0.208
-352.523	-142.181	0.405	-0.040
-351.508	800.000	0.119	-0.354
-350.493	-151.505	-0.169	-0.013
-349.479	103.986	-0.182	0.215
-348.464	157.965	0.095	0.132
-347.450	208.484	-0.075	-0.117
-346.435	131.239	-0.317	0.409
-345.420	218.813	0.121	0.194
-344.406	-128.950	-0.170	-0.024
-343.391	108.612	0.097	-0.116
-342.377	25.173	0.147	-0.122
-341.362	-97.202	-0.062	0.016
-340.348	434.696	-0.127	-0.277
-339.333	95.627	-0.252	-0.289
-338.318	36.810	-0.123	0.109
-337.304	216.185	-0.147	0.234
-336.289	253.202	0.177	-0.303
-335.275	324.829	-0.061	0.117
-334.260	-27.632	0.108	-0.063
-333.245	-72.423	0.282	0.105
-332.231	-162.195	-0.071	0.004
-331.216	-120.351	0.235	-0.040
-330.202	145.417	-0.078	0.105
-329.187	210.231	-0.040	0.064
-328.172	800.000	0.127	-0.377
-327.158	800.000	0.083	0.318
-326.143	800.000	0.056	-0.221
-325.129	115.615	-0.234	0.287
-324.114	638.868	0.059	-0.152
-323.099	142.325	0.085	0.113
-322.085	702.421	-0.113	-0.299
-321.070	-180.105	-0.193	-0.004
-320.056	-172.687	0.052	-0.002
-319.041	-23.751	-0.188	0.113
-318.026	-119.590	-0.091	-0.016
-317.012	-200.000	-0.023	0.238
-315.997	-75.748	0.280	0.100
-314.983	-200.000	0.086	-0.399
-313.968	-22.098	0.440	-0.268
-312.953	216.234	0.037	0.059
-311.939	-180.000	-0.188	-0.004
-310.924	42.844	0.164	-0.150
-309.910	-71.412	-0.078	-0.029
-308.895	26.089	-0.175	0.146
-307.880	138.882	0.101	0.134
-306.866	-13.372	0.461	0.300
-305.851	-104.252	0.119	-0.028
-304.837	7.999	-0.144	0.108
-303.822	-53.451	0.250	0.115
-302.807	-82.762	0.324	-0.105
-301.793	-46.642	-0.080	0.039
-300.778	-200.000	0.014	-0.129
-299.764	-84.031	0.048	0.015
-298.749	-200.000	-0.013	-0.156
-297.735	-200.000	-0.005	-0.037
-296.720	-200.000	-0.030	-0.285
-295.705	65.045	0.168	-0.170
-294.691	-41.988	-0.092	0.047
-293.676	-200.000	0.040	0.410
-292.662	-200.000	0.038	-0.219
-291.647	-64.642	0.185	-0.075
-290.632	-63.221	0.120	-0.049
-289.618	113.264	0.088	-0.107
-288.603	184.815	0.160	-0.238
-287.589	-200.000	0.007	0.153
-286.574	-129.116	-0.226	-0.032
-285.559	745.424	-0.100	0.270
-284.545	-145.514	0.267	0.024
-283.530	-200.000	0.054	0.384
-282.516	113.490	0.211	0.257
-281.501	122.341	0.127	0.160
-280.486	-19.629	-0.151	0.094
-279.472	148.291	-0.131	0.177
-278.457	-138.371	0.074	0.008
-277.443	-200.000	0.018	0.093
-276.428	15.746	0.073	-0.057
-275.413	-3.038	0.202	0.141
-274.399	-122.164	0.199	-0.033
-273.384	-200.000	-0.028	0.361
-272.370	53.262	-0.115	-0.111
-271.355	-111.572	-0.205	0.042
-270.340	6.906	-0.088	-0.065
-269.326	-94.402	0.183	0.050
-268.311	-200.000	-0.035	-0.185
-267.297	-103.291	0.041	0.010
-266.282	-200.000	-0.026	0.242
-265.267	422.377	-0.077	0.165
-264.253	-200.000	-0.031	0.141
-263.238	200.010	0.082	0.126
-262.224	-200.000	0.024	-0.293
-261.209	-92.235	-0.066	-0.019
-260.195	23.495	0.236	-0.195
-259.180	-148.946	-0.352	0.028
-258.165	134.171	0.080	0.103
-257.151	41.115	-0.134	0.121
-256.136	8.544	-0.140	0.105
-255.122	-200.000	0.007	-0.133
-254.107	87.453	-0.196	-0.217
-253.092	602.114	-0.052	-0.128
-252.078	-200.000	0.287	-0.001
-251.063	182.245	0.237	0.350
-250.049	54.597	0.153	0.148
-249.034	109.114	0.220	0.264
-248.019	106.120	-0.381	-0.452
-247.005	-131.959	-0.143	0.019
-245.990	54.256	0.085	0.082
-244.976	487.946	0.114	0.261
-243.961	-15.793	0.241	0.154
-242.946	-50.901	0.148	0.069
-241.932	-200.000	-0.032	-0.155
-240.917	227.087	-0.095	-0.155
-239.903	-122.633	0.283	0.046
-238.888	-78.336	0.063	0.022
-237.873	-62.780	0.239	0.099
-236.859	800.000	-0.040	-0.170
-235.844	68.556	-0.085	-0.087
-234.830	-200.000	-0.001	0.442
-233.815	3.028	0.191	-0.139
-232.800	-200.000	0.001	0.015
-231.786	11.995	-0.058	0.045
-230.771	123.033	0.155	0.195
-229.757	-167.475	-0.465	-0.019
-228.742	-61.207	-0.133	0.056
-227.727	-129.360	-0.203	-0.028
-226.713	-65.034	-0.139	-0.056
-225.698	-59.636	-0.493	0.211
-224.684	410.710	-0.158	0.335
-223.669	-200.000	-0.084	0.000
-222.655	-135.812	0.090	0.011
-221.640	-14.931	0.269	-0.172
-220.625	-200.000	-0.015	0.128
-219.611	-125.948	-0.033	-0.005
-218.596	-75.759	-0.202	-0.071
-217.582	3.047	0.139	-0.101
-216.567	800.000	0.133	-0.374
-215.552	-16.134	-0.243	0.154
-214.538	37.836	0.309	-0.275
-213.523	-200.000	-0.000	-0.316
-212.509	-9.225	0.149	-0.100
-211.494	-200.000	-0.035	0.374
-210.479	-200.000	-0.002	-0.067
-209.465	-92.123	-0.231	0.065
-208.450	-48.437	-0.095	-0.046
-207.436	-27.887	-0.278	-0.161
-206.421	605.021	-0.099	-0.247
-205.406	-141.053	-0.326	-0.033
-204.392	-48.330	-0.223	0.108
-203.377	129.254	-0.121	0.155
-202.363	-0.721	-0.185	0.131
-201.348	-150.477	-0.129	-0.010
-200.333	26.906	-0.164	0.137
-199.319	98.208	0.065	-0.075
-198.304	-78.008	0.478	-0.165
-197.290	213.516	0.090	0.142
-196.275	-71.445	0.095	0.035
-195.260	-154.721	0.229	0.015
-194.246	285.887	-0.103	-0.186
-193.231	-35.131	-0.117	0.064
-192.217	115.732	0.198	0.242
-191.202	-45.985	0.520	-0.256
-190.187	-200.000	-0.049	0.226
-189.173	22.299	0.178	-0.145
-188.158	546.249	-0.048	0.114
-187.144	-200.000	-0.038	-0.289
-186.129	3.624	-0.146	-0.107
-185.114	-69.971	-0.058	-0.022
-184.100	67.025	0.170	-0.172
-183.085	201.014	0.085	0.130
-182.071	800.000	-0.038	0.128
-181.056	-15.401	0.065	-0.041
-180.042	2.565	-0.051	0.037
-179.027	-19.570	-0.274	0.169
-178.012	-131.243	-0.335	0.044
-176.998	-114.202	0.163	0.031
-175.983	-200.000	0.008	0.083
-174.969	-17.323	0.099	0.062
-173.954	800.000	0.052	0.173
-172.939	12.906	0.134	-0.104
-171.925	-88.889	-0.148	0.044
-170.910	-94.932	0.409	-0.111
-169.896	33.301	0.226	0.196
-168.881	-86.347	0.147	0.045
-167.866	-66.474	0.016	-0.006
-166.852	-200.000	0.003	-0.091
-165.837	-27.303	-0.341	-0.198
-164.823	-17.575	0.192	0.120
-163.808	110.434	-0.023	-0.028
-162.793	577.709	-0.137	0.335
-161.779	226.142	-0.106	0.172
-160.764	800.000	-0.080	0.237
-159.750	228.517	-0.007	0.012
-158.735	110.667	-0.180	-0.215
-157.720	99.731	0.050	-0.057
-156.706	-183.340	-0.377	0.007
-155.691	304.414	0.162	-0.301
-154.677	63.995	-0.047	-0.047
-153.662	800.000	0.007	-0.027
-152.647	-82.556	-0.198	-0.064
-151.633	-200.000	0.016	0.175
-150.618	-200.000	-0.068	-0.344
-149.604	409.771	0.121	-0.255
-148.589	-33.675	0.183	-0.101
-147.574	-200.000	0.017	-0.237
-146.560	-19.006	0.113	-0.070
-145.545	800.000	-0.089	-0.261
-144.531	-30.464	0.084	0.048
-143.516	-156.085	-0.155	0.010
-142.502	397.739	-0.061	0.127
-141.487	-200.000	0.039	0.246
-140.472	271.088	0.162	-0.284
-139.458	216.100	0.089	0.141
-138.443	55.681	0.169	0.163
-137.429	-93.712	-0.239	-0.066
-136.414	-161.362	-0.173	0.009
-135.399	-71.354	0.359	0.134
-134.385	-157.990	0.253	0.015
-133.370	236.372	0.155	0.255
-132.356	154.763	0.170	-0.232
-131.341	341.340	-0.020	0.038
-130.326	-200.000	0.043	-0.193
-129.312	45.697	-0.248	0.228
-128.297	-150.498	-0.032	0.002
-127.283	-137.584	-0.025	0.003
-126.268	192.976	-0.125	0.188
-125.253	-87.682	-0.274	-0.082
-124.239	-135.429	0.344	-0.041
-123.224	-200.000	0.034	-0.327
-122.210	-200.000	0.016	-0.335
-121.195	-3.271	0.149	-0.104
-120.180	-107.379	-0.243	-0.053
-119.166	726.649	-0.091	0.241
-118.151	-200.000	0.005	-0.268
-117.137	-195.650	0.164	0.001
-116.122	-123.478	-0.368	-0.058
-115.107	302.219	0.126	-0.232
-114.093	-56.037	0.093	0.041
-113.078	197.044	-0.036	0.054
-112.064	179.248	0.126	0.184
-111.049	-144.730	0.298	-0.027
-110.034	-199.177	0.287	0.002
-109.020	-200.000	0.022	0.147
-108.005	-96.146	0.170	0.045
-106.991	-53.528	-0.085	0.039
-105.976	-170.663	-0.230	0.008
-104.962	-85.615	0.360	0.111
-103.947	800.000	0.064	0.214
-102.932	-85.931	0.158	0.049
-101.918	254.499	-0.289	-0.492
-100.903	-200.000	-0.025	-0.157
-99.889	91.009	0.162	-0.181
-98.874	-40.325	-0.072	0.037
-97.859	-133.701	-0.238	0.030
-96.845	-95.312	-0.106	0.028
-95.830	-39.514	0.157	0.082
-94.816	-142.378	0.041	0.004
-93.801	270.934	0.102	0.179
-92.786	67.367	0.164	0.166
-91.772	-200.000	-0.042	0.452
-90.757	800.000	-0.054	0.155
-89.743	-101.156	0.333	-0.081
-88.728	-83.792	-0.429	0.136
-87.713	148.549	0.022	0.030
-86.699	-60.099	0.230	0.098
-85.684	220.588	0.066	-0.105
-84.670	153.044	0.204	-0.277
-83.655	800.000	0.022	-0.065
-82.640	-200.000	0.069	0.326
-81.626	-172.668	-0.264	-0.008
-80.611	-122.758	0.367	-0.059
-79.597	-94.004	0.210	0.057
-78.582	-5.423	-0.095	0.065
-77.567	335.836	0.069	-0.133
-76.553	59.051	0.206	-0.201
-75.538	-200.000	-0.042	0.222
-74.524	-69.583	-0.365	-0.139
-73.509	12.630	-0.073	-0.056
-72.494	-152.113	0.209	0.015
-71.480	-200.000	0.047	0.322
-70.465	285.797	0.076	-0.136
-69.451	-151.019	-0.261	-0.020
-68.436	-200.000	0.036	-0.192
-67.422	-200.000	0.052	0.284
-66.407	660.478	-0.161	-0.413
-65.392	-92.498	0.190	0.053
-64.378	-103.254	0.481	0.113
-63.363	-100.966	-0.136	-0.033
-62.349	-20.689	-0.154	-0.094
-61.334	11.045	-0.559	-0.425
-60.319	-200.000	0.076	0.407
-59.305	348.258	-0.244	-0.477
-58.290	23.560	0.697	0.570
-57.276	453.031	0.709	1.558
-56.261	-200.000	85.460	506.197
-55.246	556.256	1375.209	3291.461
-54.232	180.409	2624.961	3826.600
-53.217	118.425	2271.991	2785.271
-52.203	47.432	1800.324	1666.934
-51.188	40.691	1606.104	1438.416
-50.173	38.242	1578.762	1396.403
-49.159	54.670	1622.065	1553.914
-48.144	58.611	1641.587	1601.083
-47.130	41.258	1601.211	1437.906
-46.115	37.770	1587.232	1400.279
-45.100	37.813	1582.880	1396.689
-44.086	37.561	1581.860	1393.928
-43.071	37.659	1579.310	1392.329
-42.057	37.559	1577.865	1390.290
-41.042	37.580	1576.284	1388.990
-40.027	37.568	1574.880	1387.612
-39.013	37.612	1573.063	1386.266
-37.998	37.523	1572.008	1384.650
-36.984	37.588	1570.628	1383.841
-35.969	37.695	1569.152	1383.243
-34.954	37.646	1567.773	1381.631
-33.940	37.600	1566.723	1380.323
-32.925	37.721	1564.726	1379.363
-31.911	37.700	1563.667	1378.229
-30.896	37.811	1561.935	1377.432
-29.881	37.701	1561.342	1376.074
-28.867	37.714	1559.374	1374.379
-27.852	37.624	1558.145	1372.603
-26.838	37.638	1556.744	1371.415
-25.823	37.756	1554.113	1369.876
-24.809	37.596	1553.292	1367.973
-23.794	37.671	1551.569	1366.926
-22.779	37.627	1550.572	1365.682
-21.765	37.687	1549.261	1364.894
-20.750	37.595	1548.283	1363.336
-19.736	37.739	1546.528	1362.742
-18.721	37.641	1546.052	1361.584
-17.706	37.565	1544.338	1359.491
-16.692	37.610	1543.200	1358.751
-15.677	37.624	1542.244	1357.952
-14.663	37.617	1541.197	1356.924
-13.648	37.589	1540.211	1355.811
-12.633	37.528	1539.440	1354.656
-11.619	37.600	1538.273	1354.073
-10.604	37.593	1537.536	1353.318
-9.590	37.579	1536.455	1352.220
-8.575	37.603	1535.630	1351.606
-7.560	37.616	1534.818	1350.929
-6.546	37.509	1534.223	1349.608
-5.531	37.584	1532.946	1348.951
-4.517	37.588	1532.037	1348.124
-3.502	37.541	1530.685	1346.560
-2.487	37.561	1529.917	1345.969
-1.473	37.554	1529.076	1345.126
-0.458	37.566	1527.345	1343.632
0.556	35.265	1517.924	1333.326
1.571	32.586	1489.310	1289.763
2.586	28.822	1423.579	1208.041
3.600	26.854	1337.062	1122.358
4.615	25.101	1289.632	1071.975
5.629	20.965	1230.435	999.032
6.644	9.971	1138.004	865.314
7.659	1.334	1090.841	784.873
8.673	-0.145	1085.010	773.003
9.688	-0.411	1082.100	769.495
10.702	-0.361	1079.930	768.140
11.717	-0.572	1078.414	765.914
12.731	2.635	1082.412	785.134
13.746	12.056	1096.149	843.712
14.761	17.532	1102.644	876.912
15.775	16.424	1099.773	868.857
16.790	15.637	1098.353	863.617
17.804	15.448	1097.318	861.754
18.819	15.147	1096.346	859.373
19.834	15.032	1095.964	858.407
20.848	15.110	1095.106	858.056
21.863	15.091	1094.203	857.175
22.877	14.942	1094.109	856.266
23.892	14.939	1092.813	855.158
24.907	14.898	1092.209	854.400
25.921	14.903	1091.728	853.974
26.936	15.003	1091.067	853.892
27.950	15.167	1089.510	853.433
28.965	15.049	1088.056	851.620
29.980	14.992	1086.711	850.201
30.994	14.873	1084.965	848.160
32.009	15.048	1083.974	848.197
33.023	15.086	1082.831	847.420
34.038	14.923	1081.714	845.643
35.053	14.941	1080.734	844.895
36.067	15.141	1079.996	845.253
37.082	15.163	1079.189	844.659
38.096	15.131	1078.989	844.267
39.111	15.179	1077.917	843.590
40.126	15.328	1076.647	843.275
41.140	15.279	1075.146	841.776
42.155	15.098	1074.021	839.914
43.169	14.972	1072.918	838.345
44.184	15.031	1071.651	837.576
45.199	15.017	1070.494	836.529
46.213	14.930	1068.901	834.774
47.228	14.901	1068.443	834.200
48.242	14.775	1067.013	832.379
49.257	14.912	1066.001	832.199
50.271	14.848	1064.939	830.981
51.286	14.968	1063.652	830.495
52.301	14.981	1063.171	830.113
53.315	15.038	1062.102	829.486
54.330	15.036	1061.261	828.745
55.344	15.010	1060.395	827.867
56.359	15.032	1059.436	827.155
57.374	15.012	1058.192	826.012
58.388	14.942	1057.351	824.938
59.403	14.956	1056.504	824.271
60.417	14.968	1055.749	823.672
61.432	14.867	1054.690	822.276
62.447	14.942	1054.028	822.052
63.461	14.884	1053.585	821.351
64.476	15.021	1051.856	820.599
65.490	15.006	1051.144	819.902
66.505	15.004	1050.233	819.108
67.520	14.990	1049.303	818.242
68.534	15.012	1048.500	817.650
69.549	14.997	1047.592	816.797
70.563	14.812	1046.517	814.984
71.578	14.736	1045.849	814.021
72.593	14.920	1044.904	814.107
73.607	14.821	1043.579	812.526
74.622	14.771	1042.811	811.613
75.636	15.130	1041.949	812.611
76.651	14.807	1041.616	810.710
77.666	14.967	1040.040	810.188
78.680	14.793	1039.323	808.717
79.695	14.809	1038.955	808.437
80.709	15.004	1038.108	808.647
81.724	15.023	1037.070	807.860
82.739	15.016	1036.046	806.957
83.753	15.080	1034.895	806.297
84.768	15.062	1034.358	805.723
85.782	15.079	1033.851	805.333
86.797	14.984	1032.817	804.001
87.812	15.176	1031.476	803.808
88.826	15.100	1030.141	802.333
89.841	15.064	1029.372	801.492
90.855	15.058	1028.682	800.854
91.870	15.087	1027.816	800.250
92.884	15.113	1027.026	799.684
93.899	14.936	1026.285	798.195
94.914	14.975	1025.038	797.337
95.928	15.147	1024.369	797.567
96.943	15.179	1023.236	796.767
97.957	15.014	1022.129	795.051
98.972	14.796	1021.392	793.373
99.987	14.696	1019.813	791.602
101.001	14.778	1019.136	791.396
102.016	14.816	1018.852	791.285
103.030	14.890	1018.150	791.020
104.045	14.833	1016.749	789.591
105.060	14.677	1015.565	787.867
106.074	14.629	1013.912	786.288
107.089	14.568	1013.354	785.499
108.103	14.899	1012.711	786.487
109.118	15.135	1011.931	786.920
110.133	15.005	1010.754	785.325
111.147	14.970	1009.478	784.099
112.162	15.093	1008.370	783.746
113.176	14.791	1007.778	781.806
114.191	14.876	1006.330	781.010
115.206	14.826	1005.612	780.149
116.220	14.735	1004.416	778.729
117.235	14.715	1003.386	777.768
118.249	14.860	1002.371	777.586
119.264	14.856	1001.906	777.136
120.279	14.950	1000.217	776.196
121.293	14.889	999.723	775.459
122.308	14.869	999.236	774.920
123.322	14.978	998.330	774.653
124.337	14.921	996.951	773.254
125.352	14.909	995.494	772.001
126.366	14.740	993.841	769.869
127.381	14.358	992.521	767.020
128.395	14.527	991.988	767.319
129.410	15.015	990.987	768.717
130.424	15.159	989.682	768.300
131.439	15.077	988.471	766.914
132.454	14.988	987.889	765.987
133.468	15.182	986.201	765.501
134.483	14.941	985.876	764.078
135.497	15.036	985.099	763.843
136.512	15.130	984.284	763.570
137.527	15.236	983.923	763.708
138.541	15.096	982.580	761.959
139.556	15.283	981.618	761.995
140.570	15.261	980.926	761.291
141.585	15.084	980.313	759.944
142.600	15.002	978.888	758.402
143.614	15.049	978.250	758.052
144.629	14.971	977.456	757.017
145.643	15.362	976.232	757.767
146.658	15.224	975.475	756.490
147.673	15.121	974.528	755.223
148.687	15.097	973.533	754.281
149.702	15.201	972.214	753.657
150.716	15.144	971.223	752.566
151.731	15.020	970.589	751.453
152.746	15.073	969.745	750.970
153.760	15.157	968.998	750.703
154.775	15.332	968.163	750.774
155.789	15.315	967.080	749.793
156.804	15.202	966.511	748.780
157.819	15.252	965.245	747.952
158.833	15.268	964.502	747.384
159.848	15.310	963.581	746.793
160.862	15.310	962.960	746.242
161.877	15.130	961.863	744.528
162.892	15.035	961.497	743.757
163.906	15.287	960.780	744.255
164.921	15.290	959.630	743.310
165.935	15.298	958.230	742.194
166.950	15.364	956.942	741.423
167.964	15.333	956.082	740.556
168.979	15.377	954.681	739.601
169.994	15.190	953.989	738.175
171.008	15.071	953.082	736.882
172.023	15.206	952.034	736.602
173.037	15.326	951.245	736.452
174.052	15.013	950.568	734.489
175.067	14.935	948.868	732.770
176.081	15.046	948.206	732.680
177.096	15.227	947.639	732.968
178.110	15.207	946.880	732.228
179.125	15.010	946.141	730.733
180.140	15.095	944.422	729.710
181.154	15.078	944.136	729.351
182.169	15.053	943.746	728.877
183.183	15.099	942.821	728.297
184.198	15.364	941.775	728.577
185.213	15.377	940.906	727.894
186.227	15.362	940.139	727.174
187.242	15.299	940.352	727.000
188.256	15.355	939.370	726.418
189.271	15.272	938.059	724.983
190.286	15.308	937.291	724.481
191.300	15.245	936.780	723.751
192.315	15.034	935.725	721.959
193.329	14.696	934.341	719.374
194.344	14.543	933.179	717.756
195.359	14.749	933.310	718.677
196.373	15.169	933.279	720.400
197.388	15.266	932.672	720.282
198.402	15.080	932.077	718.963
199.417	14.935	931.103	717.525
200.432	15.023	930.671	717.503
201.446	14.804	929.677	715.738
202.461	14.642	928.630	714.174
203.475	14.639	928.149	713.731
204.490	14.545	927.115	712.469
205.504	13.918	925.241	708.293
206.519	14.371	924.795	709.817
207.534	14.793	925.301	711.942
208.548	14.913	924.078	711.450
209.563	15.097	924.128	712.209
210.577	15.143	923.277	711.682
211.592	15.000	922.558	710.460
212.607	15.207	922.096	710.918
213.621	15.290	921.494	710.746
214.636	15.234	920.321	709.539
215.650	15.344	919.749	709.502
216.665	15.260	919.315	708.750
217.680	15.447	918.520	708.862
218.694	15.399	918.469	708.558
219.709	15.209	916.828	706.428
220.723	14.811	916.498	704.433
221.738	15.041	915.978	704.940
222.753	15.249	915.306	705.238
223.767	15.323	914.308	704.716
224.782	15.312	913.160	703.721
225.796	15.297	912.836	703.347
226.811	15.552	911.685	703.467
227.826	15.183	910.602	701.025
228.840	14.702	909.987	698.479
229.855	14.780	909.033	698.012
230.869	14.917	908.650	698.228
231.884	14.621	907.395	695.967
232.899	14.737	906.449	695.662
233.913	15.206	906.455	697.560
234.928	15.256	906.090	697.424
235.942	15.410	905.148	697.277
236.957	15.445	904.516	696.873
237.972	15.361	903.294	695.520
238.986	15.211	902.690	694.373
240.001	15.343	901.736	694.128
241.015	15.307	901.255	693.545
242.030	15.446	900.158	693.214
243.045	15.417	899.753	692.721
244.059	15.494	899.142	692.504
245.074	15.583	898.839	692.579
246.088	15.524	897.881	691.535
247.103	15.134	896.737	688.990
248.117	15.208	895.552	688.324
249.132	15.502	895.425	689.372
250.147	15.669	894.737	689.466
251.161	15.450	894.178	688.077
252.176	15.609	893.519	688.161
253.190	15.743	892.391	687.778
254.205	15.675	891.810	686.991
255.220	16.041	891.311	688.039
256.234	15.967	890.657	687.172
257.249	15.882	890.219	686.428
258.263	15.634	889.625	684.897
259.278	15.659	888.685	684.214
260.293	15.917	888.022	684.695
261.307	15.983	887.344	684.380
262.322	15.842	886.784	683.315
263.336	15.616	885.869	681.632
264.351	15.346	884.600	679.502
265.366	14.849	882.486	675.807
266.380	14.323	882.018	673.265
267.395	14.868	882.449	675.738
268.409	15.520	882.023	677.985
269.424	15.530	881.159	677.300
270.439	15.581	881.019	677.337
271.453	15.909	879.731	677.610
272.468	15.862	879.524	677.199
273.482	15.833	879.144	676.731
274.497	15.934	878.352	676.465
275.512	15.896	877.069	675.266
276.526	15.367	875.985	672.253
277.541	15.524	875.624	672.546
278.555	15.764	875.225	673.142
279.570	15.504	874.156	671.220
280.585	15.347	873.332	669.901
281.599	15.439	872.528	669.590
282.614	15.739	871.931	670.269
283.628	15.592	870.978	668.891
284.643	15.318	870.423	667.318
285.657	15.638	870.058	668.249
286.672	15.612	869.141	667.385
287.687	15.105	868.574	664.875
288.701	15.471	868.320	666.075
289.716	15.431	867.676	665.365
290.730	15.380	866.891	664.503
291.745	15.275	866.052	663.385
292.760	15.162	865.057	662.117
293.774	15.017	864.474	661.041
294.789	15.700	864.131	663.414
295.803	16.057	864.151	664.780
296.818	16.229	863.382	664.808
297.833	16.387	862.949	665.037
298.847	16.099	861.928	663.057
299.862	15.947	860.972	661.666
300.876	16.011	860.357	661.387
301.891	16.139	859.741	661.358
302.906	16.134	859.164	660.836
303.920	15.751	857.768	658.205
304.935	15.724	857.192	657.597
305.949	15.970	856.841	658.232
306.964	16.031	856.452	658.114
307.979	15.993	855.575	657.234
308.993	16.110	855.173	657.320
310.008	16.277	854.884	657.694
311.022	16.313	854.358	657.368
312.037	16.180	853.630	656.236
313.052	16.162	852.925	655.563
314.066	16.160	852.319	655.033
315.081	15.788	850.979	652.501
316.095	15.202	850.175	649.556
317.110	15.546	850.042	650.731
318.125	16.179	850.074	653.150
319.139	15.913	849.129	651.336
320.154	15.315	848.011	648.113
321.168	15.280	846.779	646.976
322.183	15.593	846.807	648.150
323.197	16.033	846.480	649.538
324.212	16.179	846.190	649.819
325.227	16.332	845.908	650.134
326.241	16.469	845.406	650.220
327.256	16.433	844.967	649.684
328.270	16.330	844.286	648.708
329.285	16.214	843.895	647.905
330.300	16.136	842.850	646.745
331.314	16.091	842.186	646.008
332.329	16.085	841.962	645.757
333.343	16.211	841.226	645.616
334.358	16.368	840.574	645.659
335.373	16.308	839.637	644.652
336.387	16.286	839.438	644.357
337.402	16.430	838.898	644.437
338.416	16.562	838.155	644.314
339.431	16.536	837.095	643.340
340.446	16.346	836.804	642.336
341.460	16.523	836.170	642.468
342.475	16.476	835.588	641.785
343.489	16.188	834.830	640.054
344.504	16.132	834.526	639.549
345.519	16.490	833.919	640.385
346.533	16.575	833.323	640.192
347.548	16.692	832.606	640.028
348.562	16.737	832.471	640.037
349.577	16.666	832.217	639.518
350.592	16.732	831.592	639.231
351.606	16.691	831.076	638.620
352.621	16.837	830.765	638.877
353.635	16.858	830.195	638.463
354.650	16.693	829.868	637.532
355.665	16.520	828.627	635.870
356.679	16.002	827.661	633.128
357.694	15.829	827.161	632.039
358.708	16.111	826.957	632.887
359.723	16.248	826.337	632.869
360.738	16.489	825.674	633.208
361.752	16.867	825.369	634.333
362.767	16.758	825.463	633.942
363.781	16.950	824.907	634.176
364.796	16.940	824.632	633.872
365.810	16.937	824.049	633.357
366.825	17.110	823.739	633.708
367.840	17.027	822.892	632.691
368.854	16.818	822.786	631.775
369.869	16.572	821.474	629.795
370.883	16.706	821.327	630.125
371.898	16.649	820.592	629.294
372.913	16.632	819.396	628.259
373.927	16.374	819.213	627.102
374.942	16.717	818.663	627.899
375.956	16.859	818.511	628.255
376.971	16.901	817.577	627.635
377.986	16.883	817.038	627.103
379.000	16.901	816.734	626.878
380.015	17.006	815.810	626.503
381.029	16.860	815.441	625.623
382.044	16.827	814.810	624.962
383.059	17.042	814.173	625.210
384.073	17.026	813.539	624.611
385.088	17.086	812.894	624.281
386.102	17.067	812.673	623.987
387.117	16.972	812.514	623.459
388.132	17.041	811.837	623.137
389.146	17.032	811.181	622.545
390.161	16.766	810.548	621.031
391.175	16.676	809.957	620.192
392.190	16.712	809.733	620.096
393.205	16.863	809.099	620.111
394.219	16.476	808.106	617.880
395.234	15.674	807.174	614.182
396.248	15.436	806.322	612.613
397.263	15.903	806.560	614.443
398.278	16.937	806.380	618.024
399.292	17.203	806.557	619.074
400.307	17.023	806.251	618.127
401.321	17.048	805.497	617.587
402.336	17.134	805.296	617.689
403.350	17.233	804.898	617.688
404.365	17.391	804.287	617.738
405.380	17.339	804.042	617.309
406.394	17.492	803.234	617.188
407.409	17.519	802.815	616.910
408.423	17.415	802.306	616.087
409.438	17.260	801.787	615.074
410.453	17.418	801.233	615.165
411.467	17.397	801.035	614.883
412.482	17.644	800.484	615.297
413.496	17.588	800.014	614.680
414.511	17.533	799.689	614.179
415.526	17.540	799.347	613.885
416.540	17.577	798.858	613.589
417.555	17.490	798.102	612.641
418.569	17.292	797.424	611.353
419.584	17.267	796.684	610.643
420.599	17.430	796.499	611.033
421.613	150.586	1356.184	1779.152
422.628	130.513	1437.750	1779.303
