DTS Sentinel unit serial number:	SN413079Multiplexer serial number:	ORYXHardware model number:	OX4-SRSoftware version number:	ORYX F/W v4.00 Oryx Data Collector v3.7.2.0data status	okinstallation	princeton_trtdifferential loss correction	single-endedforward channel	channel 3reverse channel	N/Adate	2019/09/12time	11:38:11forward acquisition time	60.00reverse acquisition time	0.00gamma	496.2192k internal	0.2294k external	0.2294temperature offset calibration	1.0041default loss term (dB/km)	0.3790temperature slope calibration	1.0000multiplexer offset coefficient	1.0000multiplexer slope coefficient	1.0000fibre end	0.00T internal ref (°C)	39.56T ext. ref 1 (°C)	1.98T ext. ref 2 (°C)	37.13length (m)	temperature (°C)	Stokes	anti-Stokes-747.200	-200.000	0.015	-0.155
-746.185	-8.730	0.090	0.062
-745.171	235.296	-0.039	0.067
-744.156	49.869	0.155	0.149
-743.142	668.454	0.118	-0.313
-742.127	-96.483	-0.125	0.034
-741.112	-152.433	-0.400	0.029
-740.098	-200.000	0.003	0.265
-739.083	128.538	0.209	-0.273
-738.069	-200.000	0.112	0.000
-737.054	-99.364	0.280	-0.072
-736.039	75.496	0.112	0.121
-735.025	303.915	-0.054	-0.102
-734.010	-47.518	-0.265	-0.132
-732.996	-43.649	0.119	-0.061
-731.981	-117.856	0.357	0.066
-730.966	-200.000	-0.078	-0.384
-729.952	-200.000	0.032	-0.289
-728.937	104.553	-0.028	-0.033
-727.923	200.495	0.107	-0.168
-726.908	309.550	-0.065	0.124
-725.894	166.252	-0.094	0.136
-724.879	676.103	-0.021	0.056
-723.864	-200.000	-0.013	0.079
-722.850	104.629	-0.141	0.170
-721.835	501.188	0.157	-0.369
-720.821	79.627	-0.172	0.188
-719.806	50.538	0.126	-0.122
-718.791	-150.479	-0.327	-0.026
-717.777	237.397	-0.134	-0.228
-716.762	-135.519	-0.193	0.023
-715.748	-40.538	-0.162	0.086
-714.733	-95.328	0.103	0.028
-713.718	36.720	-0.298	0.269
-712.704	165.037	-0.149	-0.215
-711.689	118.537	-0.104	0.132
-710.675	89.734	-0.211	-0.240
-709.660	491.089	0.120	-0.280
-708.645	-200.000	0.103	-0.474
-707.631	-200.000	-0.013	0.098
-706.616	477.120	-0.029	0.068
-705.602	-132.807	-0.325	0.042
-704.587	-200.000	-0.049	0.298
-703.572	86.068	0.158	0.177
-702.558	-186.373	-0.081	-0.001
-701.543	-29.507	0.142	-0.083
-700.529	-154.714	-0.039	0.003
-699.514	-52.677	-0.378	-0.178
-698.499	58.373	-0.223	-0.224
-697.485	-162.451	0.136	-0.007
-696.470	-200.000	-0.047	-0.218
-695.456	-115.487	-0.151	0.029
-694.441	411.545	0.045	0.098
-693.426	800.000	-0.109	0.487
-692.412	-85.585	0.140	0.044
-691.397	-56.897	-0.259	-0.117
-690.383	152.652	-0.012	-0.016
-689.368	-200.000	0.021	-0.233
-688.354	-200.000	-0.001	-0.417
-687.339	393.095	0.094	-0.199
-686.324	229.225	0.025	-0.041
-685.310	-127.968	-0.462	-0.068
-684.295	-90.681	0.087	0.026
-683.281	-143.104	-0.290	-0.029
-682.266	-63.745	0.098	-0.041
-681.251	237.433	-0.057	-0.097
-680.237	358.354	0.058	0.119
-679.222	-27.827	0.433	-0.256
-678.208	148.108	-0.058	-0.080
-677.193	-15.736	0.071	0.046
-676.178	-37.654	0.297	-0.161
-675.164	258.464	0.129	-0.226
-674.149	800.000	0.063	-0.264
-673.135	-200.000	-0.008	-0.504
-672.120	104.667	-0.046	-0.055
-671.105	-200.000	-0.027	0.135
-670.091	-200.000	-0.010	-0.208
-669.076	301.793	-0.041	0.077
-668.062	52.353	0.105	0.102
-667.047	-200.000	-0.007	0.066
-666.032	445.947	0.098	-0.221
-665.018	-94.942	0.207	-0.057
-664.003	-125.739	0.382	-0.059
-662.989	0.069	0.150	0.109
-661.974	-132.590	0.149	0.019
-660.959	8.588	0.228	-0.175
-659.945	-200.000	0.022	0.115
-658.930	277.843	-0.075	-0.136
-657.916	120.442	-0.027	-0.034
-656.901	339.445	0.021	0.042
-655.886	9.259	0.177	-0.137
-654.872	-200.000	0.002	-0.222
-653.857	-72.680	-0.030	-0.011
-652.843	-200.000	0.012	0.577
-651.828	800.000	0.051	-0.152
-650.814	-28.671	-0.226	-0.133
-649.799	-101.536	-0.518	-0.128
-648.784	-33.992	0.198	0.111
-647.770	-55.932	-0.114	0.052
-646.755	12.434	-0.237	-0.186
-645.741	-20.194	0.323	0.203
-644.726	-200.000	0.021	0.262
-643.711	-173.752	-0.240	-0.007
-642.697	-61.020	0.260	0.112
-641.682	800.000	-0.038	0.157
-640.668	44.071	0.155	0.145
-639.653	114.807	0.040	0.050
-638.638	-200.000	0.011	-0.189
-637.624	-119.460	-0.138	0.024
-636.609	318.344	0.147	0.284
-635.595	-200.000	0.050	0.230
-634.580	-69.595	0.364	-0.142
-633.565	-43.991	-0.126	0.065
-632.551	-88.808	0.088	-0.026
-631.536	197.179	0.288	0.447
-630.522	39.314	-0.190	-0.173
-629.507	284.964	0.078	-0.143
-628.492	-74.331	-0.156	-0.057
-627.478	-40.990	-0.139	0.073
-626.463	-111.720	-0.431	0.089
-625.449	-92.696	-0.292	-0.083
-624.434	800.000	0.035	-0.141
-623.419	-23.194	0.238	-0.146
-622.405	406.991	0.035	-0.076
-621.390	112.172	0.113	-0.139
-620.376	-117.285	0.190	-0.035
-619.361	22.447	0.127	0.106
-618.346	-18.458	0.300	-0.191
-617.332	159.064	-0.133	-0.188
-616.317	42.263	-0.204	0.189
-615.303	-85.373	-0.306	0.097
-614.288	-196.640	-0.277	0.002
-613.273	3.161	0.057	0.042
-612.259	-1.930	-0.379	0.272
-611.244	-132.471	-0.112	0.015
-610.230	-200.000	0.015	-0.184
-609.215	-118.620	0.201	-0.036
-608.201	32.861	-0.051	-0.045
-607.186	382.429	0.118	-0.248
-606.171	-69.506	0.236	0.092
-605.157	245.460	-0.188	-0.322
-604.142	-200.000	0.020	-0.116
-603.128	-143.117	-0.594	0.058
-602.113	-200.000	0.073	-0.335
-601.098	-63.830	0.225	-0.093
-600.084	564.803	0.058	-0.142
-599.069	800.000	-0.138	-0.393
-598.055	-79.012	0.111	-0.038
-597.040	-192.028	0.317	-0.003
-596.025	-48.689	-0.057	0.028
-595.011	-27.276	0.088	-0.052
-593.996	-12.619	-0.066	-0.044
-592.982	-54.402	0.154	0.071
-591.967	-86.819	0.235	0.073
-590.952	11.468	0.161	-0.125
-589.938	102.518	-0.208	-0.248
-588.923	-200.000	0.019	-0.087
-587.909	25.207	0.225	0.190
-586.894	-188.826	-0.324	0.004
-585.879	-0.613	-0.255	-0.184
-584.865	-75.275	0.097	0.035
-583.850	-129.926	-0.026	0.004
-582.836	222.662	0.146	-0.239
-581.821	-161.498	-0.316	-0.017
-580.806	700.349	-0.105	0.280
-579.792	-200.000	0.017	0.177
-578.777	-200.000	0.000	0.028
-577.763	-179.064	0.243	-0.006
-576.748	-200.000	0.000	0.074
-575.733	407.799	-0.199	-0.428
-574.719	-15.308	-0.169	-0.110
-573.704	22.386	0.295	-0.245
-572.690	427.949	-0.199	-0.436
-571.675	301.478	-0.039	-0.073
-570.661	557.656	0.033	0.081
-569.646	4.919	-0.073	-0.054
-568.631	-147.621	-0.175	-0.015
-567.617	7.088	0.156	-0.118
-566.602	-200.000	0.050	-0.268
-565.588	-99.366	-0.252	-0.064
-564.573	264.902	-0.141	0.249
-563.558	13.188	-0.310	-0.244
-562.544	-200.000	-0.016	-0.291
-561.529	-46.640	0.107	0.053
-560.515	149.477	-0.151	-0.208
-559.500	-140.167	0.201	-0.021
-558.485	-200.000	0.045	-0.396
-557.471	-121.306	0.117	-0.020
-556.456	38.872	0.220	-0.200
-555.442	610.780	-0.042	0.107
-554.427	-138.257	0.088	-0.010
-553.412	20.206	-0.074	-0.061
-552.398	3.235	-0.303	-0.224
-551.383	112.164	-0.160	0.197
-550.369	-43.541	0.233	-0.120
-549.354	189.080	0.148	-0.225
-548.339	-200.000	0.030	0.174
-547.325	-85.026	0.284	0.090
-546.310	-43.047	-0.224	0.115
-545.296	-143.497	-0.141	0.014
-544.281	-169.265	-0.202	-0.008
-543.266	-190.779	0.147	0.002
-542.252	78.758	-0.137	-0.149
-541.237	-200.000	0.030	-0.293
-540.223	186.678	0.024	0.037
-539.208	-38.582	-0.183	0.098
-538.193	-38.849	-0.075	-0.040
-537.179	-200.000	0.026	0.216
-536.164	-173.257	0.192	-0.006
-535.150	-140.661	0.145	0.015
-534.135	-36.536	0.325	0.177
-533.121	-3.084	-0.156	0.111
-532.106	-12.003	0.205	-0.136
-531.091	36.263	0.103	-0.092
-530.077	-84.842	-0.205	0.065
-529.062	800.000	-0.011	-0.046
-528.048	-34.856	-0.291	0.161
-527.033	-200.000	0.018	0.222
-526.018	278.609	0.098	-0.178
-525.004	-87.363	0.313	0.096
-523.989	355.605	0.096	-0.194
-522.975	279.450	0.081	0.147
-521.960	164.927	0.170	-0.243
-520.945	-200.000	0.042	0.292
-519.931	-108.116	0.312	0.069
-518.916	-66.605	0.281	0.113
-517.902	-37.787	-0.248	-0.134
-516.887	-200.000	-0.038	-0.253
-515.872	-41.168	-0.344	0.180
-514.858	53.060	0.177	-0.172
-513.843	800.000	-0.045	0.128
-512.829	-200.000	-0.000	-0.184
-511.814	-200.000	-0.009	0.118
-510.799	-200.000	-0.040	-0.329
-509.785	-200.000	-0.019	0.174
-508.770	51.649	0.151	0.146
-507.756	800.000	0.080	-0.261
-506.741	344.303	-0.021	0.042
-505.726	84.561	-0.158	0.175
-504.712	18.569	0.042	0.034
-503.697	-200.000	0.041	0.442
-502.683	-200.000	-0.007	0.248
-501.668	-139.600	-0.092	-0.010
-500.653	159.720	-0.083	-0.117
-499.639	-169.936	0.172	0.006
-498.624	-96.752	-0.333	0.089
-497.610	573.583	-0.100	-0.248
-496.595	-70.692	-0.058	-0.022
-495.581	363.289	-0.047	-0.097
-494.566	183.532	0.100	-0.150
-493.551	376.175	0.160	-0.330
-492.537	553.769	-0.080	0.194
-491.522	618.377	-0.118	0.299
-490.508	-120.420	0.272	-0.047
-489.493	-25.571	0.148	0.088
-488.478	-193.383	-0.308	-0.003
-487.464	-122.338	-0.172	-0.028
-486.449	-105.330	0.105	0.024
-485.435	-200.000	0.011	-0.058
-484.420	92.078	0.066	0.075
-483.405	-88.848	0.278	-0.084
-482.391	800.000	-0.060	-0.199
-481.376	77.036	0.071	0.076
-480.362	198.334	0.099	-0.153
-479.347	52.707	-0.317	0.307
-478.332	481.995	0.071	0.163
-477.318	-200.000	0.001	-0.306
-476.303	50.745	-0.171	-0.164
-475.289	35.273	0.121	0.108
-474.274	242.864	-0.137	0.232
-473.259	2.634	0.325	-0.238
-472.245	78.794	-0.098	0.106
-471.230	-35.905	-0.161	0.088
-470.216	456.442	-0.071	-0.158
-469.201	64.675	-0.051	-0.052
-468.186	-41.581	-0.447	0.232
-467.172	800.000	0.036	-0.155
-466.157	-71.692	-0.231	-0.087
-465.143	-113.613	0.141	-0.028
-464.128	91.552	-0.161	-0.184
-463.113	188.809	-0.092	0.139
-462.099	-58.200	0.055	0.024
-461.084	800.000	0.080	-0.241
-460.070	211.162	0.061	-0.096
-459.055	31.877	-0.201	-0.175
-458.040	-200.000	0.005	0.120
-457.026	198.890	-0.099	-0.154
-456.011	301.062	-0.036	-0.067
-454.997	-200.000	0.038	-0.207
-453.982	-139.531	0.140	-0.015
-452.968	472.603	-0.063	0.144
-451.953	800.000	-0.033	-0.130
-450.938	-200.000	0.021	-0.127
-449.924	-200.000	-0.045	0.331
-448.909	800.000	0.068	0.217
-447.895	-200.000	-0.043	-0.241
-446.880	-200.000	0.004	-0.143
-445.865	-200.000	-0.000	-0.012
-444.851	800.000	0.080	-0.267
-443.836	-125.892	0.273	-0.042
-442.822	-200.000	0.092	-0.407
-441.807	-158.161	-0.285	0.017
-440.792	-137.327	-0.384	-0.044
-439.778	757.063	-0.073	-0.200
-438.763	146.862	0.106	-0.144
-437.749	285.505	-0.035	-0.064
-436.734	800.000	-0.008	0.032
-435.719	-26.968	-0.062	-0.037
-434.705	440.067	-0.149	-0.328
-433.690	-92.943	-0.156	-0.044
-432.676	-40.342	0.187	0.098
-431.661	-82.473	0.240	0.079
-430.646	-94.953	0.136	-0.037
-429.632	121.457	0.058	0.074
-428.617	412.005	-0.054	-0.116
-427.603	-200.000	0.009	-0.249
-426.588	-107.401	-0.066	-0.015
-425.573	-67.195	0.094	-0.037
-424.559	-16.181	0.155	-0.100
-423.544	-146.314	0.653	0.058
-422.530	-130.978	-0.276	-0.037
-421.515	375.633	-0.175	0.360
-420.500	151.090	0.109	-0.150
-419.486	-200.000	-0.010	-0.109
-418.471	538.177	-0.126	-0.303
-417.457	51.062	0.257	-0.246
-416.442	125.118	-0.011	0.014
-415.428	-58.756	-0.705	0.308
-414.413	251.286	-0.064	0.110
-413.398	281.465	-0.020	-0.037
-412.384	-96.989	0.109	-0.029
-411.369	255.695	0.126	0.217
-410.355	-200.000	-0.004	0.096
-409.340	-101.629	-0.192	0.047
-408.325	-155.368	-0.236	0.015
-407.311	391.293	0.091	-0.191
-406.296	-200.000	0.009	-0.110
-405.282	44.113	0.168	-0.156
-404.267	195.316	0.117	-0.180
-403.252	-23.656	-0.212	0.128
-402.238	15.680	0.061	-0.049
-401.223	-200.000	0.123	-0.589
-400.209	151.906	0.094	-0.129
-399.194	181.288	-0.097	0.144
-398.179	395.717	-0.061	-0.128
-397.165	-121.993	0.116	0.019
-396.150	800.000	0.076	0.228
-395.136	-200.000	-0.004	0.069
-394.121	-200.000	-0.075	0.383
-393.106	-200.000	-0.000	0.045
-392.092	-37.219	0.221	-0.119
-391.077	-200.000	0.018	0.172
-390.063	-200.000	0.029	-0.162
-389.048	-200.000	-0.010	-0.137
-388.033	-146.489	0.154	-0.014
-387.019	-136.646	-0.165	-0.019
-386.004	-47.205	0.142	-0.070
-384.990	90.874	-0.041	0.047
-383.975	-200.000	-0.015	0.684
-382.960	-75.769	-0.217	0.078
-381.946	-10.610	0.167	-0.111
-380.931	704.953	0.018	-0.048
-379.917	-24.831	0.260	0.156
-378.902	332.103	0.066	0.128
-377.888	-135.168	0.383	-0.046
-376.873	-200.000	-0.064	-0.349
-375.858	111.659	-0.165	0.200
-374.844	-23.445	-0.269	0.163
-373.829	23.540	-0.066	-0.055
-372.815	-119.832	-0.210	-0.036
-371.800	-200.000	0.035	0.167
-370.785	610.454	0.097	0.244
-369.771	-200.000	0.012	0.446
-368.756	-26.842	0.116	0.068
-367.742	-2.237	-0.151	-0.107
-366.727	-145.882	0.321	0.029
-365.712	800.000	0.115	0.334
-364.698	-200.000	0.016	-0.099
-363.683	219.276	0.055	-0.088
-362.669	792.096	0.089	0.245
-361.654	41.384	0.154	0.141
-360.639	157.633	0.125	0.174
-359.625	126.583	0.129	-0.164
-358.610	-200.000	-0.016	0.161
-357.596	-200.000	0.006	0.117
-356.581	-48.562	0.192	-0.093
-355.566	221.947	0.113	-0.184
-354.552	-167.627	-0.273	0.011
-353.537	-80.549	0.125	-0.042
-352.523	-200.000	0.020	0.087
-351.508	-200.000	0.039	-0.177
-350.493	-179.357	0.071	0.002
-349.479	-31.013	0.253	0.144
-348.464	377.737	-0.080	-0.166
-347.450	100.892	-0.388	0.455
-346.435	-116.965	0.288	0.053
-345.420	163.918	0.079	-0.112
-344.406	-81.758	-0.142	-0.047
-343.391	-66.625	0.180	0.072
-342.377	18.533	0.134	0.108
-341.362	-200.000	0.051	0.244
-340.348	-147.821	0.150	-0.013
-339.333	65.561	0.337	-0.344
-338.318	-25.581	0.046	-0.027
-337.304	-160.575	0.110	-0.006
-336.289	-164.715	-0.264	0.012
-335.275	-186.131	0.211	-0.003
-334.260	-70.045	-0.256	-0.098
-333.245	187.493	-0.056	-0.084
-332.231	-200.000	-0.046	-0.210
-331.216	98.305	-0.143	0.166
-330.202	16.776	0.311	0.248
-329.187	26.968	0.104	0.088
-328.172	83.860	-0.292	0.321
-327.158	-153.136	0.011	0.001
-326.143	-145.789	0.126	-0.011
-325.129	68.090	-0.175	0.180
-324.114	-122.931	0.165	0.027
-323.099	-19.830	0.224	0.139
-322.085	-90.754	-0.215	-0.062
-321.070	-57.212	-0.239	0.106
-320.056	698.717	-0.106	0.280
-319.041	-91.247	-0.128	-0.037
-318.026	-94.941	-0.085	-0.023
-317.012	800.000	-0.056	0.181
-315.997	800.000	-0.020	-0.085
-314.983	47.185	-0.084	-0.078
-313.968	-200.000	-0.012	0.106
-312.953	237.984	0.090	0.151
-311.939	800.000	0.062	0.252
-310.924	-29.017	0.456	-0.263
-309.910	800.000	0.014	-0.061
-308.895	212.315	0.117	0.186
-307.880	155.202	0.163	-0.226
-306.866	30.141	-0.128	-0.110
-305.851	-75.737	-0.137	0.049
-304.837	776.044	-0.156	0.428
-303.822	800.000	-0.028	0.108
-302.807	-15.934	0.159	0.102
-301.793	210.553	-0.111	0.175
-300.778	-60.899	-0.134	0.057
-299.764	44.450	0.208	-0.192
-298.749	-200.000	0.041	0.321
-297.735	194.719	-0.211	0.322
-296.720	3.349	0.187	0.137
-295.705	63.977	0.209	0.212
-294.691	-140.015	-0.329	-0.035
-293.676	-61.215	0.189	0.080
-292.662	-8.893	-0.068	-0.046
-291.647	-73.845	0.148	0.054
-290.632	245.486	-0.145	0.244
-289.618	-22.090	-0.175	-0.107
-288.603	-53.220	-0.240	0.111
-287.589	-80.488	0.091	-0.030
-286.574	58.144	-0.131	0.129
-285.559	-171.838	0.259	-0.009
-284.545	-200.000	0.066	-0.319
-283.530	-200.000	-0.053	-0.347
-282.516	-200.000	-0.016	-0.211
-281.501	36.964	0.237	0.211
-280.486	-179.575	-0.454	-0.010
-279.472	8.677	0.126	0.096
-278.457	213.614	-0.233	-0.370
-277.443	24.249	-0.206	-0.171
-276.428	-17.228	-0.166	-0.105
-275.413	-44.425	-0.145	0.073
-274.399	800.000	0.038	0.153
-273.384	82.791	-0.137	-0.149
-272.370	26.554	0.161	-0.135
-271.355	790.127	-0.018	0.051
-270.340	-200.000	0.004	0.384
-269.326	-43.948	-0.157	0.079
-268.311	-200.000	-0.001	0.073
-267.297	416.722	0.124	-0.265
-266.282	363.833	-0.124	-0.249
-265.267	86.197	0.242	0.267
-264.253	-200.000	-0.052	0.338
-263.238	-38.775	-0.309	0.163
-262.224	-200.000	-0.012	-0.328
-261.209	-88.180	0.268	-0.081
-260.195	800.000	0.028	0.084
-259.180	-138.206	-0.381	-0.042
-258.165	367.187	-0.036	-0.072
-257.151	185.319	-0.087	-0.129
-256.136	800.000	0.105	0.390
-255.122	800.000	0.030	-0.129
-254.107	-46.409	-0.070	0.035
-253.092	236.219	0.154	-0.255
-252.078	4.838	0.286	0.211
-251.063	234.695	0.040	0.067
-250.049	103.197	-0.198	-0.233
-249.034	-32.591	-0.109	-0.061
-248.019	418.561	-0.027	-0.058
-247.005	721.582	0.063	0.167
-245.990	217.302	-0.099	0.158
-244.976	-48.247	-0.215	0.104
-243.961	180.656	0.136	0.200
-242.946	-79.553	0.133	0.045
-241.932	-175.550	0.224	0.006
-240.917	21.068	-0.128	-0.104
-239.903	332.427	-0.072	0.139
-238.888	26.000	0.081	0.068
-237.873	-58.356	-0.238	0.104
-236.859	-20.028	0.140	0.087
-235.844	-200.000	0.010	0.402
-234.830	-59.644	0.333	0.143
-233.815	-0.634	0.417	-0.296
-232.800	-52.675	-0.318	0.147
-231.786	-137.269	-0.292	0.033
-230.771	-59.974	0.218	0.093
-229.757	-31.653	-0.107	-0.060
-228.742	71.542	-0.029	-0.030
-227.727	-132.774	0.041	-0.005
-226.713	-200.000	0.014	-0.104
-225.698	-200.000	0.028	-0.262
-224.684	-77.623	0.167	0.058
-223.669	40.173	0.215	0.194
-222.655	404.633	-0.071	0.150
-221.640	-200.000	0.067	0.400
-220.625	147.760	-0.167	0.225
-219.611	89.385	-0.086	-0.096
-218.596	19.314	0.236	0.190
-217.582	-24.602	0.328	-0.195
-216.567	60.766	0.112	0.112
-215.552	73.819	-0.154	-0.161
-214.538	800.000	-0.006	-0.017
-213.523	417.871	-0.124	0.265
-212.509	800.000	-0.127	-0.504
-211.494	-152.023	-0.122	-0.009
-210.479	-18.567	0.194	0.121
-209.465	-144.375	0.166	-0.015
-208.450	-66.450	-0.151	-0.060
-207.436	184.984	-0.116	0.173
-206.421	-88.353	-0.359	0.108
-205.406	417.072	0.146	-0.312
-204.392	51.893	-0.111	-0.106
-203.377	800.000	0.041	-0.122
-202.363	45.575	-0.260	0.240
-201.348	-113.226	0.155	-0.031
-200.333	800.000	0.025	0.097
-199.319	-200.000	0.038	0.274
-198.304	-160.166	0.283	0.015
-197.290	-200.000	-0.021	-0.159
-196.275	-47.959	0.095	-0.046
-195.260	-53.847	0.176	-0.080
-194.246	-80.261	0.137	-0.046
-193.231	-155.385	0.252	-0.016
-192.217	244.405	0.044	-0.074
-191.202	-82.554	0.160	-0.052
-190.187	-200.000	-0.018	-0.115
-189.173	800.000	-0.086	0.291
-188.158	771.109	0.156	0.426
-187.144	-65.785	0.191	0.077
-186.129	-200.000	-0.014	-0.358
-185.114	-200.000	-0.017	-0.086
-184.100	-200.000	0.025	0.271
-183.085	411.212	-0.089	0.190
-182.071	610.081	-0.101	-0.252
-181.056	800.000	0.056	0.228
-180.042	-98.174	-0.155	-0.040
-179.027	-200.000	-0.032	0.154
-178.012	-56.039	-0.050	0.023
-176.998	-200.000	0.015	-0.086
-175.983	-85.170	-0.182	0.057
-174.969	62.325	0.117	-0.117
-173.954	-123.837	0.192	-0.030
-172.939	-38.051	0.057	0.030
-171.925	-102.098	-0.142	-0.034
-170.910	485.518	-0.067	-0.152
-169.896	-21.759	0.052	-0.032
-168.881	97.935	0.209	-0.240
-167.866	-68.134	-0.172	-0.067
-166.852	14.591	-0.082	0.064
-165.837	152.723	-0.045	-0.061
-164.823	59.235	-0.296	-0.291
-163.808	-167.301	-0.201	0.008
-162.793	494.169	-0.138	0.316
-161.779	80.735	0.307	0.331
-160.764	418.385	-0.131	0.280
-159.750	-50.943	0.135	0.063
-158.735	169.592	0.080	0.114
-157.720	58.513	0.074	-0.073
-156.706	248.585	0.052	0.087
-155.691	34.343	-0.097	-0.085
-154.677	-192.483	-0.175	-0.002
-153.662	-200.000	-0.046	-0.223
-152.647	-110.302	-0.332	0.069
-151.633	-200.000	0.004	-0.212
-150.618	670.645	0.047	-0.123
-149.604	800.000	0.069	0.210
-148.589	800.000	-0.093	0.272
-147.574	18.436	0.157	-0.125
-146.560	5.184	-0.209	0.154
-145.545	179.623	0.086	0.127
-144.531	182.996	-0.174	0.256
-143.516	153.724	0.217	-0.297
-142.502	-200.000	-0.027	-0.137
-141.487	-113.383	0.249	0.049
-140.472	800.000	0.077	0.310
-139.458	800.000	-0.042	-0.132
-138.443	-194.076	0.343	0.003
-137.429	-200.000	-0.004	0.059
-136.414	745.946	-0.042	0.112
-135.399	421.865	-0.149	0.319
-134.385	-200.000	0.059	0.371
-133.370	-92.567	-0.206	-0.058
-132.356	6.448	0.070	-0.052
-131.341	800.000	-0.097	0.383
-130.326	-200.000	0.007	-0.099
-129.312	-161.996	0.600	0.030
-128.297	48.679	0.133	0.124
-127.283	-22.253	-0.193	0.117
-126.268	-79.456	-0.155	0.052
-125.253	-127.570	-0.112	-0.016
-124.239	-30.366	-0.058	0.033
-123.224	-155.594	0.147	0.009
-122.210	-13.196	-0.116	0.075
-121.195	-80.240	-0.374	0.125
-120.180	434.512	0.022	-0.047
-119.166	-86.521	-0.134	-0.041
-118.151	-98.394	0.269	-0.069
-117.137	-71.149	0.153	0.057
-116.122	800.000	0.123	0.366
-115.107	541.247	0.184	0.438
-114.093	-200.000	0.098	0.000
-113.078	-89.797	-0.179	-0.052
-112.064	-104.038	0.333	-0.077
-111.049	-172.254	0.104	-0.003
-110.034	-200.000	-0.032	-0.260
-109.020	473.097	0.081	-0.182
-108.005	-111.038	0.274	0.056
-106.991	-142.573	0.204	-0.020
-105.976	58.193	-0.105	-0.103
-104.962	-200.000	0.022	0.198
-103.947	-200.000	0.004	-0.316
-102.932	-200.000	-0.065	0.349
-101.918	423.887	0.064	0.138
-100.903	335.966	0.153	0.296
-99.889	-109.371	0.297	0.063
-98.874	49.360	0.285	0.268
-97.859	-70.417	0.306	0.116
-96.845	-5.009	0.177	0.122
-95.830	0.569	0.140	0.100
-94.816	-60.704	0.227	-0.096
-93.801	-44.275	-0.329	-0.164
-92.786	-78.551	0.192	0.066
-91.772	-111.090	-0.303	0.062
-90.757	-151.614	-0.074	0.005
-89.743	259.592	0.140	-0.240
-88.728	-200.000	-0.013	0.086
-87.713	800.000	-0.035	0.153
-86.699	-200.000	-0.020	0.125
-85.684	169.374	0.075	0.106
-84.670	-60.720	0.187	-0.079
-83.655	113.275	0.155	0.188
-82.640	-42.856	0.092	-0.047
-81.626	-200.000	-0.004	0.304
-80.611	-106.155	-0.109	0.024
-79.597	-60.350	-0.140	-0.059
-78.582	86.412	0.053	0.058
-77.567	153.495	-0.139	0.189
-76.553	81.639	0.097	0.104
-75.538	800.000	-0.103	-0.366
-74.524	509.641	-0.073	-0.170
-73.509	-72.965	-0.092	-0.034
-72.494	69.713	0.310	0.318
-71.480	-79.135	0.100	0.034
-70.465	232.075	-0.115	-0.187
-69.451	-15.887	-0.325	-0.206
-68.436	-200.000	-0.002	0.298
-67.422	160.259	-0.062	0.086
-66.407	-111.181	-0.231	0.047
-65.392	-200.000	-0.023	0.212
-64.378	-99.466	0.335	0.084
-63.363	-34.919	-0.193	0.105
-62.349	800.000	0.063	-0.267
-61.334	32.529	-0.891	-0.767
-60.319	53.417	0.107	-0.102
-59.305	-200.000	-0.031	-0.802
-58.290	186.819	0.388	0.576
-57.276	141.577	0.647	0.854
-56.261	-200.000	77.766	509.988
-55.246	490.325	1359.512	3096.232
-54.232	143.874	2591.121	3438.908
-53.217	112.868	2260.530	2726.578
-52.203	49.721	1786.307	1675.549
-51.188	42.773	1588.140	1440.108
-50.173	40.230	1558.010	1394.837
-49.159	56.165	1596.267	1542.828
-48.144	61.364	1616.252	1599.094
-47.130	43.288	1579.508	1435.714
-46.115	39.911	1564.712	1398.353
-45.100	39.715	1561.410	1393.964
-44.086	39.577	1559.968	1391.645
-43.071	39.554	1557.689	1389.399
-42.057	39.489	1555.586	1387.009
-41.042	39.558	1554.234	1386.229
-40.027	39.484	1552.462	1384.075
-39.013	39.437	1551.153	1382.523
-37.998	39.520	1549.517	1381.597
-36.984	39.569	1548.304	1380.801
-35.969	39.559	1547.243	1379.728
-34.954	39.535	1546.147	1378.526
-33.940	39.506	1544.559	1376.858
-32.925	39.511	1542.886	1375.348
-31.911	39.728	1541.103	1375.217
-30.896	39.665	1539.997	1373.735
-29.881	39.700	1538.940	1372.983
-28.867	39.608	1537.791	1371.261
-27.852	39.753	1536.069	1370.676
-26.838	39.642	1535.099	1368.991
-25.823	39.636	1533.274	1367.263
-24.809	39.688	1531.002	1365.542
-23.794	39.656	1529.834	1364.224
-22.779	39.616	1528.631	1362.822
-21.765	39.628	1527.338	1361.697
-20.750	39.489	1526.974	1360.363
-19.736	39.608	1524.970	1359.341
-18.721	39.506	1523.939	1357.664
-17.706	39.537	1522.875	1356.879
-16.692	39.622	1521.598	1356.274
-15.677	39.601	1520.190	1354.815
-14.663	39.550	1519.714	1353.988
-13.648	39.509	1518.320	1352.413
-12.633	39.599	1517.270	1352.041
-11.619	39.499	1517.071	1351.127
-10.604	39.467	1516.152	1350.033
-9.590	39.413	1515.156	1348.721
-8.575	39.526	1514.152	1348.549
-7.560	39.536	1513.011	1347.550
-6.546	39.509	1512.013	1346.423
-5.531	39.436	1511.480	1345.395
-4.517	39.488	1510.428	1344.760
-3.502	39.475	1509.605	1343.886
-2.487	39.514	1508.446	1343.066
-1.473	39.535	1507.202	1342.044
-0.458	39.535	1505.930	1340.860
0.556	39.825	1497.031	1331.480
1.571	37.349	1469.834	1290.749
2.586	33.801	1407.553	1213.329
3.600	32.034	1322.459	1129.254
4.615	29.796	1273.483	1074.353
5.629	24.594	1211.752	993.345
6.644	12.533	1118.683	854.671
7.659	3.542	1071.948	773.951
8.673	2.309	1065.968	763.414
9.688	2.012	1062.898	759.671
10.702	1.861	1061.193	757.635
11.717	1.749	1059.766	755.991
12.731	5.184	1064.155	776.155
13.746	16.062	1079.817	842.124
14.761	24.201	1090.376	891.170
15.775	25.359	1091.226	897.579
16.790	25.408	1090.599	897.230
17.804	25.380	1089.251	895.900
18.819	25.109	1088.714	894.028
19.834	25.168	1088.286	893.891
20.848	25.422	1087.134	894.130
21.863	25.388	1087.101	893.857
22.877	25.373	1087.192	893.775
23.892	25.386	1086.131	892.888
24.907	25.211	1085.450	891.380
25.921	25.219	1084.819	890.823
26.936	25.429	1083.625	890.803
27.950	25.257	1082.673	889.092
28.965	25.176	1081.747	887.850
29.980	25.067	1080.441	886.162
30.994	25.056	1078.837	884.715
32.009	25.428	1078.170	885.925
33.023	25.399	1077.420	885.085
34.038	25.199	1076.401	883.186
35.053	25.143	1075.721	882.276
36.067	25.401	1074.807	882.718
37.082	25.457	1074.012	882.260
38.096	25.299	1073.502	880.985
39.111	25.474	1073.094	881.433
40.126	25.622	1071.793	881.010
41.140	25.512	1070.768	879.550
42.155	25.303	1069.560	877.459
43.169	24.833	1068.352	874.097
44.184	24.854	1067.108	873.103
45.199	24.963	1065.568	872.298
46.213	24.951	1064.939	871.648
47.228	24.854	1064.343	870.611
48.242	25.021	1063.599	870.734
49.257	25.183	1062.802	870.792
50.271	25.259	1061.849	870.305
51.286	25.226	1062.037	870.223
52.301	25.267	1061.271	869.716
53.315	25.308	1060.095	868.875
54.330	25.324	1059.166	868.111
55.344	25.289	1058.600	867.404
56.359	25.320	1057.553	866.615
57.374	25.221	1056.864	865.499
58.388	25.017	1055.989	863.721
59.403	25.028	1055.081	862.956
60.417	25.009	1054.502	862.315
61.432	24.805	1053.764	860.652
62.447	24.884	1053.147	860.453
63.461	25.032	1052.367	860.451
64.476	25.034	1051.728	859.860
65.490	25.031	1050.705	858.933
66.505	25.009	1049.311	857.613
67.520	24.934	1049.044	856.959
68.534	25.051	1048.144	856.710
69.549	24.919	1047.356	855.359
70.563	24.482	1046.050	852.130
71.578	24.556	1045.300	851.795
72.593	24.604	1044.409	851.222
73.607	24.461	1043.226	849.506
74.622	24.399	1042.245	848.334
75.636	24.694	1041.721	849.238
76.651	24.804	1041.130	849.199
77.666	24.770	1039.897	847.961
78.680	24.599	1038.998	846.342
79.695	24.665	1038.333	846.036
80.709	24.851	1038.122	846.673
81.724	24.873	1037.255	845.993
82.739	24.983	1036.256	845.620
83.753	24.810	1035.602	844.196
84.768	25.219	1034.932	845.502
85.782	25.575	1034.408	846.679
86.797	25.762	1033.937	847.096
87.812	25.680	1032.799	845.705
88.826	25.365	1032.294	843.735
89.841	25.355	1031.667	843.101
90.855	25.549	1030.652	843.109
91.870	25.549	1030.106	842.587
92.884	25.510	1029.128	841.532
93.899	25.410	1027.983	840.050
94.914	25.351	1027.074	838.960
95.928	25.409	1026.469	838.663
96.943	25.564	1025.298	838.352
97.957	25.279	1024.368	836.192
98.972	25.036	1022.902	833.791
99.987	24.778	1022.143	831.899
101.001	24.938	1021.093	831.715
102.016	25.277	1021.085	833.204
103.030	25.355	1019.831	832.472
104.045	25.172	1018.878	830.774
105.060	25.059	1017.796	829.294
106.074	24.835	1017.097	827.614
107.089	24.840	1016.302	826.919
108.103	25.061	1016.004	827.625
109.118	25.299	1014.831	827.693
110.133	24.975	1013.955	825.411
111.147	24.983	1012.731	824.380
112.162	24.874	1011.769	823.019
113.176	24.509	1010.776	820.464
114.191	24.881	1009.773	821.285
115.206	24.906	1009.522	821.122
116.220	24.659	1008.194	818.838
117.235	24.430	1007.197	816.909
118.249	24.636	1006.635	817.321
119.264	24.586	1005.973	816.482
120.279	24.484	1004.957	815.119
121.293	24.481	1003.933	814.205
122.308	24.604	1003.448	814.299
123.322	24.764	1002.362	814.076
124.337	24.648	1001.330	812.639
125.352	24.482	1000.478	811.118
126.366	24.151	998.583	808.009
127.381	23.912	997.289	805.809
128.395	24.388	997.324	807.923
129.410	24.954	996.810	809.995
130.424	25.343	995.888	810.930
131.439	25.226	994.901	809.526
132.454	25.269	993.765	808.726
133.468	25.183	993.082	807.712
134.483	24.991	992.518	806.317
135.497	25.119	991.822	806.256
136.512	25.265	991.405	806.502
137.527	25.377	990.607	806.283
138.541	25.363	990.029	805.681
139.556	25.455	989.239	805.377
140.570	25.430	988.390	804.501
141.585	25.510	987.409	803.990
142.600	25.637	986.703	803.914
143.614	25.517	985.849	802.612
144.629	25.442	985.429	801.865
145.643	25.691	984.764	802.361
146.658	25.598	983.638	800.956
147.673	25.470	982.456	799.358
148.687	25.238	981.293	797.306
149.702	25.229	980.253	796.352
150.716	25.035	979.319	794.665
151.731	25.136	978.066	794.025
152.746	25.158	977.464	793.563
153.760	25.403	977.013	794.207
154.775	25.476	976.415	793.974
155.789	25.613	975.335	793.629
156.804	25.551	974.243	792.399
157.819	25.594	973.152	791.630
158.833	25.485	972.489	790.541
159.848	25.588	972.014	790.539
160.862	25.696	970.793	789.950
161.877	25.534	970.409	788.855
162.892	25.476	969.201	787.550
163.906	25.581	968.206	787.134
164.921	25.466	967.404	785.907
165.935	25.322	966.371	784.370
166.950	25.593	965.146	784.489
167.964	25.601	964.361	783.814
168.979	25.370	963.883	782.352
169.994	25.495	962.187	781.448
171.008	25.244	961.266	779.544
172.023	25.521	960.953	780.422
173.037	25.712	959.983	780.393
174.052	25.445	958.940	778.319
175.067	25.319	957.914	776.873
176.081	25.190	957.226	775.690
177.096	25.177	956.720	775.156
178.110	25.274	955.318	774.368
179.125	25.267	954.362	773.496
180.140	24.986	953.181	771.258
181.154	24.763	952.571	769.737
182.169	25.046	952.046	770.464
183.183	25.246	951.542	770.848
184.198	25.506	951.437	771.809
185.213	25.460	950.985	771.178
186.227	25.355	950.393	770.178
187.242	25.421	950.100	770.154
188.256	25.375	949.161	769.130
189.271	25.513	948.403	769.038
190.286	25.614	947.483	768.656
191.300	25.505	946.672	767.464
192.315	24.816	945.275	763.324
193.329	24.198	943.648	759.310
194.344	23.826	941.944	756.292
195.359	24.383	942.919	759.379
196.373	25.064	943.665	762.809
197.388	25.462	943.065	763.950
198.402	25.376	942.161	762.787
199.417	25.326	942.275	762.598
200.432	25.420	941.329	762.165
201.446	25.314	940.641	761.090
202.461	24.914	940.098	758.886
203.475	25.117	938.958	758.757
204.490	24.662	937.646	755.710
205.504	23.495	935.583	749.052
206.519	23.840	935.395	750.292
207.534	24.821	935.811	754.700
208.548	25.087	935.204	755.267
209.563	25.319	934.989	756.004
210.577	25.498	933.802	755.730
211.592	25.066	933.618	753.694
212.607	25.535	933.477	755.488
213.621	25.656	933.108	755.630
214.636	25.492	932.203	754.143
215.650	25.643	931.432	754.083
216.665	25.433	931.163	752.922
217.680	25.522	930.379	752.590
218.694	25.659	929.785	752.616
219.709	25.505	928.758	751.074
220.723	25.023	928.097	748.461
221.738	25.174	927.728	748.728
222.753	25.462	926.790	749.106
223.767	25.450	926.537	748.785
224.782	25.546	925.626	748.383
225.796	25.521	925.218	747.883
226.811	25.619	924.894	747.962
227.826	25.239	923.779	745.415
228.840	24.370	922.076	740.372
229.855	24.384	921.201	739.663
230.869	24.680	920.958	740.627
231.884	24.278	919.917	738.060
232.899	24.411	919.271	738.027
233.913	25.174	919.520	741.317
234.928	25.373	919.335	741.925
235.942	25.122	918.858	740.439
236.957	25.288	917.954	740.328
237.972	25.063	916.692	738.317
238.986	25.004	915.642	737.164
240.001	25.055	915.343	737.067
241.015	25.067	915.057	736.820
242.030	25.006	914.542	736.092
243.045	25.106	913.805	735.843
244.059	25.274	913.325	736.082
245.074	25.475	912.936	736.527
246.088	25.464	911.988	735.649
247.103	25.276	910.631	733.724
248.117	25.148	910.661	733.157
249.132	25.611	910.748	735.054
250.147	26.082	910.339	736.585
251.161	26.085	909.976	736.239
252.176	26.304	909.340	736.552
253.190	26.169	909.218	735.837
254.205	26.327	908.572	735.892
255.220	26.314	908.419	735.649
256.234	26.355	907.414	734.938
257.249	26.407	906.426	734.285
258.263	26.145	905.981	732.795
259.278	26.154	905.690	732.533
260.293	26.358	905.070	732.793
261.307	26.447	904.338	732.494
262.322	26.352	903.627	731.468
263.336	26.195	902.851	730.144
264.351	25.813	901.853	727.728
265.366	24.635	900.012	721.425
266.380	24.243	898.931	718.913
267.395	24.996	899.073	722.001
268.409	25.791	899.562	725.534
269.424	25.824	898.729	724.928
270.439	25.789	898.764	724.755
271.453	26.114	897.552	725.019
272.468	26.080	897.077	724.434
273.482	26.343	896.536	724.988
274.497	26.343	896.357	724.777
275.512	26.113	895.292	722.932
276.526	25.535	893.721	719.287
277.541	25.699	893.608	719.789
278.555	26.082	893.436	721.117
279.570	25.899	892.752	719.771
280.585	25.722	891.971	718.370
281.599	25.723	891.656	718.059
282.614	26.111	890.811	718.860
283.628	25.560	889.556	715.590
284.643	25.060	889.312	713.340
285.657	25.569	888.659	714.780
286.672	25.617	887.693	714.129
287.687	25.000	886.891	710.971
288.701	25.438	886.626	712.436
289.716	25.670	887.021	713.611
290.730	25.502	885.467	711.631
291.745	25.289	885.060	710.399
292.760	25.331	883.798	709.490
293.774	25.129	883.167	708.122
294.789	25.897	883.689	711.508
295.803	26.655	884.039	714.720
296.818	26.576	883.404	713.834
297.833	26.815	883.111	714.473
298.847	26.384	881.904	711.739
299.862	26.079	880.754	709.548
300.876	26.286	880.211	709.862
301.891	26.634	879.968	710.968
302.906	26.614	879.404	710.373
303.920	26.202	878.414	707.897
304.935	26.039	877.998	706.860
305.949	26.497	877.886	708.500
306.964	26.701	876.951	708.479
307.979	26.333	876.410	706.544
308.993	26.311	875.751	705.865
310.008	26.661	875.557	707.010
311.022	26.834	875.381	707.479
312.037	26.540	875.039	705.996
313.052	26.309	874.176	704.336
314.066	26.175	873.290	703.037
315.081	25.673	871.458	699.551
316.095	24.846	870.173	695.246
317.110	25.226	870.826	697.183
318.125	26.160	871.129	700.993
319.139	25.803	869.746	698.432
320.154	24.856	867.769	693.120
321.168	24.116	866.919	689.514
322.183	24.875	867.168	692.587
323.197	25.699	867.791	696.213
324.212	26.078	867.337	697.253
325.227	26.283	867.099	697.793
326.241	26.313	866.634	697.472
327.256	26.294	865.850	696.706
328.270	26.223	865.313	695.940
329.285	25.978	864.748	694.478
330.300	25.933	863.986	693.631
331.314	25.837	862.657	692.137
332.329	25.836	862.403	691.865
333.343	26.177	862.297	693.029
334.358	26.403	862.005	693.600
335.373	26.499	861.565	693.551
336.387	26.615	860.707	693.246
337.402	26.701	860.787	693.576
338.416	26.817	860.200	693.486
339.431	26.923	859.441	693.219
340.446	27.023	859.061	693.233
341.460	27.148	858.284	693.020
342.475	27.119	857.839	692.488
343.489	26.846	857.162	690.841
344.504	26.813	856.808	690.370
345.519	27.091	856.426	691.059
346.533	27.252	856.219	691.441
347.548	27.272	855.517	690.892
348.562	27.348	855.020	690.716
349.577	27.165	854.511	689.549
350.592	27.270	853.856	689.357
351.606	27.141	853.691	688.676
352.621	27.201	853.024	688.305
353.635	27.104	852.126	687.149
354.650	26.937	852.093	686.431
355.665	26.716	851.155	684.779
356.679	25.726	849.372	679.552
357.694	25.393	848.829	677.799
358.708	26.085	848.610	680.175
359.723	26.137	848.182	679.969
360.738	26.292	848.103	680.428
361.752	26.746	847.765	681.804
362.767	26.970	847.493	682.367
363.781	27.072	847.304	682.537
364.796	27.480	847.005	683.767
365.810	27.537	846.891	683.830
366.825	27.611	846.283	683.555
367.840	27.758	845.827	683.676
368.854	27.344	845.564	681.855
369.869	27.162	844.260	680.060
370.883	26.833	843.826	678.423
371.898	26.952	843.145	678.259
372.913	26.948	842.405	677.589
373.927	27.008	841.860	677.315
374.942	27.095	841.258	677.095
375.956	27.116	840.726	676.686
376.971	27.288	840.455	677.048
377.986	27.314	839.762	676.526
379.000	27.577	839.278	677.052
380.015	27.641	838.857	676.891
381.029	27.453	838.313	675.694
382.044	27.489	837.390	675.025
383.059	27.539	837.187	674.984
384.073	27.629	836.348	674.582
385.088	27.644	836.078	674.360
386.102	27.611	835.281	673.535
387.117	27.406	834.843	672.365
388.132	27.249	834.065	671.101
389.146	26.978	833.046	669.221
390.161	26.404	832.463	666.578
391.175	26.690	831.801	667.044
392.190	27.307	832.154	669.540
393.205	27.188	831.736	668.707
394.219	26.318	829.839	663.926
395.234	24.561	828.036	655.980
396.248	23.726	826.569	651.699
397.263	24.722	827.271	655.847
398.278	26.708	828.645	664.166
399.292	27.179	828.534	665.746
400.307	26.908	827.635	663.972
401.321	26.774	827.129	663.018
402.336	26.896	827.060	663.349
403.350	27.165	827.023	664.244
404.365	27.672	826.730	665.801
405.380	27.786	826.786	666.202
406.394	28.261	826.467	667.620
407.409	28.359	826.173	667.683
408.423	28.339	825.537	667.033
409.438	28.126	825.244	665.964
410.453	28.156	824.611	665.503
411.467	28.376	824.346	666.032
412.482	28.261	823.713	665.042
413.496	28.271	822.915	664.376
414.511	28.397	822.469	664.415
415.526	28.480	822.141	664.391
416.540	28.420	821.523	663.614
417.555	28.277	821.430	662.963
418.569	27.924	820.644	660.993
419.584	27.894	820.006	660.313
420.599	28.030	819.536	660.368
421.613	97.118	1269.401	1390.880
422.628	83.756	1334.956	1391.004
