DTS Sentinel unit serial number:	SN413079Multiplexer serial number:	ORYXHardware model number:	OX4-SRSoftware version number:	ORYX F/W v4.00 Oryx Data Collector v3.7.2.0data status	okinstallation	princeton_trtdifferential loss correction	single-endedforward channel	channel 3reverse channel	N/Adate	2019/09/13time	12:04:35forward acquisition time	60.00reverse acquisition time	0.00gamma	496.2192k internal	0.2310k external	0.2310temperature offset calibration	1.0149default loss term (dB/km)	0.3790temperature slope calibration	1.0000multiplexer offset coefficient	1.0000multiplexer slope coefficient	1.0000fibre end	0.00T internal ref (°C)	33.70T ext. ref 1 (°C)	4.61T ext. ref 2 (°C)	31.26length (m)	temperature (°C)	Stokes	anti-Stokes-747.200	577.398	0.076	0.188
-746.185	-66.892	-0.298	0.120
-745.171	-198.882	0.095	-0.001
-744.156	82.345	-0.140	0.154
-743.142	800.000	-0.080	0.261
-742.127	7.073	-0.339	0.257
-741.112	-200.000	-0.016	0.201
-740.098	-156.225	0.267	0.017
-739.083	-100.542	0.095	-0.024
-738.069	-128.715	-0.230	0.033
-737.054	-200.000	0.009	-0.204
-736.039	162.676	-0.119	-0.170
-735.025	384.106	-0.178	0.372
-734.010	-36.675	-0.256	-0.140
-732.996	-182.917	-0.240	0.004
-731.981	-51.637	-0.199	0.094
-730.966	-44.161	-0.356	0.181
-729.952	-112.369	-0.041	0.008
-728.937	-200.000	0.043	-0.209
-727.923	166.979	-0.213	-0.306
-726.908	113.040	0.139	0.171
-725.894	208.041	0.194	-0.307
-724.879	-5.674	0.105	-0.073
-723.864	-200.000	-0.000	-0.155
-722.850	56.790	-0.204	-0.201
-721.835	24.724	-0.150	-0.126
-720.821	-75.973	-0.173	0.062
-719.806	161.467	-0.099	-0.141
-718.791	-151.355	-0.191	0.014
-717.777	800.000	-0.043	-0.131
-716.762	-71.263	0.154	0.059
-715.748	-95.698	-0.435	-0.118
-714.733	31.210	0.064	0.056
-713.718	-32.012	0.195	0.111
-712.704	-200.000	-0.056	-0.274
-711.689	-64.122	0.150	-0.062
-710.675	-69.323	-0.359	-0.140
-709.660	-120.439	-0.268	-0.046
-708.645	-57.963	0.241	-0.107
-707.631	-200.000	0.079	-0.362
-706.616	-200.000	-0.073	-0.563
-705.602	369.170	-0.017	-0.035
-704.587	20.423	0.195	-0.160
-703.572	102.922	0.090	-0.107
-702.558	-21.169	-0.257	0.159
-701.543	-84.100	0.199	-0.064
-700.529	-144.522	-0.353	0.033
-699.514	-200.000	0.026	-0.126
-698.499	-72.092	0.110	-0.041
-697.485	-95.289	-0.428	-0.117
-696.470	800.000	-0.040	-0.167
-695.456	-150.120	-0.488	-0.038
-694.441	-85.102	0.244	-0.077
-693.426	-200.000	-0.004	0.147
-692.412	448.630	-0.050	0.111
-691.397	17.963	0.094	0.076
-690.383	503.690	-0.118	0.277
-689.368	-200.000	-0.034	-0.364
-688.354	92.293	-0.130	-0.149
-687.339	-186.361	-0.140	0.002
-686.324	800.000	-0.051	-0.157
-685.310	674.926	-0.035	-0.093
-684.295	73.264	-0.190	0.201
-683.281	70.526	-0.118	0.124
-682.266	-76.286	-0.065	-0.023
-681.251	16.517	-0.283	0.227
-680.237	-200.000	-0.013	-0.060
-679.222	99.941	-0.319	0.374
-678.208	-178.441	-0.155	-0.004
-677.193	52.005	0.227	0.219
-676.178	384.976	-0.192	-0.401
-675.164	-200.000	0.018	-0.126
-674.149	-192.951	-0.302	-0.003
-673.135	-112.153	-0.120	-0.024
-672.120	-94.179	0.191	-0.053
-671.105	16.527	-0.252	-0.202
-670.091	606.474	-0.124	0.314
-669.076	74.394	-0.034	-0.036
-668.062	-89.132	-0.086	0.026
-667.047	800.000	-0.043	-0.126
-666.032	-150.970	-0.232	0.018
-665.018	-30.392	-0.335	0.192
-664.003	-181.697	0.269	0.005
-662.989	-200.000	-0.025	-0.266
-661.974	-12.485	-0.070	0.046
-660.959	800.000	0.088	-0.264
-659.945	624.074	-0.098	-0.251
-658.930	771.820	-0.122	-0.337
-657.916	800.000	0.058	0.241
-656.901	-30.294	-0.202	-0.116
-655.886	-155.396	0.275	0.018
-654.872	-47.174	0.020	0.010
-653.857	-7.040	0.155	0.107
-652.843	249.081	-0.254	-0.435
-651.828	-30.502	-0.062	-0.036
-650.814	-43.606	-0.105	0.054
-649.799	-15.088	0.178	-0.115
-648.784	-9.417	-0.222	0.150
-647.770	79.686	0.105	-0.114
-646.755	67.646	-0.086	-0.089
-645.741	-19.751	0.245	-0.153
-644.726	85.796	-0.153	-0.171
-643.711	-200.000	0.015	-0.166
-642.697	97.055	0.141	0.164
-641.682	-49.295	0.220	-0.106
-640.668	800.000	-0.103	-0.448
-639.653	236.988	0.251	-0.420
-638.638	800.000	0.073	-0.236
-637.624	800.000	0.111	-0.318
-636.609	-200.000	0.012	-0.111
-635.595	-200.000	-0.003	-0.163
-634.580	-200.000	-0.061	-0.470
-633.565	8.974	-0.158	-0.121
-632.551	-200.000	0.001	-0.140
-631.536	60.412	0.136	0.136
-630.522	236.094	-0.055	0.091
-629.507	31.962	-0.198	0.173
-628.492	681.295	0.033	-0.086
-627.478	-200.000	-0.024	-0.329
-626.463	-137.255	-0.388	-0.045
-625.449	738.277	-0.093	-0.253
-624.434	-51.890	-0.270	0.127
-623.419	-200.000	0.030	0.161
-622.405	128.529	0.210	0.270
-621.390	79.519	-0.152	0.165
-620.376	43.154	0.094	-0.087
-619.361	-200.000	0.048	-0.361
-618.346	800.000	0.079	-0.306
-617.332	242.692	-0.143	0.242
-616.317	235.221	-0.089	-0.148
-615.303	-67.165	0.108	0.043
-614.288	456.733	-0.127	0.286
-613.273	-4.473	0.213	-0.149
-612.259	-200.000	-0.026	-0.235
-611.244	301.650	-0.041	-0.076
-610.230	-200.000	0.089	0.403
-609.215	-95.761	-0.091	0.025
-608.201	-107.329	-0.158	-0.035
-607.186	-108.346	-0.266	-0.058
-606.171	800.000	0.069	0.222
-605.157	149.854	0.284	-0.389
-604.142	-101.531	-0.603	0.148
-603.128	-19.602	0.008	0.005
-602.113	-37.469	-0.159	-0.086
-601.098	412.817	-0.180	0.386
-600.084	-200.000	0.031	0.433
-599.069	-2.006	0.102	0.073
-598.055	-200.000	-0.003	-0.215
-597.040	-81.823	-0.259	0.086
-596.025	-87.017	-0.361	-0.111
-595.011	459.321	0.072	-0.161
-593.996	146.981	0.211	0.286
-592.982	603.163	-0.122	0.307
-591.967	-112.846	0.216	0.043
-590.952	94.790	-0.138	0.158
-589.938	800.000	-0.011	-0.047
-588.923	-200.000	-0.053	-0.325
-587.909	-120.456	-0.091	0.016
-586.894	-87.421	-0.332	-0.102
-585.879	-200.000	0.057	0.294
-584.865	748.167	-0.154	0.418
-583.850	132.343	-0.079	-0.103
-582.836	39.667	-0.064	-0.058
-581.821	72.638	0.025	-0.026
-580.806	761.030	-0.044	0.119
-579.792	83.931	0.228	0.251
-578.777	800.000	0.074	0.294
-577.763	-109.120	-0.267	-0.057
-576.748	30.889	-0.194	-0.168
-575.733	-22.737	-0.075	0.046
-574.719	800.000	0.065	-0.185
-573.704	-122.595	-0.277	0.045
-572.690	34.759	-0.154	-0.136
-571.675	262.829	0.050	-0.088
-570.661	337.100	-0.074	0.144
-569.646	800.000	-0.075	0.303
-568.631	232.950	0.071	0.117
-567.617	-200.000	0.016	-0.146
-566.602	-44.587	0.079	0.040
-565.588	-137.649	-0.168	-0.019
-564.573	61.965	0.166	0.166
-563.558	75.122	0.157	-0.167
-562.544	-85.123	0.176	-0.055
-561.529	246.082	0.083	-0.140
-560.515	41.543	-0.089	0.081
-559.500	-200.000	-0.005	0.197
-558.485	174.572	-0.030	0.044
-557.471	48.506	-0.059	0.055
-556.456	-79.085	-0.260	0.089
-555.442	-135.741	0.323	0.039
-554.427	162.460	-0.034	0.049
-553.412	-144.475	-0.254	0.024
-552.398	-27.094	-0.284	0.167
-551.383	-90.446	-0.056	-0.016
-550.369	-134.807	-0.021	0.003
-549.354	-0.917	-0.307	0.219
-548.339	-126.043	0.180	0.027
-547.325	-200.000	0.030	0.447
-546.310	237.328	-0.031	0.052
-545.296	-200.000	0.039	0.173
-544.281	-197.763	-0.353	-0.002
-543.266	-58.366	0.173	0.076
-542.252	-133.596	-0.215	0.027
-541.237	-146.532	0.204	0.018
-540.223	331.618	-0.081	0.157
-539.208	800.000	-0.065	-0.208
-538.193	-92.701	0.190	-0.054
-537.179	-91.729	-0.152	0.044
-536.164	-103.356	0.188	-0.045
-535.150	214.458	0.149	0.238
-534.135	-44.933	-0.264	-0.133
-533.121	-91.394	0.166	0.048
-532.106	-200.000	-0.003	0.160
-531.091	-102.999	-0.199	0.048
-530.077	800.000	0.091	0.342
-529.062	284.062	0.102	0.185
-528.048	204.779	0.106	-0.166
-527.033	-200.000	0.009	-0.287
-526.018	800.000	-0.118	0.330
-525.004	-157.674	0.272	-0.016
-523.989	-118.803	-0.343	0.061
-522.975	-83.540	-0.133	-0.043
-521.960	751.274	0.132	-0.359
-520.945	-89.235	0.281	-0.083
-519.931	13.703	-0.169	0.132
-518.916	-69.700	0.414	-0.159
-517.902	56.212	-0.175	0.171
-516.887	239.665	-0.053	0.089
-515.872	-34.386	-0.187	0.103
-514.858	-200.000	-0.005	0.058
-513.843	-200.000	-0.017	-0.208
-512.829	800.000	-0.028	-0.115
-511.814	-40.451	-0.407	-0.213
-510.799	800.000	0.060	-0.211
-509.785	-200.000	0.021	-0.221
-508.770	73.396	0.112	0.118
-507.756	-56.074	0.147	-0.066
-506.741	-145.249	-0.231	0.021
-505.726	48.994	0.145	-0.137
-504.712	-95.312	0.217	-0.059
-503.697	29.371	0.140	-0.120
-502.683	-136.794	-0.241	-0.028
-501.668	-42.090	-0.133	-0.069
-500.653	-73.824	-0.096	-0.035
-499.639	81.487	0.131	0.143
-498.624	429.659	0.053	0.116
-497.610	102.306	0.020	0.024
-496.595	-109.997	-0.181	0.038
-495.581	-90.413	0.224	-0.065
-494.566	800.000	0.083	-0.351
-493.551	44.470	-0.254	0.235
-492.537	-142.421	0.529	-0.052
-491.522	-6.545	0.166	0.114
-490.508	-131.194	0.212	0.028
-489.493	-200.000	-0.009	0.199
-488.478	-6.484	-0.045	0.031
-487.464	-100.980	-0.341	-0.084
-486.449	33.473	-0.269	-0.235
-485.435	-93.181	-0.244	0.068
-484.420	800.000	-0.127	0.450
-483.405	-200.000	-0.000	-0.080
-482.391	303.160	-0.067	0.125
-481.376	36.887	0.255	0.227
-480.362	-29.279	-0.198	-0.114
-479.347	-200.000	0.000	0.079
-478.332	-2.865	-0.071	0.050
-477.318	800.000	-0.022	-0.073
-476.303	677.937	-0.167	-0.438
-475.289	60.615	-0.285	-0.284
-474.274	-200.000	-0.017	0.246
-473.259	373.702	-0.127	0.259
-472.245	276.548	-0.053	-0.094
-471.230	-200.000	0.070	-0.379
-470.216	251.698	0.084	0.143
-469.201	127.638	-0.116	-0.149
-468.186	-17.849	-0.165	0.104
-467.172	277.880	-0.101	-0.181
-466.157	64.003	0.196	-0.198
-465.143	-67.946	0.360	0.141
-464.128	90.735	0.118	0.133
-463.113	-61.929	0.131	0.055
-462.099	800.000	0.008	-0.029
-461.084	-81.245	-0.442	0.147
-460.070	-74.032	0.054	0.020
-459.055	-116.956	0.127	0.023
-458.040	-200.000	-0.014	-0.065
-457.026	-200.000	0.011	-0.213
-456.011	-200.000	-0.011	0.093
-454.997	-78.463	-0.186	-0.064
-453.982	116.782	0.308	-0.379
-452.968	18.699	0.202	-0.162
-451.953	-104.559	-0.079	0.018
-450.938	-67.432	0.230	0.091
-449.924	-200.000	0.038	-0.172
-448.909	27.758	0.161	-0.137
-447.895	-22.720	0.235	0.142
-446.880	576.104	0.016	-0.039
-445.865	-79.427	0.166	0.056
-444.851	125.378	-0.101	0.128
-443.836	-136.559	-0.252	0.029
-442.822	117.871	0.026	0.033
-441.807	-83.990	-0.157	-0.050
-440.792	-200.000	0.038	0.245
-439.778	800.000	-0.076	-0.314
-438.763	800.000	-0.058	-0.236
-437.749	249.014	0.138	-0.234
-436.734	-200.000	0.017	0.209
-435.719	-83.549	-0.230	0.074
-434.705	-34.916	0.406	-0.223
-433.690	-70.852	-0.352	0.133
-432.676	800.000	0.026	0.098
-431.661	289.007	0.039	-0.071
-430.646	2.299	0.310	0.225
-429.632	523.471	-0.119	0.282
-428.617	-200.000	0.042	0.251
-427.603	-133.150	-0.035	0.004
-426.588	87.844	0.170	0.189
-425.573	235.779	-0.071	-0.118
-424.559	800.000	0.092	-0.368
-423.544	304.356	-0.148	0.276
-422.530	373.962	0.134	0.274
-421.515	35.137	-0.134	0.118
-420.500	512.490	-0.194	-0.453
-419.486	-200.000	0.069	-0.360
-418.471	22.792	-0.096	0.079
-417.457	170.989	0.088	0.126
-416.442	-67.016	0.481	-0.190
-415.428	480.169	0.107	-0.244
-414.413	-81.389	0.080	-0.026
-413.398	-9.834	0.190	-0.127
-412.384	301.390	-0.153	0.284
-411.369	79.612	-0.030	-0.033
-410.355	51.006	-0.258	0.245
-409.340	601.518	-0.103	0.256
-408.325	50.881	0.186	-0.177
-407.311	-26.193	-0.260	0.153
-406.296	-15.692	0.047	-0.030
-405.282	134.101	0.137	-0.178
-404.267	7.015	-0.273	-0.204
-403.252	-127.533	0.181	0.026
-402.238	-26.012	0.159	0.094
-401.223	-73.838	0.109	-0.040
-400.209	-200.000	0.066	0.420
-399.194	-157.944	0.082	0.005
-398.179	71.779	-0.341	-0.355
-397.165	-200.000	0.040	-0.197
-396.150	-112.452	0.200	-0.040
-395.136	691.469	0.032	-0.085
-394.121	-7.402	-0.107	-0.073
-393.106	19.973	0.075	0.060
-392.092	-127.808	0.207	0.030
-391.077	-150.549	0.050	0.004
-390.063	800.000	-0.026	0.080
-389.048	-141.863	0.038	0.004
-388.033	199.228	-0.068	0.104
-387.019	81.311	0.100	0.108
-386.004	-200.000	0.006	-0.030
-384.990	-87.214	0.364	0.111
-383.975	-200.000	-0.006	-0.057
-382.960	-200.000	-0.020	-0.187
-381.946	426.508	-0.018	-0.039
-380.931	322.172	0.153	-0.292
-379.917	-11.140	-0.037	0.025
-378.902	-132.535	-0.243	0.031
-377.888	800.000	-0.075	-0.227
-376.873	800.000	0.091	0.348
-375.858	297.690	-0.196	0.361
-374.844	-200.000	0.052	-0.449
-373.829	-3.610	-0.307	0.214
-372.815	-200.000	0.015	-0.118
-371.800	-132.680	-0.156	-0.020
-370.785	-4.087	0.229	-0.159
-369.771	-74.578	-0.134	-0.048
-368.756	-84.764	-0.089	0.028
-367.742	77.804	0.105	0.112
-366.727	-26.454	-0.123	0.072
-365.712	-158.827	0.258	-0.015
-364.698	30.607	0.222	-0.190
-363.683	80.401	0.258	-0.278
-362.669	338.869	0.098	-0.191
-361.654	-115.363	-0.281	0.053
-360.639	-200.000	0.013	-0.247
-359.625	359.946	-0.167	-0.335
-358.610	19.558	-0.160	0.129
-357.596	-200.000	0.022	0.653
-356.581	772.426	-0.008	0.021
-355.566	-51.366	0.098	0.046
-354.552	7.556	0.133	0.099
-353.537	-77.647	0.085	-0.029
-352.523	-200.000	-0.004	-0.158
-351.508	301.727	0.197	-0.363
-350.493	-115.490	0.176	-0.033
-349.479	47.534	-0.101	-0.094
-348.464	-131.361	0.289	0.038
-347.450	-200.000	0.001	0.028
-346.435	533.308	0.056	0.133
-345.420	-200.000	-0.008	0.038
-344.406	56.606	-0.118	-0.115
-343.391	800.000	0.147	-0.460
-342.377	-200.000	-0.050	-0.282
-341.362	59.410	-0.121	-0.119
-340.348	309.219	0.036	0.067
-339.333	610.202	-0.021	-0.052
-338.318	4.126	0.120	-0.088
-337.304	261.268	0.088	0.153
-336.289	10.316	0.065	0.050
-335.275	-128.595	0.206	0.029
-334.260	-200.000	0.029	0.202
-333.245	143.590	0.096	0.127
-332.231	-200.000	0.008	0.097
-331.216	-146.534	-0.297	0.026
-330.202	-200.000	-0.006	0.173
-329.187	440.123	0.102	0.223
-328.172	-47.487	-0.104	0.051
-327.158	-200.000	0.002	-0.421
-326.143	-54.465	0.237	0.107
-325.129	-50.220	0.241	0.114
-324.114	44.226	-0.215	0.197
-323.099	103.605	0.091	-0.107
-322.085	-182.844	0.188	0.003
-321.070	-152.377	0.267	-0.019
-320.056	-10.129	-0.378	-0.251
-319.041	342.028	0.143	-0.279
-318.026	-200.000	0.006	-0.106
-317.012	-191.753	-0.187	0.002
-315.997	329.859	0.135	0.260
-314.983	494.651	0.237	0.544
-313.968	477.163	0.068	-0.153
-312.953	489.813	-0.039	0.090
-311.939	800.000	-0.048	0.203
-310.924	800.000	0.122	0.457
-309.910	91.767	0.240	-0.270
-308.895	-200.000	0.007	0.153
-307.880	494.007	0.057	0.131
-306.866	17.358	-0.158	0.125
-305.851	540.904	-0.144	0.343
-304.837	439.691	-0.053	0.115
-303.822	-112.607	-0.204	0.041
-302.807	25.196	-0.130	-0.108
-301.793	737.665	-0.075	0.201
-300.778	61.674	0.309	0.307
-299.764	-145.042	-0.089	0.008
-298.749	-91.527	0.159	-0.045
-297.735	-62.173	-0.216	-0.090
-296.720	338.909	-0.068	0.132
-295.705	-200.000	-0.017	0.090
-294.691	90.312	0.089	-0.100
-293.676	-22.813	0.492	0.297
-292.662	-61.271	0.172	0.072
-291.647	800.000	0.082	0.289
-290.632	-200.000	0.040	0.196
-289.618	63.285	0.164	0.164
-288.603	85.701	-0.063	-0.069
-287.589	181.988	-0.018	0.026
-286.574	-10.747	0.281	-0.185
-285.559	800.000	-0.081	-0.305
-284.545	9.922	-0.056	0.042
-283.530	-0.519	0.411	0.291
-282.516	49.706	0.232	-0.218
-281.501	21.539	0.079	-0.064
-280.486	-97.534	-0.309	-0.080
-279.472	290.645	-0.102	-0.185
-278.457	-147.698	-0.113	-0.009
-277.443	800.000	0.102	-0.292
-276.428	-200.000	-0.031	0.161
-275.413	-200.000	0.010	-0.089
-274.399	-200.000	0.008	0.056
-273.384	-200.000	-0.022	-0.171
-272.370	-118.981	0.330	-0.058
-271.355	-104.643	-0.353	0.081
-270.340	255.004	-0.170	-0.290
-269.326	-200.000	0.006	0.103
-268.311	589.879	0.045	-0.110
-267.297	-200.000	-0.015	0.274
-266.282	309.636	0.076	-0.141
-265.267	260.639	0.026	-0.044
-264.253	-62.731	0.209	-0.087
-263.238	-200.000	-0.004	0.160
-262.224	-200.000	-0.006	0.291
-261.209	26.343	-0.160	-0.133
-260.195	-200.000	-0.020	0.186
-259.180	-89.714	-0.031	0.009
-258.165	10.271	-0.363	-0.275
-257.151	-69.619	0.302	-0.115
-256.136	-59.833	0.287	-0.122
-255.122	-103.810	-0.111	0.026
-254.107	-118.724	-0.207	-0.036
-253.092	123.726	-0.144	0.180
-252.078	-200.000	0.006	-0.161
-251.063	-117.154	-0.152	-0.028
-250.049	-34.158	0.312	-0.171
-249.034	-23.043	0.181	-0.109
-248.019	307.766	0.180	-0.334
-247.005	-23.939	0.120	0.071
-245.990	-200.000	-0.036	0.451
-244.976	800.000	-0.070	0.212
-243.961	-152.860	0.100	0.007
-242.946	-200.000	-0.006	0.113
-241.932	-161.579	-0.257	-0.013
-240.917	-65.206	0.247	-0.099
-239.903	800.000	0.029	-0.086
-238.888	-200.000	-0.034	0.212
-237.873	254.483	0.206	-0.351
-236.859	-63.719	0.299	-0.122
-235.844	-12.407	0.174	0.113
-234.830	-78.179	0.165	0.056
-233.815	-67.947	-0.053	-0.021
-232.800	2.575	-0.124	0.089
-231.786	-200.000	-0.000	-0.156
-230.771	19.038	-0.199	-0.159
-229.757	429.187	0.041	0.089
-228.742	50.740	-0.258	0.243
-227.727	-169.009	-0.186	-0.007
-226.713	393.872	0.092	0.190
-225.698	-26.217	-0.032	0.019
-224.684	53.200	-0.141	-0.135
-223.669	66.003	0.170	-0.172
-222.655	-104.170	-0.236	-0.055
-221.640	-30.251	-0.193	0.109
-220.625	-9.115	-0.265	-0.176
-219.611	257.556	-0.124	-0.212
-218.596	-30.654	0.216	-0.122
-217.582	-27.831	-0.197	-0.113
-216.567	15.934	0.278	0.218
-215.552	-200.000	0.017	-0.162
-214.538	-95.944	-0.306	-0.081
-213.523	-118.880	0.186	0.033
-212.509	-73.156	-0.310	-0.113
-211.494	385.911	0.086	-0.176
-210.479	-36.440	0.106	0.057
-209.465	431.038	0.116	-0.250
-208.450	-69.776	0.345	-0.131
-207.436	800.000	0.062	0.254
-206.421	800.000	-0.049	0.137
-205.406	0.735	0.111	-0.079
-204.392	800.000	-0.023	0.078
-203.377	-111.795	-0.375	-0.075
-202.363	-44.844	-0.021	-0.011
-201.348	50.169	-0.346	0.325
-200.333	-88.491	0.105	-0.031
-199.319	-21.553	-0.179	0.108
-198.304	101.926	0.228	0.264
-197.290	250.232	0.085	0.144
-196.275	13.353	-0.178	-0.137
-195.260	-4.493	0.167	-0.115
-194.246	140.228	-0.200	0.262
-193.231	-72.508	0.120	-0.044
-192.217	-200.000	0.047	-0.216
-191.202	115.215	0.166	0.202
-190.187	311.182	0.056	-0.104
-189.173	800.000	-0.056	0.229
-188.158	477.130	-0.075	0.169
-187.144	800.000	-0.011	0.033
-186.129	-200.000	0.040	-0.214
-185.114	-16.743	0.190	0.119
-184.100	-99.008	0.194	-0.049
-183.085	-21.259	-0.277	0.168
-182.071	-38.659	0.073	0.038
-181.056	-42.069	-0.110	-0.056
-180.042	33.625	-0.064	-0.055
-179.027	246.077	0.128	-0.215
-178.012	180.847	-0.224	0.328
-176.998	15.322	0.079	0.061
-175.983	-200.000	-0.048	-0.488
-174.969	-158.459	-0.239	-0.014
-173.954	157.860	0.107	0.147
-172.939	800.000	-0.127	0.358
-171.925	120.009	0.156	-0.192
-170.910	-6.531	-0.144	0.097
-169.896	-69.910	0.224	0.085
-168.881	-6.819	0.116	0.079
-167.866	-200.000	0.004	-0.410
-166.852	-56.041	-0.135	-0.060
-165.837	30.226	-0.057	-0.048
-164.823	524.646	0.027	-0.064
-163.808	-200.000	-0.052	0.247
-162.793	-200.000	-0.484	-0.001
-161.779	800.000	0.072	-0.228
-160.764	409.723	0.024	0.050
-159.750	126.506	-0.074	-0.093
-158.735	136.063	0.152	0.197
-157.720	104.865	0.097	0.113
-156.706	42.478	0.050	0.046
-155.691	-2.732	-0.181	0.126
-154.677	598.042	0.110	0.271
-153.662	-76.704	-0.262	-0.091
-152.647	-43.657	0.292	-0.146
-151.633	151.087	-0.003	0.004
-150.618	-34.626	-0.190	0.103
-149.604	408.854	-0.047	-0.099
-148.589	800.000	0.069	0.245
-147.574	800.000	-0.075	-0.279
-146.560	-102.312	-0.223	-0.053
-145.545	225.938	-0.168	-0.269
-144.531	-88.958	-0.376	-0.111
-143.516	-103.877	0.095	-0.022
-142.502	-78.994	0.141	0.048
-141.487	-40.645	0.253	0.130
-140.472	450.321	0.087	-0.190
-139.458	-115.134	0.257	-0.048
-138.443	-200.000	0.003	-0.176
-137.429	-80.179	-0.350	0.116
-136.414	48.882	-0.303	-0.282
-135.399	219.507	-0.145	0.230
-134.385	-12.295	-0.234	0.152
-133.370	-3.517	0.244	-0.168
-132.356	-200.000	0.096	-0.555
-131.341	800.000	0.054	-0.212
-130.326	-12.744	0.159	0.103
-129.312	-112.097	-0.208	0.041
-128.297	800.000	-0.074	-0.249
-127.283	444.790	0.127	-0.277
-126.268	25.048	-0.138	-0.114
-125.253	359.598	0.070	0.138
-124.239	111.332	0.215	0.257
-123.224	39.615	-0.125	0.111
-122.210	-200.000	0.055	0.282
-121.195	-36.835	0.155	-0.083
-120.180	-73.428	0.449	-0.163
-119.166	800.000	-0.054	-0.199
-118.151	202.077	0.154	-0.236
-117.137	64.586	0.251	-0.251
-116.122	597.665	-0.039	0.095
-115.107	296.038	0.069	0.126
-114.093	800.000	-0.048	-0.151
-113.078	-200.000	-0.014	0.128
-112.064	-68.240	-0.435	-0.168
-111.049	-200.000	0.023	0.236
-110.034	641.685	-0.047	0.118
-109.020	-50.629	0.067	0.031
-108.005	-66.568	0.289	0.114
-106.991	-63.509	-0.353	0.144
-105.976	800.000	0.061	0.242
-104.962	652.021	-0.058	-0.147
-103.947	-200.000	-0.049	-0.322
-102.932	177.321	-0.100	-0.144
-101.918	-99.761	-0.504	0.125
-100.903	69.460	0.201	-0.205
-99.889	15.633	0.069	-0.054
-98.874	-200.000	0.009	0.070
-97.859	115.495	0.069	0.084
-96.845	96.378	0.047	-0.053
-95.830	-200.000	0.038	-0.346
-94.816	-8.460	0.243	-0.162
-93.801	48.985	0.127	-0.118
-92.786	125.359	0.165	-0.207
-91.772	-194.083	0.138	-0.001
-90.757	-169.472	-0.230	-0.008
-89.743	-200.000	-0.025	-0.170
-88.728	-111.504	0.305	-0.061
-87.713	-200.000	-0.028	-0.374
-86.699	164.134	-0.100	-0.140
-85.684	-64.425	-0.226	0.091
-84.670	-200.000	0.072	-0.325
-83.655	654.484	-0.063	-0.161
-82.640	-113.637	-0.338	0.065
-81.626	-200.000	-0.007	0.356
-80.611	-34.444	0.119	0.065
-79.597	800.000	-0.059	-0.195
-78.582	-25.343	0.375	-0.220
-77.567	-45.982	0.283	0.138
-76.553	102.051	0.134	-0.155
-75.538	106.037	-0.060	0.071
-74.524	-41.699	-0.301	0.153
-73.509	-200.000	-0.007	-0.266
-72.494	-15.532	-0.337	-0.213
-71.480	-98.215	0.163	0.041
-70.465	-200.000	-0.023	-0.200
-69.451	800.000	-0.058	-0.169
-68.436	-156.235	-0.246	-0.015
-67.422	-5.025	0.221	0.150
-66.407	418.679	-0.083	0.175
-65.392	-15.964	0.042	0.026
-64.378	-82.237	-0.076	0.025
-63.363	800.000	-0.011	-0.038
-62.349	-157.870	-0.311	0.018
-61.334	9.485	-1.253	-0.938
-60.319	-42.121	0.295	0.149
-59.305	-200.000	-0.177	-0.959
-58.290	252.776	0.578	0.975
-57.276	232.030	0.959	1.555
-56.261	-200.000	98.160	581.727
-55.246	608.116	1422.576	3509.696
-54.232	181.783	2636.725	3837.733
-53.217	118.328	2217.090	2703.910
-52.203	44.243	1745.482	1583.482
-51.188	36.844	1556.576	1360.328
-50.173	34.445	1529.422	1319.966
-49.159	53.748	1581.050	1500.838
-48.144	56.661	1599.486	1538.767
-47.130	37.186	1555.242	1361.348
-46.115	34.006	1539.283	1325.202
-45.100	33.857	1535.359	1320.738
-44.086	33.858	1533.789	1319.342
-43.071	33.733	1532.108	1316.975
-42.057	33.656	1530.367	1314.896
-41.042	33.687	1529.000	1313.884
-40.027	33.782	1527.921	1313.558
-39.013	33.836	1526.004	1312.232
-37.998	33.719	1524.811	1310.346
-36.984	33.715	1524.022	1309.590
-35.969	33.641	1522.770	1307.947
-34.954	33.702	1520.758	1306.592
-33.940	33.690	1519.665	1305.521
-32.925	33.706	1518.435	1304.521
-31.911	33.807	1516.597	1303.579
-30.896	33.806	1515.575	1302.643
-29.881	33.732	1514.713	1301.345
-28.867	33.755	1513.219	1300.164
-27.852	33.742	1512.022	1298.995
-26.838	33.709	1510.751	1297.629
-25.823	33.722	1508.807	1295.993
-24.809	33.729	1507.090	1294.516
-23.794	33.738	1505.616	1293.261
-22.779	33.843	1503.808	1292.371
-21.765	33.778	1503.109	1291.276
-20.750	33.833	1501.757	1290.441
-19.736	33.744	1500.789	1288.949
-18.721	33.688	1500.430	1288.210
-17.706	33.753	1498.777	1287.181
-16.692	33.677	1497.530	1285.542
-15.677	33.641	1496.985	1284.780
-14.663	33.588	1496.105	1283.618
-13.648	33.712	1494.698	1283.199
-12.633	33.645	1493.820	1281.942
-11.619	33.728	1492.381	1281.216
-10.604	33.654	1492.326	1280.618
-9.590	33.635	1491.216	1279.487
-8.575	33.562	1490.479	1278.311
-7.560	33.643	1489.565	1278.019
-6.546	33.685	1488.203	1277.087
-5.531	33.579	1487.945	1276.102
-4.517	33.610	1486.779	1275.254
-3.502	33.610	1486.100	1274.626
-2.487	33.662	1484.633	1273.664
-1.473	33.697	1483.654	1273.008
-0.458	33.670	1482.355	1271.665
0.556	35.993	1473.341	1262.470
1.571	33.139	1446.928	1221.323
2.586	29.502	1384.533	1146.023
3.600	27.615	1300.945	1065.718
4.615	25.145	1253.293	1012.662
5.629	21.216	1195.002	944.279
6.644	12.611	1108.288	832.337
7.659	5.868	1066.410	767.904
8.673	4.831	1060.737	758.704
9.688	4.605	1057.914	755.520
10.702	4.371	1056.069	752.996
11.717	4.624	1054.063	752.725
12.731	7.871	1058.172	771.352
13.746	16.478	1070.503	822.310
14.761	22.271	1077.571	855.943
15.775	22.456	1076.774	856.135
16.790	21.775	1074.593	851.022
17.804	20.678	1072.663	844.098
18.819	19.775	1070.997	838.336
19.834	19.322	1069.739	835.083
20.848	19.277	1068.388	833.737
21.863	19.149	1067.998	832.738
22.877	19.071	1066.915	831.447
23.892	18.884	1066.366	830.040
24.907	18.756	1065.735	828.859
25.921	18.761	1065.166	828.365
26.936	18.638	1064.370	827.079
27.950	18.738	1062.651	826.155
28.965	18.668	1061.803	825.087
29.980	18.757	1061.073	824.872
30.994	18.968	1060.054	825.021
32.009	19.033	1059.082	824.500
33.023	19.183	1058.165	824.433
34.038	19.098	1057.593	823.509
35.053	18.989	1056.643	822.172
36.067	18.991	1055.437	821.172
37.082	18.842	1055.038	820.075
38.096	18.908	1053.662	819.249
39.111	18.932	1053.262	818.983
40.126	19.061	1052.347	818.810
41.140	18.846	1051.732	817.235
42.155	18.646	1050.097	814.943
43.169	18.419	1048.886	812.858
44.184	18.469	1047.892	812.250
45.199	18.342	1046.842	810.763
46.213	18.362	1045.448	809.709
47.228	18.633	1044.829	810.439
48.242	18.770	1044.232	810.549
49.257	18.857	1043.455	810.283
50.271	18.766	1042.662	809.167
51.286	18.794	1041.400	808.250
52.301	18.954	1040.624	808.328
53.315	18.913	1040.267	807.785
54.330	18.764	1039.330	806.285
55.344	18.681	1038.117	804.886
56.359	18.546	1037.284	803.535
57.374	18.596	1036.575	803.149
58.388	18.585	1035.907	802.507
59.403	18.375	1034.713	800.533
60.417	18.380	1033.807	799.783
61.432	18.433	1032.744	799.136
62.447	18.343	1032.634	798.562
63.461	18.246	1031.518	797.176
64.476	18.282	1030.266	796.304
65.490	18.175	1029.282	794.977
66.505	18.137	1028.856	794.401
67.520	18.221	1028.054	794.102
68.534	18.330	1027.119	793.816
69.549	18.390	1026.430	793.488
70.563	18.320	1025.736	792.559
71.578	18.113	1024.886	790.874
72.593	18.166	1023.944	790.323
73.607	18.032	1022.567	788.572
74.622	18.056	1021.569	787.843
75.636	18.012	1020.744	786.935
76.651	18.078	1020.202	786.749
77.666	18.172	1019.361	786.467
78.680	18.148	1018.648	785.736
79.695	18.177	1018.081	785.363
80.709	18.104	1017.597	784.585
81.724	18.219	1017.138	784.690
82.739	18.345	1016.566	784.755
83.753	18.458	1015.604	784.458
84.768	18.756	1014.996	785.285
85.782	19.079	1014.377	786.211
86.797	19.227	1013.697	786.288
87.812	19.204	1012.827	785.441
88.826	18.934	1012.290	783.726
89.841	18.951	1011.038	782.765
90.855	19.024	1010.384	782.519
91.870	18.990	1009.713	781.775
92.884	19.133	1009.048	781.842
93.899	18.962	1008.708	780.732
94.914	19.042	1007.699	780.245
95.928	19.058	1007.027	779.728
96.943	19.252	1005.931	779.687
97.957	19.029	1005.110	777.974
98.972	18.954	1004.145	776.820
99.987	19.011	1003.583	776.573
101.001	19.014	1002.890	775.984
102.016	19.067	1001.769	775.284
103.030	18.888	1001.251	774.010
104.045	18.935	999.869	773.083
105.060	19.081	999.101	773.079
106.074	19.009	997.755	771.645
107.089	18.664	997.003	769.448
108.103	18.311	996.137	767.133
109.118	18.284	995.371	766.352
110.133	18.430	993.626	765.592
111.147	18.355	992.840	764.585
112.162	18.179	992.182	763.228
113.176	18.288	991.724	763.292
114.191	18.472	989.982	762.705
115.206	18.483	990.008	762.703
116.220	18.529	989.102	762.142
117.235	18.317	988.425	760.614
118.249	18.383	987.438	760.078
119.264	18.344	986.623	759.213
120.279	18.236	985.734	757.983
121.293	18.244	984.910	757.318
122.308	18.214	984.202	756.572
123.322	18.062	983.181	755.050
124.337	17.940	982.176	753.672
125.352	18.010	980.646	752.740
126.366	18.137	979.450	752.315
127.381	18.130	978.671	751.620
128.395	18.086	977.840	750.722
129.410	18.115	977.008	750.144
130.424	18.085	976.140	749.279
131.439	18.152	975.489	749.004
132.454	18.306	975.029	749.261
133.468	18.426	973.993	748.921
134.483	18.440	973.592	748.609
135.497	18.459	972.858	748.060
136.512	18.428	972.112	747.286
137.527	18.479	971.176	746.721
138.541	18.476	970.786	746.344
139.556	18.436	969.821	745.362
140.570	18.444	969.171	744.833
141.585	18.725	968.694	745.620
142.600	18.943	967.824	745.830
143.614	18.901	967.280	745.161
144.629	18.945	966.202	744.457
145.643	18.950	965.942	744.210
146.658	19.062	964.523	743.538
147.673	18.848	963.586	741.827
148.687	18.700	962.520	740.302
149.702	18.714	961.376	739.416
150.716	18.516	960.704	737.980
151.731	18.389	960.031	736.852
152.746	18.503	959.065	736.534
153.760	18.499	958.536	736.047
154.775	18.490	957.748	735.339
155.789	18.681	956.853	735.403
156.804	18.691	956.530	735.135
157.819	18.717	955.314	734.245
158.833	18.799	954.444	733.861
159.848	18.918	954.197	734.115
160.862	18.967	953.753	733.917
161.877	18.898	953.428	733.310
162.892	18.694	951.884	731.186
163.906	18.469	950.488	729.092
164.921	18.548	949.705	728.764
165.935	18.443	948.808	727.566
166.950	18.492	947.834	726.963
167.964	18.716	947.080	727.268
168.979	18.677	946.065	726.261
169.994	18.667	944.801	725.181
171.008	18.594	943.975	724.178
172.023	18.622	943.183	723.624
173.037	18.646	942.761	723.338
174.052	18.945	941.996	723.943
175.067	19.020	941.121	723.522
176.081	18.576	940.826	721.367
177.096	18.489	939.342	719.798
178.110	18.451	938.448	718.889
179.125	18.520	937.434	718.341
180.140	18.652	936.863	718.392
181.154	18.744	936.160	718.174
182.169	18.779	936.193	718.282
183.183	18.893	935.139	717.884
184.198	19.047	934.661	718.098
185.213	18.884	934.428	717.176
186.227	18.954	933.691	716.836
187.242	18.931	933.227	716.321
188.256	19.071	932.761	716.485
189.271	19.020	932.241	715.809
190.286	19.266	931.350	716.084
191.300	19.042	930.025	714.072
192.315	18.541	928.941	711.101
193.329	18.341	927.916	709.423
194.344	18.418	927.517	709.374
195.359	18.691	926.687	709.804
196.373	18.638	926.560	709.427
197.388	18.803	926.367	709.899
198.402	18.975	925.975	710.244
199.417	19.161	925.769	710.793
200.432	19.351	925.357	711.196
201.446	19.533	924.750	711.418
202.461	19.291	925.039	710.580
203.475	19.488	924.150	710.646
204.490	19.791	922.886	710.854
205.504	19.320	921.971	708.154
206.519	19.097	920.905	706.355
207.534	19.125	920.181	705.855
208.548	19.122	919.256	705.071
209.563	19.096	919.173	704.835
210.577	19.145	918.460	704.427
211.592	19.126	917.447	703.510
212.607	19.321	917.198	704.052
213.621	19.444	916.776	704.170
214.636	19.293	916.141	703.006
215.650	19.363	915.468	702.710
216.665	19.368	914.842	702.190
217.680	19.485	914.134	702.058
218.694	19.478	914.419	702.189
219.709	19.502	913.230	701.311
220.723	19.488	912.780	700.844
221.738	19.538	911.872	700.290
222.753	19.494	911.056	699.422
223.767	19.414	910.193	698.375
224.782	19.504	909.883	698.438
225.796	19.711	909.459	698.890
226.811	19.753	908.620	698.350
227.826	19.694	907.666	697.317
228.840	19.395	907.288	695.759
229.855	19.318	906.233	694.580
230.869	19.438	905.504	694.441
231.884	19.438	904.838	693.870
232.899	19.291	904.241	692.759
233.913	19.158	903.469	691.574
234.928	19.198	902.568	690.985
235.942	19.148	902.119	690.378
236.957	19.315	900.835	690.003
237.972	19.156	900.729	689.223
238.986	19.225	900.111	688.966
240.001	19.210	899.299	688.223
241.015	19.242	898.734	687.858
242.030	19.366	898.165	687.855
243.045	19.299	897.754	687.214
244.059	19.459	896.923	687.156
245.074	19.555	895.992	686.761
246.088	19.398	896.138	686.189
247.103	19.575	895.347	686.225
248.117	19.616	894.804	685.912
249.132	19.693	894.842	686.183
250.147	19.785	894.666	686.354
251.161	20.178	893.756	687.155
252.176	20.233	893.378	687.019
253.190	20.228	892.488	686.255
254.205	20.303	892.388	686.413
255.220	20.607	891.059	686.532
256.234	20.457	890.510	685.455
257.249	20.412	889.934	684.772
258.263	20.310	889.562	684.026
259.278	20.316	888.611	683.259
260.293	20.149	888.572	682.509
261.307	20.368	887.826	682.737
262.322	20.531	887.149	682.797
263.336	20.490	886.543	682.109
264.351	20.530	885.939	681.740
265.366	20.689	884.987	681.573
266.380	20.643	884.609	681.041
267.395	20.491	883.770	679.737
268.409	20.539	882.960	679.245
269.424	20.419	882.250	678.169
270.439	20.281	881.954	677.341
271.453	20.303	880.929	676.580
272.468	20.256	880.085	675.689
273.482	20.251	879.289	675.000
274.497	20.097	879.366	674.401
275.512	20.262	878.080	673.995
276.526	20.401	877.180	673.785
277.541	20.288	876.938	673.101
278.555	20.348	876.390	672.851
279.570	20.423	876.021	672.798
280.585	20.588	875.630	673.079
281.599	20.650	875.151	672.890
282.614	20.409	874.724	671.570
283.628	20.325	873.945	670.591
284.643	20.203	873.144	669.443
285.657	20.378	872.585	669.632
286.672	20.360	872.292	669.279
287.687	20.359	871.501	668.606
288.701	20.404	871.108	668.420
289.716	20.510	870.770	668.508
290.730	20.338	870.114	667.285
291.745	20.375	869.371	666.798
292.760	20.487	868.614	666.588
293.774	20.512	867.953	666.121
294.789	20.516	868.016	666.122
295.803	20.712	867.201	666.189
296.818	20.606	866.107	664.886
297.833	20.597	865.308	664.179
298.847	20.481	864.900	663.363
299.862	20.470	864.044	662.605
300.876	20.624	863.615	662.808
301.891	20.759	862.755	662.601
302.906	20.717	862.578	662.245
303.920	21.092	861.483	662.773
304.935	21.046	861.248	662.359
305.949	21.034	861.004	662.066
306.964	21.103	860.182	661.635
307.979	20.834	859.510	660.043
308.993	20.815	858.918	659.458
310.008	21.099	858.084	659.831
311.022	20.953	858.128	659.256
312.037	20.876	857.662	658.550
313.052	20.683	857.097	657.328
314.066	20.590	855.822	655.942
315.081	20.439	855.198	654.835
316.095	20.473	854.909	654.685
317.110	20.524	854.148	654.234
318.125	20.515	853.449	653.609
319.139	20.511	853.145	653.302
320.154	20.500	852.735	652.889
321.168	20.512	851.895	652.235
322.183	20.629	851.653	652.430
323.197	20.684	851.035	652.103
324.212	20.759	850.517	651.931
325.227	20.735	850.026	651.406
326.241	20.750	849.581	651.065
327.256	20.675	849.033	650.307
328.270	20.686	848.740	650.067
329.285	20.684	847.649	649.166
330.300	20.722	846.920	648.690
331.314	20.645	846.359	647.916
332.329	20.636	846.033	647.576
333.343	20.803	845.342	647.610
334.358	20.871	845.225	647.717
335.373	20.946	844.513	647.393
336.387	20.961	843.865	646.896
337.402	20.958	843.290	646.387
338.416	21.027	842.924	646.302
339.431	21.240	842.431	646.658
340.446	21.316	841.866	646.446
341.460	21.362	841.184	646.036
342.475	21.353	841.009	645.811
343.489	21.451	840.331	645.595
344.504	21.623	839.616	645.624
345.519	21.643	839.229	645.343
346.533	21.572	839.007	644.852
347.548	21.707	838.179	644.655
348.562	21.378	837.414	642.800
349.577	21.294	836.734	641.914
350.592	21.085	836.263	640.728
351.606	21.134	835.707	640.427
352.621	20.987	835.304	639.523
353.635	20.899	835.180	639.049
354.650	21.108	834.385	639.148
355.665	21.131	834.234	639.060
356.679	21.308	833.687	639.233
357.694	21.350	833.048	638.838
358.708	21.375	832.820	638.697
359.723	21.224	832.147	637.577
360.738	21.194	831.739	637.096
361.752	21.290	830.950	636.785
362.767	21.416	830.702	636.999
363.781	21.456	830.393	636.852
364.796	21.676	829.924	637.236
365.810	21.658	829.592	636.859
366.825	21.846	829.249	637.223
367.840	21.933	828.550	636.943
368.854	21.905	828.589	636.814
369.869	21.693	828.158	635.657
370.883	21.657	827.093	634.654
371.898	21.637	826.630	634.171
372.913	21.613	826.223	633.717
373.927	21.834	825.545	633.938
374.942	21.846	824.725	633.297
375.956	21.794	823.979	632.481
376.971	21.834	823.405	632.129
377.986	21.937	823.477	632.496
379.000	22.058	822.979	632.497
380.015	22.154	822.530	632.441
381.029	22.077	821.828	631.567
382.044	22.094	821.230	631.114
383.059	22.028	820.527	630.280
384.073	22.094	819.735	629.854
385.088	21.995	819.434	629.209
386.102	21.865	818.400	627.895
387.117	21.749	818.097	627.193
388.132	21.654	817.890	626.637
389.146	21.601	817.317	625.954
390.161	21.736	817.113	626.225
391.175	21.847	816.807	626.331
392.190	21.922	816.396	626.230
393.205	22.050	815.279	625.772
394.219	21.840	814.893	624.673
395.234	21.856	814.738	624.556
396.248	21.672	813.991	623.274
397.263	21.641	813.258	622.546
398.278	21.388	813.198	621.547
399.292	21.444	812.312	621.015
400.307	21.404	812.063	620.626
401.321	21.634	811.626	621.053
402.336	21.646	811.019	620.574
403.350	21.668	810.746	620.392
404.365	21.747	810.399	620.351
405.380	21.965	809.834	620.632
406.394	22.239	809.267	621.113
407.409	22.176	809.179	620.767
408.423	22.203	808.906	620.599
409.438	22.332	808.387	620.600
410.453	22.239	808.403	620.229
411.467	22.238	807.512	619.485
412.482	22.405	807.312	619.866
413.496	22.418	806.719	619.402
414.511	22.629	806.530	619.945
415.526	22.523	806.153	619.227
416.540	22.402	805.549	618.282
417.555	22.502	805.113	618.244
418.569	22.412	804.883	617.697
419.584	22.442	803.903	616.998
420.599	22.592	803.562	617.205
421.613	160.006	1368.989	1790.366
422.628	139.032	1451.371	1790.461
