DTS Sentinel unit serial number:	SN413079Multiplexer serial number:	ORYXHardware model number:	OX4-SRSoftware version number:	ORYX F/W v4.00 Oryx Data Collector v3.7.2.0data status	okinstallation	princeton_trtdifferential loss correction	single-endedforward channel	channel 3reverse channel	N/Adate	2019/09/13time	09:24:34forward acquisition time	60.00reverse acquisition time	0.00gamma	496.2192k internal	0.2325k external	0.2325temperature offset calibration	1.0139default loss term (dB/km)	0.3790temperature slope calibration	1.0000multiplexer offset coefficient	1.0000multiplexer slope coefficient	1.0000fibre end	0.00T internal ref (°C)	29.31T ext. ref 1 (°C)	4.41T ext. ref 2 (°C)	26.23length (m)	temperature (°C)	Stokes	anti-Stokes-747.200	-166.437	0.402	0.017
-746.185	-200.000	0.006	0.434
-745.171	-143.494	-0.136	0.013
-744.156	-200.000	-0.004	0.161
-743.142	208.876	-0.047	-0.074
-742.127	382.857	-0.073	-0.151
-741.112	-50.285	0.404	0.193
-740.098	183.982	0.159	0.238
-739.083	-61.126	-0.098	-0.042
-738.069	-95.415	0.393	-0.106
-737.054	689.262	0.205	0.540
-736.039	800.000	0.017	0.069
-735.025	107.341	-0.105	0.126
-734.010	800.000	0.089	-0.261
-732.996	249.503	-0.123	0.211
-731.981	119.696	-0.150	-0.187
-730.966	18.026	-0.187	0.150
-729.952	-131.188	-0.218	0.029
-728.937	103.889	0.097	-0.115
-727.923	800.000	0.032	0.132
-726.908	-107.325	0.032	0.007
-725.894	-147.497	0.089	0.008
-724.879	202.466	0.010	-0.016
-723.864	-112.211	0.383	0.077
-722.850	6.041	-0.175	0.131
-721.835	-200.000	-0.076	0.505
-720.821	-178.706	-0.222	0.005
-719.806	179.768	-0.081	0.119
-718.791	-84.044	-0.315	-0.101
-717.777	-200.000	-0.012	0.159
-716.762	-25.759	-0.117	-0.069
-715.748	-46.318	-0.185	0.092
-714.733	-42.264	0.095	0.049
-713.718	-119.210	0.192	-0.034
-712.704	-38.464	-0.015	-0.008
-711.689	125.787	-0.172	-0.219
-710.675	-108.955	-0.235	0.050
-709.660	134.718	0.157	-0.205
-708.645	-61.883	-0.123	0.052
-707.631	9.346	-0.244	-0.186
-706.616	800.000	0.054	0.161
-705.602	586.407	0.059	0.145
-704.587	76.563	-0.304	0.325
-703.572	-145.982	0.244	-0.022
-702.558	800.000	0.077	-0.228
-701.543	-163.440	0.145	-0.007
-700.529	-200.000	0.010	-0.089
-699.514	69.006	-0.044	-0.046
-698.499	368.302	0.089	-0.181
-697.485	-200.000	0.025	0.272
-696.470	338.512	-0.046	-0.089
-695.456	-200.000	0.011	0.067
-694.441	-20.985	-0.171	-0.105
-693.426	7.240	-0.099	-0.074
-692.412	-35.063	0.274	-0.150
-691.397	182.526	-0.201	0.299
-690.383	112.063	-0.088	-0.107
-689.368	87.628	-0.233	-0.260
-688.354	445.050	-0.119	-0.264
-687.339	-150.039	0.301	0.024
-686.324	122.676	-0.140	-0.176
-685.310	-158.508	-0.383	0.022
-684.295	-81.101	0.206	-0.069
-683.281	-63.201	-0.264	-0.110
-682.266	191.038	-0.189	-0.286
-681.251	-91.826	0.223	0.064
-680.237	-200.000	-0.011	-0.114
-679.222	13.627	-0.057	-0.045
-678.208	33.649	-0.051	0.044
-677.193	800.000	0.090	-0.272
-676.178	-23.443	0.196	0.118
-675.164	303.235	-0.111	-0.206
-674.149	-146.515	-0.048	0.004
-673.135	-200.000	0.017	0.145
-672.120	-176.475	-0.185	-0.005
-671.105	92.671	-0.094	0.106
-670.091	-94.402	-0.241	-0.066
-669.076	253.328	0.205	-0.352
-668.062	63.521	-0.140	0.142
-667.047	-68.960	0.165	0.064
-666.032	31.498	0.141	0.122
-665.018	646.951	0.121	0.311
-664.003	-110.333	-0.241	-0.050
-662.989	-20.217	0.121	-0.075
-661.974	245.523	-0.171	-0.290
-660.959	-94.468	-0.277	-0.076
-659.945	181.538	0.086	0.127
-658.930	503.523	0.011	-0.026
-657.916	69.130	0.147	0.152
-656.901	162.274	0.126	0.178
-655.886	-6.271	-0.197	-0.135
-654.872	-103.724	-0.298	0.070
-653.857	-200.000	-0.016	-0.100
-652.843	-135.385	-0.321	-0.039
-651.828	52.551	-0.189	0.182
-650.814	-162.604	-0.167	-0.008
-649.799	800.000	-0.032	0.118
-648.784	-69.689	0.308	0.118
-647.770	800.000	0.057	0.210
-646.755	71.861	0.119	0.124
-645.741	-76.691	-0.356	0.126
-644.726	328.201	0.043	-0.083
-643.711	212.668	-0.110	0.174
-642.697	24.579	0.380	-0.316
-641.682	-67.652	-0.179	-0.071
-640.668	-102.231	-0.233	-0.056
-639.653	-15.854	-0.274	-0.175
-638.638	6.076	-0.063	-0.047
-637.624	211.223	-0.221	-0.350
-636.609	800.000	0.045	0.134
-635.595	-91.874	0.168	0.048
-634.580	-200.000	0.036	-0.251
-633.565	633.051	0.128	-0.325
-632.551	-63.145	0.096	-0.040
-631.536	800.000	0.064	-0.230
-630.522	140.178	0.177	-0.235
-629.507	62.412	-0.232	0.232
-628.492	-200.000	-0.037	-0.234
-627.478	800.000	0.039	0.117
-626.463	-185.098	-0.190	0.003
-625.449	-200.000	-0.029	-0.217
-624.434	-79.523	0.081	0.028
-623.419	800.000	-0.054	-0.222
-622.405	171.821	0.025	0.037
-621.390	-155.376	0.213	-0.014
-620.376	-112.227	-0.113	-0.023
-619.361	-7.924	-0.018	0.012
-618.346	422.958	0.141	-0.304
-617.332	-142.881	-0.218	0.021
-616.317	200.254	0.154	0.238
-615.303	-200.000	-0.001	0.202
-614.288	27.153	-0.113	0.095
-613.273	305.683	-0.148	-0.276
-612.259	318.942	-0.186	-0.355
-611.244	800.000	0.101	-0.315
-610.230	-91.971	0.113	0.032
-609.215	-132.382	0.303	-0.039
-608.201	-184.827	-0.280	0.004
-607.186	-174.840	-0.407	0.011
-606.171	-192.257	-0.200	-0.002
-605.157	800.000	-0.028	-0.089
-604.142	-125.224	0.147	-0.023
-603.128	-200.000	0.033	0.288
-602.113	123.862	0.047	0.059
-601.098	-63.903	0.189	0.078
-600.084	-132.190	-0.347	0.045
-599.069	-200.000	0.020	0.307
-598.055	-200.000	-0.008	0.044
-597.040	30.870	0.278	0.239
-596.025	84.652	0.151	0.166
-595.011	800.000	-0.057	-0.212
-593.996	-22.170	0.197	0.120
-592.982	-200.000	-0.014	0.215
-591.967	-153.734	0.383	0.026
-590.952	736.038	-0.056	0.151
-589.938	-150.790	-0.111	-0.008
-588.923	-200.000	-0.008	0.052
-587.909	-87.416	-0.193	-0.059
-586.894	324.120	0.040	-0.077
-585.879	-29.041	-0.114	0.065
-584.865	381.231	0.146	0.301
-583.850	37.677	-0.070	-0.062
-582.836	3.894	-0.062	-0.045
-581.821	800.000	-0.087	-0.273
-580.806	146.273	-0.073	-0.098
-579.792	-44.648	-0.247	0.124
-578.777	34.344	0.136	0.119
-577.763	-73.568	0.103	-0.037
-576.748	-200.000	0.029	0.212
-575.733	69.120	-0.086	0.088
-574.719	-189.051	-0.068	-0.001
-573.704	59.165	-0.130	-0.128
-572.690	-200.000	-0.024	-0.109
-571.675	-131.154	-0.400	-0.053
-570.661	800.000	0.008	-0.025
-569.646	-57.367	0.386	0.170
-568.631	-49.801	0.152	-0.072
-567.617	-43.981	-0.103	-0.052
-566.602	-49.373	-0.490	-0.234
-565.588	-16.999	0.055	0.035
-564.573	257.962	0.083	0.142
-563.558	103.727	-0.259	-0.304
-562.544	229.050	-0.209	-0.342
-561.529	117.879	0.133	-0.164
-560.515	207.074	-0.065	0.101
-559.500	800.000	0.080	0.256
-558.485	-200.000	0.048	0.520
-557.471	542.130	-0.077	-0.183
-556.456	-200.000	0.008	0.170
-555.442	150.381	0.122	0.166
-554.427	19.649	-0.236	0.190
-553.412	39.430	-0.101	0.091
-552.398	-181.046	-0.284	-0.006
-551.383	-200.000	-0.033	0.336
-550.369	59.610	0.089	-0.088
-549.354	-26.409	0.115	0.068
-548.339	-9.534	-0.180	-0.120
-547.325	800.000	-0.109	0.319
-546.310	-120.557	-0.234	-0.040
-545.296	-140.411	0.282	-0.029
-544.281	125.061	0.180	-0.227
-543.266	138.251	-0.060	0.079
-542.252	-143.943	0.330	0.031
-541.237	-191.805	-0.028	-0.000
-540.223	42.781	0.080	0.073
-539.208	9.656	0.126	0.095
-538.193	43.727	0.052	0.048
-537.179	60.272	0.271	-0.269
-536.164	310.406	-0.160	0.300
-535.150	-22.079	0.143	-0.087
-534.135	-103.120	0.280	-0.066
-533.121	222.400	-0.126	-0.203
-532.106	-130.156	0.337	-0.046
-531.091	800.000	0.051	-0.198
-530.077	-29.469	0.278	0.159
-529.062	94.426	-0.184	-0.209
-528.048	-164.621	0.335	-0.015
-527.033	387.400	-0.135	0.278
-526.018	25.786	0.138	-0.115
-525.004	-48.573	-0.331	0.159
-523.989	3.872	-0.262	0.191
-522.975	-109.122	-0.082	0.017
-521.960	-92.124	-0.171	-0.048
-520.945	-20.069	0.332	0.205
-519.931	196.440	0.083	0.127
-518.916	40.993	-0.123	0.111
-517.902	-200.000	-0.062	0.287
-516.887	255.338	-0.121	-0.207
-515.872	60.974	0.206	-0.204
-514.858	-16.774	0.223	-0.141
-513.843	37.427	0.141	0.125
-512.829	-44.881	0.472	-0.235
-511.814	-68.040	-0.206	-0.080
-510.799	-1.494	-0.080	0.057
-509.785	97.694	0.146	-0.168
-508.770	-102.569	-0.371	0.089
-507.756	-78.802	-0.099	0.034
-506.741	109.537	0.123	-0.147
-505.726	-153.231	-0.175	0.012
-504.712	-17.969	-0.244	0.153
-503.697	-171.187	0.015	-0.001
-502.683	800.000	-0.077	0.323
-501.668	-60.325	-0.015	-0.006
-500.653	281.067	-0.033	0.059
-499.639	-172.623	0.318	0.010
-498.624	-85.397	0.297	0.092
-497.610	-104.195	-0.349	0.081
-496.595	120.733	0.110	0.137
-495.581	12.582	0.186	-0.144
-494.566	56.998	0.125	-0.122
-493.551	-145.475	-0.311	-0.028
-492.537	-200.000	-0.007	0.145
-491.522	-27.808	0.297	-0.172
-490.508	-108.460	-0.118	0.025
-489.493	515.105	-0.013	-0.030
-488.478	45.508	0.384	0.354
-487.464	-103.949	-0.115	-0.027
-486.449	206.703	0.114	-0.178
-485.435	-73.523	0.272	0.099
-484.420	131.936	0.166	0.213
-483.405	8.764	-0.155	0.116
-482.391	-21.369	-0.356	-0.217
-481.376	196.976	-0.208	-0.317
-480.362	-87.151	0.094	0.028
-479.347	-99.518	0.197	0.049
-478.332	-116.044	0.050	0.009
-477.318	-200.000	-0.038	-0.248
-476.303	176.924	-0.129	0.188
-475.289	15.658	-0.248	0.195
-474.274	-200.000	0.034	0.172
-473.259	175.093	-0.113	-0.163
-472.245	489.224	-0.056	0.129
-471.230	-200.000	0.000	-0.065
-470.216	170.137	-0.098	-0.140
-469.201	-156.311	0.233	0.015
-468.186	14.829	-0.156	-0.122
-467.172	800.000	0.056	-0.161
-466.157	6.181	0.131	-0.097
-465.143	-200.000	0.001	-0.398
-464.128	386.202	0.080	0.166
-463.113	362.446	-0.086	0.172
-462.099	-200.000	-0.010	0.127
-461.084	-50.098	-0.298	0.141
-460.070	217.514	0.259	0.412
-459.055	24.364	0.047	0.039
-458.040	331.322	-0.098	-0.188
-457.026	97.396	-0.039	0.045
-456.011	286.646	0.210	0.378
-454.997	-64.459	-0.245	-0.099
-453.982	800.000	-0.048	0.152
-452.968	129.535	0.228	-0.291
-451.953	-61.350	-0.285	-0.120
-450.938	800.000	0.024	-0.098
-449.924	-155.394	-0.247	-0.016
-448.909	229.608	0.177	0.289
-447.895	-200.000	0.081	0.377
-446.880	105.328	-0.107	0.126
-445.865	-34.069	0.066	-0.036
-444.851	577.592	-0.150	-0.366
-443.836	800.000	-0.065	0.211
-442.822	447.474	0.103	0.227
-441.807	523.810	0.097	0.228
-440.792	-32.837	-0.198	-0.110
-439.778	-113.016	-0.181	0.036
-438.763	78.024	0.093	-0.099
-437.749	-200.000	0.012	-0.118
-436.734	-95.801	-0.146	0.039
-435.719	-59.205	-0.354	0.152
-434.705	382.468	-0.117	-0.239
-433.690	-1.033	-0.249	0.175
-432.676	9.759	-0.196	-0.148
-431.661	-200.000	-0.022	0.193
-430.646	115.234	0.150	0.182
-429.632	-200.000	-0.005	-0.259
-428.617	-200.000	-0.011	-0.203
-427.603	226.347	0.113	0.182
-426.588	-200.000	0.001	-0.088
-425.573	324.870	0.060	-0.114
-424.559	800.000	0.138	0.416
-423.544	800.000	0.031	0.086
-422.530	-45.979	-0.351	-0.172
-421.515	5.359	-0.122	-0.090
-420.500	160.423	-0.192	0.266
-419.486	353.907	0.071	0.140
-418.471	458.563	-0.048	-0.107
-417.457	-167.149	-0.128	-0.005
-416.442	62.784	0.146	0.145
-415.428	631.612	-0.104	-0.261
-414.413	354.956	0.119	-0.235
-413.398	365.785	-0.063	0.126
-412.384	-200.000	0.024	-0.148
-411.369	-64.587	-0.217	-0.088
-410.355	12.036	0.195	-0.149
-409.340	800.000	-0.162	0.591
-408.325	737.856	0.023	0.063
-407.311	800.000	0.065	-0.247
-406.296	-9.523	0.241	-0.160
-405.282	-35.457	0.040	-0.022
-404.267	44.565	-0.148	0.136
-403.252	800.000	-0.024	-0.083
-402.238	-46.349	-0.406	-0.198
-401.223	800.000	0.066	-0.243
-400.209	-47.573	-0.145	0.070
-399.194	-157.237	0.282	-0.017
-398.179	88.805	0.251	-0.278
-397.165	164.215	0.238	0.334
-396.150	-200.000	-0.016	-0.140
-395.136	-105.605	-0.237	0.054
-394.121	268.893	0.162	0.283
-393.106	-37.275	-0.194	-0.103
-392.092	-58.394	-0.097	-0.042
-391.077	-119.160	-0.119	0.021
-390.063	-14.000	0.254	0.163
-389.048	-200.000	0.029	-0.174
-388.033	21.053	-0.195	0.158
-387.019	800.000	0.083	-0.242
-386.004	766.085	0.085	-0.231
-384.990	-43.869	0.371	0.186
-383.975	-200.000	0.041	0.333
-382.960	-195.468	-0.240	-0.002
-381.946	-42.811	-0.088	-0.045
-380.931	-135.861	-0.050	-0.006
-379.917	-39.042	-0.066	0.034
-378.902	-21.292	0.353	0.215
-377.888	391.920	-0.029	0.060
-376.873	203.390	-0.077	-0.119
-375.858	-166.808	0.288	-0.012
-374.844	168.515	-0.043	0.061
-373.829	64.816	0.257	-0.258
-372.815	96.510	0.335	-0.382
-371.800	84.926	-0.135	0.148
-370.785	800.000	-0.048	0.149
-369.771	-174.588	-0.097	0.003
-368.756	-200.000	0.135	0.000
-367.742	-79.673	0.096	-0.032
-366.727	-178.023	-0.056	-0.001
-365.712	-191.075	0.180	-0.002
-364.698	-200.000	0.012	0.074
-363.683	-147.085	-0.142	0.012
-362.669	265.360	0.049	-0.085
-361.654	800.000	-0.146	-0.422
-360.639	201.302	0.149	0.227
-359.625	-200.000	-0.078	-0.394
-358.610	-130.778	0.349	0.047
-357.596	297.352	-0.120	-0.220
-356.581	-200.000	-0.003	-0.136
-355.566	185.559	-0.065	-0.096
-354.552	515.911	0.056	-0.129
-353.537	-112.858	-0.037	-0.007
-352.523	-21.343	-0.231	-0.140
-351.508	780.250	0.060	0.163
-350.493	-93.890	-0.176	0.048
-349.479	228.252	0.201	-0.325
-348.464	800.000	0.053	-0.213
-347.450	-69.219	-0.526	0.201
-346.435	-108.139	-0.546	-0.117
-345.420	800.000	0.060	0.216
-344.406	-49.856	0.260	-0.122
-343.391	-147.814	0.217	-0.018
-342.377	-200.000	-0.053	0.425
-341.362	-163.279	0.189	-0.009
-340.348	-200.000	-0.058	-0.410
-339.333	-200.000	-0.004	-0.024
-338.318	72.242	-0.135	-0.139
-337.304	319.929	-0.161	0.304
-336.289	-200.000	0.004	-0.073
-335.275	81.991	0.048	0.052
-334.260	-80.790	-0.198	-0.065
-333.245	-34.117	0.096	0.052
-332.231	-13.932	-0.066	-0.042
-331.216	-200.000	-0.013	0.179
-330.202	493.740	0.119	0.271
-329.187	87.015	0.038	0.041
-328.172	305.946	-0.173	0.319
-327.158	-200.000	-0.012	0.376
-326.143	760.473	0.150	-0.403
-325.129	-115.844	0.354	-0.066
-324.114	48.477	-0.248	0.231
-323.099	446.619	0.096	0.210
-322.085	-6.965	0.151	-0.102
-321.070	193.057	-0.069	0.103
-320.056	-103.438	-0.215	0.050
-319.041	150.439	0.083	-0.112
-318.026	800.000	-0.028	-0.118
-317.012	-200.000	0.038	-0.169
-315.997	-196.145	-0.046	0.000
-314.983	-88.030	0.312	0.093
-313.968	568.364	0.052	0.126
-312.953	575.407	-0.151	0.366
-311.939	190.896	-0.064	-0.095
-310.924	-79.419	-0.220	-0.074
-309.910	-64.095	-0.191	0.077
-308.895	-200.000	-0.349	-0.001
-307.880	-63.390	-0.112	0.046
-306.866	800.000	-0.116	0.456
-305.851	141.144	0.124	-0.162
-304.837	800.000	-0.123	-0.366
-303.822	-113.023	-0.139	0.027
-302.807	-200.000	-0.039	-0.372
-301.793	34.646	-0.066	-0.058
-300.778	-66.824	0.089	0.035
-299.764	75.029	0.292	0.305
-298.749	16.146	-0.145	-0.113
-297.735	67.682	0.225	-0.228
-296.720	-200.000	-0.022	-0.184
-295.705	-106.048	-0.162	-0.036
-294.691	403.042	-0.123	-0.256
-293.676	2.814	-0.028	-0.020
-292.662	15.645	0.241	0.188
-291.647	42.394	0.157	0.142
-290.632	76.938	0.089	0.094
-289.618	-130.686	-0.721	-0.096
-288.603	480.830	0.059	0.132
-287.589	49.106	0.313	-0.291
-286.574	-46.495	-0.242	0.118
-285.559	-36.300	0.188	0.101
-284.545	-46.688	0.270	0.131
-283.530	-87.970	-0.124	-0.037
-282.516	-57.027	-0.322	0.141
-281.501	333.626	0.084	-0.162
-280.486	-188.246	0.301	0.004
-279.472	-200.000	0.040	-0.236
-278.457	-179.370	-0.071	0.002
-277.443	-99.697	0.217	0.054
-276.428	51.819	-0.145	0.137
-275.413	124.343	0.178	0.221
-274.399	-200.000	0.011	0.286
-273.384	-36.900	-0.125	0.066
-272.370	800.000	0.063	0.212
-271.355	-200.000	-0.029	-0.278
-270.340	42.686	-0.192	-0.173
-269.326	105.900	0.185	0.217
-268.311	55.775	0.228	-0.219
-267.297	10.620	0.202	-0.153
-266.282	-125.767	-0.127	0.019
-265.267	-200.000	0.000	0.364
-264.253	144.706	0.190	-0.251
-263.238	174.973	-0.159	-0.228
-262.224	-200.000	0.041	0.229
-261.209	800.000	-0.078	-0.250
-260.195	5.444	0.261	0.191
-259.180	-46.283	0.260	-0.127
-258.165	4.341	0.347	0.252
-257.151	448.257	0.135	-0.294
-256.136	-200.000	0.003	0.143
-255.122	-24.049	0.179	-0.106
-254.107	800.000	-0.076	-0.252
-253.092	-200.000	0.015	0.128
-252.078	3.028	-0.139	0.100
-251.063	-200.000	0.033	0.187
-250.049	-200.000	-0.044	-0.215
-249.034	-22.448	-0.118	-0.071
-248.019	533.185	0.038	0.089
-247.005	271.606	-0.078	0.136
-245.990	49.283	-0.106	0.099
-244.976	800.000	0.038	0.146
-243.961	488.466	0.093	-0.211
-242.946	-28.293	0.405	0.232
-241.932	-110.748	0.314	-0.064
-240.917	668.240	0.026	-0.066
-239.903	-115.419	-0.074	0.014
-238.888	284.234	-0.036	0.063
-237.873	339.075	-0.137	0.264
-236.859	-196.679	-0.379	-0.002
-235.844	27.590	-0.194	-0.161
-234.830	-11.707	-0.181	-0.118
-233.815	-86.234	0.117	-0.036
-232.800	-200.000	0.012	-0.390
-231.786	-191.208	0.241	0.002
-230.771	-200.000	0.001	0.015
-229.757	-53.327	0.054	-0.024
-228.742	-39.179	0.262	0.136
-227.727	800.000	-0.034	0.095
-226.713	10.490	-0.195	-0.147
-225.698	487.781	0.090	-0.204
-224.684	-200.000	0.047	0.261
-223.669	-200.000	0.005	0.114
-222.655	-93.834	-0.239	0.065
-221.640	-200.000	-0.012	0.241
-220.625	-200.000	-0.000	-0.152
-219.611	795.526	-0.056	0.152
-218.596	533.385	-0.057	0.135
-217.582	-51.378	-0.075	-0.035
-216.567	800.000	0.093	0.284
-215.552	800.000	0.085	-0.239
-214.538	59.898	0.217	-0.212
-213.523	39.658	-0.236	0.209
-212.509	92.195	-0.169	-0.188
-211.494	-200.000	-0.010	-0.199
-210.479	-28.941	0.121	-0.068
-209.465	580.689	0.135	-0.326
-208.450	-200.000	0.025	0.248
-207.436	221.332	0.089	0.141
-206.421	-121.635	-0.165	0.027
-205.406	-51.826	-0.230	0.106
-204.392	-18.793	0.031	0.019
-203.377	20.491	0.104	0.083
-202.363	-200.000	0.009	0.294
-201.348	-92.132	0.318	0.089
-200.333	22.381	0.064	0.052
-199.319	271.708	0.124	0.216
-198.304	800.000	-0.036	-0.118
-197.290	-200.000	0.011	0.151
-196.275	11.593	-0.214	0.162
-195.260	19.629	-0.087	0.069
-194.246	239.871	0.116	-0.191
-193.231	-200.000	-0.005	-0.072
-192.217	-154.724	0.451	0.030
-191.202	-182.749	0.145	-0.003
-190.187	-200.000	0.007	-0.488
-189.173	-46.855	0.451	-0.218
-188.158	-130.921	0.183	-0.024
-187.144	362.456	0.042	-0.083
-186.129	-200.000	0.001	-0.235
-185.114	-156.165	0.161	-0.010
-184.100	-200.000	0.033	-0.195
-183.085	110.801	0.176	-0.209
-182.071	800.000	-0.058	-0.192
-181.056	-128.681	0.169	0.024
-180.042	519.915	-0.062	0.143
-179.027	285.748	-0.150	-0.266
-178.012	33.036	-0.067	-0.058
-176.998	800.000	0.055	-0.210
-175.983	-159.353	0.467	-0.026
-174.969	101.601	-0.223	0.256
-173.954	36.190	0.011	-0.010
-172.939	800.000	-0.102	-0.317
-171.925	-200.000	0.054	0.289
-170.910	-23.427	0.131	0.078
-169.896	-101.806	-0.472	-0.113
-168.881	-200.000	0.032	-0.373
-167.866	-200.000	0.004	-0.112
-166.852	-200.000	-0.027	0.144
-165.837	-200.000	-0.014	-0.179
-164.823	-76.797	0.028	-0.010
-163.808	382.328	-0.098	0.199
-162.793	37.735	0.264	0.231
-161.779	-200.000	0.010	-0.124
-160.764	-88.848	-0.279	0.082
-159.750	-175.428	-0.138	0.004
-158.735	-20.023	-0.345	0.210
-157.720	800.000	-0.084	0.284
-156.706	-95.138	-0.470	-0.125
-155.691	800.000	-0.092	-0.256
-154.677	-200.000	0.050	0.216
-153.662	800.000	0.042	-0.119
-152.647	90.961	0.228	-0.252
-151.633	-185.776	0.179	-0.003
-150.618	10.804	-0.144	-0.108
-149.604	-16.807	0.322	-0.201
-148.589	800.000	-0.106	-0.300
-147.574	537.148	-0.045	-0.106
-146.560	228.975	-0.084	0.135
-145.545	-200.000	-0.007	0.079
-144.531	483.757	0.059	0.132
-143.516	297.755	-0.131	0.237
-142.502	-200.000	-0.109	-0.516
-141.487	-35.800	0.199	0.106
-140.472	-200.000	-0.017	-0.120
-139.458	-200.000	0.021	-0.509
-138.443	-17.013	0.276	0.172
-137.429	800.000	0.044	-0.133
-136.414	-153.126	-0.057	-0.004
-135.399	-200.000	0.003	0.220
-134.385	-200.000	0.016	-0.277
-133.370	-84.984	-0.211	0.065
-132.356	113.130	-0.028	-0.034
-131.341	-15.712	0.196	-0.123
-130.326	-98.058	0.101	-0.026
-129.312	-120.579	-0.341	0.057
-128.297	121.885	0.191	-0.234
-127.283	-21.166	0.274	-0.165
-126.268	478.645	0.112	0.251
-125.253	-107.199	-0.328	0.071
-124.239	3.868	0.163	-0.117
-123.224	-5.415	-0.392	-0.265
-122.210	22.197	0.198	-0.159
-121.195	249.526	-0.284	-0.474
-120.180	-122.607	-0.169	0.027
-119.166	-163.285	0.277	0.013
-118.151	3.033	-0.178	-0.127
-117.137	-200.000	0.045	0.431
-116.122	-135.938	0.423	-0.049
-115.107	114.033	-0.138	0.165
-114.093	-110.728	0.467	0.095
-113.078	13.027	0.225	-0.171
-112.064	146.570	-0.108	-0.143
-111.049	800.000	-0.050	-0.168
-110.034	-6.214	0.062	-0.041
-109.020	800.000	-0.025	0.105
-108.005	166.331	0.171	-0.238
-106.991	381.941	-0.114	-0.230
-105.976	-54.521	-0.200	0.089
-104.962	-200.000	0.055	0.369
-103.947	31.945	-0.167	0.141
-102.932	74.715	0.139	0.144
-101.918	-129.258	-0.131	-0.018
-100.903	800.000	0.116	0.446
-99.889	2.018	0.122	-0.087
-98.874	9.915	-0.158	0.118
-97.859	800.000	-0.117	0.328
-96.845	-99.525	0.031	-0.008
-95.830	-145.103	0.206	0.018
-94.816	-71.303	0.128	-0.047
-93.801	-103.827	0.269	0.062
-92.786	349.835	-0.119	-0.230
-91.772	-200.000	-0.010	-0.164
-90.757	437.420	-0.169	0.363
-89.743	116.347	-0.043	-0.052
-88.728	-87.468	0.102	0.030
-87.713	-32.593	0.045	-0.025
-86.699	-200.000	0.055	0.255
-85.684	301.065	0.154	-0.280
-84.670	406.052	0.072	-0.149
-83.655	-100.747	0.255	-0.062
-82.640	64.301	-0.268	-0.266
-81.626	-63.334	-0.284	0.115
-80.611	158.742	-0.167	0.229
-79.597	9.950	-0.117	0.088
-78.582	-200.000	-0.047	0.295
-77.567	52.027	0.274	0.257
-76.553	187.882	-0.055	-0.081
-75.538	-200.000	0.002	-0.071
-74.524	800.000	-0.059	0.168
-73.509	98.847	0.057	-0.065
-72.494	-200.000	-0.032	-0.168
-71.480	13.041	0.316	-0.240
-70.465	-200.000	-0.217	-0.001
-69.451	-200.000	-0.032	0.146
-68.436	50.304	-0.188	0.174
-67.422	-200.000	-0.014	0.321
-66.407	-42.278	-0.335	0.168
-65.392	62.552	0.308	0.303
-64.378	129.131	-0.101	0.127
-63.363	-36.195	-0.185	-0.098
-62.349	-42.719	-0.051	0.026
-61.334	78.731	-1.054	-1.108
-60.319	45.080	0.478	0.433
-59.305	800.000	-0.289	-0.920
-58.290	59.318	1.061	1.026
-57.276	423.099	0.675	1.424
-56.261	-200.000	104.152	581.846
-55.246	506.812	1481.199	3374.696
-54.232	177.008	2687.271	3841.358
-53.217	110.644	2194.523	2592.485
-52.203	39.699	1715.822	1511.807
-51.188	32.399	1526.480	1294.915
-50.173	30.069	1499.026	1255.804
-49.159	50.852	1554.045	1445.933
-48.144	51.135	1571.466	1464.040
-47.130	32.596	1527.912	1297.277
-46.115	29.557	1512.909	1263.732
-45.100	29.456	1509.387	1260.051
-44.086	29.461	1507.098	1258.124
-43.071	29.395	1504.637	1255.568
-42.057	29.308	1503.246	1253.765
-41.042	29.341	1501.948	1252.859
-40.027	29.379	1500.600	1251.938
-39.013	29.293	1498.658	1249.686
-37.998	29.203	1497.727	1248.250
-36.984	29.322	1496.344	1247.855
-35.969	29.238	1495.274	1246.347
-34.954	29.335	1493.508	1245.481
-33.940	29.264	1492.379	1244.006
-32.925	29.169	1491.668	1242.729
-31.911	29.375	1489.437	1242.206
-30.896	29.382	1488.466	1241.392
-29.881	29.431	1487.106	1240.543
-28.867	29.329	1485.612	1238.561
-27.852	29.365	1484.641	1237.941
-26.838	29.359	1482.982	1236.470
-25.823	29.392	1481.411	1235.332
-24.809	29.304	1479.912	1233.443
-23.794	29.429	1478.244	1232.841
-22.779	29.337	1477.373	1231.452
-21.765	29.475	1476.289	1231.419
-20.750	29.366	1475.680	1230.135
-19.736	29.435	1473.919	1229.080
-18.721	29.344	1472.959	1227.622
-17.706	29.343	1471.707	1226.527
-16.692	29.200	1470.939	1224.885
-15.677	29.310	1469.521	1224.385
-14.663	29.330	1468.643	1223.741
-13.648	29.263	1467.761	1222.511
-12.633	29.301	1466.602	1221.747
-11.619	29.242	1466.190	1220.966
-10.604	29.261	1465.137	1220.168
-9.590	29.339	1464.132	1219.795
-8.575	29.310	1463.118	1218.710
-7.560	29.290	1462.469	1217.992
-6.546	29.269	1461.420	1216.933
-5.531	29.245	1460.840	1216.238
-4.517	29.220	1459.622	1215.014
-3.502	29.189	1458.776	1214.054
-2.487	29.290	1457.463	1213.581
-1.473	29.186	1456.634	1212.158
-0.458	29.315	1454.862	1211.484
0.556	31.261	1445.704	1201.713
1.571	28.457	1420.204	1162.663
2.586	25.055	1358.635	1091.478
3.600	23.440	1276.676	1016.294
4.615	21.700	1231.833	970.879
5.629	18.670	1175.181	910.099
6.644	11.187	1092.588	809.034
7.659	5.377	1053.368	752.044
8.673	4.553	1047.988	744.193
9.688	4.430	1044.640	741.164
10.702	4.271	1043.026	739.192
11.717	4.386	1040.961	738.211
12.731	7.037	1044.004	752.936
13.746	14.737	1054.654	797.441
14.761	20.690	1062.012	831.466
15.775	22.155	1062.784	838.997
16.790	21.583	1061.178	834.926
17.804	20.637	1059.400	828.951
18.819	19.768	1057.721	823.423
19.834	19.433	1056.087	820.488
20.848	19.254	1055.720	819.279
21.863	19.326	1055.062	819.039
22.877	19.079	1054.314	817.211
23.892	18.837	1053.928	815.691
24.907	18.883	1052.429	814.680
25.921	18.758	1052.298	813.913
26.936	18.806	1051.169	813.196
27.950	18.734	1050.222	812.050
28.965	18.931	1048.646	811.690
29.980	18.728	1048.513	810.557
30.994	19.140	1046.903	811.179
32.009	19.154	1046.183	810.619
33.023	19.179	1045.553	810.174
34.038	19.179	1044.644	809.399
35.053	19.071	1043.914	808.256
36.067	18.976	1042.963	807.003
37.082	18.864	1041.635	805.376
38.096	18.835	1041.445	805.021
39.111	18.989	1041.007	805.335
40.126	19.102	1040.038	805.042
41.140	19.022	1038.606	803.487
42.155	18.690	1037.298	800.858
43.169	18.423	1036.437	798.876
44.184	18.537	1035.062	798.277
45.199	18.512	1033.655	797.004
46.213	18.380	1033.157	795.936
47.228	18.473	1032.480	795.778
48.242	18.746	1031.896	796.522
49.257	18.920	1031.063	796.614
50.271	18.987	1029.528	795.667
51.286	18.935	1029.284	795.168
52.301	19.035	1028.427	794.898
53.315	18.927	1027.990	793.992
54.330	18.948	1026.602	792.945
55.344	18.698	1026.025	791.281
56.359	18.533	1025.102	789.738
57.374	18.649	1024.157	789.473
58.388	18.610	1023.274	788.541
59.403	18.453	1022.292	786.997
60.417	18.362	1021.834	786.157
61.432	18.364	1021.150	785.567
62.447	18.377	1019.924	784.615
63.461	18.330	1019.385	783.918
64.476	18.189	1018.268	782.344
65.490	18.315	1017.132	781.976
66.505	18.189	1016.761	781.049
67.520	18.303	1016.013	780.926
68.534	18.362	1015.328	780.597
69.549	18.278	1014.160	779.248
70.563	18.254	1013.896	778.869
71.578	18.295	1012.302	777.761
72.593	18.037	1011.903	776.212
73.607	18.032	1010.759	775.243
74.622	17.944	1009.975	774.174
75.636	17.947	1009.037	773.398
76.651	17.974	1008.485	773.033
77.666	18.124	1007.504	772.890
78.680	18.202	1006.726	772.574
79.695	18.203	1006.543	772.372
80.709	18.220	1005.994	771.957
81.724	18.471	1004.892	772.174
82.739	18.401	1004.440	771.444
83.753	18.477	1004.031	771.407
84.768	18.696	1002.962	771.500
85.782	19.029	1002.432	772.521
86.797	19.360	1002.031	773.625
87.812	19.275	1001.251	772.574
88.826	18.941	1000.647	770.546
89.841	18.863	999.973	769.606
90.855	19.104	998.636	769.587
91.870	19.157	998.174	769.401
92.884	19.342	997.346	769.519
93.899	19.220	996.885	768.553
94.914	19.047	995.701	766.800
95.928	19.199	995.245	767.059
96.943	19.447	993.677	766.885
97.957	19.055	993.511	764.949
98.972	19.007	992.549	763.928
99.987	18.952	991.955	763.156
101.001	19.218	990.720	763.317
102.016	18.996	990.604	762.177
103.030	18.972	989.381	761.062
104.045	19.110	988.286	760.762
105.060	19.142	987.363	760.127
106.074	18.804	986.905	758.214
107.089	18.707	985.421	756.581
108.103	18.406	984.881	754.774
109.118	18.376	983.324	753.382
110.133	18.198	983.109	752.368
111.147	18.473	981.482	752.263
112.162	18.160	980.735	750.250
113.176	18.294	979.788	750.047
114.191	18.341	979.436	749.916
115.206	18.589	978.254	750.029
116.220	18.530	977.656	749.249
117.235	18.357	976.974	747.902
118.249	18.304	976.129	746.959
119.264	18.413	974.791	746.343
120.279	18.234	974.269	745.097
121.293	18.203	973.299	744.157
122.308	18.194	972.332	743.310
123.322	18.075	971.801	742.324
124.337	18.063	970.522	741.227
125.352	18.141	969.211	740.497
126.366	18.108	968.528	739.771
127.381	17.945	967.660	738.335
128.395	18.033	966.366	737.663
129.410	18.069	965.529	737.114
130.424	18.021	964.873	736.341
131.439	18.147	964.114	736.238
132.454	18.357	963.312	736.467
133.468	18.407	962.399	735.918
134.483	18.429	962.277	735.852
135.497	18.404	961.570	735.142
136.512	18.520	960.544	734.786
137.527	18.457	960.136	734.142
138.541	18.435	959.158	733.232
139.556	18.476	958.363	732.738
140.570	18.502	957.751	732.312
141.585	18.623	957.116	732.282
142.600	18.800	956.804	732.734
143.614	18.921	955.926	732.511
144.629	18.944	955.455	732.181
145.643	19.141	954.668	732.354
146.658	19.003	953.806	731.042
147.673	18.856	952.715	729.514
148.687	18.775	951.545	728.212
149.702	18.525	950.500	726.291
150.716	18.579	949.304	725.540
151.731	18.371	948.737	724.163
152.746	18.502	948.208	724.247
153.760	18.579	947.488	723.959
154.775	18.585	946.720	723.334
155.789	18.695	946.138	723.289
156.804	18.832	945.036	722.961
157.819	18.816	944.193	722.181
158.833	18.746	944.024	721.694
159.848	18.966	943.355	722.045
160.862	19.048	942.799	721.899
161.877	19.129	941.779	721.395
162.892	18.734	940.502	718.696
163.906	18.504	939.935	717.239
164.921	18.418	939.087	716.170
165.935	18.577	937.535	715.586
166.950	18.574	936.779	714.933
167.964	18.705	935.861	714.714
168.979	18.738	934.882	714.040
169.994	18.619	934.032	712.833
171.008	18.515	933.514	711.943
172.023	18.651	932.316	711.532
173.037	18.832	932.010	711.984
174.052	19.003	931.333	712.112
175.067	18.839	930.641	710.843
176.081	18.730	929.531	709.479
177.096	18.489	928.322	707.501
178.110	18.419	927.578	706.581
179.125	18.536	926.990	706.554
180.140	18.512	926.485	706.007
181.154	18.644	925.888	706.031
182.169	18.907	925.301	706.605
183.183	19.059	924.402	706.481
184.198	19.120	923.811	706.217
185.213	18.978	923.405	705.259
186.227	18.982	923.004	704.909
187.242	19.072	922.482	704.816
188.256	19.145	921.781	704.517
189.271	19.255	921.259	704.504
190.286	19.407	920.156	704.219
191.300	19.126	919.400	702.434
192.315	18.639	918.156	699.433
193.329	18.286	916.984	697.044
194.344	18.388	916.856	697.300
195.359	18.585	916.440	697.722
196.373	18.819	915.649	698.011
197.388	18.838	915.376	697.817
198.402	18.984	914.976	698.044
199.417	19.179	914.581	698.471
200.432	19.415	914.209	699.082
201.446	19.436	914.291	699.169
202.461	19.499	913.698	698.906
203.475	19.656	912.945	698.904
204.490	19.557	912.396	698.022
205.504	19.492	910.985	696.618
206.519	19.195	910.649	695.101
207.534	19.227	909.643	694.401
208.548	19.057	909.036	693.191
209.563	19.071	908.347	692.659
210.577	19.137	907.313	692.077
211.592	19.297	906.726	692.212
212.607	19.360	906.597	692.302
213.621	19.538	905.971	692.479
214.636	19.444	905.247	691.489
215.650	19.280	904.965	690.554
216.665	19.343	904.239	690.193
217.680	19.395	903.779	689.988
218.694	19.553	903.425	690.289
219.709	19.585	903.317	690.273
220.723	19.478	902.451	689.119
221.738	19.504	901.287	688.274
222.753	19.521	900.673	687.814
223.767	19.495	899.497	686.751
224.782	19.662	898.767	686.795
225.796	19.721	898.460	686.736
226.811	19.850	897.981	686.820
227.826	19.703	897.358	685.698
228.840	19.564	896.032	684.077
229.855	19.385	895.584	682.965
230.869	19.486	895.011	682.867
231.884	19.296	894.758	681.861
232.899	19.414	893.747	681.498
233.913	19.306	892.569	680.111
234.928	19.177	891.950	679.071
235.942	19.138	891.536	678.542
236.957	19.111	890.829	677.840
237.972	19.283	889.806	677.677
238.986	19.164	889.238	676.718
240.001	19.215	888.910	676.606
241.015	19.241	888.070	676.012
242.030	19.147	887.830	675.399
243.045	19.329	887.020	675.438
244.059	19.450	886.729	675.629
245.074	19.466	886.040	675.105
246.088	19.417	885.471	674.420
247.103	19.572	885.129	674.709
248.117	19.662	884.468	674.493
249.132	19.923	883.843	674.976
250.147	20.054	884.092	675.617
251.161	20.268	883.211	675.719
252.176	20.292	882.924	675.533
253.190	20.417	882.054	675.293
254.205	20.530	881.306	675.101
255.220	20.480	881.183	674.750
256.234	20.402	880.432	673.815
257.249	20.396	879.359	672.908
258.263	20.412	878.706	672.411
259.278	20.512	878.023	672.217
260.293	20.385	877.947	671.608
261.307	20.483	877.391	671.501
262.322	20.558	876.719	671.218
263.336	20.765	875.835	671.279
264.351	20.507	875.879	670.260
265.366	20.495	875.112	669.567
266.380	20.621	874.602	669.602
267.395	20.677	874.076	669.356
268.409	20.513	873.220	668.011
269.424	20.385	872.102	666.605
270.439	20.363	871.932	666.331
271.453	20.353	871.094	665.594
272.468	20.277	869.800	664.255
273.482	20.035	870.041	663.455
274.497	20.172	869.093	663.197
275.512	20.177	868.186	662.465
276.526	20.106	867.710	661.774
277.541	20.200	866.828	661.399
278.555	20.229	866.284	661.036
279.570	20.445	865.852	661.472
280.585	20.665	865.429	661.927
281.599	20.719	865.120	661.836
282.614	20.639	863.807	660.471
283.628	20.335	863.492	659.015
284.643	20.415	862.569	658.559
285.657	20.456	862.044	658.255
286.672	20.473	861.616	657.935
287.687	20.319	861.407	657.131
288.701	20.418	860.636	656.861
289.716	20.519	860.165	656.825
290.730	20.548	859.413	656.300
291.745	20.590	858.389	655.621
292.760	20.478	858.221	655.010
293.774	20.646	857.286	654.871
294.789	20.795	857.184	655.296
295.803	20.865	856.781	655.194
296.818	20.733	856.001	654.043
297.833	20.399	855.474	652.327
298.847	20.440	854.521	651.699
299.862	20.498	853.782	651.296
300.876	20.487	853.464	650.954
301.891	20.661	852.873	651.097
302.906	20.811	852.589	651.382
303.920	20.949	851.878	651.300
304.935	21.078	851.360	651.328
305.949	21.101	850.824	650.943
306.964	21.049	850.307	650.296
307.979	20.961	849.263	649.114
308.993	20.760	849.017	648.120
310.008	20.891	848.566	648.205
311.022	20.905	848.337	648.027
312.037	20.956	847.559	647.562
313.052	20.850	846.961	646.657
314.066	20.709	846.141	645.447
315.081	20.434	845.318	643.745
316.095	20.425	844.895	643.333
317.110	20.583	844.317	643.421
318.125	20.687	843.193	642.890
319.139	20.604	842.918	642.320
320.154	20.603	842.254	641.751
321.168	20.489	841.853	640.969
322.183	20.771	841.469	641.660
323.197	20.646	841.082	640.848
324.212	20.636	840.560	640.354
325.227	20.689	840.048	640.104
326.241	20.706	839.423	639.634
327.256	20.695	838.372	638.737
328.270	20.780	837.854	638.596
329.285	20.559	837.243	637.265
330.300	20.529	837.387	637.206
331.314	20.615	836.458	636.758
332.329	20.825	835.512	636.749
333.343	20.846	835.204	636.535
334.358	20.899	835.370	636.802
335.373	20.983	834.541	636.417
336.387	21.032	833.992	636.123
337.402	21.031	833.815	635.928
338.416	20.955	832.974	634.953
339.431	21.178	832.562	635.394
340.446	21.203	831.971	634.978
341.460	21.501	831.702	635.798
342.475	21.422	831.501	635.301
343.489	21.507	830.787	635.011
344.504	21.585	830.089	634.703
345.519	21.659	829.809	634.700
346.533	21.660	829.400	634.333
347.548	21.781	828.463	633.998
348.562	21.363	828.087	632.143
349.577	21.265	827.127	631.000
350.592	21.114	826.262	629.743
351.606	20.972	826.314	629.212
352.621	21.079	825.278	628.754
353.635	20.892	825.244	627.997
354.650	21.091	824.784	628.310
355.665	21.218	824.054	628.154
356.679	21.161	823.728	627.646
357.694	21.296	823.420	627.840
358.708	21.341	822.843	627.506
359.723	21.253	822.504	626.878
360.738	21.247	821.877	626.322
361.752	21.253	821.369	625.900
362.767	21.276	820.672	625.398
363.781	21.592	820.637	626.445
364.796	21.572	820.715	626.376
365.810	21.817	820.053	626.694
366.825	21.968	819.343	626.634
367.840	21.876	819.573	626.424
368.854	21.985	819.171	626.451
369.869	21.643	818.533	624.690
370.883	21.651	817.553	623.914
371.898	21.747	817.016	623.790
372.913	21.764	816.668	623.533
373.927	21.841	816.231	623.417
374.942	21.743	815.184	622.213
375.956	21.826	814.487	621.921
376.971	21.869	813.908	621.577
377.986	21.946	813.581	621.542
379.000	22.193	812.881	621.829
380.015	22.229	812.668	621.737
381.029	22.035	812.177	620.620
382.044	22.024	811.455	619.977
383.059	21.989	810.897	619.371
384.073	21.910	810.762	618.935
385.088	21.937	809.978	618.376
386.102	21.639	809.636	617.010
387.117	21.699	808.119	616.009
388.132	21.695	808.121	615.944
389.146	21.696	807.421	615.361
390.161	21.770	807.343	615.504
391.175	21.939	806.807	615.635
392.190	21.983	806.571	615.555
393.205	22.032	805.869	615.137
394.219	21.778	805.290	613.751
395.234	21.754	804.915	613.327
396.248	21.622	804.627	612.593
397.263	21.548	803.913	611.734
398.278	21.565	803.175	611.177
399.292	21.566	802.500	610.614
400.307	21.314	802.890	609.977
401.321	21.527	802.049	610.028
402.336	21.710	801.789	610.413
403.350	21.588	801.238	609.513
404.365	21.679	800.732	609.394
405.380	22.030	800.222	610.170
406.394	22.238	800.032	610.693
407.409	22.210	799.749	610.326
408.423	22.199	799.269	609.867
409.438	22.193	799.249	609.777
410.453	22.247	798.682	609.480
411.467	22.441	798.189	609.720
412.482	22.404	797.592	609.083
413.496	22.581	797.170	609.319
414.511	22.745	796.636	609.424
415.526	22.591	796.348	608.616
416.540	22.510	796.013	608.028
417.555	22.496	795.340	607.410
418.569	22.542	795.020	607.272
419.584	22.403	795.057	606.766
420.599	22.450	794.248	606.256
421.613	163.067	1368.808	1794.801
422.628	141.480	1452.535	1794.900
