DTS Sentinel unit serial number:	SN413079Multiplexer serial number:	ORYXHardware model number:	OX4-SRSoftware version number:	ORYX F/W v4.00 Oryx Data Collector v3.7.2.0data status	okinstallation	princeton_trtdifferential loss correction	single-endedforward channel	channel 3reverse channel	N/Adate	2019/09/19time	15:08:35forward acquisition time	60.00reverse acquisition time	0.00gamma	496.2192k internal	0.2315k external	0.2315temperature offset calibration	1.0009default loss term (dB/km)	0.3790temperature slope calibration	1.0000multiplexer offset coefficient	1.0000multiplexer slope coefficient	1.0000fibre end	0.00T internal ref (°C)	33.37T ext. ref 1 (°C)	1.11T ext. ref 2 (°C)	30.35length (m)	temperature (°C)	Stokes	anti-Stokes-747.200	800.000	-0.089	0.302
-746.185	5.423	0.088	0.066
-745.171	149.503	0.159	-0.219
-744.156	800.000	-0.093	0.295
-743.142	800.000	-0.051	-0.148
-742.127	18.589	-0.281	0.228
-741.112	-49.257	0.080	0.039
-740.098	-93.421	-0.103	-0.029
-739.083	-200.000	0.044	0.424
-738.069	800.000	0.048	-0.163
-737.054	800.000	0.069	0.264
-736.039	-22.191	-0.113	0.069
-735.025	100.409	0.106	0.124
-734.010	99.621	0.088	0.103
-732.996	-64.862	-0.117	0.048
-731.981	250.632	-0.033	0.056
-730.966	50.419	0.126	-0.120
-729.952	-146.814	-0.115	0.010
-728.937	194.629	-0.030	0.046
-727.923	-101.267	0.172	-0.043
-726.908	800.000	0.108	-0.428
-725.894	100.681	-0.196	0.231
-724.879	-29.667	0.093	0.054
-723.864	167.134	-0.162	-0.232
-722.850	-60.602	0.347	-0.149
-721.835	188.289	0.152	0.230
-720.821	-60.725	0.253	0.108
-719.806	-174.719	0.406	-0.012
-718.791	-46.277	-0.137	-0.068
-717.777	681.783	-0.029	0.077
-716.762	111.246	0.131	-0.160
-715.748	89.681	-0.096	-0.108
-714.733	166.363	-0.086	-0.124
-713.718	-200.000	-0.081	-0.468
-712.704	2.635	-0.259	-0.190
-711.689	446.503	0.038	0.084
-710.675	197.734	0.169	-0.261
-709.660	-148.265	0.309	0.026
-708.645	-49.869	-0.102	0.049
-707.631	-52.683	0.174	-0.081
-706.616	800.000	-0.033	-0.107
-705.602	-200.000	0.022	0.232
-704.587	-162.854	-0.251	-0.012
-703.572	-90.750	-0.188	0.055
-702.558	-31.765	-0.108	-0.061
-701.543	-200.000	-0.036	-0.414
-700.529	800.000	0.047	-0.188
-699.514	-200.000	-0.054	-0.338
-698.499	-11.796	0.109	0.073
-697.485	734.559	-0.031	0.083
-696.470	-200.000	-0.009	-0.088
-695.456	-200.000	0.019	-0.235
-694.441	800.000	-0.140	-0.440
-693.426	-171.509	-0.139	-0.005
-692.412	19.608	0.182	0.148
-691.397	39.281	-0.167	-0.151
-690.383	800.000	-0.102	-0.325
-689.368	37.289	0.134	0.120
-688.354	321.827	-0.191	0.367
-687.339	-60.872	0.229	0.098
-686.324	33.960	0.051	0.045
-685.310	-103.813	-0.201	0.048
-684.295	-131.363	-0.090	-0.012
-683.281	-13.940	0.135	-0.088
-682.266	185.894	0.079	0.118
-681.251	667.048	-0.056	-0.147
-680.237	207.144	0.080	-0.125
-679.222	379.283	-0.105	-0.217
-678.208	-99.604	-0.318	-0.081
-677.193	407.692	-0.079	-0.168
-676.178	-108.543	-0.234	-0.051
-675.164	-108.887	-0.099	0.021
-674.149	515.653	0.135	-0.318
-673.135	-40.204	-0.170	0.089
-672.120	-70.365	-0.051	0.020
-671.105	303.331	0.057	0.106
-670.091	-66.945	-0.287	-0.114
-669.076	-200.000	-0.014	0.322
-668.062	43.685	-0.054	0.050
-667.047	36.849	0.155	0.139
-666.032	800.000	0.036	0.125
-665.018	800.000	0.153	0.481
-664.003	-150.382	0.430	0.033
-662.989	-200.000	-0.011	-0.142
-661.974	449.773	-0.067	-0.149
-660.959	423.235	-0.083	-0.181
-659.945	800.000	-0.124	0.422
-658.930	-2.746	-0.107	-0.075
-657.916	-39.743	-0.140	-0.074
-656.901	62.168	-0.050	0.050
-655.886	101.048	0.093	-0.110
-654.872	151.270	0.069	0.095
-653.857	72.932	-0.026	0.028
-652.843	166.702	-0.042	-0.060
-651.828	391.976	0.044	0.092
-650.814	-71.595	0.058	0.022
-649.799	442.057	-0.031	0.068
-648.784	-200.000	-0.033	-0.261
-647.770	206.873	0.061	-0.095
-646.755	61.053	-0.100	0.101
-645.741	42.639	0.135	0.124
-644.726	-93.861	-0.280	-0.078
-643.711	609.216	0.148	-0.372
-642.697	800.000	-0.066	-0.224
-641.682	225.959	0.041	0.067
-640.668	-13.340	-0.145	-0.095
-639.653	749.724	0.097	0.264
-638.638	-200.000	0.051	0.377
-637.624	-4.872	0.287	0.199
-636.609	800.000	0.036	-0.155
-635.595	-200.000	-0.052	0.273
-634.580	607.322	0.154	-0.389
-633.565	149.376	-0.155	-0.211
-632.551	-200.000	-0.044	-0.253
-631.536	-48.309	-0.175	-0.085
-630.522	118.504	-0.140	-0.174
-629.507	-62.888	-0.087	0.036
-628.492	-44.133	0.149	-0.075
-627.478	380.950	-0.116	0.240
-626.463	21.051	-0.059	0.048
-625.449	-200.000	-0.024	0.442
-624.434	447.944	0.145	-0.322
-623.419	83.968	-0.024	-0.027
-622.405	172.045	0.131	0.190
-621.390	-200.000	0.051	0.258
-620.376	162.192	-0.048	0.068
-619.361	-82.515	0.104	0.034
-618.346	60.416	-0.223	0.223
-617.332	302.120	-0.034	0.064
-616.317	-149.066	-0.386	-0.031
-615.303	114.179	0.056	0.068
-614.288	-200.000	0.032	-0.146
-613.273	129.528	-0.112	0.144
-612.259	-168.087	-0.066	-0.003
-611.244	2.182	0.116	-0.085
-610.230	577.151	-0.078	-0.193
-609.215	-33.351	-0.172	0.096
-608.201	800.000	-0.093	0.300
-607.186	105.455	0.263	-0.313
-606.171	54.295	0.255	-0.247
-605.157	-32.178	-0.242	-0.137
-604.142	-178.996	0.226	-0.005
-603.128	62.297	-0.284	0.286
-602.113	96.873	0.135	0.156
-601.098	59.534	0.091	-0.090
-600.084	19.128	-0.243	-0.196
-599.069	-200.000	0.010	0.063
-598.055	-8.648	0.465	-0.315
-597.040	-32.521	-0.246	0.138
-596.025	-174.124	0.340	0.010
-595.011	-109.241	-0.258	-0.055
-593.996	-167.963	-0.370	0.015
-592.982	26.097	0.226	0.190
-591.967	-47.179	-0.040	-0.020
-590.952	232.144	0.074	0.122
-589.938	-62.807	0.319	0.133
-588.923	-106.168	0.353	-0.080
-587.909	-172.164	-0.268	-0.009
-586.894	-200.000	0.011	-0.245
-585.879	-117.426	-0.108	-0.020
-584.865	800.000	0.058	-0.200
-583.850	506.599	0.058	-0.135
-582.836	-200.000	-0.014	-0.279
-581.821	-189.187	-0.489	0.006
-580.806	-65.339	0.056	-0.023
-579.792	-200.000	-0.035	0.235
-578.777	187.446	-0.054	0.082
-577.763	176.227	-0.120	-0.175
-576.748	-123.718	0.172	-0.027
-575.733	492.037	-0.063	0.145
-574.719	-200.000	-0.019	-0.252
-573.704	-77.520	0.061	-0.021
-572.690	17.135	-0.350	0.280
-571.675	34.698	-0.146	-0.129
-570.661	-161.532	-0.191	-0.010
-569.646	531.005	-0.127	0.302
-568.631	-105.519	-0.214	-0.049
-567.617	-200.000	-0.015	0.193
-566.602	-60.373	0.028	-0.012
-565.588	126.902	0.145	0.186
-564.573	681.999	0.170	-0.447
-563.558	30.502	-0.312	-0.268
-562.544	-129.385	-0.240	0.034
-561.529	-200.000	0.007	0.104
-560.515	539.280	0.146	0.349
-559.500	-50.327	-0.385	-0.183
-558.485	-7.967	0.205	-0.139
-557.471	107.737	0.035	-0.042
-556.456	0.811	0.232	-0.167
-555.442	-58.864	-0.245	0.106
-554.427	-2.109	-0.181	-0.128
-553.412	-200.000	0.045	0.254
-552.398	-132.954	0.150	0.019
-551.383	168.642	-0.165	-0.236
-550.369	-6.752	-0.107	0.073
-549.354	34.921	-0.205	-0.181
-548.339	181.516	0.032	0.047
-547.325	-200.000	0.007	0.194
-546.310	135.065	-0.199	0.260
-545.296	-50.263	0.180	-0.085
-544.281	-200.000	-0.009	0.145
-543.266	544.298	-0.063	0.151
-542.252	20.268	0.229	-0.186
-541.237	-65.569	-0.126	-0.051
-540.223	9.808	-0.147	0.112
-539.208	-200.000	0.047	0.236
-538.193	84.076	0.169	-0.186
-537.179	41.565	-0.232	0.212
-536.164	-200.000	-0.018	0.144
-535.150	255.524	-0.145	-0.250
-534.135	800.000	0.031	0.102
-533.121	294.720	0.123	-0.226
-532.106	-96.826	-0.099	0.026
-531.091	-126.628	0.246	0.037
-530.077	-161.429	-0.325	0.017
-529.062	151.749	0.168	-0.231
-528.048	-23.646	-0.104	0.062
-527.033	-12.653	0.258	-0.169
-526.018	87.738	-0.125	0.140
-525.004	-200.000	0.041	0.571
-523.989	800.000	-0.052	0.205
-522.975	-200.000	-0.003	-0.081
-521.960	781.780	0.067	0.184
-520.945	453.629	0.049	-0.109
-519.931	-16.542	0.112	0.071
-518.916	800.000	0.033	0.099
-517.902	-200.000	0.021	0.154
-516.887	540.056	0.010	-0.024
-515.872	497.249	-0.074	-0.172
-514.858	208.004	-0.057	-0.090
-513.843	70.890	-0.113	-0.117
-512.829	-200.000	-0.027	0.223
-511.814	275.007	-0.074	0.132
-510.799	800.000	-0.010	-0.033
-509.785	137.403	-0.168	-0.221
-508.770	-15.465	-0.273	-0.175
-507.756	41.568	-0.226	0.206
-506.741	-200.000	-0.056	-0.266
-505.726	-99.339	0.098	-0.025
-504.712	54.104	-0.271	-0.262
-503.697	-36.965	-0.214	-0.115
-502.683	82.713	-0.113	0.124
-501.668	111.399	0.197	-0.238
-500.653	800.000	-0.163	0.464
-499.639	800.000	-0.149	0.498
-498.624	3.144	0.141	0.103
-497.610	800.000	-0.022	0.090
-496.595	800.000	-0.115	-0.358
-495.581	-19.789	0.258	-0.160
-494.566	60.798	0.304	0.302
-493.551	-200.000	0.055	0.422
-492.537	79.110	-0.139	0.150
-491.522	134.739	0.061	-0.079
-490.508	-200.000	0.028	-0.292
-489.493	27.898	0.094	0.080
-488.478	-200.000	0.029	0.138
-487.464	-85.824	0.101	-0.032
-486.449	-82.008	-0.149	0.049
-485.435	-200.000	-0.050	0.242
-484.420	21.268	-0.198	0.162
-483.405	45.407	-0.327	-0.303
-482.391	-22.193	0.081	-0.049
-481.376	-164.138	0.418	-0.019
-480.362	-51.760	0.127	-0.059
-479.347	-103.488	-0.285	-0.067
-478.332	-83.719	0.152	-0.049
-477.318	-200.000	0.002	0.116
-476.303	23.471	-0.088	-0.073
-475.289	-200.000	-0.010	-0.071
-474.274	250.926	-0.081	-0.137
-473.259	800.000	0.087	-0.330
-472.245	38.705	-0.123	-0.110
-471.230	-200.000	0.057	0.286
-470.216	-200.000	0.018	0.091
-469.201	34.659	-0.284	-0.249
-468.186	74.999	-0.189	-0.199
-467.172	0.101	0.224	0.160
-466.157	190.080	-0.110	-0.165
-465.143	14.825	-0.303	0.237
-464.128	-200.000	0.439	0.001
-463.113	182.360	-0.095	-0.140
-462.099	-200.000	-0.004	0.162
-461.084	706.895	-0.093	0.246
-460.070	121.064	-0.136	0.170
-459.055	141.136	-0.207	-0.275
-458.040	-200.000	-0.059	0.376
-457.026	-58.050	-0.181	-0.079
-456.011	-97.453	0.180	0.047
-454.997	-20.958	-0.244	-0.150
-453.982	145.415	0.035	-0.047
-452.968	65.261	-0.097	-0.099
-451.953	361.468	0.103	0.207
-450.938	-152.059	0.129	0.009
-449.924	-34.919	-0.392	0.215
-448.909	139.097	-0.120	-0.158
-447.895	4.837	0.279	0.205
-446.880	-58.667	-0.058	0.025
-445.865	-110.226	-0.143	0.030
-444.851	-97.725	-0.349	0.091
-443.836	115.177	0.091	0.111
-442.822	78.296	-0.132	0.141
-441.807	-200.000	-0.017	-0.146
-440.792	233.859	-0.168	0.278
-439.778	405.578	-0.040	0.086
-438.763	-51.623	-0.128	-0.060
-437.749	22.817	0.053	-0.044
-436.734	19.885	-0.258	0.209
-435.719	131.600	0.147	0.189
-434.705	86.945	0.290	0.321
-433.690	-200.000	0.016	0.247
-432.676	-21.577	-0.127	0.078
-431.661	-25.428	-0.100	0.059
-430.646	-75.462	-0.181	-0.064
-429.632	-67.042	-0.230	-0.091
-428.617	-75.414	0.519	-0.185
-427.603	422.006	-0.047	0.100
-426.588	307.055	0.167	-0.312
-425.573	800.000	-0.091	-0.260
-424.559	622.465	-0.027	0.068
-423.544	-75.439	-0.082	0.029
-422.530	800.000	0.021	0.076
-421.515	-96.760	-0.067	0.018
-420.500	-39.003	0.282	0.149
-419.486	800.000	-0.010	0.038
-418.471	-123.008	0.299	-0.048
-417.457	-56.048	-0.071	0.032
-416.442	-81.312	-0.260	-0.086
-415.428	800.000	0.035	0.128
-414.413	-63.403	0.313	0.129
-413.398	800.000	-0.035	0.124
-412.384	-12.539	0.022	-0.014
-411.369	-48.291	0.457	0.221
-410.355	-195.469	-0.292	0.002
-409.340	-95.036	-0.121	-0.033
-408.325	197.998	0.126	-0.193
-407.311	443.150	-0.116	-0.255
-406.296	507.184	-0.081	-0.187
-405.282	-90.091	-0.235	-0.068
-404.267	422.607	-0.158	0.339
-403.252	-171.162	-0.284	-0.010
-402.238	55.046	0.139	0.135
-401.223	-89.233	0.454	-0.134
-400.209	154.726	0.288	-0.396
-399.194	-200.000	0.017	-0.092
-398.179	-74.112	-0.180	-0.065
-397.165	674.415	-0.072	-0.186
-396.150	-37.867	-0.197	0.105
-395.136	425.066	-0.192	0.412
-394.121	800.000	0.018	-0.060
-393.106	-200.000	-0.030	-0.469
-392.092	-102.424	-0.161	-0.039
-391.077	42.220	-0.212	-0.193
-390.063	-66.439	-0.261	-0.104
-389.048	-152.818	0.250	0.018
-388.033	424.509	0.109	0.235
-387.019	4.413	0.109	-0.080
-386.004	371.280	0.112	-0.228
-384.990	475.329	0.091	0.206
-383.975	-137.857	-0.269	-0.030
-382.960	-200.000	0.034	0.336
-381.946	16.962	0.146	0.116
-380.931	-200.000	0.020	0.136
-379.917	-200.000	0.012	-0.074
-378.902	20.212	0.259	-0.209
-377.888	142.676	0.241	-0.320
-376.873	-129.824	-0.278	-0.038
-375.858	449.032	0.096	0.212
-374.844	-2.290	0.139	0.098
-373.829	-200.000	0.051	0.244
-372.815	37.036	0.148	-0.131
-371.800	16.023	0.207	0.163
-370.785	464.249	-0.092	0.206
-369.771	-96.384	-0.256	-0.068
-368.756	-200.000	-0.075	-0.353
-367.742	80.490	-0.092	-0.098
-366.727	144.635	0.104	-0.139
-365.712	299.006	-0.084	0.155
-364.698	-162.744	-0.284	-0.014
-363.683	800.000	0.042	-0.166
-362.669	-6.641	0.092	-0.062
-361.654	17.095	0.165	-0.131
-360.639	-69.399	-0.270	-0.104
-359.625	-13.604	-0.207	0.134
-358.610	800.000	0.056	0.214
-357.596	-92.436	-0.165	-0.046
-356.581	-83.435	0.267	0.086
-355.566	317.340	-0.034	-0.065
-354.552	-82.450	-0.001	-0.000
-353.537	152.127	0.200	-0.273
-352.523	24.432	-0.455	-0.375
-351.508	50.368	0.183	-0.173
-350.493	-64.034	0.167	0.068
-349.479	-105.990	0.065	-0.015
-348.464	-200.000	0.007	-0.103
-347.450	28.870	0.169	-0.143
-346.435	618.044	-0.088	-0.221
-345.420	159.131	0.302	-0.419
-344.406	-62.541	0.090	0.037
-343.391	-107.329	-0.228	-0.050
-342.377	15.245	0.225	-0.176
-341.362	-200.000	0.022	-0.125
-340.348	760.907	0.013	0.035
-339.333	-200.000	-0.050	0.308
-338.318	119.505	0.186	0.230
-337.304	43.731	-0.262	0.239
-336.289	-200.000	0.024	-0.214
-335.275	180.189	-0.118	-0.173
-334.260	-200.000	0.058	0.335
-333.245	193.774	0.075	-0.114
-332.231	44.124	-0.211	0.193
-331.216	191.798	0.127	0.191
-330.202	800.000	0.051	-0.159
-329.187	176.789	-0.090	-0.131
-328.172	800.000	0.071	0.286
-327.158	280.005	-0.052	-0.093
-326.143	76.682	0.202	-0.213
-325.129	-86.044	-0.329	0.101
-324.114	-36.974	0.331	0.177
-323.099	-200.000	0.017	0.081
-322.085	800.000	-0.183	0.601
-321.070	-29.612	0.328	0.187
-320.056	-200.000	-0.190	0.001
-319.041	-84.133	0.267	0.084
-318.026	-116.931	-0.209	0.038
-317.012	11.505	0.082	0.063
-315.997	-200.000	0.023	0.309
-314.983	-93.941	0.159	-0.044
-313.968	-41.635	0.324	0.166
-312.953	-76.280	-0.426	-0.150
-311.939	-200.000	0.066	-0.450
-310.924	-54.951	0.215	0.097
-309.910	800.000	0.083	-0.262
-308.895	-73.510	-0.096	0.035
-307.880	-200.000	-0.043	-0.468
-306.866	84.998	0.172	-0.188
-305.851	48.689	0.065	0.060
-304.837	-87.099	-0.163	0.049
-303.822	-7.951	0.221	0.149
-302.807	-135.624	-0.260	-0.031
-301.793	-19.176	-0.050	-0.031
-300.778	356.362	-0.143	-0.284
-299.764	800.000	0.044	0.126
-298.749	-1.035	-0.141	0.099
-297.735	603.336	-0.041	0.102
-296.720	47.329	0.092	-0.085
-295.705	-2.770	0.157	-0.109
-294.691	121.675	-0.124	0.155
-293.676	253.772	-0.293	0.499
-292.662	-53.235	0.133	-0.061
-291.647	-178.697	0.426	-0.010
-290.632	-53.353	0.136	0.062
-289.618	-8.376	-0.159	0.106
-288.603	-7.150	-0.197	-0.133
-287.589	123.080	0.141	-0.176
-286.574	105.750	-0.355	-0.418
-285.559	-200.000	0.029	0.141
-284.545	-146.222	-0.223	0.020
-283.530	-200.000	0.030	0.251
-282.516	-67.020	-0.144	0.056
-281.501	-200.000	0.010	-0.136
-280.486	800.000	-0.006	0.028
-279.472	-91.148	0.272	-0.078
-278.457	-159.980	0.206	0.011
-277.443	233.856	0.014	-0.023
-276.428	61.969	0.235	-0.233
-275.413	70.361	-0.071	0.073
-274.399	800.000	0.019	0.059
-273.384	74.491	-0.060	-0.063
-272.370	23.915	-0.147	-0.121
-271.355	-200.000	-0.084	-0.388
-270.340	49.106	0.165	0.155
-269.326	-180.194	-0.216	0.005
-268.311	24.226	-0.206	0.169
-267.297	-200.000	-0.025	-0.111
-266.282	71.846	-0.077	0.079
-265.267	-47.592	0.385	0.186
-264.253	-97.687	-0.294	-0.076
-263.238	-37.728	-0.098	0.052
-262.224	-16.174	0.180	-0.114
-261.209	10.956	0.243	-0.184
-260.195	-200.000	0.015	0.216
-259.180	800.000	0.064	-0.182
-258.165	-200.000	-0.027	-0.130
-257.151	232.827	0.116	-0.189
-256.136	319.159	0.116	0.219
-255.122	8.920	0.071	0.053
-254.107	287.547	0.111	-0.200
-253.092	0.967	0.402	-0.287
-252.078	800.000	0.018	-0.068
-251.063	18.052	-0.138	0.109
-250.049	-200.000	0.018	-0.334
-249.034	9.577	0.153	-0.115
-248.019	-81.342	-0.021	-0.007
-247.005	-97.001	-0.115	-0.030
-245.990	-200.000	0.033	-0.456
-244.976	800.000	0.034	0.127
-243.961	800.000	-0.066	-0.256
-242.946	-50.688	-0.222	-0.104
-241.932	-80.740	0.260	-0.086
-240.917	-22.641	-0.249	-0.150
-239.903	800.000	-0.066	-0.260
-238.888	508.227	-0.060	-0.138
-237.873	-24.576	0.168	-0.100
-236.859	184.756	0.035	0.051
-235.844	7.307	0.256	0.190
-234.830	542.383	0.074	-0.175
-233.815	485.930	-0.134	0.303
-232.800	-85.060	-0.073	0.023
-231.786	420.721	0.117	-0.249
-230.771	-50.667	0.257	0.120
-229.757	-82.753	0.274	0.088
-228.742	281.353	-0.095	0.170
-227.727	-200.000	-0.005	-0.192
-226.713	-75.763	0.048	-0.017
-225.698	61.447	0.263	-0.259
-224.684	-58.333	-0.245	0.106
-223.669	800.000	0.109	0.340
-222.655	-156.430	-0.228	0.014
-221.640	139.201	0.309	-0.403
-220.625	-79.925	0.078	-0.026
-219.611	69.057	0.045	-0.046
-218.596	-132.946	-0.584	0.074
-217.582	-82.231	-0.092	-0.030
-216.567	48.207	0.199	0.185
-215.552	-171.369	0.168	0.006
-214.538	-178.691	-0.257	0.006
-213.523	76.060	0.054	-0.056
-212.509	-200.000	-0.034	-0.486
-211.494	-127.082	-0.114	-0.017
-210.479	-43.232	0.327	-0.164
-209.465	-49.653	0.220	-0.104
-208.450	-149.727	0.079	0.006
-207.436	-136.930	0.054	-0.006
-206.421	-27.880	0.201	0.116
-205.406	-75.071	0.202	-0.072
-204.392	-128.515	-0.135	0.019
-203.377	-163.421	0.341	0.016
-202.363	188.096	-0.016	0.024
-201.348	-77.007	0.157	0.054
-200.333	18.184	0.436	0.345
-199.319	800.000	0.094	0.372
-198.304	-36.715	0.303	0.161
-197.290	-93.538	-0.159	0.044
-196.275	-187.344	-0.260	0.003
-195.260	-85.693	0.179	0.055
-194.246	17.166	0.149	0.117
-193.231	-200.000	-0.014	-0.312
-192.217	391.891	-0.038	0.079
-191.202	-82.369	0.355	-0.114
-190.187	232.256	-0.096	-0.156
-189.173	800.000	0.023	0.092
-188.158	-109.602	0.347	-0.073
-187.144	83.645	-0.207	0.224
-186.129	647.690	0.102	-0.260
-185.114	-116.496	-0.266	0.049
-184.100	-200.000	0.226	-0.000
-183.085	142.400	0.252	0.331
-182.071	634.476	-0.118	0.296
-181.056	219.526	-0.066	-0.105
-180.042	347.883	0.096	-0.187
-179.027	6.885	-0.113	0.083
-178.012	800.000	-0.062	-0.225
-176.998	-111.165	0.349	-0.071
-175.983	11.177	-0.160	0.121
-174.969	-200.000	-0.025	0.156
-173.954	176.193	0.213	0.306
-172.939	65.555	0.221	0.222
-171.925	-157.444	0.163	0.010
-170.910	-200.000	-0.008	0.193
-169.896	659.613	-0.100	0.255
-168.881	-35.342	0.112	-0.060
-167.866	41.534	0.141	-0.126
-166.852	356.979	-0.048	0.095
-165.837	-85.479	0.133	0.041
-164.823	493.781	-0.072	0.164
-163.808	-71.665	-0.120	-0.044
-162.793	800.000	0.068	0.209
-161.779	27.376	-0.068	0.056
-160.764	69.634	-0.184	-0.188
-159.750	112.040	-0.187	0.224
-158.735	-174.022	-0.166	-0.005
-157.720	-186.785	-0.208	0.003
-156.706	-9.609	-0.142	-0.094
-155.691	-14.806	0.386	-0.245
-154.677	622.029	0.036	-0.090
-153.662	21.711	0.333	0.268
-152.647	800.000	0.046	0.187
-151.633	-47.829	0.132	-0.063
-150.618	-200.000	-0.016	0.081
-149.604	16.285	0.209	-0.164
-148.589	307.811	0.095	-0.175
-147.574	70.418	0.286	-0.293
-146.560	44.421	0.248	0.226
-145.545	-200.000	0.046	0.347
-144.531	800.000	0.069	-0.206
-143.516	-118.971	0.283	-0.049
-142.502	-200.000	0.023	0.190
-141.487	121.140	-0.287	0.354
-140.472	-153.548	0.298	-0.020
-139.458	-170.323	0.083	0.003
-138.443	-46.017	0.156	0.076
-137.429	-200.000	0.045	0.356
-136.414	-200.000	-0.022	0.233
-135.399	-4.966	0.162	0.110
-134.385	-200.000	-0.016	0.117
-133.370	400.203	0.060	-0.124
-132.356	207.078	0.078	0.121
-131.341	-200.000	0.108	-0.477
-130.326	-200.000	0.031	-0.225
-129.312	-106.714	-0.090	0.020
-128.297	-200.000	0.023	0.222
-127.283	800.000	-0.091	0.297
-126.268	-97.788	0.274	-0.070
-125.253	124.280	-0.066	-0.082
-124.239	273.810	0.112	-0.196
-123.224	-80.624	-0.089	-0.029
-122.210	-149.079	-0.128	0.010
-121.195	12.786	0.345	0.263
-120.180	-200.000	0.052	0.305
-119.166	-47.772	0.213	-0.102
-118.151	-140.061	0.066	-0.007
-117.137	-13.605	0.052	-0.033
-116.122	-200.000	0.019	0.274
-115.107	-88.913	-0.078	0.023
-114.093	773.146	-0.068	-0.184
-113.078	376.529	0.042	-0.085
-112.064	685.129	0.126	0.326
-111.049	142.342	0.175	0.230
-110.034	-118.674	0.434	-0.076
-109.020	-37.385	-0.077	-0.041
-108.005	-200.000	0.022	-0.128
-106.991	-200.000	0.075	-0.451
-105.976	-200.000	0.168	-0.000
-104.962	-184.056	0.193	0.003
-103.947	-200.000	0.010	-0.210
-102.932	-71.123	0.307	0.114
-101.918	-71.075	-0.036	-0.013
-100.903	16.673	0.189	-0.147
-99.889	-25.681	0.144	-0.084
-98.874	-124.817	-0.320	-0.049
-97.859	3.323	-0.211	0.152
-96.845	94.276	0.107	0.121
-95.830	-74.648	-0.361	0.128
-94.816	-95.800	0.289	0.076
-93.801	-200.000	0.011	-0.415
-92.786	-200.000	0.011	0.153
-91.772	-2.596	0.335	0.232
-90.757	129.376	-0.221	-0.279
-89.743	-200.000	0.069	-0.316
-88.728	-200.000	0.004	-0.211
-87.713	-200.000	0.031	-0.154
-86.699	69.203	-0.053	-0.054
-85.684	234.470	-0.130	-0.211
-84.670	-24.163	-0.284	-0.168
-83.655	785.570	-0.080	-0.216
-82.640	-196.611	-0.169	-0.001
-81.626	192.978	0.066	0.099
-80.611	18.403	-0.322	-0.254
-79.597	-58.079	0.078	0.034
-78.582	150.978	-0.103	-0.139
-77.567	-122.394	0.221	0.036
-76.553	-139.968	0.257	0.027
-75.538	359.348	0.046	-0.092
-74.524	82.357	-0.309	-0.331
-73.509	250.650	-0.217	0.364
-72.494	18.552	-0.195	-0.154
-71.480	-25.944	0.270	-0.157
-70.465	-0.706	0.257	0.180
-69.451	605.033	-0.110	0.270
-68.436	391.423	-0.059	-0.121
-67.422	-200.000	0.081	-0.552
-66.407	741.500	-0.103	-0.273
-65.392	-200.000	0.002	-0.213
-64.378	-110.756	-0.068	0.014
-63.363	-200.000	0.001	-0.030
-62.349	-200.000	-0.009	0.146
-61.334	107.200	-0.868	-1.018
-60.319	36.584	0.570	0.496
-59.305	800.000	-0.308	-0.847
-58.290	189.851	0.697	1.031
-57.276	800.000	0.463	1.838
-56.261	-200.000	95.731	548.691
-55.246	478.897	1439.923	3217.934
-54.232	143.476	2664.323	3500.279
-53.217	107.375	2244.219	2633.237
-52.203	43.603	1765.953	1593.550
-51.188	36.424	1574.423	1369.982
-50.173	34.044	1547.089	1329.524
-49.159	52.132	1596.048	1500.445
-48.144	54.461	1614.344	1534.135
-47.130	36.821	1572.552	1370.942
-46.115	33.665	1557.060	1335.214
-45.100	33.501	1553.629	1331.072
-44.086	33.451	1551.735	1329.043
-43.071	33.410	1549.977	1327.195
-42.057	33.389	1547.974	1325.280
-41.042	33.369	1547.070	1324.314
-40.027	33.470	1545.041	1323.234
-39.013	33.413	1543.790	1321.710
-37.998	33.405	1542.565	1320.554
-36.984	33.335	1541.600	1319.184
-35.969	33.445	1539.875	1318.426
-34.954	33.452	1537.999	1316.814
-33.940	33.379	1537.004	1315.405
-32.925	33.448	1535.464	1314.513
-31.911	33.372	1535.104	1313.627
-30.896	33.356	1533.184	1311.817
-29.881	33.398	1532.070	1311.105
-28.867	33.398	1530.240	1309.483
-27.852	33.455	1528.519	1308.351
-26.838	33.435	1527.685	1307.453
-25.823	33.429	1526.081	1305.986
-24.809	33.445	1524.104	1304.352
-23.794	33.465	1522.735	1303.267
-22.779	33.356	1521.744	1301.615
-21.765	33.482	1520.018	1300.955
-20.750	33.412	1519.102	1299.639
-19.736	33.273	1518.618	1298.215
-18.721	33.396	1517.111	1297.722
-17.706	33.346	1516.104	1296.467
-16.692	33.356	1515.385	1295.870
-15.677	33.308	1514.204	1294.480
-14.663	33.440	1512.641	1293.990
-13.648	33.267	1512.345	1292.505
-12.633	33.287	1511.061	1291.491
-11.619	33.383	1509.821	1291.037
-10.604	33.296	1509.633	1290.230
-9.590	33.394	1508.200	1289.622
-8.575	33.322	1507.680	1288.639
-7.560	33.392	1506.803	1288.317
-6.546	33.383	1505.855	1287.394
-5.531	33.271	1505.115	1285.943
-4.517	33.220	1504.234	1284.793
-3.502	33.362	1502.556	1284.278
-2.487	33.397	1501.277	1283.368
-1.473	33.205	1501.191	1281.940
-0.458	33.389	1499.582	1281.762
0.556	33.075	1490.236	1272.392
1.571	30.438	1463.954	1232.374
2.586	26.671	1398.281	1153.060
3.600	23.978	1310.231	1064.272
4.615	21.482	1261.800	1010.443
5.629	17.957	1202.853	943.709
6.644	9.302	1114.533	829.843
7.659	2.367	1071.753	763.407
8.673	1.268	1065.884	753.701
9.688	1.040	1063.033	750.487
10.702	1.050	1061.367	749.295
11.717	1.073	1059.709	748.174
12.731	3.561	1061.728	761.825
13.746	11.051	1072.149	806.465
14.761	16.583	1079.223	839.230
15.775	17.751	1079.670	845.297
16.790	17.252	1078.487	841.823
17.804	16.336	1076.315	835.525
18.819	15.466	1074.033	829.382
19.834	14.938	1073.224	826.079
20.848	14.608	1071.877	823.341
21.863	14.476	1071.397	822.245
22.877	14.179	1070.268	819.843
23.892	13.953	1069.532	818.097
24.907	13.841	1068.547	816.716
25.921	13.777	1067.781	815.747
26.936	13.856	1067.263	815.665
27.950	14.001	1066.339	815.599
28.965	13.917	1065.488	814.466
29.980	13.978	1064.810	814.171
30.994	13.923	1063.867	813.113
32.009	14.030	1062.909	812.832
33.023	14.167	1062.268	812.938
34.038	14.112	1061.627	812.106
35.053	14.112	1060.716	811.337
36.067	14.062	1059.760	810.292
37.082	13.975	1058.945	809.171
38.096	14.042	1057.766	808.526
39.111	14.034	1057.600	808.287
40.126	14.100	1056.444	807.656
41.140	13.936	1055.513	806.075
42.155	13.881	1054.737	805.146
43.169	13.903	1053.638	804.343
44.184	13.918	1052.158	803.213
45.199	13.825	1051.865	802.467
46.213	13.926	1050.507	801.848
47.228	13.962	1049.062	800.846
48.242	13.984	1048.303	800.302
49.257	13.972	1047.612	799.649
50.271	14.017	1046.408	798.874
51.286	14.026	1045.495	798.149
52.301	14.108	1044.177	797.467
53.315	13.931	1044.115	796.498
54.330	13.915	1043.497	795.881
55.344	13.902	1042.576	795.045
56.359	13.884	1041.449	794.029
57.374	13.814	1041.038	793.314
58.388	13.880	1039.959	792.736
59.403	13.872	1038.940	791.848
60.417	13.779	1038.244	790.806
61.432	13.913	1037.381	790.715
62.447	13.906	1037.057	790.365
63.461	13.761	1035.745	788.607
64.476	13.887	1034.927	788.515
65.490	13.798	1034.157	787.437
66.505	13.854	1033.501	787.132
67.520	13.787	1032.548	786.017
68.534	13.757	1032.129	785.488
69.549	13.788	1031.481	785.073
70.563	13.827	1030.429	784.386
71.578	13.811	1029.241	783.336
72.593	13.842	1028.944	783.188
73.607	13.831	1027.728	782.141
74.622	13.804	1026.908	781.322
75.636	13.730	1025.913	780.145
76.651	13.783	1025.329	779.884
77.666	13.838	1024.230	779.233
78.680	13.602	1023.897	777.806
79.695	13.726	1022.862	777.530
80.709	13.776	1022.588	777.488
81.724	13.913	1021.245	777.041
82.739	13.931	1020.306	776.343
83.753	13.876	1019.915	775.716
84.768	13.950	1019.010	775.305
85.782	13.950	1018.691	774.994
86.797	14.099	1017.452	774.677
87.812	14.001	1016.702	773.581
88.826	13.979	1015.994	772.871
89.841	13.940	1014.726	771.658
90.855	13.956	1014.248	771.303
91.870	13.937	1013.505	770.579
92.884	14.010	1012.625	770.181
93.899	14.034	1012.087	769.815
94.914	14.113	1011.263	769.487
95.928	14.069	1010.371	768.535
96.943	14.158	1009.773	768.426
97.957	14.012	1009.094	767.167
98.972	13.968	1008.352	766.329
99.987	14.046	1007.492	765.967
101.001	14.013	1006.734	765.172
102.016	13.948	1005.919	764.187
103.030	14.004	1004.923	763.619
104.045	14.097	1003.564	762.945
105.060	14.058	1002.759	762.087
106.074	14.078	1002.014	761.545
107.089	13.971	1000.802	760.067
108.103	13.882	1000.227	759.158
109.118	13.960	999.223	758.685
110.133	14.016	998.221	758.111
111.147	13.882	997.602	756.961
112.162	14.031	996.458	756.706
113.176	14.026	995.628	755.988
114.191	13.958	995.337	755.387
115.206	13.885	994.295	754.201
116.220	13.981	993.233	753.765
117.235	13.984	992.553	753.196
118.249	14.033	991.647	752.662
119.264	14.078	990.698	752.078
120.279	13.906	990.105	750.784
121.293	13.990	989.271	750.463
122.308	13.930	988.600	749.619
123.322	13.965	987.730	749.052
124.337	13.826	987.105	747.883
125.352	13.908	985.888	747.267
126.366	14.026	984.058	746.341
127.381	13.882	983.592	745.278
128.395	14.001	982.331	744.786
129.410	14.074	981.452	744.384
130.424	13.911	980.801	743.094
131.439	13.950	980.111	742.678
132.454	14.044	978.962	742.161
133.468	13.984	978.185	741.241
134.483	14.024	977.458	740.804
135.497	14.090	976.987	740.671
136.512	14.040	976.013	739.645
137.527	14.037	975.249	738.991
138.541	14.069	974.317	738.360
139.556	14.120	973.656	738.019
140.570	14.052	973.189	737.298
141.585	13.984	972.254	736.226
142.600	14.182	971.412	736.397
143.614	14.142	970.474	735.446
144.629	14.163	969.866	735.010
145.643	14.100	969.382	734.303
146.658	14.226	968.137	733.850
147.673	14.095	967.608	732.804
148.687	14.147	966.634	732.232
149.702	14.128	965.384	731.137
150.716	14.132	964.964	730.772
151.731	13.986	964.179	729.473
152.746	14.059	963.499	729.211
153.760	13.994	962.549	728.146
154.775	14.172	961.662	728.188
155.789	14.219	960.785	727.667
156.804	14.178	960.054	726.867
157.819	14.282	959.329	726.712
158.833	14.301	958.604	726.177
159.848	14.154	958.305	725.248
160.862	14.183	957.547	724.737
161.877	14.308	956.458	724.392
162.892	14.305	955.742	723.772
163.906	14.263	954.472	722.563
164.921	14.175	953.777	721.594
165.935	14.222	952.544	720.797
166.950	14.268	952.453	720.865
167.964	14.335	951.047	720.027
168.979	14.280	950.243	719.117
169.994	14.205	949.366	718.069
171.008	14.201	948.605	717.408
172.023	14.312	947.401	716.912
173.037	14.377	946.443	716.406
174.052	14.330	945.739	715.606
175.067	14.322	945.498	715.325
176.081	14.345	944.395	714.528
177.096	14.261	943.709	713.585
178.110	14.302	942.982	713.150
179.125	14.349	942.362	712.817
180.140	14.316	941.392	711.880
181.154	14.372	940.334	711.257
182.169	14.288	939.913	710.517
183.183	14.357	939.017	710.072
184.198	14.497	938.607	710.291
185.213	14.465	937.885	709.548
186.227	14.551	937.584	709.623
187.242	14.583	936.424	708.817
188.256	14.590	935.941	708.422
189.271	14.628	934.809	707.660
190.286	14.604	934.430	707.210
191.300	14.508	933.757	706.232
192.315	14.403	933.132	705.251
193.329	14.404	932.692	704.863
194.344	14.396	932.165	704.369
195.359	14.560	930.601	703.815
196.373	14.584	930.627	703.875
197.388	14.671	929.782	703.537
198.402	14.592	929.616	703.017
199.417	14.664	928.794	702.639
200.432	14.691	928.284	702.302
201.446	14.700	928.210	702.224
202.461	14.770	927.659	702.038
203.475	14.779	926.989	701.506
204.490	14.843	926.242	701.146
205.504	14.669	925.846	700.055
206.519	14.737	924.963	699.613
207.534	14.812	923.989	699.126
208.548	14.878	923.280	698.803
209.563	14.734	922.433	697.499
210.577	14.790	922.118	697.433
211.592	14.759	921.376	696.683
212.607	14.827	920.773	696.448
213.621	15.050	919.707	696.509
214.636	14.896	919.680	695.785
215.650	14.789	919.125	694.856
216.665	14.793	918.618	694.431
217.680	14.835	917.848	693.962
218.694	14.882	917.246	693.641
219.709	15.085	916.516	693.867
220.723	14.902	915.809	692.514
221.738	14.994	915.206	692.375
222.753	15.007	914.537	691.861
223.767	15.008	913.581	691.082
224.782	14.950	913.040	690.372
225.796	15.066	912.053	690.041
226.811	15.171	911.042	689.649
227.826	15.014	910.700	688.684
228.840	15.134	910.128	688.685
229.855	15.100	909.314	687.866
230.869	14.920	909.206	686.987
231.884	15.159	907.955	686.958
232.899	15.057	907.680	686.272
233.913	15.101	906.776	685.708
234.928	15.055	906.098	684.947
235.942	15.065	905.569	684.527
236.957	15.113	904.684	683.994
237.972	15.095	904.072	683.399
238.986	15.331	902.929	683.436
240.001	15.270	902.620	682.892
241.015	15.140	901.945	681.790
242.030	15.214	901.516	681.709
243.045	15.151	900.927	680.945
244.059	15.213	900.012	680.448
245.074	15.271	899.414	680.169
246.088	15.348	898.914	680.045
247.103	15.162	898.309	678.772
248.117	15.267	897.635	678.628
249.132	15.441	896.906	678.718
250.147	15.460	896.410	678.361
251.161	15.342	895.962	677.486
252.176	15.521	894.793	677.263
253.190	15.580	894.157	676.960
254.205	15.488	893.928	676.356
255.220	15.477	893.441	675.884
256.234	15.517	892.651	675.387
257.249	15.620	891.871	675.152
258.263	15.564	891.553	674.625
259.278	15.774	890.367	674.511
260.293	15.583	890.356	673.677
261.307	15.700	889.544	673.471
262.322	15.764	889.031	673.281
263.336	15.776	888.466	672.839
264.351	15.714	887.640	671.908
265.366	15.687	887.384	671.544
266.380	15.678	887.063	671.207
267.395	15.906	885.788	671.094
268.409	15.917	885.150	670.594
269.424	15.748	884.458	669.337
270.439	15.699	883.744	668.542
271.453	15.882	882.918	668.586
272.468	15.872	882.137	667.895
273.482	15.814	881.546	667.161
274.497	15.713	881.653	666.780
275.512	15.773	880.434	666.039
276.526	15.834	879.393	665.434
277.541	15.895	878.729	665.112
278.555	15.968	878.104	664.869
279.570	16.011	877.902	664.826
280.585	16.103	877.437	664.779
281.599	16.029	876.421	663.660
282.614	16.021	876.003	663.251
283.628	16.068	875.497	662.994
284.643	16.028	874.880	662.313
285.657	15.941	874.643	661.732
286.672	16.075	874.117	661.800
287.687	15.974	873.706	661.034
288.701	16.050	873.199	660.891
289.716	16.152	872.524	660.720
290.730	16.156	871.719	660.068
291.745	16.250	870.810	659.690
292.760	16.175	870.189	658.866
293.774	16.128	869.667	658.232
294.789	16.196	869.251	658.121
295.803	16.236	868.307	657.505
296.818	16.197	867.920	657.003
297.833	16.221	867.417	656.657
298.847	16.206	866.696	655.996
299.862	16.277	865.950	655.649
300.876	16.205	865.171	654.720
301.891	16.210	864.579	654.234
302.906	16.302	864.270	654.299
303.920	16.174	863.726	653.334
304.935	16.264	862.858	652.969
305.949	16.330	862.298	652.740
306.964	16.566	861.261	652.809
307.979	16.325	861.386	651.915
308.993	16.500	860.528	651.883
310.008	16.489	859.801	651.234
311.022	16.421	859.603	650.765
312.037	16.588	858.659	650.633
313.052	16.504	858.347	650.017
314.066	16.528	857.543	649.444
315.081	16.367	857.004	648.358
316.095	16.592	856.313	648.641
317.110	16.540	855.797	647.992
318.125	16.455	855.447	647.345
319.139	16.505	854.917	647.080
320.154	16.455	854.337	646.392
321.168	16.522	853.891	646.252
322.183	16.510	853.235	645.653
323.197	16.506	852.889	645.319
324.212	16.579	852.141	644.975
325.227	16.551	852.047	644.738
326.241	16.689	851.423	644.735
327.256	16.571	850.814	643.769
328.270	16.649	850.067	643.444
329.285	16.534	849.592	642.590
330.300	16.464	849.145	641.927
331.314	16.637	848.370	641.943
332.329	16.658	847.732	641.484
333.343	16.667	846.953	640.869
334.358	16.751	846.500	640.789
335.373	16.929	845.812	640.884
336.387	16.774	845.486	639.995
337.402	16.938	844.714	639.972
338.416	16.744	844.624	639.116
339.431	16.806	843.814	638.679
340.446	16.919	843.045	638.466
341.460	16.848	842.865	638.008
342.475	16.920	842.108	637.650
343.489	16.925	841.425	637.094
344.504	16.867	841.066	636.548
345.519	17.006	840.630	636.682
346.533	17.004	839.815	636.003
347.548	17.109	839.034	635.747
348.562	17.007	838.948	635.246
349.577	16.988	838.551	634.817
350.592	17.041	837.868	634.439
351.606	17.008	837.438	633.935
352.621	17.159	836.785	633.950
353.635	16.951	836.153	632.637
354.650	17.036	836.177	632.917
355.665	17.045	835.650	632.498
356.679	17.185	834.857	632.361
357.694	17.215	834.103	631.846
358.708	17.138	833.887	631.341
359.723	17.119	833.292	630.762
360.738	17.195	832.735	630.568
361.752	17.299	832.088	630.407
362.767	17.108	832.080	629.637
363.781	17.272	831.748	629.939
364.796	17.254	830.926	629.193
365.810	17.302	830.151	628.729
366.825	17.196	829.890	628.083
367.840	17.364	829.781	628.568
368.854	17.450	829.088	628.303
369.869	17.258	828.985	627.462
370.883	17.408	828.180	627.348
371.898	17.302	827.773	626.596
372.913	17.416	827.070	626.426
373.927	17.556	826.412	626.389
374.942	17.425	825.733	625.335
375.956	17.349	825.440	624.781
376.971	17.461	825.004	624.805
377.986	17.570	823.992	624.384
379.000	17.619	823.586	624.199
380.015	17.503	823.087	623.340
381.029	17.538	822.745	623.155
382.044	17.515	822.295	622.675
383.059	17.733	820.918	622.376
384.073	17.690	820.761	622.042
385.088	17.691	820.277	621.626
386.102	17.618	819.818	620.956
387.117	17.714	819.404	620.935
388.132	17.722	818.523	620.243
389.146	17.567	818.350	619.494
390.161	17.662	818.010	619.526
391.175	17.793	817.492	619.555
392.190	17.781	816.995	619.079
393.205	17.873	816.586	619.050
394.219	17.767	816.241	618.348
395.234	17.700	816.019	617.884
396.248	17.741	815.171	617.336
397.263	17.630	814.998	616.746
398.278	17.648	814.425	616.322
399.292	17.762	813.857	616.250
400.307	17.680	813.532	615.654
401.321	17.873	812.639	615.621
402.336	17.820	812.412	615.204
403.350	17.856	812.127	615.065
404.365	17.794	811.812	614.548
405.380	17.799	811.093	613.966
406.394	17.882	810.811	613.997
407.409	17.885	810.375	613.622
408.423	17.947	809.876	613.415
409.438	18.102	808.951	613.214
410.453	18.121	808.787	613.105
411.467	17.996	808.541	612.417
412.482	17.948	808.003	611.784
413.496	18.060	807.083	611.433
414.511	18.062	806.963	611.294
415.526	18.117	807.017	611.478
416.540	18.049	806.300	610.636
417.555	18.164	805.921	610.708
418.569	18.084	805.575	610.105
419.584	18.152	804.940	609.814
420.599	18.100	804.701	609.391
421.613	107.286	1286.388	1452.312
422.628	92.446	1356.557	1452.426
