DTS Sentinel unit serial number:	SN413079Multiplexer serial number:	ORYXHardware model number:	OX4-SRSoftware version number:	ORYX F/W v4.00 Oryx Data Collector v3.7.2.0data status	okinstallation	princeton_trtdifferential loss correction	single-endedforward channel	channel 3reverse channel	N/Adate	2019/09/18time	05:04:35forward acquisition time	60.00reverse acquisition time	0.00gamma	496.2192k internal	0.2342k external	0.2342temperature offset calibration	0.9948default loss term (dB/km)	0.3790temperature slope calibration	1.0000multiplexer offset coefficient	1.0000multiplexer slope coefficient	1.0000fibre end	0.00T internal ref (°C)	23.50T ext. ref 1 (°C)	0.19T ext. ref 2 (°C)	17.68length (m)	temperature (°C)	Stokes	anti-Stokes-747.200	-2.540	-0.153	0.107
-746.185	247.314	0.014	0.024
-745.171	-97.779	0.156	-0.041
-744.156	213.131	-0.093	0.147
-743.142	404.075	-0.148	0.312
-742.127	-13.547	-0.191	0.124
-741.112	46.447	-0.162	-0.150
-740.098	121.844	-0.253	0.316
-739.083	-200.000	0.007	-0.374
-738.069	11.315	0.067	0.051
-737.054	609.859	0.067	0.167
-736.039	32.167	-0.340	0.294
-735.025	-108.001	0.499	-0.108
-734.010	427.745	-0.130	-0.282
-732.996	92.239	-0.076	-0.086
-731.981	-200.000	0.091	-0.432
-730.966	-93.424	-0.223	0.062
-729.952	-54.595	-0.111	0.050
-728.937	-102.121	-0.134	0.032
-727.923	-200.000	-0.039	0.268
-726.908	-200.000	0.044	-0.268
-725.894	-28.550	-0.538	-0.310
-724.879	457.025	-0.045	0.100
-723.864	83.834	0.105	-0.115
-722.850	59.256	0.223	-0.220
-721.835	-200.000	0.005	0.084
-720.821	115.137	0.053	0.065
-719.806	-169.300	-0.383	0.014
-718.791	-86.662	-0.205	-0.063
-717.777	58.221	0.036	-0.035
-716.762	-84.275	0.347	0.110
-715.748	-69.961	-0.082	-0.031
-714.733	-97.271	-0.238	0.062
-713.718	-107.263	-0.084	0.019
-712.704	-200.000	-0.013	0.066
-711.689	468.859	0.119	0.267
-710.675	157.554	0.215	-0.298
-709.660	110.826	0.305	-0.367
-708.645	154.602	0.156	0.214
-707.631	211.958	-0.117	0.185
-706.616	-96.560	-0.238	-0.063
-705.602	-4.597	-0.217	-0.150
-704.587	800.000	0.045	-0.141
-703.572	-17.028	0.115	-0.073
-702.558	800.000	0.051	-0.169
-701.543	800.000	0.083	0.278
-700.529	-45.944	0.358	-0.177
-699.514	-200.000	-0.036	0.239
-698.499	53.465	0.190	-0.182
-697.485	766.110	0.026	-0.071
-696.470	-55.657	-0.472	-0.211
-695.456	-75.485	-0.235	0.084
-694.441	-39.180	-0.319	-0.168
-693.426	287.695	0.089	0.162
-692.412	-20.962	0.216	0.132
-691.397	411.847	-0.127	-0.269
-690.383	-119.816	0.032	0.006
-689.368	-52.091	-0.332	0.154
-688.354	-55.660	-0.323	0.144
-687.339	23.733	0.137	-0.113
-686.324	11.233	0.125	-0.096
-685.310	-18.379	-0.045	0.028
-684.295	-200.000	0.007	-0.169
-683.281	53.060	-0.054	-0.051
-682.266	-183.104	-0.213	-0.004
-681.251	47.097	-0.113	-0.105
-680.237	21.733	-0.157	0.128
-679.222	-49.562	0.140	-0.067
-678.208	800.000	-0.117	0.380
-677.193	61.244	0.411	-0.408
-676.178	51.870	-0.294	0.280
-675.164	168.205	-0.190	-0.270
-674.149	-16.019	-0.214	-0.136
-673.135	137.628	0.086	0.112
-672.120	-200.000	-0.028	0.156
-671.105	145.139	-0.120	-0.160
-670.091	610.968	-0.138	-0.344
-669.076	-200.000	0.007	0.140
-668.062	283.900	-0.192	0.344
-667.047	800.000	-0.044	0.150
-666.032	564.559	-0.024	-0.059
-665.018	-112.063	0.219	0.044
-664.003	-111.243	0.205	0.042
-662.989	3.221	-0.176	0.128
-661.974	-66.064	0.224	-0.089
-660.959	-200.000	-0.039	0.335
-659.945	43.623	-0.014	-0.013
-658.930	0.065	0.269	0.191
-657.916	-182.559	0.344	-0.006
-656.901	-200.000	0.078	-0.362
-655.886	-128.294	-0.212	-0.030
-654.872	-200.000	0.010	-0.214
-653.857	157.716	-0.157	-0.217
-652.843	800.000	-0.034	0.150
-651.828	78.476	-0.234	0.250
-650.814	-178.094	0.089	0.002
-649.799	71.727	-0.293	-0.304
-648.784	177.176	0.091	-0.132
-647.770	571.095	-0.101	-0.245
-646.755	-141.087	-0.080	0.008
-645.741	14.486	-0.077	-0.060
-644.726	-200.000	-0.023	0.133
-643.711	-29.696	-0.314	-0.179
-642.697	240.165	0.108	0.180
-641.682	-33.841	-0.137	-0.076
-640.668	220.089	0.120	-0.192
-639.653	-200.000	0.015	-0.268
-638.638	-200.000	0.024	0.155
-637.624	100.591	0.055	0.063
-636.609	116.420	-0.220	-0.269
-635.595	0.754	-0.276	-0.197
-634.580	800.000	-0.076	0.316
-633.565	-121.680	0.197	-0.033
-632.551	368.888	-0.094	0.190
-631.536	134.523	-0.211	0.274
-630.522	93.303	-0.128	0.144
-629.507	-200.000	0.005	-0.145
-628.492	596.573	0.065	0.162
-627.478	118.854	0.124	-0.153
-626.463	16.668	0.130	-0.103
-625.449	-50.368	-0.326	0.154
-624.434	149.169	0.143	0.194
-623.419	-90.930	-0.212	0.061
-622.405	-60.820	-0.187	-0.079
-621.390	-200.000	0.031	0.182
-620.376	-16.007	0.285	-0.181
-619.361	26.690	-0.322	0.269
-618.346	800.000	0.042	-0.132
-617.332	-161.876	0.398	0.020
-616.317	-200.000	-0.033	-0.203
-615.303	-98.014	-0.024	0.006
-614.288	-101.423	0.271	0.066
-613.273	-85.969	0.114	-0.035
-612.259	355.798	-0.072	0.143
-611.244	-200.000	0.033	0.165
-610.230	238.692	0.100	-0.166
-609.215	800.000	-0.038	-0.112
-608.201	-53.885	-0.165	0.075
-607.186	375.464	0.105	-0.212
-606.171	207.759	0.054	-0.084
-605.157	-200.000	-0.003	-0.285
-604.142	-83.924	-0.191	-0.061
-603.128	800.000	-0.088	0.289
-602.113	-33.661	-0.364	0.200
-601.098	68.702	0.169	-0.173
-600.084	-176.182	-0.143	0.004
-599.069	137.952	0.206	0.269
-598.055	426.699	0.083	0.178
-597.040	343.254	0.169	0.329
-596.025	-155.381	-0.183	-0.012
-595.011	258.791	0.227	-0.389
-593.996	800.000	-0.097	0.414
-592.982	596.758	-0.076	-0.186
-591.967	217.352	-0.062	0.099
-590.952	-200.000	-0.074	-0.339
-589.938	800.000	-0.040	0.118
-588.923	0.798	0.300	0.214
-587.909	-200.000	0.069	0.388
-586.894	515.440	-0.044	-0.103
-585.879	-200.000	-0.054	0.298
-584.865	471.909	-0.146	0.328
-583.850	85.255	0.237	-0.259
-582.836	-158.386	-0.129	-0.007
-581.821	490.168	-0.050	0.114
-580.806	-38.217	-0.204	-0.108
-579.792	-200.000	0.007	0.127
-578.777	-110.404	-0.262	-0.054
-577.763	-85.803	0.143	-0.044
-576.748	484.722	0.103	-0.234
-575.733	45.287	0.165	-0.152
-574.719	-60.666	0.094	-0.040
-573.704	-106.757	-0.138	0.030
-572.690	16.277	-0.259	-0.203
-571.675	38.455	0.327	-0.290
-570.661	521.151	-0.112	-0.261
-569.646	169.417	-0.085	0.121
-568.631	-138.556	-0.248	0.027
-567.617	-35.485	0.350	0.189
-566.602	-40.424	-0.243	-0.125
-565.588	-200.000	-0.002	-0.027
-564.573	-200.000	0.020	-0.141
-563.558	365.665	-0.096	-0.193
-562.544	254.169	-0.144	0.244
-561.529	47.590	-0.038	-0.036
-560.515	87.505	-0.286	-0.315
-559.500	-12.127	0.169	-0.110
-558.485	800.000	-0.020	0.057
-557.471	202.832	0.159	-0.244
-556.456	225.385	0.143	0.230
-555.442	595.740	0.045	-0.111
-554.427	800.000	-0.021	0.067
-553.412	-200.000	-0.007	-0.096
-552.398	413.688	-0.078	-0.166
-551.383	-60.196	-0.055	0.023
-550.369	169.882	-0.118	0.168
-549.354	800.000	0.085	0.320
-548.339	-200.000	-0.008	-0.127
-547.325	-51.880	0.100	-0.046
-546.310	-131.908	0.311	0.040
-545.296	9.892	-0.186	0.140
-544.281	-139.412	-0.191	-0.020
-543.266	-9.290	0.103	-0.068
-542.252	-62.685	0.148	0.061
-541.237	-200.000	0.002	0.070
-540.223	-92.160	-0.124	-0.035
-539.208	-66.275	-0.238	-0.094
-538.193	-200.000	0.004	-0.186
-537.179	-85.716	0.107	0.033
-536.164	800.000	-0.031	-0.088
-535.150	67.656	-0.135	0.137
-534.135	-18.788	-0.172	0.107
-533.121	-106.359	-0.258	-0.057
-532.106	207.843	0.191	-0.296
-531.091	240.202	-0.090	0.149
-530.077	69.249	0.317	0.324
-529.062	-126.831	-0.408	-0.060
-528.048	-101.822	-0.190	0.046
-527.033	164.403	-0.133	-0.186
-526.018	62.662	-0.340	0.338
-525.004	-88.377	-0.291	0.086
-523.989	12.894	-0.191	-0.146
-522.975	-200.000	-0.015	-0.072
-521.960	-100.487	0.256	-0.063
-520.945	472.865	0.079	0.177
-519.931	800.000	0.062	-0.265
-518.916	-49.903	-0.221	-0.104
-517.902	800.000	-0.055	0.161
-516.887	-200.000	-0.000	-0.101
-515.872	172.533	-0.101	0.145
-514.858	800.000	0.122	-0.337
-513.843	53.693	-0.219	0.208
-512.829	800.000	0.042	-0.121
-511.814	800.000	-0.031	-0.136
-510.799	-200.000	0.058	-0.254
-509.785	81.848	0.368	0.395
-508.770	-79.869	0.137	0.046
-507.756	-169.923	-0.207	0.007
-506.741	-80.796	0.369	0.121
-505.726	-200.000	0.006	0.052
-504.712	236.213	0.105	-0.172
-503.697	800.000	0.045	0.126
-502.683	-62.730	-0.393	-0.162
-501.668	195.784	0.063	0.095
-500.653	73.099	0.201	-0.209
-499.639	-200.000	0.016	0.408
-498.624	-35.055	-0.112	0.061
-497.610	-91.262	0.116	-0.033
-496.595	27.006	-0.236	-0.197
-495.581	57.353	-0.096	-0.093
-494.566	-200.000	-0.023	-0.328
-493.551	130.223	0.167	0.212
-492.537	84.899	-0.155	0.168
-491.522	121.451	-0.261	-0.323
-490.508	-76.647	-0.198	-0.069
-489.493	-200.000	-0.009	-0.241
-488.478	68.141	0.085	0.086
-487.464	118.281	-0.159	0.195
-486.449	86.124	-0.157	-0.172
-485.435	71.996	-0.153	0.158
-484.420	144.009	-0.120	-0.159
-483.405	-32.957	0.080	-0.044
-482.391	237.909	-0.160	-0.263
-481.376	-139.322	0.250	0.027
-480.362	-76.299	0.121	-0.042
-479.347	-9.231	0.219	0.145
-478.332	-116.845	0.107	-0.019
-477.318	39.016	-0.110	-0.097
-476.303	61.451	0.141	-0.139
-475.289	-200.000	0.019	0.233
-474.274	800.000	-0.113	0.354
-473.259	-72.450	-0.294	0.108
-472.245	-198.010	-0.197	-0.001
-471.230	-200.000	0.021	0.449
-470.216	50.344	0.256	-0.240
-469.201	-90.779	-0.131	0.037
-468.186	-69.741	-0.215	-0.081
-467.172	-42.935	0.372	0.187
-466.157	-80.047	-0.260	-0.087
-465.143	-88.323	0.426	-0.126
-464.128	-200.000	0.028	-0.430
-463.113	686.675	0.105	0.271
-462.099	-200.000	0.116	-0.001
-461.084	-200.000	-0.015	-0.231
-460.070	579.044	-0.093	0.225
-459.055	-61.957	0.195	-0.081
-458.040	-132.539	-0.257	-0.033
-457.026	64.570	0.278	-0.278
-456.011	-49.366	0.443	0.210
-454.997	800.000	-0.053	-0.211
-453.982	-3.405	0.240	0.165
-452.968	141.235	-0.047	-0.062
-451.953	800.000	0.066	0.197
-450.938	-81.567	-0.311	-0.101
-449.924	-142.166	-0.188	0.018
-448.909	800.000	-0.030	-0.114
-447.895	-112.776	0.203	-0.040
-446.880	-200.000	0.011	-0.102
-445.865	607.456	-0.001	0.002
-444.851	-200.000	0.049	0.256
-443.836	-31.971	0.276	-0.153
-442.822	-7.439	0.267	-0.179
-441.807	179.898	-0.194	0.281
-440.792	-200.000	-0.012	-0.080
-439.778	-200.000	0.027	-0.195
-438.763	214.878	-0.092	-0.144
-437.749	-76.893	0.094	-0.032
-436.734	-50.130	-0.054	0.025
-435.719	132.445	-0.166	0.212
-434.705	18.937	0.172	-0.137
-433.690	-0.395	-0.290	-0.204
-432.676	-135.179	-0.198	0.024
-431.661	800.000	0.042	-0.124
-430.646	0.220	-0.113	-0.080
-429.632	-90.833	-0.179	-0.051
-428.617	-103.730	-0.200	0.046
-427.603	-91.631	-0.115	0.032
-426.588	70.507	-0.152	-0.156
-425.573	-85.767	-0.129	0.039
-424.559	-137.463	0.237	-0.026
-423.544	64.533	0.082	-0.082
-422.530	800.000	-0.120	0.335
-421.515	800.000	0.027	-0.099
-420.500	-111.031	0.372	-0.076
-419.486	-36.517	0.187	-0.099
-418.471	-41.706	0.418	0.212
-417.457	503.990	0.108	0.248
-416.442	272.096	-0.068	-0.119
-415.428	54.538	0.201	-0.192
-414.413	-12.374	0.135	-0.087
-413.398	-200.000	0.039	-0.371
-412.384	-200.000	0.042	-0.274
-411.369	-41.607	0.367	-0.186
-410.355	800.000	0.060	0.180
-409.340	-91.617	0.201	0.057
-408.325	-140.219	0.344	-0.036
-407.311	236.321	-0.194	0.317
-406.296	-200.000	0.013	0.200
-405.282	41.722	-0.058	-0.052
-404.267	-126.262	-0.227	-0.034
-403.252	-200.000	0.024	0.172
-402.238	800.000	-0.078	0.268
-401.223	136.582	-0.065	-0.083
-400.209	-68.969	0.197	0.075
-399.194	-89.698	0.229	-0.066
-398.179	-53.440	0.383	-0.173
-397.165	-113.043	0.076	-0.015
-396.150	-200.000	0.004	-0.036
-395.136	168.276	-0.232	0.326
-394.121	-123.211	-0.134	-0.021
-393.106	-200.000	0.009	0.093
-392.092	-200.000	0.021	0.150
-391.077	10.963	0.138	-0.104
-390.063	-134.226	0.203	-0.025
-389.048	-200.000	-0.012	0.076
-388.033	53.824	-0.239	0.227
-387.019	-200.000	0.020	-0.249
-386.004	-86.667	-0.304	0.092
-384.990	-97.494	-0.082	-0.021
-383.975	485.484	-0.125	0.280
-382.960	800.000	0.033	0.120
-381.946	3.373	-0.029	0.021
-380.931	-53.228	-0.236	0.107
-379.917	-200.000	-0.002	0.223
-378.902	131.926	-0.144	-0.183
-377.888	19.862	0.085	0.068
-376.873	-200.000	-0.003	0.188
-375.858	-99.315	0.163	0.041
-374.844	-178.513	-0.161	-0.004
-373.829	-56.461	0.079	-0.035
-372.815	207.101	0.087	0.134
-371.800	421.444	0.034	0.073
-370.785	800.000	-0.102	-0.337
-369.771	800.000	-0.117	0.404
-368.756	-87.522	-0.020	0.006
-367.742	-15.014	-0.214	-0.135
-366.727	-200.000	-0.020	0.209
-365.712	-124.902	0.321	0.049
-364.698	-40.225	0.185	-0.095
-363.683	-46.574	-0.164	0.080
-362.669	-97.466	-0.209	0.054
-361.654	454.683	0.082	0.179
-360.639	800.000	-0.077	0.301
-359.625	-200.000	0.007	-0.186
-358.610	-136.576	0.105	-0.012
-357.596	800.000	-0.103	-0.347
-356.581	-42.325	0.307	-0.155
-355.566	12.236	-0.064	0.049
-354.552	161.029	-0.100	-0.138
-353.537	-200.000	0.019	-0.256
-352.523	327.368	-0.085	0.160
-351.508	380.114	-0.120	0.243
-350.493	9.253	-0.258	0.192
-349.479	-200.000	-0.001	-0.053
-348.464	27.021	-0.140	-0.116
-347.450	2.367	0.439	0.313
-346.435	-48.397	-0.143	0.068
-345.420	-46.745	-0.090	-0.044
-344.406	101.752	-0.068	-0.079
-343.391	-200.000	0.009	-0.211
-342.377	-125.107	-0.216	-0.033
-341.362	390.547	-0.071	0.146
-340.348	581.317	-0.093	-0.225
-339.333	-200.000	-0.021	-0.285
-338.318	133.074	-0.087	0.111
-337.304	24.917	0.430	-0.352
-336.289	315.989	0.106	-0.198
-335.275	-200.000	0.038	-0.336
-334.260	-200.000	-0.073	-0.328
-333.245	-63.499	-0.151	-0.061
-332.231	800.000	0.130	0.384
-331.216	-50.824	0.104	-0.048
-330.202	-59.858	-0.050	0.021
-329.187	-25.149	0.121	0.071
-328.172	1.131	0.143	-0.101
-327.158	-154.326	-0.180	0.012
-326.143	523.002	0.083	-0.193
-325.129	43.458	-0.041	-0.037
-324.114	-1.899	-0.063	-0.043
-323.099	110.648	-0.272	-0.322
-322.085	-8.542	0.220	-0.145
-321.070	-44.628	-0.035	0.017
-320.056	-56.157	-0.022	-0.009
-319.041	37.742	0.122	-0.107
-318.026	-200.000	-0.011	0.104
-317.012	75.258	0.085	0.089
-315.997	-200.000	-0.012	0.063
-314.983	800.000	0.109	-0.347
-313.968	800.000	-0.037	0.135
-312.953	800.000	-0.076	0.305
-311.939	212.936	0.165	0.257
-310.924	-119.821	0.202	0.034
-309.910	-155.389	0.139	-0.009
-308.895	800.000	0.073	0.281
-307.880	131.389	-0.164	0.207
-306.866	12.378	0.174	0.132
-305.851	217.137	-0.096	-0.150
-304.837	800.000	-0.091	-0.381
-303.822	578.653	0.015	-0.037
-302.807	431.283	-0.162	-0.345
-301.793	800.000	0.035	0.149
-300.778	-200.000	0.026	-0.315
-299.764	-45.799	-0.119	-0.058
-298.749	-200.000	-0.008	0.045
-297.735	-200.000	0.022	0.165
-296.720	-41.378	0.214	0.108
-295.705	169.444	-0.256	-0.359
-294.691	-165.567	0.244	-0.010
-293.676	-20.369	-0.200	-0.121
-292.662	-5.253	0.123	0.083
-291.647	-47.066	-0.162	0.078
-290.632	376.849	0.050	0.100
-289.618	-200.000	-0.022	-0.096
-288.603	450.395	-0.084	0.182
-287.589	-51.436	0.295	-0.136
-286.574	800.000	0.073	0.235
-285.559	-36.844	-0.178	-0.094
-284.545	-119.899	0.142	-0.024
-283.530	-200.000	-0.008	-0.050
-282.516	138.786	-0.143	-0.185
-281.501	-24.334	-0.359	-0.210
-280.486	136.225	0.148	-0.190
-279.472	-200.000	-0.080	0.366
-278.457	-41.178	0.336	0.170
-277.443	-75.194	0.260	-0.091
-276.428	-26.348	0.073	-0.042
-275.413	267.604	0.085	-0.147
-274.399	-18.142	0.190	-0.117
-273.384	-156.750	-0.272	0.016
-272.370	-44.845	0.038	0.019
-271.355	-200.000	0.022	-0.164
-270.340	-36.470	-0.439	-0.232
-269.326	323.269	0.145	0.273
-268.311	-200.000	-0.039	0.237
-267.297	-56.257	-0.060	0.026
-266.282	-62.199	-0.053	-0.022
-265.267	109.983	0.103	-0.121
-264.253	-93.076	-0.371	0.102
-263.238	-30.936	-0.057	0.032
-262.224	469.852	0.031	0.068
-261.209	295.282	-0.062	0.111
-260.195	-163.984	0.242	0.011
-259.180	459.686	-0.028	0.061
-258.165	-58.975	-0.112	-0.048
-257.151	144.461	0.092	0.121
-256.136	-160.604	0.256	-0.013
-255.122	44.591	0.473	0.427
-254.107	-15.013	-0.196	0.123
-253.092	-84.386	0.522	-0.162
-252.078	800.000	0.075	0.272
-251.063	-73.167	-0.211	-0.076
-250.049	-6.627	0.261	-0.174
-249.034	395.335	0.043	0.088
-248.019	-12.534	-0.127	-0.081
-247.005	-112.834	0.170	0.033
-245.990	44.530	-0.124	0.112
-244.976	38.789	0.120	0.105
-243.961	66.883	0.305	0.305
-242.946	-200.000	-0.019	0.180
-241.932	-3.837	0.180	-0.123
-240.917	-200.000	-0.192	0.000
-239.903	42.911	-0.040	0.036
-238.888	16.522	0.199	0.155
-237.873	-195.825	0.094	-0.001
-236.859	-9.506	0.087	0.057
-235.844	-200.000	-0.039	0.261
-234.830	3.673	-0.187	0.134
-233.815	532.524	0.077	-0.180
-232.800	-55.208	0.181	0.080
-231.786	117.725	-0.253	-0.306
-230.771	335.999	0.039	-0.074
-229.757	-7.424	0.240	0.160
-228.742	800.000	0.134	-0.364
-227.727	-200.000	0.085	-0.395
-226.713	88.502	-0.118	-0.129
-225.698	-118.800	0.177	0.030
-224.684	41.800	-0.205	-0.183
-223.669	800.000	0.019	0.078
-222.655	105.496	0.132	-0.153
-221.640	-128.649	0.057	0.008
-220.625	-41.531	-0.249	0.126
-219.611	-77.066	-0.137	0.047
-218.596	-139.671	0.131	0.014
-217.582	-200.000	-0.041	0.276
-216.567	-60.372	0.256	-0.107
-215.552	402.780	-0.133	0.275
-214.538	30.738	0.105	-0.088
-213.523	698.529	-0.093	0.240
-212.509	800.000	-0.048	-0.170
-211.494	376.406	-0.185	0.371
-210.479	-24.998	0.061	0.036
-209.465	65.818	0.174	-0.173
-208.450	495.941	0.030	0.067
-207.436	-103.928	-0.187	-0.043
-206.421	-49.866	0.269	-0.125
-205.406	800.000	-0.039	0.163
-204.392	-200.000	0.047	0.282
-203.377	161.797	-0.180	0.247
-202.363	-200.000	0.037	0.347
-201.348	-67.295	0.353	-0.136
-200.333	79.684	-0.153	-0.161
-199.319	46.956	-0.170	-0.155
-198.304	0.846	-0.318	-0.223
-197.290	265.911	-0.060	-0.103
-196.275	-76.134	-0.159	0.055
-195.260	-82.848	0.141	0.045
-194.246	-103.079	0.118	0.027
-193.231	139.539	0.088	-0.114
-192.217	800.000	0.186	0.541
-191.202	-114.097	0.112	-0.021
-190.187	-62.175	-0.180	-0.073
-189.173	-200.000	-0.005	0.123
-188.158	108.907	-0.078	0.092
-187.144	41.439	-0.348	-0.309
-186.129	-71.288	0.108	-0.040
-185.114	85.630	0.081	-0.088
-184.100	-164.336	0.201	-0.009
-183.085	397.966	-0.062	0.128
-182.071	606.876	0.131	-0.320
-181.056	146.260	-0.137	0.181
-180.042	-121.584	0.062	0.010
-179.027	375.415	0.053	-0.106
-178.012	-81.933	0.073	-0.023
-176.998	128.224	-0.110	-0.137
-175.983	57.559	0.185	0.177
-174.969	-4.839	-0.327	0.221
-173.954	97.512	-0.172	-0.194
-172.939	-200.000	0.046	-0.241
-171.925	-89.681	0.291	-0.083
-170.910	800.000	0.032	-0.113
-169.896	49.614	-0.080	-0.074
-168.881	-200.000	-0.022	0.138
-167.866	800.000	0.077	-0.268
-166.852	-108.956	0.247	0.052
-165.837	-200.000	0.036	0.202
-164.823	-58.021	0.042	-0.018
-163.808	-84.636	-0.267	0.082
-162.793	201.006	-0.016	-0.024
-161.779	-37.617	0.222	-0.116
-160.764	-169.127	-0.186	0.007
-159.750	800.000	-0.031	0.122
-158.735	-112.594	0.150	-0.029
-157.720	-103.611	-0.242	0.055
-156.706	-200.000	0.008	-0.222
-155.691	-126.117	0.423	-0.062
-154.677	-134.384	-0.334	-0.040
-153.662	800.000	0.131	0.407
-152.647	800.000	-0.113	0.345
-151.633	-200.000	0.005	0.597
-150.618	-200.000	-0.017	-0.085
-149.604	573.807	0.126	-0.301
-148.589	-111.683	-0.293	-0.058
-147.574	150.757	-0.054	0.072
-146.560	263.294	-0.036	-0.061
-145.545	-200.000	-0.070	-0.340
-144.531	117.337	0.319	0.384
-143.516	178.381	0.182	-0.260
-142.502	-68.912	0.320	0.121
-141.487	-187.803	0.137	-0.002
-140.472	26.213	-0.099	-0.081
-139.458	-123.305	0.220	-0.034
-138.443	114.234	-0.145	0.173
-137.429	-86.047	-0.062	0.019
-136.414	800.000	0.112	0.302
-135.399	-176.634	-0.348	-0.009
-134.385	-200.000	0.003	0.042
-133.370	147.437	-0.035	0.047
-132.356	-117.333	0.107	0.019
-131.341	348.855	0.071	0.137
-130.326	642.848	-0.073	-0.183
-129.312	-200.000	-0.070	0.431
-128.297	-63.751	0.215	0.086
-127.283	-159.319	-0.167	-0.009
-126.268	-135.152	-0.259	0.030
-125.253	651.644	0.060	0.151
-124.239	226.314	0.085	0.135
-123.224	160.413	-0.052	0.072
-122.210	193.520	-0.091	-0.134
-121.195	800.000	-0.042	-0.141
-120.180	381.352	0.159	0.319
-119.166	-151.762	0.481	0.035
-118.151	281.067	-0.088	0.153
-117.137	-98.836	-0.159	-0.039
-116.122	84.186	-0.093	0.099
-115.107	21.438	-0.111	0.088
-114.093	-114.756	-0.163	0.030
-113.078	800.000	0.056	-0.180
-112.064	-23.443	-0.173	-0.102
-111.049	260.978	0.186	-0.314
-110.034	800.000	0.099	-0.278
-109.020	415.565	-0.068	0.142
-108.005	-84.941	0.317	0.097
-106.991	-200.000	0.047	0.219
-105.976	219.837	0.143	0.224
-104.962	189.687	0.262	0.383
-103.947	-165.704	0.090	0.004
-102.932	800.000	0.049	0.159
-101.918	2.897	0.257	0.182
-100.903	-200.000	0.008	-0.244
-99.889	17.641	-0.164	0.128
-98.874	123.932	0.163	0.201
-97.859	-17.446	0.373	0.229
-96.845	149.285	-0.120	0.159
-95.830	-57.487	-0.199	0.085
-94.816	-8.437	-0.270	0.177
-93.801	-200.000	0.023	0.252
-92.786	-31.407	0.343	-0.188
-91.772	800.000	0.113	-0.317
-90.757	-42.086	0.304	-0.152
-89.743	-136.635	0.324	-0.037
-88.728	25.224	-0.460	0.373
-87.713	325.481	-0.233	0.434
-86.699	181.803	0.107	-0.154
-85.684	-72.038	-0.077	0.028
-84.670	-200.000	-0.042	0.221
-83.655	-35.097	-0.149	-0.079
-82.640	-128.623	0.377	-0.052
-81.626	-95.319	-0.072	0.019
-80.611	710.115	-0.108	0.278
-79.597	139.805	0.049	0.063
-78.582	-120.393	0.061	-0.010
-77.567	800.000	-0.019	-0.067
-76.553	62.830	-0.230	-0.224
-75.538	103.980	0.177	0.203
-74.524	-9.029	0.152	0.099
-73.509	-34.876	-0.155	0.082
-72.494	800.000	-0.028	-0.115
-71.480	578.867	-0.107	0.256
-70.465	398.336	-0.117	-0.238
-69.451	-59.713	0.208	0.087
-68.436	-200.000	-0.071	-0.315
-67.422	800.000	-0.061	0.175
-66.407	83.747	0.244	0.260
-65.392	-200.000	0.013	0.079
-64.378	-6.966	0.362	0.240
-63.363	53.168	0.042	0.039
-62.349	-5.349	0.398	-0.267
-61.334	114.769	-1.087	-1.292
-60.319	50.857	0.770	0.711
-59.305	471.428	-0.408	-0.896
-58.290	190.645	0.915	1.341
-57.276	800.000	0.591	1.620
-56.261	-200.000	124.951	642.634
-55.246	415.135	1561.567	3244.207
-54.232	143.904	2718.659	3533.927
-53.217	95.638	2183.551	2428.965
-52.203	34.191	1702.495	1447.085
-51.188	26.478	1521.207	1240.305
-50.173	24.591	1497.128	1207.880
-49.159	47.595	1568.582	1426.155
-48.144	45.560	1580.825	1423.105
-47.130	26.611	1529.865	1248.086
-46.115	23.709	1514.218	1215.443
-45.100	23.575	1510.882	1211.804
-44.086	23.440	1509.555	1209.769
-43.071	23.525	1507.128	1208.355
-42.057	23.369	1505.651	1206.060
-41.042	23.444	1503.970	1205.172
-40.027	23.448	1502.856	1204.264
-39.013	23.424	1501.186	1202.714
-37.998	23.503	1499.742	1202.044
-36.984	23.565	1498.394	1201.337
-35.969	23.410	1497.151	1199.240
-34.954	23.542	1495.304	1198.605
-33.940	23.428	1494.008	1196.748
-32.925	23.419	1492.699	1195.592
-31.911	23.497	1491.357	1194.999
-30.896	23.458	1490.812	1194.250
-29.881	23.534	1488.972	1193.239
-28.867	23.640	1487.053	1192.366
-27.852	23.581	1486.071	1191.136
-26.838	23.614	1484.642	1190.164
-25.823	23.526	1483.127	1188.314
-24.809	23.576	1481.160	1187.028
-23.794	23.468	1480.092	1185.400
-22.779	23.478	1479.101	1184.624
-21.765	23.569	1477.573	1183.966
-20.750	23.585	1476.588	1183.235
-19.736	23.574	1475.729	1182.425
-18.721	23.440	1475.000	1180.904
-17.706	23.510	1473.969	1180.493
-16.692	23.468	1472.294	1178.827
-15.677	23.468	1472.175	1178.689
-14.663	23.441	1471.280	1177.741
-13.648	23.489	1469.540	1176.625
-12.633	23.486	1468.907	1176.047
-11.619	23.545	1467.593	1175.342
-10.604	23.395	1467.089	1173.896
-9.590	23.520	1466.079	1173.870
-8.575	23.533	1464.968	1173.018
-7.560	23.419	1464.569	1171.901
-6.546	23.515	1463.357	1171.518
-5.531	23.615	1462.126	1171.147
-4.517	23.438	1461.566	1169.480
-3.502	23.513	1460.648	1169.195
-2.487	23.394	1459.851	1167.727
-1.473	23.468	1458.688	1167.235
-0.458	23.372	1457.780	1165.835
0.556	21.785	1447.292	1154.779
1.571	18.736	1423.484	1115.898
2.586	15.472	1362.108	1047.354
3.600	13.937	1278.558	974.029
4.615	13.099	1235.619	936.484
5.629	11.559	1178.800	885.004
6.644	5.555	1097.438	793.488
7.659	1.057	1061.022	745.010
8.673	0.243	1056.294	737.639
9.688	0.265	1052.800	735.244
10.702	0.142	1051.637	733.766
11.717	0.100	1049.252	731.834
12.731	1.991	1050.626	741.928
13.746	8.279	1059.105	778.601
14.761	14.408	1066.596	814.063
15.775	16.631	1068.512	826.323
16.790	16.342	1067.237	823.852
17.804	15.491	1065.390	818.207
18.819	14.520	1063.700	812.113
19.834	14.118	1062.059	808.835
20.848	13.965	1061.244	807.399
21.863	13.804	1060.328	805.848
22.877	13.431	1059.862	803.612
23.892	13.288	1058.762	802.009
24.907	13.199	1058.224	801.102
25.921	13.132	1057.250	799.969
26.936	13.239	1056.741	800.030
27.950	13.120	1056.163	798.945
28.965	13.095	1055.531	798.280
29.980	13.294	1054.278	798.218
30.994	13.472	1052.905	797.970
32.009	13.320	1052.581	796.918
33.023	13.409	1051.789	796.678
34.038	13.456	1051.399	796.539
35.053	13.358	1050.363	795.211
36.067	13.283	1049.557	794.171
37.082	13.303	1048.651	793.508
38.096	13.313	1048.053	793.037
39.111	13.301	1047.432	792.440
40.126	13.502	1045.493	791.863
41.140	13.317	1045.164	790.659
42.155	13.378	1044.112	790.083
43.169	13.221	1043.225	788.593
44.184	13.144	1041.995	787.229
45.199	13.263	1041.241	787.155
46.213	13.120	1040.497	785.841
47.228	13.077	1039.419	784.754
48.242	13.248	1038.155	784.544
49.257	13.238	1037.038	783.582
50.271	13.235	1036.163	782.836
51.286	13.167	1035.813	782.180
52.301	13.365	1034.324	781.925
53.315	13.430	1033.532	781.562
54.330	13.291	1032.963	780.406
55.344	13.217	1032.159	779.384
56.359	13.211	1030.802	778.262
57.374	13.338	1030.195	778.331
58.388	13.194	1029.210	776.843
59.403	13.178	1028.369	776.064
60.417	13.104	1027.439	774.946
61.432	13.248	1026.995	775.218
62.447	13.157	1026.037	774.000
63.461	13.222	1025.037	773.480
64.476	13.201	1024.143	772.641
65.490	13.015	1023.660	771.335
66.505	13.102	1022.717	770.966
67.520	13.190	1021.654	770.506
68.534	13.185	1021.010	769.928
69.549	13.195	1020.531	769.546
70.563	13.117	1019.667	768.463
71.578	13.112	1018.767	767.693
72.593	13.037	1018.644	767.183
73.607	13.061	1017.575	766.420
74.622	13.069	1016.622	765.671
75.636	13.177	1015.601	765.337
76.651	13.152	1014.672	764.453
77.666	13.095	1014.188	763.758
78.680	13.096	1013.357	763.070
79.695	13.226	1012.612	763.042
80.709	13.245	1012.344	762.857
81.724	13.086	1011.815	761.660
82.739	13.215	1010.592	761.264
83.753	13.285	1009.841	760.955
84.768	13.305	1008.929	760.291
85.782	13.457	1007.942	760.181
86.797	13.409	1007.548	759.596
87.812	13.399	1006.140	758.420
88.826	13.332	1005.521	757.582
89.841	13.367	1005.202	757.434
90.855	13.378	1004.149	756.622
91.870	13.405	1003.420	756.129
92.884	13.427	1002.555	755.511
93.899	13.365	1001.939	754.698
94.914	13.316	1001.310	753.932
95.928	13.504	999.966	753.708
96.943	13.444	999.685	753.157
97.957	13.402	998.857	752.277
98.972	13.463	997.780	751.678
99.987	13.441	997.181	751.060
101.001	13.415	996.811	750.594
102.016	13.390	996.009	749.814
103.030	13.389	994.851	748.870
104.045	13.449	993.951	748.398
105.060	13.429	993.040	747.553
106.074	13.285	992.166	746.179
107.089	13.286	991.247	745.428
108.103	13.170	990.862	744.549
109.118	13.191	989.730	743.727
110.133	13.304	988.439	743.201
111.147	13.267	987.834	742.514
112.162	13.159	987.306	741.567
113.176	13.230	986.328	741.083
114.191	13.426	985.214	741.058
115.206	13.274	984.496	739.775
116.220	13.383	983.447	739.407
117.235	13.337	982.707	738.578
118.249	13.421	981.482	737.970
119.264	13.230	981.032	736.714
120.279	13.281	980.097	736.173
121.293	13.315	979.374	735.718
122.308	13.352	978.550	735.197
123.322	13.178	977.895	733.867
124.337	13.245	976.893	733.348
125.352	13.256	975.431	732.233
126.366	13.141	974.772	731.165
127.381	13.196	973.553	730.429
128.395	13.186	972.503	729.532
129.410	13.189	971.516	728.739
130.424	13.253	970.626	728.291
131.439	13.327	969.661	727.829
132.454	13.241	969.012	726.900
133.468	13.296	968.195	726.465
134.483	13.230	967.825	725.833
135.497	13.305	966.842	725.360
136.512	13.351	966.011	724.873
137.527	13.224	965.520	723.884
138.541	13.171	964.687	722.965
139.556	13.291	963.989	722.900
140.570	13.381	962.915	722.426
141.585	13.416	962.280	722.037
142.600	13.556	961.095	721.696
143.614	13.575	960.871	721.544
144.629	13.397	960.075	720.109
145.643	13.480	959.173	719.728
146.658	13.475	958.142	718.872
147.673	13.491	957.474	718.373
148.687	13.383	957.059	717.530
149.702	13.415	955.859	716.705
150.716	13.471	955.068	716.293
151.731	13.397	954.641	715.590
152.746	13.410	953.386	714.640
153.760	13.469	952.710	714.328
154.775	13.556	951.924	714.049
155.789	13.484	951.594	713.427
156.804	13.508	950.710	712.804
157.819	13.573	950.156	712.605
158.833	13.679	948.974	712.113
159.848	13.619	948.384	711.349
160.862	13.657	947.862	711.055
161.877	13.607	947.332	710.380
162.892	13.570	946.300	709.386
163.906	13.593	945.356	708.713
164.921	13.563	944.779	708.092
165.935	13.559	943.647	707.162
166.950	13.543	942.910	706.479
167.964	13.658	941.801	706.077
168.979	13.633	940.894	705.226
169.994	13.557	939.990	704.166
171.008	13.716	938.500	703.663
172.023	13.648	938.364	703.208
173.037	13.759	937.614	703.056
174.052	13.738	936.780	702.279
175.067	13.786	935.621	701.551
176.081	13.689	935.209	700.768
177.096	13.791	933.809	700.089
178.110	13.680	933.705	699.481
179.125	13.662	932.786	698.655
180.140	13.704	932.090	698.250
181.154	13.671	931.747	697.789
182.169	13.787	930.761	697.477
183.183	13.797	930.141	696.993
184.198	13.895	929.553	696.902
185.213	13.838	928.785	696.025
186.227	14.015	927.707	695.899
187.242	13.804	927.858	695.065
188.256	13.843	927.005	694.527
189.271	13.944	926.524	694.528
190.286	14.064	925.087	693.890
191.300	13.789	924.380	692.152
192.315	13.769	923.822	691.592
193.329	13.756	923.224	691.029
194.344	13.797	922.459	690.564
195.359	13.702	922.215	689.927
196.373	13.874	921.378	689.954
197.388	14.006	920.703	689.932
198.402	14.051	920.493	689.902
199.417	13.938	919.959	688.972
200.432	14.041	919.585	689.059
201.446	14.095	918.850	688.669
202.461	14.062	918.684	688.350
203.475	14.146	918.472	688.477
204.490	14.198	917.335	687.779
205.504	14.091	916.833	686.897
206.519	14.194	915.499	686.265
207.534	14.227	914.932	685.912
208.548	14.078	914.233	684.715
209.563	14.177	913.621	684.604
210.577	14.084	912.988	683.689
211.592	14.260	912.003	683.611
212.607	14.246	911.630	683.213
213.621	14.322	911.084	683.056
214.636	14.330	910.241	682.396
215.650	14.247	909.721	681.607
216.665	14.287	909.268	681.369
217.680	14.106	908.997	680.367
218.694	14.334	908.245	680.676
219.709	14.244	908.094	680.133
220.723	14.323	906.723	679.371
221.738	14.373	906.309	679.202
222.753	14.494	905.281	678.867
223.767	14.354	905.015	678.035
224.782	14.331	903.896	677.045
225.796	14.456	903.426	677.138
226.811	14.503	902.319	676.442
227.826	14.496	901.722	675.905
228.840	14.471	901.074	675.258
229.855	14.346	900.883	674.548
230.869	14.465	900.153	674.425
231.884	14.401	899.485	673.605
232.899	14.461	898.474	673.032
233.913	14.453	897.896	672.507
234.928	14.376	897.559	671.885
235.942	14.488	896.429	671.429
236.957	14.411	895.986	670.727
237.972	14.534	895.069	670.475
238.986	14.516	894.525	669.937
240.001	14.518	893.640	669.223
241.015	14.510	893.424	668.970
242.030	14.474	892.719	668.238
243.045	14.515	891.830	667.681
244.059	14.541	891.389	667.394
245.074	14.707	890.124	667.049
246.088	14.670	889.620	666.466
247.103	14.689	889.538	666.422
248.117	14.620	888.457	665.276
249.132	14.736	887.852	665.227
250.147	14.786	887.860	665.374
251.161	14.861	887.042	665.001
252.176	14.893	886.308	664.519
253.190	14.887	885.796	664.054
254.205	14.978	885.289	663.976
255.220	14.808	884.891	662.945
256.234	15.004	884.063	663.040
257.249	14.789	883.512	661.719
258.263	15.136	882.314	662.132
259.278	14.895	882.231	661.060
260.293	15.154	881.383	661.391
261.307	15.041	880.931	660.547
262.322	15.158	880.326	660.493
263.336	15.199	879.407	659.909
264.351	15.117	879.094	659.292
265.366	15.256	877.993	658.956
266.380	15.165	877.790	658.387
267.395	15.216	877.064	657.985
268.409	15.147	876.438	657.185
269.424	15.245	875.310	656.666
270.439	15.237	874.877	656.251
271.453	15.215	874.325	655.693
272.468	15.165	873.823	655.062
273.482	15.188	872.653	654.218
274.497	15.195	872.385	653.986
275.512	15.259	871.649	653.625
276.526	15.307	870.966	653.245
277.541	15.138	870.352	652.066
278.555	15.307	869.678	652.163
279.570	15.323	869.055	651.700
280.585	15.452	868.429	651.675
281.599	15.342	868.312	651.098
282.614	15.230	867.824	650.243
283.628	15.363	867.004	650.087
284.643	15.378	866.288	649.548
285.657	15.361	865.916	649.148
286.672	15.336	865.390	648.597
287.687	15.290	864.863	647.969
288.701	15.257	864.383	647.424
289.716	15.460	863.360	647.383
290.730	15.382	863.187	646.897
291.745	15.385	862.540	646.365
292.760	15.503	861.468	645.958
293.774	15.463	860.923	645.337
294.789	15.616	860.507	645.558
295.803	15.615	860.038	645.145
296.818	15.760	858.844	644.747
297.833	15.561	858.669	643.798
298.847	15.511	857.973	643.026
299.862	15.610	857.059	642.665
300.876	15.676	856.302	642.291
301.891	15.688	855.879	641.964
302.906	15.617	855.490	641.346
303.920	15.680	854.462	640.755
304.935	15.697	854.367	640.695
305.949	15.724	853.399	640.013
306.964	15.910	852.703	640.142
307.979	15.728	852.362	639.138
308.993	15.799	851.784	638.918
310.008	15.937	851.297	639.018
311.022	15.918	850.514	638.302
312.037	15.738	850.285	637.393
313.052	15.844	849.843	637.405
314.066	15.878	849.027	636.867
315.081	15.914	848.345	636.435
316.095	15.888	847.779	635.856
317.110	15.816	847.284	635.157
318.125	16.002	846.660	635.332
319.139	15.859	846.611	634.700
320.154	15.956	845.624	634.269
321.168	15.871	845.156	633.544
322.183	15.874	844.562	633.052
323.197	15.870	844.351	632.826
324.212	15.932	843.735	632.541
325.227	15.906	843.030	631.859
326.241	16.002	842.262	631.585
327.256	15.895	841.946	630.892
328.270	16.053	841.488	631.085
329.285	16.026	840.469	630.165
330.300	16.086	840.109	630.061
331.314	15.938	839.589	629.063
332.329	15.961	838.854	628.545
333.343	16.116	838.398	628.722
334.358	16.057	837.896	628.071
335.373	16.135	837.468	627.986
336.387	16.221	836.617	627.613
337.402	16.227	836.002	627.116
338.416	16.133	835.605	626.414
339.431	16.098	835.272	625.980
340.446	16.125	834.647	625.556
341.460	16.270	833.760	625.372
342.475	16.301	833.513	625.250
343.489	16.381	832.533	624.752
344.504	16.368	832.490	624.616
345.519	16.376	831.950	624.187
346.533	16.351	831.447	623.663
347.548	16.457	830.915	623.598
348.562	16.393	830.324	622.864
349.577	16.482	829.571	622.571
350.592	16.364	829.199	621.802
351.606	16.327	828.805	621.317
352.621	16.348	828.453	621.076
353.635	16.173	828.234	620.214
354.650	16.472	827.435	620.659
355.665	16.459	827.062	620.276
356.679	16.435	826.599	619.785
357.694	16.388	826.449	619.446
358.708	16.321	825.759	618.627
359.723	16.390	825.144	618.366
360.738	16.576	824.231	618.305
361.752	16.784	823.290	618.306
362.767	16.678	823.405	617.951
363.781	16.464	823.582	617.245
364.796	16.547	822.687	616.822
365.810	16.701	822.136	616.917
366.825	16.699	821.867	616.654
367.840	16.836	821.441	616.775
368.854	16.710	821.088	615.998
369.869	16.741	820.535	615.641
370.883	16.765	819.842	615.156
371.898	16.805	819.147	614.724
372.913	16.877	818.448	614.405
373.927	16.857	818.059	613.988
374.942	16.982	817.200	613.740
375.956	16.830	816.968	612.961
376.971	16.850	816.514	612.641
377.986	16.848	815.866	612.092
379.000	16.906	815.585	612.036
380.015	16.898	815.043	611.547
381.029	17.005	814.246	611.281
382.044	16.905	813.456	610.275
383.059	17.123	812.893	610.581
384.073	16.929	812.810	609.768
385.088	17.016	812.070	609.470
386.102	16.936	811.999	609.075
387.117	16.832	811.265	608.099
388.132	17.063	810.684	608.437
389.146	17.131	809.887	608.028
390.161	16.951	810.230	607.586
391.175	17.058	809.417	607.307
392.190	17.175	808.655	607.099
393.205	17.013	808.825	606.595
394.219	16.969	808.244	605.948
395.234	17.069	807.665	605.817
396.248	17.038	807.151	605.270
397.263	17.005	806.742	604.791
398.278	17.007	806.355	604.452
399.292	16.969	805.915	603.936
400.307	16.899	805.485	603.308
401.321	16.959	805.426	603.424
402.336	17.166	804.661	603.536
403.350	17.186	804.180	603.191
404.365	17.246	803.456	602.807
405.380	17.151	803.391	602.368
406.394	17.192	802.645	601.900
407.409	17.330	801.846	601.739
408.423	17.315	802.058	601.789
409.438	17.392	801.226	601.386
410.453	17.362	801.484	601.419
411.467	17.513	800.319	601.023
412.482	17.407	799.795	600.204
413.496	17.501	799.664	600.385
414.511	17.570	798.949	600.036
415.526	17.520	798.804	599.698
416.540	17.573	798.445	599.563
417.555	17.632	797.948	599.344
418.569	17.542	797.334	598.514
419.584	17.552	796.911	598.177
420.599	17.538	796.621	597.860
421.613	113.438	1297.260	1486.768
422.628	97.682	1370.153	1486.831
