DTS Sentinel unit serial number:	SN413079Multiplexer serial number:	ORYXHardware model number:	OX4-SRSoftware version number:	ORYX F/W v4.00 Oryx Data Collector v3.7.2.0data status	okinstallation	princeton_trtdifferential loss correction	single-endedforward channel	channel 3reverse channel	N/Adate	2019/09/18time	09:04:35forward acquisition time	60.00reverse acquisition time	0.00gamma	496.2192k internal	0.2339k external	0.2339temperature offset calibration	0.9942default loss term (dB/km)	0.3790temperature slope calibration	1.0000multiplexer offset coefficient	1.0000multiplexer slope coefficient	1.0000fibre end	0.00T internal ref (°C)	25.25T ext. ref 1 (°C)	0.23T ext. ref 2 (°C)	22.30length (m)	temperature (°C)	Stokes	anti-Stokes-747.200	-200.000	-0.008	0.095
-746.185	800.000	0.080	0.305
-745.171	-200.000	-0.019	0.143
-744.156	-49.306	-0.414	0.198
-743.142	187.428	0.169	-0.254
-742.127	688.820	-0.057	0.151
-741.112	-200.000	-0.015	-0.212
-740.098	120.442	0.167	0.208
-739.083	-43.427	-0.186	-0.094
-738.069	-200.000	-0.002	0.183
-737.054	800.000	0.102	-0.325
-736.039	-62.911	-0.267	-0.111
-735.025	41.751	0.486	0.442
-734.010	-53.782	-0.203	-0.093
-732.996	740.131	-0.018	0.048
-731.981	106.140	-0.036	-0.042
-730.966	263.290	0.108	-0.189
-729.952	-165.459	-0.240	0.010
-728.937	-88.797	0.169	-0.050
-727.923	603.343	-0.062	-0.154
-726.908	243.502	-0.179	-0.301
-725.894	-55.518	0.197	0.088
-724.879	59.673	-0.055	-0.055
-723.864	-200.000	0.016	0.366
-722.850	-200.000	-0.007	-0.273
-721.835	131.288	-0.165	-0.213
-720.821	-200.000	0.028	-0.206
-719.806	-71.235	-0.192	-0.072
-718.791	-200.000	-0.000	-0.305
-717.777	-159.415	0.079	0.004
-716.762	102.844	0.215	-0.253
-715.748	-81.196	0.270	0.089
-714.733	-200.000	0.034	-0.342
-713.718	163.154	-0.146	-0.205
-712.704	151.511	0.186	-0.254
-711.689	443.728	-0.118	-0.260
-710.675	119.123	-0.157	0.195
-709.660	-144.388	0.201	-0.019
-708.645	-37.677	-0.180	0.096
-707.631	-79.529	-0.256	-0.087
-706.616	-184.345	-0.080	-0.001
-705.602	243.037	-0.135	0.227
-704.587	-34.789	-0.193	-0.106
-703.572	-63.220	-0.284	0.117
-702.558	287.001	0.196	-0.354
-701.543	201.983	-0.052	0.081
-700.529	-27.472	-0.275	-0.160
-699.514	-200.000	0.039	-0.321
-698.499	77.913	-0.046	-0.049
-697.485	-6.977	-0.015	-0.010
-696.470	-88.702	0.243	0.072
-695.456	-19.521	-0.026	0.016
-694.441	103.112	-0.181	0.212
-693.426	149.878	-0.058	-0.078
-692.412	-162.081	0.086	0.004
-691.397	2.373	-0.059	-0.042
-690.383	-58.804	-0.244	-0.106
-689.368	258.754	0.063	0.109
-688.354	-200.000	-0.032	0.251
-687.339	596.559	-0.192	-0.475
-686.324	-187.545	0.043	-0.001
-685.310	-48.299	-0.172	-0.083
-684.295	176.217	0.084	-0.122
-683.281	-106.549	-0.314	0.070
-682.266	-104.299	-0.417	0.097
-681.251	-170.331	0.227	0.008
-680.237	-154.109	0.207	-0.014
-679.222	246.431	0.122	-0.206
-678.208	621.545	-0.067	-0.169
-677.193	-200.000	-0.010	-0.059
-676.178	-91.146	0.178	0.051
-675.164	57.517	-0.061	0.060
-674.149	-19.554	0.416	0.258
-673.135	40.381	0.046	0.041
-672.120	-3.010	-0.175	-0.122
-671.105	-13.348	0.177	0.115
-670.091	113.712	0.139	-0.168
-669.076	-117.407	0.184	-0.033
-668.062	-200.000	-0.046	0.305
-667.047	17.085	0.071	-0.056
-666.032	146.957	0.155	-0.208
-665.018	-109.153	-0.163	-0.035
-664.003	89.050	0.027	-0.031
-662.989	11.738	0.286	0.219
-661.974	-66.482	-0.195	0.077
-660.959	188.397	0.145	0.217
-659.945	-6.079	0.119	0.081
-658.930	596.333	-0.097	0.239
-657.916	-27.015	0.136	0.079
-656.901	175.732	0.218	-0.316
-655.886	-200.000	0.032	-0.414
-654.872	-87.629	0.115	-0.035
-653.857	189.839	0.191	-0.286
-652.843	27.648	-0.184	-0.155
-651.828	421.123	0.097	0.208
-650.814	800.000	0.087	0.335
-649.799	32.700	0.105	-0.091
-648.784	85.750	0.292	-0.320
-647.770	-200.000	-0.025	0.139
-646.755	118.229	-0.118	-0.145
-645.741	53.131	0.115	0.110
-644.726	800.000	0.044	-0.156
-643.711	-80.464	0.184	-0.061
-642.697	48.384	0.145	-0.136
-641.682	116.081	0.126	-0.154
-640.668	800.000	-0.036	-0.116
-639.653	-135.997	-0.418	0.049
-638.638	800.000	0.082	-0.290
-637.624	-200.000	0.007	-0.257
-636.609	-98.264	0.230	-0.059
-635.595	-18.308	-0.099	0.062
-634.580	111.898	-0.148	-0.179
-633.565	66.849	-0.365	-0.371
-632.551	97.971	-0.117	-0.135
-631.536	363.632	0.094	0.189
-630.522	237.593	-0.102	-0.169
-629.507	18.450	0.400	-0.319
-628.492	-157.798	-0.150	0.009
-627.478	-112.549	0.160	0.032
-626.463	-200.000	-0.062	-0.335
-625.449	-200.000	-0.011	0.126
-624.434	-200.000	0.007	-0.157
-623.419	-81.199	0.209	-0.069
-622.405	-113.695	-0.013	0.002
-621.390	-200.000	0.008	-0.099
-620.376	-82.294	0.066	0.021
-619.361	546.872	0.081	0.192
-618.346	-200.000	-0.026	-0.242
-617.332	-146.235	-0.226	-0.020
-616.317	-200.000	0.005	0.122
-615.303	-55.539	-0.223	-0.100
-614.288	70.512	-0.264	0.273
-613.273	104.757	-0.084	-0.099
-612.259	-200.000	-0.034	-0.185
-611.244	124.195	0.279	-0.350
-610.230	-47.622	0.249	0.121
-609.215	-134.180	-0.116	0.014
-608.201	407.293	-0.016	-0.034
-607.186	20.507	0.082	0.066
-606.171	-200.000	-0.004	0.171
-605.157	53.513	0.209	-0.200
-604.142	800.000	-0.135	0.558
-603.128	-23.398	-0.042	-0.025
-602.113	-187.779	-0.168	0.002
-601.098	-200.000	0.045	-0.221
-600.084	104.129	-0.132	-0.155
-599.069	800.000	0.038	-0.117
-598.055	106.827	-0.046	0.055
-597.040	-39.153	-0.097	-0.051
-596.025	800.000	-0.148	-0.409
-595.011	459.279	-0.064	0.142
-593.996	86.001	-0.233	0.255
-592.982	23.363	-0.229	0.188
-591.967	-101.169	-0.261	0.064
-590.952	35.866	-0.011	-0.010
-589.938	800.000	0.080	0.229
-588.923	95.092	-0.117	0.132
-587.909	-200.000	0.016	-0.209
-586.894	-95.033	0.205	0.055
-585.879	-145.657	0.137	-0.012
-584.865	122.509	-0.171	-0.213
-583.850	-158.155	0.472	0.028
-582.836	-76.994	-0.117	0.041
-581.821	108.554	-0.061	0.072
-580.806	-143.708	0.126	0.012
-579.792	22.983	-0.133	0.108
-578.777	121.503	0.063	-0.078
-577.763	-200.000	0.050	-0.265
-576.748	6.945	-0.312	0.232
-575.733	-73.140	-0.063	-0.023
-574.719	-123.482	0.385	-0.061
-573.704	-200.000	-0.022	-0.327
-572.690	-76.882	-0.064	0.022
-571.675	-61.999	0.188	-0.078
-570.661	12.869	0.143	-0.110
-569.646	-80.382	0.280	-0.093
-568.631	82.434	-0.207	0.224
-567.617	-200.000	0.007	0.088
-566.602	-14.591	0.210	-0.135
-565.588	-105.591	0.229	-0.052
-564.573	-115.280	-0.560	-0.105
-563.558	-74.791	0.239	-0.085
-562.544	-200.000	-0.044	-0.247
-561.529	800.000	0.018	0.051
-560.515	-153.811	0.302	-0.021
-559.500	-200.000	-0.011	0.307
-558.485	227.163	0.150	-0.243
-557.471	-200.000	0.163	0.000
-556.456	-44.175	-0.192	-0.096
-555.442	-86.416	0.115	-0.035
-554.427	391.059	0.092	-0.190
-553.412	39.035	-0.102	-0.091
-552.398	-58.327	0.168	0.073
-551.383	162.074	-0.134	-0.187
-550.369	800.000	0.048	0.154
-549.354	-200.000	-0.006	0.171
-548.339	-135.178	0.284	0.034
-547.325	-18.426	-0.097	0.060
-546.310	-144.340	0.221	-0.020
-545.296	-59.191	-0.167	0.072
-544.281	-200.000	-0.024	0.128
-543.266	-130.393	-0.335	0.045
-542.252	-200.000	0.067	-0.329
-541.237	-107.440	0.236	0.052
-540.223	800.000	-0.038	0.129
-539.208	43.010	0.052	-0.047
-538.193	-109.744	0.349	0.073
-537.179	-81.372	0.227	0.074
-536.164	600.565	0.120	-0.297
-535.150	-33.072	-0.249	0.137
-534.135	126.315	-0.255	0.321
-533.121	200.861	0.088	-0.134
-532.106	-200.000	-0.019	0.261
-531.091	-125.401	-0.603	-0.091
-530.077	-105.929	-0.237	-0.053
-529.062	-200.000	-0.025	0.242
-528.048	521.314	-0.175	-0.408
-527.033	-200.000	0.001	-0.049
-526.018	711.358	-0.104	0.272
-525.004	-200.000	0.013	-0.096
-523.989	-61.293	0.211	0.088
-522.975	-75.745	-0.217	0.077
-521.960	-160.557	-0.257	0.014
-520.945	-49.146	-0.438	-0.208
-519.931	162.845	-0.159	0.222
-518.916	13.728	0.270	0.209
-517.902	241.025	0.086	-0.143
-516.887	-200.000	-0.004	-0.156
-515.872	-191.736	0.224	-0.002
-514.858	-200.000	-0.025	-0.162
-513.843	-28.014	-0.242	0.139
-512.829	-89.199	-0.316	-0.093
-511.814	-132.857	-0.036	0.005
-510.799	274.978	-0.028	0.050
-509.785	-200.000	-0.011	-0.076
-508.770	-9.931	-0.411	0.272
-507.756	-200.000	0.023	0.322
-506.741	-21.372	0.049	0.029
-505.726	76.553	0.144	-0.152
-504.712	80.089	-0.058	0.062
-503.697	-111.014	-0.095	0.019
-502.683	800.000	-0.080	-0.257
-501.668	125.801	0.134	0.168
-500.653	-127.587	-0.238	0.034
-499.639	-200.000	0.013	-0.106
-498.624	-58.186	0.115	-0.050
-497.610	-140.719	0.320	-0.033
-496.595	-22.892	-0.261	-0.156
-495.581	-70.581	0.257	-0.096
-494.566	633.551	0.132	-0.333
-493.551	800.000	-0.077	-0.308
-492.537	83.504	-0.081	-0.088
-491.522	-200.000	-0.007	0.115
-490.508	-86.404	-0.152	0.047
-489.493	-66.506	-0.209	0.082
-488.478	-11.003	0.195	-0.128
-487.464	164.710	0.123	0.172
-486.449	-42.547	0.395	-0.200
-485.435	-24.649	-0.173	0.102
-484.420	-125.187	-0.349	0.053
-483.405	-71.675	-0.090	0.033
-482.391	701.160	-0.032	-0.084
-481.376	132.012	0.050	-0.064
-480.362	-11.793	-0.209	-0.136
-479.347	800.000	0.070	-0.195
-478.332	-57.224	-0.174	0.076
-477.318	465.552	0.044	0.099
-476.303	207.754	0.221	0.343
-475.289	-10.956	0.401	0.263
-474.274	-142.442	0.247	0.024
-473.259	763.938	-0.100	0.269
-472.245	11.254	-0.355	0.270
-471.230	486.937	0.118	0.267
-470.216	800.000	-0.064	0.183
-469.201	-11.061	0.176	-0.115
-468.186	-195.301	0.064	-0.000
-467.172	-123.914	0.223	-0.035
-466.157	181.525	-0.148	0.216
-465.143	-200.000	0.048	-0.368
-464.128	-164.353	-0.386	-0.018
-463.113	286.877	-0.102	-0.183
-462.099	-95.494	0.249	-0.066
-461.084	28.065	0.236	0.197
-460.070	383.913	-0.091	-0.185
-459.055	243.827	-0.035	-0.059
-458.040	-142.737	-0.033	-0.003
-457.026	-83.364	0.227	-0.072
-456.011	-62.593	-0.298	-0.123
-454.997	204.765	0.074	-0.113
-453.982	236.991	-0.234	-0.384
-452.968	57.055	0.018	-0.018
-451.953	-200.000	-0.006	-0.077
-450.938	0.440	0.237	-0.168
-449.924	255.848	0.105	0.178
-448.909	103.455	-0.127	0.147
-447.895	800.000	0.051	0.177
-446.880	-26.821	-0.135	-0.078
-445.865	24.232	0.227	0.186
-444.851	-76.143	0.313	0.110
-443.836	800.000	0.081	-0.237
-442.822	-47.621	-0.182	-0.087
-441.807	290.566	-0.128	-0.231
-440.792	27.640	0.197	-0.164
-439.778	-200.000	-0.021	0.201
-438.763	-92.534	0.107	0.030
-437.749	0.214	0.111	0.078
-436.734	-80.283	-0.261	-0.086
-435.719	-48.981	0.265	0.126
-434.705	123.417	0.190	-0.236
-433.690	800.000	0.066	-0.189
-432.676	-200.000	-0.007	0.138
-431.661	609.537	0.214	0.529
-430.646	155.205	0.231	-0.315
-429.632	49.774	0.200	-0.187
-428.617	81.092	-0.128	-0.137
-427.603	20.454	-0.164	0.131
-426.588	570.293	-0.114	0.275
-425.573	45.187	-0.267	0.243
-424.559	-71.455	0.303	0.112
-423.544	-200.000	-0.070	-0.453
-422.530	175.039	0.250	0.358
-421.515	123.112	0.086	0.106
-420.500	-92.752	0.347	-0.096
-419.486	-103.845	0.271	0.063
-418.471	-19.140	-0.309	0.190
-417.457	326.460	0.020	0.037
-416.442	-200.000	-0.023	-0.117
-415.428	800.000	-0.047	-0.187
-414.413	-64.731	0.197	-0.079
-413.398	-200.000	0.021	0.245
-412.384	-200.000	-0.014	0.130
-411.369	109.262	-0.228	-0.270
-410.355	-200.000	-0.067	0.483
-409.340	800.000	0.028	0.112
-408.325	-59.222	-0.411	0.175
-407.311	-47.740	0.405	0.194
-406.296	-135.920	0.149	0.017
-405.282	-97.155	-0.328	0.085
-404.267	-145.155	0.111	0.010
-403.252	49.282	0.260	0.242
-402.238	-200.000	-0.033	-0.334
-401.223	-62.100	-0.193	0.080
-400.209	200.195	-0.091	0.139
-399.194	-200.000	-0.037	0.328
-398.179	211.073	-0.191	-0.297
-397.165	524.784	-0.111	-0.258
-396.150	-80.144	0.423	-0.140
-395.136	-200.000	0.027	0.330
-394.121	180.059	-0.212	0.308
-393.106	522.781	-0.116	-0.269
-392.092	54.158	-0.191	-0.181
-391.077	800.000	-0.050	0.171
-390.063	-200.000	0.052	0.359
-389.048	-111.613	0.199	0.040
-388.033	-75.497	0.347	-0.122
-387.019	-122.211	-0.176	0.028
-386.004	447.290	-0.174	-0.379
-384.990	-67.290	-0.192	0.075
-383.975	254.848	-0.061	-0.103
-382.960	11.099	0.206	-0.156
-381.946	-32.837	-0.312	0.172
-380.931	-8.769	0.097	0.064
-379.917	447.817	0.091	-0.198
-378.902	-200.000	0.037	0.244
-377.888	-9.111	-0.201	0.133
-376.873	91.072	0.210	0.233
-375.858	29.427	-0.147	0.124
-374.844	314.246	0.018	0.033
-373.829	33.718	-0.142	-0.122
-372.815	121.931	0.122	-0.150
-371.800	59.164	-0.263	-0.256
-370.785	-47.261	-0.098	0.047
-369.771	-160.137	-0.257	-0.014
-368.756	34.331	-0.243	-0.210
-367.742	-7.224	0.115	0.077
-366.727	43.179	0.143	-0.129
-365.712	58.264	-0.146	0.142
-364.698	-45.595	-0.235	0.115
-363.683	356.191	-0.092	0.180
-362.669	278.528	-0.147	0.260
-361.654	-37.582	-0.324	0.170
-360.639	800.000	-0.016	-0.052
-359.625	422.302	-0.065	-0.137
-358.610	121.690	0.045	0.056
-357.596	122.486	-0.167	0.206
-356.581	-24.795	0.208	-0.122
-355.566	114.202	-0.100	-0.121
-354.552	-42.688	-0.213	-0.107
-353.537	-61.529	0.079	-0.033
-352.523	75.907	-0.187	-0.196
-351.508	-24.330	-0.253	0.149
-350.493	-69.996	0.201	-0.076
-349.479	248.653	0.208	0.348
-348.464	30.103	0.259	0.218
-347.450	-200.000	-0.311	0.002
-346.435	93.929	0.118	0.132
-345.420	160.341	0.086	0.118
-344.406	210.003	0.151	0.234
-343.391	286.622	-0.120	-0.214
-342.377	40.490	0.126	-0.112
-341.362	-39.991	0.153	-0.079
-340.348	-183.229	0.280	0.005
-339.333	-178.874	0.098	-0.002
-338.318	-162.243	0.356	-0.018
-337.304	800.000	0.107	0.337
-336.289	23.687	-0.342	0.278
-335.275	-200.000	-0.006	0.187
-334.260	-200.000	0.068	-0.401
-333.245	-200.000	-0.003	0.069
-332.231	-200.000	-0.010	0.305
-331.216	-200.000	0.064	0.288
-330.202	155.857	-0.094	-0.128
-329.187	-109.137	-0.120	0.025
-328.172	-200.000	0.017	0.096
-327.158	423.153	-0.045	0.095
-326.143	-200.000	0.016	-0.181
-325.129	459.307	0.083	-0.183
-324.114	-96.809	0.121	-0.031
-323.099	-17.113	0.097	0.061
-322.085	-130.275	-0.045	0.006
-321.070	-19.210	0.279	-0.171
-320.056	0.574	0.300	0.211
-319.041	-105.231	-0.271	-0.061
-318.026	-200.000	-0.084	0.441
-317.012	188.826	-0.148	0.219
-315.997	76.978	-0.078	-0.082
-314.983	327.239	-0.068	0.128
-313.968	-75.286	0.210	-0.074
-312.953	-135.795	-0.219	-0.025
-311.939	-185.109	0.175	-0.003
-310.924	271.814	0.098	0.170
-309.910	-26.864	0.421	0.243
-308.895	461.539	-0.078	0.171
-307.880	-115.255	0.034	-0.006
-306.866	196.289	0.073	-0.109
-305.851	-95.758	-0.257	-0.068
-304.837	288.583	0.021	-0.037
-303.822	800.000	-0.059	0.199
-302.807	194.169	0.104	-0.155
-301.793	4.208	-0.236	-0.170
-300.778	-164.015	0.233	-0.011
-299.764	-158.602	-0.373	0.021
-298.749	800.000	-0.031	-0.131
-297.735	-164.514	-0.136	-0.006
-296.720	-103.908	0.269	-0.062
-295.705	125.980	-0.217	0.270
-294.691	40.689	0.253	0.225
-293.676	109.533	-0.062	-0.073
-292.662	-200.000	0.015	-0.173
-291.647	-164.743	0.317	0.014
-290.632	-121.966	-0.087	-0.014
-289.618	77.203	0.105	-0.110
-288.603	368.063	-0.064	0.127
-287.589	22.092	-0.177	0.142
-286.574	-200.000	0.017	-0.084
-285.559	155.131	-0.233	0.316
-284.545	113.959	-0.233	-0.279
-283.530	-51.607	0.117	0.054
-282.516	-24.161	-0.170	-0.100
-281.501	239.569	-0.124	-0.204
-280.486	352.546	-0.076	-0.148
-279.472	-200.000	-0.000	-0.040
-278.457	-163.316	-0.365	-0.017
-277.443	800.000	0.071	0.217
-276.428	171.471	0.228	-0.323
-275.413	152.616	-0.129	-0.174
-274.399	-79.938	0.218	-0.072
-273.384	-200.000	0.006	0.236
-272.370	-103.231	-0.273	0.063
-271.355	1.795	0.181	-0.128
-270.340	800.000	-0.032	-0.114
-269.326	426.353	0.119	-0.253
-268.311	-200.000	-0.015	0.114
-267.297	146.920	-0.154	0.204
-266.282	51.687	0.148	0.138
-265.267	1.655	-0.064	0.046
-264.253	-13.863	-0.033	0.021
-263.238	-102.451	0.153	0.036
-262.224	800.000	-0.048	-0.169
-261.209	-152.153	-0.075	-0.005
-260.195	286.342	-0.241	-0.427
-259.180	246.250	-0.154	-0.256
-258.165	-200.000	0.019	-0.326
-257.151	-126.648	-0.318	0.046
-256.136	-200.000	-0.020	0.324
-255.122	-49.743	0.122	-0.057
-254.107	149.607	0.111	-0.148
-253.092	147.890	0.032	0.043
-252.078	231.986	0.079	-0.127
-251.063	308.489	0.141	-0.258
-250.049	-106.218	-0.123	0.027
-249.034	71.117	0.230	-0.234
-248.019	-15.160	-0.228	0.143
-247.005	370.113	-0.112	0.224
-245.990	77.632	0.100	-0.105
-244.976	116.272	0.178	-0.214
-243.961	800.000	-0.059	0.248
-242.946	-128.623	0.225	-0.031
-241.932	-78.236	-0.116	0.039
-240.917	19.824	-0.056	0.044
-239.903	-122.048	-0.090	0.015
-238.888	17.359	0.133	0.104
-237.873	800.000	-0.030	0.128
-236.859	483.146	-0.085	0.189
-235.844	122.752	-0.105	0.129
-234.830	-119.553	0.247	0.042
-233.815	800.000	-0.074	0.203
-232.800	36.194	0.221	-0.191
-231.786	800.000	-0.193	0.532
-230.771	-115.019	-0.258	-0.048
-229.757	-200.000	-0.051	-0.254
-228.742	-45.279	-0.354	0.173
-227.727	-153.072	0.043	-0.003
-226.713	-178.880	0.347	-0.008
-225.698	-200.000	0.051	0.310
-224.684	312.320	-0.145	0.267
-223.669	-63.162	0.299	0.121
-222.655	-200.000	-0.025	0.196
-221.640	800.000	-0.026	0.090
-220.625	800.000	-0.037	0.111
-219.611	14.534	-0.045	0.034
-218.596	28.237	0.165	0.137
-217.582	-10.864	-0.192	0.125
-216.567	-200.000	0.005	-0.130
-215.552	-96.012	0.260	0.068
-214.538	800.000	0.065	-0.267
-213.523	800.000	0.097	-0.385
-212.509	410.289	0.046	0.095
-211.494	-92.755	0.070	0.019
-210.479	800.000	0.067	0.273
-209.465	-137.108	0.008	-0.001
-208.450	41.953	0.192	0.171
-207.436	27.627	0.222	0.183
-206.421	537.083	-0.085	-0.198
-205.406	144.123	0.224	-0.293
-204.392	-200.000	-0.001	-0.077
-203.377	-87.695	-0.189	-0.056
-202.363	-101.964	-0.161	-0.038
-201.348	-39.954	0.178	0.091
-200.333	5.078	-0.149	-0.108
-199.319	-75.872	0.312	-0.108
-198.304	800.000	-0.055	-0.191
-197.290	122.487	-0.081	-0.099
-196.275	-200.000	-0.050	-0.373
-195.260	-200.000	-0.000	-0.090
-194.246	-6.180	0.134	0.090
-193.231	725.092	0.141	0.368
-192.217	-70.920	0.285	0.105
-191.202	800.000	0.058	0.158
-190.187	800.000	0.093	-0.398
-189.173	171.036	0.029	-0.040
-188.158	-200.000	-0.017	-0.301
-187.144	-128.868	-0.380	0.052
-186.129	800.000	0.037	0.144
-185.114	36.357	-0.086	-0.074
-184.100	-119.671	-0.191	-0.032
-183.085	75.293	0.196	-0.203
-182.071	61.617	-0.028	0.027
-181.056	109.148	-0.043	-0.051
-180.042	167.219	-0.061	-0.085
-179.027	800.000	0.046	0.153
-178.012	728.128	-0.009	0.023
-176.998	118.029	-0.080	0.097
-175.983	-76.761	0.130	0.045
-174.969	-149.113	-0.379	-0.030
-173.954	-104.161	-0.096	0.022
-172.939	778.685	0.060	0.161
-171.925	-96.044	0.347	-0.090
-170.910	-200.000	-0.004	-0.022
-169.896	800.000	-0.065	0.253
-168.881	7.186	-0.312	-0.228
-167.866	20.995	0.180	-0.143
-166.852	-34.313	-0.169	-0.091
-165.837	377.512	0.055	0.110
-164.823	-124.915	0.130	0.020
-163.808	137.700	0.218	0.279
-162.793	27.964	0.032	-0.026
-161.779	-187.264	-0.147	-0.002
-160.764	-39.322	-0.506	0.260
-159.750	-200.000	0.002	0.499
-158.735	-5.188	-0.171	0.115
-157.720	-200.000	-0.029	-0.324
-156.706	43.085	0.193	0.172
-155.691	-35.431	0.194	0.103
-154.677	79.444	0.229	-0.241
-153.662	234.916	0.193	-0.312
-152.647	38.512	0.174	-0.152
-151.633	-177.334	0.219	0.005
-150.618	-57.275	-0.323	0.139
-149.604	149.353	0.140	0.185
-148.589	800.000	0.065	0.178
-147.574	-200.000	0.056	0.251
-146.560	91.206	-0.126	-0.139
-145.545	-107.803	0.133	-0.028
-144.531	800.000	0.061	0.236
-143.516	-128.525	-0.495	0.069
-142.502	800.000	0.120	-0.394
-141.487	800.000	-0.116	0.378
-140.472	-123.209	0.220	-0.035
-139.458	90.933	-0.224	0.246
-138.443	26.425	-0.176	0.144
-137.429	-119.299	0.298	-0.051
-136.414	-104.074	-0.287	0.065
-135.399	-153.829	0.087	-0.006
-134.385	69.707	0.249	0.251
-133.370	-200.000	0.048	0.317
-132.356	318.588	-0.113	-0.209
-131.341	19.239	0.150	0.118
-130.326	-152.106	0.225	-0.016
-129.312	-65.509	0.304	0.119
-128.297	800.000	0.030	-0.117
-127.283	800.000	0.090	-0.284
-126.268	-188.681	0.121	-0.001
-125.253	800.000	0.030	0.110
-124.239	461.057	0.124	0.269
-123.224	800.000	-0.056	0.208
-122.210	-123.070	0.172	-0.027
-121.195	-200.000	-0.032	-0.234
-120.180	-200.000	-0.013	0.125
-119.166	-143.312	0.055	0.005
-118.151	-3.829	0.144	-0.098
-117.137	800.000	-0.028	-0.113
-116.122	-53.613	0.045	-0.020
-115.107	83.752	0.188	-0.201
-114.093	184.251	-0.022	0.031
-113.078	158.152	-0.062	0.084
-112.064	800.000	-0.046	0.130
-111.049	-200.000	0.034	0.249
-110.034	40.966	0.239	-0.211
-109.020	395.047	0.185	0.377
-108.005	70.413	-0.211	-0.214
-106.991	800.000	-0.106	-0.368
-105.976	-124.729	0.168	0.025
-104.962	5.323	-0.085	-0.061
-103.947	-133.286	-0.199	0.024
-102.932	-18.896	0.247	-0.150
-101.918	66.122	-0.196	0.195
-100.903	236.932	-0.108	0.175
-99.889	-49.181	-0.218	0.102
-98.874	-128.951	0.297	0.041
-97.859	800.000	-0.119	0.385
-96.845	-200.000	0.056	-0.255
-95.830	86.156	-0.093	0.100
-94.816	-139.739	0.182	-0.019
-93.801	-200.000	0.034	0.165
-92.786	-102.902	0.081	-0.019
-91.772	38.987	-0.097	-0.084
-90.757	-30.003	0.132	-0.074
-89.743	-91.506	0.240	-0.067
-88.728	137.907	-0.134	0.172
-87.713	293.812	0.202	0.360
-86.699	-102.208	0.191	0.045
-85.684	-152.727	0.485	0.034
-84.670	-109.964	0.186	0.038
-83.655	-129.094	-0.198	0.027
-82.640	82.570	0.207	-0.220
-81.626	375.282	-0.078	-0.156
-80.611	-67.035	0.021	0.008
-79.597	24.787	0.209	0.169
-78.582	475.783	0.025	0.056
-77.567	-25.375	0.090	-0.052
-76.553	-104.245	0.400	0.091
-75.538	102.613	0.054	0.062
-74.524	-200.000	-0.015	0.183
-73.509	-200.000	0.044	0.363
-72.494	3.521	0.087	-0.062
-71.480	143.652	0.210	-0.273
-70.465	-36.500	0.031	-0.016
-69.451	-200.000	-0.034	-0.229
-68.436	53.763	-0.291	-0.273
-67.422	52.544	-0.135	-0.126
-66.407	103.009	-0.101	0.116
-65.392	118.129	-0.200	0.241
-64.378	-200.000	0.038	0.175
-63.363	61.874	0.186	-0.181
-62.349	-102.717	-0.194	-0.045
-61.334	112.103	-1.060	-1.251
-60.319	60.254	0.761	0.735
-59.305	800.000	-0.304	-1.103
-58.290	284.001	0.834	1.464
-57.276	427.600	0.701	1.477
-56.261	-200.000	118.680	627.070
-55.246	408.218	1558.209	3217.242
-54.232	141.371	2733.322	3531.221
-53.217	96.141	2198.927	2453.311
-52.203	35.449	1711.826	1466.269
-51.188	28.316	1525.725	1258.026
-50.173	26.199	1500.813	1223.121
-49.159	48.773	1564.255	1431.903
-48.144	46.899	1578.731	1432.116
-47.130	28.441	1532.241	1264.065
-46.115	25.543	1516.418	1231.148
-45.100	25.293	1513.384	1226.930
-44.086	25.335	1511.238	1225.428
-43.071	25.186	1509.759	1223.162
-42.057	25.195	1507.888	1221.661
-41.042	25.150	1506.535	1220.209
-40.027	25.269	1504.673	1219.464
-39.013	25.180	1503.689	1218.009
-37.998	25.110	1502.072	1216.177
-36.984	25.190	1500.910	1215.731
-35.969	25.192	1499.565	1214.608
-34.954	25.183	1498.080	1213.297
-33.940	25.284	1496.451	1212.608
-32.925	25.218	1495.739	1211.536
-31.911	25.345	1494.041	1210.974
-30.896	25.364	1492.505	1209.806
-29.881	25.328	1491.639	1208.817
-28.867	25.320	1490.358	1207.678
-27.852	25.262	1488.805	1205.981
-26.838	25.272	1487.607	1205.027
-25.823	25.227	1485.973	1203.353
-24.809	25.309	1483.869	1202.151
-23.794	25.246	1482.854	1200.860
-22.779	25.271	1482.050	1200.327
-21.765	25.261	1480.878	1199.266
-20.750	25.345	1479.241	1198.451
-19.736	25.398	1477.825	1197.613
-18.721	25.252	1477.488	1196.314
-17.706	25.259	1476.342	1195.392
-16.692	25.292	1475.502	1194.881
-15.677	25.225	1474.385	1193.484
-14.663	25.356	1473.174	1193.326
-13.648	25.234	1472.935	1192.272
-12.633	25.167	1471.619	1190.718
-11.619	25.226	1471.112	1190.654
-10.604	25.165	1469.797	1189.134
-9.590	25.233	1469.312	1189.146
-8.575	25.265	1468.266	1188.466
-7.560	25.248	1467.061	1187.329
-6.546	25.233	1466.339	1186.596
-5.531	25.277	1465.154	1185.885
-4.517	25.180	1464.079	1184.329
-3.502	25.185	1463.758	1184.055
-2.487	25.194	1462.487	1183.038
-1.473	25.202	1461.743	1182.439
-0.458	25.183	1459.897	1180.774
0.556	23.577	1451.227	1171.730
1.571	21.235	1426.719	1136.615
2.586	18.506	1365.312	1070.579
3.600	17.132	1281.548	996.754
4.615	15.750	1237.586	954.635
5.629	13.505	1180.351	898.240
6.644	6.777	1096.361	800.253
7.659	1.242	1058.261	745.247
8.673	0.405	1053.382	737.650
9.688	0.213	1049.975	734.263
10.702	0.206	1048.655	733.240
11.717	0.117	1046.803	731.446
12.731	2.240	1048.074	742.593
13.746	9.109	1057.789	783.006
14.761	15.146	1064.214	817.231
15.775	16.821	1065.684	826.462
16.790	16.302	1064.867	823.225
17.804	15.295	1062.982	816.792
18.819	14.597	1060.907	811.731
19.834	14.062	1059.347	807.868
20.848	13.979	1058.413	806.681
21.863	13.701	1057.772	804.769
22.877	13.323	1057.269	802.483
23.892	13.240	1056.062	801.093
24.907	13.029	1055.359	799.470
25.921	13.037	1054.419	798.724
26.936	13.093	1053.907	798.536
27.950	13.067	1053.456	798.000
28.965	13.185	1052.483	797.759
29.980	13.332	1051.359	797.546
30.994	13.385	1050.051	796.739
32.009	13.221	1050.040	795.871
33.023	13.326	1049.414	795.831
34.038	13.361	1048.070	794.907
35.053	13.274	1047.399	793.912
36.067	13.238	1046.567	793.037
37.082	13.246	1045.642	792.306
38.096	13.165	1045.033	791.387
39.111	13.321	1043.965	791.253
40.126	13.333	1042.930	790.459
41.140	13.235	1042.028	789.234
42.155	13.216	1041.049	788.333
43.169	13.165	1040.151	787.341
44.184	13.036	1039.587	786.229
45.199	13.132	1037.939	785.371
46.213	13.047	1037.149	784.299
47.228	13.076	1036.313	783.734
48.242	13.099	1035.024	782.797
49.257	13.164	1034.217	782.428
50.271	13.192	1033.533	781.974
51.286	13.218	1032.438	781.202
52.301	13.138	1031.728	780.215
53.315	13.228	1030.564	779.689
54.330	13.326	1029.907	779.585
55.344	13.268	1028.896	778.477
56.359	13.258	1027.832	777.560
57.374	13.205	1026.742	776.414
58.388	12.964	1027.062	775.454
59.403	13.001	1025.881	774.670
60.417	13.071	1025.095	774.336
61.432	13.134	1024.321	773.979
62.447	13.192	1023.430	773.509
63.461	13.083	1023.049	772.639
64.476	12.916	1022.256	771.191
65.490	13.022	1021.457	771.015
66.505	13.149	1019.993	770.438
67.520	12.985	1019.697	769.380
68.534	13.150	1019.055	769.596
69.549	13.141	1017.989	768.681
70.563	13.059	1017.383	767.775
71.578	13.154	1016.239	767.284
72.593	13.122	1015.499	766.509
73.607	13.150	1014.787	766.036
74.622	12.928	1013.802	764.195
75.636	13.077	1012.691	763.977
76.651	13.068	1012.192	763.492
77.666	12.972	1011.629	762.557
78.680	13.012	1010.634	761.925
79.695	13.055	1010.573	762.007
80.709	13.110	1009.809	761.621
81.724	13.115	1008.950	760.927
82.739	13.092	1008.344	760.298
83.753	13.177	1007.404	759.911
84.768	13.192	1006.612	759.317
85.782	13.332	1005.631	759.153
86.797	13.309	1005.131	758.603
87.812	13.321	1004.120	757.825
88.826	13.196	1003.315	756.581
89.841	13.248	1002.314	755.997
90.855	13.307	1001.370	755.486
91.870	13.324	1001.174	755.347
92.884	13.219	1000.581	754.357
93.899	13.327	999.990	754.338
94.914	13.194	998.973	752.895
95.928	13.380	998.200	753.092
96.943	13.348	997.437	752.308
97.957	13.277	996.672	751.341
98.972	13.397	996.048	751.348
99.987	13.248	995.227	749.986
101.001	13.264	994.549	749.482
102.016	13.341	993.646	749.085
103.030	13.277	992.408	747.792
104.045	13.377	991.785	747.712
105.060	13.288	990.375	746.178
106.074	13.288	989.622	745.546
107.089	13.394	988.631	745.209
108.103	13.172	988.331	743.919
109.118	13.078	987.283	742.643
110.133	13.180	986.334	742.322
111.147	13.140	985.771	741.650
112.162	13.098	984.958	740.784
113.176	13.239	983.604	740.332
114.191	13.373	982.972	740.392
115.206	13.266	981.895	739.036
116.220	13.314	981.054	738.555
117.235	13.191	980.659	737.642
118.249	13.237	979.312	736.770
119.264	13.142	978.980	736.028
120.279	13.261	977.894	735.679
121.293	13.234	977.173	734.950
122.308	13.274	976.199	734.331
123.322	13.237	975.547	733.610
124.337	13.150	974.578	732.429
125.352	13.205	973.420	731.741
126.366	13.225	972.044	730.730
127.381	13.253	970.860	729.900
128.395	13.191	970.399	729.214
129.410	13.249	968.747	728.165
130.424	13.175	968.213	727.370
131.439	13.127	967.427	726.506
132.454	13.263	966.564	726.391
133.468	13.270	965.695	725.705
134.483	13.280	965.367	725.438
135.497	13.365	964.643	725.201
136.512	13.355	963.409	724.166
137.527	13.256	963.565	723.784
138.541	13.230	962.143	722.542
139.556	13.263	961.708	722.295
140.570	13.243	961.145	721.718
141.585	13.237	960.339	721.023
142.600	13.333	959.341	720.631
143.614	13.449	958.418	720.376
144.629	13.419	957.901	719.795
145.643	13.430	957.193	719.245
146.658	13.513	956.025	718.667
147.673	13.410	955.253	717.573
148.687	13.385	954.337	716.716
149.702	13.359	953.674	716.040
150.716	13.382	952.530	715.219
151.731	13.479	951.215	714.585
152.746	13.271	951.228	713.635
153.760	13.325	950.441	713.216
154.775	13.401	949.516	712.786
155.789	13.476	948.501	712.285
156.804	13.429	948.129	711.738
157.819	13.483	947.383	711.347
158.833	13.521	946.716	710.944
159.848	13.505	945.934	710.227
160.862	13.539	945.282	709.822
161.877	13.465	944.845	709.115
162.892	13.619	943.643	708.805
163.906	13.429	942.883	707.360
164.921	13.347	941.711	706.070
165.935	13.417	941.184	705.911
166.950	13.541	940.078	705.547
167.964	13.675	938.912	705.180
168.979	13.585	938.006	704.055
169.994	13.430	937.155	702.694
171.008	13.693	936.304	703.109
172.023	13.549	935.478	701.818
173.037	13.603	934.562	701.298
174.052	13.631	934.063	700.980
175.067	13.617	933.456	700.404
176.081	13.686	932.472	699.895
177.096	13.552	931.377	698.444
178.110	13.578	930.642	697.942
179.125	13.535	930.456	697.561
180.140	13.530	929.535	696.784
181.154	13.661	928.719	696.661
182.169	13.711	928.115	696.357
183.183	13.815	927.288	696.111
184.198	13.873	926.327	695.574
185.213	13.815	926.259	695.217
186.227	13.792	925.332	694.365
187.242	13.803	925.238	694.276
188.256	13.850	924.470	693.835
189.271	13.920	923.567	693.387
190.286	13.955	922.805	692.900
191.300	13.807	921.787	691.458
192.315	13.711	921.604	690.860
193.329	13.654	920.530	689.756
194.344	13.741	919.768	689.488
195.359	13.757	919.489	689.284
196.373	13.610	919.216	688.407
197.388	13.935	918.441	689.115
198.402	13.875	917.858	688.368
199.417	13.876	917.666	688.166
200.432	14.147	916.865	688.626
201.446	13.933	916.660	687.525
202.461	14.103	915.948	687.634
203.475	14.090	915.528	687.203
204.490	14.076	914.714	686.476
205.504	13.992	914.287	685.748
206.519	14.000	913.440	685.086
207.534	14.049	912.485	684.510
208.548	14.095	911.470	683.875
209.563	14.079	910.906	683.327
210.577	14.177	910.264	683.187
211.592	14.086	909.873	682.462
212.607	14.106	909.088	681.893
213.621	14.192	908.506	681.749
214.636	14.253	907.616	681.270
215.650	14.147	907.455	680.654
216.665	14.214	906.925	680.473
217.680	14.281	906.079	680.050
218.694	14.234	906.009	679.745
219.709	14.324	905.233	679.471
220.723	14.246	904.106	678.244
221.738	14.351	903.986	678.523
222.753	14.307	902.780	677.380
223.767	14.338	902.364	677.134
224.782	14.307	901.249	676.112
225.796	14.312	900.875	675.792
226.811	14.370	900.022	675.328
227.826	14.483	899.521	675.350
228.840	14.377	898.845	674.353
229.855	14.430	898.085	673.935
230.869	14.454	897.347	673.420
231.884	14.452	896.850	672.980
232.899	14.288	896.181	671.758
233.913	14.388	895.038	671.244
234.928	14.368	894.587	670.766
235.942	14.432	894.078	670.582
236.957	14.422	893.432	669.997
237.972	14.442	892.487	669.310
238.986	14.466	891.963	668.953
240.001	14.404	891.482	668.286
241.015	14.438	890.554	667.665
242.030	14.553	889.946	667.613
243.045	14.540	889.113	666.875
244.059	14.605	888.846	666.876
245.074	14.560	888.182	666.138
246.088	14.578	887.872	665.921
247.103	14.672	886.915	665.517
248.117	14.620	886.477	664.926
249.132	14.610	886.210	664.625
250.147	14.651	885.337	664.075
251.161	14.766	885.017	664.231
252.176	14.832	884.059	663.715
253.190	14.740	883.753	663.063
254.205	14.907	882.588	662.792
255.220	14.852	881.796	661.921
256.234	14.788	881.601	661.463
257.249	14.911	880.950	661.403
258.263	14.921	880.098	660.744
259.278	14.981	879.426	660.417
260.293	14.828	879.228	659.608
261.307	15.084	878.325	659.879
262.322	14.997	878.191	659.380
263.336	15.038	877.629	659.061
264.351	15.064	876.878	658.539
265.366	15.158	876.211	658.350
266.380	15.229	875.359	657.932
267.395	15.064	874.938	656.910
268.409	15.084	873.866	656.126
269.424	15.128	873.400	655.887
270.439	15.081	872.736	655.149
271.453	15.145	872.192	654.931
272.468	15.159	871.160	654.153
273.482	15.086	870.712	653.474
274.497	15.190	870.039	653.316
275.512	15.212	869.599	653.014
276.526	15.187	869.040	652.439
277.541	15.177	868.298	651.784
278.555	15.168	867.628	651.190
279.570	15.213	867.066	650.887
280.585	15.207	866.565	650.428
281.599	15.098	866.446	649.860
282.614	15.234	865.234	649.419
283.628	15.230	864.894	649.092
284.643	15.281	864.175	648.690
285.657	15.233	863.710	648.098
286.672	15.326	862.993	647.862
287.687	15.312	862.819	647.622
288.701	15.338	861.966	647.022
289.716	15.377	861.474	646.745
290.730	15.366	860.979	646.278
291.745	15.408	860.119	645.734
292.760	15.392	859.472	645.130
293.774	15.322	859.119	644.539
294.789	15.489	858.644	644.767
295.803	15.409	857.990	643.914
296.818	15.469	857.053	643.381
297.833	15.532	856.746	643.337
298.847	15.447	856.017	642.408
299.862	15.605	855.118	642.279
300.876	15.666	854.228	641.788
301.891	15.670	853.573	641.254
302.906	15.594	853.172	640.607
303.920	15.740	852.404	640.528
304.935	15.726	852.225	640.284
305.949	15.749	851.383	639.682
306.964	15.681	850.990	639.072
307.979	15.597	850.024	637.969
308.993	15.809	849.629	638.424
310.008	15.722	848.916	637.498
311.022	15.793	848.710	637.558
312.037	15.902	847.572	637.059
313.052	15.743	847.593	636.416
314.066	15.713	847.372	636.083
315.081	15.811	846.383	635.651
316.095	15.903	845.520	635.295
317.110	15.842	845.131	634.716
318.125	15.929	844.509	634.523
319.139	16.067	843.895	634.522
320.154	15.941	843.226	633.490
321.168	15.853	843.085	632.998
322.183	15.754	842.884	632.419
323.197	15.885	841.958	632.161
324.212	15.747	841.529	631.264
325.227	16.068	840.575	631.693
326.241	16.002	840.405	631.265
327.256	15.988	839.635	630.576
328.270	16.020	839.078	630.224
329.285	15.847	839.052	629.500
330.300	15.918	838.109	629.002
331.314	16.009	837.655	628.945
332.329	16.002	836.725	628.166
333.343	16.017	836.149	627.732
334.358	16.114	835.711	627.711
335.373	16.218	835.101	627.585
336.387	16.082	834.572	626.624
337.402	15.978	834.291	625.972
338.416	16.111	833.518	625.831
339.431	16.363	832.697	626.093
340.446	16.118	832.392	624.901
341.460	16.163	831.692	624.486
342.475	16.259	830.968	624.244
343.489	16.161	830.747	623.658
344.504	16.112	830.230	623.034
345.519	16.171	830.097	623.099
346.533	16.454	829.020	623.277
347.548	16.317	828.711	622.485
348.562	16.418	828.006	622.273
349.577	16.257	827.427	621.191
350.592	16.249	827.252	620.975
351.606	16.236	826.744	620.492
352.621	16.171	826.345	619.897
353.635	16.327	825.713	619.942
354.650	16.267	825.317	619.369
355.665	16.447	824.642	619.466
356.679	16.340	824.219	618.701
357.694	16.367	823.969	618.559
358.708	16.454	823.118	618.184
359.723	16.375	822.989	617.743
360.738	16.395	822.100	617.095
361.752	16.551	821.710	617.316
362.767	16.478	821.095	616.535
363.781	16.646	820.672	616.773
364.796	16.473	820.460	615.930
365.810	16.578	820.093	615.982
366.825	16.634	819.707	615.842
367.840	16.762	819.062	615.768
368.854	16.549	818.989	614.884
369.869	16.557	818.330	614.364
370.883	16.626	817.627	614.033
371.898	16.737	817.084	613.972
372.913	16.726	816.337	613.315
373.927	16.756	816.100	613.193
374.942	16.663	815.537	612.379
375.956	16.824	814.614	612.215
376.971	16.851	814.254	611.986
377.986	16.830	813.765	611.487
379.000	16.829	813.157	610.975
380.015	16.925	812.339	610.653
381.029	16.797	812.059	609.927
382.044	16.987	811.510	610.142
383.059	16.913	811.178	609.572
384.073	16.973	810.377	609.133
385.088	17.074	809.659	608.903
386.102	16.872	809.623	608.096
387.117	16.809	808.854	607.239
388.132	16.824	808.697	607.120
389.146	16.878	808.045	606.770
390.161	16.964	807.419	606.557
391.175	16.940	807.100	606.176
392.190	17.013	806.741	606.114
393.205	17.201	806.216	606.337
394.219	17.011	805.685	605.205
395.234	17.036	805.421	605.045
396.248	16.966	804.659	604.167
397.263	16.995	804.249	603.911
398.278	16.931	803.910	603.374
399.292	16.891	803.405	602.801
400.307	16.873	803.345	602.639
401.321	17.010	802.499	602.437
402.336	17.199	802.180	602.814
403.350	17.089	801.580	601.921
404.365	17.179	801.335	602.000
405.380	17.143	800.843	601.450
406.394	17.170	800.356	601.127
407.409	17.160	800.305	600.999
408.423	17.203	799.771	600.698
409.438	17.254	798.986	600.236
410.453	17.297	798.725	600.139
411.467	17.349	797.950	599.687
412.482	17.334	797.630	599.338
413.496	17.289	797.472	599.010
414.511	17.343	797.340	599.049
415.526	17.308	796.813	598.477
416.540	17.478	796.384	598.700
417.555	17.333	796.231	598.019
418.569	17.437	795.237	597.585
419.584	17.591	794.552	597.558
420.599	17.546	794.179	597.069
421.613	112.565	1296.283	1483.860
422.628	96.829	1369.421	1483.979
