DTS Sentinel unit serial number:	SN413079Multiplexer serial number:	ORYXHardware model number:	OX4-SRSoftware version number:	ORYX F/W v4.00 Oryx Data Collector v3.7.2.0data status	okinstallation	princeton_trtdifferential loss correction	single-endedforward channel	channel 3reverse channel	N/Adate	2019/09/11time	08:38:11forward acquisition time	60.00reverse acquisition time	0.00gamma	496.2192k internal	0.2313k external	0.2313temperature offset calibration	0.9940default loss term (dB/km)	0.3790temperature slope calibration	1.0000multiplexer offset coefficient	1.0000multiplexer slope coefficient	1.0000fibre end	0.00T internal ref (°C)	33.42T ext. ref 1 (°C)	0.06T ext. ref 2 (°C)	30.48length (m)	temperature (°C)	Stokes	anti-Stokes-747.200	22.506	0.204	-0.169
-746.185	224.263	0.031	0.050
-745.171	-200.000	-0.054	0.342
-744.156	-73.883	-0.420	0.155
-743.142	299.525	0.125	-0.233
-742.127	93.699	-0.265	0.304
-741.112	163.425	-0.110	-0.157
-740.098	-100.155	0.047	-0.012
-739.083	-90.703	-0.160	-0.047
-738.069	-132.649	-0.278	0.036
-737.054	-56.240	0.049	-0.022
-736.039	-20.909	-0.209	-0.130
-735.025	-64.444	0.366	0.151
-734.010	-100.243	-0.212	-0.053
-732.996	-78.100	0.210	-0.073
-731.981	87.172	0.161	0.180
-730.966	-200.000	0.058	0.293
-729.952	-95.434	-0.267	-0.073
-728.937	305.345	-0.083	-0.156
-727.923	101.582	0.098	-0.115
-726.908	-73.069	-0.212	0.079
-725.894	49.946	-0.258	0.247
-724.879	719.441	0.039	0.104
-723.864	548.749	0.114	-0.278
-722.850	62.653	0.022	-0.023
-721.835	7.933	-0.470	-0.357
-720.821	-51.044	-0.356	0.169
-719.806	9.664	0.115	-0.088
-718.791	483.006	0.033	-0.076
-717.777	41.663	-0.215	-0.197
-716.762	-200.000	0.009	-0.324
-715.748	-45.167	-0.068	-0.034
-714.733	327.470	0.072	-0.141
-713.718	-200.000	0.044	0.294
-712.704	13.880	-0.112	0.088
-711.689	-200.000	-0.030	0.344
-710.675	509.933	0.126	0.297
-709.660	-200.000	-0.016	0.141
-708.645	-14.872	-0.240	0.156
-707.631	-200.000	0.024	0.302
-706.616	-119.210	-0.483	-0.085
-705.602	-200.000	0.003	-0.125
-704.587	-22.368	-0.171	-0.105
-703.572	382.077	0.064	-0.133
-702.558	800.000	-0.060	0.262
-701.543	800.000	0.075	0.234
-700.529	-103.488	0.332	-0.079
-699.514	265.670	0.169	-0.299
-698.499	-88.026	-0.229	0.070
-697.485	-108.558	0.248	-0.054
-696.470	36.834	0.352	0.315
-695.456	-158.841	0.221	-0.013
-694.441	67.732	-0.275	0.284
-693.426	167.152	-0.032	0.046
-692.412	27.430	0.075	-0.064
-691.397	-66.188	0.129	-0.052
-690.383	-200.000	0.000	-0.265
-689.368	-200.000	-0.030	0.450
-688.354	-67.281	-0.130	0.052
-687.339	-67.060	0.267	0.106
-686.324	800.000	0.047	-0.198
-685.310	410.953	0.067	-0.143
-684.295	800.000	0.014	-0.045
-683.281	-2.835	0.113	0.080
-682.266	-44.313	0.081	-0.041
-681.251	547.248	-0.054	-0.130
-680.237	-45.602	-0.502	0.251
-679.222	-94.045	0.162	-0.045
-678.208	316.650	-0.021	0.039
-677.193	800.000	-0.059	-0.191
-676.178	422.591	-0.080	0.174
-675.164	-72.276	-0.234	0.088
-674.149	605.371	0.091	-0.228
-673.135	-200.000	-0.040	-0.219
-672.120	-15.031	-0.060	-0.039
-671.105	-164.796	0.457	-0.021
-670.091	800.000	-0.062	0.222
-669.076	-200.000	0.029	-0.370
-668.062	-70.135	0.233	0.090
-667.047	-183.486	0.160	-0.003
-666.032	-59.426	-0.206	0.090
-665.018	-129.222	0.230	-0.032
-664.003	-15.869	-0.238	0.154
-662.989	-200.000	-0.035	0.353
-661.974	-200.000	0.009	0.281
-660.959	13.022	-0.084	0.066
-659.945	174.516	-0.222	-0.325
-658.930	-179.879	-0.150	-0.003
-657.916	310.781	-0.078	-0.148
-656.901	800.000	-0.128	0.362
-655.886	598.060	-0.037	-0.093
-654.872	-105.172	0.372	0.086
-653.857	-57.548	-0.444	-0.197
-652.843	396.496	0.043	-0.090
-651.828	-27.066	-0.446	0.263
-650.814	800.000	0.097	0.277
-649.799	-95.172	-0.072	-0.020
-648.784	-124.409	0.185	-0.029
-647.770	-47.884	0.021	0.010
-646.755	-200.000	0.004	-0.290
-645.741	-129.789	0.079	0.011
-644.726	128.473	-0.177	-0.228
-643.711	-200.000	-0.006	0.067
-642.697	-200.000	0.006	-0.083
-641.682	800.000	-0.025	-0.076
-640.668	-88.590	0.071	-0.022
-639.653	-200.000	0.020	0.141
-638.638	267.780	-0.062	0.110
-637.624	-200.000	-0.006	-0.065
-636.609	-45.920	0.129	-0.064
-635.595	16.775	0.124	-0.099
-634.580	503.907	0.058	-0.136
-633.565	-39.853	0.140	0.074
-632.551	108.227	0.124	-0.150
-631.536	343.375	-0.161	0.319
-630.522	-99.188	0.147	0.037
-629.507	-46.414	0.133	-0.066
-628.492	800.000	0.050	-0.153
-627.478	-144.709	0.045	0.004
-626.463	800.000	0.010	0.034
-625.449	-81.244	-0.444	0.148
-624.434	69.925	0.116	-0.121
-623.419	306.418	0.070	-0.131
-622.405	-28.985	-0.218	0.126
-621.390	-23.052	-0.209	-0.127
-620.376	-95.602	0.131	0.036
-619.361	157.774	0.197	0.275
-618.346	-91.913	-0.153	-0.044
-617.332	-17.352	-0.238	0.151
-616.317	-53.468	0.182	0.084
-615.303	-155.685	-0.242	0.016
-614.288	378.488	0.083	0.171
-613.273	-200.000	-0.012	-0.232
-612.259	-167.675	0.463	-0.019
-611.244	742.560	-0.096	-0.259
-610.230	-200.000	0.002	-0.091
-609.215	-200.000	-0.037	-0.221
-608.201	-20.909	-0.100	0.062
-607.186	-200.000	0.053	0.385
-606.171	29.585	0.249	0.213
-605.157	135.233	-0.061	-0.080
-604.142	385.784	-0.115	-0.238
-603.128	-140.548	0.300	-0.031
-602.113	49.203	0.245	-0.232
-601.098	-39.442	0.180	0.095
-600.084	-200.000	0.037	0.177
-599.069	61.926	-0.246	-0.247
-598.055	61.153	-0.223	-0.223
-597.040	45.331	0.164	-0.153
-596.025	-112.516	0.099	0.020
-595.011	-200.000	0.028	-0.159
-593.996	48.076	0.180	-0.170
-592.982	-11.364	0.146	0.097
-591.967	310.577	0.244	-0.462
-590.952	-200.000	0.011	0.113
-589.938	4.323	0.053	0.039
-588.923	-107.218	-0.202	-0.045
-587.909	-200.000	-0.012	0.106
-586.894	48.401	-0.070	-0.066
-585.879	119.356	-0.153	0.191
-584.865	-105.163	-0.409	-0.094
-583.850	-63.064	-0.258	0.107
-582.836	-200.000	0.118	-0.000
-581.821	800.000	0.115	-0.328
-580.806	-48.225	0.327	-0.159
-579.792	154.599	-0.130	-0.180
-578.777	190.691	0.111	-0.168
-577.763	-10.651	-0.444	0.296
-576.748	-21.582	0.270	0.166
-575.733	-94.731	-0.286	-0.078
-574.719	299.002	-0.145	0.270
-573.704	-73.780	-0.278	0.102
-572.690	-200.000	0.032	0.276
-571.675	129.173	0.107	0.138
-570.661	-19.367	-0.411	-0.257
-569.646	-170.957	-0.243	0.008
-568.631	16.209	0.114	-0.091
-567.617	-124.116	0.192	0.030
-566.602	12.747	-0.192	-0.149
-565.588	183.276	0.179	-0.266
-564.573	96.116	-0.093	-0.107
-563.558	-56.226	0.425	-0.190
-562.544	-129.302	-0.126	0.018
-561.529	645.304	-0.092	-0.235
-560.515	-200.000	-0.018	-0.085
-559.500	-123.154	-0.185	-0.030
-558.485	293.259	-0.099	-0.183
-557.471	-200.000	0.010	0.189
-556.456	-200.000	-0.051	0.302
-555.442	-136.280	-0.182	0.021
-554.427	18.912	-0.081	-0.065
-553.412	-200.000	0.036	0.173
-552.398	-91.591	-0.342	0.098
-551.383	552.251	0.123	-0.297
-550.369	319.357	0.150	-0.286
-549.354	113.360	-0.095	-0.117
-548.339	-37.483	-0.133	0.071
-547.325	433.269	-0.027	-0.060
-546.310	75.398	0.086	-0.091
-545.296	-102.678	-0.398	-0.096
-544.281	359.588	-0.047	-0.095
-543.266	-102.266	-0.237	-0.057
-542.252	-96.399	-0.411	0.109
-541.237	800.000	0.060	0.213
-540.223	800.000	0.032	-0.133
-539.208	222.053	0.046	0.074
-538.193	-200.000	0.012	-0.185
-537.179	-33.196	-0.271	0.151
-536.164	800.000	0.022	-0.083
-535.150	-200.000	0.022	-0.335
-534.135	-8.010	0.134	0.091
-533.121	-137.677	0.020	-0.002
-532.106	62.136	-0.238	-0.239
-531.091	19.182	0.075	-0.061
-530.077	110.037	-0.053	-0.063
-529.062	6.556	-0.234	-0.175
-528.048	158.179	-0.077	0.108
-527.033	-200.000	-0.008	-0.064
-526.018	-59.535	-0.088	0.038
-525.004	37.820	-0.072	-0.064
-523.989	236.294	0.091	0.151
-522.975	142.608	0.054	-0.072
-521.960	-200.000	-0.003	-0.112
-520.945	-27.428	-0.018	-0.010
-519.931	220.529	-0.096	-0.155
-518.916	194.721	0.137	0.208
-517.902	-200.000	0.023	-0.111
-516.887	-33.425	0.270	-0.150
-515.872	394.413	-0.053	0.111
-514.858	-200.000	-0.073	-0.363
-513.843	301.869	-0.187	0.347
-512.829	-133.862	-0.440	0.055
-511.814	-27.450	0.326	0.191
-510.799	-114.581	-0.177	0.034
-509.785	253.457	0.122	0.209
-508.770	-71.120	0.497	0.188
-507.756	-38.915	0.108	-0.057
-506.741	-70.408	-0.096	-0.037
-505.726	-9.843	-0.058	-0.039
-504.712	-200.000	0.004	-0.147
-503.697	250.323	0.078	-0.133
-502.683	50.655	0.165	-0.157
-501.668	-137.334	0.225	-0.026
-500.653	-200.000	-0.009	0.151
-499.639	261.713	-0.100	0.174
-498.624	-161.551	-0.420	-0.022
-497.610	-138.181	0.112	0.013
-496.595	135.950	-0.146	0.190
-495.581	-88.314	0.076	0.023
-494.566	23.437	0.231	0.190
-493.551	145.031	0.045	-0.061
-492.537	-76.502	0.174	0.061
-491.522	-6.501	-0.241	-0.165
-490.508	-112.434	0.252	0.050
-489.493	115.979	-0.149	-0.183
-488.478	-200.000	-0.085	-0.427
-487.464	-9.549	0.011	-0.007
-486.449	-200.000	-0.003	0.343
-485.435	-61.017	0.097	-0.041
-484.420	-50.584	-0.137	0.065
-483.405	-71.398	-0.173	0.065
-482.391	203.796	-0.273	0.425
-481.376	35.141	0.249	-0.219
-480.362	570.014	0.062	-0.152
-479.347	800.000	0.055	0.158
-478.332	213.056	0.111	0.175
-477.318	6.623	0.041	0.030
-476.303	-46.092	0.118	-0.058
-475.289	-48.064	0.055	0.027
-474.274	-118.435	0.180	0.032
-473.259	-127.931	0.137	-0.020
-472.245	-63.706	0.063	-0.026
-471.230	117.606	-0.117	0.144
-470.216	800.000	0.138	-0.459
-469.201	732.477	0.113	-0.304
-468.186	20.849	-0.134	0.109
-467.172	-171.736	0.242	-0.008
-466.157	12.401	0.095	0.074
-465.143	-116.842	-0.177	-0.033
-464.128	-56.888	-0.180	-0.080
-463.113	-148.978	0.371	-0.030
-462.099	23.673	0.283	0.234
-461.084	119.177	-0.183	0.226
-460.070	-136.556	-0.238	0.028
-459.055	72.458	-0.170	-0.178
-458.040	-83.583	-0.118	0.038
-457.026	-153.500	0.119	-0.008
-456.011	-91.538	0.258	0.074
-454.997	800.000	-0.041	0.178
-453.982	68.581	-0.086	0.089
-452.968	742.620	0.055	-0.148
-451.953	91.107	-0.067	-0.075
-450.938	-200.000	0.098	-0.448
-449.924	-188.095	-0.290	0.004
-448.909	-25.910	0.101	0.060
-447.895	-72.504	-0.352	0.130
-446.880	56.171	0.193	0.188
-445.865	-90.315	-0.271	0.079
-444.851	800.000	-0.050	0.161
-443.836	-200.000	-0.026	0.123
-442.822	-69.042	0.356	-0.137
-441.807	-180.822	0.393	-0.008
-440.792	131.041	0.118	-0.151
-439.778	-72.907	-0.355	0.131
-438.763	491.502	-0.017	0.039
-437.749	-137.489	-0.175	0.020
-436.734	-70.832	0.218	0.082
-435.719	226.234	-0.047	0.077
-434.705	-200.000	-0.044	-0.407
-433.690	632.628	-0.071	0.179
-432.676	-127.005	0.216	-0.032
-431.661	-200.000	0.013	-0.155
-430.646	557.593	-0.064	-0.154
-429.632	400.311	0.073	-0.154
-428.617	-64.932	-0.421	-0.171
-427.603	10.262	0.189	0.144
-426.588	50.434	-0.257	-0.244
-425.573	-200.000	-0.013	-0.061
-424.559	35.002	0.363	0.318
-423.544	800.000	-0.094	-0.286
-422.530	-150.353	0.208	0.016
-421.515	160.550	-0.076	0.107
-420.500	-200.000	0.009	0.069
-419.486	-200.000	0.012	-0.109
-418.471	86.418	-0.109	-0.121
-417.457	677.985	0.033	-0.086
-416.442	-62.990	-0.139	-0.058
-415.428	800.000	-0.074	-0.304
-414.413	800.000	-0.087	-0.356
-413.398	219.623	0.126	0.201
-412.384	-4.092	-0.191	0.132
-411.369	-117.184	0.231	-0.042
-410.355	-63.176	-0.162	0.067
-409.340	-200.000	0.055	0.348
-408.325	-149.403	0.101	0.008
-407.311	271.845	0.099	-0.174
-406.296	800.000	0.059	-0.241
-405.282	-200.000	-0.012	-0.248
-404.267	116.656	0.282	0.346
-403.252	403.817	-0.094	0.199
-402.238	43.425	-0.294	0.269
-401.223	-85.951	-0.252	0.078
-400.209	-76.008	-0.033	0.012
-399.194	-200.000	-0.006	0.083
-398.179	-130.233	-0.242	-0.033
-397.165	410.578	0.172	-0.364
-396.150	-60.774	-0.163	0.069
-395.136	-155.293	0.324	-0.021
-394.121	-55.158	0.091	0.041
-393.106	-200.000	-0.018	0.078
-392.092	-8.901	0.171	-0.115
-391.077	-166.531	0.547	-0.023
-390.063	-101.479	-0.097	0.024
-389.048	43.026	-0.121	0.110
-388.033	161.369	0.236	-0.331
-387.019	-85.179	0.171	-0.053
-386.004	291.393	-0.025	-0.046
-384.990	-1.844	-0.315	-0.222
-383.975	91.900	0.188	0.211
-382.960	800.000	0.031	0.130
-381.946	800.000	0.012	-0.039
-380.931	73.620	-0.108	0.113
-379.917	391.289	-0.049	-0.102
-378.902	-73.129	0.284	0.104
-377.888	29.506	0.090	-0.077
-376.873	800.000	-0.102	0.314
-375.858	35.900	-0.216	-0.190
-374.844	137.800	-0.153	-0.200
-373.829	86.178	-0.104	-0.114
-372.815	60.591	-0.113	0.112
-371.800	-135.969	0.363	-0.043
-370.785	-98.533	-0.334	0.085
-369.771	800.000	0.048	0.157
-368.756	79.277	0.197	0.211
-367.742	-52.850	0.160	0.074
-366.727	-83.253	-0.451	0.145
-365.712	-49.005	-0.197	-0.094
-364.698	800.000	-0.089	0.264
-363.683	-150.661	-0.322	0.025
-362.669	81.204	0.231	-0.249
-361.654	-134.525	-0.146	-0.018
-360.639	314.881	-0.080	-0.151
-359.625	109.828	0.171	-0.205
-358.610	800.000	-0.080	0.330
-357.596	-90.650	0.329	0.095
-356.581	800.000	-0.093	-0.401
-355.566	-104.448	0.247	-0.057
-354.552	243.208	0.044	0.074
-353.537	342.467	0.091	-0.178
-352.523	-105.550	-0.160	-0.036
-351.508	-50.165	0.099	-0.047
-350.493	-2.558	-0.317	-0.222
-349.479	166.407	-0.174	0.247
-348.464	-200.000	0.028	-0.188
-347.450	-53.552	0.152	-0.069
-346.435	800.000	0.033	-0.134
-345.420	-200.000	-0.035	0.194
-344.406	-120.944	0.209	-0.035
-343.391	37.912	0.197	0.175
-342.377	-143.341	-0.413	0.040
-341.362	-77.424	-0.507	0.176
-340.348	109.919	-0.141	-0.168
-339.333	147.489	0.246	-0.331
-338.318	-200.000	0.016	0.132
-337.304	-200.000	-0.069	0.409
-336.289	-193.137	0.249	-0.002
-335.275	-52.829	-0.150	-0.069
-334.260	-200.000	0.005	0.097
-333.245	30.410	0.122	-0.104
-332.231	66.290	0.201	0.204
-331.216	-200.000	0.003	0.242
-330.202	64.948	0.126	0.127
-329.187	800.000	0.061	-0.241
-328.172	204.392	0.034	0.053
-327.158	-43.020	0.226	-0.114
-326.143	82.767	-0.210	0.228
-325.129	281.216	-0.102	-0.182
-324.114	238.396	-0.046	-0.077
-323.099	-200.000	-0.005	0.144
-322.085	-200.000	0.017	0.471
-321.070	0.986	-0.179	0.128
-320.056	-131.156	0.271	0.036
-319.041	272.367	-0.151	0.266
-318.026	-12.809	-0.074	-0.048
-317.012	21.772	0.379	0.308
-315.997	-200.000	0.130	0.001
-314.983	-35.428	-0.202	-0.109
-313.968	800.000	-0.063	0.201
-312.953	463.833	-0.135	0.302
-311.939	-88.956	0.475	-0.140
-310.924	160.466	-0.171	-0.238
-309.910	159.492	0.185	-0.257
-308.895	800.000	-0.042	0.178
-307.880	-200.000	0.022	-0.155
-306.866	388.253	0.085	-0.176
-305.851	-40.663	-0.361	-0.187
-304.837	-87.937	0.142	-0.043
-303.822	800.000	0.051	0.145
-302.807	-200.000	0.009	-0.083
-301.793	154.650	-0.161	-0.221
-300.778	238.872	0.114	0.188
-299.764	-200.000	0.091	0.447
-298.749	-140.762	0.217	0.022
-297.735	-200.000	-0.004	-0.223
-296.720	-200.000	-0.018	0.177
-295.705	-167.179	-0.176	-0.007
-294.691	156.814	0.115	-0.158
-293.676	-200.000	-0.020	-0.098
-292.662	-93.767	0.208	-0.057
-291.647	-98.458	-0.045	0.011
-290.632	45.085	-0.187	0.172
-289.618	115.591	-0.051	-0.062
-288.603	416.878	0.090	0.191
-287.589	-5.486	0.224	0.153
-286.574	28.295	0.093	0.078
-285.559	-145.174	0.074	-0.007
-284.545	455.357	-0.101	0.222
-283.530	-160.080	0.704	0.038
-282.516	458.004	0.098	0.216
-281.501	-51.751	-0.043	-0.020
-280.486	-200.000	0.004	-0.339
-279.472	800.000	-0.168	-0.506
-278.457	800.000	0.049	0.188
-277.443	-44.004	0.255	0.128
-276.428	800.000	-0.047	-0.174
-275.413	-137.488	-0.120	-0.013
-274.399	-187.366	0.169	0.002
-273.384	-101.744	0.175	-0.042
-272.370	32.812	0.098	0.085
-271.355	-42.772	0.176	0.089
-270.340	149.263	-0.123	0.166
-269.326	35.388	0.032	0.028
-268.311	2.557	-0.246	0.177
-267.297	19.373	0.116	-0.093
-266.282	44.276	0.283	0.258
-265.267	54.605	-0.219	0.210
-264.253	628.816	-0.056	0.141
-263.238	-13.163	-0.309	0.200
-262.224	273.473	0.068	0.120
-261.209	-120.860	-0.115	-0.019
-260.195	399.162	-0.157	0.328
-259.180	-120.559	-0.234	-0.039
-258.165	800.000	-0.029	0.117
-257.151	142.792	0.123	0.162
-256.136	-100.497	-0.256	0.063
-255.122	-57.829	-0.207	0.090
-254.107	-200.000	0.013	0.544
-253.092	28.192	-0.082	0.069
-252.078	-164.816	-0.260	0.012
-251.063	-11.565	0.120	0.078
-250.049	-200.000	-0.013	0.245
-249.034	-53.695	0.208	-0.094
-248.019	186.948	0.159	0.236
-247.005	-200.000	0.009	0.165
-245.990	333.481	0.009	-0.018
-244.976	-200.000	-0.075	-0.361
-243.961	28.454	-0.089	0.075
-242.946	800.000	0.056	0.174
-241.932	-200.000	0.038	-0.441
-240.917	99.795	0.234	0.270
-239.903	800.000	0.029	-0.081
-238.888	57.787	-0.095	0.092
-237.873	-200.000	-0.015	-0.119
-236.859	-119.300	0.171	-0.030
-235.844	551.382	-0.070	-0.166
-234.830	-152.195	0.184	0.013
-233.815	46.432	0.031	0.029
-232.800	184.448	-0.022	0.033
-231.786	800.000	-0.147	-0.441
-230.771	154.565	0.078	0.106
-229.757	228.690	0.183	-0.296
-228.742	57.921	-0.174	-0.169
-227.727	53.548	-0.104	-0.100
-226.713	-35.273	0.087	0.047
-225.698	-67.910	-0.170	-0.066
-224.684	-101.460	0.236	-0.057
-223.669	800.000	0.072	-0.296
-222.655	77.944	0.213	-0.225
-221.640	91.805	0.195	-0.218
-220.625	-131.221	-0.140	0.018
-219.611	279.389	0.066	0.118
-218.596	-200.000	-0.030	0.459
-217.582	119.544	-0.269	0.331
-216.567	-4.417	-0.316	0.217
-215.552	47.201	-0.237	-0.219
-214.538	482.634	-0.058	0.132
-213.523	-118.243	0.247	-0.044
-212.509	-17.847	0.133	0.083
-211.494	-3.333	0.126	0.087
-210.479	-16.122	-0.057	0.036
-209.465	455.821	-0.133	-0.293
-208.450	-200.000	0.014	-0.080
-207.436	-67.921	0.095	-0.037
-206.421	-13.424	-0.077	-0.050
-205.406	5.857	0.213	-0.156
-204.392	109.948	0.019	0.023
-203.377	-44.137	-0.232	-0.115
-202.363	-190.521	-0.206	-0.002
-201.348	-200.000	-0.022	0.228
-200.333	0.374	0.198	0.140
-199.319	-142.365	0.104	-0.010
-198.304	-71.627	0.144	-0.053
-197.290	-200.000	-0.041	-0.252
-196.275	-163.196	-0.184	0.009
-195.260	85.465	0.246	0.268
-194.246	501.378	0.077	-0.176
-193.231	-121.792	-0.058	0.010
-192.217	126.426	-0.112	0.141
-191.202	-200.000	-0.011	0.247
-190.187	800.000	0.116	0.478
-189.173	-17.067	-0.081	0.051
-188.158	-113.053	-0.172	-0.034
-187.144	158.383	-0.029	0.040
-186.129	14.772	0.334	-0.259
-185.114	-101.777	-0.178	-0.043
-184.100	-163.197	-0.221	-0.011
-183.085	800.000	-0.034	-0.133
-182.071	650.006	0.036	-0.091
-181.056	-200.000	0.042	-0.279
-180.042	-21.832	0.142	0.086
-179.027	-200.000	-0.018	0.307
-178.012	-40.547	0.141	-0.073
-176.998	-126.037	0.193	-0.029
-175.983	-8.089	0.016	-0.011
-174.969	199.599	-0.102	0.156
-173.954	800.000	-0.024	-0.066
-172.939	800.000	0.065	0.229
-171.925	15.752	-0.060	-0.047
-170.910	-21.405	-0.175	0.106
-169.896	113.362	-0.078	-0.093
-168.881	-165.630	-0.189	-0.008
-167.866	324.590	-0.191	-0.363
-166.852	-10.423	-0.356	0.234
-165.837	-36.628	-0.142	-0.076
-164.823	382.992	0.020	-0.040
-163.808	41.447	0.190	-0.171
-162.793	-143.513	0.219	0.021
-161.779	79.175	0.080	-0.084
-160.764	43.885	0.246	0.224
-159.750	581.535	-0.115	0.279
-158.735	-200.000	-0.018	0.217
-157.720	342.520	-0.146	0.283
-156.706	-76.669	0.193	-0.067
-155.691	-57.178	0.125	-0.054
-154.677	-200.000	-0.049	-0.282
-153.662	-77.263	0.163	0.056
-152.647	202.419	0.043	-0.066
-151.633	468.141	-0.086	0.192
-150.618	-109.294	0.216	-0.045
-149.604	235.489	0.135	0.221
-148.589	-154.666	-0.278	0.018
-147.574	497.671	-0.095	0.217
-146.560	-68.388	0.282	-0.109
-145.545	-162.290	-0.381	-0.019
-144.531	-133.032	-0.100	0.013
-143.516	-82.149	0.086	-0.028
-142.502	332.929	-0.107	-0.205
-141.487	800.000	0.044	-0.171
-140.472	11.663	-0.210	0.159
-139.458	150.227	-0.038	0.051
-138.443	-200.000	-0.064	-0.000
-137.429	800.000	-0.084	-0.257
-136.414	113.682	-0.061	0.073
-135.399	22.899	0.095	-0.077
-134.385	-192.917	0.337	0.003
-133.370	-77.722	-0.096	0.033
-132.356	225.288	0.137	-0.219
-131.341	-200.000	0.031	-0.190
-130.326	1.744	-0.267	0.191
-129.312	-35.809	-0.041	-0.022
-128.297	-108.244	0.348	0.075
-127.283	-37.797	0.070	-0.037
-126.268	502.932	-0.196	0.449
-125.253	-200.000	-0.020	0.141
-124.239	-82.705	-0.350	0.112
-123.224	-200.000	0.066	0.305
-122.210	466.274	0.223	-0.495
-121.195	-125.438	-0.267	0.040
-120.180	176.718	-0.172	0.247
-119.166	-200.000	-0.009	-0.117
-118.151	800.000	0.043	0.184
-117.137	-98.375	-0.187	0.047
-116.122	-200.000	0.076	0.349
-115.107	-19.393	0.210	0.129
-114.093	-200.000	0.054	0.244
-113.078	-37.556	-0.097	-0.051
-112.064	29.925	0.333	-0.281
-111.049	-200.000	-0.009	-0.206
-110.034	-200.000	0.013	0.076
-109.020	85.559	0.141	-0.153
-108.005	-145.669	-0.335	0.030
-106.991	-117.139	0.100	-0.018
-105.976	-185.759	-0.257	-0.004
-104.962	-200.000	-0.002	0.134
-103.947	-200.000	-0.047	-0.236
-102.932	-200.000	0.013	0.057
-101.918	-123.093	0.169	0.027
-100.903	-200.000	0.049	0.438
-99.889	-60.075	-0.312	0.132
-98.874	-200.000	-0.053	0.308
-97.859	-50.909	-0.038	-0.017
-96.845	162.155	-0.230	-0.319
-95.830	38.601	0.085	0.075
-94.816	-200.000	-0.004	-0.124
-93.801	800.000	-0.042	0.153
-92.786	-10.190	0.231	0.152
-91.772	42.873	0.047	-0.042
-90.757	-63.211	-0.395	0.161
-89.743	-190.187	-0.104	-0.001
-88.728	-105.403	-0.179	-0.040
-87.713	-13.716	0.115	0.073
-86.699	-200.000	-0.001	-0.051
-85.684	65.767	-0.205	-0.205
-84.670	-0.502	0.255	-0.179
-83.655	-186.330	-0.242	0.003
-82.640	83.446	-0.190	0.205
-81.626	560.273	-0.101	-0.242
-80.611	191.352	0.106	0.158
-79.597	608.471	0.084	-0.208
-78.582	-101.203	0.169	-0.041
-77.567	-200.000	-0.020	0.352
-76.553	-162.690	-0.248	-0.012
-75.538	134.603	-0.015	0.019
-74.524	800.000	-0.042	0.171
-73.509	800.000	-0.120	-0.361
-72.494	-200.000	0.006	-0.144
-71.480	341.477	-0.164	0.316
-70.465	-200.000	0.018	0.114
-69.451	-153.477	0.119	-0.008
-68.436	-200.000	-0.083	0.549
-67.422	-58.493	-0.320	-0.137
-66.407	-86.437	0.061	-0.019
-65.392	-173.328	-0.130	0.004
-64.378	-200.000	0.009	0.208
-63.363	800.000	0.050	0.180
-62.349	-200.000	0.035	0.457
-61.334	-5.400	-1.230	-0.834
-60.319	262.305	0.298	0.510
-59.305	402.826	0.396	-0.822
-58.290	214.501	0.531	0.831
-57.276	800.000	0.498	1.483
-56.261	-200.000	101.286	605.370
-55.246	616.073	1430.191	3541.151
-54.232	180.087	2654.386	3842.103
-53.217	118.306	2218.517	2701.518
-52.203	44.039	1746.078	1580.127
-51.188	36.556	1557.702	1357.315
-50.173	34.095	1530.377	1316.448
-49.159	53.867	1583.585	1501.886
-48.144	56.808	1601.365	1539.373
-47.130	36.840	1556.107	1357.701
-46.115	33.609	1540.095	1321.211
-45.100	33.473	1536.480	1317.112
-44.086	33.475	1535.530	1316.257
-43.071	33.377	1533.622	1313.888
-42.057	33.445	1531.494	1312.490
-41.042	33.418	1530.249	1311.179
-40.027	33.467	1528.933	1310.341
-39.013	33.410	1527.377	1308.561
-37.998	33.465	1525.916	1307.639
-36.984	33.504	1524.830	1306.921
-35.969	33.406	1523.468	1305.030
-34.954	33.446	1522.433	1304.366
-33.940	33.555	1520.777	1303.642
-32.925	33.514	1519.200	1301.958
-31.911	33.580	1517.829	1301.185
-30.896	33.458	1516.983	1299.569
-29.881	33.592	1515.271	1298.972
-28.867	33.459	1514.030	1296.945
-27.852	33.476	1512.754	1295.914
-26.838	33.436	1511.216	1294.279
-25.823	33.469	1509.816	1293.250
-24.809	33.494	1508.197	1291.982
-23.794	33.488	1506.471	1290.412
-22.779	33.486	1505.898	1289.856
-21.765	33.454	1504.757	1288.608
-20.750	33.403	1503.712	1287.321
-19.736	33.471	1502.026	1286.282
-18.721	33.354	1502.103	1285.508
-17.706	33.386	1500.204	1284.047
-16.692	33.388	1498.720	1282.741
-15.677	33.322	1498.110	1281.717
-14.663	33.332	1497.041	1280.820
-13.648	33.304	1495.985	1279.677
-12.633	33.372	1494.802	1279.073
-11.619	33.350	1493.850	1278.063
-10.604	33.397	1493.374	1277.920
-9.590	33.319	1492.553	1276.637
-8.575	33.407	1491.657	1276.418
-7.560	33.376	1490.905	1275.515
-6.546	33.320	1490.074	1274.374
-5.531	33.379	1488.852	1273.678
-4.517	33.272	1487.794	1271.998
-3.502	33.450	1486.618	1272.140
-2.487	33.359	1485.544	1270.558
-1.473	33.226	1485.195	1269.319
-0.458	33.352	1483.857	1268.970
0.556	31.833	1474.229	1260.089
1.571	29.306	1447.870	1220.739
2.586	26.354	1387.444	1150.928
3.600	24.842	1305.073	1073.440
4.615	23.417	1258.581	1026.855
5.629	19.262	1199.459	955.543
6.644	8.907	1109.339	830.300
7.659	1.170	1066.849	759.774
8.673	0.303	1061.191	751.355
9.688	0.033	1058.119	747.771
10.702	-0.076	1056.523	746.036
11.717	0.002	1054.576	744.982
12.731	3.604	1058.808	765.803
13.746	13.538	1073.258	825.936
14.761	20.408	1082.674	867.550
15.775	21.758	1083.425	874.818
16.790	21.927	1083.066	875.293
17.804	21.896	1081.752	874.001
18.819	21.605	1081.000	871.864
19.834	21.709	1080.783	872.129
20.848	21.747	1080.234	871.800
21.863	21.833	1079.705	871.724
22.877	21.917	1079.310	871.743
23.892	21.918	1078.365	870.910
24.907	21.649	1077.802	869.044
25.921	21.733	1077.177	868.880
26.936	21.899	1075.914	868.604
27.950	21.747	1074.985	867.026
28.965	21.717	1074.343	866.284
29.980	21.664	1072.361	864.346
30.994	21.691	1071.328	863.568
32.009	21.604	1070.831	862.666
33.023	21.942	1069.729	863.364
34.038	21.658	1068.658	861.026
35.053	21.729	1067.844	860.645
36.067	21.864	1067.145	860.669
37.082	21.796	1066.047	859.375
38.096	21.768	1065.625	858.819
39.111	21.984	1065.167	859.430
40.126	22.110	1064.261	859.239
41.140	21.905	1063.377	857.450
42.155	21.757	1061.140	854.845
43.169	21.615	1059.714	852.932
44.184	21.600	1058.424	851.742
45.199	21.502	1057.903	850.774
46.213	21.475	1056.512	849.447
47.228	21.343	1055.935	848.270
48.242	21.505	1055.334	848.495
49.257	21.704	1054.403	848.638
50.271	21.807	1053.792	848.568
51.286	21.697	1053.421	847.663
52.301	21.711	1052.135	846.621
53.315	21.895	1051.307	846.767
54.330	21.839	1050.824	846.034
55.344	21.699	1049.796	844.456
56.359	21.789	1049.070	844.230
57.374	21.780	1047.967	843.227
58.388	21.582	1046.981	841.404
59.403	21.526	1046.565	840.727
60.417	21.593	1045.952	840.483
61.432	21.348	1045.049	838.510
62.447	21.504	1044.122	838.438
63.461	21.606	1043.644	838.466
64.476	21.520	1042.770	837.280
65.490	21.596	1041.916	836.883
66.505	21.460	1040.677	835.166
67.520	21.435	1039.877	834.332
68.534	21.658	1038.561	834.261
69.549	21.450	1038.020	832.765
70.563	21.173	1036.351	830.037
71.578	21.110	1036.212	829.551
72.593	21.103	1034.919	828.407
73.607	21.072	1033.700	827.215
74.622	20.933	1032.955	825.885
75.636	21.326	1032.112	826.999
76.651	21.430	1031.406	826.852
77.666	21.231	1031.347	825.788
78.680	21.174	1030.072	824.426
79.695	21.211	1029.329	823.935
80.709	21.405	1028.651	824.232
81.724	21.423	1027.925	823.662
82.739	21.309	1027.184	822.459
83.753	21.423	1025.623	821.672
84.768	21.694	1025.092	822.448
85.782	22.061	1024.537	823.652
86.797	22.211	1023.763	823.660
87.812	22.118	1023.058	822.582
88.826	21.982	1021.886	820.929
89.841	21.784	1021.534	819.649
90.855	21.978	1020.656	819.780
91.870	22.089	1019.748	819.495
92.884	22.020	1019.020	818.516
93.899	21.876	1018.056	817.000
94.914	21.788	1016.933	815.616
95.928	21.857	1016.588	815.587
96.943	21.960	1015.555	815.164
97.957	21.780	1013.918	812.945
98.972	21.524	1013.127	811.053
99.987	21.274	1011.793	808.754
101.001	21.348	1011.337	808.662
102.016	21.680	1010.767	809.670
103.030	21.808	1009.862	809.464
104.045	21.595	1009.091	807.789
105.060	21.495	1007.528	806.006
106.074	21.273	1006.734	804.277
107.089	21.266	1006.204	803.753
108.103	21.730	1005.478	805.236
109.118	21.876	1004.486	805.036
110.133	21.575	1003.195	802.551
111.147	21.553	1002.256	801.631
112.162	21.361	1000.685	799.427
113.176	21.074	999.758	797.300
114.191	21.144	998.910	796.874
115.206	21.372	998.017	797.129
116.220	21.128	996.608	794.823
117.235	21.033	995.770	793.653
118.249	21.098	995.558	793.712
119.264	21.265	994.260	793.366
120.279	21.098	993.257	791.733
121.293	21.183	992.615	791.540
122.308	21.302	991.696	791.275
123.322	21.207	991.261	790.426
124.337	21.194	989.835	789.161
125.352	21.195	988.406	787.959
126.366	20.775	987.067	784.929
127.381	20.455	985.403	782.093
128.395	20.862	985.336	783.804
129.410	21.481	985.034	786.278
130.424	21.676	983.836	786.127
131.439	21.731	982.559	785.285
132.454	21.721	981.642	784.437
133.468	21.816	980.361	783.766
134.483	21.605	979.990	782.457
135.497	21.571	979.984	782.234
136.512	21.744	979.377	782.453
137.527	21.834	978.171	781.822
138.541	21.837	977.702	781.390
139.556	22.015	976.687	781.302
140.570	21.907	975.932	780.146
141.585	22.024	974.693	779.609
142.600	22.034	974.236	779.220
143.614	21.798	973.275	777.336
144.629	22.079	972.226	777.670
145.643	22.246	971.671	777.898
146.658	21.957	970.906	775.940
147.673	21.946	968.876	774.198
148.687	21.768	968.246	772.840
149.702	21.671	967.595	771.829
150.716	21.626	965.879	770.191
151.731	21.608	965.308	769.589
152.746	21.699	964.640	769.389
153.760	21.852	963.968	769.458
154.775	22.112	963.254	769.956
155.789	22.053	962.258	768.834
156.804	22.205	960.825	768.286
157.819	22.048	959.886	766.781
158.833	21.940	959.593	766.010
159.848	22.234	958.501	766.350
160.862	22.171	958.105	765.694
161.877	21.992	957.087	764.033
162.892	21.948	955.867	762.801
163.906	22.096	955.164	762.813
164.921	21.971	954.629	761.776
165.935	22.007	953.365	760.856
166.950	22.123	951.960	760.170
167.964	22.081	950.649	758.876
168.979	22.067	949.603	757.912
169.994	21.885	948.699	756.339
171.008	21.724	947.929	754.964
172.023	22.062	946.693	755.369
173.037	22.159	946.284	755.393
174.052	21.985	944.898	753.470
175.067	21.762	944.213	751.900
176.081	21.874	943.032	751.375
177.096	21.867	942.571	750.910
178.110	21.883	941.198	749.818
179.125	21.633	940.568	748.180
180.140	21.507	939.191	746.483
181.154	21.396	939.375	746.088
182.169	21.527	938.464	745.860
183.183	21.697	938.353	746.429
184.198	21.912	938.095	747.073
185.213	21.947	937.227	746.464
186.227	21.898	936.175	745.353
187.242	21.965	935.851	745.312
188.256	21.988	935.180	744.812
189.271	22.023	934.534	744.379
190.286	22.138	933.607	744.061
191.300	21.997	932.374	742.417
192.315	21.385	931.928	739.408
193.329	20.763	929.571	734.848
194.344	20.381	928.788	732.555
195.359	21.040	929.237	735.624
196.373	21.790	929.251	738.730
197.388	21.953	929.378	739.451
198.402	21.917	928.260	738.344
199.417	21.903	927.479	737.601
200.432	21.984	927.416	737.825
201.446	21.857	926.249	736.297
202.461	21.514	925.503	734.201
203.475	21.543	925.539	734.289
204.490	21.134	923.882	731.192
205.504	19.974	921.588	724.465
206.519	20.503	921.547	726.579
207.534	21.380	921.810	730.389
208.548	21.548	920.870	730.280
209.563	21.752	921.111	731.258
210.577	21.829	920.243	730.825
211.592	21.743	919.009	729.422
212.607	21.954	919.345	730.503
213.621	22.074	918.720	730.443
214.636	22.057	917.367	729.230
215.650	22.097	917.121	729.136
216.665	22.040	916.526	728.363
217.680	22.039	915.885	727.786
218.694	22.109	915.574	727.764
219.709	21.735	914.455	725.261
220.723	21.378	913.839	723.232
221.738	21.651	913.381	723.936
222.753	21.873	912.830	724.349
223.767	21.823	911.703	723.186
224.782	21.936	911.053	723.072
225.796	22.048	910.622	723.125
226.811	22.223	910.259	723.494
227.826	21.844	908.536	720.506
228.840	21.205	906.817	716.455
229.855	20.922	906.795	715.215
230.869	21.201	906.365	715.954
231.884	20.884	905.148	713.635
232.899	20.958	905.210	713.924
233.913	21.689	905.367	716.974
234.928	21.879	904.584	717.070
235.942	21.798	904.323	716.468
236.957	21.854	903.219	715.758
237.972	21.536	902.255	713.636
238.986	21.542	901.621	713.095
240.001	21.568	901.318	712.899
241.015	21.617	900.490	712.379
242.030	21.764	899.338	712.003
243.045	21.799	899.190	711.962
244.059	21.869	898.601	711.717
245.074	21.979	898.313	711.873
246.088	21.902	897.714	711.023
247.103	21.571	896.611	708.746
248.117	21.695	895.775	708.526
249.132	22.366	895.726	711.136
250.147	22.730	895.305	712.209
251.161	22.561	894.821	711.077
252.176	22.786	894.552	711.708
253.190	22.754	894.152	711.201
254.205	22.770	893.798	710.919
255.220	22.845	893.295	710.758
256.234	22.855	892.706	710.269
257.249	22.742	891.905	709.112
258.263	22.610	890.985	707.787
259.278	22.757	890.609	708.017
260.293	22.738	890.127	707.494
261.307	22.873	889.953	707.837
262.322	22.745	889.149	706.620
263.336	22.808	887.786	705.728
264.351	22.136	886.318	701.815
265.366	20.893	884.863	695.639
266.380	20.542	883.733	693.290
267.395	21.676	884.186	698.108
268.409	22.301	884.511	700.793
269.424	22.279	883.514	699.854
270.439	22.490	883.063	700.273
271.453	22.547	882.233	699.778
272.468	22.596	881.783	699.554
273.482	22.698	881.575	699.732
274.497	22.835	881.339	700.029
275.512	22.813	879.788	698.646
276.526	22.177	878.335	694.916
277.541	22.327	878.276	695.400
278.555	22.564	878.178	696.197
279.570	22.435	877.430	695.034
280.585	22.227	876.266	693.231
281.599	22.328	876.273	693.574
282.614	22.422	875.483	693.258
283.628	22.170	874.185	691.177
284.643	21.842	873.268	689.104
285.657	22.191	873.339	690.469
286.672	22.032	872.761	689.328
287.687	21.657	871.736	686.983
288.701	21.908	871.503	687.726
289.716	22.195	871.446	688.745
290.730	21.939	870.296	686.773
291.745	21.803	870.074	686.002
292.760	21.560	868.875	684.050
293.774	21.594	868.079	683.494
294.789	22.486	868.598	687.325
295.803	23.065	868.503	689.448
296.818	23.077	868.241	689.222
297.833	23.158	867.718	689.063
298.847	22.829	866.533	686.784
299.862	22.567	865.389	684.797
300.876	22.756	864.837	685.034
301.891	23.167	864.468	686.274
302.906	23.135	864.339	685.986
303.920	22.722	862.908	683.194
304.935	22.617	862.163	682.137
305.949	22.904	861.886	682.967
306.964	23.108	861.601	683.466
307.979	22.957	860.911	682.278
308.993	22.793	860.291	681.092
310.008	23.293	859.793	682.565
311.022	23.137	859.867	681.963
312.037	23.062	859.259	681.133
313.052	22.858	858.334	679.551
314.066	22.658	857.773	678.280
315.081	22.197	855.967	675.022
316.095	21.460	854.431	670.926
317.110	21.870	855.094	672.960
318.125	22.745	855.299	676.418
319.139	22.440	854.349	674.437
320.154	21.149	852.571	668.035
321.168	20.758	851.580	665.705
322.183	21.461	851.592	668.344
323.197	22.291	851.901	671.699
324.212	22.873	851.423	673.482
325.227	22.975	851.203	673.637
326.241	22.820	851.063	672.876
327.256	22.722	850.638	672.108
328.270	22.678	849.620	671.074
329.285	22.494	848.934	669.777
330.300	22.580	847.885	669.216
331.314	22.417	847.273	668.054
332.329	22.341	847.050	667.531
333.343	22.769	846.296	668.500
334.358	23.000	846.348	669.355
335.373	22.945	845.524	668.438
336.387	23.031	845.122	668.385
337.402	23.358	844.756	669.271
338.416	23.441	844.297	669.163
339.431	23.297	843.616	668.019
340.446	23.185	843.557	667.492
341.460	23.553	842.830	668.243
342.475	23.530	841.952	667.403
343.489	23.381	841.088	666.099
344.504	23.276	840.729	665.359
345.519	23.665	840.514	666.593
346.533	23.849	840.129	666.918
347.548	23.734	839.776	666.150
348.562	23.706	839.306	665.612
349.577	23.884	838.345	665.459
350.592	23.563	838.291	664.154
351.606	23.709	837.502	664.014
352.621	23.891	837.024	664.260
353.635	23.712	836.636	663.222
354.650	23.558	836.134	662.193
355.665	23.288	835.199	660.386
356.679	22.216	833.450	654.954
357.694	21.970	833.018	653.639
358.708	22.701	832.782	656.118
359.723	22.662	831.924	655.239
360.738	23.039	831.881	656.548
361.752	23.266	831.979	657.408
362.767	23.452	831.554	657.705
363.781	23.684	831.390	658.377
364.796	24.026	831.126	659.378
365.810	23.966	830.978	658.978
366.825	24.111	830.444	659.035
367.840	24.121	830.312	658.908
368.854	24.030	829.126	657.572
369.869	23.516	828.270	654.939
370.883	23.356	827.411	653.610
371.898	23.512	827.144	653.916
372.913	23.583	826.183	653.363
373.927	23.422	825.884	652.476
374.942	23.510	825.400	652.359
375.956	23.562	824.789	652.009
376.971	23.775	824.205	652.270
377.986	23.803	823.840	652.027
379.000	24.135	823.396	652.835
380.015	24.028	822.833	651.940
381.029	24.054	821.824	651.176
382.044	23.836	821.419	650.003
383.059	24.059	820.862	650.317
384.073	24.056	820.717	650.134
385.088	24.214	819.861	649.975
386.102	24.155	819.259	649.225
387.117	23.980	818.855	648.209
388.132	23.846	818.277	647.207
389.146	23.638	817.653	645.899
390.161	23.030	816.924	643.056
391.175	23.093	816.376	642.798
392.190	23.618	816.549	644.784
393.205	23.711	815.741	644.426
394.219	22.709	814.268	639.575
395.234	21.321	811.869	632.613
396.248	20.461	810.712	628.546
397.263	21.592	811.406	633.122
398.278	23.322	812.799	640.411
399.292	23.749	812.871	641.957
400.307	23.361	812.401	640.127
401.321	23.401	811.570	639.558
402.336	23.323	811.564	639.217
403.350	23.719	811.181	640.287
404.365	24.268	811.282	642.289
405.380	24.486	810.938	642.742
406.394	24.661	810.660	643.095
407.409	25.032	809.988	643.839
408.423	24.875	809.172	642.572
409.438	24.819	808.683	641.924
410.453	24.704	808.523	641.327
411.467	24.691	808.602	641.285
412.482	24.721	807.924	640.801
413.496	24.650	806.929	639.700
414.511	24.776	806.822	640.011
415.526	24.704	806.663	639.570
416.540	24.737	806.350	639.383
417.555	24.636	805.675	638.430
418.569	24.412	804.864	636.932
419.584	24.419	804.424	636.551
420.599	24.524	803.812	636.387
421.613	154.800	1365.018	1794.957
422.628	134.398	1446.799	1795.049
