DTS Sentinel unit serial number:	SN413079Multiplexer serial number:	ORYXHardware model number:	OX4-SRSoftware version number:	ORYX F/W v4.00 Oryx Data Collector v3.7.2.0data status	okinstallation	princeton_trtdifferential loss correction	single-endedforward channel	channel 3reverse channel	N/Adate	2019/09/14time	07:16:35forward acquisition time	60.00reverse acquisition time	0.00gamma	496.2192k internal	0.2340k external	0.2340temperature offset calibration	1.0051default loss term (dB/km)	0.3790temperature slope calibration	1.0000multiplexer offset coefficient	1.0000multiplexer slope coefficient	1.0000fibre end	0.00T internal ref (°C)	26.19T ext. ref 1 (°C)	3.44T ext. ref 2 (°C)	20.94length (m)	temperature (°C)	Stokes	anti-Stokes-747.200	-114.330	0.329	-0.063
-746.185	-72.095	-0.251	-0.093
-745.171	800.000	0.035	-0.100
-744.156	-200.000	0.027	-0.141
-743.142	-185.935	0.374	0.006
-742.127	-161.411	-0.239	0.012
-741.112	-200.000	0.011	-0.105
-740.098	85.611	-0.455	0.501
-739.083	159.890	0.094	0.131
-738.069	-106.297	0.193	-0.043
-737.054	49.632	0.122	-0.115
-736.039	-81.606	-0.325	0.107
-735.025	64.383	0.234	-0.237
-734.010	-30.023	-0.182	-0.104
-732.996	-50.404	-0.249	0.118
-731.981	-200.000	0.027	-0.278
-730.966	-28.336	-0.400	-0.232
-729.952	800.000	0.010	0.031
-728.937	50.002	0.198	0.188
-727.923	388.290	0.211	-0.438
-726.908	-81.875	0.108	-0.035
-725.894	28.557	-0.101	-0.085
-724.879	-200.000	0.037	0.239
-723.864	-99.558	-0.213	-0.054
-722.850	-1.587	0.049	-0.035
-721.835	477.066	0.166	0.376
-720.821	56.063	-0.296	0.287
-719.806	-75.673	-0.203	-0.072
-718.791	-200.000	0.025	0.162
-717.777	-200.000	0.004	0.151
-716.762	800.000	0.055	-0.186
-715.748	270.222	0.128	0.225
-714.733	-105.744	0.045	0.010
-713.718	112.409	0.151	0.182
-712.704	423.567	0.079	-0.169
-711.689	126.596	-0.191	0.242
-710.675	-200.000	-0.023	-0.180
-709.660	542.385	0.065	-0.154
-708.645	430.528	0.087	0.188
-707.631	-74.990	0.148	-0.053
-706.616	-77.845	0.052	0.018
-705.602	800.000	0.024	0.067
-704.587	381.116	0.027	0.055
-703.572	-89.105	0.332	-0.098
-702.558	34.925	0.249	-0.218
-701.543	-167.988	0.165	-0.006
-700.529	398.674	0.171	-0.358
-699.514	-68.558	0.256	0.099
-698.499	61.405	0.175	-0.174
-697.485	-200.000	-0.000	-0.063
-696.470	800.000	0.044	0.176
-695.456	-180.289	0.259	-0.005
-694.441	12.419	-0.215	-0.166
-693.426	276.253	-0.124	0.219
-692.412	-94.444	0.155	-0.042
-691.397	-17.363	-0.317	-0.200
-690.383	2.880	0.140	0.102
-689.368	-64.810	0.109	0.044
-688.354	800.000	0.056	-0.204
-687.339	800.000	-0.108	0.345
-686.324	272.196	-0.067	0.118
-685.310	100.255	0.170	0.197
-684.295	800.000	-0.059	0.202
-683.281	-124.327	-0.179	-0.028
-682.266	180.558	0.193	-0.283
-681.251	800.000	0.030	0.099
-680.237	595.662	0.090	-0.222
-679.222	-200.000	0.018	-0.190
-678.208	-10.906	0.226	-0.150
-677.193	23.232	-0.118	0.097
-676.178	-33.644	-0.096	-0.053
-675.164	-200.000	-0.000	-0.027
-674.149	-200.000	-0.013	0.062
-673.135	-200.000	-0.003	0.114
-672.120	-174.854	-0.383	-0.011
-671.105	123.549	-0.164	0.206
-670.091	367.921	0.006	-0.013
-669.076	63.220	-0.040	-0.040
-668.062	-114.302	0.146	0.028
-667.047	71.952	0.229	-0.238
-666.032	-200.000	-0.028	-0.192
-665.018	382.189	-0.114	0.234
-664.003	-55.224	-0.114	0.051
-662.989	252.253	-0.068	0.116
-661.974	-200.000	0.000	-0.361
-660.959	-38.927	-0.152	-0.080
-659.945	132.438	-0.178	-0.229
-658.930	-93.448	0.151	0.042
-657.916	-74.964	-0.284	0.102
-656.901	-64.602	0.176	0.071
-655.886	-26.735	-0.088	-0.052
-654.872	584.126	-0.076	-0.187
-653.857	-200.000	0.018	0.117
-652.843	-200.000	0.051	-0.282
-651.828	373.525	-0.042	-0.086
-650.814	152.069	0.251	-0.342
-649.799	-200.000	-0.025	-0.403
-648.784	-65.240	0.334	-0.134
-647.770	-11.242	0.186	-0.123
-646.755	-130.994	-0.299	-0.040
-645.741	-200.000	-0.025	0.173
-644.726	-200.000	-0.043	-0.363
-643.711	-136.244	0.177	0.021
-642.697	800.000	-0.060	-0.207
-641.682	354.746	-0.038	-0.076
-640.668	170.841	-0.190	0.271
-639.653	-138.025	0.244	-0.027
-638.638	183.365	0.069	-0.102
-637.624	51.533	-0.224	-0.213
-636.609	-27.275	0.227	-0.132
-635.595	-128.400	-0.582	-0.083
-634.580	-153.554	-0.147	-0.010
-633.565	800.000	0.060	-0.221
-632.551	-200.000	-0.052	-0.576
-631.536	31.752	0.171	0.147
-630.522	142.190	-0.218	0.289
-629.507	-145.896	-0.073	0.006
-628.492	800.000	0.058	-0.238
-627.478	425.824	0.112	0.242
-626.463	194.778	0.046	0.070
-625.449	59.589	0.083	-0.082
-624.434	-36.144	-0.139	0.075
-623.419	-52.120	-0.239	-0.111
-622.405	800.000	0.072	0.307
-621.390	800.000	-0.015	-0.047
-620.376	-17.397	0.064	0.040
-619.361	15.683	-0.170	0.134
-618.346	128.592	0.033	0.042
-617.332	53.439	-0.162	0.155
-616.317	-200.000	-0.020	-0.239
-615.303	14.750	-0.218	0.170
-614.288	193.875	0.267	0.403
-613.273	173.536	0.033	-0.047
-612.259	102.810	0.211	0.247
-611.244	-98.960	-0.326	-0.082
-610.230	-37.694	0.069	0.037
-609.215	-200.000	-0.015	-0.472
-608.201	-200.000	-0.020	-0.245
-607.186	104.012	-0.078	0.092
-606.171	-62.715	-0.081	-0.034
-605.157	-92.109	-0.119	-0.034
-604.142	-200.000	0.011	0.151
-603.128	-48.608	0.120	0.058
-602.113	-23.129	-0.439	-0.264
-601.098	74.336	-0.040	-0.042
-600.084	53.774	0.180	0.172
-599.069	68.868	-0.186	-0.191
-598.055	-200.000	0.020	-0.460
-597.040	24.038	-0.062	-0.051
-596.025	2.664	-0.135	0.097
-595.011	-102.563	-0.097	0.023
-593.996	-64.051	-0.049	-0.020
-592.982	-200.000	-0.001	-0.340
-591.967	-200.000	0.016	-0.150
-590.952	-140.559	0.415	0.043
-589.938	-29.677	0.161	-0.091
-588.923	-200.000	0.011	-0.103
-587.909	-139.571	-0.118	0.013
-586.894	10.762	-0.081	0.062
-585.879	316.284	-0.061	-0.114
-584.865	101.019	0.095	-0.111
-583.850	-72.266	-0.094	0.035
-582.836	199.830	-0.233	-0.356
-581.821	-26.843	-0.330	-0.192
-580.806	-200.000	-0.020	-0.407
-579.792	-160.125	-0.276	-0.015
-578.777	-200.000	0.046	0.487
-577.763	-84.391	0.292	-0.092
-576.748	559.888	-0.022	0.054
-575.733	83.601	-0.142	0.154
-574.719	32.912	-0.103	0.089
-573.704	340.379	-0.075	0.147
-572.690	251.158	0.283	-0.480
-571.675	800.000	-0.055	-0.233
-570.661	800.000	0.004	0.013
-569.646	250.060	0.197	0.332
-568.631	114.007	0.215	0.261
-567.617	-1.997	0.280	-0.196
-566.602	-74.644	-0.171	0.061
-565.588	-200.000	0.022	0.104
-564.573	628.573	0.157	0.395
-563.558	306.621	-0.191	0.354
-562.544	456.110	0.060	-0.132
-561.529	467.388	0.117	0.261
-560.515	112.707	0.058	-0.070
-559.500	-200.000	-0.003	0.038
-558.485	404.006	0.113	-0.236
-557.471	-193.807	0.311	-0.003
-556.456	242.874	0.075	0.124
-555.442	-200.000	0.004	0.156
-554.427	-106.220	-0.045	-0.010
-553.412	-200.000	0.023	-0.123
-552.398	-72.733	0.178	0.065
-551.383	-200.000	0.022	-0.306
-550.369	2.417	0.106	0.076
-549.354	-200.000	-0.060	-0.376
-548.339	562.846	-0.116	-0.279
-547.325	254.134	-0.238	-0.404
-546.310	-110.861	0.124	-0.025
-545.296	-53.693	-0.085	0.039
-544.281	505.446	-0.049	0.112
-543.266	666.282	0.106	-0.272
-542.252	-200.000	0.066	0.332
-541.237	364.800	0.032	0.064
-540.223	-110.198	0.529	0.110
-539.208	-200.000	0.001	-0.239
-538.193	-47.343	0.244	0.118
-537.179	208.086	0.038	0.060
-536.164	800.000	0.060	0.214
-535.150	6.051	0.192	0.142
-534.135	227.230	0.129	-0.208
-533.121	-200.000	0.014	-0.239
-532.106	800.000	-0.064	0.175
-531.091	115.149	0.229	-0.278
-530.077	-88.246	-0.284	-0.085
-529.062	-20.251	0.157	0.096
-528.048	120.023	-0.080	0.099
-527.033	624.533	-0.118	-0.295
-526.018	-200.000	0.038	-0.316
-525.004	-30.871	0.019	0.011
-523.989	-200.000	0.010	0.077
-522.975	-200.000	-0.015	0.347
-521.960	-156.886	0.249	0.015
-520.945	351.781	0.177	0.349
-519.931	100.112	-0.139	0.160
-518.916	108.032	0.128	-0.152
-517.902	-22.749	-0.184	0.110
-516.887	-200.000	-0.006	-0.034
-515.872	26.456	0.241	-0.200
-514.858	-200.000	-0.011	0.119
-513.843	-79.943	-0.434	-0.145
-512.829	294.777	0.156	0.284
-511.814	-120.439	-0.079	0.013
-510.799	-200.000	0.015	-0.119
-509.785	-26.423	0.289	0.168
-508.770	541.583	-0.069	-0.163
-507.756	356.245	0.140	-0.277
-506.741	800.000	0.113	0.314
-505.726	25.582	-0.054	0.045
-504.712	800.000	-0.046	0.194
-503.697	-126.077	-0.295	0.044
-502.683	-200.000	-0.010	0.071
-501.668	-141.546	-0.096	-0.010
-500.653	-200.000	0.012	-0.323
-499.639	111.259	0.114	-0.137
-498.624	-41.009	0.230	0.118
-497.610	127.421	-0.259	0.327
-496.595	74.473	0.117	-0.122
-495.581	-200.000	-0.017	-0.312
-494.566	84.253	0.194	-0.211
-493.551	-7.782	-0.233	-0.156
-492.537	107.940	0.183	-0.216
-491.522	-147.885	0.114	0.009
-490.508	-99.343	-0.186	0.047
-489.493	-131.430	0.218	0.029
-488.478	-95.573	0.276	0.073
-487.464	-200.000	-0.006	0.197
-486.449	800.000	-0.034	0.138
-485.435	56.001	0.088	-0.084
-484.420	-55.167	-0.316	-0.141
-483.405	401.225	0.078	-0.162
-482.391	678.813	0.046	-0.120
-481.376	800.000	-0.119	-0.355
-480.362	-124.729	0.252	0.039
-479.347	-200.000	-0.028	-0.158
-478.332	54.563	-0.101	0.096
-477.318	800.000	0.021	0.075
-476.303	800.000	-0.139	0.420
-475.289	26.908	-0.152	0.126
-474.274	-12.560	0.096	-0.062
-473.259	-79.149	0.173	0.058
-472.245	-200.000	-0.014	-0.131
-471.230	-72.862	-0.442	0.161
-470.216	-200.000	0.042	0.204
-469.201	62.683	0.177	-0.175
-468.186	800.000	0.024	-0.075
-467.172	800.000	-0.032	0.098
-466.157	-24.641	0.112	0.066
-465.143	800.000	0.041	-0.130
-464.128	-200.000	0.006	0.190
-463.113	-77.211	-0.302	0.104
-462.099	-101.926	0.238	0.057
-461.084	457.798	0.086	0.189
-460.070	-124.696	-0.245	-0.038
-459.055	-200.000	0.009	0.124
-458.040	800.000	0.112	0.412
-457.026	-90.643	-0.368	-0.105
-456.011	-200.000	0.046	0.204
-454.997	-200.000	0.032	-0.394
-453.982	121.789	-0.071	-0.088
-452.968	163.581	-0.236	0.328
-451.953	241.538	0.116	0.192
-450.938	-0.374	0.238	-0.168
-449.924	-168.579	0.403	0.015
-448.909	284.855	-0.075	0.134
-447.895	800.000	-0.065	-0.207
-446.880	-58.330	0.210	-0.091
-445.865	-191.236	-0.169	-0.002
-444.851	-0.839	-0.281	0.197
-443.836	-115.655	-0.239	-0.044
-442.822	-88.188	-0.478	0.142
-441.807	-92.801	-0.195	0.054
-440.792	56.907	0.068	-0.065
-439.778	534.292	-0.172	0.403
-438.763	16.435	0.064	0.050
-437.749	31.017	-0.465	-0.395
-436.734	523.497	-0.060	-0.140
-435.719	-111.225	-0.258	-0.052
-434.705	47.770	-0.119	0.110
-433.690	-200.000	-0.055	0.404
-432.676	-108.619	-0.101	-0.021
-431.661	-191.908	0.147	-0.001
-430.646	-200.000	-0.029	-0.175
-429.632	-24.808	0.275	0.162
-428.617	-49.517	-0.091	-0.043
-427.603	-5.522	-0.076	-0.051
-426.588	210.321	0.202	0.314
-425.573	-200.000	0.022	0.399
-424.559	87.269	0.153	-0.168
-423.544	-177.715	-0.202	-0.005
-422.530	393.675	-0.090	0.185
-421.515	411.362	0.142	-0.298
-420.500	800.000	-0.030	-0.115
-419.486	-45.154	-0.264	0.130
-418.471	-83.416	0.363	0.115
-417.457	568.717	0.054	0.131
-416.442	0.652	-0.241	-0.171
-415.428	72.520	-0.136	-0.141
-414.413	-141.760	-0.135	-0.013
-413.398	-84.414	0.233	-0.073
-412.384	489.988	0.158	0.357
-411.369	800.000	0.073	0.312
-410.355	-119.791	0.028	0.005
-409.340	-200.000	-0.052	-0.249
-408.325	138.964	0.071	-0.092
-407.311	-51.560	-0.234	0.108
-406.296	-196.108	0.248	-0.002
-405.282	431.243	-0.116	-0.248
-404.267	255.812	0.117	0.198
-403.252	-75.939	0.111	-0.039
-402.238	50.415	0.032	0.030
-401.223	245.923	-0.154	0.256
-400.209	106.896	0.238	0.280
-399.194	-46.032	-0.347	-0.169
-398.179	-71.357	0.246	-0.091
-397.165	-200.000	-0.048	-0.229
-396.150	56.183	0.120	-0.115
-395.136	231.769	0.181	-0.293
-394.121	-200.000	0.193	-0.001
-393.106	800.000	0.024	0.089
-392.092	800.000	0.040	-0.173
-391.077	88.381	-0.191	0.210
-390.063	-200.000	0.012	0.063
-389.048	373.247	0.159	0.319
-388.033	-19.660	0.299	0.183
-387.019	601.026	-0.153	-0.376
-386.004	-171.590	0.460	0.015
-384.990	-200.000	-0.016	-0.190
-383.975	426.089	-0.121	0.257
-382.960	-122.340	-0.138	-0.022
-381.946	-149.477	-0.408	0.032
-380.931	-131.241	0.243	-0.032
-379.917	-91.964	0.091	0.025
-378.902	800.000	-0.104	0.337
-377.888	35.195	0.157	-0.136
-376.873	800.000	0.047	-0.151
-375.858	8.871	0.090	0.067
-374.844	-27.724	0.102	0.059
-373.829	800.000	-0.030	0.095
-372.815	-145.359	-0.344	0.031
-371.800	-87.372	-0.235	0.070
-370.785	96.082	-0.199	0.225
-369.771	1.419	-0.164	-0.117
-368.756	-36.713	0.077	-0.041
-367.742	0.264	0.170	0.120
-366.727	18.057	-0.111	-0.088
-365.712	50.731	0.179	-0.167
-364.698	800.000	0.076	0.245
-363.683	327.216	-0.077	-0.145
-362.669	800.000	-0.073	0.215
-361.654	473.434	-0.117	0.261
-360.639	-70.377	-0.327	0.123
-359.625	-200.000	-0.025	0.431
-358.610	587.410	0.054	0.131
-357.596	-200.000	0.008	0.356
-356.581	-101.398	-0.184	0.044
-355.566	-25.532	0.176	-0.103
-354.552	-50.346	0.111	0.052
-353.537	-66.140	0.095	0.037
-352.523	-91.017	-0.158	0.045
-351.508	-200.000	0.033	0.183
-350.493	276.689	-0.058	-0.101
-349.479	409.293	-0.103	-0.216
-348.464	14.035	0.062	0.048
-347.450	-78.712	0.227	0.077
-346.435	6.159	-0.127	-0.093
-345.420	134.106	-0.121	0.155
-344.406	-31.062	0.159	0.089
-343.391	79.766	0.211	-0.223
-342.377	85.439	-0.233	-0.252
-341.362	800.000	-0.096	0.322
-340.348	800.000	-0.127	0.446
-339.333	-182.761	0.171	-0.003
-338.318	60.843	-0.282	-0.276
-337.304	50.390	0.161	-0.150
-336.289	-58.797	0.374	0.160
-335.275	800.000	-0.084	0.230
-334.260	68.553	0.106	0.107
-333.245	-68.652	-0.061	0.023
-332.231	148.748	-0.095	0.127
-331.216	-156.574	0.268	0.016
-330.202	-41.216	0.310	0.158
-329.187	131.550	-0.151	0.191
-328.172	-86.971	0.108	-0.033
-327.158	169.144	-0.097	0.137
-326.143	-191.897	0.115	0.001
-325.129	-29.744	-0.192	-0.108
-324.114	-200.000	-0.017	-0.132
-323.099	192.755	0.157	-0.234
-322.085	64.554	-0.219	0.217
-321.070	-200.000	-0.046	-0.255
-320.056	798.282	0.084	0.229
-319.041	209.390	0.138	0.213
-318.026	270.714	-0.258	0.448
-317.012	-85.946	-0.084	0.026
-315.997	59.379	-0.117	0.114
-314.983	447.736	-0.082	-0.178
-313.968	-68.623	-0.169	0.064
-312.953	70.985	-0.226	0.231
-311.939	137.242	0.036	-0.047
-310.924	-200.000	0.008	0.210
-309.910	-12.351	0.198	-0.127
-308.895	98.450	-0.352	-0.400
-307.880	-125.969	-0.153	0.023
-306.866	-135.181	-0.248	0.029
-305.851	-31.062	0.275	-0.153
-304.837	265.087	0.052	0.090
-303.822	-200.000	-0.028	0.187
-302.807	41.313	-0.127	0.113
-301.793	-200.000	0.014	-0.195
-300.778	-5.527	-0.101	-0.069
-299.764	800.000	0.006	0.025
-298.749	222.919	0.081	0.129
-297.735	-22.832	0.285	-0.170
-296.720	-157.675	-0.188	0.011
-295.705	800.000	-0.144	-0.396
-294.691	-200.000	-0.022	0.182
-293.676	-200.000	-0.003	0.040
-292.662	-200.000	0.020	-0.546
-291.647	-200.000	-0.010	0.176
-290.632	160.975	-0.198	0.273
-289.618	49.374	0.086	-0.080
-288.603	800.000	-0.034	0.105
-287.589	-44.424	0.191	0.094
-286.574	-200.000	0.012	0.196
-285.559	799.258	-0.012	-0.033
-284.545	-66.583	-0.101	0.039
-283.530	-109.788	-0.295	-0.061
-282.516	-87.558	-0.107	-0.032
-281.501	-3.568	0.045	0.031
-280.486	-128.948	0.064	0.009
-279.472	-95.551	0.254	-0.067
-278.457	-23.371	0.217	0.128
-277.443	110.725	0.099	0.118
-276.428	54.829	0.175	-0.166
-275.413	-148.094	-0.236	0.019
-274.399	-200.000	0.078	-0.411
-273.384	800.000	-0.056	0.173
-272.370	7.132	-0.107	0.078
-271.355	800.000	-0.054	-0.206
-270.340	-61.247	0.234	-0.097
-269.326	-21.706	-0.118	0.071
-268.311	800.000	0.047	-0.133
-267.297	-9.597	0.171	-0.112
-266.282	-200.000	-0.060	-0.325
-265.267	12.681	0.084	-0.064
-264.253	2.847	-0.221	0.158
-263.238	-121.010	-0.404	0.067
-262.224	-0.235	0.128	-0.090
-261.209	-10.483	0.095	0.062
-260.195	-103.815	0.135	0.031
-259.180	95.772	0.100	-0.112
-258.165	-19.552	-0.208	0.127
-257.151	354.598	-0.135	-0.263
-256.136	-200.000	-0.010	0.086
-255.122	273.427	-0.182	-0.316
-254.107	-152.345	0.173	0.012
-253.092	800.000	0.115	0.370
-252.078	-200.000	0.009	0.060
-251.063	-92.031	-0.198	0.055
-250.049	-144.001	0.382	-0.035
-249.034	80.234	-0.167	-0.177
-248.019	-81.965	-0.117	-0.038
-247.005	-58.168	-0.236	-0.101
-245.990	-200.000	-0.002	-0.127
-244.976	134.023	-0.149	-0.190
-243.961	449.604	0.130	0.281
-242.946	-34.464	0.046	-0.025
-241.932	-200.000	0.015	-0.226
-240.917	292.260	-0.131	0.235
-239.903	26.264	0.248	-0.204
-238.888	105.531	-0.065	-0.075
-237.873	-123.292	0.174	0.027
-236.859	9.352	0.235	-0.175
-235.844	404.152	-0.087	0.181
-234.830	800.000	0.044	-0.154
-233.815	800.000	0.039	0.113
-232.800	-153.324	0.164	-0.011
-231.786	-200.000	-0.032	-0.232
-230.771	224.883	-0.029	0.046
-229.757	-89.846	-0.058	-0.017
-228.742	460.357	-0.052	-0.114
-227.727	-117.619	-0.237	-0.042
-226.713	800.000	0.030	-0.117
-225.698	-52.535	-0.101	-0.046
-224.684	174.731	0.186	0.264
-223.669	-200.000	0.015	-0.105
-222.655	-58.019	-0.097	-0.041
-221.640	-30.628	0.159	-0.089
-220.625	290.582	0.089	0.160
-219.611	-68.830	-0.346	0.131
-218.596	-135.338	0.185	-0.022
-217.582	-98.409	0.045	-0.011
-216.567	-106.699	0.128	-0.028
-215.552	345.195	0.119	0.230
-214.538	200.905	-0.172	0.260
-213.523	40.332	-0.383	0.339
-212.509	106.407	0.072	-0.084
-211.494	76.231	-0.272	-0.283
-210.479	-87.099	0.080	0.024
-209.465	11.298	0.230	0.173
-208.450	-154.725	0.138	0.009
-207.436	190.098	-0.125	0.185
-206.421	74.700	0.250	-0.258
-205.406	233.826	-0.277	-0.448
-204.392	104.717	0.159	-0.183
-203.377	-120.306	0.161	0.027
-202.363	-128.816	0.174	-0.024
-201.348	77.128	0.011	-0.012
-200.333	-200.000	0.007	0.348
-199.319	-129.992	0.332	-0.045
-198.304	-200.000	-0.033	-0.340
-197.290	-9.676	-0.082	0.053
-196.275	588.747	0.031	0.074
-195.260	-200.000	-0.039	0.199
-194.246	-101.618	0.415	0.099
-193.231	-200.000	-0.055	-0.318
-192.217	139.976	-0.045	-0.059
-191.202	-111.390	0.213	-0.043
-190.187	17.143	-0.109	-0.085
-189.173	-131.837	0.250	-0.032
-188.158	267.625	0.140	0.241
-187.144	-52.355	0.199	0.090
-186.129	83.358	0.304	-0.325
-185.114	-93.806	-0.260	-0.070
-184.100	165.593	0.054	0.075
-183.085	-82.324	0.166	-0.053
-182.071	-39.507	0.177	-0.091
-181.056	5.624	-0.171	0.124
-180.042	607.257	0.076	-0.187
-179.027	-64.058	0.189	0.076
-178.012	-200.000	-0.001	0.442
-176.998	128.941	0.101	0.127
-175.983	130.952	-0.158	-0.199
-174.969	800.000	-0.027	-0.116
-173.954	-200.000	0.012	-0.138
-172.939	-200.000	-0.015	-0.067
-171.925	-124.043	0.193	0.030
-170.910	113.225	-0.171	0.203
-169.896	-200.000	0.071	-0.428
-168.881	-66.776	0.032	-0.012
-167.866	-17.830	-0.235	0.144
-166.852	-81.836	-0.142	0.045
-165.837	-163.231	-0.128	-0.006
-164.823	-21.077	0.048	-0.029
-163.808	-132.661	-0.146	0.018
-162.793	800.000	0.042	-0.119
-161.779	-103.774	-0.279	-0.064
-160.764	-200.000	0.013	-0.107
-159.750	19.090	-0.114	0.090
-158.735	800.000	0.026	0.108
-157.720	-100.055	0.340	-0.083
-156.706	-70.792	0.160	-0.059
-155.691	-36.224	-0.264	-0.140
-154.677	-88.684	-0.188	-0.055
-153.662	61.700	0.310	0.303
-152.647	-93.858	-0.135	-0.036
-151.633	-200.000	-0.014	0.066
-150.618	653.927	-0.054	0.135
-149.604	116.418	0.097	-0.117
-148.589	-45.584	0.204	0.099
-147.574	-200.000	-0.043	0.217
-146.560	-200.000	-0.035	0.184
-145.545	-200.000	-0.008	0.105
-144.531	-57.464	0.163	-0.070
-143.516	61.899	0.157	0.153
-142.502	-200.000	0.006	0.163
-141.487	197.676	-0.051	-0.076
-140.472	-76.973	0.030	-0.010
-139.458	0.677	0.104	-0.073
-138.443	-200.000	0.026	0.159
-137.429	-109.109	-0.083	0.017
-136.414	-193.992	0.192	-0.002
-135.399	-132.391	0.304	-0.038
-134.385	-31.903	0.095	-0.052
-133.370	-200.000	-0.018	-0.109
-132.356	-78.390	-0.149	-0.050
-131.341	-200.000	0.003	0.446
-130.326	800.000	0.034	-0.095
-129.312	-86.374	0.071	0.021
-128.297	-135.107	0.335	0.039
-127.283	-200.000	0.009	-0.045
-126.268	-114.302	-0.061	0.011
-125.253	585.322	0.118	0.284
-124.239	46.583	0.299	0.272
-123.224	125.892	-0.228	0.282
-122.210	313.687	0.092	-0.170
-121.195	-16.035	-0.234	0.146
-120.180	238.927	0.188	0.306
-119.166	-72.345	-0.331	0.120
-118.151	-200.000	-0.018	0.250
-117.137	-96.636	0.124	0.032
-116.122	53.066	-0.185	0.173
-115.107	-200.000	0.045	0.420
-114.093	285.662	0.097	-0.171
-113.078	-136.206	-0.447	-0.051
-112.064	233.919	-0.162	0.261
-111.049	-200.000	0.013	-0.304
-110.034	175.761	0.155	-0.219
-109.020	498.053	0.097	0.218
-108.005	-200.000	-0.049	-0.224
-106.991	-11.460	-0.421	-0.271
-105.976	-102.879	0.007	-0.002
-104.962	-11.753	-0.053	-0.034
-103.947	341.540	-0.063	0.121
-102.932	-117.333	0.142	-0.025
-101.918	273.597	-0.118	-0.203
-100.903	-14.061	0.259	0.164
-99.889	-200.000	-0.004	0.110
-98.874	-200.000	-0.008	0.367
-97.859	-65.573	0.402	0.158
-96.845	-200.000	-0.001	-0.230
-95.830	550.665	0.159	0.373
-94.816	-200.000	-0.029	0.160
-93.801	147.032	0.101	-0.132
-92.786	61.156	-0.149	-0.145
-91.772	-200.000	0.013	-0.263
-90.757	243.545	-0.118	0.193
-89.743	-125.231	-0.205	0.031
-88.728	100.823	0.134	-0.152
-87.713	-24.212	0.126	0.074
-86.699	150.780	0.167	-0.221
-85.684	284.631	0.149	0.261
-84.670	28.212	0.124	-0.103
-83.655	-62.256	-0.243	0.099
-82.640	-200.000	0.000	0.081
-81.626	381.487	0.094	0.189
-80.611	-104.353	-0.231	-0.052
-79.597	-85.028	0.276	-0.085
-78.582	-29.459	0.277	-0.155
-77.567	181.310	-0.023	0.034
-76.553	-19.498	-0.176	0.106
-75.538	-122.452	-0.112	0.018
-74.524	-65.670	-0.242	-0.095
-73.509	-200.000	0.014	-0.198
-72.494	-192.045	0.196	0.002
-71.480	-200.000	-0.001	0.098
-70.465	170.159	-0.145	-0.202
-69.451	120.329	0.308	0.374
-68.436	24.257	-0.157	0.127
-67.422	-141.985	0.184	-0.018
-66.407	-200.000	-0.016	-0.115
-65.392	-83.215	0.288	0.090
-64.378	117.086	-0.080	-0.096
-63.363	-62.043	0.246	-0.100
-62.349	-200.000	0.024	0.108
-61.334	38.715	-1.092	-0.952
-60.319	22.427	0.686	0.548
-59.305	800.000	-0.295	-1.083
-58.290	148.804	0.762	1.006
-57.276	429.025	0.696	1.468
-56.261	-200.000	117.156	638.592
-55.246	481.568	1553.659	3442.636
-54.232	174.119	2724.406	3841.572
-53.217	104.437	2182.320	2507.378
-52.203	36.964	1695.605	1463.624
-51.188	29.451	1510.113	1252.689
-50.173	27.179	1485.222	1216.806
-49.159	49.276	1547.449	1419.731
-48.144	47.936	1561.079	1423.012
-47.130	29.362	1516.177	1256.917
-46.115	26.548	1500.307	1224.699
-45.100	26.249	1497.446	1220.297
-44.086	26.155	1495.833	1218.301
-43.071	26.095	1493.885	1216.260
-42.057	26.041	1492.228	1214.503
-41.042	26.072	1491.045	1213.697
-40.027	26.161	1488.756	1212.386
-39.013	26.172	1487.943	1211.746
-37.998	26.051	1487.042	1210.155
-36.984	26.163	1485.699	1209.764
-35.969	26.157	1484.438	1208.650
-34.954	26.135	1483.241	1207.477
-33.940	26.178	1481.326	1206.157
-32.925	26.278	1479.545	1205.326
-31.911	26.264	1478.570	1204.392
-30.896	26.156	1477.345	1202.630
-29.881	26.277	1476.107	1202.376
-28.867	26.284	1474.215	1200.837
-27.852	26.287	1473.235	1200.012
-26.838	26.291	1472.167	1199.118
-25.823	26.240	1470.551	1197.416
-24.809	26.234	1469.084	1196.134
-23.794	26.255	1467.738	1195.129
-22.779	26.238	1466.506	1193.965
-21.765	26.283	1465.148	1193.113
-20.750	26.316	1464.100	1192.431
-19.736	26.210	1463.428	1191.132
-18.721	26.199	1462.497	1190.259
-17.706	26.192	1461.222	1189.126
-16.692	26.109	1460.378	1187.847
-15.677	26.138	1459.407	1187.200
-14.663	26.139	1458.113	1186.107
-13.648	26.223	1456.904	1185.628
-12.633	26.129	1456.212	1184.403
-11.619	26.089	1455.918	1183.852
-10.604	26.138	1454.687	1183.124
-9.590	26.182	1453.691	1182.558
-8.575	26.141	1452.486	1181.261
-7.560	26.164	1451.634	1180.669
-6.546	26.212	1450.680	1180.165
-5.531	26.066	1450.544	1179.049
-4.517	26.120	1449.160	1178.228
-3.502	26.166	1447.733	1177.322
-2.487	26.212	1447.240	1177.178
-1.473	26.088	1446.447	1175.675
-0.458	26.208	1444.616	1174.925
0.556	26.366	1434.414	1163.449
1.571	23.315	1409.984	1124.202
2.586	19.823	1350.945	1055.762
3.600	18.295	1269.538	983.284
4.615	17.044	1224.792	941.603
5.629	14.631	1168.334	885.336
6.644	8.560	1087.766	794.144
7.659	3.848	1051.773	745.135
8.673	3.434	1046.815	739.570
9.688	3.383	1043.871	737.183
10.702	3.380	1041.882	735.698
11.717	3.573	1039.938	735.181
12.731	5.095	1040.677	742.885
13.746	11.378	1049.587	779.275
14.761	17.532	1057.538	814.639
15.775	19.322	1058.935	824.209
16.790	19.053	1057.757	821.932
17.804	18.109	1055.832	815.861
18.819	17.089	1053.982	809.500
19.834	16.643	1052.715	806.330
20.848	16.509	1051.667	804.817
21.863	16.412	1050.875	803.678
22.877	16.177	1050.410	802.136
23.892	16.011	1049.340	800.458
24.907	15.878	1048.801	799.345
25.921	16.031	1047.701	799.163
26.936	15.921	1046.975	798.017
27.950	15.943	1046.459	797.658
28.965	15.984	1045.044	796.699
29.980	16.233	1043.215	796.413
30.994	16.194	1042.545	795.646
32.009	16.368	1041.522	795.613
33.023	16.329	1041.048	794.997
34.038	16.163	1040.431	793.678
35.053	16.235	1039.191	792.997
36.067	16.050	1038.653	791.648
37.082	16.011	1037.779	790.728
38.096	16.029	1036.945	790.110
39.111	16.188	1035.997	790.060
40.126	16.267	1035.160	789.723
41.140	16.042	1033.939	787.671
42.155	16.003	1032.648	786.433
43.169	15.718	1032.097	784.615
44.184	15.813	1030.794	783.998
45.199	15.738	1029.738	782.776
46.213	15.800	1028.899	782.359
47.228	15.935	1027.791	782.073
48.242	16.089	1026.441	781.689
49.257	16.082	1025.784	781.090
50.271	16.084	1025.303	780.661
51.286	16.131	1024.676	780.335
52.301	16.224	1023.359	779.689
53.315	16.179	1022.597	778.832
54.330	16.001	1022.119	777.582
55.344	15.935	1021.271	776.561
56.359	15.939	1020.109	775.630
57.374	16.012	1018.939	775.006
58.388	15.920	1017.852	773.687
59.403	15.859	1017.611	773.156
60.417	15.756	1016.795	771.994
61.432	15.843	1015.891	771.641
62.447	15.784	1015.158	770.742
63.461	15.805	1014.198	770.043
64.476	15.665	1013.135	768.526
65.490	15.695	1012.036	767.763
66.505	15.619	1011.868	767.220
67.520	15.695	1011.137	766.943
68.534	15.744	1010.233	766.416
69.549	15.704	1009.320	765.470
70.563	15.715	1008.708	764.988
71.578	15.714	1007.969	764.357
72.593	15.569	1007.076	762.952
73.607	15.499	1005.897	761.674
74.622	15.515	1005.304	761.233
75.636	15.443	1004.488	760.219
76.651	15.635	1003.272	760.102
77.666	15.618	1002.605	759.450
78.680	15.638	1002.037	759.045
79.695	15.604	1001.674	758.547
80.709	15.621	1001.209	758.206
81.724	15.764	1000.500	758.248
82.739	15.775	999.765	757.671
83.753	15.874	998.757	757.288
84.768	16.031	997.867	757.253
85.782	16.114	997.264	757.097
86.797	16.292	996.667	757.379
87.812	16.279	995.858	756.638
88.826	16.069	995.193	755.124
89.841	16.064	994.158	754.249
90.855	16.164	993.539	754.162
91.870	16.189	992.451	753.378
92.884	16.330	991.892	753.518
93.899	16.234	991.390	752.642
94.914	16.247	990.413	751.889
95.928	16.198	990.116	751.379
96.943	16.491	988.647	751.504
97.957	16.204	988.383	749.962
98.972	16.140	987.433	748.891
99.987	16.279	986.610	748.813
101.001	16.197	985.901	747.848
102.016	16.291	985.099	747.588
103.030	16.323	983.808	746.683
104.045	16.191	983.445	745.759
105.060	16.227	982.029	744.780
106.074	16.166	981.192	743.807
107.089	16.078	980.159	742.573
108.103	15.814	979.397	740.766
109.118	15.729	978.100	739.345
110.133	15.704	978.113	739.180
111.147	15.671	976.638	737.855
112.162	15.674	975.686	737.086
113.176	15.819	975.091	737.208
114.191	15.829	974.348	736.624
115.206	15.993	973.662	736.756
116.220	15.776	973.102	735.318
117.235	15.913	971.576	734.697
118.249	15.723	971.202	733.520
119.264	15.841	970.228	733.235
120.279	15.652	969.815	732.034
121.293	15.697	968.712	731.335
122.308	15.687	967.893	730.608
123.322	15.708	966.543	729.616
124.337	15.687	965.704	728.827
125.352	15.664	964.637	727.858
126.366	15.744	963.345	727.164
127.381	15.516	962.566	725.524
128.395	15.550	961.767	725.005
129.410	15.745	960.340	724.707
130.424	15.621	960.016	723.863
131.439	15.792	959.011	723.778
132.454	15.871	958.215	723.452
133.468	15.860	957.513	722.814
134.483	15.813	957.066	722.210
135.497	15.865	956.338	721.818
136.512	15.957	955.457	721.485
137.527	15.821	954.674	720.248
138.541	15.815	954.109	719.732
139.556	15.900	953.569	719.623
140.570	15.877	953.132	719.130
141.585	16.114	952.048	719.259
142.600	16.054	951.497	718.526
143.614	16.290	950.319	718.576
144.629	16.268	950.197	718.326
145.643	16.235	949.398	717.519
146.658	16.319	948.260	716.953
147.673	16.197	947.005	715.424
148.687	15.970	946.364	713.912
149.702	16.014	945.247	713.193
150.716	15.950	944.396	712.220
151.731	15.983	943.471	711.598
152.746	16.089	942.908	711.558
153.760	16.053	942.015	710.668
154.775	16.052	941.553	710.252
155.789	16.159	940.777	710.054
156.804	16.256	939.896	709.735
157.819	16.138	939.375	708.781
158.833	16.256	939.102	709.011
159.848	16.215	938.206	708.097
160.862	16.289	937.670	707.943
161.877	16.372	936.548	707.380
162.892	16.091	935.720	705.516
163.906	16.081	934.838	704.745
164.921	15.992	934.068	703.732
165.935	16.083	932.870	703.147
166.950	15.960	932.364	702.190
167.964	16.218	931.006	702.178
168.979	16.163	930.158	701.250
169.994	16.208	929.009	700.509
171.008	16.088	928.339	699.443
172.023	16.065	927.393	698.574
173.037	16.209	927.138	698.916
174.052	16.336	926.507	698.904
175.067	16.313	925.788	698.204
176.081	16.147	924.939	696.818
177.096	16.016	924.193	695.653
178.110	16.106	922.905	694.992
179.125	16.199	922.680	695.145
180.140	16.184	921.480	694.118
181.154	16.263	921.340	694.276
182.169	16.314	920.476	693.772
183.183	16.254	919.965	693.081
184.198	16.436	919.209	693.194
185.213	16.320	918.912	692.434
186.227	16.415	917.949	692.037
187.242	16.442	917.484	691.733
188.256	16.454	916.705	691.135
189.271	16.507	916.153	690.875
190.286	16.632	915.674	690.962
191.300	16.469	914.334	689.227
192.315	16.216	913.617	687.592
193.329	16.000	912.750	686.003
194.344	15.955	912.018	685.208
195.359	16.142	911.537	685.547
196.373	16.229	911.047	685.469
197.388	16.361	910.926	685.853
198.402	16.348	910.555	685.462
199.417	16.530	910.013	685.730
200.432	16.618	909.933	685.965
201.446	16.671	909.243	685.600
202.461	16.823	908.626	685.687
203.475	16.846	908.007	685.254
204.490	16.816	907.585	684.752
205.504	16.541	906.483	682.752
206.519	16.737	905.626	682.837
207.534	16.660	904.443	681.572
208.548	16.804	903.495	681.377
209.563	16.573	903.629	680.489
210.577	16.571	902.942	679.904
211.592	16.659	902.105	679.569
212.607	16.678	901.863	679.400
213.621	16.821	901.248	679.450
214.636	16.889	900.257	678.917
215.650	16.837	899.880	678.363
216.665	16.807	899.159	677.641
217.680	16.849	898.862	677.525
218.694	16.968	898.539	677.697
219.709	17.043	897.812	677.389
220.723	16.994	897.165	676.643
221.738	16.984	896.297	675.890
222.753	16.866	895.622	674.850
223.767	16.945	894.751	674.448
224.782	16.963	894.347	674.154
225.796	17.087	893.525	673.971
226.811	17.093	893.107	673.618
227.826	17.167	892.103	673.093
228.840	17.154	891.460	672.501
229.855	17.104	890.533	671.541
230.869	16.996	890.059	670.700
231.884	17.045	889.686	670.551
232.899	17.070	888.686	669.836
233.913	16.875	888.222	668.657
234.928	16.876	887.433	668.010
235.942	16.815	886.446	666.967
236.957	16.789	886.189	666.613
237.972	16.630	885.461	665.383
238.986	16.925	884.119	665.473
240.001	16.856	883.868	664.954
241.015	16.901	883.546	664.827
242.030	17.052	882.553	664.614
243.045	16.963	882.223	663.958
244.059	16.996	881.925	663.805
245.074	17.150	880.709	663.432
246.088	17.196	880.249	663.205
247.103	17.126	880.056	662.728
248.117	17.128	879.599	662.333
249.132	17.308	879.154	662.643
250.147	17.316	878.668	662.249
251.161	17.583	877.408	662.278
252.176	17.560	877.326	662.069
253.190	17.624	876.675	661.766
254.205	17.694	876.092	661.542
255.220	17.690	875.446	660.980
256.234	17.864	874.151	660.617
257.249	17.686	874.042	659.784
258.263	17.605	873.871	659.285
259.278	17.811	872.552	659.026
260.293	17.632	872.766	658.441
261.307	17.782	872.089	658.448
262.322	17.810	871.588	658.119
263.336	17.806	870.873	657.508
264.351	17.886	870.032	657.121
265.366	17.858	869.386	656.468
266.380	17.911	868.942	656.281
267.395	17.874	868.090	655.433
268.409	17.958	867.235	655.055
269.424	17.782	866.890	654.060
270.439	17.690	866.274	653.186
271.453	17.757	865.321	652.664
272.468	17.768	864.204	651.809
273.482	17.516	864.232	650.807
274.497	17.626	863.738	650.798
275.512	17.748	862.531	650.295
276.526	17.728	861.989	649.753
277.541	17.748	861.299	649.251
278.555	17.762	860.675	648.777
279.570	17.907	860.561	649.186
280.585	17.880	860.072	648.656
281.599	17.998	859.498	648.615
282.614	17.875	858.804	647.568
283.628	17.940	857.854	647.039
284.643	17.779	857.513	646.114
285.657	17.833	857.132	645.975
286.672	17.968	856.323	645.818
287.687	17.940	855.893	645.333
288.701	17.882	855.389	644.676
289.716	17.868	854.783	644.108
290.730	17.926	854.215	643.845
291.745	18.028	853.498	643.630
292.760	18.142	852.724	643.419
293.774	18.037	852.551	642.837
294.789	18.147	852.148	642.888
295.803	18.203	851.244	642.360
296.818	18.048	850.684	641.300
297.833	18.055	849.956	640.721
298.847	17.992	849.345	639.964
299.862	17.984	848.476	639.223
300.876	18.115	847.823	639.165
301.891	18.160	847.360	638.929
302.906	18.338	846.801	639.115
303.920	18.322	845.924	638.339
304.935	18.340	845.537	638.056
305.949	18.379	845.324	637.985
306.964	18.426	844.559	637.524
307.979	18.282	843.996	636.508
308.993	18.254	843.135	635.698
310.008	18.294	842.644	635.419
311.022	18.314	842.631	635.427
312.037	18.433	841.922	635.279
313.052	18.327	841.106	634.215
314.066	18.374	840.492	633.868
315.081	18.129	840.200	632.687
316.095	18.172	839.330	632.135
317.110	18.061	839.017	631.433
318.125	18.124	838.479	631.202
319.139	18.247	837.840	631.122
320.154	18.352	837.001	630.820
321.168	18.273	836.422	630.038
322.183	18.143	836.637	629.664
323.197	18.322	836.019	629.802
324.212	18.326	835.124	629.085
325.227	18.362	834.541	628.722
326.241	18.392	833.948	628.331
327.256	18.390	833.341	627.810
328.270	18.280	833.190	627.239
329.285	18.380	832.293	626.876
330.300	18.424	831.695	626.530
331.314	18.260	831.751	625.917
332.329	18.420	830.761	625.702
333.343	18.334	830.476	625.115
334.358	18.517	829.309	624.852
335.373	18.569	829.125	624.846
336.387	18.481	828.839	624.253
337.402	18.573	828.231	624.077
338.416	18.696	827.264	623.739
339.431	18.763	826.983	623.717
340.446	18.776	826.433	623.292
341.460	18.847	826.181	623.304
342.475	18.890	825.212	622.674
343.489	19.046	824.512	622.655
344.504	19.014	824.239	622.278
345.519	19.025	824.050	622.121
346.533	18.960	823.673	621.545
347.548	19.136	822.766	621.443
348.562	18.934	822.467	620.431
349.577	18.932	821.620	619.733
350.592	18.866	821.011	618.979
351.606	18.573	820.909	617.794
352.621	18.670	820.087	617.467
353.635	18.790	819.722	617.571
354.650	18.723	819.243	616.913
355.665	18.714	818.947	616.603
356.679	18.731	818.725	616.443
357.694	18.916	817.979	616.491
358.708	18.724	817.791	615.605
359.723	18.900	816.757	615.405
360.738	18.932	816.212	615.052
361.752	18.951	815.842	614.787
362.767	19.049	815.297	614.673
363.781	19.064	815.422	614.766
364.796	19.030	814.721	614.061
365.810	19.163	814.776	614.522
366.825	19.297	814.303	614.590
367.840	19.271	813.798	614.063
368.854	19.354	813.318	613.942
369.869	19.342	812.592	613.297
370.883	19.188	811.993	612.242
371.898	19.315	811.338	612.146
372.913	19.317	810.807	611.696
373.927	19.187	810.302	610.800
374.942	19.347	809.587	610.775
375.956	19.319	809.217	610.344
376.971	19.365	808.577	609.968
377.986	19.463	808.112	609.909
379.000	19.616	807.634	610.035
380.015	19.582	806.962	609.354
381.029	19.564	806.692	609.035
382.044	19.585	805.941	608.487
383.059	19.564	805.201	607.801
384.073	19.411	804.986	607.045
385.088	19.517	804.317	606.860
386.102	19.318	803.786	605.706
387.117	19.347	803.040	605.191
388.132	19.349	802.426	604.683
389.146	19.355	801.826	604.198
390.161	19.389	802.024	604.414
391.175	19.560	801.598	604.639
392.190	19.668	800.820	604.376
393.205	19.555	800.763	603.884
394.219	19.495	800.363	603.318
395.234	19.399	799.701	602.430
396.248	19.375	799.306	601.997
397.263	19.375	798.614	601.424
398.278	19.339	797.814	600.640
399.292	19.161	797.909	600.040
400.307	19.295	797.318	600.009
401.321	19.094	797.122	599.108
402.336	19.156	796.766	599.002
403.350	19.313	795.935	598.872
404.365	19.456	795.939	599.317
405.380	19.558	795.117	598.998
406.394	19.622	794.754	598.896
407.409	19.848	794.281	599.269
408.423	19.889	794.157	599.265
409.438	19.754	793.764	598.446
410.453	19.791	793.435	598.275
411.467	19.849	792.590	597.783
412.482	19.874	792.317	597.613
413.496	19.963	791.928	597.574
414.511	20.004	791.762	597.536
415.526	20.124	791.154	597.438
416.540	19.967	790.922	596.670
417.555	19.910	790.735	596.278
418.569	19.922	789.814	595.571
419.584	20.044	789.412	595.637
420.599	19.958	789.089	595.043
421.613	162.054	1370.807	1796.473
422.628	140.356	1455.541	1796.580
