DTS Sentinel unit serial number:	SN413079Multiplexer serial number:	ORYXHardware model number:	OX4-SRSoftware version number:	ORYX F/W v4.00 Oryx Data Collector v3.7.2.0data status	okinstallation	princeton_trtdifferential loss correction	single-endedforward channel	channel 3reverse channel	N/Adate	2019/09/19time	06:52:35forward acquisition time	60.00reverse acquisition time	0.00gamma	496.2192k internal	0.2348k external	0.2348temperature offset calibration	0.9989default loss term (dB/km)	0.3790temperature slope calibration	1.0000multiplexer offset coefficient	1.0000multiplexer slope coefficient	1.0000fibre end	0.00T internal ref (°C)	19.00T ext. ref 1 (°C)	0.57T ext. ref 2 (°C)	12.70length (m)	temperature (°C)	Stokes	anti-Stokes-747.200	225.721	0.133	0.215
-746.185	-73.908	0.248	0.090
-745.171	696.578	-0.039	0.103
-744.156	-100.320	-0.386	0.096
-743.142	70.838	0.072	0.075
-742.127	179.642	-0.101	0.148
-741.112	-200.000	-0.023	-0.210
-740.098	444.844	-0.178	0.391
-739.083	-101.010	0.181	0.044
-738.069	-80.572	-0.521	0.173
-737.054	-90.797	-0.517	0.149
-736.039	-200.000	0.009	-0.186
-735.025	-64.615	0.444	-0.180
-734.010	366.221	-0.261	-0.525
-732.996	60.699	-0.185	-0.183
-731.981	-43.003	-0.019	0.010
-730.966	309.219	0.032	0.060
-729.952	-143.691	-0.250	0.024
-728.937	800.000	-0.033	-0.092
-727.923	542.188	0.069	-0.163
-726.908	151.982	-0.108	-0.147
-725.894	-18.477	-0.343	-0.214
-724.879	24.301	-0.154	-0.127
-723.864	-176.020	0.023	-0.001
-722.850	28.033	0.111	-0.094
-721.835	-171.089	-0.303	-0.010
-720.821	-64.188	0.242	0.098
-719.806	198.401	0.104	0.159
-718.791	-58.970	-0.268	0.115
-717.777	-60.237	0.183	-0.078
-716.762	-113.934	-0.477	0.092
-715.748	-33.820	0.113	-0.062
-714.733	-192.799	-0.168	-0.002
-713.718	-2.629	-0.205	-0.143
-712.704	340.775	-0.069	-0.134
-711.689	75.495	-0.292	-0.308
-710.675	6.341	0.107	0.079
-709.660	626.499	0.046	-0.115
-708.645	-145.281	0.221	-0.020
-707.631	556.589	0.143	0.343
-706.616	149.902	0.185	-0.250
-705.602	131.813	-0.049	0.063
-704.587	-58.087	0.499	0.217
-703.572	278.661	-0.120	0.213
-702.558	-145.124	0.351	0.032
-701.543	224.384	0.058	-0.094
-700.529	-83.071	0.288	0.092
-699.514	-79.046	0.186	-0.063
-698.499	99.171	-0.181	-0.209
-697.485	800.000	-0.054	-0.181
-696.470	245.984	-0.139	-0.234
-695.456	800.000	0.061	-0.221
-694.441	41.809	-0.162	-0.146
-693.426	-125.491	0.142	-0.022
-692.412	-63.663	-0.294	0.120
-691.397	241.996	-0.126	-0.210
-690.383	-200.000	0.050	0.255
-689.368	141.357	-0.255	-0.336
-688.354	564.870	-0.067	-0.162
-687.339	231.828	-0.118	-0.193
-686.324	-200.000	0.011	-0.074
-685.310	-174.835	-0.248	0.007
-684.295	37.720	0.079	0.070
-683.281	800.000	0.080	-0.323
-682.266	403.067	-0.079	-0.165
-681.251	-122.214	0.166	-0.027
-680.237	-130.243	0.115	-0.016
-679.222	-200.000	0.016	0.302
-678.208	191.035	0.099	-0.148
-677.193	31.343	0.170	0.145
-676.178	155.481	0.198	0.272
-675.164	-62.436	0.248	-0.103
-674.149	32.400	-0.141	0.121
-673.135	74.446	0.186	-0.194
-672.120	-3.807	0.180	-0.125
-671.105	-88.785	0.117	0.035
-670.091	-86.780	-0.323	-0.098
-669.076	142.779	-0.315	-0.417
-668.062	-90.260	0.290	-0.084
-667.047	16.679	0.301	0.237
-666.032	800.000	0.069	0.201
-665.018	-200.000	0.028	-0.401
-664.003	-0.601	-0.018	0.013
-662.989	800.000	-0.134	-0.434
-661.974	98.497	0.188	0.216
-660.959	-47.473	-0.090	0.043
-659.945	-116.953	-0.158	0.029
-658.930	194.623	0.166	-0.251
-657.916	64.901	-0.288	-0.290
-656.901	590.581	0.020	-0.049
-655.886	-124.881	-0.445	0.068
-654.872	-32.895	-0.118	0.066
-653.857	-166.799	0.288	0.012
-652.843	243.436	0.143	-0.239
-651.828	800.000	-0.075	0.241
-650.814	-66.263	-0.133	0.053
-649.799	-117.108	-0.202	0.037
-648.784	800.000	0.037	-0.140
-647.770	33.275	-0.116	0.100
-646.755	9.283	0.267	-0.201
-645.741	-61.772	0.287	0.120
-644.726	278.813	0.052	-0.092
-643.711	87.097	-0.131	-0.144
-642.697	3.513	-0.283	0.205
-641.682	-145.765	0.308	-0.027
-640.668	-200.000	-0.023	0.157
-639.653	-200.000	0.023	-0.184
-638.638	-177.748	-0.124	-0.003
-637.624	-200.000	0.013	-0.058
-636.609	-67.463	0.458	0.179
-635.595	-109.527	-0.169	0.036
-634.580	17.439	-0.092	-0.073
-633.565	15.186	0.098	0.077
-632.551	-55.221	0.141	-0.063
-631.536	-37.904	-0.172	-0.091
-630.522	114.624	-0.079	0.096
-629.507	-85.456	-0.063	-0.020
-628.492	38.589	0.216	0.191
-627.478	5.449	-0.151	-0.111
-626.463	126.031	-0.113	-0.142
-625.449	-200.000	0.005	-0.026
-624.434	65.414	-0.165	0.166
-623.419	-57.918	-0.354	-0.154
-622.405	-200.000	-0.000	0.060
-621.390	-106.324	0.242	0.054
-620.376	169.975	-0.117	0.166
-619.361	-23.893	0.163	0.097
-618.346	-69.124	0.130	0.050
-617.332	81.733	0.059	-0.064
-616.317	-117.352	0.173	-0.031
-615.303	-200.000	0.025	-0.349
-614.288	-83.303	-0.210	-0.067
-613.273	118.591	0.037	0.045
-612.259	-148.877	-0.456	0.037
-611.244	89.629	-0.069	0.076
-610.230	176.270	0.169	-0.244
-609.215	87.477	-0.131	-0.144
-608.201	-200.000	-0.003	-0.137
-607.186	-200.000	-0.069	0.371
-606.171	18.557	-0.219	-0.174
-605.157	562.472	0.046	-0.112
-604.142	-12.955	0.065	0.042
-603.128	-51.905	-0.162	-0.075
-602.113	-176.084	-0.216	-0.006
-601.098	586.869	0.117	-0.285
-600.084	-200.000	0.022	-0.218
-599.069	-132.535	0.218	-0.028
-598.055	-119.342	-0.349	-0.060
-597.040	-200.000	0.017	0.252
-596.025	800.000	-0.057	-0.165
-595.011	150.008	0.169	-0.228
-593.996	208.692	0.090	-0.139
-592.982	16.841	-0.487	0.383
-591.967	-180.236	-0.421	-0.009
-590.952	251.509	-0.160	-0.271
-589.938	-30.223	0.315	0.177
-588.923	301.277	0.057	-0.104
-587.909	-31.151	-0.332	-0.186
-586.894	-200.000	-0.010	0.068
-585.879	-200.000	-0.002	-0.250
-584.865	-200.000	0.091	-0.419
-583.850	-109.981	-0.263	-0.055
-582.836	800.000	0.112	-0.364
-581.821	-200.000	-0.062	0.280
-580.806	-200.000	0.060	-0.267
-579.792	331.887	-0.044	0.084
-578.777	189.656	-0.128	-0.190
-577.763	-142.287	0.136	0.013
-576.748	61.901	-0.329	0.325
-575.733	-21.207	0.230	0.139
-574.719	-154.220	-0.296	0.020
-573.704	-177.920	-0.170	-0.004
-572.690	273.516	-0.075	-0.131
-571.675	715.661	0.031	0.082
-570.661	-130.723	-0.332	-0.044
-569.646	-177.603	-0.061	0.001
-568.631	800.000	-0.034	0.129
-567.617	159.893	-0.090	-0.125
-566.602	-200.000	-0.054	-0.246
-565.588	-200.000	-0.018	0.349
-564.573	381.335	-0.111	0.227
-563.558	-36.719	0.194	-0.104
-562.544	-61.893	0.249	-0.103
-561.529	-200.000	-0.026	0.144
-560.515	129.718	0.108	0.137
-559.500	216.412	0.236	-0.373
-558.485	-93.690	-0.275	0.075
-557.471	-200.000	-0.004	0.051
-556.456	-52.075	0.230	0.106
-555.442	-152.583	-0.057	-0.004
-554.427	-52.323	0.130	-0.060
-553.412	-72.512	-0.351	-0.129
-552.398	600.559	0.120	-0.294
-551.383	800.000	0.019	0.072
-550.369	-21.952	-0.127	0.076
-549.354	-75.773	0.164	0.058
-548.339	-27.776	-0.101	-0.058
-547.325	465.271	0.030	-0.066
-546.310	470.153	-0.204	0.454
-545.296	1.065	-0.331	0.235
-544.281	-121.289	0.226	0.037
-543.266	582.690	-0.104	-0.252
-542.252	638.865	-0.062	-0.156
-541.237	-20.108	-0.222	0.136
-540.223	-38.119	-0.045	-0.023
-539.208	-35.911	0.345	0.185
-538.193	-200.000	0.003	0.027
-537.179	-200.000	0.002	0.100
-536.164	-107.547	-0.251	-0.054
-535.150	800.000	0.052	0.181
-534.135	24.403	0.119	-0.097
-533.121	-63.673	-0.339	0.138
-532.106	-200.000	0.083	-0.478
-531.091	-2.935	-0.230	-0.159
-530.077	-26.961	-0.331	-0.191
-529.062	-65.686	0.292	-0.116
-528.048	62.277	0.087	-0.086
-527.033	-200.000	0.001	0.039
-526.018	-92.234	0.229	-0.064
-525.004	-93.227	0.152	-0.042
-523.989	36.732	0.245	-0.215
-522.975	-47.842	0.104	0.050
-521.960	-82.651	0.251	0.081
-520.945	-67.889	0.199	-0.077
-519.931	-53.687	-0.164	-0.074
-518.916	-6.766	-0.332	0.223
-517.902	-146.004	0.322	-0.028
-516.887	725.337	-0.103	-0.272
-515.872	322.392	-0.088	-0.166
-514.858	267.755	0.143	0.248
-513.843	83.295	0.229	0.247
-512.829	-4.505	-0.260	-0.178
-511.814	240.310	0.050	0.083
-510.799	55.502	-0.061	0.059
-509.785	-28.098	-0.417	0.239
-508.770	800.000	0.036	-0.137
-507.756	-182.181	0.181	0.003
-506.741	-0.160	-0.238	-0.168
-505.726	53.684	0.192	-0.183
-504.712	-200.000	0.031	-0.180
-503.697	-56.458	-0.313	0.137
-502.683	-200.000	0.009	-0.342
-501.668	421.949	0.027	-0.057
-500.653	6.009	-0.274	-0.201
-499.639	-200.000	0.008	0.150
-498.624	-131.067	0.236	-0.031
-497.610	-131.175	0.188	0.025
-496.595	211.074	-0.177	-0.275
-495.581	0.412	-0.227	-0.160
-494.566	26.065	0.112	-0.093
-493.551	-200.000	0.071	0.468
-492.537	205.676	-0.211	-0.324
-491.522	-145.799	0.323	0.028
-490.508	-200.000	-0.025	0.155
-489.493	54.056	-0.209	-0.199
-488.478	494.676	-0.119	-0.271
-487.464	-16.047	-0.245	-0.154
-486.449	-199.024	-0.355	0.002
-485.435	-116.537	0.074	-0.014
-484.420	104.510	0.048	0.056
-483.405	80.973	0.141	0.150
-482.391	22.948	0.377	-0.306
-481.376	-7.814	0.200	-0.134
-480.362	346.932	-0.218	-0.424
-479.347	800.000	0.110	0.353
-478.332	-154.989	0.235	-0.015
-477.318	-123.528	0.364	0.057
-476.303	431.818	0.172	-0.370
-475.289	800.000	-0.074	0.278
-474.274	100.202	-0.124	-0.142
-473.259	42.589	0.048	-0.043
-472.245	341.657	-0.138	-0.266
-471.230	800.000	-0.082	-0.225
-470.216	-200.000	0.020	-0.159
-469.201	59.630	-0.062	0.060
-468.186	-79.139	0.279	0.094
-467.172	800.000	-0.069	-0.287
-466.157	-59.207	0.031	0.013
-465.143	40.863	0.106	0.094
-464.128	123.649	0.163	0.202
-463.113	428.805	-0.069	0.146
-462.099	197.922	0.102	0.154
-461.084	-200.000	0.001	0.004
-460.070	800.000	-0.135	-0.406
-459.055	690.487	-0.131	-0.339
-458.040	-10.409	0.166	-0.109
-457.026	-200.000	0.027	0.334
-456.011	-25.291	0.170	-0.100
-454.997	-3.362	-0.141	-0.097
-453.982	-35.249	-0.218	0.117
-452.968	90.483	-0.262	0.289
-451.953	286.228	-0.073	-0.130
-450.938	-200.000	0.018	-0.323
-449.924	-109.218	-0.155	-0.033
-448.909	-126.076	0.177	0.026
-447.895	-35.182	-0.114	-0.062
-446.880	213.527	-0.110	-0.172
-445.865	-95.884	0.224	0.059
-444.851	-31.787	-0.407	-0.225
-443.836	800.000	-0.061	0.171
-442.822	37.961	0.221	0.194
-441.807	185.865	-0.146	-0.214
-440.792	-84.546	0.265	0.082
-439.778	190.785	-0.092	0.136
-438.763	800.000	0.134	0.451
-437.749	-200.000	0.051	0.488
-436.734	800.000	-0.051	0.156
-435.719	363.856	0.066	-0.132
-434.705	-147.467	0.123	-0.010
-433.690	-13.531	0.347	0.222
-432.676	800.000	-0.061	-0.186
-431.661	702.012	0.048	-0.126
-430.646	800.000	0.015	-0.064
-429.632	68.115	-0.104	-0.105
-428.617	-37.895	-0.326	0.171
-427.603	-144.288	-0.271	-0.025
-426.588	800.000	0.032	-0.094
-425.573	19.568	-0.133	0.106
-424.559	-194.137	-0.281	-0.002
-423.544	469.952	0.063	0.139
-422.530	-130.208	-0.050	0.007
-421.515	191.463	0.121	0.179
-420.500	166.195	-0.114	0.159
-419.486	27.576	0.128	0.106
-418.471	266.259	0.123	-0.212
-417.457	-127.849	-0.161	-0.023
-416.442	139.711	-0.037	-0.048
-415.428	-200.000	-0.014	0.160
-414.413	800.000	-0.052	-0.209
-413.398	-107.761	0.372	0.080
-412.384	438.689	0.105	-0.226
-411.369	-132.505	0.048	0.006
-410.355	-59.972	0.125	-0.053
-409.340	67.675	-0.181	-0.183
-408.325	-166.965	-0.307	0.012
-407.311	-22.346	0.105	-0.063
-406.296	337.013	-0.170	0.325
-405.282	-87.414	0.196	-0.059
-404.267	-44.730	0.164	0.080
-403.252	-68.637	0.478	-0.182
-402.238	800.000	0.089	-0.267
-401.223	25.912	-0.233	-0.191
-400.209	-91.841	-0.186	0.052
-399.194	47.009	-0.182	0.167
-398.179	66.237	0.243	-0.243
-397.165	-97.646	-0.131	0.033
-396.150	-140.038	-0.186	-0.019
-395.136	-21.473	-0.386	-0.232
-394.121	-169.407	0.498	-0.018
-393.106	98.685	-0.221	-0.252
-392.092	173.440	0.205	-0.291
-391.077	89.039	-0.133	0.146
-390.063	-24.088	-0.140	0.082
-389.048	-145.253	0.127	-0.011
-388.033	-66.325	0.127	0.050
-387.019	-200.000	0.032	0.257
-386.004	-200.000	0.016	0.169
-384.990	71.699	-0.132	-0.135
-383.975	112.246	-0.156	0.186
-382.960	800.000	0.088	-0.347
-381.946	-73.365	0.213	0.077
-380.931	-111.545	-0.162	0.032
-379.917	800.000	-0.025	0.079
-378.902	-110.563	-0.193	-0.039
-377.888	-32.497	-0.354	-0.194
-376.873	-200.000	0.018	0.093
-375.858	-169.821	-0.409	0.014
-374.844	-47.986	-0.163	0.078
-373.829	-26.869	0.142	0.082
-372.815	-156.188	-0.122	-0.008
-371.800	427.878	0.080	0.170
-370.785	-200.000	0.009	0.272
-369.771	-154.056	0.057	0.004
-368.756	-91.989	0.168	-0.047
-367.742	800.000	-0.034	0.106
-366.727	25.362	0.266	-0.218
-365.712	-62.867	0.075	0.031
-364.698	142.893	-0.131	-0.171
-363.683	-116.017	0.384	-0.070
-362.669	-80.758	0.043	0.014
-361.654	674.335	0.072	-0.185
-360.639	124.415	-0.148	0.183
-359.625	480.260	0.114	-0.255
-358.610	800.000	-0.055	0.151
-357.596	-60.111	-0.271	0.114
-356.581	-200.000	0.075	0.325
-355.566	-8.013	0.029	-0.019
-354.552	339.628	-0.132	-0.254
-353.537	-29.353	-0.129	-0.072
-352.523	-200.000	0.004	-0.056
-351.508	-200.000	-0.010	0.251
-350.493	327.586	-0.157	-0.297
-349.479	178.326	0.054	-0.077
-348.464	537.309	0.005	-0.012
-347.450	244.870	-0.343	0.567
-346.435	395.458	-0.080	0.163
-345.420	477.986	-0.085	-0.189
-344.406	-143.924	0.263	-0.024
-343.391	-120.108	0.277	0.047
-342.377	800.000	0.040	0.149
-341.362	-200.000	0.028	-0.166
-340.348	336.066	0.073	-0.138
-339.333	-79.903	0.174	-0.057
-338.318	-90.585	0.286	-0.081
-337.304	244.325	0.109	0.180
-336.289	18.711	0.176	0.139
-335.275	45.372	0.141	0.128
-334.260	105.941	-0.254	0.295
-333.245	76.119	-0.281	0.292
-332.231	-168.919	0.391	-0.014
-331.216	-200.000	0.049	0.288
-330.202	-200.000	0.011	0.107
-329.187	13.811	-0.126	-0.096
-328.172	-200.000	-0.038	-0.171
-327.158	-200.000	0.050	-0.260
-326.143	-200.000	0.023	-0.384
-325.129	-2.489	0.139	0.095
-324.114	286.079	-0.118	-0.210
-323.099	-200.000	0.013	0.068
-322.085	522.730	0.151	0.348
-321.070	-200.000	-0.011	0.132
-320.056	516.740	0.068	0.156
-319.041	799.836	0.087	0.237
-318.026	-79.534	0.517	-0.172
-317.012	144.711	-0.195	0.255
-315.997	-175.322	-0.225	0.006
-314.983	175.951	0.105	0.150
-313.968	383.644	0.099	0.201
-312.953	-167.141	-0.192	0.008
-311.939	109.931	-0.067	0.079
-310.924	630.915	-0.073	-0.181
-309.910	-8.707	-0.153	-0.101
-308.895	-127.058	0.267	0.039
-307.880	-66.780	-0.190	0.074
-306.866	800.000	0.044	-0.151
-305.851	-127.784	0.162	0.023
-304.837	800.000	-0.062	-0.197
-303.822	-64.605	0.044	-0.017
-302.807	-197.858	0.460	-0.003
-301.793	86.071	0.125	-0.135
-300.778	-44.616	0.042	-0.020
-299.764	311.467	-0.019	-0.036
-298.749	-91.426	0.128	0.036
-297.735	-200.000	0.009	-0.094
-296.720	185.814	0.094	-0.138
-295.705	-28.510	0.114	-0.065
-294.691	-30.374	-0.190	0.106
-293.676	800.000	0.175	0.492
-292.662	440.975	-0.175	0.376
-291.647	-103.942	-0.319	-0.073
-290.632	82.891	-0.120	-0.128
-289.618	527.652	0.170	-0.392
-288.603	-104.648	-0.288	0.065
-287.589	800.000	0.039	-0.155
-286.574	800.000	0.046	-0.191
-285.559	-113.732	0.315	0.060
-284.545	85.548	-0.052	-0.056
-283.530	-200.000	0.000	-0.289
-282.516	-200.000	-0.035	0.252
-281.501	123.957	-0.088	-0.109
-280.486	-143.501	-0.332	-0.031
-279.472	-137.074	0.221	-0.025
-278.457	-200.000	-0.047	0.000
-277.443	474.272	-0.086	0.189
-276.428	169.315	-0.071	0.100
-275.413	90.165	-0.043	0.047
-274.399	18.611	-0.230	0.181
-273.384	-200.000	-0.139	0.000
-272.370	-200.000	0.057	0.329
-271.355	91.393	-0.051	-0.057
-270.340	-8.927	-0.215	0.142
-269.326	-125.805	0.561	0.083
-268.311	800.000	-0.044	-0.135
-267.297	-31.009	0.198	0.109
-266.282	-93.337	-0.073	0.020
-265.267	192.227	0.092	-0.136
-264.253	-66.985	-0.254	0.098
-263.238	-125.660	0.330	0.049
-262.224	-160.179	0.214	0.011
-261.209	-200.000	-0.015	-0.156
-260.195	55.431	-0.083	-0.079
-259.180	-161.568	0.168	-0.008
-258.165	116.208	-0.143	-0.172
-257.151	-79.691	0.260	-0.086
-256.136	358.443	-0.033	0.065
-255.122	-200.000	-0.021	-0.103
-254.107	-64.400	0.325	-0.130
-253.092	157.270	0.091	0.124
-252.078	13.537	-0.129	-0.098
-251.063	306.076	0.178	-0.325
-250.049	-200.000	-0.000	-0.202
-249.034	-115.578	0.264	-0.049
-248.019	-105.127	0.198	-0.044
-247.005	-124.677	-0.258	-0.039
-245.990	-6.199	0.086	0.057
-244.976	48.713	-0.071	-0.065
-243.961	66.722	0.269	-0.268
-242.946	131.959	0.145	0.183
-241.932	-200.000	0.000	0.211
-240.917	-11.966	0.238	-0.153
-239.903	580.388	-0.075	-0.181
-238.888	-181.827	-0.133	0.002
-237.873	800.000	-0.110	-0.301
-236.859	191.056	0.340	0.502
-235.844	-84.755	0.589	0.182
-234.830	185.069	-0.198	0.287
-233.815	109.552	0.244	-0.286
-232.800	262.329	0.199	0.338
-231.786	800.000	0.028	0.084
-230.771	-200.000	0.029	0.364
-229.757	-200.000	-0.001	0.206
-228.742	-1.364	-0.442	-0.305
-227.727	-52.392	0.313	0.142
-226.713	-120.315	-0.367	0.061
-225.698	558.100	-0.046	-0.110
-224.684	-200.000	-0.077	-0.379
-223.669	303.402	0.112	-0.203
-222.655	288.017	0.164	0.291
-221.640	-93.975	0.100	0.027
-220.625	-175.696	-0.190	0.005
-219.611	-200.000	-0.022	0.157
-218.596	556.937	-0.114	-0.268
-217.582	9.479	0.164	0.121
-216.567	-200.000	0.040	0.207
-215.552	79.353	-0.221	0.232
-214.538	46.481	0.158	0.143
-213.523	-62.339	-0.240	-0.098
-212.509	800.000	-0.118	0.505
-211.494	-200.000	-0.021	-0.153
-210.479	59.441	-0.250	0.241
-209.465	94.846	0.141	0.157
-208.450	79.735	0.146	0.153
-207.436	-200.000	-0.027	0.134
-206.421	-130.889	0.480	-0.063
-205.406	39.221	-0.160	-0.140
-204.392	-94.249	0.326	-0.087
-203.377	138.650	-0.051	0.065
-202.363	800.000	0.033	0.113
-201.348	-69.920	0.207	0.077
-200.333	-200.000	0.043	0.211
-199.319	-200.000	0.017	-0.234
-198.304	-66.004	-0.169	-0.066
-197.290	93.273	-0.056	-0.062
-196.275	-152.465	-0.178	-0.012
-195.260	718.168	-0.135	-0.351
-194.246	800.000	0.029	-0.120
-193.231	-200.000	0.001	0.062
-192.217	-200.000	0.032	0.218
-191.202	156.056	0.228	0.308
-190.187	6.333	-0.130	0.095
-189.173	-83.040	0.314	-0.099
-188.158	203.346	-0.173	0.262
-187.144	336.493	0.103	0.196
-186.129	-200.000	0.001	-0.154
-185.114	545.036	0.142	0.332
-184.100	-30.084	0.054	0.030
-183.085	254.043	-0.127	0.213
-182.071	-78.553	0.120	0.040
-181.056	-94.781	0.199	-0.053
-180.042	189.921	0.090	-0.132
-179.027	-178.287	0.177	-0.004
-178.012	-22.260	0.125	0.074
-176.998	20.485	0.120	-0.095
-175.983	-200.000	0.039	0.183
-174.969	-200.000	0.028	0.189
-173.954	309.517	-0.225	0.412
-172.939	-24.105	-0.115	0.067
-171.925	254.287	-0.139	0.233
-170.910	-200.000	-0.015	-0.184
-169.896	-200.000	0.047	0.203
-168.881	11.680	0.204	0.153
-167.866	277.837	-0.195	0.339
-166.852	800.000	-0.014	-0.042
-165.837	-200.000	0.015	0.075
-164.823	-117.699	-0.318	-0.056
-163.808	66.451	0.164	0.163
-162.793	-26.457	-0.235	-0.134
-161.779	-130.752	-0.089	0.012
-160.764	-200.000	-0.028	0.217
-159.750	724.421	-0.073	0.189
-158.735	55.708	0.036	0.035
-157.720	31.401	-0.118	-0.099
-156.706	-200.000	0.031	0.185
-155.691	213.270	-0.138	0.212
-154.677	453.003	0.033	-0.071
-153.662	-200.000	-0.031	-0.185
-152.647	74.590	-0.201	-0.206
-151.633	-147.803	0.176	-0.014
-150.618	-122.164	0.146	-0.023
-149.604	-72.135	0.382	-0.138
-148.589	-94.674	0.211	0.056
-147.574	-14.131	-0.095	0.060
-146.560	252.406	0.307	0.510
-145.545	256.865	0.145	0.243
-144.531	181.042	-0.048	-0.069
-143.516	140.712	-0.105	0.135
-142.502	11.928	0.161	0.121
-141.487	-56.107	0.253	0.110
-140.472	-64.787	-0.138	0.054
-139.458	-200.000	0.019	0.119
-138.443	276.728	-0.085	0.147
-137.429	356.167	-0.060	0.117
-136.414	-75.696	0.046	0.016
-135.399	-56.707	-0.181	-0.078
-134.385	494.572	-0.066	-0.147
-133.370	-65.941	0.163	-0.064
-132.356	-26.609	0.194	0.111
-131.341	-142.683	0.020	-0.002
-130.326	-40.129	-0.176	0.089
-129.312	800.000	-0.097	-0.298
-128.297	-196.110	0.581	0.004
-127.283	396.918	0.149	0.303
-126.268	800.000	-0.100	0.343
-125.253	-106.678	-0.210	0.046
-124.239	93.414	-0.145	0.161
-123.224	-200.000	0.017	0.124
-122.210	210.870	-0.108	-0.165
-121.195	-200.000	-0.005	0.256
-120.180	-183.648	-0.145	-0.002
-119.166	-200.000	0.005	-0.081
-118.151	153.854	0.040	0.053
-117.137	-84.114	-0.264	0.082
-116.122	-111.025	0.347	0.069
-115.107	-129.544	-0.281	-0.038
-114.093	-47.105	0.102	0.048
-113.078	800.000	-0.044	-0.182
-112.064	57.921	-0.228	-0.218
-111.049	-14.906	0.241	0.151
-110.034	-46.988	-0.400	0.191
-109.020	-200.000	0.042	-0.219
-108.005	56.816	-0.124	0.117
-106.991	75.003	-0.257	-0.264
-105.976	-84.583	-0.042	0.013
-104.962	-200.000	0.018	0.103
-103.947	-179.533	0.137	0.003
-102.932	249.110	0.033	0.054
-101.918	190.382	0.129	0.189
-100.903	800.000	0.096	0.260
-99.889	-28.852	0.301	-0.169
-98.874	673.232	0.052	0.131
-97.859	48.179	0.134	-0.123
-96.845	-200.000	-0.029	0.401
-95.830	41.965	0.106	0.094
-94.816	41.864	-0.075	-0.066
-93.801	48.725	-0.150	0.137
-92.786	800.000	-0.013	-0.038
-91.772	78.948	-0.145	0.151
-90.757	324.482	-0.131	0.243
-89.743	257.965	0.028	0.047
-88.728	-15.320	-0.403	-0.251
-87.713	-200.000	0.007	0.123
-86.699	800.000	-0.095	-0.302
-85.684	148.005	0.137	-0.180
-84.670	143.113	0.011	-0.014
-83.655	-1.065	0.118	0.081
-82.640	-14.601	-0.170	0.106
-81.626	268.340	0.105	-0.179
-80.611	-200.000	-0.078	0.351
-79.597	23.350	-0.044	0.035
-78.582	321.893	-0.186	-0.344
-77.567	72.183	-0.061	0.062
-76.553	316.057	0.221	-0.406
-75.538	292.811	0.059	0.105
-74.524	309.154	0.036	-0.065
-73.509	-200.000	0.019	0.084
-72.494	-200.000	0.025	0.151
-71.480	-15.078	-0.147	0.092
-70.465	120.017	-0.038	-0.046
-69.451	158.122	0.294	-0.397
-68.436	-196.917	0.120	-0.001
-67.422	-181.021	0.218	0.004
-66.407	-200.000	0.040	0.368
-65.392	-200.000	-0.039	-0.284
-64.378	800.000	-0.067	0.200
-63.363	191.956	0.067	-0.098
-62.349	113.475	-0.171	0.202
-61.334	152.683	-1.015	-1.350
-60.319	68.665	0.836	0.835
-59.305	800.000	-0.441	-1.734
-58.290	124.952	0.776	0.951
-57.276	523.556	0.648	1.482
-56.261	-200.000	136.082	629.868
-55.246	348.006	1632.102	3128.469
-54.232	138.551	2769.259	3535.269
-53.217	80.922	2176.170	2283.161
-52.203	28.723	1697.006	1397.220
-51.188	21.813	1522.692	1206.292
-50.173	20.424	1501.922	1180.354
-49.159	43.738	1578.385	1404.652
-48.144	39.463	1588.480	1383.633
-47.130	21.776	1537.987	1217.960
-46.115	19.233	1521.939	1187.696
-45.100	18.999	1518.856	1183.629
-44.086	19.099	1515.974	1182.027
-43.071	18.946	1514.995	1180.167
-42.057	18.873	1513.995	1178.840
-41.042	19.008	1511.629	1177.874
-40.027	18.946	1510.577	1176.585
-39.013	18.942	1508.589	1174.961
-37.998	19.009	1507.362	1174.416
-36.984	18.967	1506.643	1173.524
-35.969	19.071	1504.983	1172.890
-34.954	18.944	1503.923	1171.151
-33.940	18.944	1502.492	1169.990
-32.925	18.841	1501.297	1168.313
-31.911	19.010	1499.799	1168.251
-30.896	19.017	1498.271	1167.061
-29.881	19.011	1497.138	1166.094
-28.867	19.114	1495.532	1165.494
-27.852	19.028	1494.521	1164.079
-26.838	19.152	1492.404	1163.221
-25.823	19.086	1491.317	1161.878
-24.809	19.066	1490.043	1160.708
-23.794	19.094	1488.441	1159.599
-22.779	18.962	1487.885	1158.231
-21.765	19.135	1486.445	1158.232
-20.750	19.084	1485.352	1156.987
-19.736	19.057	1484.228	1155.888
-18.721	19.086	1482.954	1155.045
-17.706	18.999	1482.724	1154.235
-16.692	19.039	1481.278	1153.332
-15.677	18.996	1480.150	1152.119
-14.663	18.948	1479.558	1151.290
-13.648	19.019	1478.031	1150.531
-12.633	18.913	1476.962	1148.945
-11.619	18.917	1476.498	1148.564
-10.604	18.944	1476.027	1148.332
-9.590	19.001	1474.555	1147.524
-8.575	18.940	1474.116	1146.730
-7.560	18.964	1473.224	1146.152
-6.546	18.994	1472.619	1145.831
-5.531	18.929	1471.458	1144.450
-4.517	18.938	1470.218	1143.499
-3.502	18.953	1469.303	1142.844
-2.487	19.010	1468.090	1142.234
-1.473	18.947	1467.238	1141.107
-0.458	18.951	1466.214	1140.291
0.556	18.011	1455.837	1128.979
1.571	14.826	1431.941	1089.617
2.586	11.426	1371.426	1022.211
3.600	10.027	1287.832	951.587
4.615	9.170	1244.758	914.798
5.629	8.294	1188.318	868.480
6.644	4.385	1108.930	790.512
7.659	1.119	1076.272	751.001
8.673	0.629	1071.171	744.961
9.688	0.497	1068.010	742.047
10.702	0.571	1066.199	741.087
11.717	0.572	1063.644	739.249
12.731	1.886	1063.199	745.302
13.746	6.692	1069.972	773.587
14.761	13.120	1078.972	811.706
15.775	16.706	1082.886	832.237
16.790	16.750	1082.165	831.823
17.804	15.904	1079.964	825.914
18.819	14.972	1078.026	819.791
19.834	14.572	1076.620	816.690
20.848	14.337	1075.882	814.912
21.863	14.191	1075.028	813.477
22.877	13.903	1074.395	811.517
23.892	13.708	1073.707	809.976
24.907	13.631	1072.835	808.868
25.921	13.494	1071.789	807.340
26.936	13.612	1071.247	807.439
27.950	13.684	1070.474	807.131
28.965	13.733	1069.993	806.940
29.980	13.743	1068.953	806.131
30.994	13.861	1067.593	805.608
32.009	13.876	1067.167	805.287
33.023	13.851	1066.420	804.532
34.038	13.844	1065.765	803.932
35.053	13.833	1064.666	802.976
36.067	13.850	1063.516	802.124
37.082	13.812	1062.804	801.330
38.096	13.794	1062.167	800.691
39.111	13.713	1061.480	799.714
40.126	13.765	1060.320	799.017
41.140	13.618	1059.643	797.729
42.155	13.792	1058.016	797.270
43.169	13.619	1057.665	796.104
44.184	13.659	1056.615	795.436
45.199	13.597	1055.518	794.244
46.213	13.638	1054.206	793.382
47.228	13.791	1053.054	793.176
48.242	13.770	1052.063	792.257
49.257	13.743	1051.277	791.469
50.271	13.735	1050.488	790.767
51.286	13.800	1049.286	790.099
52.301	13.765	1048.257	789.089
53.315	13.692	1048.174	788.610
54.330	13.661	1047.324	787.754
55.344	13.627	1046.032	786.551
56.359	13.675	1045.151	786.047
57.374	13.796	1043.965	785.660
58.388	13.743	1043.287	784.828
59.403	13.734	1042.688	784.266
60.417	13.695	1041.966	783.467
61.432	13.662	1041.176	782.649
62.447	13.616	1040.530	781.877
63.461	13.619	1039.880	781.334
64.476	13.662	1038.755	780.619
65.490	13.714	1037.527	779.876
66.505	13.753	1036.765	779.413
67.520	13.641	1036.137	778.350
68.534	13.636	1035.307	777.632
69.549	13.717	1034.565	777.387
70.563	13.761	1033.794	776.945
71.578	13.633	1033.448	776.015
72.593	13.656	1032.429	775.288
73.607	13.676	1031.089	774.309
74.622	13.546	1030.403	773.116
75.636	13.519	1029.548	772.283
76.651	13.612	1028.905	772.166
77.666	13.645	1028.078	771.631
78.680	13.513	1027.466	770.489
79.695	13.578	1026.895	770.295
80.709	13.526	1026.342	769.570
81.724	13.665	1025.600	769.590
82.739	13.657	1024.663	768.781
83.753	13.733	1023.738	768.373
84.768	13.733	1022.965	767.724
85.782	13.695	1022.109	766.840
86.797	13.838	1021.082	766.661
87.812	13.752	1020.436	765.710
88.826	13.771	1019.649	765.137
89.841	13.685	1018.698	763.961
90.855	13.740	1018.235	763.802
91.870	13.857	1017.077	763.402
92.884	13.776	1016.465	762.503
93.899	13.909	1015.534	762.347
94.914	13.826	1015.049	761.536
95.928	13.969	1014.287	761.551
96.943	13.979	1013.506	760.945
97.957	13.935	1012.783	760.132
98.972	13.884	1012.092	759.312
99.987	13.886	1010.750	758.249
101.001	13.784	1010.666	757.650
102.016	13.827	1009.806	757.138
103.030	13.782	1008.579	755.946
104.045	13.905	1007.331	755.502
105.060	13.908	1006.640	754.932
106.074	14.007	1005.433	754.406
107.089	13.812	1004.933	753.081
108.103	13.849	1003.934	752.435
109.118	13.829	1002.751	751.389
110.133	13.774	1001.966	750.487
111.147	13.607	1001.520	749.333
112.162	13.756	1000.477	749.158
113.176	13.916	999.511	749.091
114.191	13.750	998.820	747.757
115.206	13.933	997.711	747.687
116.220	13.719	997.188	746.263
117.235	13.885	996.173	746.184
118.249	13.809	995.079	744.960
119.264	13.820	994.482	744.495
120.279	13.909	993.587	744.157
121.293	13.707	993.006	742.753
122.308	13.824	991.975	742.438
123.322	13.822	990.877	741.544
124.337	13.792	989.605	740.391
125.352	13.823	988.458	739.604
126.366	13.731	987.355	738.305
127.381	13.750	985.964	737.285
128.395	13.770	985.744	737.141
129.410	13.706	984.505	735.867
130.424	13.613	984.117	735.102
131.439	13.626	982.936	734.210
132.454	13.776	981.959	734.078
133.468	13.659	981.670	733.282
134.483	13.789	980.929	733.235
135.497	13.882	980.117	732.975
136.512	13.818	979.259	731.984
137.527	13.950	977.902	731.488
138.541	13.738	977.702	730.340
139.556	13.829	976.806	730.009
140.570	13.956	976.137	730.001
141.585	13.852	975.470	728.980
142.600	13.992	974.510	728.812
143.614	13.918	974.173	728.173
144.629	13.919	973.481	727.596
145.643	14.112	972.464	727.617
146.658	13.932	971.548	726.077
147.673	14.067	970.609	725.904
148.687	14.071	969.620	725.116
149.702	13.951	968.791	723.910
150.716	13.911	968.101	723.154
151.731	13.812	967.337	722.092
152.746	13.833	966.757	721.682
153.760	13.918	965.756	721.243
154.775	13.962	965.023	720.822
155.789	14.016	964.328	720.472
156.804	14.051	963.410	719.875
157.819	14.200	962.186	719.542
158.833	14.148	961.899	719.036
159.848	14.139	961.094	718.335
160.862	14.192	960.558	718.099
161.877	14.200	959.498	717.275
162.892	14.111	958.805	716.312
163.906	14.082	957.861	715.418
164.921	14.044	957.326	714.792
165.935	14.090	955.956	713.904
166.950	14.025	955.362	713.119
167.964	14.172	954.254	712.856
168.979	14.164	953.207	711.979
169.994	14.132	952.330	711.125
171.008	14.195	951.652	710.825
172.023	14.186	950.650	709.972
173.037	14.242	950.236	709.841
174.052	14.220	949.625	709.228
175.067	14.236	948.373	708.299
176.081	14.141	948.307	707.783
177.096	14.148	947.132	706.874
178.110	14.201	946.301	706.413
179.125	14.134	945.662	705.590
180.140	14.273	944.635	705.351
181.154	14.327	944.193	705.188
182.169	14.247	943.781	704.476
183.183	14.335	943.002	704.206
184.198	14.482	941.974	703.995
185.213	14.369	941.170	702.855
186.227	14.407	940.611	702.540
187.242	14.382	940.316	702.151
188.256	14.343	939.618	701.401
189.271	14.453	938.965	701.315
190.286	14.427	938.033	700.450
191.300	14.337	937.317	699.475
192.315	14.289	936.479	698.583
193.329	14.348	935.695	698.188
194.344	14.243	935.129	697.260
195.359	14.308	934.419	696.941
196.373	14.280	934.175	696.582
197.388	14.411	933.865	696.838
198.402	14.482	932.875	696.332
199.417	14.556	932.674	696.431
200.432	14.607	931.890	695.998
201.446	14.598	931.329	695.480
202.461	14.615	930.717	695.030
203.475	14.690	930.555	695.161
204.490	14.733	929.569	694.541
205.504	14.749	928.748	693.932
206.519	14.721	928.161	693.315
207.534	14.511	927.663	692.014
208.548	14.617	926.630	691.620
209.563	14.679	925.786	691.183
210.577	14.698	925.066	690.666
211.592	14.747	924.480	690.370
212.607	14.668	924.255	689.813
213.621	14.839	923.189	689.662
214.636	14.863	922.707	689.340
215.650	14.778	921.922	688.343
216.665	14.785	921.708	688.151
217.680	14.810	921.240	687.842
218.694	14.764	920.782	687.249
219.709	14.908	919.743	687.007
220.723	14.875	919.312	686.487
221.738	14.798	918.460	685.477
222.753	15.001	917.573	685.584
223.767	14.944	916.815	684.724
224.782	15.050	915.918	684.427
225.796	14.925	915.438	683.495
226.811	14.971	914.895	683.220
227.826	14.897	914.465	682.533
228.840	14.947	913.254	681.773
229.855	14.976	912.925	681.586
230.869	14.941	912.211	680.850
231.884	14.999	911.530	680.518
232.899	14.998	910.707	679.839
233.913	15.031	909.920	679.326
234.928	14.964	909.111	678.390
235.942	15.060	908.529	678.286
236.957	14.991	908.089	677.618
237.972	15.012	907.326	677.074
238.986	14.970	906.613	676.311
240.001	15.132	905.712	676.234
241.015	14.971	905.251	675.181
242.030	15.031	904.822	675.043
243.045	14.909	904.210	674.035
244.059	15.083	903.357	674.038
245.074	15.287	902.525	674.178
246.088	15.150	901.769	673.003
247.103	15.107	901.199	672.346
248.117	15.228	900.729	672.424
249.132	15.145	900.328	671.730
250.147	15.314	899.680	671.864
251.161	15.297	898.942	671.187
252.176	15.312	898.313	670.715
253.190	15.343	897.684	670.313
254.205	15.370	896.875	669.755
255.220	15.525	896.085	669.727
256.234	15.483	895.680	669.196
257.249	15.408	894.965	668.303
258.263	15.542	894.364	668.327
259.278	15.420	893.994	667.510
260.293	15.481	893.258	667.141
261.307	15.686	892.523	667.348
262.322	15.671	892.015	666.848
263.336	15.762	891.248	666.577
264.351	15.640	890.823	665.720
265.366	15.694	890.126	665.351
266.380	15.641	889.658	664.734
267.395	15.857	888.518	664.676
268.409	15.731	887.873	663.638
269.424	15.748	887.324	663.235
270.439	15.724	886.387	662.383
271.453	15.720	885.607	661.726
272.468	15.774	884.850	661.311
273.482	15.594	884.510	660.291
274.497	15.621	884.184	660.098
275.512	15.685	883.629	659.876
276.526	15.694	882.498	659.007
277.541	15.770	881.925	658.818
278.555	15.643	881.264	657.769
279.570	15.804	880.702	657.920
280.585	15.694	880.631	657.379
281.599	15.913	879.235	657.135
282.614	16.014	878.597	656.993
283.628	15.822	878.493	656.110
284.643	15.930	877.659	655.849
285.657	15.925	877.023	655.296
286.672	16.051	876.273	655.166
287.687	16.043	875.932	654.825
288.701	16.101	875.382	654.579
289.716	15.939	874.873	653.515
290.730	16.049	874.482	653.590
291.745	15.936	873.656	652.476
292.760	15.918	872.824	651.727
293.774	15.856	872.614	651.274
294.789	16.149	871.571	651.568
295.803	16.053	870.851	650.604
296.818	15.961	870.655	650.042
297.833	15.962	870.086	649.566
298.847	15.987	869.188	648.935
299.862	16.146	868.317	648.837
300.876	16.254	867.658	648.701
301.891	16.244	867.008	648.122
302.906	16.316	866.218	647.751
303.920	16.309	865.455	647.093
304.935	16.259	865.106	646.586
305.949	16.290	864.877	646.475
306.964	16.292	864.401	646.070
307.979	16.302	863.402	645.305
308.993	16.331	862.851	644.947
310.008	16.392	862.047	644.522
311.022	16.257	861.821	643.781
312.037	16.444	860.895	643.745
313.052	16.354	860.598	643.124
314.066	16.391	860.134	642.861
315.081	16.352	859.579	642.240
316.095	16.229	859.027	641.301
317.110	16.429	858.479	641.598
318.125	16.292	857.732	640.461
319.139	16.498	857.221	640.806
320.154	16.397	857.007	640.205
321.168	16.427	856.067	639.560
322.183	16.584	855.127	639.394
323.197	16.467	855.074	638.857
324.212	16.516	854.448	638.516
325.227	16.498	853.998	638.055
326.241	16.549	853.738	637.998
327.256	16.548	852.828	637.258
328.270	16.604	851.877	636.700
329.285	16.643	851.527	636.529
330.300	16.547	851.278	635.925
331.314	16.578	850.850	635.667
332.329	16.616	849.835	634.997
333.343	16.630	849.039	634.395
334.358	16.707	848.677	634.357
335.373	16.711	848.205	633.964
336.387	16.751	847.719	633.693
337.402	16.660	847.228	632.930
338.416	16.593	846.840	632.335
339.431	16.757	846.039	632.293
340.446	16.808	845.256	631.841
341.460	16.720	845.074	631.324
342.475	16.840	844.139	631.013
343.489	16.968	843.458	630.924
344.504	16.893	843.127	630.346
345.519	16.868	842.619	629.816
346.533	16.969	842.074	629.728
347.548	16.953	841.771	629.387
348.562	16.938	841.405	629.000
349.577	16.911	840.466	628.144
350.592	16.796	840.140	627.417
351.606	16.917	839.852	627.594
352.621	16.871	839.285	626.944
353.635	16.846	838.577	626.268
354.650	16.957	838.235	626.368
355.665	16.860	837.980	625.765
356.679	17.033	837.613	626.075
357.694	16.906	837.038	625.119
358.708	16.999	836.538	625.033
359.723	17.028	835.651	624.420
360.738	17.043	835.070	623.986
361.752	16.902	834.871	623.265
362.767	17.103	834.351	623.561
363.781	17.019	833.941	622.891
364.796	17.233	833.090	622.983
365.810	17.107	832.837	622.278
366.825	17.160	832.515	622.177
367.840	17.195	832.094	621.934
368.854	17.310	831.584	621.922
369.869	17.243	831.154	621.299
370.883	17.334	830.442	621.043
371.898	17.250	830.027	620.371
372.913	17.274	828.945	619.597
373.927	17.315	828.734	619.532
374.942	17.191	828.533	618.874
375.956	17.385	827.392	618.675
376.971	17.338	826.696	617.930
377.986	17.434	826.430	618.025
379.000	17.455	825.823	617.592
380.015	17.392	825.486	617.056
381.029	17.400	825.245	616.850
382.044	17.574	824.113	616.579
383.059	17.461	823.663	615.779
384.073	17.490	823.073	615.387
385.088	17.672	822.294	615.409
386.102	17.592	821.973	614.824
387.117	17.571	821.416	614.277
388.132	17.468	821.129	613.637
389.146	17.579	820.731	613.685
390.161	17.496	820.385	613.073
391.175	17.428	820.079	612.549
392.190	17.721	819.298	612.961
393.205	17.672	818.948	612.470
394.219	17.672	818.634	612.182
395.234	17.720	818.029	611.848
396.248	17.668	817.410	611.142
397.263	17.552	816.955	610.335
398.278	17.529	816.859	610.124
399.292	17.546	816.329	609.738
400.307	17.611	815.868	609.570
401.321	17.658	815.555	609.451
402.336	17.723	814.741	609.022
403.350	17.730	814.513	608.823
404.365	17.702	814.502	608.661
405.380	17.739	813.931	608.310
406.394	17.703	813.324	607.677
407.409	17.925	812.148	607.535
408.423	17.883	812.469	607.569
409.438	17.890	811.566	606.864
410.453	17.807	811.718	606.632
411.467	17.889	811.136	606.433
412.482	17.990	810.463	606.237
413.496	17.863	810.049	605.421
414.511	17.861	809.858	605.217
415.526	18.004	809.368	605.306
416.540	18.027	808.890	604.975
417.555	18.052	808.288	604.560
418.569	18.041	807.742	604.058
419.584	18.116	807.123	603.809
420.599	18.066	806.867	603.386
421.613	116.021	1300.089	1492.764
422.628	100.313	1371.879	1492.811
