DTS Sentinel unit serial number:	SN413079Multiplexer serial number:	ORYXHardware model number:	OX4-SRSoftware version number:	ORYX F/W v4.00 Oryx Data Collector v3.7.2.0data status	okinstallation	princeton_trtdifferential loss correction	single-endedforward channel	channel 3reverse channel	N/Adate	2019/09/19time	06:24:34forward acquisition time	60.00reverse acquisition time	0.00gamma	496.2192k internal	0.2348k external	0.2348temperature offset calibration	0.9987default loss term (dB/km)	0.3790temperature slope calibration	1.0000multiplexer offset coefficient	1.0000multiplexer slope coefficient	1.0000fibre end	0.00T internal ref (°C)	19.03T ext. ref 1 (°C)	0.57T ext. ref 2 (°C)	12.77length (m)	temperature (°C)	Stokes	anti-Stokes-747.200	-200.000	-0.039	0.356
-746.185	23.987	-0.097	0.080
-745.171	-135.712	0.141	-0.017
-744.156	72.245	0.065	0.067
-743.142	-157.872	-0.055	0.003
-742.127	-157.489	0.163	-0.010
-741.112	-200.000	0.085	0.579
-740.098	-9.210	-0.199	0.133
-739.083	166.935	-0.166	-0.235
-738.069	-65.216	-0.193	0.078
-737.054	144.927	0.156	0.209
-736.039	-112.649	-0.427	0.085
-735.025	-130.338	0.252	0.034
-734.010	-132.250	0.119	-0.015
-732.996	-57.239	-0.227	-0.100
-731.981	37.896	0.035	0.031
-730.966	-37.743	-0.206	-0.109
-729.952	-145.715	-0.130	0.012
-728.937	-154.178	-0.402	-0.027
-727.923	-200.000	-0.001	-0.270
-726.908	53.296	0.223	-0.214
-725.894	119.079	0.133	0.164
-724.879	-21.383	0.186	-0.113
-723.864	-200.000	0.000	-0.299
-722.850	296.521	0.027	-0.050
-721.835	-68.556	-0.268	0.104
-720.821	70.673	-0.296	0.306
-719.806	-103.120	0.264	0.062
-718.791	-83.639	-0.469	0.149
-717.777	1.469	-0.165	0.118
-716.762	-9.445	-0.243	0.162
-715.748	-160.986	0.240	-0.013
-714.733	-48.514	0.171	0.082
-713.718	-134.238	-0.403	-0.050
-712.704	800.000	0.051	0.191
-711.689	800.000	-0.040	-0.134
-710.675	31.545	-0.126	0.108
-709.660	-144.155	-0.122	-0.011
-708.645	-142.844	-0.116	0.011
-707.631	129.408	0.201	-0.257
-706.616	1.526	0.331	-0.238
-705.602	7.431	0.237	0.177
-704.587	-37.503	-0.089	0.047
-703.572	78.632	0.119	-0.127
-702.558	115.237	-0.118	0.143
-701.543	800.000	0.041	-0.163
-700.529	302.725	0.148	-0.273
-699.514	231.694	-0.105	0.171
-698.499	90.019	-0.164	-0.182
-697.485	391.497	-0.134	-0.278
-696.470	-75.179	0.477	-0.170
-695.456	85.466	-0.203	-0.222
-694.441	-14.363	-0.076	-0.049
-693.426	65.087	0.265	-0.267
-692.412	-167.418	-0.253	-0.010
-691.397	-78.954	0.049	0.017
-690.383	-200.000	-0.059	-0.316
-689.368	-200.000	0.063	-0.397
-688.354	127.765	0.158	-0.201
-687.339	-136.421	-0.326	-0.038
-686.324	-88.033	0.357	-0.107
-685.310	-164.993	0.100	-0.004
-684.295	-200.000	-0.002	-0.341
-683.281	-161.353	0.419	-0.022
-682.266	-200.000	-0.034	-0.155
-681.251	280.925	-0.130	-0.233
-680.237	6.078	-0.161	0.119
-679.222	321.004	-0.134	0.253
-678.208	-200.000	0.004	0.268
-677.193	-1.855	0.289	0.203
-676.178	-200.000	-0.029	0.191
-675.164	18.983	-0.199	-0.159
-674.149	-157.158	0.068	0.004
-673.135	-200.000	0.016	0.082
-672.120	118.784	0.031	0.038
-671.105	-93.793	-0.213	-0.059
-670.091	11.913	-0.110	-0.085
-669.076	800.000	-0.075	0.259
-668.062	241.270	-0.052	-0.087
-667.047	-120.190	0.182	0.031
-666.032	800.000	0.154	-0.453
-665.018	274.830	0.066	0.116
-664.003	224.548	-0.090	0.145
-662.989	-25.901	0.290	-0.170
-661.974	-110.314	-0.217	0.045
-660.959	230.122	-0.112	-0.183
-659.945	-175.588	-0.235	0.006
-658.930	-112.447	0.109	0.022
-657.916	-105.978	-0.141	0.032
-656.901	419.852	0.147	-0.314
-655.886	-138.487	0.319	-0.035
-654.872	251.167	0.076	-0.128
-653.857	-200.000	-0.006	-0.164
-652.843	800.000	0.058	-0.183
-651.828	38.990	-0.131	0.116
-650.814	688.620	-0.053	0.137
-649.799	-200.000	-0.044	-0.262
-648.784	7.029	-0.097	0.072
-647.770	-133.480	0.069	0.009
-646.755	53.956	0.138	0.132
-645.741	33.249	0.081	-0.070
-644.726	458.279	-0.078	-0.173
-643.711	364.957	0.110	-0.221
-642.697	21.285	-0.306	-0.247
-641.682	-64.601	-0.459	0.185
-640.668	-47.745	-0.046	-0.022
-639.653	-99.534	0.168	0.042
-638.638	800.000	-0.026	-0.096
-637.624	-165.771	0.264	-0.011
-636.609	179.632	-0.104	-0.152
-635.595	103.123	-0.230	0.268
-634.580	-200.000	0.023	0.214
-633.565	-149.251	-0.215	-0.017
-632.551	-200.000	-0.023	-0.351
-631.536	217.266	0.054	0.086
-630.522	67.235	0.131	0.133
-629.507	-200.000	-0.027	0.440
-628.492	686.960	-0.190	-0.494
-627.478	12.637	0.097	0.074
-626.463	69.935	0.220	-0.226
-625.449	63.178	-0.088	0.088
-624.434	-68.062	0.385	0.149
-623.419	15.870	-0.218	0.171
-622.405	-97.078	0.026	-0.007
-621.390	123.370	-0.074	-0.093
-620.376	-121.013	0.233	-0.039
-619.361	-200.000	-0.031	0.281
-618.346	35.344	-0.113	-0.099
-617.332	203.177	-0.162	-0.249
-616.317	-72.657	0.197	0.072
-615.303	-142.057	-0.071	-0.007
-614.288	512.778	0.054	0.124
-613.273	70.110	-0.133	-0.136
-612.259	516.696	0.130	0.302
-611.244	-78.785	0.178	-0.060
-610.230	354.405	-0.098	-0.194
-609.215	-80.856	0.232	-0.077
-608.201	145.102	0.133	0.176
-607.186	-125.267	-0.296	-0.045
-606.171	124.818	-0.278	-0.348
-605.157	800.000	-0.070	-0.278
-604.142	260.993	-0.122	-0.211
-603.128	-200.000	0.049	-0.298
-602.113	-56.127	-0.106	-0.047
-601.098	360.547	-0.055	0.109
-600.084	175.668	-0.183	-0.263
-599.069	-200.000	-0.064	-0.282
-598.055	26.461	0.049	0.041
-597.040	23.747	0.164	-0.134
-596.025	-200.000	-0.001	0.024
-595.011	800.000	0.076	-0.298
-593.996	-200.000	0.040	0.282
-592.982	272.917	0.138	-0.243
-591.967	-78.817	-0.102	-0.035
-590.952	-68.358	-0.227	0.088
-589.938	-200.000	-0.011	0.110
-588.923	98.520	0.146	-0.167
-587.909	-147.426	-0.379	-0.032
-586.894	-200.000	-0.015	0.194
-585.879	112.528	-0.293	0.352
-584.865	55.647	-0.201	-0.193
-583.850	-44.887	0.238	-0.118
-582.836	-36.522	0.193	0.103
-581.821	-200.000	-0.025	0.136
-580.806	-108.860	-0.516	-0.109
-579.792	-200.000	0.003	-0.080
-578.777	-200.000	-0.019	0.141
-577.763	-148.631	0.249	-0.020
-576.748	540.602	-0.139	0.329
-575.733	63.251	0.367	-0.365
-574.719	514.656	-0.146	0.338
-573.704	40.956	-0.115	-0.103
-572.690	-200.000	0.014	0.272
-571.675	217.140	-0.067	-0.106
-570.661	-196.227	0.092	-0.001
-569.646	94.194	-0.085	-0.095
-568.631	22.880	-0.068	0.055
-567.617	77.441	0.070	-0.074
-566.602	-200.000	-0.013	-0.118
-565.588	-78.369	-0.119	0.040
-564.573	237.548	-0.190	-0.313
-563.558	-44.567	0.093	0.046
-562.544	-165.412	-0.370	-0.016
-561.529	107.329	0.251	0.296
-560.515	203.092	-0.114	-0.174
-559.500	6.631	0.158	0.117
-558.485	113.985	0.124	0.150
-557.471	-131.185	0.126	0.017
-556.456	147.827	0.160	0.214
-555.442	-3.266	-0.121	0.084
-554.427	-178.189	-0.373	0.009
-553.412	-148.177	0.179	-0.015
-552.398	16.451	0.211	-0.166
-551.383	-38.486	0.457	-0.240
-550.369	321.044	-0.138	0.260
-549.354	-172.223	-0.093	-0.003
-548.339	-65.469	-0.324	0.129
-547.325	800.000	-0.016	-0.051
-546.310	-200.000	-0.045	-0.309
-545.296	-139.915	-0.133	-0.014
-544.281	-59.545	-0.335	0.143
-543.266	-148.844	0.268	-0.021
-542.252	800.000	0.118	0.372
-541.237	-1.341	0.173	0.121
-540.223	-200.000	0.049	0.293
-539.208	628.196	-0.174	-0.436
-538.193	-98.538	-0.297	0.075
-537.179	800.000	-0.079	0.262
-536.164	-107.269	0.330	-0.072
-535.150	6.822	0.241	0.178
-534.135	143.595	-0.028	-0.036
-533.121	-160.062	-0.371	-0.020
-532.106	-200.000	-0.044	-0.357
-531.091	800.000	-0.067	-0.195
-530.077	800.000	0.101	-0.292
-529.062	-200.000	0.039	-0.208
-528.048	-52.318	0.111	0.051
-527.033	283.448	0.110	0.196
-526.018	279.057	0.142	-0.251
-525.004	277.805	0.076	-0.135
-523.989	81.931	-0.101	0.109
-522.975	800.000	0.038	-0.134
-521.960	-164.825	0.149	0.007
-520.945	32.926	0.148	0.127
-519.931	-164.695	-0.329	-0.015
-518.916	282.195	-0.031	-0.056
-517.902	-200.000	-0.037	0.272
-516.887	52.029	-0.201	-0.190
-515.872	-182.477	-0.144	0.003
-514.858	800.000	0.060	0.164
-513.843	43.847	0.075	-0.068
-512.829	-200.000	-0.038	0.290
-511.814	377.587	-0.035	-0.072
-510.799	532.151	-0.120	0.282
-509.785	-200.000	0.037	-0.193
-508.770	526.720	0.058	-0.135
-507.756	-70.570	-0.356	-0.134
-506.741	5.933	0.210	-0.154
-505.726	26.350	0.081	-0.067
-504.712	-37.359	-0.093	-0.049
-503.697	-68.752	-0.331	-0.127
-502.683	800.000	0.082	-0.277
-501.668	-43.753	0.140	-0.070
-500.653	429.588	0.069	0.148
-499.639	48.371	-0.014	0.013
-498.624	-110.818	-0.170	-0.035
-497.610	238.290	-0.077	-0.126
-496.595	-106.923	0.078	-0.017
-495.581	4.388	0.269	0.195
-494.566	-72.713	-0.438	0.160
-493.551	65.010	0.485	-0.485
-492.537	143.169	-0.116	-0.153
-491.522	-200.000	0.020	0.318
-490.508	-200.000	-0.056	-0.362
-489.493	-24.126	0.220	0.130
-488.478	453.084	-0.123	0.270
-487.464	-96.811	0.261	0.068
-486.449	56.382	-0.057	-0.055
-485.435	128.703	0.166	-0.209
-484.420	45.862	-0.152	0.139
-483.405	-200.000	-0.016	0.188
-482.391	439.278	-0.238	-0.513
-481.376	-86.364	-0.112	-0.034
-480.362	-57.268	0.089	-0.039
-479.347	-200.000	-0.001	-0.135
-478.332	-183.921	-0.304	0.005
-477.318	-13.399	-0.270	0.173
-476.303	-148.541	0.217	0.018
-475.289	147.495	-0.249	-0.331
-474.274	-167.923	-0.429	0.017
-473.259	-200.000	0.023	0.175
-472.245	74.181	-0.177	0.184
-471.230	-101.043	0.273	0.066
-470.216	-160.340	-0.237	0.013
-469.201	-200.000	0.081	-0.416
-468.186	800.000	0.029	0.112
-467.172	127.220	-0.056	-0.070
-466.157	-59.858	-0.330	0.140
-465.143	-132.066	0.192	0.025
-464.128	-91.626	0.210	0.059
-463.113	-95.164	-0.149	-0.040
-462.099	-136.374	-0.424	0.049
-461.084	-42.235	-0.147	-0.074
-460.070	-102.679	-0.055	-0.013
-459.055	189.948	0.199	-0.295
-458.040	-171.710	-0.145	-0.005
-457.026	94.537	-0.193	0.217
-456.011	438.039	0.092	0.197
-454.997	77.591	0.331	0.348
-453.982	-200.000	0.001	0.043
-452.968	-14.441	0.241	-0.154
-451.953	-200.000	0.026	-0.213
-450.938	-200.000	0.061	-0.408
-449.924	-200.000	0.032	-0.222
-448.909	43.326	0.057	0.051
-447.895	-149.313	0.136	0.011
-446.880	636.266	0.101	-0.254
-445.865	505.720	0.027	0.063
-444.851	269.542	0.123	0.214
-443.836	462.637	-0.096	0.212
-442.822	-53.142	0.148	0.067
-441.807	142.420	-0.122	0.160
-440.792	138.313	-0.097	0.126
-439.778	800.000	-0.033	0.133
-438.763	-150.406	-0.200	-0.015
-437.749	229.392	-0.100	-0.161
-436.734	-200.000	-0.043	-0.326
-435.719	90.342	0.205	0.227
-434.705	800.000	0.057	0.180
-433.690	-107.242	0.250	-0.054
-432.676	58.847	0.080	-0.077
-431.661	84.317	-0.075	-0.081
-430.646	-113.840	-0.107	0.021
-429.632	388.345	0.026	0.053
-428.617	-35.054	0.258	0.139
-427.603	61.921	-0.222	-0.218
-426.588	-27.226	0.260	0.149
-425.573	-131.369	-0.253	0.033
-424.559	-200.000	-0.012	0.145
-423.544	68.149	0.139	-0.140
-422.530	-149.493	0.101	-0.008
-421.515	-200.000	0.016	0.090
-420.500	176.755	-0.143	-0.205
-419.486	-22.077	0.221	0.132
-418.471	-151.061	0.231	0.017
-417.457	204.993	0.250	0.383
-416.442	-200.000	-0.001	0.012
-415.428	739.982	-0.026	-0.069
-414.413	-200.000	-0.042	-0.322
-413.398	20.252	0.242	-0.193
-412.384	-114.230	0.072	0.014
-411.369	-72.948	0.291	-0.106
-410.355	-90.408	-0.261	-0.075
-409.340	-200.000	0.032	0.144
-408.325	800.000	-0.026	0.113
-407.311	800.000	-0.073	0.280
-406.296	-95.179	0.329	-0.088
-405.282	-170.361	0.291	-0.010
-404.267	130.524	-0.270	0.342
-403.252	-105.929	-0.327	-0.073
-402.238	-121.972	-0.359	-0.058
-401.223	800.000	0.070	0.223
-400.209	33.413	-0.073	-0.062
-399.194	-99.798	-0.082	0.020
-398.179	-200.000	-0.060	-0.455
-397.165	-76.482	-0.320	0.111
-396.150	-135.368	0.179	-0.021
-395.136	800.000	-0.046	0.179
-394.121	-84.189	-0.107	-0.033
-393.106	-79.647	-0.206	-0.068
-392.092	-70.919	0.275	0.102
-391.077	-200.000	0.056	-0.312
-390.063	-24.856	0.146	0.086
-389.048	43.439	0.257	-0.232
-388.033	581.159	-0.072	0.174
-387.019	-38.197	-0.202	-0.106
-386.004	-200.000	-0.016	0.143
-384.990	-66.838	-0.156	0.061
-383.975	-77.733	0.145	-0.049
-382.960	-200.000	0.017	-0.218
-381.946	52.014	0.137	-0.129
-380.931	-101.004	0.530	0.128
-379.917	-200.000	-0.027	-0.363
-378.902	-136.834	-0.398	0.045
-377.888	-111.935	0.117	-0.023
-376.873	800.000	0.018	0.062
-375.858	26.029	-0.145	-0.119
-374.844	-101.395	0.152	0.036
-373.829	-148.929	-0.398	-0.032
-372.815	162.110	-0.157	0.216
-371.800	152.700	-0.168	-0.227
-370.785	141.472	-0.091	0.118
-369.771	-125.953	0.283	-0.042
-368.756	-200.000	0.017	-0.152
-367.742	-107.230	0.207	-0.045
-366.727	-105.390	0.262	0.059
-365.712	-12.094	0.405	0.261
-364.698	-68.502	-0.134	0.051
-363.683	-200.000	-0.124	-0.622
-362.669	-124.286	-0.181	0.028
-361.654	-179.060	0.344	-0.008
-360.639	-200.000	-0.002	-0.066
-359.625	499.148	-0.145	0.330
-358.610	-132.047	0.318	-0.041
-357.596	800.000	-0.099	0.286
-356.581	106.794	-0.261	-0.305
-355.566	273.815	-0.104	-0.180
-354.552	-132.773	-0.283	0.036
-353.537	-200.000	-0.006	0.092
-352.523	-200.000	-0.005	-0.180
-351.508	10.673	0.113	-0.085
-350.493	-23.438	-0.169	0.100
-349.479	800.000	0.028	-0.119
-348.464	5.712	-0.134	0.097
-347.450	-94.221	-0.126	-0.034
-346.435	-68.982	-0.271	0.103
-345.420	-114.463	0.101	0.019
-344.406	-200.000	-0.050	0.289
-343.391	-200.000	-0.019	0.168
-342.377	-161.292	0.345	-0.018
-341.362	12.734	0.400	-0.304
-340.348	-200.000	0.016	0.165
-339.333	223.270	0.128	-0.202
-338.318	-200.000	-0.081	0.396
-337.304	171.066	-0.148	0.209
-336.289	-34.134	-0.322	0.174
-335.275	206.736	0.278	-0.425
-334.260	53.793	-0.184	-0.173
-333.245	-123.366	0.292	0.046
-332.231	178.334	0.064	0.092
-331.216	517.903	0.088	0.202
-330.202	18.873	-0.058	-0.046
-329.187	-98.431	0.243	-0.061
-328.172	-30.779	-0.061	-0.034
-327.158	800.000	-0.083	0.311
-326.143	-121.094	0.087	0.014
-325.129	248.604	0.211	0.351
-324.114	4.262	-0.114	0.082
-323.099	200.965	-0.276	-0.417
-322.085	800.000	-0.097	0.389
-321.070	-57.648	0.298	0.128
-320.056	54.558	-0.041	0.039
-319.041	486.728	0.079	-0.176
-318.026	-139.054	-0.254	0.027
-317.012	174.793	0.251	0.358
-315.997	545.191	0.066	-0.154
-314.983	51.293	-0.003	-0.003
-313.968	115.078	-0.118	0.141
-312.953	454.809	-0.049	0.108
-311.939	2.406	0.205	0.146
-310.924	-116.723	0.159	-0.029
-309.910	-68.617	0.188	-0.072
-308.895	-200.000	0.049	-0.358
-307.880	-200.000	0.023	0.296
-306.866	210.975	0.125	0.194
-305.851	-200.000	-0.035	-0.391
-304.837	8.875	-0.021	-0.016
-303.822	-200.000	0.007	-0.385
-302.807	151.314	0.175	0.235
-301.793	194.717	0.101	0.151
-300.778	800.000	0.009	0.035
-299.764	800.000	-0.076	-0.226
-298.749	-57.320	0.168	-0.073
-297.735	515.374	-0.164	0.377
-296.720	725.508	-0.068	-0.178
-295.705	-42.146	0.302	-0.152
-294.691	-113.768	-0.059	-0.011
-293.676	440.316	-0.044	0.093
-292.662	294.060	0.100	0.179
-291.647	-106.206	0.028	0.006
-290.632	-112.300	-0.063	0.012
-289.618	592.350	-0.083	-0.200
-288.603	-200.000	0.002	0.239
-287.589	363.927	0.072	-0.142
-286.574	800.000	0.114	0.335
-285.559	205.999	0.052	-0.080
-284.545	269.547	-0.088	0.152
-283.530	-111.364	-0.284	-0.057
-282.516	226.540	-0.142	0.227
-281.501	45.911	-0.284	0.258
-280.486	-200.000	-0.028	0.328
-279.472	-32.206	0.094	0.051
-278.457	291.128	-0.139	-0.248
-277.443	313.174	-0.042	0.078
-276.428	-89.694	-0.145	-0.042
-275.413	-200.000	-0.034	-0.338
-274.399	151.090	0.079	-0.106
-273.384	-97.329	-0.369	0.094
-272.370	700.934	-0.073	0.189
-271.355	-123.595	-0.068	-0.011
-270.340	-123.110	-0.120	0.019
-269.326	-200.000	-0.017	-0.155
-268.311	-111.318	0.261	-0.052
-267.297	226.867	0.243	-0.387
-266.282	702.164	0.030	-0.077
-265.267	-20.455	-0.202	-0.122
-264.253	1.923	-0.282	-0.199
-263.238	62.616	-0.086	0.084
-262.224	171.288	0.085	0.120
-261.209	-18.605	-0.188	-0.115
-260.195	800.000	-0.074	-0.244
-259.180	232.625	0.164	0.264
-258.165	504.545	0.023	-0.052
-257.151	105.803	0.210	0.243
-256.136	-200.000	0.003	-0.173
-255.122	800.000	0.049	-0.203
-254.107	591.976	-0.074	0.179
-253.092	56.167	0.146	-0.139
-252.078	-200.000	0.015	-0.285
-251.063	-88.732	0.175	0.051
-250.049	800.000	-0.036	0.150
-249.034	-21.948	-0.194	-0.116
-248.019	-124.935	-0.230	-0.035
-247.005	-200.000	-0.053	0.253
-245.990	-200.000	-0.073	0.412
-244.976	118.410	-0.173	0.210
-243.961	-200.000	0.002	-0.086
-242.946	-200.000	0.041	0.228
-241.932	800.000	0.156	0.488
-240.917	-120.155	0.193	-0.032
-239.903	88.025	-0.139	0.151
-238.888	128.424	0.167	-0.208
-237.873	276.564	0.064	0.111
-236.859	25.125	0.201	-0.164
-235.844	-120.811	0.147	0.024
-234.830	503.039	-0.088	0.199
-233.815	58.807	0.184	0.177
-232.800	119.059	0.118	0.143
-231.786	96.668	0.208	0.233
-230.771	733.640	0.198	-0.519
-229.757	-126.739	0.459	0.066
-228.742	-134.253	-0.155	-0.019
-227.727	800.000	-0.065	0.197
-226.713	-71.731	0.190	-0.069
-225.698	-20.405	0.098	-0.059
-224.684	44.155	0.233	-0.210
-223.669	-12.501	-0.158	-0.101
-222.655	-101.789	0.414	0.098
-221.640	-82.704	-0.174	-0.055
-220.625	-9.298	0.115	0.075
-219.611	453.053	0.092	-0.199
-218.596	719.548	0.055	0.143
-217.582	-36.363	-0.042	0.022
-216.567	35.057	0.030	-0.025
-215.552	444.772	0.082	-0.176
-214.538	-90.625	0.168	-0.048
-213.523	-103.358	0.287	0.066
-212.509	616.063	0.056	0.137
-211.494	135.020	-0.141	0.179
-210.479	137.642	0.225	0.288
-209.465	-35.966	-0.307	0.162
-208.450	50.278	0.097	-0.090
-207.436	-52.781	-0.384	-0.173
-206.421	-143.909	0.021	0.002
-205.406	-200.000	-0.027	0.128
-204.392	-30.318	0.255	0.142
-203.377	-56.148	0.095	-0.041
-202.363	21.391	0.167	0.133
-201.348	148.079	0.132	0.174
-200.333	-102.213	-0.140	0.033
-199.319	-97.427	0.040	-0.010
-198.304	-200.000	-0.010	0.221
-197.290	-87.405	-0.165	0.049
-196.275	-14.007	0.238	0.150
-195.260	429.076	0.092	-0.195
-194.246	104.654	0.127	0.147
-193.231	200.712	-0.003	-0.005
-192.217	21.569	-0.141	0.112
-191.202	-151.098	-0.199	0.015
-190.187	-67.197	0.131	-0.051
-189.173	-58.578	-0.199	-0.084
-188.158	142.157	-0.029	-0.037
-187.144	800.000	-0.121	-0.387
-186.129	-200.000	-0.010	0.058
-185.114	20.520	-0.143	0.113
-184.100	-125.990	-0.180	0.026
-183.085	47.991	-0.315	-0.287
-182.071	21.456	0.174	0.138
-181.056	-50.301	0.242	0.112
-180.042	-1.239	-0.090	-0.062
-179.027	-200.000	0.040	0.261
-178.012	-200.000	-0.016	-0.220
-176.998	163.899	-0.149	-0.204
-175.983	-132.151	0.169	-0.021
-174.969	382.652	0.103	0.207
-173.954	188.837	-0.107	-0.157
-172.939	0.335	0.158	0.110
-171.925	136.794	0.169	0.216
-170.910	69.312	-0.084	0.085
-169.896	-19.647	0.199	-0.120
-168.881	-42.906	-0.380	0.189
-167.866	-200.000	-0.022	-0.139
-166.852	-44.366	0.101	-0.050
-165.837	-200.000	0.042	0.283
-164.823	478.442	-0.154	0.340
-163.808	-200.000	0.042	-0.290
-162.793	-126.724	0.089	-0.013
-161.779	-200.000	0.049	-0.237
-160.764	227.894	0.038	-0.060
-159.750	800.000	0.079	-0.256
-158.735	-200.000	0.034	0.327
-157.720	-200.000	-0.011	0.129
-156.706	85.360	-0.129	-0.138
-155.691	-200.000	0.120	0.584
-154.677	-39.719	-0.349	-0.178
-153.662	800.000	-0.044	-0.133
-152.647	-166.404	0.124	-0.005
-151.633	-200.000	-0.039	-0.273
-150.618	-127.495	-0.169	0.024
-149.604	-78.352	-0.344	0.115
-148.589	-18.678	-0.203	0.123
-147.574	-107.587	0.220	0.047
-146.560	-133.759	0.333	0.040
-145.545	109.672	0.029	-0.034
-144.531	-61.713	-0.318	-0.130
-143.516	-148.750	0.071	0.006
-142.502	392.239	0.012	0.024
-141.487	206.416	0.037	-0.057
-140.472	196.011	-0.166	0.246
-139.458	13.463	0.124	0.094
-138.443	35.093	0.103	-0.088
-137.429	-73.415	0.163	-0.058
-136.414	-30.932	0.177	-0.098
-135.399	-66.755	0.346	-0.134
-134.385	409.523	-0.042	-0.086
-133.370	800.000	-0.046	0.192
-132.356	-128.547	0.247	0.034
-131.341	-172.093	0.194	0.006
-130.326	64.642	0.232	0.228
-129.312	-42.296	-0.330	0.164
-128.297	44.257	0.276	-0.247
-127.283	338.660	-0.146	0.277
-126.268	-98.609	0.077	-0.019
-125.253	188.221	0.136	0.199
-124.239	-46.789	-0.121	-0.058
-123.224	359.438	-0.167	0.326
-122.210	417.366	0.158	0.330
-121.195	-177.908	0.128	0.003
-120.180	248.081	0.296	0.489
-119.166	355.060	0.053	0.102
-118.151	335.886	0.071	0.134
-117.137	-142.577	0.231	-0.022
-116.122	363.720	-0.156	-0.307
-115.107	800.000	0.077	-0.218
-114.093	7.351	-0.094	0.069
-113.078	-116.551	-0.115	-0.021
-112.064	-200.000	0.047	-0.471
-111.049	-14.142	-0.506	0.318
-110.034	-77.689	0.322	-0.109
-109.020	800.000	0.044	-0.130
-108.005	800.000	-0.053	0.163
-106.991	233.174	0.124	0.198
-105.976	131.139	0.105	0.131
-104.962	38.683	-0.106	-0.092
-103.947	13.716	-0.170	-0.129
-102.932	314.019	-0.143	-0.263
-101.918	-80.706	0.283	-0.092
-100.903	-7.863	-0.236	0.155
-99.889	-134.230	-0.165	-0.020
-98.874	800.000	0.081	-0.247
-97.859	-200.000	0.012	0.189
-96.845	-200.000	-0.065	0.306
-95.830	-200.000	-0.002	-0.235
-94.816	283.855	0.123	-0.215
-93.801	-200.000	0.045	0.401
-92.786	-200.000	0.010	-0.258
-91.772	-51.087	0.078	0.036
-90.757	-25.416	-0.443	-0.255
-89.743	-200.000	-0.037	-0.174
-88.728	-113.853	-0.319	-0.060
-87.713	19.351	-0.065	-0.051
-86.699	-22.812	0.116	0.068
-85.684	-58.324	0.059	-0.025
-84.670	73.033	-0.122	0.124
-83.655	4.746	0.271	-0.194
-82.640	56.985	-0.333	0.316
-81.626	695.194	0.061	0.155
-80.611	-104.918	-0.572	-0.128
-79.597	-200.000	-0.031	-0.510
-78.582	213.096	0.175	0.269
-77.567	-41.846	-0.207	-0.103
-76.553	-200.000	-0.046	0.000
-75.538	-71.362	-0.310	-0.113
-74.524	-200.000	-0.014	0.389
-73.509	800.000	0.063	0.205
-72.494	-126.907	-0.246	0.035
-71.480	-200.000	-0.019	0.281
-70.465	0.374	-0.140	-0.098
-69.451	360.768	0.041	-0.081
-68.436	-79.301	-0.041	-0.013
-67.422	-38.418	-0.188	-0.097
-66.407	22.540	-0.068	0.054
-65.392	-200.000	0.015	0.153
-64.378	31.555	-0.058	0.048
-63.363	71.230	-0.056	-0.057
-62.349	-145.763	0.214	0.019
-61.334	111.877	-1.175	-1.381
-60.319	83.300	0.683	0.724
-59.305	800.000	-0.594	-1.742
-58.290	218.008	0.882	1.369
-57.276	800.000	0.527	1.469
-56.261	-200.000	135.516	627.179
-55.246	346.397	1630.803	3119.861
-54.232	138.926	2766.098	3535.518
-53.217	80.795	2174.737	2280.779
-52.203	28.761	1696.108	1396.927
-51.188	21.952	1521.925	1206.781
-50.173	20.479	1500.852	1180.025
-49.159	43.769	1576.939	1403.740
-48.144	39.604	1587.418	1383.858
-47.130	21.922	1537.252	1218.528
-46.115	19.341	1521.607	1188.315
-45.100	19.070	1518.252	1183.782
-44.086	18.963	1516.069	1181.299
-43.071	18.960	1514.290	1179.847
-42.057	18.972	1513.064	1178.925
-41.042	18.992	1511.378	1177.705
-40.027	18.997	1509.677	1176.365
-39.013	18.972	1507.916	1174.775
-37.998	18.917	1507.328	1173.894
-36.984	18.972	1506.051	1173.228
-35.969	18.976	1504.879	1172.296
-34.954	18.960	1503.460	1171.039
-33.940	18.833	1502.373	1169.276
-32.925	18.927	1501.141	1168.910
-31.911	19.092	1499.059	1168.363
-30.896	19.113	1497.820	1167.494
-29.881	19.042	1496.226	1165.728
-28.867	19.001	1495.582	1164.896
-27.852	18.989	1494.431	1163.875
-26.838	19.118	1492.632	1163.297
-25.823	19.160	1490.654	1161.992
-24.809	19.056	1489.679	1160.490
-23.794	19.061	1488.426	1159.502
-22.779	19.008	1487.465	1158.345
-21.765	19.132	1486.308	1158.235
-20.750	19.070	1484.767	1156.573
-19.736	19.129	1483.693	1156.083
-18.721	19.050	1482.835	1154.841
-17.706	19.123	1481.463	1154.218
-16.692	19.057	1480.799	1153.210
-15.677	19.051	1479.390	1152.024
-14.663	19.098	1478.306	1151.450
-13.648	19.014	1477.620	1150.310
-12.633	18.976	1477.103	1149.607
-11.619	19.019	1476.140	1149.098
-10.604	19.099	1474.777	1148.525
-9.590	19.007	1474.618	1147.746
-8.575	19.129	1473.219	1147.423
-7.560	18.956	1472.966	1146.027
-6.546	19.120	1471.669	1146.065
-5.531	19.060	1470.857	1144.990
-4.517	18.936	1470.023	1143.469
-3.502	19.070	1468.188	1142.883
-2.487	19.096	1467.495	1142.475
-1.473	19.074	1466.437	1141.458
-0.458	19.016	1465.497	1140.295
0.556	17.928	1455.537	1128.515
1.571	14.746	1431.810	1089.305
2.586	11.424	1370.603	1021.875
3.600	9.967	1286.848	950.775
4.615	9.112	1243.820	914.042
5.629	8.250	1187.478	867.874
6.644	4.376	1108.526	790.399
7.659	0.999	1075.349	749.976
8.673	0.586	1070.020	744.156
9.688	0.510	1066.886	741.537
10.702	0.561	1064.970	740.391
11.717	0.624	1062.446	738.878
12.731	1.846	1062.737	744.990
13.746	6.656	1069.322	773.158
14.761	13.077	1077.746	810.801
15.775	16.721	1081.954	831.827
16.790	16.788	1081.336	831.611
17.804	15.829	1079.342	825.301
18.819	14.932	1077.392	819.346
19.834	14.564	1075.778	816.244
20.848	14.361	1074.919	814.531
21.863	14.065	1074.102	812.389
22.877	13.814	1073.298	810.483
23.892	13.579	1072.667	808.792
24.907	13.541	1071.592	807.725
25.921	13.474	1070.982	806.863
26.936	13.481	1070.709	806.622
27.950	13.600	1069.590	806.287
28.965	13.623	1068.956	805.847
29.980	13.762	1067.659	805.476
30.994	13.724	1066.772	804.549
32.009	13.848	1066.391	804.792
33.023	13.875	1065.091	803.871
34.038	13.830	1064.657	803.256
35.053	13.844	1063.414	802.313
36.067	13.714	1063.047	801.340
37.082	13.716	1062.115	800.576
38.096	13.687	1060.939	799.477
39.111	13.709	1060.321	799.045
40.126	13.790	1059.380	798.656
41.140	13.885	1057.831	797.876
42.155	13.670	1057.189	796.288
43.169	13.635	1056.730	795.706
44.184	13.541	1055.597	794.330
45.199	13.582	1054.645	793.740
46.213	13.581	1053.267	792.625
47.228	13.614	1052.470	792.113
48.242	13.734	1050.852	791.400
49.257	13.814	1050.126	791.163
50.271	13.630	1049.682	789.884
51.286	13.639	1048.325	788.832
52.301	13.784	1047.798	789.060
53.315	13.703	1046.803	787.852
54.330	13.655	1046.429	787.275
55.344	13.618	1045.196	786.100
56.359	13.664	1043.926	785.294
57.374	13.607	1043.347	784.520
58.388	13.581	1042.346	783.576
59.403	13.637	1041.636	783.237
60.417	13.695	1040.585	782.652
61.432	13.571	1040.503	781.935
62.447	13.715	1039.397	781.712
63.461	13.431	1039.144	780.116
64.476	13.638	1037.799	780.010
65.490	13.502	1037.049	778.739
66.505	13.732	1036.047	778.996
67.520	13.567	1035.274	777.572
68.534	13.568	1034.718	777.091
69.549	13.617	1033.940	776.667
70.563	13.637	1032.892	775.905
71.578	13.676	1032.111	775.434
72.593	13.549	1031.621	774.402
73.607	13.525	1030.461	773.351
74.622	13.643	1029.295	772.958
75.636	13.585	1028.889	772.312
76.651	13.636	1027.743	771.625
77.666	13.496	1027.273	770.553
78.680	13.575	1026.396	770.194
79.695	13.562	1025.854	769.655
80.709	13.593	1025.293	769.313
81.724	13.541	1024.447	768.366
82.739	13.651	1023.016	767.738
83.753	13.697	1022.699	767.642
84.768	13.709	1021.809	766.963
85.782	13.639	1021.181	766.101
86.797	13.825	1019.890	765.923
87.812	13.696	1019.515	764.979
88.826	13.556	1018.993	763.874
89.841	13.647	1017.668	763.233
90.855	13.724	1016.580	762.704
91.870	13.697	1016.413	762.384
92.884	13.788	1015.484	762.041
93.899	13.887	1014.470	761.666
94.914	13.739	1014.343	760.824
95.928	13.755	1013.619	760.287
96.943	13.952	1012.443	760.238
97.957	13.733	1011.646	758.571
98.972	13.841	1010.762	758.334
99.987	13.830	1009.885	757.558
101.001	13.842	1009.110	756.964
102.016	13.845	1008.376	756.363
103.030	13.891	1007.337	755.725
104.045	13.901	1006.362	754.973
105.060	13.764	1005.653	753.751
106.074	13.812	1004.481	753.024
107.089	13.767	1004.015	752.404
108.103	13.687	1003.074	751.270
109.118	13.657	1001.908	750.191
110.133	13.658	1001.314	749.686
111.147	13.761	1000.250	749.289
112.162	13.730	999.673	748.650
113.176	13.753	998.637	747.915
114.191	13.794	997.839	747.432
115.206	13.813	996.773	746.654
116.220	13.770	996.480	746.176
117.235	13.671	995.845	745.190
118.249	13.697	994.572	744.288
119.264	13.646	993.836	743.441
120.279	13.748	992.651	742.945
121.293	13.758	991.967	742.411
122.308	13.689	991.180	741.451
123.322	13.683	990.037	740.503
124.337	13.568	989.393	739.441
125.352	13.652	987.894	738.630
126.366	13.648	986.961	737.849
127.381	13.635	986.119	737.098
128.395	13.679	984.476	735.998
129.410	13.621	984.018	735.336
130.424	13.588	983.302	734.590
131.439	13.704	982.143	734.172
132.454	13.710	981.188	733.418
133.468	13.774	980.531	733.146
134.483	13.737	980.020	732.535
135.497	13.746	979.518	732.134
136.512	13.802	978.346	731.440
137.527	13.771	977.174	730.363
138.541	13.849	976.575	730.196
139.556	13.832	975.954	729.592
140.570	13.859	975.324	729.174
141.585	13.740	974.443	727.928
142.600	13.805	973.810	727.675
143.614	13.907	973.293	727.671
144.629	13.853	972.069	726.456
145.643	14.059	971.087	726.560
146.658	13.967	970.769	725.855
147.673	13.960	969.564	724.857
148.687	13.937	969.106	724.354
149.702	13.985	967.779	723.506
150.716	13.922	967.266	722.784
151.731	13.749	966.372	721.298
152.746	13.913	965.359	721.191
153.760	13.977	964.803	720.991
154.775	14.041	964.140	720.709
155.789	14.014	963.465	720.023
156.804	13.987	962.382	719.034
157.819	13.961	962.080	718.632
158.833	13.872	961.534	717.776
159.848	13.907	960.598	717.166
160.862	13.992	959.734	716.822
161.877	14.098	958.923	716.612
162.892	14.017	957.852	715.400
163.906	13.951	957.585	714.851
164.921	14.049	956.376	714.306
165.935	13.965	955.475	713.212
166.950	14.016	954.587	712.703
167.964	14.082	953.355	712.003
168.979	14.147	952.285	711.419
169.994	14.079	951.947	710.811
171.008	13.964	950.930	709.497
172.023	14.061	950.209	709.310
173.037	14.013	949.796	708.735
174.052	14.211	948.448	708.513
175.067	14.129	947.846	707.649
176.081	14.083	947.545	707.166
177.096	13.968	946.723	706.001
178.110	14.168	945.380	705.785
179.125	14.318	944.891	705.994
180.140	14.109	944.070	704.432
181.154	14.189	943.403	704.214
182.169	14.020	943.294	703.353
183.183	14.296	941.981	703.479
184.198	14.264	941.338	702.802
185.213	14.267	940.239	701.930
186.227	14.274	940.150	701.831
187.242	14.234	939.797	701.339
188.256	14.285	938.938	700.848
189.271	14.467	937.402	700.407
190.286	14.491	936.986	700.132
191.300	14.261	935.753	698.185
192.315	14.140	935.893	697.719
193.329	14.241	935.206	697.570
194.344	14.378	934.417	697.492
195.359	14.261	933.955	696.597
196.373	14.337	933.168	696.268
197.388	14.349	932.495	695.752
198.402	14.475	931.968	695.826
199.417	14.475	931.547	695.450
200.432	14.465	930.936	694.888
201.446	14.555	930.568	694.928
202.461	14.639	930.099	694.867
203.475	14.558	930.118	694.481
204.490	14.744	928.408	693.915
205.504	14.695	927.793	693.190
206.519	14.550	927.388	692.227
207.534	14.551	926.283	691.345
208.548	14.469	926.069	690.785
209.563	14.604	925.272	690.687
210.577	14.412	924.795	689.474
211.592	14.516	923.719	689.041
212.607	14.767	922.915	689.416
213.621	14.669	923.079	689.076
214.636	14.787	921.565	688.370
215.650	14.783	921.198	688.018
216.665	14.658	920.585	686.984
217.680	14.798	920.159	687.181
218.694	14.812	919.742	686.866
219.709	14.828	919.223	686.484
220.723	14.917	918.200	686.025
221.738	14.846	917.326	685.020
222.753	14.743	916.703	684.074
223.767	14.820	916.395	684.096
224.782	14.908	915.366	683.628
225.796	14.852	914.631	682.792
226.811	14.835	913.938	682.141
227.826	14.867	913.193	681.658
228.840	14.907	912.367	681.141
229.855	14.908	911.722	680.606
230.869	14.875	911.634	680.346
231.884	14.902	910.529	679.569
232.899	15.002	909.533	679.174
233.913	14.948	908.827	678.366
234.928	14.965	908.310	677.990
235.942	14.898	907.800	677.275
236.957	14.948	907.135	676.925
237.972	14.881	906.501	676.120
238.986	14.881	906.035	675.710
240.001	15.035	905.201	675.651
241.015	14.982	904.346	674.741
242.030	15.046	903.808	674.535
243.045	15.089	903.022	674.065
244.059	15.050	902.367	673.358
245.074	15.089	901.942	673.137
246.088	15.109	901.008	672.463
247.103	15.129	900.568	672.152
248.117	15.114	900.108	671.690
249.132	15.067	899.626	671.086
250.147	15.194	898.884	670.979
251.161	15.292	898.040	670.683
252.176	15.255	897.264	669.897
253.190	15.379	896.486	669.750
254.205	15.333	895.900	669.070
255.220	15.307	895.507	668.612
256.234	15.428	894.398	668.209
257.249	15.477	894.132	668.144
258.263	15.534	893.201	667.617
259.278	15.610	892.761	667.533
260.293	15.439	892.760	666.793
261.307	15.444	891.540	665.841
262.322	15.683	890.877	666.235
263.336	15.691	890.213	665.711
264.351	15.614	889.745	664.997
265.366	15.595	889.401	664.608
266.380	15.623	888.591	664.052
267.395	15.796	887.565	663.910
268.409	15.767	887.126	663.410
269.424	15.523	886.749	662.108
270.439	15.692	885.486	661.768
271.453	15.603	885.072	661.050
272.468	15.679	884.359	660.758
273.482	15.558	883.622	659.676
274.497	15.688	883.269	659.863
275.512	15.767	882.174	659.298
276.526	15.590	881.731	658.215
277.541	15.616	881.286	657.924
278.555	15.725	880.527	657.727
279.570	15.761	879.689	657.184
280.585	15.893	878.943	657.083
281.599	15.908	878.614	656.838
282.614	15.953	878.151	656.607
283.628	15.727	877.601	655.260
284.643	15.797	876.979	655.008
285.657	15.835	876.448	654.704
286.672	15.956	875.945	654.741
287.687	15.978	875.073	654.115
288.701	16.027	874.551	653.857
289.716	16.025	873.797	653.227
290.730	15.987	873.423	652.743
291.745	15.752	872.842	651.339
292.760	15.927	872.080	651.390
293.774	15.987	871.693	651.277
294.789	16.011	870.836	650.672
295.803	16.186	870.144	650.773
296.818	16.076	869.459	649.777
297.833	16.003	868.761	648.917
298.847	16.055	868.140	648.597
299.862	16.002	867.670	647.986
300.876	15.975	867.374	647.603
301.891	16.247	865.964	647.536
302.906	16.100	865.722	646.735
303.920	16.307	864.697	646.703
304.935	16.297	864.124	646.180
305.949	16.245	863.602	645.534
306.964	16.131	863.317	644.827
307.979	16.168	862.830	644.550
308.993	16.091	862.461	643.923
310.008	16.180	862.050	643.896
311.022	16.290	861.242	643.656
312.037	16.169	861.058	643.002
313.052	16.327	859.788	642.598
314.066	16.374	859.420	642.443
315.081	16.319	858.575	641.547
316.095	16.328	857.970	641.072
317.110	16.147	857.901	640.278
318.125	16.297	856.959	640.085
319.139	16.270	856.886	639.871
320.154	16.271	856.152	639.270
321.168	16.374	855.603	639.194
322.183	16.333	855.027	638.551
323.197	16.350	854.442	638.122
324.212	16.570	853.428	638.137
325.227	16.510	853.086	637.600
326.241	16.513	852.565	637.164
327.256	16.442	851.824	636.287
328.270	16.459	851.454	636.018
329.285	16.459	851.128	635.721
330.300	16.343	850.664	634.883
331.314	16.512	849.749	634.778
332.329	16.573	849.203	634.541
333.343	16.319	848.919	633.322
334.358	16.569	847.943	633.472
335.373	16.615	847.329	633.131
336.387	16.625	846.947	632.825
337.402	16.693	846.298	632.538
338.416	16.593	845.887	631.804
339.431	16.680	845.346	631.669
340.446	16.788	844.724	631.549
341.460	16.738	843.969	630.742
342.475	16.747	843.633	630.470
343.489	16.770	843.295	630.246
344.504	16.857	842.582	629.980
345.519	16.852	842.222	629.637
346.533	16.795	841.717	628.993
347.548	17.004	840.773	629.005
348.562	16.810	840.328	627.898
349.577	16.916	839.709	627.772
350.592	16.723	839.491	626.842
351.606	16.893	838.830	626.922
352.621	16.903	838.423	626.597
353.635	16.990	837.751	626.361
354.650	16.878	837.360	625.600
355.665	16.861	837.114	625.298
356.679	16.879	836.782	625.060
357.694	16.966	836.193	624.886
358.708	16.896	835.526	624.075
359.723	17.036	834.776	623.973
360.738	17.016	834.768	623.841
361.752	16.995	833.951	623.097
362.767	17.164	833.207	623.106
363.781	17.075	833.053	622.609
364.796	17.053	832.787	622.277
365.810	17.304	831.754	622.367
366.825	17.131	831.762	621.684
367.840	17.131	831.713	621.591
368.854	17.254	831.247	621.638
369.869	17.261	830.479	621.035
370.883	17.217	829.855	620.353
371.898	17.189	829.242	619.738
372.913	17.278	828.681	619.589
373.927	17.250	827.932	618.871
374.942	17.384	827.199	618.757
375.956	17.387	826.656	618.308
376.971	17.312	826.282	617.698
377.986	17.402	825.591	617.456
379.000	17.335	825.199	616.865
380.015	17.476	824.735	616.973
381.029	17.438	824.135	616.333
382.044	17.496	823.314	615.874
383.059	17.479	822.924	615.465
384.073	17.579	822.068	615.133
385.088	17.404	822.150	614.509
386.102	17.425	821.387	613.958
387.117	17.502	821.018	613.905
388.132	17.437	820.383	613.144
389.146	17.352	820.399	612.796
390.161	17.436	819.755	612.560
391.175	17.522	819.350	612.513
392.190	17.451	818.906	611.872
393.205	17.581	818.755	612.173
394.219	17.496	818.053	611.288
395.234	17.563	817.397	610.986
396.248	17.457	816.808	610.109
397.263	17.513	816.673	610.155
398.278	17.416	816.203	609.405
399.292	17.506	815.625	609.241
400.307	17.574	815.577	609.393
401.321	17.481	815.084	608.641
402.336	17.506	814.315	608.098
403.350	17.585	813.953	608.058
404.365	17.681	813.316	607.872
405.380	17.608	813.361	607.591
406.394	17.651	812.898	607.344
407.409	17.638	811.949	606.536
408.423	17.825	811.613	606.897
409.438	17.785	811.293	606.461
410.453	17.860	810.752	606.271
411.467	17.856	810.276	605.843
412.482	17.862	810.004	605.611
413.496	17.948	809.289	605.328
414.511	17.784	809.085	604.539
415.526	17.942	808.619	604.698
416.540	17.918	808.571	604.521
417.555	17.846	807.902	603.714
418.569	17.823	807.480	603.266
419.584	17.906	806.823	603.012
420.599	18.096	806.065	603.061
421.613	115.980	1300.370	1493.313
422.628	100.244	1372.335	1493.365
