DTS Sentinel unit serial number:	SN413079Multiplexer serial number:	ORYXHardware model number:	OX4-SRSoftware version number:	ORYX F/W v4.00 Oryx Data Collector v3.7.2.0data status	okinstallation	princeton_trtdifferential loss correction	single-endedforward channel	channel 3reverse channel	N/Adate	2019/09/12time	13:58:11forward acquisition time	60.00reverse acquisition time	0.00gamma	496.2192k internal	0.2293k external	0.2293temperature offset calibration	1.0057default loss term (dB/km)	0.3790temperature slope calibration	1.0000multiplexer offset coefficient	1.0000multiplexer slope coefficient	1.0000fibre end	0.00T internal ref (°C)	40.67T ext. ref 1 (°C)	2.20T ext. ref 2 (°C)	34.06length (m)	temperature (°C)	Stokes	anti-Stokes-747.200	-165.366	0.236	-0.011
-746.185	-65.439	-0.241	-0.099
-745.171	-42.156	0.169	0.088
-744.156	-200.000	0.031	0.159
-743.142	222.159	0.073	-0.120
-742.127	-119.354	0.133	-0.024
-741.112	800.000	0.030	-0.087
-740.098	-200.000	-0.038	0.215
-739.083	18.825	0.134	-0.110
-738.069	800.000	0.082	0.244
-737.054	-95.550	-0.181	0.050
-736.039	800.000	0.048	0.173
-735.025	800.000	0.049	0.160
-734.010	800.000	0.039	-0.146
-732.996	-200.000	0.038	-0.344
-731.981	800.000	-0.087	-0.262
-730.966	800.000	-0.082	0.328
-729.952	136.661	-0.184	-0.246
-728.937	43.059	-0.177	0.165
-727.923	-16.006	-0.475	-0.309
-726.908	-40.144	-0.147	0.078
-725.894	48.776	-0.124	-0.119
-724.879	185.015	-0.113	-0.172
-723.864	-18.936	-0.202	-0.128
-722.850	-200.000	-0.295	0.000
-721.835	-2.384	0.230	-0.165
-720.821	48.306	0.168	0.160
-719.806	272.593	-0.103	0.185
-718.791	166.671	-0.193	-0.280
-717.777	-148.509	0.066	0.006
-716.762	1.824	-0.169	-0.125
-715.748	-52.474	-0.314	-0.148
-714.733	-177.385	-0.138	-0.003
-713.718	-34.142	-0.241	-0.136
-712.704	800.000	0.018	0.079
-711.689	-200.000	-0.003	0.060
-710.675	16.950	-0.258	0.209
-709.660	-200.000	0.074	0.518
-708.645	354.644	-0.125	0.254
-707.631	-40.482	-0.201	0.106
-706.616	220.034	0.195	-0.319
-705.602	595.945	-0.147	-0.372
-704.587	193.344	0.133	0.205
-703.572	-200.000	-0.067	-0.397
-702.558	-37.397	0.261	-0.143
-701.543	-130.862	-0.465	-0.064
-700.529	11.305	-0.194	-0.152
-699.514	430.407	0.145	0.322
-698.499	-200.000	0.005	0.256
-697.485	-200.000	0.015	0.116
-696.470	93.761	0.258	-0.299
-695.456	-131.386	0.101	0.014
-694.441	190.989	-0.214	-0.328
-693.426	-200.000	-0.084	-0.380
-692.412	-200.000	-0.036	-0.264
-691.397	800.000	0.052	0.154
-690.383	-47.264	0.103	-0.051
-689.368	310.391	0.194	0.370
-688.354	106.106	-0.279	-0.338
-687.339	40.714	0.161	0.148
-686.324	139.821	0.200	-0.269
-685.310	800.000	-0.069	-0.306
-684.295	-133.197	-0.335	0.043
-683.281	372.009	-0.063	0.130
-682.266	-56.296	-0.158	0.072
-681.251	-54.667	-0.411	0.190
-680.237	89.073	0.141	0.161
-679.222	-139.388	0.154	-0.017
-678.208	-24.639	-0.041	-0.025
-677.193	-64.637	0.036	-0.015
-676.178	-200.000	-0.009	-0.050
-675.164	10.619	-0.066	0.051
-674.149	278.348	-0.112	0.203
-673.135	207.630	0.061	0.096
-672.120	207.033	0.207	0.330
-671.105	-70.976	0.307	-0.118
-670.091	113.757	0.082	0.102
-669.076	-30.573	-0.319	0.184
-668.062	367.909	0.070	0.144
-667.047	-32.482	0.328	0.186
-666.032	9.603	-0.088	0.068
-665.018	81.175	-0.237	0.261
-664.003	-54.930	-0.245	0.113
-662.989	-50.996	0.210	-0.101
-661.974	-187.396	-0.166	-0.002
-660.959	171.078	-0.016	-0.023
-659.945	6.824	-0.124	-0.094
-658.930	-200.000	-0.003	0.030
-657.916	447.203	-0.038	-0.086
-656.901	-82.093	0.207	-0.069
-655.886	-74.999	0.131	-0.048
-654.872	-138.576	-0.118	-0.013
-653.857	56.341	-0.087	-0.086
-652.843	-73.608	-0.164	0.061
-651.828	-72.156	-0.184	0.070
-650.814	-38.611	-0.075	0.040
-649.799	381.879	-0.045	0.093
-648.784	-7.918	0.225	-0.155
-647.770	104.642	-0.214	-0.257
-646.755	-65.789	-0.368	0.150
-645.741	-139.438	-0.255	-0.028
-644.726	-82.970	0.132	0.043
-643.711	585.341	-0.126	-0.315
-642.697	8.288	-0.187	-0.143
-641.682	106.951	-0.159	-0.193
-640.668	-125.796	0.469	-0.072
-639.653	800.000	-0.031	0.112
-638.638	-200.000	0.016	0.150
-637.624	-144.990	0.267	-0.025
-636.609	-200.000	0.012	-0.125
-635.595	-135.619	-0.148	-0.018
-634.580	-200.000	-0.001	0.312
-633.565	137.792	-0.022	-0.030
-632.551	32.718	0.245	-0.216
-631.536	200.623	0.229	-0.359
-630.522	-200.000	0.053	-0.265
-629.507	160.668	0.185	-0.263
-628.492	-80.113	-0.123	0.042
-627.478	-112.489	0.297	0.060
-626.463	-53.108	-0.372	0.174
-625.449	-200.000	-0.007	-0.045
-624.434	7.586	0.046	-0.035
-623.419	-144.696	-0.407	-0.038
-622.405	-159.902	0.212	-0.012
-621.390	6.083	0.120	-0.091
-620.376	-130.444	-0.151	0.021
-619.361	254.335	0.189	-0.330
-618.346	83.162	-0.343	-0.381
-617.332	29.638	-0.208	-0.180
-616.317	-19.878	0.299	-0.188
-615.303	-200.000	0.014	-0.287
-614.288	-48.930	-0.278	-0.136
-613.273	51.537	-0.239	-0.232
-612.259	-150.651	-0.081	0.006
-611.244	-200.000	0.061	0.303
-610.230	616.634	0.172	0.439
-609.215	-75.927	-0.237	0.085
-608.201	-118.759	-0.444	-0.080
-607.186	-11.872	0.114	0.076
-606.171	-113.545	-0.107	0.021
-605.157	7.995	0.219	0.167
-604.142	398.322	-0.172	0.367
-603.128	-200.000	0.030	-0.284
-602.113	0.303	0.349	0.254
-601.098	149.327	-0.107	-0.147
-600.084	86.260	0.113	-0.127
-599.069	-31.526	-0.143	0.082
-598.055	-5.891	0.059	0.041
-597.040	-200.000	0.000	-0.007
-596.025	-73.997	-0.420	0.155
-595.011	-45.751	0.350	-0.176
-593.996	-200.000	-0.023	-0.119
-592.982	-99.709	0.267	-0.068
-591.967	88.631	-0.269	0.305
-590.952	267.355	-0.213	0.378
-589.938	-89.136	-0.128	-0.038
-588.923	800.000	0.095	0.295
-587.909	-161.039	0.321	0.017
-586.894	73.642	0.140	-0.150
-585.879	322.100	-0.144	0.280
-584.865	95.361	-0.044	-0.051
-583.850	56.685	0.168	-0.167
-582.836	-153.577	0.280	-0.020
-581.821	-70.588	0.056	-0.021
-580.806	96.774	0.099	0.116
-579.792	35.709	-0.071	-0.064
-578.777	134.056	0.029	-0.038
-577.763	-200.000	-0.019	-0.266
-576.748	-27.933	-0.151	-0.089
-575.733	-143.988	0.299	0.029
-574.719	58.104	-0.180	0.179
-573.704	5.130	-0.122	0.091
-572.690	-200.000	0.021	0.124
-571.675	22.384	-0.146	-0.121
-570.661	122.859	0.149	-0.189
-569.646	-117.830	0.230	-0.042
-568.631	417.809	-0.025	-0.055
-567.617	-65.582	-0.095	-0.039
-566.602	-113.213	-0.465	-0.093
-565.588	189.979	-0.071	-0.109
-564.573	670.844	0.086	-0.226
-563.558	-200.000	-0.044	0.243
-562.544	241.886	0.248	0.421
-561.529	800.000	-0.066	0.272
-560.515	92.626	0.215	-0.246
-559.500	-18.876	-0.115	-0.073
-558.485	-200.000	0.005	0.056
-557.471	-35.916	-0.381	-0.209
-556.456	-89.120	-0.261	-0.078
-555.442	232.303	-0.218	0.363
-554.427	55.980	0.253	0.250
-553.412	-19.338	0.198	0.125
-552.398	-51.778	0.222	-0.105
-551.383	-200.000	0.060	-0.301
-550.369	-200.000	-0.018	0.416
-549.354	800.000	-0.057	-0.236
-548.339	-143.887	-0.227	-0.022
-547.325	800.000	0.085	0.312
-546.310	19.666	0.125	-0.102
-545.296	135.762	-0.123	-0.163
-544.281	285.918	-0.067	0.122
-543.266	-44.753	-0.065	0.033
-542.252	-60.813	-0.028	-0.012
-541.237	-39.602	0.065	0.034
-540.223	109.953	-0.155	0.189
-539.208	-131.870	-0.482	0.064
-538.193	-200.000	0.004	-0.045
-537.179	-128.381	0.373	0.054
-536.164	800.000	-0.115	0.387
-535.150	-200.000	-0.078	0.392
-534.135	-200.000	-0.035	-0.156
-533.121	305.189	-0.188	-0.354
-532.106	312.401	0.037	-0.070
-531.091	-81.211	0.181	0.061
-530.077	-71.594	-0.103	-0.039
-529.062	-135.535	-0.335	-0.040
-528.048	320.470	0.159	0.307
-527.033	-77.470	0.186	0.066
-526.018	444.648	0.048	-0.107
-525.004	86.954	-0.122	-0.136
-523.989	-200.000	-0.023	-0.165
-522.975	-69.510	0.197	-0.077
-521.960	123.148	-0.063	0.080
-520.945	-5.790	0.207	-0.144
-519.931	222.484	-0.104	-0.169
-518.916	800.000	-0.059	-0.184
-517.902	-29.284	-0.275	-0.160
-516.887	-200.000	-0.006	-0.059
-515.872	383.105	0.156	0.326
-514.858	578.331	0.058	-0.145
-513.843	-200.000	0.050	-0.251
-512.829	-200.000	0.011	0.100
-511.814	-15.550	0.342	-0.221
-510.799	-67.186	0.370	0.148
-509.785	723.057	-0.108	0.293
-508.770	-25.019	0.060	-0.036
-507.756	-200.000	0.005	0.047
-506.741	127.044	0.063	-0.081
-505.726	-167.100	0.188	-0.008
-504.712	800.000	0.015	-0.068
-503.697	-200.000	0.014	0.088
-502.683	-200.000	0.023	0.249
-501.668	-27.236	0.239	0.141
-500.653	62.893	-0.215	-0.219
-499.639	270.960	0.118	0.211
-498.624	-146.215	-0.243	-0.022
-497.610	-86.402	0.356	-0.111
-496.595	-121.745	0.420	0.070
-495.581	85.254	0.011	-0.012
-494.566	-84.490	-0.232	-0.074
-493.551	6.440	-0.064	0.048
-492.537	153.489	0.184	-0.256
-491.522	355.866	-0.104	-0.210
-490.508	85.931	0.063	-0.070
-489.493	93.042	0.074	-0.084
-488.478	128.947	-0.185	0.239
-487.464	-4.669	0.263	-0.184
-486.449	114.987	-0.100	0.124
-485.435	-143.474	-0.139	-0.013
-484.420	351.678	-0.151	-0.304
-483.405	114.589	0.107	0.132
-482.391	-5.504	0.062	-0.043
-481.376	12.755	0.154	0.120
-480.362	666.510	-0.096	-0.251
-479.347	-200.000	-0.204	0.001
-478.332	206.224	-0.080	0.126
-477.318	310.745	0.217	0.412
-476.303	800.000	0.103	0.357
-475.289	285.311	0.156	0.284
-474.274	9.109	-0.121	-0.093
-473.259	223.946	0.148	0.243
-472.245	356.032	-0.029	-0.059
-471.230	-54.107	0.156	0.072
-470.216	-200.000	0.014	0.114
-469.201	118.610	-0.398	-0.498
-468.186	-31.858	-0.232	0.132
-467.172	100.146	0.123	0.144
-466.157	-200.000	0.030	-0.325
-465.143	-200.000	-0.049	-0.297
-464.128	-200.000	-0.009	0.301
-463.113	-59.731	-0.065	0.028
-462.099	-149.728	-0.194	0.015
-461.084	-108.926	0.459	-0.099
-460.070	800.000	0.063	-0.212
-459.055	-134.524	-0.230	0.028
-458.040	-135.641	-0.111	-0.013
-457.026	-80.345	-0.408	0.138
-456.011	-87.598	0.035	0.011
-454.997	-75.139	0.181	-0.065
-453.982	-107.436	0.134	-0.030
-452.968	159.210	0.135	0.190
-451.953	-200.000	-0.030	0.244
-450.938	532.861	-0.110	-0.265
-449.924	-171.912	-0.197	-0.006
-448.909	21.664	-0.093	-0.076
-447.895	-70.931	0.123	-0.047
-446.880	-200.000	0.027	0.179
-445.865	-40.219	-0.237	-0.125
-444.851	414.860	-0.157	0.338
-443.836	800.000	0.081	-0.232
-442.822	64.804	0.115	-0.118
-441.807	-200.000	0.002	0.159
-440.792	214.594	0.177	-0.284
-439.778	-12.248	0.109	0.072
-438.763	-173.388	0.065	-0.002
-437.749	-200.000	-0.016	-0.193
-436.734	-67.782	-0.223	-0.088
-435.719	247.914	0.208	0.356
-434.705	-70.151	-0.288	-0.111
-433.690	800.000	-0.072	0.218
-432.676	113.063	-0.076	0.093
-431.661	-159.677	-0.412	0.023
-430.646	16.513	0.158	0.126
-429.632	-200.000	-0.044	-0.444
-428.617	388.821	-0.037	0.078
-427.603	34.645	0.205	0.181
-426.588	-109.557	0.431	0.092
-425.573	-200.000	-0.012	-0.126
-424.559	507.384	-0.028	0.065
-423.544	-46.889	-0.324	0.160
-422.530	80.140	-0.035	-0.038
-421.515	800.000	0.032	0.094
-420.500	-87.070	-0.238	0.073
-419.486	-71.722	0.355	0.134
-418.471	88.075	-0.254	0.285
-417.457	-200.000	-0.044	0.256
-416.442	-200.000	0.014	-0.070
-415.428	800.000	0.080	0.246
-414.413	-170.222	0.086	0.003
-413.398	-109.050	-0.180	0.039
-412.384	-109.572	0.142	-0.030
-411.369	-32.171	0.108	-0.061
-410.355	-49.263	0.066	-0.032
-409.340	-17.907	0.298	0.189
-408.325	29.011	-0.047	0.040
-407.311	-143.521	-0.166	-0.016
-406.296	19.345	-0.109	-0.089
-405.282	476.979	-0.089	0.203
-404.267	-200.000	0.062	0.544
-403.252	22.432	-0.211	0.175
-402.238	140.982	-0.109	-0.146
-401.223	-135.340	-0.098	-0.012
-400.209	-59.673	0.327	-0.141
-399.194	-1.070	-0.087	-0.062
-398.179	-83.654	0.398	-0.128
-397.165	31.249	-0.191	0.165
-396.150	-50.832	0.331	0.157
-395.136	107.409	-0.120	-0.144
-394.121	-200.000	-0.034	-0.165
-393.106	-64.960	0.297	0.121
-392.092	-39.066	-0.304	0.161
-391.077	-44.346	0.178	0.090
-390.063	157.098	0.278	0.388
-389.048	-40.392	-0.032	-0.017
-388.033	-25.765	-0.204	0.121
-387.019	-141.871	0.172	-0.017
-386.004	552.357	-0.083	0.201
-384.990	-40.693	0.321	0.168
-383.975	-135.953	-0.184	-0.022
-382.960	260.259	-0.043	0.075
-381.946	800.000	-0.037	-0.124
-380.931	124.852	-0.180	-0.228
-379.917	-200.000	0.009	0.493
-378.902	-13.664	-0.085	-0.056
-377.888	678.286	0.042	-0.111
-376.873	280.137	0.027	0.049
-375.858	800.000	-0.036	0.133
-374.844	-22.969	0.135	0.082
-373.829	-200.000	0.004	0.167
-372.815	-42.780	-0.151	0.077
-371.800	-58.065	0.171	0.075
-370.785	363.505	0.051	-0.104
-369.771	-5.267	0.040	0.027
-368.756	483.197	-0.056	-0.129
-367.742	-91.202	0.181	0.052
-366.727	-41.061	0.325	0.170
-365.712	132.848	-0.105	0.136
-364.698	-124.045	0.242	0.038
-363.683	17.099	-0.100	0.080
-362.669	-126.764	-0.217	0.032
-361.654	-128.472	-0.087	-0.013
-360.639	568.810	-0.021	-0.053
-359.625	253.720	-0.107	-0.184
-358.610	-105.980	0.353	-0.080
-357.596	800.000	-0.142	-0.510
-356.581	168.611	-0.089	0.128
-355.566	-163.288	0.270	0.013
-354.552	4.994	-0.222	-0.165
-353.537	84.882	0.166	-0.184
-352.523	-107.940	0.158	-0.035
-351.508	378.542	-0.156	0.322
-350.493	170.957	0.122	-0.176
-349.479	-200.000	-0.008	-0.151
-348.464	-200.000	-0.009	0.362
-347.450	-132.179	-0.550	-0.072
-346.435	-69.674	0.322	0.124
-345.420	800.000	-0.034	0.097
-344.406	-200.000	-0.021	0.227
-343.391	-129.005	-0.256	0.036
-342.377	-86.585	-0.383	0.118
-341.362	124.729	0.116	-0.147
-340.348	220.661	0.178	0.288
-339.333	800.000	0.075	-0.283
-338.318	143.299	0.063	-0.084
-337.304	-40.664	0.166	-0.086
-336.289	-200.000	0.028	-0.325
-335.275	-91.212	0.096	-0.028
-334.260	231.420	0.182	-0.301
-333.245	555.294	-0.094	-0.228
-332.231	-42.253	-0.332	-0.171
-331.216	309.509	-0.059	-0.112
-330.202	-0.261	0.075	0.053
-329.187	-141.546	-0.190	-0.019
-328.172	119.157	-0.204	-0.254
-327.158	29.094	-0.074	0.063
-326.143	-200.000	-0.026	-0.365
-325.129	-195.784	0.192	-0.001
-324.114	-64.761	0.261	-0.106
-323.099	800.000	-0.061	0.255
-322.085	-114.228	0.092	-0.018
-321.070	1.602	-0.147	-0.106
-320.056	-59.470	-0.212	-0.092
-319.041	-106.414	0.134	-0.030
-318.026	-9.116	-0.205	-0.138
-317.012	-200.000	0.009	0.206
-315.997	-82.141	0.223	-0.073
-314.983	149.542	-0.277	-0.378
-313.968	-112.850	-0.078	-0.016
-312.953	156.215	0.140	0.195
-311.939	-37.712	-0.327	0.175
-310.924	-121.181	0.109	0.018
-309.910	-121.208	-0.241	-0.041
-308.895	-72.257	-0.291	-0.109
-307.880	-54.007	0.136	-0.062
-306.866	591.884	-0.125	-0.309
-305.851	217.153	0.067	-0.108
-304.837	800.000	-0.092	0.286
-303.822	-103.432	0.069	-0.016
-302.807	-200.000	-0.036	-0.169
-301.793	221.755	0.031	-0.050
-300.778	365.506	-0.138	0.280
-299.764	-114.388	0.318	0.062
-298.749	79.451	0.094	-0.102
-297.735	90.825	0.090	-0.102
-296.720	-12.938	-0.215	-0.141
-295.705	-61.127	0.174	0.074
-294.691	-33.316	-0.186	0.104
-293.676	-174.473	0.266	-0.008
-292.662	-91.311	-0.322	0.093
-291.647	-60.202	-0.056	0.024
-290.632	-155.092	0.204	0.013
-289.618	800.000	0.135	-0.526
-288.603	184.819	0.113	-0.168
-287.589	33.301	0.098	0.085
-286.574	31.079	0.241	-0.208
-285.559	-19.433	-0.040	0.025
-284.545	-6.294	0.353	-0.242
-283.530	-29.866	-0.155	0.089
-282.516	-82.614	-0.274	-0.089
-281.501	-86.714	-0.140	0.043
-280.486	-148.629	0.057	0.005
-279.472	44.819	-0.243	0.225
-278.457	130.363	0.260	0.335
-277.443	38.942	0.174	-0.156
-276.428	435.731	-0.118	0.258
-275.413	14.353	0.200	0.157
-274.399	-73.509	0.210	0.077
-273.384	800.000	-0.025	-0.107
-272.370	-200.000	0.037	-0.332
-271.355	-91.074	-0.152	-0.044
-270.340	17.933	-0.065	0.052
-269.326	551.219	-0.091	-0.220
-268.311	2.143	0.228	-0.166
-267.297	800.000	-0.054	0.220
-266.282	607.862	-0.054	0.135
-265.267	-136.279	0.455	0.053
-264.253	-200.000	-0.061	0.435
-263.238	-187.533	-0.136	0.002
-262.224	-200.000	-0.005	-0.396
-261.209	-60.909	-0.204	-0.087
-260.195	269.077	0.037	-0.065
-259.180	-33.731	-0.258	-0.143
-258.165	-97.345	0.058	0.015
-257.151	-200.000	0.344	0.001
-256.136	324.372	-0.150	0.288
-255.122	112.888	-0.148	0.180
-254.107	135.361	0.138	0.180
-253.092	-107.901	-0.339	-0.074
-252.078	72.396	-0.301	-0.315
-251.063	605.624	0.156	-0.390
-250.049	265.731	0.206	-0.361
-249.034	-139.612	0.086	0.009
-248.019	-115.148	-0.251	-0.048
-247.005	800.000	0.047	0.148
-245.990	-141.274	-0.191	-0.019
-244.976	613.925	-0.054	-0.135
-243.961	-49.861	-0.275	0.131
-242.946	-19.047	-0.111	-0.069
-241.932	-50.596	-0.193	0.091
-240.917	-67.556	0.213	0.084
-239.903	-42.597	0.118	-0.060
-238.888	-55.705	-0.099	0.044
-237.873	-200.000	-0.062	0.484
-236.859	-21.146	0.157	0.096
-235.844	-131.878	0.054	-0.007
-234.830	-115.561	0.277	0.052
-233.815	-106.973	-0.079	0.018
-232.800	800.000	0.058	0.180
-231.786	-150.843	0.218	0.017
-230.771	-25.236	-0.330	0.196
-229.757	310.606	-0.107	-0.201
-228.742	-115.585	0.123	-0.023
-227.727	-185.000	0.154	-0.002
-226.713	480.932	0.119	0.272
-225.698	-28.815	0.075	-0.043
-224.684	-147.999	0.140	-0.012
-223.669	-11.134	0.267	-0.177
-222.655	-200.000	-0.008	0.184
-221.640	95.570	0.088	0.101
-220.625	59.432	-0.063	-0.062
-219.611	137.425	-0.180	-0.236
-218.596	-172.987	0.070	-0.002
-217.582	-16.680	0.098	-0.062
-216.567	800.000	0.018	-0.073
-215.552	-138.045	-0.214	0.024
-214.538	-117.753	0.027	0.005
-213.523	289.884	0.060	0.109
-212.509	-19.228	0.261	0.162
-211.494	3.510	-0.378	0.276
-210.479	440.214	0.091	0.200
-209.465	325.945	-0.028	0.054
-208.450	-200.000	0.000	0.168
-207.436	157.973	-0.068	-0.095
-206.421	-87.774	-0.154	-0.047
-205.406	101.163	-0.262	-0.306
-204.392	261.896	-0.122	0.213
-203.377	-170.284	-0.120	0.004
-202.363	596.366	0.069	-0.171
-201.348	-48.317	-0.232	0.112
-200.333	-200.000	-0.061	-0.278
-199.319	-52.999	0.212	0.098
-198.304	74.869	-0.102	0.107
-197.290	-59.831	-0.365	0.157
-196.275	-111.832	0.228	-0.046
-195.260	-200.000	-0.014	-0.319
-194.246	800.000	-0.049	-0.213
-193.231	-200.000	-0.004	0.421
-192.217	-31.200	-0.085	-0.048
-191.202	386.937	0.176	0.364
-190.187	502.632	-0.051	-0.117
-189.173	46.622	0.282	0.262
-188.158	-200.000	0.016	-0.431
-187.144	-200.000	-0.062	-0.434
-186.129	-200.000	-0.020	-0.265
-185.114	-92.146	0.237	-0.067
-184.100	33.504	0.105	-0.092
-183.085	245.551	0.169	-0.285
-182.071	386.920	-0.046	-0.095
-181.056	13.465	0.082	0.063
-180.042	-200.000	0.072	-0.348
-179.027	12.447	-0.109	0.084
-178.012	-49.064	-0.287	-0.138
-176.998	205.987	-0.150	-0.233
-175.983	800.000	0.034	0.142
-174.969	800.000	-0.076	-0.212
-173.954	113.953	0.071	0.086
-172.939	-47.312	0.125	-0.061
-171.925	800.000	-0.081	-0.264
-170.910	63.343	-0.088	0.088
-169.896	-103.489	0.271	0.064
-168.881	-122.879	0.054	0.009
-167.866	92.410	-0.052	-0.059
-166.852	-46.326	-0.291	0.143
-165.837	452.499	0.154	0.341
-164.823	800.000	0.042	0.150
-163.808	-6.616	0.251	0.171
-162.793	72.403	0.084	0.088
-161.779	266.051	0.033	0.057
-160.764	-123.785	0.266	-0.042
-159.750	-122.829	-0.231	-0.037
-158.735	-9.391	-0.287	0.192
-157.720	-142.137	0.325	0.032
-156.706	-48.444	0.304	-0.146
-155.691	437.703	0.141	0.307
-154.677	800.000	0.061	-0.234
-153.662	-200.000	0.001	0.033
-152.647	800.000	0.053	0.189
-151.633	-94.532	-0.129	0.035
-150.618	-200.000	0.036	0.160
-149.604	-200.000	-0.023	0.323
-148.589	-20.541	0.108	0.066
-147.574	338.063	0.060	0.116
-146.560	96.313	-0.240	0.274
-145.545	182.261	-0.075	-0.110
-144.531	-200.000	0.163	0.000
-143.516	-112.671	0.385	0.076
-142.502	-66.528	-0.120	-0.048
-141.487	88.412	0.160	0.178
-140.472	64.383	0.203	0.205
-139.458	27.323	0.133	0.112
-138.443	-75.214	0.194	-0.069
-137.429	78.541	0.264	0.282
-136.414	58.542	0.124	-0.122
-135.399	109.144	0.168	0.201
-134.385	129.313	-0.156	0.200
-133.370	-19.454	0.145	-0.090
-132.356	341.966	0.055	0.108
-131.341	18.780	-0.165	-0.132
-130.326	-200.000	0.031	0.323
-129.312	-200.000	-0.021	-0.278
-128.297	-200.000	0.070	0.378
-127.283	375.048	-0.103	0.210
-126.268	-96.390	0.319	-0.084
-125.253	-107.730	-0.175	-0.038
-124.239	-53.064	0.295	-0.136
-123.224	128.626	0.186	-0.236
-122.210	0.784	-0.310	0.222
-121.195	69.989	-0.090	0.093
-120.180	18.157	0.191	-0.152
-119.166	-43.196	-0.414	-0.209
-118.151	-200.000	0.021	0.180
-117.137	96.800	0.038	0.044
-116.122	253.893	-0.081	-0.138
-115.107	696.699	-0.031	0.080
-114.093	-200.000	-0.003	0.043
-113.078	76.370	-0.112	0.118
-112.064	-167.444	-0.058	0.002
-111.049	-50.344	-0.103	0.048
-110.034	108.482	-0.236	0.281
-109.020	13.521	-0.281	-0.217
-108.005	-53.368	0.147	0.067
-106.991	-18.948	-0.080	0.049
-105.976	14.730	-0.067	-0.052
-104.962	8.443	0.280	0.210
-103.947	556.481	-0.024	0.058
-102.932	800.000	-0.036	0.122
-101.918	237.503	-0.083	-0.137
-100.903	64.221	0.015	-0.015
-99.889	-107.173	0.549	0.121
-98.874	171.719	-0.058	-0.082
-97.859	777.135	0.123	-0.336
-96.845	-200.000	-0.003	-0.269
-95.830	265.804	0.082	0.143
-94.816	-200.000	0.000	0.172
-93.801	400.551	0.069	0.144
-92.786	-200.000	0.006	0.029
-91.772	15.365	-0.100	0.079
-90.757	-200.000	-0.012	0.124
-89.743	-41.275	0.276	0.142
-88.728	-0.714	0.124	0.088
-87.713	-93.381	0.157	-0.043
-86.699	121.577	-0.065	-0.081
-85.684	74.629	-0.148	0.155
-84.670	32.273	-0.069	0.059
-83.655	462.461	0.104	-0.231
-82.640	-57.398	-0.235	-0.103
-81.626	800.000	0.032	-0.094
-80.611	-200.000	-0.062	0.441
-79.597	-138.300	-0.171	-0.019
-78.582	800.000	-0.035	0.126
-77.567	-135.446	0.182	0.022
-76.553	-6.072	-0.186	-0.127
-75.538	-200.000	-0.013	0.288
-74.524	-125.920	-0.132	0.020
-73.509	800.000	0.062	0.194
-72.494	-1.424	0.182	0.128
-71.480	339.114	0.039	0.075
-70.465	-66.633	-0.217	-0.086
-69.451	-31.049	0.204	0.115
-68.436	-200.000	-0.030	-0.161
-67.422	-20.794	-0.164	-0.100
-66.407	-185.646	-0.184	-0.003
-65.392	-68.492	-0.123	0.048
-64.378	554.557	0.117	-0.280
-63.363	16.482	-0.344	-0.271
-62.349	-200.000	0.019	0.198
-61.334	31.427	-0.830	-0.711
-60.319	15.180	0.410	0.320
-59.305	800.000	-0.226	-0.874
-58.290	151.829	0.391	0.531
-57.276	365.829	0.894	1.795
-56.261	-200.000	77.197	512.136
-55.246	511.234	1327.995	3078.920
-54.232	147.908	2552.943	3428.878
-53.217	114.925	2243.471	2725.927
-52.203	51.039	1772.360	1673.766
-51.188	43.984	1572.883	1435.604
-50.173	41.402	1543.004	1390.305
-49.159	57.278	1580.272	1535.939
-48.144	62.982	1600.294	1595.483
-47.130	44.614	1563.383	1431.137
-46.115	41.026	1549.178	1393.014
-45.100	40.802	1545.856	1388.407
-44.086	40.835	1543.065	1386.069
-43.071	40.683	1541.148	1383.236
-42.057	40.558	1539.631	1380.951
-41.042	40.510	1538.558	1379.598
-40.027	40.572	1536.701	1378.308
-39.013	40.745	1534.349	1377.348
-37.998	40.538	1534.092	1375.624
-36.984	40.609	1532.768	1374.873
-35.969	40.656	1531.332	1373.859
-34.954	40.686	1529.813	1372.647
-33.940	40.607	1528.483	1370.854
-32.925	40.616	1526.798	1369.351
-31.911	40.681	1525.394	1368.483
-30.896	40.714	1524.110	1367.509
-29.881	40.770	1522.457	1366.354
-28.867	40.837	1520.978	1365.435
-27.852	40.817	1519.859	1364.236
-26.838	40.803	1518.179	1362.580
-25.823	40.742	1516.806	1360.876
-24.809	40.690	1515.161	1358.986
-23.794	40.690	1513.607	1357.541
-22.779	40.707	1512.723	1356.810
-21.765	40.710	1511.394	1355.583
-20.750	40.799	1509.739	1354.654
-19.736	40.682	1509.295	1353.407
-18.721	40.695	1507.676	1351.987
-17.706	40.694	1506.684	1351.034
-16.692	40.608	1505.330	1349.186
-15.677	40.740	1504.488	1349.272
-14.663	40.658	1502.811	1347.159
-13.648	40.561	1502.677	1346.326
-12.633	40.693	1501.179	1345.827
-11.619	40.683	1500.577	1345.162
-10.604	40.660	1499.984	1344.427
-9.590	40.627	1499.026	1343.292
-8.575	40.535	1498.118	1341.799
-7.560	40.622	1497.061	1341.385
-6.546	40.561	1496.044	1340.013
-5.531	40.653	1495.173	1339.798
-4.517	40.652	1494.274	1338.932
-3.502	40.530	1493.618	1337.469
-2.487	40.612	1492.570	1337.028
-1.473	40.638	1491.700	1336.377
-0.458	40.681	1489.307	1334.463
0.556	41.065	1479.893	1323.026
1.571	37.577	1451.681	1274.890
2.586	33.003	1388.665	1190.685
3.600	30.977	1303.952	1105.948
4.615	29.205	1255.788	1054.866
5.629	24.702	1197.455	981.127
6.644	13.119	1105.352	846.551
7.659	3.954	1058.435	765.384
8.673	2.588	1052.057	753.990
9.688	2.162	1049.660	750.112
10.702	1.967	1047.971	747.883
11.717	2.094	1046.251	747.213
12.731	5.550	1050.318	767.007
13.746	16.155	1065.905	830.812
14.761	24.420	1076.365	879.820
15.775	25.760	1076.999	886.867
16.790	25.860	1076.526	886.892
17.804	25.663	1075.472	884.979
18.819	25.434	1074.785	883.208
19.834	25.605	1074.088	883.399
20.848	25.717	1073.544	883.420
21.863	25.675	1073.789	883.339
22.877	25.678	1073.242	882.825
23.892	25.737	1072.009	882.020
24.907	25.592	1071.279	880.634
25.921	25.608	1071.019	880.419
26.936	25.627	1070.179	879.745
27.950	25.641	1068.608	878.443
28.965	25.690	1067.308	877.535
29.980	25.437	1066.202	875.316
30.994	25.442	1065.057	874.323
32.009	25.579	1064.484	874.441
33.023	25.828	1063.568	874.822
34.038	25.656	1062.772	873.255
35.053	25.634	1061.846	872.309
36.067	25.700	1061.055	871.902
37.082	25.626	1060.764	871.228
38.096	25.653	1059.862	870.543
39.111	25.887	1059.157	871.014
40.126	25.984	1058.228	870.641
41.140	25.847	1056.874	868.793
42.155	25.542	1055.512	866.127
43.169	25.222	1054.300	863.515
44.184	25.240	1053.312	862.715
45.199	25.246	1052.778	862.229
46.213	25.237	1051.393	860.975
47.228	25.329	1050.297	860.446
48.242	25.458	1049.768	860.555
49.257	25.491	1049.010	860.011
50.271	25.500	1048.829	859.832
51.286	25.674	1048.065	859.959
52.301	25.801	1047.346	859.903
53.315	25.822	1046.220	859.002
54.330	25.586	1045.845	857.492
55.344	25.525	1044.913	856.359
56.359	25.569	1043.960	855.713
57.374	25.535	1043.404	855.023
58.388	25.476	1042.271	853.737
59.403	25.465	1041.542	853.013
60.417	25.377	1041.056	852.122
61.432	25.317	1039.912	850.825
62.447	25.300	1039.469	850.305
63.461	25.354	1039.177	850.249
64.476	25.432	1037.961	849.548
65.490	25.344	1036.859	848.155
66.505	25.306	1036.037	847.226
67.520	25.434	1035.283	847.140
68.534	25.261	1035.294	846.257
69.549	25.350	1033.785	845.367
70.563	24.993	1032.543	842.599
71.578	24.738	1032.278	841.107
72.593	24.981	1031.313	841.388
73.607	24.765	1030.120	839.327
74.622	24.843	1028.788	838.535
75.636	24.927	1028.385	838.526
76.651	25.247	1027.708	839.394
77.666	25.136	1026.933	838.169
78.680	25.003	1025.968	836.686
79.695	25.133	1025.255	836.636
80.709	25.161	1024.661	836.210
81.724	25.221	1024.032	835.904
82.739	25.236	1023.217	835.232
83.753	25.251	1022.747	834.846
84.768	25.538	1022.044	835.533
85.782	25.736	1021.807	836.182
86.797	26.034	1020.572	836.480
87.812	25.953	1019.868	835.455
88.826	25.733	1019.098	833.729
89.841	25.771	1018.106	833.020
90.855	25.868	1017.328	832.757
91.870	25.887	1016.802	832.344
92.884	26.004	1015.452	831.703
93.899	25.776	1014.667	829.939
94.914	25.721	1013.674	828.798
95.928	25.806	1012.845	828.436
96.943	25.755	1012.276	827.664
97.957	25.354	1011.527	825.139
98.972	25.216	1010.258	823.396
99.987	25.065	1009.172	821.746
101.001	25.188	1008.209	821.453
102.016	25.619	1007.935	823.129
103.030	25.580	1007.180	822.262
104.045	25.552	1006.236	821.290
105.060	25.371	1004.683	819.123
106.074	25.217	1003.531	817.410
107.089	25.138	1003.161	816.679
108.103	25.489	1002.831	817.933
109.118	25.763	1002.143	818.545
110.133	25.323	1000.894	815.454
111.147	25.332	999.671	814.426
112.162	25.308	998.702	813.457
113.176	25.026	997.710	811.301
114.191	24.986	996.944	810.427
115.206	25.338	995.856	811.058
116.220	24.937	994.963	808.450
117.235	24.803	994.347	807.274
118.249	24.954	993.570	807.253
119.264	25.018	992.744	806.799
120.279	24.882	991.860	805.395
121.293	24.917	991.054	804.830
122.308	25.015	990.475	804.728
123.322	25.111	989.316	804.144
124.337	25.033	988.396	802.975
125.352	24.914	986.962	801.206
126.366	24.476	985.390	797.903
127.381	24.143	984.388	795.533
128.395	24.733	984.148	797.902
129.410	25.382	984.210	800.779
130.424	25.487	983.354	800.478
131.439	25.430	982.516	799.472
132.454	25.354	981.674	798.376
133.468	25.469	980.783	798.093
134.483	25.375	980.338	797.242
135.497	25.566	979.022	796.947
136.512	25.694	978.916	797.358
137.527	25.718	978.400	796.974
138.541	25.796	976.908	796.034
139.556	25.625	976.711	795.046
140.570	25.849	975.473	794.959
141.585	25.746	975.017	794.060
142.600	25.910	974.241	794.080
143.614	25.831	972.974	792.630
144.629	25.808	972.684	792.223
145.643	26.125	971.767	792.797
146.658	25.932	971.016	791.268
147.673	25.801	969.301	789.230
148.687	25.667	968.575	787.979
149.702	25.646	967.509	786.953
150.716	25.536	966.696	785.742
151.731	25.451	965.555	784.374
152.746	25.569	964.551	784.001
153.760	25.865	963.908	784.701
154.775	25.925	963.643	784.674
155.789	25.948	962.796	784.014
156.804	25.888	962.011	783.046
157.819	25.875	960.701	781.856
158.833	25.829	960.164	781.148
159.848	26.000	959.421	781.214
160.862	25.983	958.351	780.201
161.877	25.885	957.672	779.155
162.892	25.650	956.702	777.282
163.906	25.871	956.001	777.601
164.921	25.757	955.068	776.281
165.935	25.754	953.850	775.209
166.950	25.795	952.713	774.393
167.964	26.098	952.021	775.063
168.979	25.980	950.939	773.608
169.994	25.838	949.769	771.978
171.008	25.601	948.988	770.258
172.023	25.790	948.223	770.378
173.037	26.005	947.420	770.576
174.052	25.823	946.250	768.781
175.067	25.662	945.548	767.454
176.081	25.582	944.563	766.248
177.096	25.716	943.901	766.215
178.110	25.664	943.140	765.306
179.125	25.524	942.134	763.828
180.140	25.236	941.023	761.637
181.154	25.225	940.356	760.982
182.169	25.371	940.068	761.302
183.183	25.632	939.649	762.002
184.198	25.891	939.530	762.935
185.213	25.780	938.760	761.772
186.227	25.678	937.667	760.385
187.242	25.850	937.353	760.792
188.256	25.905	936.795	760.503
189.271	25.839	936.162	759.643
190.286	25.974	935.068	759.256
191.300	25.734	934.464	757.691
192.315	25.390	933.104	755.073
193.329	24.425	931.583	749.723
194.344	23.996	930.478	746.970
195.359	24.460	930.966	749.241
196.373	25.533	930.870	753.598
197.388	25.747	931.048	754.573
198.402	25.766	929.955	753.699
199.417	25.662	929.810	753.082
200.432	25.892	929.098	753.400
201.446	25.784	928.312	752.244
202.461	25.391	927.666	750.014
203.475	25.324	927.494	749.528
204.490	25.061	925.926	747.098
205.504	23.955	923.873	740.774
206.519	24.102	924.016	741.434
207.534	25.069	924.258	745.589
208.548	25.394	923.296	746.095
209.563	25.703	923.158	747.201
210.577	25.778	922.603	746.997
211.592	25.434	921.679	744.758
212.607	25.855	921.539	746.322
213.621	25.984	921.232	746.541
214.636	26.009	920.294	745.820
215.650	25.861	919.714	744.672
216.665	25.987	918.711	744.314
217.680	25.940	918.860	744.175
218.694	26.040	918.522	744.248
219.709	25.804	917.309	742.226
220.723	25.364	916.601	739.776
221.738	25.428	916.342	739.764
222.753	25.811	915.687	740.745
223.767	25.680	914.916	739.517
224.782	25.890	913.946	739.531
225.796	25.933	913.702	739.443
226.811	26.122	913.193	739.741
227.826	25.686	911.694	736.677
228.840	24.856	910.103	731.934
229.855	24.704	909.744	730.961
230.869	24.964	909.376	731.661
231.884	24.717	908.399	729.802
232.899	24.686	908.004	729.295
233.913	25.352	908.527	732.365
234.928	25.681	907.674	732.953
235.942	25.635	907.051	732.200
236.957	25.569	906.416	731.354
237.972	25.389	905.290	729.650
238.986	25.263	904.657	728.565
240.001	25.398	904.165	728.651
241.015	25.436	903.377	728.104
242.030	25.400	903.140	727.702
243.045	25.572	902.531	727.846
244.059	25.681	902.082	727.859
245.074	25.871	901.536	728.121
246.088	25.749	901.111	727.223
247.103	25.512	899.745	725.099
248.117	25.549	898.815	724.433
249.132	26.034	899.473	726.854
250.147	26.391	899.180	727.991
251.161	26.502	898.361	727.710
252.176	26.570	898.021	727.645
253.190	26.701	897.520	727.699
254.205	26.556	897.256	726.839
255.220	26.787	896.594	727.164
256.234	26.802	895.949	726.638
257.249	26.887	894.901	726.064
258.263	26.614	894.451	724.543
259.278	26.617	893.739	723.916
260.293	26.528	893.721	723.479
261.307	26.708	892.666	723.281
262.322	26.579	892.237	722.354
263.336	26.514	891.651	721.555
264.351	26.131	890.520	719.050
265.366	24.997	888.263	712.656
266.380	24.552	887.242	710.006
267.395	25.521	887.795	714.239
268.409	26.202	887.827	716.904
269.424	26.259	886.835	716.265
270.439	26.315	886.555	716.201
271.453	26.380	886.280	716.171
272.468	26.453	885.195	715.519
273.482	26.595	884.905	715.782
274.497	26.819	884.621	716.376
275.512	26.383	883.782	713.911
276.526	26.008	882.351	711.214
277.541	26.033	881.836	710.833
278.555	26.488	881.865	712.589
279.570	26.135	881.285	710.666
280.585	26.108	880.385	709.771
281.599	26.156	880.159	709.716
282.614	26.370	879.364	709.851
283.628	25.954	878.115	707.150
284.643	25.507	877.594	704.916
285.657	25.857	877.490	706.141
286.672	25.847	876.884	705.552
287.687	25.377	875.527	702.558
288.701	25.538	875.677	703.246
289.716	25.942	875.632	704.727
290.730	25.908	874.264	703.431
291.745	25.661	873.417	701.724
292.760	25.421	872.966	700.365
293.774	25.460	872.074	699.739
294.789	26.281	873.085	703.688
295.803	26.922	872.783	705.878
296.818	26.977	872.375	705.700
297.833	27.112	871.615	705.545
298.847	26.820	870.479	703.431
299.862	26.469	869.360	701.106
300.876	26.622	869.517	701.763
301.891	26.955	868.963	702.543
302.906	27.026	868.634	702.489
303.920	26.622	867.238	699.737
304.935	26.533	866.498	698.734
305.949	26.901	866.669	700.232
306.964	27.078	865.830	700.173
307.979	26.597	865.206	697.754
308.993	26.575	864.694	697.195
310.008	26.843	864.869	698.305
311.022	27.032	864.392	698.587
312.037	27.014	863.413	697.664
313.052	26.705	862.764	695.892
314.066	26.519	861.998	694.497
315.081	25.879	860.471	690.752
316.095	25.057	859.209	686.533
317.110	25.617	859.579	688.914
318.125	26.556	859.613	692.474
319.139	26.167	858.594	690.103
320.154	25.039	856.870	684.354
321.168	24.593	855.816	681.749
322.183	25.222	856.097	684.313
323.197	26.134	856.721	688.228
324.212	26.519	856.058	689.103
325.227	26.659	855.896	689.442
326.241	26.881	855.362	689.795
327.256	26.610	855.387	688.726
328.270	26.549	854.219	687.493
329.285	26.450	853.575	686.536
330.300	26.244	852.890	685.143
331.314	26.015	851.861	683.389
332.329	26.114	851.307	683.260
333.343	26.522	851.370	684.792
334.358	26.870	851.006	685.756
335.373	26.818	850.392	685.005
336.387	26.769	849.823	684.301
337.402	27.033	849.621	685.073
338.416	27.239	849.530	685.715
339.431	27.262	848.398	684.829
340.446	27.254	848.008	684.422
341.460	27.478	847.634	684.902
342.475	27.463	847.049	684.313
343.489	27.176	846.154	682.451
344.504	27.144	845.760	681.955
345.519	27.386	845.539	682.621
346.533	27.593	845.116	682.996
347.548	27.635	844.661	682.725
348.562	27.620	844.634	682.587
349.577	27.637	843.911	682.008
350.592	27.636	843.405	681.534
351.606	27.483	842.790	680.405
352.621	27.484	842.051	679.751
353.635	27.366	841.673	678.946
354.650	27.443	840.869	678.526
355.665	27.162	839.963	676.688
356.679	26.031	838.308	671.090
357.694	25.778	837.587	669.511
358.708	26.525	837.787	672.388
359.723	26.570	837.226	672.047
360.738	26.712	836.998	672.330
361.752	27.088	837.166	673.803
362.767	27.302	836.602	674.081
363.781	27.562	836.581	674.968
364.796	27.799	836.094	675.390
365.810	27.916	836.017	675.704
366.825	28.017	835.507	675.604
367.840	27.938	835.542	675.280
368.854	27.825	834.422	673.898
369.869	27.440	833.370	671.571
370.883	27.102	832.882	669.871
371.898	27.289	832.743	670.390
372.913	27.407	831.461	669.734
373.927	27.249	830.864	668.612
374.942	27.509	830.628	669.318
375.956	27.543	829.893	668.791
376.971	27.611	829.371	668.560
377.986	27.680	829.206	668.622
379.000	27.911	828.555	668.884
380.015	27.985	828.062	668.696
381.029	27.663	827.628	667.108
382.044	27.675	826.737	666.378
383.059	27.924	826.278	666.856
384.073	27.983	825.595	666.461
385.088	28.094	824.962	666.295
386.102	28.114	824.699	666.098
387.117	27.795	823.739	664.103
388.132	27.756	822.974	663.286
389.146	27.352	822.814	661.630
390.161	26.911	821.750	659.111
391.175	26.951	821.414	658.930
392.190	27.468	821.596	660.894
393.205	27.631	820.946	660.905
394.219	26.717	819.076	656.034
395.234	24.974	816.992	648.005
396.248	24.084	815.986	643.932
397.263	25.186	816.733	648.451
398.278	26.867	818.397	655.800
399.292	27.491	817.983	657.663
400.307	27.125	817.454	655.861
401.321	27.018	817.471	655.427
402.336	27.161	816.949	655.469
403.350	27.624	816.453	656.679
404.365	28.072	816.054	657.912
405.380	28.285	816.311	658.828
406.394	28.554	815.840	659.357
407.409	28.663	815.932	659.764
408.423	28.548	815.281	658.769
409.438	28.607	814.348	658.168
410.453	28.549	814.259	657.828
411.467	28.737	813.321	657.685
412.482	28.633	813.167	657.133
413.496	28.531	812.586	656.238
414.511	28.661	812.505	656.581
415.526	28.572	812.118	655.891
416.540	28.575	811.666	655.477
417.555	28.463	810.732	654.265
418.569	28.311	810.327	653.339
419.584	28.239	809.808	652.608
420.599	28.441	809.025	652.638
421.613	96.218	1265.726	1380.795
422.628	82.687	1332.314	1380.930
