DTS Sentinel unit serial number:	SN413079Multiplexer serial number:	ORYXHardware model number:	OX4-SRSoftware version number:	ORYX F/W v4.00 Oryx Data Collector v3.7.2.0data status	okinstallation	princeton_trtdifferential loss correction	single-endedforward channel	channel 3reverse channel	N/Adate	2019/09/15time	11:16:35forward acquisition time	60.00reverse acquisition time	0.00gamma	496.2192k internal	0.2307k external	0.2307temperature offset calibration	0.9973default loss term (dB/km)	0.3790temperature slope calibration	1.0000multiplexer offset coefficient	1.0000multiplexer slope coefficient	1.0000fibre end	0.00T internal ref (°C)	34.31T ext. ref 1 (°C)	5.01T ext. ref 2 (°C)	29.72length (m)	temperature (°C)	Stokes	anti-Stokes-747.200	-200.000	0.054	-0.240
-746.185	800.000	-0.060	0.176
-745.171	-200.000	0.044	-0.305
-744.156	-200.000	-0.327	0.000
-743.142	51.919	0.290	-0.280
-742.127	-16.581	-0.177	0.114
-741.112	800.000	0.071	-0.204
-740.098	800.000	-0.040	-0.128
-739.083	40.242	-0.248	0.227
-738.069	-200.000	-0.029	0.220
-737.054	161.243	-0.129	0.183
-736.039	111.364	-0.181	-0.222
-735.025	-130.835	-0.101	-0.014
-734.010	148.612	-0.011	0.015
-732.996	278.443	-0.229	-0.416
-731.981	229.766	-0.234	-0.389
-730.966	-127.069	0.271	-0.040
-729.952	-83.970	-0.161	0.052
-728.937	103.570	-0.167	-0.200
-727.923	49.426	0.201	-0.192
-726.908	698.262	-0.099	-0.266
-725.894	-19.361	-0.200	-0.126
-724.879	131.168	-0.223	-0.291
-723.864	324.201	-0.074	-0.143
-722.850	-200.000	0.052	-0.473
-721.835	-200.000	0.014	0.163
-720.821	-51.458	-0.195	-0.093
-719.806	333.721	-0.101	-0.199
-718.791	-200.000	0.011	-0.331
-717.777	-11.254	-0.059	-0.040
-716.762	-114.337	-0.192	-0.038
-715.748	-92.785	0.099	0.028
-714.733	44.772	-0.220	0.205
-713.718	269.611	-0.147	-0.263
-712.704	37.363	-0.180	0.162
-711.689	124.331	-0.098	-0.125
-710.675	-200.000	0.010	0.232
-709.660	-58.942	-0.026	0.012
-708.645	-64.832	0.346	-0.142
-707.631	285.341	-0.132	-0.241
-706.616	-25.445	0.151	0.090
-705.602	-106.514	0.075	-0.017
-704.587	-200.000	-0.001	0.108
-703.572	-48.736	0.285	0.139
-702.558	-99.464	-0.217	-0.055
-701.543	-5.779	0.079	0.055
-700.529	33.840	0.286	0.253
-699.514	800.000	0.103	-0.321
-698.499	-50.625	-0.138	0.066
-697.485	-24.523	-0.075	-0.045
-696.470	-200.000	-0.006	0.183
-695.456	-1.516	-0.051	-0.036
-694.441	258.263	0.050	-0.088
-693.426	270.457	0.038	0.068
-692.412	273.495	0.075	-0.135
-691.397	16.883	0.171	0.138
-690.383	-105.204	-0.456	-0.106
-689.368	-200.000	0.015	-0.131
-688.354	90.243	0.070	0.080
-687.339	800.000	-0.041	-0.163
-686.324	-125.249	-0.150	0.023
-685.310	21.753	-0.212	-0.175
-684.295	45.008	-0.115	0.108
-683.281	800.000	0.076	-0.323
-682.266	62.328	-0.174	-0.176
-681.251	78.266	0.335	-0.363
-680.237	-145.035	0.118	0.011
-679.222	-125.268	-0.119	0.018
-678.208	194.321	0.183	-0.281
-677.193	-200.000	-0.067	0.000
-676.178	120.552	0.083	0.104
-675.164	800.000	-0.117	-0.512
-674.149	-141.443	0.090	-0.009
-673.135	-72.120	0.291	-0.109
-672.120	-140.010	-0.245	-0.026
-671.105	35.917	-0.242	0.216
-670.091	-156.648	-0.422	-0.026
-669.076	-9.596	-0.276	0.187
-668.062	41.658	-0.064	0.059
-667.047	11.310	-0.117	-0.091
-666.032	-107.514	-0.350	-0.078
-665.018	-23.615	-0.327	-0.199
-664.003	168.465	0.099	-0.143
-662.989	-200.000	0.020	-0.248
-661.974	799.899	-0.037	0.102
-660.959	-68.189	-0.027	-0.011
-659.945	-115.174	0.078	-0.015
-658.930	800.000	0.043	-0.164
-657.916	37.020	-0.197	-0.177
-656.901	381.185	0.127	-0.264
-655.886	332.473	0.043	-0.085
-654.872	-0.387	0.242	0.174
-653.857	-0.592	-0.206	0.148
-652.843	28.888	-0.067	0.058
-651.828	-200.000	0.078	-0.350
-650.814	153.320	0.079	0.109
-649.799	-200.000	-0.066	0.345
-648.784	800.000	0.046	-0.182
-647.770	45.127	-0.018	0.017
-646.755	-22.600	0.036	-0.022
-645.741	284.704	0.091	0.166
-644.726	-200.000	-0.037	0.313
-643.711	3.031	0.146	-0.107
-642.697	202.546	-0.153	-0.239
-641.682	26.199	0.106	0.089
-640.668	-61.394	0.197	0.084
-639.653	-11.635	-0.386	-0.257
-638.638	734.382	0.075	0.204
-637.624	-80.205	0.209	0.071
-636.609	-109.714	-0.404	-0.086
-635.595	222.688	0.057	0.093
-634.580	800.000	0.037	-0.115
-633.565	-30.232	0.154	-0.089
-632.551	-2.566	-0.130	0.092
-631.536	309.110	-0.075	0.142
-630.522	-200.000	-0.004	-0.124
-629.507	-200.000	-0.035	-0.221
-628.492	-200.000	0.012	-0.066
-627.478	129.514	0.074	0.095
-626.463	226.318	0.095	0.156
-625.449	11.476	0.130	-0.101
-624.434	273.058	0.150	-0.268
-623.419	43.141	0.255	0.235
-622.405	321.247	-0.043	-0.082
-621.390	580.487	0.046	0.113
-620.376	-200.000	0.003	-0.504
-619.361	40.285	-0.109	-0.100
-618.346	-200.000	-0.029	0.140
-617.332	-18.246	-0.310	0.196
-616.317	-61.666	0.070	-0.030
-615.303	-200.000	-0.033	-0.150
-614.288	219.963	0.081	0.132
-613.273	-41.963	0.380	0.197
-612.259	97.245	0.201	0.233
-611.244	384.541	0.115	0.239
-610.230	-200.000	-0.049	-0.256
-609.215	-200.000	0.051	0.385
-608.201	59.312	-0.119	-0.118
-607.186	59.195	-0.106	0.106
-606.171	10.304	-0.172	0.133
-605.157	-128.623	0.209	-0.030
-604.142	97.681	0.087	-0.102
-603.128	-80.770	0.278	0.093
-602.113	-199.181	-0.111	0.001
-601.098	-200.000	-0.021	-0.114
-600.084	800.000	-0.024	-0.068
-599.069	-116.974	0.185	-0.034
-598.055	-88.017	0.222	-0.067
-597.040	-195.932	-0.404	0.003
-596.025	43.477	0.016	0.015
-595.011	-13.921	0.242	-0.158
-593.996	-62.034	-0.198	-0.084
-592.982	-200.000	0.037	0.212
-591.967	-174.326	0.061	-0.002
-590.952	-17.127	-0.253	-0.162
-589.938	-142.322	0.192	0.019
-588.923	144.104	-0.123	-0.165
-587.909	435.236	-0.109	-0.241
-586.894	-26.468	0.043	0.025
-585.879	-6.388	-0.121	0.083
-584.865	-145.996	0.381	-0.034
-583.850	-122.977	0.143	-0.023
-582.836	247.505	-0.080	-0.137
-581.821	-32.625	-0.535	-0.301
-580.806	-142.134	-0.230	0.023
-579.792	-200.000	-0.007	0.119
-578.777	-99.456	0.354	-0.090
-577.763	-190.137	0.265	0.003
-576.748	-51.662	0.199	0.094
-575.733	-200.000	-0.051	0.319
-574.719	45.647	-0.140	-0.131
-573.704	-31.834	-0.144	0.081
-572.690	199.577	-0.157	-0.243
-571.675	406.228	0.128	-0.272
-570.661	388.817	-0.124	0.259
-569.646	377.543	0.105	0.217
-568.631	-107.531	-0.133	0.029
-567.617	133.126	0.023	0.030
-566.602	-200.000	0.056	-0.289
-565.588	361.049	0.080	-0.161
-564.573	-200.000	0.033	-0.233
-563.558	-39.924	-0.206	-0.108
-562.544	-64.292	0.139	-0.057
-561.529	-44.451	-0.211	-0.107
-560.515	-7.034	-0.148	-0.102
-559.500	-45.554	0.131	0.066
-558.485	-107.343	0.192	0.042
-557.471	60.536	0.245	-0.245
-556.456	425.021	0.082	-0.178
-555.442	382.136	-0.040	-0.084
-554.427	-200.000	-0.004	0.253
-553.412	-58.636	-0.405	0.177
-552.398	82.489	-0.175	-0.192
-551.383	-23.459	0.199	-0.121
-550.369	83.319	0.046	0.051
-549.354	89.813	0.222	-0.250
-548.339	152.194	0.172	-0.237
-547.325	-200.000	-0.067	-0.663
-546.310	800.000	-0.053	0.203
-545.296	800.000	0.013	0.056
-544.281	-108.552	-0.138	-0.030
-543.266	377.797	0.087	0.179
-542.252	-200.000	-0.029	-0.368
-541.237	-78.017	0.190	0.066
-540.223	400.574	-0.052	-0.109
-539.208	-29.057	-0.228	-0.132
-538.193	-200.000	-0.044	-0.422
-537.179	534.241	0.058	-0.138
-536.164	58.198	0.039	-0.039
-535.150	-115.348	0.381	0.073
-534.135	-190.477	-0.210	-0.002
-533.121	88.181	-0.121	0.135
-532.106	41.518	0.181	0.165
-531.091	800.000	-0.032	0.113
-530.077	-24.823	0.126	0.076
-529.062	-159.308	-0.333	-0.019
-528.048	-200.000	0.004	-0.082
-527.033	96.426	-0.142	0.164
-526.018	-43.093	-0.123	-0.063
-525.004	568.065	0.020	0.049
-523.989	-200.000	0.022	-0.202
-522.975	-95.916	-0.244	-0.066
-521.960	70.205	-0.310	-0.322
-520.945	-200.000	-0.056	-0.346
-519.931	474.354	0.073	0.165
-518.916	-80.886	0.175	-0.059
-517.902	-80.106	0.261	-0.088
-516.887	800.000	-0.101	0.355
-515.872	-200.000	-0.025	-0.279
-514.858	94.600	-0.242	0.277
-513.843	-126.244	0.247	0.037
-512.829	-48.038	-0.202	-0.098
-511.814	-200.000	-0.006	0.035
-510.799	-5.183	-0.140	0.097
-509.785	800.000	0.020	-0.077
-508.770	-69.807	0.185	-0.071
-507.756	-52.628	-0.082	0.038
-506.741	5.831	0.145	-0.108
-505.726	-25.920	0.043	0.026
-504.712	-200.000	0.006	0.337
-503.697	-39.012	-0.036	0.019
-502.683	800.000	0.042	0.143
-501.668	-171.690	-0.185	-0.006
-500.653	-200.000	0.002	0.348
-499.639	12.438	-0.127	-0.099
-498.624	-80.493	0.169	-0.057
-497.610	80.304	0.127	-0.138
-496.595	81.057	-0.179	-0.194
-495.581	-184.730	-0.198	0.003
-494.566	345.745	-0.155	-0.307
-493.551	-7.584	-0.184	0.125
-492.537	347.834	-0.178	-0.354
-491.522	-144.802	0.108	-0.010
-490.508	-14.170	0.161	0.104
-489.493	441.694	-0.024	0.054
-488.478	-101.384	0.214	-0.053
-487.464	227.958	-0.009	0.014
-486.449	25.430	-0.253	0.212
-485.435	61.423	-0.145	-0.145
-484.420	-84.041	0.382	-0.122
-483.405	228.294	-0.130	0.213
-482.391	-110.416	0.581	0.121
-481.376	-121.235	-0.168	0.028
-480.362	-69.906	0.090	0.035
-479.347	-129.508	-0.086	-0.012
-478.332	-87.425	-0.156	0.047
-477.318	800.000	0.059	0.184
-476.303	238.798	-0.134	-0.224
-475.289	-5.737	-0.298	-0.206
-474.274	471.849	0.134	0.304
-473.259	230.448	-0.093	-0.153
-472.245	-127.283	-0.129	0.019
-471.230	58.416	-0.046	0.045
-470.216	800.000	-0.075	-0.284
-469.201	-200.000	0.008	0.066
-468.186	-89.591	-0.110	0.032
-467.172	-200.000	0.036	-0.265
-466.157	379.876	0.076	-0.157
-465.143	-92.692	-0.499	0.141
-464.128	116.674	0.125	0.155
-463.113	-200.000	-0.009	-0.300
-462.099	800.000	-0.118	-0.338
-461.084	-101.554	-0.440	0.108
-460.070	-96.011	0.175	0.047
-459.055	14.690	0.155	0.122
-458.040	-156.144	-0.145	-0.009
-457.026	-100.808	-0.173	-0.043
-456.011	-3.122	0.088	0.062
-454.997	-39.851	-0.270	0.142
-453.982	-76.527	0.199	-0.070
-452.968	-86.548	0.329	-0.102
-451.953	-20.341	0.027	-0.017
-450.938	37.852	0.189	-0.169
-449.924	196.618	-0.155	-0.237
-448.909	132.208	-0.167	-0.217
-447.895	-200.000	0.017	-0.103
-446.880	-114.936	0.034	-0.007
-445.865	800.000	-0.060	0.176
-444.851	-200.000	-0.015	0.136
-443.836	-200.000	0.014	0.110
-442.822	36.228	-0.191	-0.169
-441.807	800.000	0.052	-0.155
-440.792	-116.494	-0.354	-0.066
-439.778	-200.000	0.004	-0.042
-438.763	137.546	-0.078	0.103
-437.749	-200.000	-0.013	-0.067
-436.734	-37.184	0.297	-0.160
-435.719	650.619	0.036	0.092
-434.705	60.207	-0.069	0.069
-433.690	340.346	0.012	0.024
-432.676	640.001	0.147	-0.377
-431.661	9.792	0.127	-0.097
-430.646	-146.080	0.317	-0.028
-429.632	-24.530	0.234	-0.140
-428.617	167.237	-0.178	0.254
-427.603	800.000	-0.068	0.287
-426.588	-200.000	0.002	-0.020
-425.573	60.943	0.137	-0.136
-424.559	-162.621	0.110	-0.005
-423.544	800.000	0.085	-0.240
-422.530	-26.484	-0.166	0.098
-421.515	27.568	-0.092	0.077
-420.500	-200.000	-0.008	-0.247
-419.486	-200.000	0.010	0.046
-418.471	312.495	-0.029	0.055
-417.457	-135.089	-0.369	0.045
-416.442	-103.702	-0.097	0.023
-415.428	-200.000	0.004	-0.188
-414.413	-122.321	-0.076	-0.013
-413.398	-200.000	0.035	-0.428
-412.384	-58.465	0.131	0.057
-411.369	105.441	0.145	0.172
-410.355	80.952	0.077	0.083
-409.340	-200.000	0.004	0.194
-408.325	800.000	-0.130	-0.459
-407.311	-112.311	-0.038	0.008
-406.296	-69.942	0.220	0.084
-405.282	-188.336	-0.211	0.003
-404.267	-30.238	-0.078	-0.044
-403.252	800.000	-0.015	0.048
-402.238	800.000	-0.088	0.314
-401.223	-130.025	-0.320	-0.044
-400.209	-71.527	-0.132	-0.050
-399.194	723.805	0.041	0.109
-398.179	42.269	0.213	0.194
-397.165	63.400	-0.286	-0.288
-396.150	-44.358	-0.074	-0.037
-395.136	-34.456	0.353	0.194
-394.121	800.000	0.030	0.110
-393.106	456.392	0.118	0.262
-392.092	704.483	0.182	0.482
-391.077	218.436	-0.191	0.306
-390.063	-47.929	0.225	0.109
-389.048	16.475	-0.107	0.085
-388.033	-140.657	0.451	0.047
-387.019	-101.704	0.276	0.067
-386.004	27.590	-0.104	0.088
-384.990	78.095	0.238	0.254
-383.975	467.626	-0.174	-0.391
-382.960	-83.109	0.146	-0.047
-381.946	-8.167	-0.391	-0.264
-380.931	-19.348	-0.163	0.101
-379.917	20.383	-0.089	0.072
-378.902	-200.000	0.011	0.123
-377.888	-41.118	0.277	-0.143
-376.873	800.000	0.064	-0.212
-375.858	-3.530	-0.096	-0.067
-374.844	-79.744	-0.015	0.005
-373.829	800.000	0.071	-0.269
-372.815	-182.527	-0.113	-0.002
-371.800	199.601	-0.176	0.270
-370.785	-4.687	0.180	0.124
-369.771	390.629	-0.100	0.208
-368.756	-34.785	-0.109	-0.060
-367.742	194.584	-0.054	-0.082
-366.727	90.775	0.217	-0.243
-365.712	561.090	0.052	0.126
-364.698	311.398	-0.128	0.240
-363.683	20.717	0.107	-0.087
-362.669	-200.000	-0.044	0.502
-361.654	800.000	-0.054	0.208
-360.639	-188.027	-0.333	-0.004
-359.625	-29.173	-0.273	0.157
-358.610	-60.682	0.153	-0.065
-357.596	71.286	-0.053	-0.055
-356.581	281.668	0.071	0.127
-355.566	-200.000	0.018	-0.279
-354.552	169.988	-0.098	0.140
-353.537	23.036	-0.096	0.079
-352.523	800.000	0.139	0.431
-351.508	104.829	0.137	0.162
-350.493	-200.000	0.001	0.181
-349.479	181.931	-0.054	0.080
-348.464	-2.553	-0.084	0.059
-347.450	297.503	0.064	-0.118
-346.435	800.000	0.057	0.201
-345.420	367.600	-0.143	0.290
-344.406	-71.951	0.305	0.113
-343.391	-79.736	-0.343	0.116
-342.377	-50.281	0.315	-0.149
-341.362	189.540	0.216	-0.323
-340.348	-7.339	-0.057	-0.038
-339.333	-48.048	0.067	-0.032
-338.318	-104.706	0.205	0.047
-337.304	-10.619	0.240	0.159
-336.289	-33.473	-0.381	0.211
-335.275	41.518	0.117	-0.106
-334.260	-94.164	-0.511	0.140
-333.245	82.483	0.304	-0.330
-332.231	325.082	-0.124	-0.237
-331.216	-200.000	-0.008	0.139
-330.202	6.866	-0.166	0.124
-329.187	-17.096	-0.008	0.005
-328.172	33.916	0.139	-0.121
-327.158	85.193	-0.231	0.253
-326.143	800.000	0.145	0.457
-325.129	-200.000	0.005	-0.032
-324.114	-105.860	0.254	0.057
-323.099	35.233	-0.242	-0.212
-322.085	13.810	0.191	-0.148
-321.070	-66.911	0.041	-0.016
-320.056	-100.870	0.073	0.018
-319.041	-161.326	0.419	-0.022
-318.026	70.481	-0.157	-0.162
-317.012	-28.853	0.164	-0.094
-315.997	-91.013	-0.160	0.046
-314.983	-11.210	-0.186	-0.122
-313.968	217.913	-0.145	-0.231
-312.953	-200.000	-0.026	0.286
-311.939	53.250	-0.042	-0.040
-310.924	-56.470	0.206	0.091
-309.910	-67.097	-0.084	0.033
-308.895	-14.145	-0.176	-0.114
-307.880	-126.595	0.204	0.030
-306.866	-126.629	0.128	-0.019
-305.851	800.000	0.062	0.252
-304.837	-200.000	0.013	0.196
-303.822	-95.277	0.159	0.043
-302.807	-25.694	-0.134	-0.079
-301.793	-89.481	-0.135	0.040
-300.778	-200.000	-0.007	-0.064
-299.764	-130.564	-0.346	-0.047
-298.749	188.905	0.047	0.071
-297.735	-77.426	-0.240	0.083
-296.720	-200.000	0.037	-0.165
-295.705	207.372	-0.142	-0.222
-294.691	640.164	-0.153	0.388
-293.676	-82.156	-0.280	0.091
-292.662	20.207	0.083	-0.067
-291.647	169.703	-0.207	-0.295
-290.632	-13.101	0.283	-0.184
-289.618	800.000	0.017	0.048
-288.603	303.929	0.114	0.211
-287.589	-77.192	0.190	0.066
-286.574	-66.656	-0.240	-0.095
-285.559	506.383	-0.073	-0.170
-284.545	6.761	0.267	0.198
-283.530	-63.817	-0.371	0.152
-282.516	143.653	0.228	0.304
-281.501	-200.000	-0.022	0.397
-280.486	56.618	-0.158	-0.153
-279.472	33.602	0.050	0.043
-278.457	-101.192	-0.215	0.052
-277.443	138.104	0.036	-0.048
-276.428	16.087	0.155	-0.122
-275.413	136.991	0.249	-0.325
-274.399	378.106	0.072	0.148
-273.384	-200.000	0.020	0.200
-272.370	315.355	0.119	-0.225
-271.355	-122.939	0.170	-0.027
-270.340	182.990	0.055	0.081
-269.326	122.186	0.123	-0.153
-268.311	40.488	-0.352	0.317
-267.297	50.416	0.187	0.177
-266.282	-200.000	0.035	0.191
-265.267	0.374	0.193	-0.137
-264.253	-105.753	0.177	0.040
-263.238	-111.117	0.122	-0.025
-262.224	-174.224	-0.166	0.005
-261.209	-155.812	-0.205	-0.013
-260.195	-102.428	-0.227	0.054
-259.180	800.000	-0.056	0.156
-258.165	-19.489	-0.273	0.169
-257.151	800.000	0.024	-0.097
-256.136	-200.000	-0.010	0.348
-255.122	-200.000	0.005	0.166
-254.107	450.244	-0.122	0.268
-253.092	-29.675	0.283	-0.161
-252.078	268.841	-0.079	-0.138
-251.063	-166.127	0.168	-0.007
-250.049	800.000	0.059	-0.248
-249.034	-159.608	0.215	0.012
-248.019	800.000	0.054	0.165
-247.005	-31.828	-0.188	-0.105
-245.990	-200.000	0.009	-0.110
-244.976	-180.991	-0.466	0.009
-243.961	800.000	0.038	-0.129
-242.946	-200.000	-0.033	0.171
-241.932	490.795	-0.083	0.189
-240.917	3.377	0.125	0.091
-239.903	-200.000	0.007	0.254
-238.888	800.000	0.084	-0.262
-237.873	-16.247	0.278	0.176
-236.859	-20.314	0.212	-0.130
-235.844	800.000	0.038	-0.126
-234.830	-85.847	0.190	0.059
-233.815	61.622	0.374	-0.371
-232.800	-200.000	-0.012	0.090
-231.786	227.234	0.113	0.182
-230.771	314.813	0.105	0.197
-229.757	800.000	-0.043	0.172
-228.742	141.278	0.122	-0.161
-227.727	-200.000	0.005	0.092
-226.713	-94.710	0.222	0.060
-225.698	-86.018	-0.429	0.132
-224.684	-92.420	0.186	0.052
-223.669	2.374	-0.382	0.275
-222.655	541.366	0.072	-0.172
-221.640	-148.349	0.282	-0.023
-220.625	-50.111	-0.163	0.077
-219.611	-200.000	0.024	0.224
-218.596	-200.000	-0.020	0.183
-217.582	-200.000	-0.017	0.090
-216.567	67.507	-0.114	0.116
-215.552	600.330	-0.035	-0.086
-214.538	-95.465	-0.327	-0.087
-213.523	-179.426	-0.091	-0.002
-212.509	121.291	0.049	0.060
-211.494	-200.000	0.047	0.235
-210.479	267.588	0.201	0.350
-209.465	88.267	-0.067	-0.075
-208.450	-54.919	-0.061	-0.027
-207.436	-131.490	0.161	-0.021
-206.421	-111.540	0.116	-0.024
-205.406	70.694	0.029	0.030
-204.392	460.981	-0.116	-0.257
-203.377	137.556	-0.165	0.215
-202.363	-96.839	-0.095	0.025
-201.348	279.711	0.148	0.263
-200.333	-85.113	-0.163	0.051
-199.319	555.806	0.071	-0.170
-198.304	-133.658	-0.215	-0.027
-197.290	-157.707	-0.216	0.013
-196.275	-34.663	-0.178	-0.097
-195.260	-200.000	0.040	-0.385
-194.246	-50.433	-0.147	0.069
-193.231	285.489	-0.168	-0.302
-192.217	430.891	0.116	-0.251
-191.202	771.199	-0.024	-0.064
-190.187	-200.000	-0.007	-0.178
-189.173	114.435	-0.201	-0.244
-188.158	702.369	0.051	0.133
-187.144	257.373	0.142	-0.244
-186.129	800.000	-0.030	-0.095
-185.114	-166.511	-0.270	0.011
-184.100	10.290	0.028	-0.021
-183.085	-23.870	0.052	0.031
-182.071	23.418	-0.004	-0.003
-181.056	-200.000	-0.019	0.331
-180.042	800.000	0.024	0.082
-179.027	-57.240	0.164	-0.072
-178.012	800.000	-0.048	-0.136
-176.998	800.000	-0.068	-0.230
-175.983	9.214	0.113	-0.085
-174.969	100.457	0.223	-0.258
-173.954	-200.000	-0.020	-0.232
-172.939	-199.024	0.151	-0.001
-171.925	111.402	0.212	-0.254
-170.910	112.991	-0.064	0.077
-169.896	-180.667	-0.204	0.004
-168.881	-74.463	0.284	-0.102
-167.866	-43.856	-0.050	0.025
-166.852	-200.000	-0.008	0.307
-165.837	-200.000	0.002	0.113
-164.823	54.552	0.423	-0.405
-163.808	-200.000	-0.023	0.109
-162.793	130.736	0.118	-0.151
-161.779	150.196	0.165	-0.223
-160.764	425.578	0.110	0.235
-159.750	502.580	-0.145	0.333
-158.735	85.590	-0.040	0.044
-157.720	-72.841	-0.171	-0.063
-156.706	-200.000	0.022	0.231
-155.691	-42.547	0.316	0.160
-154.677	-95.645	-0.126	-0.034
-153.662	99.166	0.155	-0.178
-152.647	-117.110	0.276	-0.050
-151.633	800.000	-0.040	0.168
-150.618	-200.000	-0.003	0.328
-149.604	-91.521	-0.242	-0.069
-148.589	25.203	0.206	-0.170
-147.574	76.251	0.230	-0.242
-146.560	-53.353	0.084	-0.038
-145.545	-69.094	-0.211	0.081
-144.531	248.833	-0.101	-0.170
-143.516	-147.008	0.244	-0.021
-142.502	60.688	0.114	0.112
-141.487	-127.746	-0.146	-0.021
-140.472	419.624	-0.109	-0.231
-139.458	60.141	0.084	-0.082
-138.443	-170.592	0.136	0.005
-137.429	-200.000	-0.010	-0.232
-136.414	-108.532	0.068	-0.014
-135.399	-102.336	-0.227	-0.054
-134.385	-78.350	-0.155	-0.053
-133.370	800.000	-0.026	0.090
-132.356	-200.000	-0.013	-0.063
-131.341	280.264	-0.079	-0.141
-130.326	-200.000	-0.025	0.170
-129.312	-200.000	0.006	-0.100
-128.297	800.000	-0.113	-0.363
-127.283	-152.805	0.164	0.012
-126.268	-200.000	0.040	-0.193
-125.253	164.837	0.073	0.102
-124.239	247.300	0.036	-0.060
-123.224	-200.000	-0.003	-0.346
-122.210	14.425	0.058	0.045
-121.195	-64.625	-0.154	0.062
-120.180	800.000	0.065	-0.228
-119.166	-20.798	-0.139	-0.084
-118.151	800.000	0.102	0.358
-117.137	148.910	-0.073	-0.098
-116.122	500.555	0.059	-0.134
-115.107	-118.901	-0.073	0.013
-114.093	-144.083	0.262	-0.024
-113.078	314.674	-0.047	0.088
-112.064	-156.571	0.220	0.014
-111.049	59.969	0.276	0.271
-110.034	-200.000	0.007	0.158
-109.020	800.000	-0.077	0.290
-108.005	-200.000	0.031	-0.509
-106.991	-15.609	-0.181	0.114
-105.976	-131.627	-0.289	0.038
-104.962	53.068	-0.307	0.292
-103.947	-200.000	0.021	0.355
-102.932	-78.563	-0.117	-0.040
-101.918	27.991	-0.029	0.024
-100.903	-68.744	-0.164	0.063
-99.889	70.340	0.252	0.258
-98.874	68.091	0.405	0.411
-97.859	-200.000	-0.029	-0.181
-96.845	800.000	0.117	-0.388
-95.830	41.294	0.184	-0.165
-94.816	91.220	0.080	0.089
-93.801	26.222	-0.248	0.206
-92.786	800.000	-0.070	0.197
-91.772	156.767	0.080	0.109
-90.757	-134.611	0.066	0.008
-89.743	157.185	0.201	0.276
-88.728	-64.351	-0.102	0.041
-87.713	-88.689	-0.109	0.032
-86.699	-67.842	0.195	0.075
-85.684	-200.000	0.093	0.411
-84.670	81.560	-0.307	0.330
-83.655	-35.548	-0.337	0.181
-82.640	-54.065	0.210	0.095
-81.626	-200.000	-0.029	0.160
-80.611	-66.811	-0.140	-0.055
-79.597	359.475	-0.301	0.597
-78.582	-200.000	0.014	-0.245
-77.567	-200.000	0.008	-0.073
-76.553	-200.000	-0.001	0.364
-75.538	354.783	0.017	0.033
-74.524	-48.755	-0.081	0.039
-73.509	-200.000	0.012	0.079
-72.494	-104.190	0.479	-0.110
-71.480	-117.475	0.225	-0.040
-70.465	-100.966	0.409	-0.099
-69.451	-200.000	-0.007	0.158
-68.436	-55.221	0.225	0.100
-67.422	164.174	-0.126	0.175
-66.407	-200.000	0.051	-0.428
-65.392	15.096	-0.160	0.124
-64.378	197.031	0.084	0.127
-63.363	800.000	0.051	-0.220
-62.349	800.000	-0.054	-0.179
-61.334	88.158	-0.829	-0.911
-60.319	240.136	0.239	0.394
-59.305	-200.000	-0.064	-0.614
-58.290	381.660	0.477	0.969
-57.276	586.722	0.612	1.491
-56.261	-200.000	97.433	570.617
-55.246	625.950	1398.420	3492.917
-54.232	185.922	2607.477	3837.134
-53.217	119.262	2203.665	2698.802
-52.203	44.819	1735.396	1580.632
-51.188	37.390	1546.240	1356.683
-50.173	35.005	1519.458	1316.746
-49.159	53.249	1569.879	1488.514
-48.144	56.822	1588.737	1531.333
-47.130	37.744	1544.464	1357.381
-46.115	34.541	1528.643	1321.287
-45.100	34.412	1525.536	1317.655
-44.086	34.364	1523.825	1315.794
-43.071	34.273	1521.772	1313.339
-42.057	34.349	1519.765	1312.081
-41.042	34.364	1518.165	1310.750
-40.027	34.358	1516.976	1309.627
-39.013	34.392	1515.159	1308.240
-37.998	34.265	1514.799	1307.009
-36.984	34.303	1513.142	1305.785
-35.969	34.209	1512.228	1304.302
-34.954	34.240	1510.609	1303.067
-33.940	34.300	1509.495	1302.462
-32.925	34.309	1508.355	1301.492
-31.911	34.279	1507.186	1300.228
-30.896	34.425	1504.862	1299.167
-29.881	34.297	1504.287	1297.744
-28.867	34.401	1502.808	1297.123
-27.852	34.359	1501.184	1295.388
-26.838	34.384	1499.942	1294.435
-25.823	34.330	1498.342	1292.634
-24.809	34.273	1497.066	1291.094
-23.794	34.304	1495.597	1289.984
-22.779	34.268	1494.387	1288.652
-21.765	34.443	1492.738	1288.356
-20.750	34.365	1491.857	1287.023
-19.736	34.402	1490.727	1286.243
-18.721	34.286	1489.845	1284.649
-17.706	34.340	1488.663	1283.946
-16.692	34.331	1487.698	1282.998
-15.677	34.381	1486.434	1282.198
-14.663	34.307	1485.685	1280.997
-13.648	34.352	1484.494	1280.226
-12.633	34.334	1483.355	1279.069
-11.619	34.379	1482.496	1278.580
-10.604	34.170	1482.324	1276.981
-9.590	34.313	1481.019	1276.761
-8.575	34.334	1480.193	1276.145
-7.560	34.249	1479.603	1275.011
-6.546	34.313	1478.445	1274.392
-5.531	34.222	1477.719	1273.107
-4.517	34.275	1476.665	1272.506
-3.502	34.304	1475.665	1271.788
-2.487	34.367	1474.427	1271.090
-1.473	34.255	1473.792	1269.745
-0.458	34.308	1472.442	1268.882
0.556	33.174	1462.449	1258.076
1.571	30.158	1436.125	1215.587
2.586	26.492	1373.637	1139.547
3.600	24.707	1289.553	1059.135
4.615	23.038	1243.604	1011.762
5.629	20.309	1187.308	950.948
6.644	12.406	1101.945	842.149
7.659	6.176	1060.827	779.835
8.673	5.252	1054.999	770.923
9.688	5.005	1052.048	767.486
10.702	4.888	1050.582	765.772
11.717	4.906	1048.581	764.335
12.731	7.631	1051.447	779.744
13.746	15.069	1061.373	823.761
14.761	19.376	1066.773	849.132
15.775	18.598	1064.863	843.716
16.790	17.455	1062.508	836.160
17.804	16.367	1059.972	828.755
18.819	15.423	1058.252	822.713
19.834	14.913	1056.844	819.046
20.848	14.763	1055.939	817.537
21.863	14.537	1054.904	815.561
22.877	14.195	1054.693	813.655
23.892	14.132	1053.230	812.145
24.907	13.870	1052.783	810.451
25.921	13.978	1052.101	810.380
26.936	13.842	1051.556	809.224
27.950	14.092	1049.789	809.012
28.965	14.084	1048.936	808.241
29.980	14.189	1047.633	807.676
30.994	14.138	1047.078	806.931
32.009	14.271	1046.166	806.800
33.023	14.289	1045.157	806.038
34.038	14.271	1044.486	805.362
35.053	14.237	1043.712	804.531
36.067	14.039	1042.369	802.467
37.082	14.044	1041.820	802.001
38.096	14.108	1041.139	801.712
39.111	14.154	1040.058	801.032
40.126	14.226	1038.869	800.392
41.140	14.074	1038.142	799.028
42.155	14.028	1036.706	797.629
43.169	13.896	1035.934	796.336
44.184	13.843	1034.816	795.150
45.199	13.801	1033.440	793.820
46.213	13.884	1032.704	793.581
47.228	13.881	1032.246	793.147
48.242	14.035	1030.945	792.809
49.257	14.067	1030.023	792.185
50.271	14.128	1029.149	791.733
51.286	14.048	1028.083	790.462
52.301	14.133	1027.299	790.191
53.315	14.126	1026.618	789.566
54.330	14.121	1025.634	788.714
55.344	14.079	1024.428	787.521
56.359	14.078	1023.563	786.783
57.374	13.909	1023.316	785.723
58.388	13.979	1021.919	784.912
59.403	13.870	1021.804	784.240
60.417	13.918	1020.585	783.460
61.432	13.910	1019.942	782.859
62.447	13.817	1019.397	781.934
63.461	13.714	1018.392	780.606
64.476	13.736	1017.566	780.007
65.490	13.729	1016.688	779.232
66.505	13.721	1015.334	778.088
67.520	13.813	1015.241	778.381
68.534	13.841	1014.044	777.528
69.549	13.883	1013.295	777.078
70.563	13.799	1012.844	776.272
71.578	13.874	1011.774	775.734
72.593	13.753	1011.341	774.767
73.607	13.815	1009.835	773.835
74.622	13.726	1009.362	772.990
75.636	13.734	1008.301	772.146
76.651	13.624	1007.969	771.309
77.666	13.666	1006.797	770.540
78.680	13.893	1006.183	771.055
79.695	13.640	1005.929	769.620
80.709	13.802	1005.206	769.749
81.724	13.735	1004.241	768.633
82.739	13.987	1003.565	769.215
83.753	14.074	1002.218	768.516
84.768	14.014	1002.279	768.217
85.782	14.087	1001.110	767.592
86.797	14.236	1000.355	767.628
87.812	14.189	999.561	766.735
88.826	14.086	998.613	765.468
89.841	14.053	997.970	764.754
90.855	13.995	997.426	764.005
91.870	14.128	996.307	763.689
92.884	14.193	995.804	763.535
93.899	14.116	995.197	762.651
94.914	14.196	994.089	762.097
95.928	14.103	993.776	761.366
96.943	14.281	992.752	761.327
97.957	14.273	992.030	760.671
98.972	14.193	991.034	759.476
99.987	14.129	990.511	758.713
101.001	14.275	989.500	758.538
102.016	14.283	988.472	757.721
103.030	14.093	988.202	756.579
104.045	14.128	987.144	755.862
105.060	14.206	985.798	755.121
106.074	14.209	984.780	754.288
107.089	14.222	983.738	753.479
108.103	13.964	983.193	751.827
109.118	13.958	982.007	750.828
110.133	13.881	981.459	749.995
111.147	13.989	980.796	749.909
112.162	13.839	979.812	748.413
113.176	13.971	978.978	748.307
114.191	14.065	978.321	748.162
115.206	13.893	977.448	746.653
116.220	13.940	976.745	746.263
117.235	13.943	976.095	745.713
118.249	13.990	975.188	745.163
119.264	14.006	973.783	744.096
120.279	13.985	973.106	743.417
121.293	13.929	972.313	742.495
122.308	13.898	971.696	741.822
123.322	13.962	970.484	741.117
124.337	13.829	969.666	739.835
125.352	13.928	968.284	739.152
126.366	13.824	967.217	737.814
127.381	13.708	966.836	736.939
128.395	13.900	965.420	736.650
129.410	13.828	964.517	735.576
130.424	13.875	963.577	735.001
131.439	13.817	962.961	734.211
132.454	14.012	961.959	734.242
133.468	13.962	961.670	733.734
134.483	14.047	960.886	733.446
135.497	14.004	960.184	732.655
136.512	14.062	959.446	732.284
137.527	14.054	958.361	731.356
138.541	14.139	957.485	730.999
139.556	13.900	956.933	729.461
140.570	14.057	955.915	729.308
141.585	14.146	955.074	728.995
142.600	14.178	955.087	729.078
143.614	14.216	954.209	728.510
144.629	14.259	953.229	727.884
145.643	14.316	952.600	727.589
146.658	14.247	951.613	726.469
147.673	14.138	950.927	725.407
148.687	14.167	949.892	724.682
149.702	14.050	949.309	723.662
150.716	14.134	947.916	722.902
151.731	14.055	947.153	721.912
152.746	13.870	946.929	720.875
153.760	14.200	945.693	721.302
154.775	14.002	945.505	720.236
155.789	14.150	944.481	720.032
156.804	14.099	943.988	719.373
157.819	14.246	942.947	719.150
158.833	14.283	942.293	718.748
159.848	14.277	941.828	718.305
160.862	14.436	940.630	718.011
161.877	14.471	939.984	717.606
162.892	14.279	939.618	716.434
163.906	14.210	938.246	715.030
164.921	14.245	937.769	714.753
165.935	14.255	936.768	713.970
166.950	14.279	935.842	713.306
167.964	14.240	935.111	712.516
168.979	14.258	933.817	711.544
169.994	14.192	932.984	710.563
171.008	14.129	932.499	709.866
172.023	14.361	931.262	709.850
173.037	14.423	930.634	709.571
174.052	14.411	930.196	709.124
175.067	14.372	929.697	708.516
176.081	14.358	928.364	707.377
177.096	14.178	927.935	706.221
178.110	14.205	927.092	705.634
179.125	14.244	926.255	705.100
180.140	14.361	925.397	704.877
181.154	14.220	925.136	704.020
182.169	14.352	924.249	703.841
183.183	14.431	923.429	703.490
184.198	14.533	923.057	703.572
185.213	14.544	922.261	702.950
186.227	14.609	921.194	702.346
187.242	14.445	921.200	701.602
188.256	14.593	920.350	701.514
189.271	14.640	919.457	700.969
190.286	14.693	918.934	700.728
191.300	14.378	918.305	698.866
192.315	14.266	917.365	697.619
193.329	14.156	916.637	696.545
194.344	14.234	916.273	696.535
195.359	14.223	915.553	695.876
196.373	14.461	914.556	696.052
197.388	14.436	914.620	695.935
198.402	14.654	914.022	696.328
199.417	14.606	913.773	695.876
200.432	14.616	913.523	695.666
201.446	14.708	912.980	695.574
202.461	14.786	912.509	695.480
203.475	14.847	911.880	695.192
204.490	14.890	910.536	694.282
205.504	14.818	910.210	693.677
206.519	14.699	909.112	692.283
207.534	14.700	908.685	691.901
208.548	14.633	907.684	690.802
209.563	14.694	907.215	690.636
210.577	14.715	906.592	690.187
211.592	14.700	906.022	689.631
212.607	14.771	905.747	689.652
213.621	14.781	905.276	689.274
214.636	14.900	904.367	689.011
215.650	14.815	903.489	687.932
216.665	14.837	903.147	687.702
217.680	15.009	902.508	687.859
218.694	14.930	902.495	687.465
219.709	15.006	901.372	686.862
220.723	15.028	900.708	686.383
221.738	14.916	900.224	685.494
222.753	15.044	899.085	685.089
223.767	15.006	898.740	684.611
224.782	14.973	898.118	683.942
225.796	15.071	897.033	683.457
226.811	15.162	896.511	683.367
227.826	15.166	895.918	682.872
228.840	15.079	895.196	681.910
229.855	15.015	894.625	681.152
230.869	15.084	894.184	681.038
231.884	15.066	893.198	680.152
232.899	14.892	892.735	679.034
233.913	14.859	892.100	678.356
234.928	15.053	891.113	678.330
235.942	15.077	890.281	677.735
236.957	14.918	889.739	676.621
237.972	14.859	889.033	675.786
238.986	15.074	888.229	675.980
240.001	15.112	887.432	675.467
241.015	14.956	887.098	674.525
242.030	15.082	886.514	674.531
243.045	15.071	886.052	674.073
244.059	15.069	885.118	673.296
245.074	15.228	884.628	673.501
246.088	15.249	884.000	673.048
247.103	15.188	883.659	672.486
248.117	15.243	882.801	671.993
249.132	15.260	882.663	671.898
250.147	15.244	881.918	671.208
251.161	15.496	880.884	671.368
252.176	15.440	880.678	670.927
253.190	15.656	879.809	671.069
254.205	15.613	879.674	670.735
255.220	15.662	878.850	670.242
256.234	15.686	877.915	669.564
257.249	15.575	877.472	668.728
258.263	15.647	876.950	668.556
259.278	15.631	876.451	668.054
260.293	15.686	875.877	667.775
261.307	15.683	875.294	667.260
262.322	15.631	874.723	666.558
263.336	15.759	874.064	666.505
264.351	15.816	873.475	666.220
265.366	15.749	872.984	665.523
266.380	15.755	872.238	664.922
267.395	15.809	871.533	664.538
268.409	15.788	871.009	663.998
269.424	15.706	870.036	662.873
270.439	15.834	869.428	662.855
271.453	15.861	868.462	662.165
272.468	15.859	868.001	661.749
273.482	15.705	867.436	660.654
274.497	15.805	866.305	660.125
275.512	15.712	865.913	659.405
276.526	15.789	865.151	659.065
277.541	15.918	864.529	659.037
278.555	15.846	864.384	658.591
279.570	15.985	863.521	658.417
280.585	15.970	863.134	658.003
281.599	16.072	862.320	657.723
282.614	15.865	861.686	656.377
283.628	15.913	861.197	656.133
284.643	15.897	860.737	655.662
285.657	15.974	860.293	655.565
286.672	16.085	859.750	655.524
287.687	15.965	859.043	654.460
288.701	15.983	858.684	654.199
289.716	16.080	857.775	653.825
290.730	15.997	857.443	653.194
291.745	15.961	857.083	652.721
292.760	16.047	856.262	652.370
293.774	16.134	855.452	652.032
294.789	16.121	855.160	651.704
295.803	16.344	854.129	651.718
296.818	16.174	853.623	650.620
297.833	16.065	852.986	649.658
298.847	16.031	852.374	649.003
299.862	16.079	851.785	648.682
300.876	16.101	850.746	647.917
301.891	16.164	850.659	648.037
302.906	16.165	849.783	647.315
303.920	16.272	849.384	647.363
304.935	16.413	848.725	647.345
305.949	16.307	848.025	646.348
306.964	16.364	847.585	646.174
307.979	16.318	846.964	645.466
308.993	16.532	846.007	645.498
310.008	16.463	845.718	644.957
311.022	16.426	845.178	644.346
312.037	16.594	844.662	644.537
313.052	16.446	844.593	643.863
314.066	16.259	843.697	642.409
315.081	16.244	843.153	641.883
316.095	16.305	842.452	641.524
317.110	16.304	841.968	641.095
318.125	16.307	841.687	640.835
319.139	16.189	840.877	639.716
320.154	16.405	840.134	639.911
321.168	16.504	839.772	639.953
322.183	16.339	839.692	639.210
323.197	16.342	839.090	638.708
324.212	16.463	838.396	638.581
325.227	16.348	837.639	637.514
326.241	16.491	837.467	637.866
327.256	16.406	836.170	636.501
328.270	16.383	836.065	636.277
329.285	16.449	835.009	635.666
330.300	16.472	834.793	635.532
331.314	16.513	833.982	635.011
332.329	16.478	833.795	634.681
333.343	16.520	832.993	634.174
334.358	16.641	832.175	633.946
335.373	16.519	832.145	633.413
336.387	16.606	831.559	633.235
337.402	16.675	831.140	633.116
338.416	16.769	830.233	632.724
339.431	16.689	829.953	632.152
340.446	16.759	829.310	631.870
341.460	16.955	828.656	632.047
342.475	16.772	828.664	631.316
343.489	16.967	827.665	631.222
344.504	17.026	827.053	630.920
345.519	17.011	826.343	630.266
346.533	16.957	826.231	629.923
347.548	17.033	825.748	629.785
348.562	17.013	824.864	628.979
349.577	16.862	824.521	628.102
350.592	16.788	824.007	627.381
351.606	16.870	823.329	627.114
352.621	16.905	822.937	626.887
353.635	16.785	822.545	626.091
354.650	16.922	822.298	626.352
355.665	16.983	821.794	626.139
356.679	16.939	821.474	625.677
357.694	17.040	820.503	625.255
358.708	17.021	820.084	624.812
359.723	17.017	819.864	624.573
360.738	17.005	819.054	623.857
361.752	17.078	818.541	623.679
362.767	17.055	818.219	623.292
363.781	17.093	817.964	623.183
364.796	17.198	817.462	623.131
365.810	17.161	817.094	622.660
366.825	17.211	816.722	622.505
367.840	17.232	816.465	622.331
368.854	17.237	815.944	621.895
369.869	17.295	814.924	621.275
370.883	17.141	814.585	620.401
371.898	17.315	814.028	620.557
372.913	17.234	813.503	619.807
373.927	17.297	813.033	619.623
374.942	17.267	812.321	618.915
375.956	17.265	811.752	618.419
376.971	17.527	810.598	618.437
377.986	17.405	810.667	617.993
379.000	17.462	809.908	617.565
380.015	17.516	809.365	617.293
381.029	17.542	809.008	617.061
382.044	17.467	808.488	616.338
383.059	17.460	807.982	615.873
384.073	17.546	807.546	615.796
385.088	17.605	806.945	615.497
386.102	17.563	806.084	614.635
387.117	17.533	805.544	614.059
388.132	17.291	805.544	613.132
389.146	17.482	804.949	613.312
390.161	17.531	804.625	613.187
391.175	17.564	804.137	612.880
392.190	17.600	803.735	612.651
393.205	17.695	803.218	612.543
394.219	17.475	802.940	611.485
395.234	17.587	802.580	611.562
396.248	17.557	801.606	610.656
397.263	17.421	801.066	609.703
398.278	17.336	800.867	609.194
399.292	17.524	800.431	609.481
400.307	17.504	800.121	609.119
401.321	17.447	799.788	608.609
402.336	17.490	799.232	608.284
403.350	17.475	798.838	607.879
404.365	17.579	798.541	607.968
405.380	17.674	798.147	607.955
406.394	17.735	797.757	607.821
407.409	17.670	797.168	607.087
408.423	17.813	796.717	607.199
409.438	17.881	796.386	607.135
410.453	17.850	796.059	606.723
411.467	17.940	795.706	606.720
412.482	18.066	794.602	606.270
413.496	17.924	794.436	605.586
414.511	17.981	794.339	605.661
415.526	18.036	793.666	605.288
416.540	18.005	793.290	604.841
417.555	18.096	792.959	604.855
418.569	18.131	792.003	604.197
419.584	17.910	792.069	603.410
420.599	18.082	791.302	603.381
421.613	152.715	1369.695	1789.663
422.628	132.001	1453.983	1789.771
