DTS Sentinel unit serial number:	SN413079Multiplexer serial number:	ORYXHardware model number:	OX4-SRSoftware version number:	ORYX F/W v4.00 Oryx Data Collector v3.7.2.0data status	okinstallation	princeton_trtdifferential loss correction	single-endedforward channel	channel 3reverse channel	N/Adate	2019/09/15time	02:48:35forward acquisition time	60.00reverse acquisition time	0.00gamma	496.2192k internal	0.2323k external	0.2323temperature offset calibration	0.9969default loss term (dB/km)	0.3790temperature slope calibration	1.0000multiplexer offset coefficient	1.0000multiplexer slope coefficient	1.0000fibre end	0.00T internal ref (°C)	31.34T ext. ref 1 (°C)	4.57T ext. ref 2 (°C)	25.75length (m)	temperature (°C)	Stokes	anti-Stokes-747.200	421.405	-0.074	0.160
-746.185	-105.632	0.255	0.058
-745.171	800.000	0.044	0.157
-744.156	171.400	-0.183	0.265
-743.142	-72.421	0.428	-0.160
-742.127	-41.518	0.267	0.138
-741.112	-154.634	-0.139	0.009
-740.098	-95.407	-0.124	-0.034
-739.083	185.806	0.161	0.242
-738.069	37.611	-0.099	-0.088
-737.054	-107.645	0.103	-0.023
-736.039	347.613	0.061	-0.121
-735.025	99.182	0.435	-0.507
-734.010	800.000	-0.109	-0.314
-732.996	508.995	0.067	-0.156
-731.981	60.533	-0.063	-0.063
-730.966	-111.680	-0.150	-0.031
-729.952	275.048	-0.198	0.354
-728.937	630.415	-0.119	0.305
-727.923	-149.309	0.109	0.009
-726.908	800.000	-0.039	-0.115
-725.894	-21.078	-0.123	-0.076
-724.879	-121.547	0.081	-0.014
-723.864	-200.000	0.045	-0.214
-722.850	-7.698	0.092	0.063
-721.835	448.539	-0.135	0.299
-720.821	-53.046	-0.242	-0.112
-719.806	-200.000	0.100	-0.512
-718.791	-83.919	-0.375	-0.120
-717.777	-200.000	0.061	-0.342
-716.762	-113.195	-0.281	-0.056
-715.748	-200.000	-0.009	0.221
-714.733	800.000	0.061	0.212
-713.718	-7.711	0.319	-0.218
-712.704	-54.445	0.018	0.008
-711.689	-5.801	-0.218	0.151
-710.675	-61.863	0.312	0.132
-709.660	140.635	-0.138	0.184
-708.645	-41.055	-0.397	-0.207
-707.631	161.657	-0.299	0.422
-706.616	-200.000	0.034	-0.365
-705.602	115.576	0.118	0.145
-704.587	-19.399	0.287	0.179
-703.572	-200.000	0.198	-0.001
-702.558	9.967	0.100	0.077
-701.543	115.154	0.215	0.265
-700.529	-124.330	0.099	0.016
-699.514	171.650	-0.135	-0.196
-698.499	800.000	0.093	-0.328
-697.485	-45.524	-0.228	-0.114
-696.470	398.238	0.150	0.317
-695.456	800.000	0.050	0.183
-694.441	-11.235	-0.331	0.220
-693.426	38.238	-0.080	-0.071
-692.412	-104.555	-0.233	-0.054
-691.397	112.856	-0.146	0.178
-690.383	-200.000	-0.010	0.228
-689.368	100.085	-0.131	0.153
-688.354	114.341	0.061	0.074
-687.339	43.685	-0.175	-0.162
-686.324	357.116	-0.093	0.187
-685.310	800.000	-0.050	0.146
-684.295	-60.083	0.363	0.156
-683.281	33.353	0.265	-0.231
-682.266	123.773	0.064	0.081
-681.251	800.000	0.136	0.403
-680.237	76.242	0.166	0.177
-679.222	53.837	-0.106	-0.103
-678.208	-46.880	0.191	0.094
-677.193	177.046	0.079	-0.115
-676.178	800.000	-0.048	-0.182
-675.164	598.040	-0.107	0.267
-674.149	-59.630	-0.316	-0.136
-673.135	-200.000	-0.008	0.084
-672.120	16.083	0.170	-0.135
-671.105	-181.351	0.270	-0.005
-670.091	34.399	0.173	-0.152
-669.076	-200.000	0.002	-0.093
-668.062	-15.717	-0.173	0.111
-667.047	581.109	-0.099	0.243
-666.032	41.675	-0.211	0.193
-665.018	-81.179	0.256	-0.085
-664.003	632.185	0.120	-0.307
-662.989	800.000	-0.081	-0.247
-661.974	-120.621	-0.143	0.024
-660.959	-64.021	0.182	0.075
-659.945	-41.538	-0.158	0.082
-658.930	-138.294	0.215	-0.024
-657.916	392.348	-0.179	0.375
-656.901	-126.303	-0.453	0.068
-655.886	-100.082	0.028	-0.007
-654.872	-64.549	-0.223	0.091
-653.857	87.047	0.074	-0.083
-652.843	-16.300	-0.071	-0.045
-651.828	484.809	-0.119	0.273
-650.814	-18.423	-0.073	-0.046
-649.799	-3.743	-0.063	-0.044
-648.784	228.964	-0.160	-0.263
-647.770	-200.000	-0.019	-0.239
-646.755	-200.000	-0.012	-0.066
-645.741	16.801	-0.077	0.061
-644.726	120.759	-0.165	0.207
-643.711	54.738	-0.125	-0.121
-642.697	-149.053	0.156	0.013
-641.682	723.101	-0.089	-0.238
-640.668	-84.738	-0.258	-0.082
-639.653	-200.000	-0.009	0.053
-638.638	458.671	0.056	0.126
-637.624	-133.702	0.286	-0.036
-636.609	800.000	-0.016	-0.053
-635.595	-200.000	0.026	0.197
-634.580	800.000	0.038	-0.146
-633.565	425.111	-0.027	0.058
-632.551	25.762	0.142	0.119
-631.536	400.697	-0.204	-0.431
-630.522	-71.896	-0.254	-0.095
-629.507	-12.841	0.198	0.130
-628.492	-39.954	-0.017	0.009
-627.478	-104.107	0.262	0.061
-626.463	468.996	-0.075	-0.169
-625.449	44.682	-0.129	-0.120
-624.434	-24.216	0.098	-0.059
-623.419	-99.959	-0.217	-0.054
-622.405	-156.444	-0.128	-0.008
-621.390	257.104	-0.092	-0.159
-620.376	330.304	0.192	0.371
-619.361	-200.000	-0.037	0.429
-618.346	91.822	0.035	0.040
-617.332	24.000	0.207	-0.172
-616.317	-200.000	-0.008	0.286
-615.303	175.442	-0.028	0.041
-614.288	-76.440	-0.084	-0.030
-613.273	-9.578	-0.155	0.104
-612.259	-170.630	0.515	0.018
-611.244	-169.651	-0.199	0.007
-610.230	-84.737	0.213	0.067
-609.215	-200.000	-0.002	0.125
-608.201	266.277	-0.092	0.161
-607.186	-14.037	-0.377	0.245
-606.171	-200.000	0.009	0.197
-605.157	64.944	0.143	0.145
-604.142	-200.000	-0.041	0.359
-603.128	-62.939	-0.208	0.086
-602.113	800.000	0.012	0.051
-601.098	5.419	0.140	-0.104
-600.084	800.000	-0.088	-0.256
-599.069	-143.233	-0.255	-0.025
-598.055	-200.000	0.076	0.485
-597.040	559.885	0.071	0.172
-596.025	52.278	-0.152	0.145
-595.011	313.430	0.116	0.218
-593.996	455.160	0.064	-0.143
-592.982	800.000	-0.008	-0.024
-591.967	290.842	-0.162	-0.296
-590.952	-200.000	0.030	-0.281
-589.938	499.874	0.105	0.243
-588.923	-30.088	0.180	0.103
-587.909	-70.469	0.102	-0.039
-586.894	239.138	-0.141	-0.236
-585.879	-200.000	-0.002	-0.330
-584.865	228.048	-0.339	-0.554
-583.850	85.982	0.122	0.135
-582.836	72.772	0.218	-0.229
-581.821	206.541	-0.118	0.184
-580.806	-200.000	-0.034	-0.261
-579.792	-87.669	-0.287	0.087
-578.777	71.700	-0.090	-0.094
-577.763	98.653	-0.076	0.088
-576.748	-200.000	-0.013	0.401
-575.733	-101.638	0.214	-0.052
-574.719	-83.024	0.179	0.058
-573.704	-71.395	-0.277	0.104
-572.690	349.923	0.141	-0.280
-571.675	-123.634	-0.328	-0.052
-570.661	7.271	0.254	0.190
-569.646	200.425	-0.217	0.334
-568.631	771.593	-0.023	-0.064
-567.617	800.000	-0.046	-0.135
-566.602	351.065	-0.067	-0.132
-565.588	-60.437	0.169	-0.072
-564.573	-89.403	-0.453	0.134
-563.558	1.860	0.285	-0.206
-562.544	-70.261	0.224	-0.085
-561.529	-82.023	-0.230	-0.075
-560.515	-58.748	0.041	-0.018
-559.500	-87.907	0.150	0.045
-558.485	-105.598	-0.190	0.043
-557.471	414.330	-0.041	0.088
-556.456	-91.364	-0.310	0.089
-555.442	-200.000	0.001	-0.249
-554.427	41.871	-0.122	-0.111
-553.412	-90.789	-0.424	0.122
-552.398	800.000	0.013	-0.042
-551.383	-93.682	-0.176	-0.049
-550.369	-128.091	-0.030	-0.004
-549.354	75.231	-0.237	-0.250
-548.339	-122.548	0.178	0.029
-547.325	-121.606	0.177	0.029
-546.310	-40.267	-0.291	-0.152
-545.296	-12.641	-0.079	0.052
-544.281	20.032	0.121	0.098
-543.266	-133.076	-0.294	-0.037
-542.252	-85.602	-0.146	-0.046
-541.237	140.199	-0.215	-0.284
-540.223	-200.000	0.025	-0.227
-539.208	403.332	-0.035	0.074
-538.193	800.000	-0.095	-0.365
-537.179	47.422	-0.300	-0.280
-536.164	-86.748	0.247	0.076
-535.150	113.919	0.084	-0.102
-534.135	-200.000	-0.004	-0.165
-533.121	145.380	0.149	0.200
-532.106	-97.149	0.364	-0.095
-531.091	658.291	0.026	-0.066
-530.077	131.204	0.100	-0.128
-529.062	35.207	0.256	0.225
-528.048	-134.385	0.024	-0.003
-527.033	90.870	-0.079	0.089
-526.018	-149.941	0.316	0.025
-525.004	-67.791	-0.207	-0.081
-523.989	-74.632	0.051	0.018
-522.975	-77.820	0.129	0.045
-521.960	-37.892	0.414	-0.220
-520.945	-200.000	0.004	-0.036
-519.931	-97.793	0.123	-0.032
-518.916	-200.000	0.003	-0.044
-517.902	800.000	0.092	-0.367
-516.887	441.290	0.084	0.185
-515.872	100.113	-0.112	0.129
-514.858	493.904	0.095	-0.218
-513.843	782.908	-0.045	-0.124
-512.829	-20.608	0.115	-0.071
-511.814	-200.000	-0.015	-0.122
-510.799	249.882	0.216	0.368
-509.785	-4.847	0.252	-0.174
-508.770	511.947	0.092	-0.215
-507.756	-200.000	0.005	0.111
-506.741	-118.407	-0.311	-0.055
-505.726	-123.738	0.320	-0.051
-504.712	33.239	-0.276	-0.240
-503.697	61.121	-0.300	0.298
-502.683	12.261	0.289	-0.223
-501.668	143.838	-0.080	-0.107
-500.653	-89.878	0.049	-0.014
-499.639	-200.000	0.047	-0.227
-498.624	124.680	-0.171	0.216
-497.610	5.473	0.075	0.056
-496.595	56.412	0.326	-0.317
-495.581	-200.000	-0.018	0.166
-494.566	174.340	-0.327	-0.472
-493.551	-64.879	0.420	0.170
-492.537	10.209	0.074	-0.056
-491.522	800.000	0.049	0.199
-490.508	-4.068	-0.184	-0.127
-489.493	-111.509	0.275	-0.056
-488.478	-12.677	-0.084	0.055
-487.464	-157.459	-0.217	0.013
-486.449	234.133	-0.088	0.144
-485.435	-17.013	-0.238	-0.150
-484.420	5.787	0.141	0.104
-483.405	194.229	-0.235	0.355
-482.391	-65.203	-0.144	0.058
-481.376	-23.010	0.341	-0.205
-480.362	57.949	-0.065	0.063
-479.347	344.746	-0.145	0.284
-478.332	168.106	0.163	0.232
-477.318	-150.663	0.146	-0.011
-476.303	-110.577	-0.083	-0.017
-475.289	800.000	0.091	0.260
-474.274	800.000	0.105	-0.408
-473.259	210.264	0.048	-0.075
-472.245	4.820	0.173	0.127
-471.230	61.029	0.184	0.183
-470.216	-36.312	0.323	0.174
-469.201	800.000	-0.033	-0.112
-468.186	106.960	-0.246	0.292
-467.172	-130.263	0.024	-0.003
-466.157	-59.705	-0.133	-0.057
-465.143	38.097	0.248	-0.220
-464.128	-46.811	-0.138	-0.067
-463.113	800.000	0.060	-0.168
-462.099	63.778	-0.276	0.277
-461.084	-95.439	-0.321	-0.086
-460.070	800.000	-0.070	0.234
-459.055	800.000	-0.067	0.264
-458.040	800.000	0.076	-0.263
-457.026	-138.665	-0.230	0.025
-456.011	-108.664	0.308	-0.066
-454.997	68.998	-0.149	-0.152
-453.982	263.378	-0.105	-0.183
-452.968	148.126	0.267	-0.360
-451.953	26.976	-0.176	0.148
-450.938	-200.000	0.029	0.217
-449.924	-200.000	0.012	-0.172
-448.909	251.309	-0.169	-0.287
-447.895	-200.000	-0.020	0.261
-446.880	22.711	-0.158	0.129
-445.865	-120.742	0.196	0.033
-444.851	-3.734	0.319	0.221
-443.836	-200.000	0.001	-0.306
-442.822	73.704	0.117	-0.122
-441.807	2.130	-0.031	-0.022
-440.792	116.741	0.157	0.192
-439.778	-200.000	0.030	0.138
-438.763	30.053	0.187	0.160
-437.749	-52.913	-0.243	-0.112
-436.734	254.848	-0.132	0.226
-435.719	-200.000	0.009	-0.127
-434.705	-200.000	-0.036	0.245
-433.690	-77.752	-0.281	-0.097
-432.676	369.814	0.037	-0.075
-431.661	214.906	0.053	0.084
-430.646	174.984	0.038	-0.055
-429.632	402.922	-0.057	0.119
-428.617	-109.352	-0.093	0.020
-427.603	235.868	0.255	-0.421
-426.588	66.949	-0.251	-0.255
-425.573	-125.879	-0.393	0.059
-424.559	294.297	0.045	-0.082
-423.544	800.000	0.077	0.265
-422.530	-15.090	0.085	-0.054
-421.515	-117.305	0.100	-0.018
-420.500	15.578	0.112	-0.088
-419.486	-7.029	0.233	0.158
-418.471	251.306	0.031	-0.052
-417.457	-200.000	0.001	0.024
-416.442	-115.444	-0.330	0.062
-415.428	-116.085	-0.325	0.060
-414.413	-0.502	0.145	0.102
-413.398	-200.000	-0.018	0.127
-412.384	-55.451	0.263	-0.118
-411.369	-200.000	0.012	-0.130
-410.355	-127.453	-0.184	0.027
-409.340	-200.000	-0.029	0.216
-408.325	-200.000	-0.000	-0.009
-407.311	-200.000	0.029	-0.175
-406.296	-9.692	0.143	0.095
-405.282	1.007	-0.296	0.212
-404.267	-146.683	0.166	0.014
-403.252	-200.000	0.033	-0.350
-402.238	-49.551	-0.256	-0.122
-401.223	800.000	-0.109	-0.443
-400.209	-200.000	0.006	-0.168
-399.194	336.294	0.076	0.147
-398.179	405.948	0.114	-0.241
-397.165	-40.720	0.285	-0.147
-396.150	-46.708	-0.308	0.150
-395.136	-200.000	-0.006	-0.098
-394.121	20.317	0.222	-0.179
-393.106	-52.313	0.161	-0.074
-392.092	-200.000	0.060	0.285
-391.077	-161.982	0.519	0.026
-390.063	5.940	0.085	0.063
-389.048	378.292	0.136	-0.278
-388.033	-38.442	-0.126	0.066
-387.019	25.172	-0.143	0.119
-386.004	-200.000	0.030	-0.180
-384.990	-22.998	0.101	0.061
-383.975	-200.000	0.003	0.223
-382.960	800.000	0.053	-0.161
-381.946	-47.437	0.337	-0.163
-380.931	-200.000	-0.009	0.094
-379.917	56.000	0.210	-0.202
-378.902	-158.878	-0.217	-0.012
-377.888	307.836	-0.121	0.226
-376.873	-18.585	0.180	0.112
-375.858	-200.000	-0.003	0.309
-374.844	-200.000	0.001	-0.066
-373.829	-29.723	-0.125	-0.071
-372.815	-200.000	0.003	-0.129
-371.800	640.220	-0.037	0.094
-370.785	22.386	-0.186	0.152
-369.771	436.357	-0.065	-0.141
-368.756	-27.480	-0.104	-0.060
-367.742	-200.000	-0.014	-0.079
-366.727	-200.000	-0.013	-0.252
-365.712	80.001	-0.077	-0.082
-364.698	800.000	-0.119	-0.478
-363.683	-200.000	0.054	0.329
-362.669	748.324	-0.101	0.271
-361.654	-70.700	0.231	-0.087
-360.639	-115.549	-0.193	0.036
-359.625	-190.373	-0.298	0.003
-358.610	458.295	-0.117	-0.260
-357.596	709.646	-0.016	-0.042
-356.581	34.458	-0.234	-0.203
-355.566	153.509	0.083	0.113
-354.552	-141.165	-0.206	-0.021
-353.537	800.000	0.068	-0.275
-352.523	-90.469	-0.178	-0.051
-351.508	55.455	-0.171	0.165
-350.493	-106.910	0.174	0.038
-349.479	265.532	-0.025	-0.043
-348.464	64.891	-0.034	-0.034
-347.450	135.893	-0.124	0.161
-346.435	150.244	0.017	0.022
-345.420	-200.000	0.006	-0.221
-344.406	800.000	-0.127	0.488
-343.391	-102.459	-0.088	-0.021
-342.377	197.372	0.150	0.228
-341.362	-11.001	-0.050	-0.033
-340.348	178.699	-0.134	-0.194
-339.333	-169.727	-0.103	0.004
-338.318	800.000	0.005	0.019
-337.304	95.703	0.290	0.329
-336.289	116.713	0.147	-0.180
-335.275	-87.232	-0.097	-0.029
-334.260	-200.000	0.052	-0.260
-333.245	301.401	-0.125	-0.229
-332.231	-200.000	0.059	0.262
-331.216	80.924	0.219	0.235
-330.202	-69.651	-0.085	-0.032
-329.187	-14.039	-0.125	-0.080
-328.172	-49.417	0.055	-0.026
-327.158	123.956	-0.185	-0.231
-326.143	321.315	0.159	0.301
-325.129	244.087	-0.172	0.287
-324.114	-200.000	0.011	-0.271
-323.099	173.084	-0.161	0.231
-322.085	-148.473	-0.104	0.008
-321.070	-200.000	0.017	-0.103
-320.056	27.586	0.190	-0.159
-319.041	-116.773	0.178	0.032
-318.026	-86.951	-0.178	0.054
-317.012	10.251	-0.322	0.243
-315.997	24.557	0.064	0.053
-314.983	800.000	-0.061	-0.188
-313.968	152.919	0.164	-0.222
-312.953	800.000	0.020	-0.077
-311.939	3.392	-0.082	0.059
-310.924	-200.000	0.009	-0.134
-309.910	-186.926	0.171	0.002
-308.895	-200.000	-0.003	-0.218
-307.880	800.000	0.075	-0.314
-306.866	246.660	0.089	0.150
-305.851	-164.812	-0.074	-0.003
-304.837	190.764	-0.073	0.110
-303.822	-200.000	0.028	-0.281
-302.807	-110.708	0.016	-0.003
-301.793	87.268	-0.120	-0.131
-300.778	-3.451	-0.154	-0.107
-299.764	-200.000	0.047	-0.407
-298.749	800.000	-0.018	-0.062
-297.735	-200.000	0.012	0.186
-296.720	178.333	-0.053	-0.077
-295.705	800.000	0.109	0.300
-294.691	-95.153	-0.196	0.052
-293.676	-200.000	-0.013	0.108
-292.662	474.203	-0.056	0.125
-291.647	279.980	-0.064	-0.113
-290.632	-138.108	0.053	-0.006
-289.618	-172.855	0.433	-0.013
-288.603	800.000	0.062	-0.188
-287.589	-167.730	-0.344	-0.014
-286.574	31.929	-0.196	-0.167
-285.559	-125.663	0.174	-0.026
-284.545	-46.603	0.261	0.127
-283.530	800.000	-0.032	-0.128
-282.516	-200.000	-0.034	-0.195
-281.501	-52.990	-0.089	0.041
-280.486	-136.094	-0.077	-0.009
-279.472	213.048	0.205	0.320
-278.457	-138.385	0.083	-0.009
-277.443	-25.209	0.125	-0.074
-276.428	26.800	-0.200	0.166
-275.413	796.196	-0.100	0.273
-274.399	81.837	-0.051	-0.054
-273.384	25.297	0.150	-0.123
-272.370	-95.492	-0.184	0.049
-271.355	-89.821	-0.151	0.044
-270.340	118.630	0.074	0.091
-269.326	-57.172	-0.149	0.065
-268.311	10.355	0.125	-0.094
-267.297	800.000	0.080	-0.272
-266.282	99.319	0.115	-0.132
-265.267	-200.000	0.000	0.090
-264.253	-111.969	0.070	-0.014
-263.238	-92.294	0.176	-0.049
-262.224	-55.697	0.256	0.113
-261.209	3.802	0.194	-0.140
-260.195	-200.000	-0.256	-0.000
-259.180	179.734	-0.228	0.332
-258.165	-93.642	0.438	0.120
-257.151	-7.177	-0.248	0.166
-256.136	800.000	-0.068	-0.235
-255.122	-13.375	-0.101	0.065
-254.107	-88.100	-0.267	0.079
-253.092	15.313	-0.180	-0.140
-252.078	-33.134	0.147	-0.081
-251.063	-4.952	0.590	0.403
-250.049	-200.000	-0.018	0.221
-249.034	-20.114	0.185	0.113
-248.019	800.000	-0.088	-0.295
-247.005	-103.216	0.191	-0.045
-245.990	-200.000	0.003	-0.134
-244.976	800.000	-0.063	-0.197
-243.961	14.223	0.174	0.134
-242.946	422.280	0.225	0.479
-241.932	61.568	-0.100	-0.098
-240.917	16.747	0.126	-0.099
-239.903	71.830	-0.181	-0.186
-238.888	800.000	-0.177	-0.623
-237.873	204.801	-0.200	0.307
-236.859	-180.856	0.132	0.003
-235.844	27.349	-0.121	-0.101
-234.830	84.060	-0.165	0.179
-233.815	82.528	-0.151	-0.162
-232.800	-149.682	0.276	-0.022
-231.786	568.434	-0.024	0.057
-230.771	-178.190	0.234	0.005
-229.757	800.000	-0.061	0.173
-228.742	-47.055	0.364	0.176
-227.727	-50.249	0.137	-0.064
-226.713	130.591	-0.283	0.359
-225.698	-200.000	-0.015	0.425
-224.684	50.187	-0.055	0.052
-223.669	-137.719	-0.180	-0.020
-222.655	365.947	0.041	-0.082
-221.640	-200.000	-0.016	0.212
-220.625	-200.000	-0.002	0.222
-219.611	19.490	-0.048	-0.038
-218.596	-159.294	-0.208	0.012
-217.582	83.711	-0.168	0.181
-216.567	800.000	0.053	-0.181
-215.552	-160.302	0.311	0.017
-214.538	336.451	-0.128	-0.245
-213.523	76.664	0.082	-0.086
-212.509	-200.000	-0.005	-0.245
-211.494	-111.696	-0.017	0.003
-210.479	800.000	-0.038	-0.140
-209.465	55.199	-0.139	0.133
-208.450	800.000	0.058	0.227
-207.436	-15.909	0.221	-0.139
-206.421	800.000	-0.083	-0.343
-205.406	244.723	0.039	-0.065
-204.392	151.023	0.209	0.282
-203.377	-200.000	-0.025	0.484
-202.363	-33.856	0.132	-0.072
-201.348	-149.692	0.149	-0.012
-200.333	-91.148	0.122	0.035
-199.319	800.000	0.110	0.399
-198.304	-200.000	-0.048	-0.302
-197.290	449.933	0.106	0.232
-196.275	-200.000	0.250	-0.001
-195.260	-95.075	-0.340	0.091
-194.246	-92.757	0.510	0.141
-193.231	-88.517	0.125	-0.037
-192.217	-92.779	0.300	0.083
-191.202	-200.000	-0.008	-0.054
-190.187	-139.896	-0.129	0.013
-189.173	29.952	0.058	0.048
-188.158	-68.762	-0.230	0.088
-187.144	-65.723	-0.282	-0.112
-186.129	-79.884	-0.289	0.096
-185.114	185.058	-0.077	0.113
-184.100	-200.000	0.040	0.327
-183.085	800.000	-0.056	-0.163
-182.071	-88.976	-0.343	0.100
-181.056	182.402	-0.064	-0.094
-180.042	48.479	-0.186	0.172
-179.027	675.927	-0.113	0.290
-178.012	-200.000	0.002	-0.085
-176.998	319.990	0.054	0.100
-175.983	-40.816	0.225	-0.115
-174.969	770.081	-0.067	-0.181
-173.954	219.741	-0.068	0.107
-172.939	800.000	0.087	0.240
-171.925	-200.000	0.021	0.239
-170.910	-121.497	0.186	-0.031
-169.896	-200.000	0.020	0.153
-168.881	80.770	0.091	0.097
-167.866	800.000	-0.023	0.069
-166.852	-184.382	0.148	-0.002
-165.837	-80.412	0.242	0.080
-164.823	-178.638	-0.177	-0.004
-163.808	-158.302	0.105	0.006
-162.793	45.689	0.137	0.125
-161.779	166.123	0.211	0.295
-160.764	777.185	-0.022	-0.059
-159.750	-200.000	0.027	-0.165
-158.735	-200.000	0.022	-0.171
-157.720	-27.775	0.146	0.084
-156.706	-174.107	0.339	0.010
-155.691	76.653	0.115	-0.120
-154.677	-200.000	-0.000	0.463
-153.662	-101.516	0.053	-0.013
-152.647	-200.000	0.008	0.034
-151.633	74.903	-0.161	0.168
-150.618	-200.000	-0.010	0.155
-149.604	595.370	0.093	0.228
-148.589	800.000	0.075	-0.230
-147.574	-55.743	0.129	-0.057
-146.560	205.883	0.098	-0.150
-145.545	-137.084	-0.068	0.008
-144.531	124.464	0.109	0.136
-143.516	209.422	-0.092	-0.141
-142.502	-200.000	0.062	-0.334
-141.487	-190.962	0.271	0.003
-140.472	94.490	0.222	-0.249
-139.458	170.165	0.240	0.339
-138.443	46.978	0.181	0.166
-137.429	-20.485	-0.033	-0.020
-136.414	-200.000	0.298	0.000
-135.399	107.338	0.209	0.245
-134.385	-110.223	-0.098	0.020
-133.370	800.000	-0.033	-0.091
-132.356	577.224	-0.051	0.123
-131.341	-17.003	0.076	-0.048
-130.326	-19.747	0.177	-0.108
-129.312	-32.339	0.225	-0.124
-128.297	448.975	0.051	0.111
-127.283	25.792	-0.179	-0.147
-126.268	457.909	0.136	0.299
-125.253	-28.389	-0.024	-0.014
-124.239	-58.427	0.178	-0.076
-123.224	-200.000	-0.028	0.330
-122.210	385.875	0.078	0.158
-121.195	429.317	0.125	-0.267
-120.180	74.614	-0.182	-0.189
-119.166	16.154	-0.071	-0.055
-118.151	121.177	0.086	-0.105
-117.137	800.000	-0.062	0.172
-116.122	-37.645	0.238	-0.125
-115.107	-200.000	-0.011	-0.082
-114.093	800.000	-0.075	0.219
-113.078	-19.949	0.268	0.163
-112.064	-2.432	-0.140	-0.097
-111.049	-200.000	0.054	0.305
-110.034	24.070	-0.271	0.221
-109.020	62.264	0.114	0.112
-108.005	26.365	0.242	0.199
-106.991	232.977	-0.186	-0.300
-105.976	-200.000	-0.012	0.201
-104.962	-200.000	0.011	0.322
-103.947	-125.161	-0.324	-0.049
-102.932	-200.000	-0.001	0.146
-101.918	-200.000	-0.003	-0.211
-100.903	800.000	-0.079	0.230
-99.889	598.075	0.120	-0.293
-98.874	22.532	0.113	-0.091
-97.859	-0.758	0.104	0.072
-96.845	-200.000	0.038	-0.208
-95.830	800.000	0.071	-0.276
-94.816	800.000	-0.063	0.219
-93.801	800.000	0.036	0.124
-92.786	39.843	-0.222	-0.196
-91.772	-63.641	0.411	-0.166
-90.757	800.000	-0.110	-0.298
-89.743	-43.575	0.392	0.195
-88.728	677.532	-0.126	-0.323
-87.713	258.434	0.085	-0.145
-86.699	-23.421	-0.086	0.051
-85.684	-103.505	0.207	0.048
-84.670	800.000	-0.015	-0.054
-83.655	38.420	0.203	-0.178
-82.640	-114.063	0.177	-0.034
-81.626	-25.846	-0.121	0.070
-80.611	144.403	-0.174	0.228
-79.597	587.503	0.094	-0.229
-78.582	-37.976	0.049	0.025
-77.567	-137.891	0.180	0.020
-76.553	-71.699	-0.271	0.099
-75.538	-152.998	-0.487	0.034
-74.524	47.744	-0.171	0.157
-73.509	733.409	-0.083	-0.219
-72.494	-90.438	-0.161	0.046
-71.480	39.449	-0.188	-0.166
-70.465	211.302	0.181	0.280
-69.451	608.221	0.118	0.290
-68.436	-145.955	0.490	-0.043
-67.422	315.174	-0.029	0.053
-66.407	800.000	-0.076	0.226
-65.392	13.064	0.028	0.021
-64.378	198.620	0.218	0.328
-63.363	31.120	0.036	-0.030
-62.349	800.000	-0.050	0.153
-61.334	14.277	-1.005	-0.771
-60.319	101.609	0.446	0.511
-59.305	343.920	-0.442	-0.852
-58.290	270.438	0.618	1.068
-57.276	800.000	0.390	1.345
-56.261	-200.000	99.101	607.264
-55.246	605.360	1400.112	3428.507
-54.232	193.850	2582.304	3843.901
-53.217	118.716	2161.601	2624.489
-52.203	42.309	1699.282	1518.153
-51.188	34.550	1510.158	1296.668
-50.173	32.158	1483.276	1257.549
-49.159	52.239	1534.389	1438.078
-48.144	53.758	1552.608	1465.437
-47.130	34.797	1510.817	1298.709
-46.115	31.616	1495.990	1264.460
-45.100	31.289	1492.485	1259.249
-44.086	31.463	1490.688	1258.855
-43.071	31.467	1488.226	1256.752
-42.057	31.321	1487.020	1254.701
-41.042	31.400	1485.400	1253.811
-40.027	31.253	1484.310	1251.858
-39.013	31.253	1482.907	1250.628
-37.998	31.280	1481.427	1249.510
-36.984	31.325	1480.044	1248.596
-35.969	31.354	1478.734	1247.634
-34.954	31.282	1477.424	1245.998
-33.940	31.346	1475.953	1245.133
-32.925	31.341	1474.855	1244.123
-31.911	31.411	1473.147	1243.097
-30.896	31.394	1472.085	1242.040
-29.881	31.444	1470.685	1241.143
-28.867	31.452	1469.385	1240.047
-27.852	31.463	1467.694	1238.643
-26.838	31.272	1467.277	1236.978
-25.823	31.434	1464.952	1236.044
-24.809	31.433	1463.286	1234.581
-23.794	31.397	1462.155	1233.338
-22.779	31.419	1460.740	1232.243
-21.765	31.376	1459.843	1231.152
-20.750	31.359	1458.823	1230.130
-19.736	31.373	1457.709	1229.236
-18.721	31.342	1456.896	1228.301
-17.706	31.387	1455.227	1227.139
-16.692	31.436	1453.973	1226.356
-15.677	31.303	1453.462	1225.004
-14.663	31.281	1452.619	1224.100
-13.648	31.296	1451.334	1223.065
-12.633	31.325	1450.033	1222.109
-11.619	31.319	1449.482	1221.556
-10.604	31.307	1448.369	1220.493
-9.590	31.333	1447.701	1220.053
-8.575	31.418	1446.987	1219.954
-7.560	31.329	1446.368	1218.804
-6.546	31.278	1445.075	1217.337
-5.531	31.163	1444.715	1216.232
-4.517	31.201	1443.726	1215.603
-3.502	31.264	1442.265	1214.733
-2.487	31.358	1441.478	1214.630
-1.473	31.268	1440.471	1213.148
-0.458	31.285	1439.116	1212.071
0.556	29.934	1429.810	1201.078
1.571	26.908	1404.306	1160.238
2.586	23.470	1345.657	1090.577
3.600	21.648	1265.612	1015.066
4.615	20.407	1220.523	971.876
5.629	17.767	1164.682	913.214
6.644	10.653	1083.574	813.985
7.659	5.341	1045.096	759.259
8.673	4.703	1039.521	752.057
9.688	4.677	1036.546	749.715
10.702	4.564	1034.912	747.923
11.717	4.337	1033.519	745.761
12.731	6.475	1034.484	756.665
13.746	13.112	1043.359	795.141
14.761	18.126	1049.642	824.087
15.775	18.177	1048.964	823.724
16.790	17.488	1046.253	818.213
17.804	16.330	1044.554	811.254
18.819	15.376	1042.868	805.294
19.834	15.051	1041.182	802.366
20.848	14.623	1040.450	799.676
21.863	14.475	1040.042	798.582
22.877	14.292	1039.260	797.038
23.892	14.120	1038.194	795.328
24.907	13.999	1037.108	793.846
25.921	13.915	1036.573	792.967
26.936	13.977	1036.255	792.947
27.950	14.065	1034.882	792.246
28.965	14.160	1033.535	791.596
29.980	14.193	1032.566	790.944
30.994	14.263	1031.712	790.552
32.009	14.222	1031.164	789.865
33.023	14.442	1029.927	789.894
34.038	14.340	1029.527	789.031
35.053	14.277	1028.623	787.972
36.067	14.165	1027.373	786.413
37.082	14.259	1026.495	786.114
38.096	14.218	1025.758	785.289
39.111	14.308	1025.019	785.077
40.126	14.182	1024.573	784.075
41.140	14.213	1023.020	782.960
42.155	14.052	1021.813	781.212
43.169	13.971	1021.220	780.311
44.184	13.930	1020.201	779.270
45.199	13.928	1018.821	778.134
46.213	13.986	1017.806	777.566
47.228	13.922	1017.001	776.581
48.242	14.007	1015.867	776.045
49.257	14.116	1015.199	775.974
50.271	14.018	1014.436	774.866
51.286	14.102	1013.243	774.276
52.301	14.279	1012.478	774.447
53.315	14.118	1011.951	773.228
54.330	14.065	1011.350	772.451
55.344	14.048	1010.312	771.510
56.359	14.038	1008.960	770.365
57.374	14.072	1007.980	769.704
58.388	14.141	1007.389	769.505
59.403	13.930	1006.589	767.850
60.417	13.845	1005.874	766.845
61.432	13.889	1005.253	766.508
62.447	13.939	1004.401	766.018
63.461	13.783	1003.610	764.628
64.476	13.837	1002.634	764.067
65.490	13.744	1001.978	763.073
66.505	13.827	1001.087	762.707
67.520	13.768	1000.498	761.922
68.534	13.808	999.617	761.365
69.549	13.862	999.009	761.084
70.563	13.874	998.178	760.438
71.578	13.878	997.408	759.803
72.593	13.775	996.625	758.665
73.607	13.677	996.028	757.699
74.622	13.749	994.867	757.077
75.636	13.651	994.273	756.110
76.651	13.916	992.981	756.269
77.666	13.679	992.744	754.942
78.680	13.752	992.035	754.667
79.695	13.766	991.606	754.335
80.709	13.730	991.085	753.711
81.724	13.898	990.017	753.595
82.739	13.905	989.300	753.012
83.753	14.020	988.535	752.885
84.768	14.014	987.672	752.134
85.782	14.200	987.133	752.501
86.797	14.237	986.479	752.101
87.812	14.304	985.605	751.672
88.826	14.210	984.888	750.633
89.841	14.053	984.526	749.582
90.855	14.120	982.923	748.598
91.870	14.196	982.891	748.848
92.884	14.223	982.298	748.451
93.899	14.159	980.995	747.107
94.914	14.363	980.043	747.229
95.928	14.256	979.719	746.439
96.943	14.491	978.551	746.532
97.957	14.251	978.041	745.004
98.972	14.333	977.102	744.592
99.987	14.378	976.522	744.282
101.001	14.223	975.794	742.970
102.016	14.203	974.892	742.129
103.030	14.142	974.297	741.341
104.045	14.213	973.460	740.953
105.060	14.188	972.758	740.243
106.074	14.122	971.576	738.983
107.089	13.988	970.798	737.729
108.103	13.887	969.789	736.450
109.118	13.991	968.548	735.904
110.133	13.945	967.972	735.198
111.147	13.869	967.439	734.394
112.162	13.971	965.896	733.604
113.176	13.908	965.906	733.270
114.191	14.026	964.399	732.582
115.206	14.059	963.838	732.235
116.220	14.025	963.177	731.522
117.235	13.983	962.195	730.523
118.249	14.185	961.179	730.574
119.264	13.974	960.508	729.075
120.279	13.946	959.816	728.361
121.293	13.923	958.989	727.568
122.308	13.917	958.105	726.807
123.322	14.043	956.997	726.452
124.337	13.885	956.550	725.359
125.352	13.884	955.339	724.375
126.366	13.928	953.743	723.292
127.381	13.791	953.006	722.073
128.395	13.837	952.193	721.592
129.410	13.876	951.019	720.809
130.424	13.910	950.426	720.443
131.439	13.917	949.270	719.534
132.454	13.976	948.643	719.249
133.468	14.121	947.747	719.132
134.483	14.043	947.346	718.428
135.497	14.067	946.579	717.887
136.512	14.015	946.269	717.363
137.527	13.953	945.459	716.418
138.541	14.126	944.436	716.324
139.556	14.118	943.780	715.728
140.570	14.196	942.611	715.117
141.585	14.175	941.831	714.370
142.600	14.184	941.742	714.277
143.614	14.140	940.922	713.402
144.629	14.314	939.869	713.286
145.643	14.453	939.101	713.235
146.658	14.249	938.825	712.093
147.673	14.249	937.380	710.931
148.687	14.206	936.417	709.955
149.702	14.227	935.463	709.260
150.716	14.131	934.906	708.366
151.731	14.104	934.217	707.667
152.746	14.297	933.521	707.894
153.760	14.095	933.010	706.588
154.775	14.116	932.134	705.950
155.789	14.259	931.489	706.008
156.804	14.286	930.902	705.614
157.819	14.286	930.124	704.962
158.833	14.231	929.695	704.343
159.848	14.275	928.827	703.807
160.862	14.450	928.130	703.956
161.877	14.404	927.238	703.023
162.892	14.226	926.379	701.560
163.906	14.163	925.578	700.625
164.921	14.251	924.647	700.230
165.935	14.143	924.062	699.272
166.950	14.209	922.899	698.603
167.964	14.279	922.101	698.232
168.979	14.179	921.375	697.203
169.994	14.261	919.470	696.042
171.008	14.210	919.234	695.589
172.023	14.292	918.533	695.339
173.037	14.312	917.317	694.439
174.052	14.422	917.014	694.607
175.067	14.318	916.636	693.826
176.081	14.247	915.315	692.469
177.096	14.182	914.622	691.615
178.110	14.265	913.716	691.215
179.125	14.299	913.279	690.961
180.140	14.209	912.462	689.910
181.154	14.306	912.159	690.021
182.169	14.405	911.286	689.710
183.183	14.464	910.527	689.319
184.198	14.438	910.073	688.809
185.213	14.520	908.950	688.236
186.227	14.554	908.678	688.106
187.242	14.560	907.939	687.510
188.256	14.510	907.711	687.071
189.271	14.521	906.760	686.338
190.286	14.662	905.785	686.119
191.300	14.552	905.105	685.089
192.315	14.308	904.494	683.565
193.329	14.331	903.505	682.851
194.344	14.175	903.166	681.895
195.359	14.422	902.008	681.972
196.373	14.425	901.781	681.753
197.388	14.476	901.547	681.722
198.402	14.669	901.152	682.152
199.417	14.639	900.718	681.640
200.432	14.851	900.191	682.048
201.446	14.800	899.976	681.616
202.461	14.812	899.635	681.348
203.475	14.837	898.494	680.524
204.490	14.919	897.814	680.284
205.504	14.926	897.222	679.804
206.519	14.788	896.338	678.512
207.534	14.820	895.694	678.093
208.548	14.638	895.208	676.929
209.563	14.619	894.786	676.472
210.577	14.772	893.529	676.081
211.592	14.687	893.432	675.605
212.607	14.755	892.656	675.233
213.621	14.954	892.042	675.512
214.636	15.017	891.187	675.058
215.650	14.811	890.899	673.952
216.665	14.891	890.090	673.600
217.680	14.908	889.752	673.356
218.694	14.896	889.076	672.735
219.709	15.009	888.509	672.700
220.723	15.008	888.320	672.493
221.738	15.086	887.070	671.802
222.753	15.063	886.557	671.261
223.767	14.984	885.748	670.273
224.782	15.070	884.960	669.963
225.796	15.113	884.205	669.504
226.811	15.074	883.748	668.940
227.826	15.136	882.746	668.371
228.840	15.074	882.331	667.752
229.855	15.006	882.058	667.213
230.869	14.986	881.043	666.307
231.884	15.024	880.081	665.672
232.899	14.955	879.532	664.921
233.913	14.981	878.692	664.332
234.928	15.043	878.171	664.124
235.942	14.986	877.480	663.317
236.957	14.854	876.738	662.178
237.972	14.887	876.095	661.762
238.986	14.929	875.668	661.547
240.001	14.911	875.153	661.028
241.015	15.080	874.010	660.775
242.030	15.143	873.556	660.623
243.045	15.232	872.800	660.343
244.059	15.177	872.877	660.123
245.074	15.011	872.307	658.980
246.088	15.181	871.356	658.873
247.103	15.286	870.416	658.519
248.117	15.319	870.272	658.479
249.132	15.311	869.943	658.139
250.147	15.513	869.221	658.327
251.161	15.531	868.691	657.938
252.176	15.644	868.008	657.806
253.190	15.546	867.223	656.770
254.205	15.635	866.845	656.774
255.220	15.704	866.350	656.610
256.234	15.682	865.343	655.701
257.249	15.750	864.444	655.228
258.263	15.637	864.229	654.567
259.278	15.725	863.508	654.305
260.293	15.760	863.014	654.010
261.307	15.797	862.514	653.715
262.322	15.800	862.095	653.352
263.336	15.817	861.451	652.872
264.351	16.011	860.596	652.919
265.366	15.976	860.404	652.580
266.380	15.962	859.666	651.906
267.395	15.925	858.926	651.146
268.409	15.763	858.957	650.486
269.424	15.837	857.470	649.588
270.439	15.807	856.782	648.895
271.453	15.751	856.198	648.178
272.468	15.776	855.341	647.567
273.482	15.778	854.720	647.046
274.497	15.817	854.172	646.726
275.512	15.854	853.312	646.159
276.526	15.849	852.895	645.766
277.541	15.806	852.188	645.009
278.555	15.892	851.384	644.675
279.570	15.928	850.911	644.396
280.585	15.918	850.637	644.095
281.599	15.996	850.085	643.918
282.614	15.959	849.950	643.616
283.628	15.882	849.018	642.561
284.643	15.986	848.559	642.551
285.657	15.985	847.777	641.897
286.672	15.908	847.501	641.339
287.687	15.963	846.581	640.798
288.701	16.125	846.081	640.977
289.716	16.048	845.680	640.322
290.730	16.020	845.094	639.718
291.745	16.114	844.053	639.228
292.760	15.933	844.054	638.488
293.774	16.098	843.008	638.264
294.789	16.216	842.506	638.275
295.803	16.215	842.060	637.876
296.818	16.101	841.103	636.665
297.833	15.926	840.856	635.761
298.847	16.178	839.942	635.963
299.862	16.165	839.360	635.416
300.876	16.134	838.530	634.616
301.891	16.157	838.278	634.455
302.906	16.357	837.285	634.398
303.920	16.216	837.063	633.647
304.935	16.453	836.221	633.840
305.949	16.424	836.007	633.512
306.964	16.304	835.013	632.253
307.979	16.365	834.661	632.159
308.993	16.457	834.122	632.043
310.008	16.470	833.781	631.776
311.022	16.431	833.127	631.079
312.037	16.436	832.532	630.590
313.052	16.413	831.931	629.995
314.066	16.305	830.930	628.778
315.081	16.307	830.728	628.574
316.095	16.170	830.186	627.599
317.110	16.365	829.517	627.765
318.125	16.297	828.937	627.016
319.139	16.400	828.754	627.207
320.154	16.223	828.351	626.189
321.168	16.282	827.575	625.766
322.183	16.311	826.820	625.245
323.197	16.350	826.686	625.235
324.212	16.438	826.015	624.995
325.227	16.393	825.715	624.549
326.241	16.453	825.026	624.195
327.256	16.378	824.429	623.410
328.270	16.321	823.998	622.819
329.285	16.562	823.163	623.021
330.300	16.402	822.646	621.985
331.314	16.464	821.963	621.642
332.329	16.417	821.398	620.985
333.343	16.514	820.910	620.917
334.358	16.560	820.421	620.663
335.373	16.628	819.952	620.503
336.387	16.805	819.135	620.477
337.402	16.722	818.622	619.728
338.416	16.818	818.493	619.927
339.431	16.713	817.946	619.076
340.446	16.804	817.490	619.009
341.460	16.909	816.889	618.880
342.475	17.053	815.880	618.587
343.489	16.882	815.380	617.530
344.504	16.890	815.271	617.424
345.519	16.990	814.475	617.130
346.533	17.164	813.885	617.259
347.548	17.163	813.329	616.779
348.562	17.074	812.923	616.096
349.577	16.734	812.928	614.809
350.592	16.735	812.160	614.179
351.606	16.748	811.787	613.890
352.621	16.741	811.288	613.430
353.635	16.737	810.711	612.926
354.650	16.796	810.372	612.828
355.665	16.993	809.725	612.999
356.679	16.908	809.310	612.321
357.694	16.917	808.856	611.956
358.708	16.770	808.526	611.121
359.723	16.996	807.774	611.314
360.738	16.879	807.092	610.323
361.752	16.923	806.528	610.001
362.767	17.113	806.093	610.302
363.781	17.134	805.806	610.106
364.796	17.086	805.658	609.766
365.810	17.128	805.370	609.644
366.825	17.304	804.743	609.748
367.840	17.304	804.435	609.462
368.854	17.248	804.266	609.078
369.869	17.318	803.271	608.522
370.883	17.269	802.968	608.063
371.898	17.306	802.090	607.476
372.913	17.343	801.432	607.056
373.927	17.401	800.718	606.670
374.942	17.262	800.474	605.935
375.956	17.348	799.990	605.819
376.971	17.334	799.481	605.334
377.986	17.459	798.778	605.192
379.000	17.560	798.097	604.978
380.015	17.504	797.781	604.487
381.029	17.569	796.916	604.011
382.044	17.560	796.440	603.565
383.059	17.462	796.189	602.973
384.073	17.658	795.639	603.197
385.088	17.558	795.263	602.505
386.102	17.465	794.551	601.583
387.117	17.444	793.955	601.003
388.132	17.528	793.356	600.795
389.146	17.415	793.208	600.229
390.161	17.465	792.974	600.177
391.175	17.568	792.801	600.354
392.190	17.600	792.129	599.906
393.205	17.582	791.914	599.628
394.219	17.650	791.198	599.272
395.234	17.612	790.672	598.687
396.248	17.598	790.170	598.205
397.263	17.583	789.612	597.677
398.278	17.371	789.406	596.723
399.292	17.313	788.844	596.043
400.307	17.551	788.428	596.509
401.321	17.411	788.333	595.896
402.336	17.496	787.876	595.794
403.350	17.532	787.035	595.231
404.365	17.646	786.657	595.292
405.380	17.725	786.498	595.393
406.394	17.726	786.053	595.006
407.409	17.856	785.561	595.036
408.423	17.770	785.367	594.536
409.438	17.740	784.921	594.043
410.453	17.937	784.226	594.147
411.467	17.897	783.808	593.640
412.482	17.926	783.320	593.320
413.496	18.017	782.841	593.221
414.511	17.964	782.862	592.998
415.526	18.052	782.479	592.961
416.540	18.117	781.505	592.398
417.555	18.121	781.223	592.145
418.569	18.028	780.927	591.545
419.584	18.027	780.395	591.087
420.599	18.020	780.517	591.103
421.613	156.484	1369.841	1796.574
422.628	135.051	1455.699	1796.681
