DTS Sentinel unit serial number:	SN413079Multiplexer serial number:	ORYXHardware model number:	OX4-SRSoftware version number:	ORYX F/W v4.00 Oryx Data Collector v3.7.2.0data status	okinstallation	princeton_trtdifferential loss correction	single-endedforward channel	channel 3reverse channel	N/Adate	2019/09/13time	12:36:34forward acquisition time	60.00reverse acquisition time	0.00gamma	496.2192k internal	0.2304k external	0.2304temperature offset calibration	1.0155default loss term (dB/km)	0.3790temperature slope calibration	1.0000multiplexer offset coefficient	1.0000multiplexer slope coefficient	1.0000fibre end	0.00T internal ref (°C)	34.53T ext. ref 1 (°C)	4.61T ext. ref 2 (°C)	31.52length (m)	temperature (°C)	Stokes	anti-Stokes-747.200	-34.242	-0.239	-0.134
-746.185	-3.999	-0.110	0.078
-745.171	51.811	0.125	0.121
-744.156	3.395	0.179	0.133
-743.142	-116.006	-0.104	0.020
-742.127	-27.156	-0.349	-0.207
-741.112	118.411	-0.244	-0.306
-740.098	1.937	-0.075	0.055
-739.083	-71.485	0.280	-0.107
-738.069	160.909	-0.117	0.166
-737.054	-7.017	-0.136	0.094
-736.039	237.204	-0.064	0.107
-735.025	-200.000	0.020	0.264
-734.010	-50.245	-0.116	-0.056
-732.996	682.646	0.103	0.273
-731.981	310.573	0.073	0.139
-730.966	-128.794	0.283	0.041
-729.952	-16.502	-0.225	-0.145
-728.937	-52.059	-0.126	0.060
-727.923	-136.765	0.161	-0.019
-726.908	63.796	-0.087	-0.089
-725.894	103.187	0.148	-0.177
-724.879	53.117	-0.075	0.073
-723.864	-200.000	-0.037	-0.272
-722.850	-103.401	-0.101	-0.024
-721.835	-92.475	-0.399	-0.114
-720.821	-112.054	-0.301	0.062
-719.806	94.031	-0.115	0.133
-718.791	-64.148	0.156	-0.065
-717.777	1.641	0.091	0.067
-716.762	800.000	-0.063	0.212
-715.748	-31.384	-0.241	-0.138
-714.733	60.818	-0.071	-0.072
-713.718	-200.000	-0.077	-0.463
-712.704	-31.688	0.271	-0.155
-711.689	15.448	-0.291	0.232
-710.675	3.825	0.141	-0.105
-709.660	-122.956	0.187	0.031
-708.645	70.403	0.270	0.284
-707.631	72.034	0.127	-0.134
-706.616	9.583	-0.371	0.285
-705.602	475.664	0.095	0.218
-704.587	-200.000	-0.013	0.107
-703.572	-114.944	0.281	-0.054
-702.558	-200.000	-0.040	0.200
-701.543	-107.672	0.156	-0.035
-700.529	-176.784	0.312	0.008
-699.514	279.387	0.149	0.270
-698.499	200.098	-0.028	-0.043
-697.485	114.057	0.100	-0.124
-696.470	-102.437	0.328	-0.080
-695.456	-0.019	-0.037	-0.027
-694.441	-145.560	-0.098	0.009
-693.426	-200.000	0.028	-0.236
-692.412	-104.677	-0.258	-0.060
-691.397	5.203	-0.163	0.122
-690.383	3.480	-0.202	0.149
-689.368	-181.618	-0.360	0.007
-688.354	-16.163	0.333	0.215
-687.339	800.000	-0.057	-0.171
-686.324	67.683	-0.152	-0.158
-685.310	544.771	0.062	-0.150
-684.295	-99.739	-0.412	0.105
-683.281	166.298	0.049	-0.070
-682.266	-134.386	-0.260	-0.032
-681.251	294.682	-0.115	0.213
-680.237	-200.000	0.001	0.084
-679.222	-200.000	-0.072	-0.330
-678.208	-200.000	-0.005	-0.131
-677.193	303.384	0.039	0.074
-676.178	-200.000	0.028	-0.278
-675.164	-48.983	0.059	0.029
-674.149	-53.580	0.142	-0.066
-673.135	-90.704	0.245	0.072
-672.120	-56.369	-0.092	0.041
-671.105	-200.000	-0.006	-0.307
-670.091	9.175	0.095	0.073
-669.076	357.449	0.089	-0.180
-668.062	-200.000	0.027	0.119
-667.047	51.850	0.161	0.156
-666.032	-39.995	-0.165	0.087
-665.018	-114.553	0.258	0.050
-664.003	-123.655	-0.153	0.025
-662.989	-34.260	0.222	0.124
-661.974	-40.757	0.246	-0.130
-660.959	47.999	-0.171	-0.162
-659.945	5.602	0.107	-0.080
-658.930	-200.000	-0.001	0.214
-657.916	-52.940	0.089	0.042
-656.901	-102.081	-0.189	0.046
-655.886	-200.000	-0.007	-0.038
-654.872	-86.118	-0.130	0.041
-653.857	24.204	-0.356	0.298
-652.843	108.333	0.126	0.152
-651.828	-108.525	-0.377	-0.082
-650.814	-200.000	-0.001	0.144
-649.799	-143.436	0.383	0.037
-648.784	-106.910	0.341	-0.077
-647.770	-200.000	-0.023	-0.225
-646.755	-141.586	0.123	0.013
-645.741	-50.756	0.113	-0.054
-644.726	140.479	-0.168	-0.225
-643.711	538.817	-0.157	-0.378
-642.697	31.844	0.120	0.105
-641.682	59.584	-0.097	-0.097
-640.668	-78.544	0.275	0.095
-639.653	302.679	-0.035	-0.066
-638.638	-19.383	0.384	-0.241
-637.624	-67.091	-0.019	-0.007
-636.609	33.641	-0.123	0.109
-635.595	412.487	-0.123	0.266
-634.580	-12.510	0.057	0.038
-633.565	-9.781	-0.062	0.042
-632.551	-41.617	-0.124	0.065
-631.536	105.869	0.096	-0.115
-630.522	-200.000	0.021	-0.238
-629.507	800.000	-0.081	0.303
-628.492	-200.000	0.052	0.396
-627.478	215.758	-0.236	0.381
-626.463	-48.489	-0.178	-0.087
-625.449	213.556	0.164	0.262
-624.434	-200.000	-0.012	0.242
-623.419	43.387	0.144	-0.134
-622.405	-89.652	-0.209	-0.062
-621.390	-97.875	-0.220	-0.058
-620.376	551.327	-0.134	0.327
-619.361	41.757	-0.140	0.128
-618.346	-35.876	-0.268	-0.147
-617.332	75.597	0.093	0.099
-616.317	244.494	0.156	0.265
-615.303	-83.997	0.265	0.085
-614.288	-70.757	-0.279	0.107
-613.273	261.040	0.139	-0.243
-612.259	-200.000	-0.003	0.090
-611.244	-107.329	-0.203	0.045
-610.230	-194.367	0.094	-0.001
-609.215	205.708	-0.216	-0.339
-608.201	-135.812	0.250	0.030
-607.186	-200.000	-0.020	-0.098
-606.171	98.109	0.154	0.180
-605.157	125.741	0.167	0.214
-604.142	-121.440	0.237	0.040
-603.128	-52.809	-0.162	0.075
-602.113	-139.688	-0.562	-0.061
-601.098	800.000	0.051	-0.181
-600.084	-44.828	0.377	-0.190
-599.069	502.949	0.049	0.115
-598.055	-200.000	-0.002	-0.190
-597.040	-10.729	-0.266	0.178
-596.025	134.857	-0.075	-0.099
-595.011	41.839	-0.287	0.264
-593.996	-158.532	0.112	-0.007
-592.982	800.000	0.005	-0.015
-591.967	-200.000	0.005	-0.047
-590.952	479.512	0.122	0.280
-589.938	800.000	0.046	0.203
-588.923	-200.000	0.052	-0.235
-587.909	186.184	-0.124	0.187
-586.894	468.679	0.069	-0.157
-585.879	800.000	-0.094	0.351
-584.865	-36.431	-0.322	-0.176
-583.850	79.871	-0.052	-0.057
-582.836	-200.000	0.003	-0.256
-581.821	91.094	0.181	-0.205
-580.806	-162.363	0.214	-0.011
-579.792	98.610	0.193	-0.225
-578.777	24.691	-0.186	0.156
-577.763	-200.000	-0.136	0.000
-576.748	-200.000	0.008	-0.050
-575.733	-200.000	0.022	-0.203
-574.719	11.739	-0.309	-0.240
-573.704	-200.000	-0.007	0.292
-572.690	-39.329	-0.187	-0.099
-571.675	-200.000	-0.012	-0.069
-570.661	-128.576	0.080	-0.012
-569.646	-200.000	-0.038	0.215
-568.631	-8.975	-0.172	-0.116
-567.617	-200.000	0.007	-0.234
-566.602	800.000	-0.103	0.427
-565.588	-40.473	0.250	-0.131
-564.573	-200.000	-0.060	0.265
-563.558	-18.688	0.196	-0.124
-562.544	319.317	0.105	-0.201
-561.529	-42.909	-0.105	-0.054
-560.515	0.859	0.199	0.144
-559.500	-160.163	-0.400	0.022
-558.485	131.334	0.200	0.260
-557.471	86.416	0.167	0.186
-556.456	72.307	-0.185	-0.194
-555.442	800.000	0.010	-0.028
-554.427	35.189	-0.158	0.140
-553.412	-150.517	0.123	-0.010
-552.398	-34.051	-0.255	-0.142
-551.383	-200.000	-0.021	0.128
-550.369	800.000	0.028	0.121
-549.354	-90.565	0.195	-0.057
-548.339	379.345	-0.031	0.064
-547.325	-200.000	-0.039	0.303
-546.310	250.350	-0.082	0.140
-545.296	-200.000	-0.006	-0.089
-544.281	89.570	0.205	-0.231
-543.266	-27.406	0.241	0.142
-542.252	800.000	0.072	0.216
-541.237	136.559	-0.280	-0.369
-540.223	190.630	0.168	-0.255
-539.208	-146.088	0.204	0.018
-538.193	520.133	-0.117	-0.278
-537.179	-200.000	0.011	-0.141
-536.164	-72.888	-0.252	-0.094
-535.150	514.655	0.153	-0.361
-534.135	-153.363	-0.109	-0.008
-533.121	-53.167	0.193	-0.089
-532.106	-9.141	0.237	0.160
-531.091	-200.000	-0.020	0.440
-530.077	-35.365	-0.326	-0.179
-529.062	-150.066	0.268	-0.021
-528.048	780.678	0.035	-0.097
-527.033	489.561	0.110	0.253
-526.018	-110.675	0.388	-0.081
-525.004	412.784	0.090	-0.192
-523.989	403.595	-0.145	0.307
-522.975	25.223	0.288	-0.241
-521.960	216.023	-0.109	-0.175
-520.945	-92.561	0.171	-0.049
-519.931	-200.000	-0.293	-0.001
-518.916	-119.429	-0.134	0.023
-517.902	-124.675	0.300	0.047
-516.887	139.844	-0.050	0.067
-515.872	71.074	0.357	-0.374
-514.858	182.937	0.174	-0.259
-513.843	-62.589	-0.235	0.098
-512.829	198.013	0.021	-0.032
-511.814	-133.605	-0.238	-0.030
-510.799	-200.000	0.010	0.113
-509.785	25.045	0.177	-0.148
-508.770	-146.306	0.055	0.005
-507.756	800.000	0.040	0.171
-506.741	129.606	-0.428	0.552
-505.726	225.048	0.186	0.304
-504.712	76.305	0.166	-0.178
-503.697	118.720	-0.098	-0.123
-502.683	679.944	-0.075	-0.196
-501.668	-57.300	-0.359	-0.159
-500.653	23.172	0.111	0.092
-499.639	173.981	0.100	-0.146
-498.624	-200.000	-0.006	0.162
-497.610	-16.668	-0.289	-0.184
-496.595	-106.154	0.045	-0.010
-495.581	124.365	0.173	-0.220
-494.566	-99.748	-0.183	0.046
-493.551	-8.981	-0.101	0.068
-492.537	-200.000	0.048	0.300
-491.522	800.000	0.114	0.375
-490.508	-128.309	-0.361	-0.052
-489.493	-58.551	0.369	-0.162
-488.478	19.471	0.445	-0.361
-487.464	403.624	0.065	-0.138
-486.449	-60.476	-0.254	0.109
-485.435	-92.189	0.118	-0.033
-484.420	19.861	0.175	0.142
-483.405	235.404	0.075	-0.126
-482.391	-7.997	0.116	-0.079
-481.376	-200.000	-0.002	0.221
-480.362	800.000	-0.043	0.138
-479.347	121.844	0.095	-0.119
-478.332	800.000	0.093	0.308
-477.318	800.000	-0.082	0.326
-476.303	-64.228	0.075	-0.031
-475.289	-66.562	0.258	-0.103
-474.274	204.427	-0.050	-0.078
-473.259	800.000	0.113	0.365
-472.245	107.559	-0.153	-0.183
-471.230	-109.310	0.088	-0.019
-470.216	-3.390	0.233	0.163
-469.201	94.230	-0.151	-0.173
-468.186	43.303	0.225	-0.207
-467.172	-75.684	-0.076	-0.027
-466.157	-129.864	-0.437	-0.060
-465.143	104.211	0.180	-0.213
-464.128	-127.072	-0.354	0.052
-463.113	-63.170	0.142	-0.059
-462.099	-113.664	0.422	0.083
-461.084	-48.373	-0.112	-0.054
-460.070	-124.703	-0.356	0.055
-459.055	294.212	0.145	-0.267
-458.040	-200.000	0.005	-0.254
-457.026	-46.281	-0.190	0.094
-456.011	111.353	-0.198	-0.241
-454.997	69.822	0.272	0.282
-453.982	146.606	-0.091	-0.123
-452.968	49.131	0.025	0.024
-451.953	-72.030	-0.194	-0.073
-450.938	-29.942	-0.178	-0.102
-449.924	-86.181	0.248	-0.077
-448.909	55.187	-0.071	0.069
-447.895	-200.000	0.001	-0.147
-446.880	-200.000	-0.014	0.124
-445.865	26.711	0.201	-0.170
-444.851	-54.910	0.097	-0.044
-443.836	-68.712	-0.070	-0.027
-442.822	497.018	0.161	0.373
-441.807	194.882	0.155	-0.236
-440.792	403.405	0.066	0.140
-439.778	-200.000	-0.008	-0.228
-438.763	-74.873	-0.317	0.114
-437.749	-158.335	0.284	-0.017
-436.734	-136.941	0.199	-0.023
-435.719	-200.000	0.005	-0.083
-434.705	18.528	0.202	0.163
-433.690	-4.374	-0.217	0.151
-432.676	-23.825	-0.157	-0.095
-431.661	-5.178	-0.347	0.240
-430.646	-125.981	-0.170	0.026
-429.632	-149.168	-0.470	-0.038
-428.617	-60.072	0.103	0.044
-427.603	-200.000	-0.040	-0.244
-426.588	17.249	0.244	-0.195
-425.573	-200.000	0.010	-0.317
-424.559	-200.000	-0.027	-0.206
-423.544	-141.763	0.134	0.013
-422.530	10.425	0.097	0.074
-421.515	-200.000	0.039	0.249
-420.500	-63.949	0.132	0.054
-419.486	-21.001	-0.201	0.124
-418.471	513.825	0.139	0.325
-417.457	-22.402	-0.125	-0.076
-416.442	-91.421	0.522	-0.150
-415.428	800.000	0.035	0.124
-414.413	-200.000	0.022	0.112
-413.398	27.431	-0.148	-0.125
-412.384	37.015	-0.222	0.198
-411.369	-183.047	0.275	-0.005
-410.355	41.588	0.119	0.108
-409.340	-200.000	-0.019	-0.193
-408.325	-200.000	-0.038	0.259
-407.311	-39.095	-0.188	0.099
-406.296	111.550	-0.144	-0.175
-405.282	-200.000	0.007	0.061
-404.267	-114.810	0.080	0.015
-403.252	303.679	-0.132	0.245
-402.238	-31.211	-0.127	0.072
-401.223	-55.216	0.177	-0.080
-400.209	108.411	-0.241	0.289
-399.194	126.139	-0.108	-0.137
-398.179	800.000	0.032	-0.130
-397.165	800.000	-0.059	0.223
-396.150	351.255	-0.055	0.110
-395.136	-200.000	0.025	0.193
-394.121	-61.875	-0.070	-0.029
-393.106	79.924	-0.225	-0.243
-392.092	-200.000	-0.029	0.307
-391.077	800.000	0.062	0.230
-390.063	800.000	0.114	0.414
-389.048	67.345	0.111	0.113
-388.033	-58.438	-0.249	-0.109
-387.019	-5.356	0.273	0.188
-386.004	-49.280	0.255	-0.122
-384.990	272.707	-0.265	-0.470
-383.975	493.137	0.091	-0.209
-382.960	76.648	-0.236	0.252
-381.946	-200.000	0.266	-0.001
-380.931	36.220	0.277	-0.245
-379.917	-52.198	-0.121	-0.056
-378.902	342.323	-0.054	0.106
-377.888	-200.000	0.002	-0.229
-376.873	-200.000	-0.039	0.192
-375.858	-32.690	-0.021	-0.012
-374.844	800.000	-0.056	-0.236
-373.829	40.693	-0.257	-0.232
-372.815	-159.696	-0.141	0.008
-371.800	-162.112	-0.258	-0.013
-370.785	-200.000	-0.010	-0.061
-369.771	-200.000	-0.045	-0.235
-368.756	-181.914	0.100	0.002
-367.742	-96.829	-0.384	0.101
-366.727	450.709	0.010	-0.023
-365.712	-75.877	0.379	0.135
-364.698	-200.000	0.007	0.046
-363.683	20.796	0.274	-0.223
-362.669	-135.524	0.227	-0.027
-361.654	800.000	0.114	-0.326
-360.639	426.621	0.175	0.378
-359.625	412.202	0.072	0.153
-358.610	44.881	0.129	0.119
-357.596	-127.811	0.385	0.056
-356.581	-189.302	-0.140	-0.002
-355.566	800.000	-0.042	0.138
-354.552	800.000	0.028	0.113
-353.537	55.880	0.227	-0.220
-352.523	-104.474	0.227	-0.053
-351.508	326.242	-0.089	-0.172
-350.493	-155.920	-0.133	-0.008
-349.479	-91.987	-0.251	-0.071
-348.464	236.046	0.056	-0.093
-347.450	-81.489	-0.073	0.024
-346.435	-200.000	0.014	0.087
-345.420	-144.983	0.084	-0.008
-344.406	85.856	0.137	-0.151
-343.391	20.622	0.038	-0.031
-342.377	25.540	0.095	0.079
-341.362	74.854	-0.126	-0.133
-340.348	63.734	0.248	0.250
-339.333	800.000	0.015	-0.044
-338.318	800.000	-0.029	0.092
-337.304	181.024	0.159	0.234
-336.289	52.271	-0.397	0.380
-335.275	-30.535	0.134	0.076
-334.260	91.805	0.177	-0.199
-333.245	222.592	0.199	-0.321
-332.231	-27.990	0.239	-0.139
-331.216	-200.000	-0.010	-0.056
-330.202	-107.679	-0.104	0.023
-329.187	-82.702	-0.048	-0.016
-328.172	-46.060	-0.150	0.074
-327.158	-104.649	-0.275	0.064
-326.143	-19.779	-0.158	-0.098
-325.129	-60.384	0.226	0.096
-324.114	-187.559	0.165	0.002
-323.099	-79.433	-0.155	0.052
-322.085	171.281	0.015	-0.022
-321.070	-104.570	-0.190	-0.044
-320.056	264.710	-0.110	-0.191
-319.041	-73.036	0.276	-0.101
-318.026	-124.362	-0.227	0.035
-317.012	208.334	-0.156	0.244
-315.997	26.158	0.124	-0.104
-314.983	-200.000	-0.003	-0.165
-313.968	-23.751	-0.243	-0.146
-312.953	161.767	-0.159	0.224
-311.939	-3.501	0.214	0.149
-310.924	-23.534	0.086	0.052
-309.910	-200.000	-0.030	0.224
-308.895	-26.423	0.156	0.092
-307.880	-200.000	-0.001	-0.013
-306.866	735.565	0.058	0.157
-305.851	258.246	0.064	0.110
-304.837	130.374	0.118	-0.151
-303.822	-33.914	-0.058	0.032
-302.807	-64.549	-0.182	-0.074
-301.793	-200.000	0.012	0.222
-300.778	-200.000	0.004	-0.110
-299.764	97.215	0.123	0.142
-298.749	-62.193	-0.188	-0.078
-297.735	800.000	-0.086	0.264
-296.720	-71.762	0.253	-0.094
-295.705	304.074	0.040	0.075
-294.691	-200.000	-0.015	0.080
-293.676	-200.000	-0.059	-0.342
-292.662	19.058	0.164	-0.131
-291.647	176.061	-0.069	-0.100
-290.632	-41.402	-0.101	0.052
-289.618	373.100	0.021	0.043
-288.603	67.045	0.115	-0.118
-287.589	-200.000	0.080	-0.413
-286.574	-163.720	-0.083	0.004
-285.559	-40.479	0.091	-0.047
-284.545	-200.000	0.022	-0.192
-283.530	-111.108	0.165	0.034
-282.516	-80.480	0.274	-0.091
-281.501	-110.789	-0.168	-0.035
-280.486	-124.048	0.125	-0.020
-279.472	-26.669	0.160	0.094
-278.457	178.292	-0.076	0.111
-277.443	-99.227	0.252	0.064
-276.428	118.145	-0.226	0.278
-275.413	800.000	-0.040	-0.112
-274.399	-81.886	-0.303	-0.099
-273.384	26.227	-0.131	-0.109
-272.370	19.599	0.268	-0.216
-271.355	-200.000	0.027	0.153
-270.340	-114.196	-0.304	0.059
-269.326	-148.044	-0.175	0.015
-268.311	-139.502	-0.123	-0.013
-267.297	-41.604	-0.151	-0.078
-266.282	445.949	-0.092	0.202
-265.267	24.299	-0.246	0.203
-264.253	315.436	-0.092	0.173
-263.238	-156.688	0.195	-0.012
-262.224	-15.912	0.108	-0.068
-261.209	-54.898	-0.125	-0.056
-260.195	-4.561	0.088	-0.060
-259.180	73.345	-0.032	-0.033
-258.165	521.802	0.126	-0.295
-257.151	314.900	-0.062	0.117
-256.136	527.009	-0.038	0.090
-255.122	99.063	-0.278	0.320
-254.107	-37.371	-0.067	0.036
-253.092	-99.294	0.103	0.026
-252.078	301.421	-0.021	0.038
-251.063	800.000	-0.059	0.231
-250.049	800.000	-0.074	0.214
-249.034	800.000	-0.097	-0.279
-248.019	800.000	0.021	-0.084
-247.005	800.000	-0.048	0.183
-245.990	-200.000	0.005	-0.217
-244.976	-126.778	-0.306	-0.045
-243.961	64.815	-0.213	-0.215
-242.946	75.534	0.075	0.079
-241.932	-109.494	0.102	0.022
-240.917	634.791	-0.108	-0.274
-239.903	37.009	-0.184	-0.163
-238.888	-88.532	-0.252	0.075
-237.873	-200.000	0.010	-0.152
-236.859	32.275	0.139	0.120
-235.844	-53.546	-0.131	0.060
-234.830	172.341	0.076	0.109
-233.815	30.466	0.081	0.069
-232.800	-200.000	0.036	-0.201
-231.786	-200.000	0.035	-0.327
-230.771	704.615	0.034	-0.090
-229.757	47.275	0.170	0.158
-228.742	556.218	0.061	-0.147
-227.727	-78.177	0.055	0.019
-226.713	18.531	0.050	0.040
-225.698	800.000	0.016	0.066
-224.684	-200.000	-0.017	-0.090
-223.669	188.343	0.159	0.237
-222.655	34.154	0.210	-0.182
-221.640	-142.143	-0.339	0.034
-220.625	-6.190	0.120	-0.082
-219.611	-152.859	-0.104	-0.007
-218.596	-98.527	0.293	-0.075
-217.582	-34.384	-0.110	0.060
-216.567	82.557	-0.081	0.088
-215.552	71.017	0.057	-0.059
-214.538	-92.430	-0.250	-0.070
-213.523	-165.370	-0.117	0.005
-212.509	-137.260	-0.073	0.008
-211.494	-200.000	-0.019	-0.112
-210.479	-200.000	0.079	0.353
-209.465	449.366	-0.011	0.024
-208.450	-56.059	-0.212	-0.094
-207.436	-179.502	-0.364	-0.008
-206.421	-200.000	0.009	0.181
-205.406	271.440	-0.140	-0.246
-204.392	-107.286	0.139	-0.030
-203.377	800.000	0.058	0.213
-202.363	35.652	0.187	0.164
-201.348	139.612	0.062	0.081
-200.333	118.072	-0.114	0.141
-199.319	206.508	0.083	0.128
-198.304	13.824	0.070	-0.054
-197.290	288.037	-0.151	0.273
-196.275	146.785	0.160	-0.214
-195.260	111.430	0.136	0.163
-194.246	-107.270	-0.555	0.122
-193.231	-127.428	-0.309	0.045
-192.217	-8.218	-0.134	0.090
-191.202	800.000	0.069	0.212
-190.187	-200.000	0.059	0.285
-189.173	671.664	0.099	-0.255
-188.158	557.069	-0.140	-0.336
-187.144	-58.677	-0.140	0.060
-186.129	800.000	0.091	0.341
-185.114	-132.761	-0.286	-0.036
-184.100	577.775	0.110	-0.267
-183.085	-108.197	0.239	-0.052
-182.071	-100.029	0.232	0.058
-181.056	-40.079	0.060	-0.031
-180.042	-150.604	-0.089	0.007
-179.027	14.980	-0.228	0.177
-178.012	656.103	-0.087	-0.224
-176.998	-106.423	0.314	0.070
-175.983	175.641	-0.204	-0.294
-174.969	-158.611	-0.353	0.020
-173.954	-71.155	-0.363	0.136
-172.939	227.090	0.239	-0.387
-171.925	-200.000	-0.017	-0.093
-170.910	626.382	0.046	0.116
-169.896	-200.000	-0.004	0.019
-168.881	-66.346	-0.217	0.086
-167.866	-66.004	-0.223	0.089
-166.852	-200.000	-0.026	-0.187
-165.837	-200.000	-0.025	-0.144
-164.823	-186.122	0.218	0.003
-163.808	800.000	0.068	-0.257
-162.793	-55.379	0.311	-0.139
-161.779	292.754	-0.009	-0.016
-160.764	227.700	0.146	0.237
-159.750	263.898	0.136	-0.236
-158.735	95.105	0.182	0.207
-157.720	28.444	0.144	0.121
-156.706	298.550	-0.107	-0.196
-155.691	-10.810	0.102	0.067
-154.677	-57.823	0.268	0.117
-153.662	-101.508	-0.122	0.029
-152.647	533.434	0.005	0.012
-151.633	-200.000	-0.025	-0.274
-150.618	9.427	-0.333	0.251
-149.604	800.000	0.079	0.270
-148.589	-110.966	0.084	0.017
-147.574	800.000	-0.103	0.323
-146.560	7.392	-0.056	-0.042
-145.545	-28.037	0.229	-0.132
-144.531	177.313	0.073	-0.105
-143.516	800.000	0.040	0.146
-142.502	204.830	-0.072	-0.111
-141.487	-14.567	-0.134	-0.086
-140.472	-116.281	0.297	0.055
-139.458	142.351	-0.172	-0.227
-138.443	800.000	-0.049	-0.202
-137.429	-200.000	-0.009	-0.056
-136.414	44.745	-0.210	0.192
-135.399	76.420	-0.341	0.360
-134.385	-200.000	0.014	0.268
-133.370	-9.551	0.200	-0.133
-132.356	-97.540	0.234	-0.060
-131.341	51.157	0.030	-0.028
-130.326	105.129	0.085	-0.099
-129.312	-18.052	0.089	-0.056
-128.297	605.747	0.138	0.342
-127.283	57.505	0.080	0.078
-126.268	-7.707	0.022	0.015
-125.253	800.000	0.132	-0.523
-124.239	113.859	0.125	-0.151
-123.224	-100.379	-0.226	0.056
-122.210	365.151	0.168	-0.335
-121.195	-200.000	-0.053	0.265
-120.180	-200.000	0.005	0.144
-119.166	114.678	0.116	-0.141
-118.151	121.325	-0.190	-0.235
-117.137	181.667	0.059	-0.087
-116.122	-145.151	-0.328	-0.030
-115.107	288.643	-0.075	-0.134
-114.093	30.230	0.064	-0.055
-113.078	-124.698	-0.178	0.027
-112.064	-200.000	-0.064	-0.358
-111.049	-133.981	-0.191	0.024
-110.034	-200.000	0.002	-0.161
-109.020	32.992	0.069	-0.060
-108.005	-102.829	0.256	0.060
-106.991	-37.947	0.452	0.239
-105.976	-89.001	-0.223	0.065
-104.962	800.000	0.082	-0.234
-103.947	-64.324	-0.181	-0.073
-102.932	-200.000	-0.022	-0.215
-101.918	-161.728	0.098	-0.005
-100.903	-200.000	-0.046	-0.225
-99.889	-200.000	0.002	-0.123
-98.874	58.328	0.251	0.245
-97.859	800.000	0.015	-0.046
-96.845	255.310	-0.061	0.103
-95.830	228.691	-0.039	0.062
-94.816	32.222	0.318	0.272
-93.801	-200.000	-0.011	0.133
-92.786	-101.229	-0.170	-0.041
-91.772	-200.000	-0.000	0.019
-90.757	15.983	0.260	-0.203
-89.743	-200.000	-0.194	0.000
-88.728	-100.208	-0.422	0.104
-87.713	-172.919	0.118	-0.004
-86.699	125.923	-0.146	0.183
-85.684	-200.000	-0.000	0.060
-84.670	-120.092	-0.186	0.032
-83.655	242.290	0.057	0.095
-82.640	291.628	0.161	0.291
-81.626	-167.957	0.250	-0.010
-80.611	48.614	0.080	0.074
-79.597	77.708	0.165	-0.174
-78.582	800.000	0.088	0.326
-77.567	-200.000	0.038	-0.279
-76.553	-82.041	-0.301	-0.097
-75.538	-50.553	0.049	-0.023
-74.524	-200.000	-0.015	0.141
-73.509	556.848	-0.183	0.438
-72.494	27.149	0.365	-0.304
-71.480	-200.000	0.030	0.412
-70.465	555.057	-0.022	0.053
-69.451	-40.368	0.103	-0.053
-68.436	-60.934	0.464	-0.195
-67.422	-28.506	0.068	-0.039
-66.407	-105.889	0.191	-0.043
-65.392	-200.000	-0.001	-0.227
-64.378	-61.524	0.262	-0.109
-63.363	35.007	-0.393	-0.342
-62.349	703.193	-0.059	-0.154
-61.334	-19.868	-1.189	-0.728
-60.319	606.208	0.252	0.622
-59.305	800.000	-0.137	-0.468
-58.290	800.000	0.280	0.847
-57.276	299.080	0.830	1.515
-56.261	-200.000	94.890	553.886
-55.246	625.626	1385.867	3465.233
-54.232	184.359	2614.697	3838.404
-53.217	119.642	2221.874	2727.863
-52.203	44.896	1753.406	1599.660
-51.188	37.612	1563.050	1374.728
-50.173	35.273	1534.578	1333.392
-49.159	53.378	1584.969	1505.616
-48.144	56.892	1603.620	1548.123
-47.130	37.989	1559.591	1374.127
-46.115	34.762	1544.197	1337.959
-45.100	34.594	1540.453	1333.486
-44.086	34.611	1538.902	1332.212
-43.071	34.519	1537.145	1329.996
-42.057	34.526	1535.470	1328.540
-41.042	34.529	1533.700	1326.980
-40.027	34.556	1532.316	1325.919
-39.013	34.518	1530.705	1324.203
-37.998	34.508	1529.529	1323.065
-36.984	34.528	1528.711	1322.448
-35.969	34.593	1526.932	1321.305
-34.954	34.543	1525.157	1319.371
-33.940	34.479	1524.557	1318.356
-32.925	34.599	1522.908	1317.705
-31.911	34.583	1521.688	1316.490
-30.896	34.558	1520.172	1314.951
-29.881	34.624	1518.742	1314.119
-28.867	34.627	1517.179	1312.736
-27.852	34.486	1516.126	1310.801
-26.838	34.550	1514.187	1309.514
-25.823	34.579	1512.377	1308.091
-24.809	34.561	1511.165	1306.868
-23.794	34.546	1509.501	1305.278
-22.779	34.568	1508.842	1304.802
-21.765	34.674	1507.429	1304.253
-20.750	34.618	1506.416	1302.947
-19.736	34.581	1504.914	1301.339
-18.721	34.509	1504.500	1300.440
-17.706	34.504	1503.198	1299.228
-16.692	34.479	1502.027	1297.999
-15.677	34.536	1501.032	1297.474
-14.663	34.423	1500.267	1295.990
-13.648	34.572	1499.161	1295.997
-12.633	34.461	1498.380	1294.514
-11.619	34.460	1497.389	1293.605
-10.604	34.506	1496.453	1293.053
-9.590	34.456	1495.659	1291.982
-8.575	34.540	1494.610	1291.586
-7.560	34.509	1493.787	1290.616
-6.546	34.499	1493.279	1290.059
-5.531	34.525	1492.186	1289.240
-4.517	34.444	1491.502	1288.052
-3.502	34.450	1490.178	1286.898
-2.487	34.467	1489.205	1286.119
-1.473	34.404	1488.520	1285.050
-0.458	34.509	1486.498	1283.961
0.556	36.929	1477.791	1274.842
1.571	34.127	1450.903	1233.409
2.586	30.275	1387.433	1155.415
3.600	28.037	1303.150	1072.026
4.615	25.603	1254.449	1018.112
5.629	21.372	1196.690	948.250
6.644	12.735	1109.729	835.627
7.659	6.001	1067.144	770.539
8.673	4.785	1061.495	760.456
9.688	4.606	1058.511	757.383
10.702	4.484	1056.860	755.537
11.717	4.566	1055.326	754.773
12.731	7.837	1058.665	773.009
13.746	16.412	1070.633	823.644
14.761	22.028	1078.273	856.940
15.775	22.521	1076.947	858.213
16.790	21.626	1075.455	852.589
17.804	20.697	1073.252	846.255
18.819	19.798	1071.870	840.719
19.834	19.400	1070.371	837.538
20.848	19.163	1069.557	835.676
21.863	19.233	1068.893	835.423
22.877	18.858	1068.743	833.415
23.892	18.826	1067.189	831.974
24.907	18.752	1066.022	830.630
25.921	18.749	1065.856	830.414
26.936	18.738	1064.993	829.617
27.950	18.758	1063.995	828.862
28.965	18.696	1062.637	827.429
29.980	18.852	1061.247	827.025
30.994	18.936	1060.507	826.779
32.009	18.920	1060.086	826.302
33.023	19.024	1059.244	826.072
34.038	19.132	1058.431	825.885
35.053	18.984	1057.319	824.232
36.067	18.853	1056.333	822.764
37.082	18.880	1054.943	821.739
38.096	18.953	1054.466	821.641
39.111	18.965	1054.072	821.323
40.126	18.963	1053.456	820.759
41.140	18.931	1051.927	819.342
42.155	18.741	1050.044	816.901
43.169	18.505	1049.472	815.261
44.184	18.454	1048.703	814.348
45.199	18.402	1046.802	812.555
46.213	18.408	1046.192	812.038
47.228	18.399	1045.773	811.598
48.242	18.741	1044.811	812.396
49.257	18.765	1044.415	812.131
50.271	18.714	1043.074	810.773
51.286	18.920	1042.001	810.840
52.301	18.918	1041.513	810.382
53.315	18.909	1040.699	809.634
54.330	18.754	1040.010	808.295
55.344	18.577	1039.135	806.710
56.359	18.499	1037.770	805.216
57.374	18.582	1036.808	804.784
58.388	18.577	1036.123	804.159
59.403	18.389	1035.271	802.544
60.417	18.355	1034.249	801.522
61.432	18.319	1034.080	801.153
62.447	18.364	1033.110	800.539
63.461	18.253	1032.392	799.396
64.476	18.333	1030.974	798.599
65.490	18.282	1029.846	797.419
66.505	18.266	1029.205	796.775
67.520	18.198	1028.643	795.953
68.534	18.302	1028.010	795.876
69.549	18.186	1027.614	794.963
70.563	18.338	1026.275	794.563
71.578	18.186	1025.714	793.353
72.593	18.105	1024.668	792.097
73.607	18.041	1023.448	790.786
74.622	17.899	1022.996	789.710
75.636	18.012	1021.919	789.335
76.651	18.077	1021.153	788.970
77.666	18.000	1020.802	788.276
78.680	18.186	1019.550	788.096
79.695	18.185	1019.159	787.720
80.709	18.206	1018.425	787.179
81.724	18.279	1018.143	787.224
82.739	18.468	1017.052	787.182
83.753	18.519	1016.472	786.896
84.768	18.614	1016.143	787.008
85.782	18.942	1015.595	788.017
86.797	19.188	1014.620	788.319
87.812	19.105	1013.779	787.213
88.826	18.913	1013.154	785.781
89.841	18.912	1012.347	785.083
90.855	18.903	1011.652	784.433
91.870	18.996	1010.839	784.155
92.884	19.022	1010.118	783.646
93.899	18.970	1009.392	782.779
94.914	19.003	1008.488	782.159
95.928	19.036	1007.875	781.764
96.943	19.114	1006.836	781.243
97.957	18.940	1006.151	779.851
98.972	18.894	1005.181	778.823
99.987	18.954	1004.513	778.508
101.001	18.937	1003.743	777.765
102.016	18.861	1003.118	776.870
103.030	18.825	1001.823	775.636
104.045	19.151	1000.699	776.166
105.060	19.031	1000.023	775.031
106.074	18.887	998.997	773.520
107.089	18.630	998.037	771.551
108.103	18.305	997.189	769.368
109.118	18.434	995.727	768.750
110.133	18.209	995.191	767.263
111.147	18.227	994.487	766.730
112.162	18.350	992.894	765.985
113.176	18.260	992.479	765.195
114.191	18.335	991.879	764.999
115.206	18.464	991.014	764.840
116.220	18.409	990.175	763.879
117.235	18.411	989.220	763.083
118.249	18.361	988.354	762.129
119.264	18.393	987.423	761.485
120.279	18.292	986.531	760.279
121.293	18.246	985.903	759.525
122.308	18.077	985.074	758.071
123.322	18.136	984.382	757.731
124.337	18.065	983.257	756.485
125.352	17.957	982.030	754.995
126.366	18.086	980.500	754.322
127.381	18.052	979.896	753.642
128.395	17.829	979.227	752.078
129.410	18.056	978.191	752.211
130.424	18.095	977.164	751.530
131.439	18.192	976.149	751.105
132.454	18.435	975.629	751.705
133.468	18.461	974.619	750.974
134.483	18.447	974.357	750.649
135.497	18.501	973.514	750.169
136.512	18.533	973.088	749.910
137.527	18.524	972.120	749.060
138.541	18.549	970.952	748.201
139.556	18.409	970.647	747.292
140.570	18.468	969.824	746.849
141.585	18.624	969.303	747.060
142.600	18.787	968.753	747.282
143.614	18.906	967.876	747.055
144.629	18.833	967.416	746.315
145.643	19.040	966.349	746.327
146.658	18.961	965.624	745.359
147.673	18.837	964.373	743.791
148.687	18.624	963.191	741.890
149.702	18.520	962.585	740.908
150.716	18.426	961.759	739.800
151.731	18.487	960.381	738.941
152.746	18.493	959.454	738.185
153.760	18.474	958.991	737.683
154.775	18.465	958.487	737.193
155.789	18.767	957.424	737.605
156.804	18.672	957.123	736.902
157.819	18.803	956.054	736.573
158.833	18.822	955.758	736.362
159.848	18.937	954.996	736.201
160.862	18.900	954.438	735.550
161.877	19.004	952.988	734.813
162.892	18.702	952.150	732.809
163.906	18.392	951.353	730.808
164.921	18.416	950.237	729.991
165.935	18.392	949.100	728.949
166.950	18.579	948.383	729.132
167.964	18.521	947.721	728.309
168.979	18.759	946.326	728.183
169.994	18.557	945.175	726.379
171.008	18.424	944.837	725.490
172.023	18.686	943.968	725.867
173.037	18.679	943.628	725.511
174.052	18.742	943.049	725.268
175.067	18.791	942.199	724.758
176.081	18.588	940.719	722.701
177.096	18.437	939.988	721.438
178.110	18.388	938.944	720.367
179.125	18.389	938.577	720.028
180.140	18.522	937.465	719.669
181.154	18.570	937.084	719.512
182.169	18.674	936.420	719.378
183.183	18.900	935.747	719.743
184.198	18.983	934.896	719.371
185.213	18.816	934.953	718.653
186.227	18.854	934.297	718.243
187.242	18.932	933.893	718.195
188.256	19.083	932.801	717.923
189.271	18.940	932.705	717.187
190.286	19.180	931.495	717.192
191.300	18.893	930.616	715.259
192.315	18.512	929.611	712.840
193.329	18.316	928.178	710.863
194.344	18.261	927.785	710.270
195.359	18.410	927.521	710.623
196.373	18.661	927.288	711.422
197.388	18.652	926.760	710.919
198.402	18.886	926.450	711.585
199.417	19.133	925.840	712.076
200.432	19.295	925.610	712.508
201.446	19.555	924.820	712.910
202.461	19.596	924.520	712.785
203.475	19.508	924.044	711.990
204.490	19.533	923.196	711.379
205.504	19.176	922.426	709.250
206.519	18.969	921.612	707.710
207.534	18.991	920.878	707.177
208.548	18.996	919.736	706.257
209.563	18.966	919.243	705.691
210.577	19.090	918.450	705.531
211.592	19.058	918.115	705.080
212.607	19.188	917.517	705.091
213.621	19.599	916.742	706.113
214.636	19.284	916.264	704.395
215.650	19.195	915.682	703.519
216.665	19.331	914.811	703.342
217.680	19.415	914.804	703.618
218.694	19.553	914.280	703.715
219.709	19.652	913.505	703.460
220.723	19.498	913.096	702.456
221.738	19.462	912.316	701.648
222.753	19.543	911.117	700.993
223.767	19.347	910.799	699.890
224.782	19.500	909.884	699.744
225.796	19.585	909.412	699.664
226.811	19.660	909.127	699.688
227.826	19.546	908.207	698.457
228.840	19.476	907.138	697.288
229.855	19.326	906.691	696.280
230.869	19.296	905.933	695.516
231.884	19.234	905.195	694.634
232.899	19.361	904.483	694.539
233.913	19.248	903.933	693.602
234.928	19.144	903.154	692.525
235.942	19.148	902.139	691.698
236.957	19.105	901.369	690.875
237.972	19.031	900.865	690.133
238.986	19.183	900.351	690.285
240.001	19.091	899.751	689.398
241.015	19.166	899.197	689.211
242.030	19.049	898.713	688.311
243.045	19.257	898.122	688.628
244.059	19.390	897.462	688.595
245.074	19.444	896.652	688.125
246.088	19.251	896.026	686.814
247.103	19.503	895.812	687.596
248.117	19.660	895.192	687.682
249.132	19.688	894.881	687.494
250.147	19.944	894.495	688.154
251.161	20.173	893.956	688.587
252.176	20.241	893.378	688.351
253.190	20.175	892.626	687.450
254.205	20.364	891.991	687.650
255.220	20.389	891.618	687.401
256.234	20.429	891.038	687.050
257.249	20.391	889.961	686.009
258.263	20.341	889.637	685.501
259.278	20.334	889.035	684.949
260.293	20.253	888.607	684.240
261.307	20.363	888.173	684.277
262.322	20.548	887.579	684.487
263.336	20.454	886.823	683.477
264.351	20.426	886.233	682.850
265.366	20.445	886.095	682.759
266.380	20.449	885.026	681.890
267.395	20.393	884.475	681.185
268.409	20.291	883.518	679.989
269.424	20.364	882.875	679.720
270.439	20.337	881.862	678.772
271.453	20.375	881.217	678.366
272.468	20.269	880.228	677.130
273.482	20.186	879.535	676.213
274.497	20.163	879.035	675.681
275.512	20.172	878.243	675.046
276.526	20.147	877.492	674.311
277.541	20.324	876.708	674.339
278.555	20.253	876.440	673.795
279.570	20.279	876.203	673.653
280.585	20.503	875.949	674.269
281.599	20.580	875.436	674.113
282.614	20.463	874.108	672.579
283.628	20.340	873.512	671.583
284.643	20.335	872.915	671.048
285.657	20.342	872.295	670.539
286.672	20.230	871.882	669.730
287.687	20.331	871.564	669.815
288.701	20.345	871.046	669.411
289.716	20.348	870.668	669.074
290.730	20.383	870.011	668.642
291.745	20.427	869.139	668.082
292.760	20.427	868.479	667.518
293.774	20.350	868.303	667.027
294.789	20.650	867.448	667.461
295.803	20.564	867.227	666.904
296.818	20.573	866.284	666.153
297.833	20.343	865.715	664.776
298.847	20.345	864.921	664.117
299.862	20.393	864.037	663.563
300.876	20.540	863.267	663.472
301.891	20.625	862.755	663.346
302.906	20.623	862.620	663.174
303.920	20.757	861.364	662.660
304.935	20.848	861.461	663.022
305.949	21.044	860.668	663.100
306.964	20.884	860.114	662.007
307.979	20.702	859.353	660.669
308.993	20.731	859.134	660.553
310.008	20.795	858.567	660.302
311.022	20.927	857.950	660.267
312.037	20.874	857.696	659.816
313.052	20.895	856.763	659.120
314.066	20.679	855.926	657.600
315.081	20.518	855.156	656.343
316.095	20.477	854.450	655.585
317.110	20.538	854.432	655.744
318.125	20.483	853.592	654.834
319.139	20.538	853.087	654.596
320.154	20.392	852.654	653.658
321.168	20.497	852.067	653.544
322.183	20.466	852.121	653.413
323.197	20.666	851.383	653.541
324.212	20.646	850.914	653.047
325.227	20.546	850.420	652.234
326.241	20.697	849.331	651.906
327.256	20.661	849.121	651.555
328.270	20.637	848.367	650.828
329.285	20.533	847.707	649.876
330.300	20.513	847.057	649.242
331.314	20.585	846.352	648.913
332.329	20.646	845.905	648.742
333.343	20.770	845.699	648.989
334.358	20.784	845.208	648.608
335.373	20.798	844.623	648.151
336.387	20.873	843.992	647.889
337.402	20.934	843.607	647.765
338.416	21.027	843.181	647.726
339.431	21.183	842.472	647.702
340.446	21.281	842.482	648.016
341.460	21.301	841.967	647.635
342.475	21.396	841.112	647.273
343.489	21.343	840.810	646.786
344.504	21.285	840.356	646.167
345.519	21.598	839.672	646.739
346.533	21.623	839.376	646.549
347.548	21.474	838.708	645.425
348.562	21.366	837.897	644.348
349.577	21.077	837.319	642.779
350.592	20.922	836.788	641.746
351.606	20.810	836.316	640.914
352.621	20.995	835.546	640.948
353.635	20.937	835.388	640.558
354.650	21.088	834.663	640.499
355.665	20.982	834.203	639.700
356.679	21.299	833.543	640.298
357.694	21.142	833.472	639.613
358.708	21.301	832.785	639.610
359.723	21.349	832.149	639.240
360.738	21.258	831.706	638.510
361.752	21.257	831.278	638.122
362.767	21.357	830.927	638.161
363.781	21.428	830.293	637.879
364.796	21.623	829.853	638.194
365.810	21.673	829.777	638.263
366.825	21.732	829.603	638.286
367.840	21.815	828.893	637.983
368.854	21.861	828.516	637.805
369.869	21.554	828.338	636.497
370.883	21.457	827.692	635.590
371.898	21.575	826.650	635.162
372.913	21.553	826.469	634.886
373.927	21.782	825.607	634.999
374.942	21.658	824.719	633.811
375.956	21.593	824.466	633.325
376.971	21.790	823.923	633.564
377.986	21.828	823.417	633.255
379.000	21.868	822.972	633.003
380.015	22.120	822.089	633.175
381.029	22.010	821.697	632.422
382.044	22.047	821.026	631.983
383.059	22.007	820.356	631.265
384.073	22.006	819.858	630.824
385.088	21.944	819.761	630.472
386.102	21.819	818.880	629.290
387.117	21.586	818.079	627.784
388.132	21.755	817.393	627.807
389.146	21.594	817.345	627.135
390.161	21.702	816.849	627.087
391.175	21.877	816.558	627.433
392.190	22.046	816.037	627.583
393.205	21.954	815.744	626.973
394.219	21.862	814.905	625.944
395.234	21.598	814.832	624.889
396.248	21.553	814.241	624.221
397.263	21.467	814.009	623.684
398.278	21.479	813.425	623.223
399.292	21.442	812.413	622.259
400.307	21.452	812.072	621.978
401.321	21.546	811.766	622.023
402.336	21.481	811.427	621.476
403.350	21.552	811.105	621.429
404.365	21.761	810.337	621.524
405.380	21.881	810.028	621.659
406.394	22.125	809.515	622.075
407.409	22.076	809.796	622.061
408.423	21.996	809.554	621.537
409.438	22.127	808.819	621.380
410.453	22.286	808.075	621.317
411.467	22.374	807.828	621.383
412.482	22.360	807.425	620.969
413.496	22.613	806.588	621.161
414.511	22.722	806.410	621.355
415.526	22.492	806.344	620.436
416.540	22.258	805.968	619.270
417.555	22.349	805.150	618.906
418.569	22.357	804.731	618.557
419.584	22.401	804.344	618.360
420.599	22.503	803.475	617.994
421.613	159.539	1368.447	1790.829
422.628	138.618	1450.786	1790.959
