DTS Sentinel unit serial number:	SN413079Multiplexer serial number:	ORYXHardware model number:	OX4-SRSoftware version number:	ORYX F/W v4.00 Oryx Data Collector v3.7.2.0data status	okinstallation	princeton_trtdifferential loss correction	single-endedforward channel	channel 3reverse channel	N/Adate	2019/09/13time	12:08:34forward acquisition time	60.00reverse acquisition time	0.00gamma	496.2192k internal	0.2309k external	0.2309temperature offset calibration	1.0152default loss term (dB/km)	0.3790temperature slope calibration	1.0000multiplexer offset coefficient	1.0000multiplexer slope coefficient	1.0000fibre end	0.00T internal ref (°C)	33.81T ext. ref 1 (°C)	4.62T ext. ref 2 (°C)	31.24length (m)	temperature (°C)	Stokes	anti-Stokes-747.200	410.875	0.091	0.196
-746.185	-31.338	-0.396	0.227
-745.171	-79.434	0.067	-0.023
-744.156	210.301	-0.115	0.183
-743.142	394.882	-0.052	-0.109
-742.127	175.324	-0.055	-0.080
-741.112	-29.787	0.076	0.044
-740.098	-200.000	-0.040	0.258
-739.083	-99.325	-0.088	0.023
-738.069	-200.000	-0.026	0.169
-737.054	232.506	-0.175	-0.292
-736.039	111.907	0.177	-0.217
-735.025	-68.616	0.188	0.074
-734.010	789.216	0.035	0.099
-732.996	-29.739	-0.338	-0.196
-731.981	149.999	0.177	0.243
-730.966	800.000	0.042	-0.182
-729.952	-182.838	-0.232	-0.004
-728.937	-200.000	0.016	-0.168
-727.923	-67.561	-0.263	-0.105
-726.908	-200.000	0.080	0.538
-725.894	-53.071	0.186	-0.087
-724.879	-0.807	-0.135	0.097
-723.864	501.634	-0.127	0.298
-722.850	736.830	-0.043	-0.116
-721.835	-81.108	0.115	0.038
-720.821	800.000	0.034	0.116
-719.806	223.719	0.095	-0.155
-718.791	163.718	-0.212	-0.302
-717.777	-200.000	-0.006	-0.266
-716.762	-109.530	-0.198	0.043
-715.748	-155.913	-0.251	0.016
-714.733	594.289	-0.151	0.379
-713.718	-56.305	0.038	-0.017
-712.704	-8.237	0.198	-0.135
-711.689	-173.516	0.047	-0.001
-710.675	-30.245	-0.154	-0.089
-709.660	800.000	-0.044	0.131
-708.645	-7.498	0.171	0.118
-707.631	-134.371	-0.230	0.029
-706.616	-86.961	-0.155	-0.048
-705.602	-200.000	-0.005	-0.201
-704.587	800.000	0.060	0.169
-703.572	-50.255	-0.172	0.082
-702.558	800.000	-0.043	-0.185
-701.543	-200.000	-0.046	0.436
-700.529	800.000	0.122	-0.369
-699.514	800.000	0.042	-0.182
-698.499	-200.000	0.000	0.116
-697.485	-19.213	0.380	-0.240
-696.470	14.048	0.223	0.176
-695.456	-200.000	0.004	0.202
-694.441	-17.671	0.182	0.116
-693.426	-130.700	0.009	0.001
-692.412	83.299	-0.102	-0.112
-691.397	-72.458	0.065	0.024
-690.383	11.833	0.284	0.221
-689.368	14.989	0.247	-0.196
-688.354	-200.000	-0.009	-0.509
-687.339	50.470	0.187	-0.179
-686.324	-200.000	0.015	-0.276
-685.310	35.282	0.075	0.067
-684.295	-117.100	-0.206	-0.038
-683.281	800.000	0.068	0.236
-682.266	-24.584	-0.123	0.074
-681.251	65.439	-0.202	-0.207
-680.237	35.448	-0.163	0.145
-679.222	-54.253	0.160	0.074
-678.208	255.650	0.199	0.346
-677.193	-200.000	0.022	-0.221
-676.178	103.720	-0.074	0.089
-675.164	800.000	-0.000	0.001
-674.149	-119.666	-0.367	-0.064
-673.135	800.000	-0.081	-0.286
-672.120	800.000	0.010	0.036
-671.105	270.507	0.086	0.154
-670.091	-200.000	-0.004	0.087
-669.076	-172.615	0.072	0.002
-668.062	-158.708	0.279	-0.016
-667.047	-104.509	-0.443	0.104
-666.032	-141.115	0.222	0.023
-665.018	766.249	-0.059	0.163
-664.003	800.000	-0.042	-0.132
-662.989	-24.274	-0.246	0.149
-661.974	-71.550	-0.159	0.060
-660.959	-200.000	-0.086	-0.403
-659.945	-200.000	-0.014	-0.207
-658.930	89.320	0.119	-0.134
-657.916	31.219	-0.092	-0.080
-656.901	-129.262	0.227	-0.032
-655.886	-114.612	0.221	-0.043
-654.872	-200.000	0.010	-0.143
-653.857	629.802	-0.082	0.210
-652.843	-200.000	-0.019	-0.225
-651.828	-141.150	0.307	0.032
-650.814	285.921	0.087	-0.158
-649.799	365.831	0.077	-0.157
-648.784	800.000	-0.058	-0.166
-647.770	311.254	0.049	-0.093
-646.755	6.452	-0.246	0.185
-645.741	-62.389	-0.036	0.015
-644.726	358.700	0.084	-0.169
-643.711	132.023	-0.232	-0.303
-642.697	60.042	0.072	-0.072
-641.682	-27.287	-0.268	-0.158
-640.668	800.000	-0.104	-0.382
-639.653	-79.763	-0.140	0.048
-638.638	-13.628	0.325	0.213
-637.624	-163.636	-0.288	0.014
-636.609	800.000	0.032	0.126
-635.595	-126.907	0.437	-0.065
-634.580	-200.000	-0.004	-0.092
-633.565	-200.000	-0.068	0.347
-632.551	0.846	-0.151	-0.110
-631.536	26.804	0.400	-0.339
-630.522	84.144	-0.157	0.174
-629.507	-41.663	-0.046	0.024
-628.492	-200.000	-0.010	-0.144
-627.478	160.418	-0.211	-0.298
-626.463	-114.454	-0.092	-0.018
-625.449	-200.000	-0.035	-0.224
-624.434	-200.000	0.013	-0.126
-623.419	45.686	-0.115	0.107
-622.405	359.721	0.036	-0.073
-621.390	-55.764	-0.253	0.114
-620.376	61.675	-0.226	-0.227
-619.361	-63.452	-0.276	0.115
-618.346	250.810	0.031	-0.053
-617.332	183.126	-0.067	-0.100
-616.317	-131.663	-0.292	-0.039
-615.303	149.413	0.128	-0.175
-614.288	572.099	-0.017	0.043
-613.273	65.714	0.203	0.208
-612.259	-90.697	-0.114	-0.033
-611.244	-98.949	-0.112	0.029
-610.230	112.004	-0.068	0.083
-609.215	-125.729	0.026	0.004
-608.201	439.852	0.188	-0.416
-607.186	780.258	-0.023	0.064
-606.171	-89.944	0.277	0.082
-605.157	-80.582	-0.302	0.102
-604.142	41.674	0.114	0.105
-603.128	399.440	-0.076	0.160
-602.113	356.686	-0.177	-0.357
-601.098	425.517	-0.094	-0.205
-600.084	-200.000	-0.089	0.402
-599.069	800.000	-0.081	-0.256
-598.055	-111.082	0.298	0.062
-597.040	-58.176	-0.218	0.096
-596.025	485.157	-0.025	-0.059
-595.011	-105.772	-0.374	-0.085
-593.996	119.103	0.157	-0.196
-592.982	-200.000	0.007	0.067
-591.967	192.485	0.183	0.280
-590.952	-159.939	-0.132	-0.007
-589.938	-58.097	-0.097	0.043
-588.923	-200.000	0.010	-0.251
-587.909	-61.010	0.087	0.037
-586.894	-53.862	0.352	0.162
-585.879	500.773	0.102	-0.238
-584.865	170.081	0.271	0.391
-583.850	551.406	-0.142	0.345
-582.836	-138.852	0.070	0.008
-581.821	28.371	-0.158	0.135
-580.806	800.000	-0.034	-0.134
-579.792	-153.152	-0.163	-0.012
-578.777	-20.856	0.275	-0.170
-577.763	182.576	-0.120	0.178
-576.748	-76.848	0.195	-0.069
-575.733	-200.000	-0.016	-0.109
-574.719	113.419	-0.283	-0.347
-573.704	-1.874	-0.135	0.096
-572.690	96.070	-0.267	-0.308
-571.675	-19.913	0.233	-0.145
-570.661	-126.257	0.073	-0.011
-569.646	-200.000	0.003	-0.177
-568.631	-62.112	0.168	-0.071
-567.617	-200.000	-0.002	-0.091
-566.602	197.720	-0.104	-0.160
-565.588	0.333	-0.120	-0.087
-564.573	-26.341	0.375	-0.222
-563.558	800.000	-0.018	-0.068
-562.544	33.770	0.134	0.118
-561.529	-114.427	-0.067	0.013
-560.515	7.301	0.053	-0.040
-559.500	154.155	-0.095	-0.132
-558.485	800.000	0.042	0.140
-557.471	-78.802	-0.086	0.030
-556.456	800.000	-0.069	-0.267
-555.442	463.132	-0.080	-0.181
-554.427	-55.955	-0.163	-0.073
-553.412	-200.000	-0.002	0.176
-552.398	206.020	0.069	0.108
-551.383	-92.721	0.229	0.065
-550.369	-163.884	-0.098	-0.005
-549.354	-109.121	0.046	-0.010
-548.339	800.000	-0.052	-0.169
-547.325	-200.000	0.007	0.067
-546.310	-83.707	0.125	-0.040
-545.296	-200.000	0.010	-0.105
-544.281	-178.514	-0.298	0.007
-543.266	244.247	0.117	0.198
-542.252	-131.177	-0.340	-0.046
-541.237	800.000	-0.028	-0.104
-540.223	177.464	-0.125	-0.184
-539.208	-200.000	-0.011	0.051
-538.193	189.381	0.157	-0.237
-537.179	702.716	-0.095	-0.253
-536.164	261.435	-0.073	-0.127
-535.150	72.756	0.119	0.126
-534.135	634.894	-0.111	0.285
-533.121	643.846	-0.106	-0.272
-532.106	-200.000	-0.015	-0.203
-531.091	-106.040	0.280	-0.063
-530.077	16.974	0.245	0.195
-529.062	-118.611	0.091	0.016
-528.048	-95.753	-0.312	0.084
-527.033	800.000	-0.070	0.269
-526.018	249.030	-0.176	0.301
-525.004	-156.548	0.264	-0.017
-523.989	108.012	-0.073	-0.088
-522.975	-36.666	-0.416	-0.225
-521.960	-35.569	0.209	-0.114
-520.945	800.000	-0.027	-0.082
-519.931	79.790	0.046	-0.050
-518.916	-113.788	-0.354	-0.069
-517.902	-200.000	0.023	0.208
-516.887	-132.070	0.348	-0.046
-515.872	-200.000	0.031	0.216
-514.858	255.909	0.038	-0.065
-513.843	-200.000	-0.024	0.229
-512.829	800.000	-0.016	0.049
-511.814	-90.753	0.239	-0.069
-510.799	150.413	-0.059	0.080
-509.785	68.535	-0.120	0.124
-508.770	426.381	0.085	0.184
-507.756	-146.646	-0.104	-0.009
-506.741	800.000	-0.101	-0.303
-505.726	22.921	-0.185	-0.153
-504.712	-200.000	-0.032	-0.247
-503.697	-105.575	-0.186	0.043
-502.683	-33.372	0.165	-0.092
-501.668	-92.255	-0.175	0.050
-500.653	193.951	0.162	0.247
-499.639	-22.238	-0.126	0.077
-498.624	-150.717	0.164	-0.013
-497.610	-200.000	-0.054	0.361
-496.595	-119.521	-0.185	-0.032
-495.581	-200.000	-0.030	-0.151
-494.566	26.999	-0.161	0.136
-493.551	2.752	0.146	-0.106
-492.537	238.014	-0.125	0.209
-491.522	88.038	0.179	0.200
-490.508	673.977	-0.081	0.212
-489.493	-43.105	-0.122	0.062
-488.478	800.000	0.022	0.079
-487.464	-126.763	-0.116	0.017
-486.449	635.792	-0.032	0.082
-485.435	-82.035	-0.372	-0.122
-484.420	-123.683	0.197	0.031
-483.405	-200.000	0.010	-0.130
-482.391	-62.953	0.223	-0.093
-481.376	-200.000	0.005	-0.185
-480.362	-200.000	-0.047	0.284
-479.347	-42.290	0.211	-0.109
-478.332	-93.680	0.149	-0.041
-477.318	173.231	-0.095	-0.137
-476.303	-200.000	-0.042	0.217
-475.289	646.866	0.163	0.418
-474.274	-159.581	-0.131	0.007
-473.259	558.206	0.070	0.169
-472.245	248.329	-0.101	-0.172
-471.230	-62.065	-0.196	-0.082
-470.216	190.670	-0.077	-0.117
-469.201	-25.580	-0.221	0.131
-468.186	800.000	0.026	-0.071
-467.172	-200.000	-0.033	0.321
-466.157	-91.464	-0.243	0.070
-465.143	-120.766	-0.266	-0.045
-464.128	-27.805	0.171	-0.100
-463.113	-173.354	0.252	0.008
-462.099	17.559	0.085	0.068
-461.084	63.747	0.165	-0.166
-460.070	-200.000	0.020	-0.352
-459.055	15.997	0.103	-0.081
-458.040	800.000	0.023	-0.099
-457.026	666.976	0.114	0.297
-456.011	-46.007	-0.182	-0.090
-454.997	-200.000	-0.001	0.138
-453.982	-1.877	0.034	-0.024
-452.968	203.271	0.059	-0.092
-451.953	-25.658	0.076	0.045
-450.938	-200.000	0.001	-0.252
-449.924	-39.095	-0.347	0.183
-448.909	-200.000	-0.009	0.115
-447.895	147.319	-0.144	-0.194
-446.880	276.648	0.171	0.305
-445.865	343.088	-0.137	-0.270
-444.851	-200.000	0.028	0.266
-443.836	761.418	0.073	0.198
-442.822	800.000	0.078	-0.243
-441.807	-200.000	-0.006	0.265
-440.792	299.570	-0.077	0.143
-439.778	-200.000	0.008	0.075
-438.763	23.622	-0.157	0.130
-437.749	-200.000	0.009	0.101
-436.734	-80.628	-0.062	0.021
-435.719	-200.000	0.027	-0.195
-434.705	113.068	0.166	-0.202
-433.690	-145.444	-0.260	0.023
-432.676	445.634	0.059	-0.129
-431.661	-67.646	-0.214	-0.084
-430.646	66.461	-0.200	0.204
-429.632	-122.602	-0.182	0.030
-428.617	5.449	-0.068	-0.050
-427.603	68.831	-0.072	0.075
-426.588	40.808	0.228	-0.206
-425.573	-200.000	-0.048	-0.219
-424.559	393.477	-0.116	-0.241
-423.544	98.792	0.347	-0.402
-422.530	800.000	0.020	-0.071
-421.515	-200.000	0.007	0.042
-420.500	-80.297	-0.164	0.055
-419.486	-104.082	-0.413	0.096
-418.471	91.618	-0.106	0.120
-417.457	800.000	-0.118	0.445
-416.442	36.968	-0.093	-0.082
-415.428	-58.647	-0.307	0.134
-414.413	800.000	0.065	-0.237
-413.398	-200.000	-0.009	-0.231
-412.384	800.000	-0.114	-0.363
-411.369	114.376	0.019	0.024
-410.355	-132.362	-0.109	0.014
-409.340	800.000	0.014	0.054
-408.325	-98.323	-0.191	0.049
-407.311	-200.000	-0.029	0.233
-406.296	-162.783	-0.108	0.005
-405.282	-41.669	0.245	-0.126
-404.267	800.000	0.025	0.094
-403.252	-155.445	-0.155	-0.010
-402.238	-200.000	0.000	0.140
-401.223	406.570	-0.111	0.234
-400.209	8.005	0.373	-0.280
-399.194	-109.002	-0.288	-0.062
-398.179	117.199	0.079	-0.097
-397.165	800.000	0.115	-0.349
-396.150	-200.000	0.003	0.041
-395.136	239.331	0.135	-0.224
-394.121	-200.000	-0.013	0.256
-393.106	-94.357	0.119	0.033
-392.092	800.000	0.169	0.591
-391.077	800.000	-0.068	0.262
-390.063	-57.042	-0.302	-0.133
-389.048	-153.302	-0.510	0.036
-388.033	34.958	0.274	0.240
-387.019	800.000	0.070	-0.205
-386.004	375.529	-0.059	-0.121
-384.990	-133.939	-0.227	-0.028
-383.975	610.685	0.106	0.266
-382.960	-84.204	0.287	0.091
-381.946	800.000	-0.123	0.361
-380.931	114.324	-0.053	0.064
-379.917	-26.651	0.079	0.046
-378.902	-200.000	-0.013	0.163
-377.888	98.016	0.173	0.199
-376.873	-106.879	-0.214	-0.048
-375.858	-104.201	0.281	-0.065
-374.844	-7.167	-0.055	0.037
-373.829	209.397	0.123	0.193
-372.815	27.489	0.123	0.104
-371.800	-200.000	0.004	0.020
-370.785	800.000	0.018	0.062
-369.771	-200.000	0.068	-0.355
-368.756	800.000	0.074	0.228
-367.742	-200.000	-0.078	0.348
-366.727	307.069	0.129	0.240
-365.712	-43.584	0.261	0.132
-364.698	87.513	-0.026	0.029
-363.683	-107.868	-0.472	-0.103
-362.669	-98.064	-0.105	0.027
-361.654	95.963	0.105	0.120
-360.639	-124.145	-0.169	0.026
-359.625	-85.371	0.217	0.068
-358.610	-49.383	0.194	0.092
-357.596	66.687	0.124	0.126
-356.581	-12.837	0.258	-0.168
-355.566	800.000	0.036	0.102
-354.552	-148.288	-0.215	0.018
-353.537	-119.857	0.242	0.042
-352.523	5.661	0.111	-0.082
-351.508	444.197	0.144	-0.317
-350.493	-200.000	-0.027	0.361
-349.479	-200.000	0.017	0.242
-348.464	244.335	0.026	-0.044
-347.450	-109.248	-0.139	0.029
-346.435	-66.393	0.346	-0.138
-345.420	381.390	0.153	0.315
-344.406	-200.000	0.037	0.246
-343.391	-58.778	0.349	0.151
-342.377	-200.000	0.020	-0.096
-341.362	173.315	-0.042	0.061
-340.348	-160.093	-0.203	0.011
-339.333	46.853	-0.020	0.019
-338.318	-200.000	-0.082	-0.365
-337.304	266.761	-0.199	-0.347
-336.289	129.048	0.115	0.147
-335.275	416.386	0.056	-0.119
-334.260	-99.211	-0.204	0.052
-333.245	41.778	-0.132	0.120
-332.231	-93.068	0.229	0.064
-331.216	-200.000	0.057	0.448
-330.202	-118.274	0.329	-0.059
-329.187	-200.000	-0.093	-0.462
-328.172	197.358	0.085	-0.130
-327.158	6.828	0.213	0.159
-326.143	-200.000	0.006	0.163
-325.129	762.441	0.055	-0.149
-324.114	18.417	0.196	0.157
-323.099	141.880	-0.197	-0.261
-322.085	123.555	-0.229	-0.287
-321.070	-45.013	-0.111	0.055
-320.056	52.969	-0.081	-0.078
-319.041	10.399	-0.190	0.144
-318.026	-155.163	0.197	-0.013
-317.012	-52.305	0.209	-0.097
-315.997	-45.243	0.095	0.047
-314.983	127.145	0.093	-0.118
-313.968	-130.542	-0.100	-0.013
-312.953	684.615	-0.056	-0.147
-311.939	434.459	0.017	-0.037
-310.924	-200.000	0.014	0.195
-309.910	-200.000	0.045	0.308
-308.895	-76.856	-0.157	0.055
-307.880	-34.670	0.107	-0.058
-306.866	-200.000	0.007	0.065
-305.851	255.242	-0.099	0.170
-304.837	-55.421	-0.252	-0.113
-303.822	-200.000	0.016	-0.169
-302.807	800.000	0.021	0.081
-301.793	-200.000	-0.014	0.220
-300.778	-76.145	0.320	0.113
-299.764	-89.013	-0.193	-0.057
-298.749	54.361	0.130	0.125
-297.735	-200.000	-0.004	-0.219
-296.720	-195.583	-0.180	0.001
-295.705	316.389	-0.184	0.346
-294.691	-200.000	0.030	0.361
-293.676	259.168	-0.131	0.226
-292.662	-101.489	0.226	-0.055
-291.647	800.000	0.126	-0.358
-290.632	800.000	-0.038	-0.147
-289.618	-18.512	-0.190	0.119
-288.603	-124.772	0.208	-0.032
-287.589	-83.087	0.263	-0.084
-286.574	-130.279	-0.248	-0.034
-285.559	40.978	-0.126	0.114
-284.545	-200.000	0.009	-0.257
-283.530	95.158	0.124	-0.141
-282.516	90.794	-0.105	-0.117
-281.501	442.806	0.093	0.204
-280.486	-195.316	0.017	0.000
-279.472	119.190	0.090	0.111
-278.457	-124.674	-0.105	0.016
-277.443	-18.387	0.156	0.097
-276.428	800.000	-0.022	0.074
-275.413	-74.818	-0.212	-0.076
-274.399	-200.000	0.016	-0.160
-273.384	161.039	-0.107	-0.149
-272.370	-16.026	0.178	-0.113
-271.355	461.979	-0.109	0.242
-270.340	279.481	0.240	0.427
-269.326	43.283	0.125	0.114
-268.311	800.000	0.095	0.354
-267.297	-161.815	0.145	0.007
-266.282	-200.000	-0.002	0.316
-265.267	800.000	-0.023	-0.073
-264.253	-121.809	0.320	0.053
-263.238	26.514	-0.171	-0.142
-262.224	261.177	0.113	-0.194
-261.209	196.317	-0.187	0.284
-260.195	18.235	0.183	0.145
-259.180	353.610	0.139	-0.276
-258.165	291.147	-0.080	-0.145
-257.151	-15.181	-0.281	0.179
-256.136	157.189	-0.153	-0.210
-255.122	-200.000	-0.026	0.153
-254.107	281.165	-0.055	0.098
-253.092	800.000	-0.035	0.115
-252.078	-152.307	0.218	0.016
-251.063	-158.773	0.121	0.007
-250.049	368.175	-0.081	0.163
-249.034	-112.705	-0.251	0.050
-248.019	219.727	-0.108	-0.173
-247.005	-200.000	0.010	-0.124
-245.990	-6.952	0.155	0.105
-244.976	292.074	0.122	0.222
-243.961	67.798	-0.077	-0.078
-242.946	37.308	0.218	0.193
-241.932	-200.000	-0.001	0.177
-240.917	-148.664	0.059	0.005
-239.903	-100.519	-0.115	0.028
-238.888	27.850	0.088	-0.074
-237.873	-86.689	0.134	-0.041
-236.859	-200.000	-0.040	0.297
-235.844	-145.895	0.247	-0.022
-234.830	21.227	-0.117	-0.095
-233.815	-154.598	-0.281	0.019
-232.800	-151.974	-0.252	-0.018
-231.786	19.504	-0.221	-0.177
-230.771	158.433	0.303	0.419
-229.757	-121.578	0.130	-0.022
-228.742	-141.625	-0.500	0.050
-227.727	800.000	-0.067	0.261
-226.713	120.176	-0.148	-0.183
-225.698	-32.541	-0.237	-0.131
-224.684	-30.782	0.213	0.120
-223.669	-200.000	-0.052	0.408
-222.655	96.345	0.229	0.261
-221.640	-32.447	0.384	-0.213
-220.625	166.042	0.160	-0.225
-219.611	588.828	-0.075	0.184
-218.596	116.217	0.217	0.264
-217.582	-30.036	0.144	0.082
-216.567	88.630	0.203	-0.225
-215.552	420.767	0.083	0.177
-214.538	800.000	0.073	-0.238
-213.523	236.111	-0.033	-0.054
-212.509	521.716	-0.083	-0.195
-211.494	-137.187	-0.067	0.008
-210.479	-96.942	0.214	0.056
-209.465	-100.395	0.176	-0.043
-208.450	40.689	-0.160	-0.143
-207.436	-180.193	-0.353	0.007
-206.421	109.292	-0.064	-0.076
-205.406	800.000	0.032	0.132
-204.392	-39.272	-0.188	-0.098
-203.377	215.522	0.071	0.113
-202.363	129.280	0.059	0.075
-201.348	39.314	0.048	-0.043
-200.333	-200.000	0.041	-0.274
-199.319	21.190	0.182	-0.147
-198.304	-88.715	0.212	-0.063
-197.290	39.900	0.152	-0.136
-196.275	-191.574	-0.248	-0.002
-195.260	767.115	-0.121	-0.326
-194.246	402.048	-0.049	0.101
-193.231	-86.629	-0.083	-0.025
-192.217	-200.000	0.018	0.365
-191.202	-59.406	0.073	-0.031
-190.187	135.847	0.088	-0.114
-189.173	131.756	0.133	-0.170
-188.158	-90.133	0.200	0.058
-187.144	-200.000	0.005	0.239
-186.129	7.016	-0.231	-0.172
-185.114	83.848	-0.088	0.095
-184.100	-84.983	0.374	0.117
-183.085	-55.545	0.096	0.043
-182.071	-52.803	0.194	-0.089
-181.056	-163.578	-0.319	-0.015
-180.042	84.855	0.116	0.127
-179.027	-159.941	0.177	0.010
-178.012	-43.369	0.320	-0.161
-176.998	173.711	-0.112	-0.161
-175.983	-200.000	-0.015	-0.146
-174.969	414.412	-0.183	-0.388
-173.954	-198.585	0.307	-0.002
-172.939	-20.095	0.319	-0.195
-171.925	190.253	0.155	-0.232
-170.910	580.200	0.018	0.044
-169.896	6.787	0.236	-0.175
-168.881	165.643	0.146	-0.205
-167.866	800.000	0.115	0.357
-166.852	-30.064	-0.285	-0.161
-165.837	-77.441	-0.152	-0.052
-164.823	-3.149	-0.236	-0.163
-163.808	-128.094	0.327	-0.047
-162.793	-137.030	0.372	0.042
-161.779	55.362	0.228	-0.219
-160.764	-17.679	-0.087	-0.054
-159.750	-200.000	0.011	-0.136
-158.735	233.815	-0.064	-0.105
-157.720	-200.000	0.050	-0.297
-156.706	233.407	0.226	-0.369
-155.691	105.186	-0.151	0.178
-154.677	-92.640	0.431	0.120
-153.662	201.412	0.054	0.083
-152.647	-24.611	-0.133	0.079
-151.633	-138.004	-0.213	-0.024
-150.618	242.344	-0.073	-0.121
-149.604	143.057	-0.062	-0.082
-148.589	80.845	0.174	0.187
-147.574	294.509	0.031	0.056
-146.560	-57.900	0.315	-0.137
-145.545	-174.508	-0.404	0.011
-144.531	-72.251	-0.310	-0.114
-143.516	445.928	-0.113	0.247
-142.502	-22.612	0.199	0.120
-141.487	800.000	-0.030	0.085
-140.472	-40.012	-0.113	-0.059
-139.458	5.329	-0.082	0.060
-138.443	-200.000	-0.002	0.092
-137.429	44.769	-0.083	-0.076
-136.414	-200.000	-0.078	0.493
-135.399	152.381	-0.149	0.202
-134.385	800.000	-0.093	0.267
-133.370	434.939	-0.106	-0.229
-132.356	-70.429	-0.266	-0.100
-131.341	-52.807	0.343	0.157
-130.326	433.292	0.131	-0.281
-129.312	-200.000	0.009	-0.412
-128.297	273.406	0.052	0.091
-127.283	800.000	-0.114	0.459
-126.268	47.904	-0.219	-0.203
-125.253	226.236	-0.099	0.159
-124.239	227.642	-0.195	-0.314
-123.224	39.526	0.231	-0.205
-122.210	-124.045	0.091	-0.014
-121.195	-139.452	-0.121	-0.013
-120.180	101.392	-0.019	0.023
-119.166	216.958	0.283	0.447
-118.151	185.184	0.134	-0.197
-117.137	98.368	-0.134	-0.153
-116.122	-71.023	-0.133	-0.050
-115.107	-51.126	0.094	0.044
-114.093	-200.000	-0.061	0.327
-113.078	800.000	-0.065	0.281
-112.064	101.652	-0.187	-0.216
-111.049	800.000	-0.018	-0.074
-110.034	26.429	0.071	-0.058
-109.020	364.402	-0.147	0.293
-108.005	277.588	0.073	0.129
-106.991	800.000	-0.084	0.244
-105.976	-6.966	0.222	-0.149
-104.962	-121.890	0.190	-0.031
-103.947	-151.559	0.142	-0.010
-102.932	135.499	0.149	0.192
-101.918	439.918	0.111	-0.241
-100.903	-200.000	-0.014	-0.134
-99.889	-45.556	0.184	-0.090
-98.874	29.388	0.214	-0.180
-97.859	-138.883	0.213	0.023
-96.845	-113.953	0.236	-0.045
-95.830	246.772	-0.084	-0.141
-94.816	88.455	0.175	0.193
-93.801	800.000	0.066	-0.207
-92.786	-200.000	0.011	-0.175
-91.772	800.000	0.114	-0.463
-90.757	-53.916	0.035	0.016
-89.743	-200.000	-0.042	-0.236
-88.728	149.100	-0.155	-0.208
-87.713	-4.415	-0.089	0.061
-86.699	75.881	-0.088	-0.093
-85.684	17.142	-0.300	0.236
-84.670	-76.386	-0.162	0.057
-83.655	-84.054	0.298	-0.094
-82.640	108.669	0.139	-0.164
-81.626	52.161	0.160	0.151
-80.611	370.958	-0.067	-0.135
-79.597	-200.000	0.003	0.052
-78.582	172.047	0.130	-0.186
-77.567	-29.021	-0.257	-0.146
-76.553	800.000	0.045	-0.160
-75.538	21.951	0.106	-0.085
-74.524	34.556	0.037	-0.032
-73.509	-200.000	-0.038	0.204
-72.494	416.473	-0.036	0.077
-71.480	-53.705	-0.211	0.095
-70.465	-114.384	-0.247	0.047
-69.451	103.344	-0.038	0.044
-68.436	69.425	0.078	0.080
-67.422	129.249	-0.266	-0.335
-66.407	-200.000	0.005	-0.129
-65.392	111.548	0.110	-0.131
-64.378	-143.470	0.269	0.025
-63.363	7.011	-0.069	0.051
-62.349	318.017	-0.086	0.161
-61.334	4.528	-1.154	-0.838
-60.319	32.333	0.383	0.328
-59.305	-200.000	-0.009	-1.119
-58.290	291.497	0.563	1.013
-57.276	581.507	0.610	1.480
-56.261	-200.000	98.016	574.619
-55.246	609.190	1416.498	3498.454
-54.232	181.825	2634.745	3836.718
-53.217	118.382	2217.931	2706.456
-52.203	44.335	1746.381	1585.631
-51.188	36.930	1557.120	1361.940
-50.173	34.610	1530.347	1322.417
-49.159	53.037	1581.945	1497.306
-48.144	56.357	1600.106	1537.831
-47.130	37.309	1555.837	1363.258
-46.115	34.252	1539.377	1327.511
-45.100	33.933	1536.613	1322.858
-44.086	33.732	1535.023	1320.037
-43.071	33.805	1533.015	1318.770
-42.057	33.728	1531.527	1316.903
-41.042	33.899	1529.809	1316.552
-40.027	33.907	1528.435	1315.379
-39.013	33.788	1527.231	1313.468
-37.998	33.776	1525.728	1312.040
-36.984	33.990	1524.267	1312.208
-35.969	33.930	1523.004	1310.652
-34.954	33.809	1521.562	1308.528
-33.940	33.802	1520.399	1307.427
-32.925	33.871	1518.810	1306.482
-31.911	33.732	1517.985	1304.762
-30.896	33.928	1516.481	1304.768
-29.881	33.904	1515.390	1303.612
-28.867	33.898	1513.974	1302.298
-27.852	33.865	1512.568	1300.813
-26.838	33.871	1511.083	1299.527
-25.823	33.809	1510.014	1298.130
-24.809	33.892	1508.049	1296.956
-23.794	33.890	1506.241	1295.339
-22.779	33.834	1505.131	1293.946
-21.765	33.787	1504.128	1292.714
-20.750	33.828	1503.322	1292.253
-19.736	33.856	1501.463	1290.790
-18.721	33.870	1500.330	1289.860
-17.706	33.882	1499.381	1289.075
-16.692	33.774	1498.363	1287.420
-15.677	33.779	1497.441	1286.610
-14.663	33.755	1496.390	1285.492
-13.648	33.722	1495.976	1284.858
-12.633	33.782	1494.446	1283.903
-11.619	33.735	1493.940	1283.096
-10.604	33.774	1492.541	1282.108
-9.590	33.750	1491.567	1281.059
-8.575	33.712	1490.779	1280.076
-7.560	33.735	1490.306	1279.772
-6.546	33.734	1489.846	1279.324
-5.531	33.787	1488.559	1278.523
-4.517	33.750	1487.478	1277.296
-3.502	33.680	1486.751	1276.147
-2.487	33.699	1485.522	1275.170
-1.473	33.701	1484.493	1274.248
-0.458	33.779	1483.141	1273.561
0.556	36.236	1473.668	1264.497
1.571	33.332	1447.336	1223.063
2.586	29.630	1384.653	1147.055
3.600	27.611	1301.089	1065.944
4.615	25.368	1253.048	1013.845
5.629	21.340	1194.843	944.936
6.644	12.731	1108.569	833.258
7.659	5.894	1066.360	768.089
8.673	4.819	1060.886	758.839
9.688	4.553	1057.545	755.092
10.702	4.451	1055.737	753.241
11.717	4.658	1054.243	753.108
12.731	7.849	1057.942	771.171
13.746	16.368	1070.028	821.508
14.761	22.063	1077.417	854.911
15.775	22.485	1076.046	855.797
16.790	21.694	1074.727	850.834
17.804	20.664	1072.651	844.121
18.819	19.870	1070.615	838.597
19.834	19.527	1069.207	835.762
20.848	19.325	1068.631	834.259
21.863	19.183	1067.885	832.917
22.877	19.013	1067.364	831.612
23.892	18.881	1066.375	830.134
24.907	18.851	1065.669	829.365
25.921	18.873	1064.732	828.669
26.936	18.782	1064.015	827.600
27.950	18.770	1062.741	826.474
28.965	18.868	1061.471	825.887
29.980	18.786	1060.809	824.905
30.994	19.073	1059.373	825.090
32.009	19.114	1058.726	824.712
33.023	19.157	1058.236	824.461
34.038	19.078	1057.368	823.334
35.053	18.948	1056.630	822.063
36.067	18.953	1055.022	820.767
37.082	18.795	1054.715	819.701
38.096	18.842	1054.064	819.345
39.111	18.889	1053.158	818.794
40.126	19.255	1051.772	819.384
41.140	19.069	1050.803	817.673
42.155	18.748	1049.571	815.116
43.169	18.529	1048.606	813.259
44.184	18.517	1047.165	812.010
45.199	18.409	1046.580	810.975
46.213	18.585	1045.535	810.924
47.228	18.576	1044.477	809.991
48.242	18.835	1043.762	810.586
49.257	18.875	1043.263	810.315
50.271	18.866	1042.387	809.524
51.286	18.868	1041.348	808.650
52.301	18.973	1040.936	808.754
53.315	18.872	1039.758	807.292
54.330	18.835	1038.979	806.443
55.344	18.715	1037.920	804.988
56.359	18.614	1037.044	803.764
57.374	18.637	1036.094	803.064
58.388	18.673	1035.705	802.860
59.403	18.572	1034.181	801.136
60.417	18.425	1033.666	799.981
61.432	18.463	1032.793	799.412
62.447	18.371	1032.244	798.487
63.461	18.349	1031.387	797.648
64.476	18.398	1030.179	796.874
65.490	18.274	1029.483	795.687
66.505	18.246	1028.471	794.708
67.520	18.248	1028.340	794.544
68.534	18.363	1027.289	794.194
69.549	18.345	1027.058	793.863
70.563	18.416	1025.203	792.688
71.578	18.215	1025.214	791.695
72.593	18.112	1024.018	790.226
73.607	18.009	1023.059	788.939
74.622	18.071	1021.493	787.946
75.636	18.144	1021.189	787.979
76.651	18.210	1020.372	787.582
77.666	18.162	1019.872	786.907
78.680	18.075	1018.857	785.657
79.695	18.314	1018.228	786.197
80.709	18.197	1018.005	785.419
81.724	18.343	1017.156	785.362
82.739	18.537	1016.101	785.370
83.753	18.561	1015.688	785.088
84.768	18.805	1014.660	785.341
85.782	19.072	1014.460	786.339
86.797	19.240	1013.626	786.388
87.812	19.134	1013.342	785.614
88.826	19.022	1011.983	783.979
89.841	18.873	1011.526	782.877
90.855	18.906	1010.652	782.285
91.870	19.135	1009.813	782.606
92.884	19.082	1009.362	781.946
93.899	19.190	1008.439	781.654
94.914	19.073	1007.724	780.498
95.928	19.121	1006.926	780.027
96.943	19.206	1005.621	779.332
97.957	19.153	1005.180	778.681
98.972	19.024	1004.218	777.287
99.987	18.978	1003.655	776.575
101.001	18.936	1002.908	775.738
102.016	19.067	1002.026	775.576
103.030	19.068	1000.754	774.528
104.045	19.084	1000.198	774.100
105.060	19.050	999.245	773.144
106.074	19.020	998.097	772.053
107.089	18.787	996.949	770.050
108.103	18.558	995.726	768.013
109.118	18.349	994.906	766.376
110.133	18.267	994.083	765.311
111.147	18.332	993.076	764.757
112.162	18.309	991.999	763.755
113.176	18.423	991.254	763.624
114.191	18.521	990.820	763.659
115.206	18.526	990.235	763.163
116.220	18.485	989.627	762.442
117.235	18.539	988.182	761.501
118.249	18.455	987.883	760.831
119.264	18.563	986.478	760.160
120.279	18.399	985.931	758.945
121.293	18.230	985.270	757.622
122.308	18.171	984.536	756.727
123.322	18.085	983.592	755.556
124.337	18.245	982.022	754.989
125.352	18.141	981.191	753.824
126.366	17.989	980.253	752.367
127.381	18.056	979.208	751.793
128.395	18.074	978.491	751.258
129.410	18.074	977.686	750.574
130.424	18.052	976.676	749.634
131.439	18.280	975.525	749.684
132.454	18.423	975.131	749.942
133.468	18.614	974.142	749.946
134.483	18.484	973.972	749.182
135.497	18.389	973.259	748.151
136.512	18.545	972.223	747.973
137.527	18.487	971.468	747.073
138.541	18.568	970.696	746.765
139.556	18.732	969.857	746.767
140.570	18.531	969.358	745.440
141.585	18.704	968.318	745.327
142.600	18.856	968.153	745.793
143.614	18.844	967.654	745.293
144.629	19.148	966.599	745.732
145.643	19.230	965.824	745.421
146.658	19.156	965.012	744.409
147.673	18.972	963.764	742.587
148.687	18.703	962.977	740.755
149.702	18.636	961.978	739.631
150.716	18.391	961.294	737.983
151.731	18.516	959.812	737.316
152.746	18.407	959.381	736.452
153.760	18.563	958.537	736.411
154.775	18.540	957.677	735.587
155.789	18.651	956.924	735.419
156.804	18.739	956.621	735.497
157.819	18.845	955.621	735.116
158.833	18.693	955.304	734.155
159.848	18.931	954.682	734.633
160.862	19.106	954.098	734.862
161.877	19.092	953.027	733.915
162.892	18.682	952.062	731.362
163.906	18.607	950.594	729.848
164.921	18.538	950.009	729.042
165.935	18.432	949.073	727.808
166.950	18.616	948.290	727.925
167.964	18.708	947.046	727.297
168.979	18.803	946.284	727.049
169.994	18.536	945.257	725.063
171.008	18.713	944.094	724.856
172.023	18.704	943.542	724.329
173.037	18.902	943.053	724.725
174.052	19.028	942.210	724.546
175.067	18.947	941.894	723.897
176.081	18.652	941.067	721.956
177.096	18.564	939.917	720.641
178.110	18.603	938.904	719.962
179.125	18.562	938.270	719.240
180.140	18.687	937.249	718.921
181.154	18.530	937.162	718.131
182.169	18.807	936.284	718.553
183.183	18.989	935.946	718.991
184.198	19.022	935.043	718.370
185.213	19.096	934.856	718.472
186.227	19.049	933.829	717.423
187.242	19.212	933.181	717.544
188.256	19.181	932.856	717.101
189.271	19.193	932.100	716.505
190.286	19.296	931.538	716.439
191.300	18.977	930.428	714.198
192.315	18.545	929.679	711.766
193.329	18.432	928.840	710.592
194.344	18.429	928.179	710.009
195.359	18.602	927.714	710.310
196.373	18.657	927.386	710.223
197.388	18.820	927.051	710.578
198.402	18.901	926.781	710.643
199.417	19.230	926.351	711.609
200.432	19.454	925.529	711.837
201.446	19.549	925.065	711.811
202.461	19.563	924.705	711.528
203.475	19.620	924.436	711.492
204.490	19.675	923.597	711.011
205.504	19.381	922.511	708.903
206.519	19.114	921.380	706.874
207.534	19.188	920.557	706.485
208.548	19.192	919.609	705.711
209.563	19.031	919.710	705.068
210.577	19.098	918.814	704.591
211.592	19.149	918.190	704.259
212.607	19.354	917.967	704.862
213.621	19.651	916.900	705.193
214.636	19.397	916.620	703.879
215.650	19.449	915.666	703.298
216.665	19.512	915.136	703.085
217.680	19.338	915.346	702.474
218.694	19.659	914.471	703.046
219.709	19.563	913.990	702.223
220.723	19.595	913.167	701.661
221.738	19.524	912.260	700.613
222.753	19.397	912.107	699.918
223.767	19.430	910.899	699.063
224.782	19.550	909.923	698.739
225.796	19.645	909.760	698.937
226.811	19.686	909.100	698.531
227.826	19.748	908.255	698.074
228.840	19.529	907.484	696.536
229.855	19.483	906.799	695.763
230.869	19.453	906.393	695.266
231.884	19.510	905.439	694.705
232.899	19.402	904.883	693.782
233.913	19.274	904.008	692.533
234.928	19.299	903.208	691.960
235.942	19.098	902.885	690.845
236.957	19.129	902.033	690.257
237.972	19.241	901.158	689.976
238.986	19.352	900.658	689.974
240.001	19.302	899.556	688.869
241.015	19.258	899.522	688.607
242.030	19.392	898.848	688.564
243.045	19.348	897.761	687.498
244.059	19.467	897.775	687.922
245.074	19.452	896.972	687.183
246.088	19.515	896.475	686.993
247.103	19.720	895.988	687.375
248.117	19.668	895.472	686.711
249.132	19.864	894.916	687.003
250.147	20.039	894.880	687.608
251.161	20.267	894.484	688.147
252.176	20.413	893.723	688.082
253.190	20.515	892.724	687.654
254.205	20.445	892.536	687.172
255.220	20.562	891.564	686.825
256.234	20.456	890.917	685.848
257.249	20.256	890.900	684.982
258.263	20.417	889.919	684.805
259.278	20.500	889.091	684.435
260.293	20.451	888.928	684.054
261.307	20.368	888.251	683.147
262.322	20.491	887.717	683.159
263.336	20.577	887.316	683.128
264.351	20.718	886.422	682.932
265.366	20.632	886.068	682.262
266.380	20.574	885.364	681.433
267.395	20.616	884.642	680.978
268.409	20.517	883.864	679.935
269.424	20.367	883.589	679.077
270.439	20.556	882.149	678.648
271.453	20.454	881.346	677.572
272.468	20.236	881.009	676.402
273.482	20.186	880.290	675.597
274.497	20.347	879.522	675.571
275.512	20.234	879.066	674.722
276.526	20.219	878.165	673.913
277.541	20.114	877.800	673.165
278.555	20.289	877.002	673.173
279.570	20.448	876.806	673.581
280.585	20.645	876.400	673.972
281.599	20.592	875.728	673.190
282.614	20.629	875.027	672.734
283.628	20.310	874.463	671.009
284.643	20.251	874.012	670.377
285.657	20.335	873.280	670.078
286.672	20.453	872.434	669.826
287.687	20.407	871.973	669.234
288.701	20.545	871.658	669.465
289.716	20.423	870.993	668.427
290.730	20.531	870.574	668.459
291.745	20.430	869.658	667.310
292.760	20.522	869.060	667.145
293.774	20.581	868.502	666.886
294.789	20.877	867.721	667.359
295.803	20.802	867.459	666.812
296.818	20.565	866.746	665.299
297.833	20.600	865.808	664.652
298.847	20.431	865.655	663.831
299.862	20.487	864.762	663.301
300.876	20.543	864.087	662.939
301.891	20.521	863.877	662.636
302.906	20.780	862.941	662.843
303.920	20.941	862.335	662.932
304.935	21.040	861.685	662.749
305.949	21.181	860.996	662.699
306.964	21.236	860.376	662.369
307.979	21.007	859.819	661.016
308.993	20.730	859.704	659.816
310.008	21.009	858.914	660.207
311.022	21.041	858.712	660.119
312.037	20.995	858.032	659.363
313.052	20.834	857.290	658.126
314.066	20.626	856.494	656.672
315.081	20.633	855.598	655.951
316.095	20.531	855.386	655.348
317.110	20.583	855.008	655.194
318.125	20.685	853.990	654.739
319.139	20.572	853.707	654.041
320.154	20.697	853.177	654.048
321.168	20.588	852.679	653.199
322.183	20.631	851.799	652.626
323.197	20.628	851.936	652.663
324.212	20.914	850.958	652.926
325.227	20.906	850.417	652.425
326.241	20.683	850.005	651.218
327.256	20.851	849.122	651.110
328.270	20.703	848.638	650.129
329.285	20.532	848.417	649.264
330.300	20.657	847.426	648.916
331.314	20.597	847.020	648.322
332.329	20.699	846.545	648.281
333.343	20.838	845.897	648.244
334.358	21.010	845.092	648.209
335.373	21.079	844.731	648.134
336.387	20.836	844.668	647.125
337.402	21.047	844.004	647.340
338.416	21.074	843.461	646.967
339.431	21.248	842.966	647.175
340.446	21.399	842.371	647.219
341.460	21.475	841.791	646.997
342.475	21.645	841.106	647.043
343.489	21.550	840.642	646.278
344.504	21.657	840.309	646.360
345.519	21.519	839.988	645.546
346.533	21.764	839.350	645.904
347.548	21.618	838.656	644.771
348.562	21.424	838.176	643.631
349.577	21.245	837.319	642.259
350.592	21.197	836.605	641.478
351.606	21.018	836.364	640.578
352.621	21.055	835.552	640.036
353.635	21.033	835.486	639.849
354.650	21.231	835.097	640.221
355.665	21.173	834.940	639.829
356.679	21.277	834.098	639.509
357.694	21.284	834.055	639.446
358.708	21.258	833.415	638.802
359.723	21.393	832.644	638.650
360.738	21.381	831.625	637.766
361.752	21.539	831.161	637.932
362.767	21.239	831.323	636.905
363.781	21.446	831.054	637.399
364.796	21.767	830.214	637.864
365.810	21.740	829.850	637.429
366.825	21.879	829.781	637.825
367.840	22.154	829.076	638.228
368.854	21.989	828.717	637.294
369.869	21.721	828.426	636.042
370.883	21.704	827.676	635.350
371.898	21.668	827.302	634.873
372.913	21.858	826.722	635.059
373.927	21.897	825.675	634.342
374.942	21.879	825.450	634.049
375.956	21.819	824.438	632.997
376.971	21.929	824.148	633.118
377.986	22.160	823.421	633.335
379.000	22.156	822.842	632.817
380.015	22.147	822.445	632.425
381.029	22.142	822.136	632.114
382.044	22.117	821.478	631.461
383.059	22.027	820.890	630.631
384.073	21.981	820.633	630.214
385.088	22.009	819.934	629.719
386.102	21.897	819.123	628.640
387.117	21.624	818.480	627.113
388.132	21.656	817.650	626.537
389.146	21.690	817.220	626.273
390.161	21.838	816.996	626.574
391.175	21.937	816.920	626.814
392.190	22.089	816.623	627.075
393.205	22.070	815.810	626.327
394.219	21.839	815.529	625.233
395.234	21.824	814.824	624.583
396.248	21.786	814.116	623.849
397.263	21.670	813.685	623.050
398.278	21.615	813.190	622.423
399.292	21.527	812.934	621.859
400.307	21.634	812.660	621.973
401.321	21.586	811.865	621.140
402.336	21.642	811.726	621.177
403.350	21.789	811.432	621.419
404.365	21.892	810.853	621.286
405.380	22.078	810.442	621.573
406.394	22.064	810.085	621.194
407.409	22.306	809.730	621.724
408.423	22.285	808.952	620.996
409.438	22.418	808.384	620.974
410.453	22.472	808.235	620.995
411.467	22.485	807.822	620.671
412.482	22.538	807.400	620.476
413.496	22.631	806.844	620.321
414.511	22.695	806.699	620.381
415.526	22.580	806.306	619.619
416.540	22.467	805.992	618.927
417.555	22.413	805.227	618.093
418.569	22.483	804.621	617.819
419.584	22.599	804.119	617.787
420.599	22.517	803.977	617.334
421.613	159.772	1368.873	1789.322
422.628	138.841	1451.190	1789.451
