DTS Sentinel unit serial number:	SN413079Multiplexer serial number:	ORYXHardware model number:	OX4-SRSoftware version number:	ORYX F/W v4.00 Oryx Data Collector v3.7.2.0data status	okinstallation	princeton_trtdifferential loss correction	single-endedforward channel	channel 3reverse channel	N/Adate	2019/09/15time	15:12:35forward acquisition time	60.00reverse acquisition time	0.00gamma	496.2192k internal	0.2292k external	0.2292temperature offset calibration	0.9946default loss term (dB/km)	0.3790temperature slope calibration	1.0000multiplexer offset coefficient	1.0000multiplexer slope coefficient	1.0000fibre end	0.00T internal ref (°C)	40.56T ext. ref 1 (°C)	4.98T ext. ref 2 (°C)	37.89length (m)	temperature (°C)	Stokes	anti-Stokes-747.200	-95.853	-0.160	0.044
-746.185	23.668	0.162	0.136
-745.171	99.910	0.239	-0.283
-744.156	93.216	-0.120	0.139
-743.142	479.771	0.068	-0.157
-742.127	67.353	0.177	0.185
-741.112	40.591	-0.222	0.205
-740.098	-200.000	0.056	-0.294
-739.083	-33.732	-0.119	0.067
-738.069	-200.000	-0.047	-0.251
-737.054	-168.385	-0.058	0.002
-736.039	-87.704	-0.178	0.055
-735.025	-200.000	-0.016	0.126
-734.010	-69.181	0.110	0.043
-732.996	777.918	-0.058	-0.163
-731.981	218.774	-0.166	-0.272
-730.966	157.993	-0.118	-0.167
-729.952	550.454	-0.053	-0.131
-728.937	61.199	-0.302	-0.307
-727.923	386.906	-0.047	-0.100
-726.908	-177.981	-0.209	0.005
-725.894	-200.000	-0.009	0.084
-724.879	-18.353	0.166	0.106
-723.864	744.799	-0.081	0.224
-722.850	19.794	-0.153	0.126
-721.835	800.000	0.029	0.082
-720.821	436.169	-0.127	-0.283
-719.806	137.260	-0.050	-0.067
-718.791	176.854	-0.081	-0.120
-717.777	239.072	0.065	-0.111
-716.762	-132.523	-0.421	0.055
-715.748	-76.262	-0.271	-0.098
-714.733	-200.000	-0.005	0.082
-713.718	180.076	0.095	0.142
-712.704	176.429	-0.189	-0.281
-711.689	-79.276	0.237	0.082
-710.675	130.696	-0.032	-0.042
-709.660	-151.564	0.027	-0.002
-708.645	-70.441	-0.442	0.171
-707.631	-47.425	-0.252	0.125
-706.616	-200.000	-0.009	0.284
-705.602	-140.644	-0.128	0.014
-704.587	398.654	-0.117	-0.251
-703.572	-200.000	-0.018	-0.175
-702.558	-55.523	-0.163	0.074
-701.543	128.123	-0.206	-0.268
-700.529	-113.872	-0.283	0.056
-699.514	206.857	0.100	-0.160
-698.499	680.305	0.135	-0.358
-697.485	-62.020	0.152	-0.065
-696.470	-110.651	-0.327	-0.069
-695.456	127.794	-0.106	0.137
-694.441	73.910	-0.096	-0.102
-693.426	800.000	0.084	-0.300
-692.412	-35.644	0.097	-0.054
-691.397	37.563	-0.197	-0.178
-690.383	114.362	-0.208	-0.258
-689.368	94.986	0.185	-0.215
-688.354	118.551	-0.235	0.297
-687.339	-186.180	0.145	-0.002
-686.324	47.382	-0.016	0.015
-685.310	-102.948	-0.162	0.039
-684.295	-90.842	0.189	-0.056
-683.281	-19.490	-0.153	0.097
-682.266	-57.066	-0.065	-0.029
-681.251	220.585	0.065	0.106
-680.237	683.987	-0.018	-0.049
-679.222	800.000	0.076	-0.254
-678.208	729.006	0.026	-0.072
-677.193	-165.405	-0.194	-0.009
-676.178	800.000	-0.128	-0.426
-675.164	-200.000	-0.011	0.116
-674.149	111.050	-0.111	-0.136
-673.135	101.433	0.203	-0.242
-672.120	366.064	0.051	-0.105
-671.105	-200.000	0.005	-0.282
-670.091	-79.720	0.275	-0.095
-669.076	-78.922	0.106	-0.037
-668.062	-128.023	-0.231	0.034
-667.047	-200.000	-0.031	0.150
-666.032	305.906	0.225	0.427
-665.018	-200.000	-0.001	-0.125
-664.003	-139.180	-0.157	-0.017
-662.989	800.000	0.102	0.442
-661.974	-200.000	-0.023	-0.271
-660.959	92.472	0.269	-0.310
-659.945	100.270	-0.156	0.184
-658.930	332.121	-0.144	-0.283
-657.916	-36.556	-0.082	0.045
-656.901	-198.855	-0.091	0.001
-655.886	62.060	-0.084	0.085
-654.872	-99.050	0.192	-0.050
-653.857	96.506	-0.210	-0.245
-652.843	-200.000	0.085	0.414
-651.828	339.526	-0.084	-0.166
-650.814	-160.927	-0.112	-0.006
-649.799	-3.064	0.132	-0.094
-648.784	-200.000	0.041	-0.372
-647.770	29.601	-0.131	-0.114
-646.755	-78.700	-0.079	0.027
-645.741	0.442	-0.424	-0.309
-644.726	8.512	-0.119	0.092
-643.711	800.000	0.080	0.306
-642.697	202.886	-0.120	0.189
-641.682	-200.000	0.001	0.149
-640.668	-166.139	-0.207	0.009
-639.653	37.738	-0.083	-0.075
-638.638	265.794	-0.133	0.236
-637.624	-53.019	0.369	-0.173
-636.609	-4.837	-0.300	-0.211
-635.595	112.889	0.028	-0.035
-634.580	-87.128	-0.111	0.035
-633.565	-139.279	0.188	-0.021
-632.551	93.769	-0.112	-0.129
-631.536	444.584	0.101	-0.226
-630.522	-19.628	-0.177	-0.112
-629.507	-200.000	0.009	-0.138
-628.492	-34.049	0.213	-0.120
-627.478	234.477	-0.086	-0.144
-626.463	-200.000	-0.027	0.248
-625.449	-16.250	0.224	0.145
-624.434	-92.275	0.125	0.036
-623.419	64.099	-0.099	0.101
-622.405	160.449	0.142	0.202
-621.390	139.572	0.088	0.118
-620.376	-59.095	-0.107	-0.047
-619.361	438.979	-0.133	0.295
-618.346	800.000	0.018	0.078
-617.332	-106.431	0.246	0.056
-616.317	-110.387	-0.272	0.058
-615.303	77.919	0.110	-0.119
-614.288	-200.000	0.030	0.135
-613.273	-200.000	-0.007	-0.041
-612.259	-200.000	-0.013	-0.375
-611.244	644.950	-0.014	0.036
-610.230	-106.813	0.260	0.059
-609.215	800.000	-0.018	0.059
-608.201	66.227	-0.162	-0.167
-607.186	-13.166	-0.099	-0.065
-606.171	800.000	-0.131	-0.372
-605.157	147.276	-0.119	-0.164
-604.142	221.963	-0.045	0.074
-603.128	-2.904	-0.346	0.246
-602.113	-200.000	0.015	0.085
-601.098	-34.284	-0.126	-0.070
-600.084	62.600	0.197	0.200
-599.069	172.773	-0.053	0.077
-598.055	-200.000	-0.032	-0.219
-597.040	-175.033	-0.222	0.006
-596.025	58.472	0.224	0.224
-595.011	-152.688	0.311	-0.023
-593.996	-151.499	0.164	-0.012
-592.982	-7.926	0.075	-0.052
-591.967	-66.338	0.121	0.049
-590.952	288.409	-0.147	-0.271
-589.938	-200.000	0.294	-0.000
-588.923	458.867	-0.093	0.211
-587.909	-61.402	0.181	-0.077
-586.894	-44.721	-0.149	-0.076
-585.879	35.483	-0.215	0.192
-584.865	-7.516	0.226	0.156
-583.850	291.526	-0.057	0.105
-582.836	-9.275	0.126	-0.085
-581.821	57.535	0.195	0.193
-580.806	-86.514	-0.205	0.064
-579.792	-12.818	-0.318	-0.211
-578.777	120.444	-0.082	0.104
-577.763	-200.000	0.020	-0.174
-576.748	-200.000	-0.006	0.042
-575.733	333.530	-0.088	-0.172
-574.719	155.669	-0.077	-0.109
-573.704	6.413	-0.125	-0.094
-572.690	312.904	0.075	-0.143
-571.675	-110.779	-0.181	-0.038
-570.661	-60.746	-0.143	-0.062
-569.646	800.000	-0.094	0.400
-568.631	226.538	0.093	-0.154
-567.617	800.000	0.079	0.273
-566.602	160.879	0.191	0.271
-565.588	163.317	-0.044	0.063
-564.573	-72.510	-0.092	0.035
-563.558	-99.665	-0.414	-0.106
-562.544	-37.938	-0.135	0.073
-561.529	-200.000	0.023	-0.110
-560.515	697.686	0.119	-0.319
-559.500	93.367	0.146	-0.168
-558.485	37.814	-0.115	-0.103
-557.471	-200.000	-0.002	-0.205
-556.456	-200.000	0.074	-0.377
-555.442	-148.447	0.388	0.032
-554.427	-60.988	-0.291	-0.125
-553.412	79.375	-0.270	-0.294
-552.398	-32.006	-0.172	0.098
-551.383	17.823	0.131	-0.106
-550.369	75.212	-0.046	-0.049
-549.354	-26.876	0.144	-0.085
-548.339	104.877	0.288	-0.346
-547.325	-30.316	-0.208	-0.120
-546.310	-119.927	-0.324	0.056
-545.296	-17.706	0.279	-0.178
-544.281	-92.137	-0.067	0.019
-543.266	425.108	-0.116	0.254
-542.252	32.959	-0.137	-0.121
-541.237	-144.798	-0.214	0.020
-540.223	-200.000	0.030	0.220
-539.208	800.000	-0.043	-0.165
-538.193	64.781	0.138	0.141
-537.179	-7.901	-0.134	0.092
-536.164	-70.950	0.117	-0.045
-535.150	-200.000	-0.035	-0.230
-534.135	-124.407	-0.194	0.031
-533.121	-72.743	-0.158	0.059
-532.106	800.000	-0.062	-0.218
-531.091	145.082	-0.027	-0.036
-530.077	-95.615	-0.126	-0.034
-529.062	-200.000	-0.053	0.254
-528.048	-95.332	0.246	-0.067
-527.033	84.879	-0.131	-0.146
-526.018	-113.087	0.301	0.060
-525.004	12.070	0.163	0.127
-523.989	-200.000	0.044	0.204
-522.975	-34.979	-0.147	0.081
-521.960	-118.640	0.063	-0.011
-520.945	-72.598	0.101	0.038
-519.931	-3.778	-0.267	-0.188
-518.916	-200.000	0.008	-0.189
-517.902	-100.592	0.277	0.070
-516.887	-91.756	0.277	0.080
-515.872	-121.985	0.522	-0.087
-514.858	-41.661	-0.190	0.099
-513.843	180.079	0.087	-0.129
-512.829	55.262	0.164	0.161
-511.814	116.677	0.153	-0.191
-510.799	800.000	0.083	-0.278
-509.785	-200.000	-0.032	0.187
-508.770	55.280	-0.033	0.032
-507.756	187.938	-0.113	0.171
-506.741	149.134	-0.077	-0.105
-505.726	35.191	-0.047	0.042
-504.712	-143.033	0.296	-0.029
-503.697	-149.730	-0.571	-0.046
-502.683	655.951	0.075	-0.196
-501.668	58.280	0.154	0.153
-500.653	-200.000	-0.006	0.543
-499.639	361.060	-0.096	-0.195
-498.624	11.430	0.141	-0.110
-497.610	-8.083	-0.309	0.211
-496.595	-89.280	-0.117	0.035
-495.581	-200.000	0.079	0.000
-494.566	462.531	-0.162	-0.368
-493.551	-139.586	0.360	0.039
-492.537	177.399	-0.195	0.288
-491.522	0.772	0.259	-0.188
-490.508	-200.000	-0.050	0.238
-489.493	81.929	0.099	0.108
-488.478	-200.000	0.096	-0.433
-487.464	752.368	-0.041	-0.112
-486.449	471.324	-0.030	0.068
-485.435	44.517	0.073	-0.068
-484.420	-78.985	-0.263	0.091
-483.405	1.383	-0.122	-0.089
-482.391	-200.000	0.014	-0.160
-481.376	-108.724	-0.081	-0.018
-480.362	166.459	-0.090	-0.129
-479.347	-52.651	0.179	-0.084
-478.332	-54.708	0.235	0.108
-477.318	170.735	0.100	0.145
-476.303	-200.000	-0.019	-0.203
-475.289	-121.450	0.358	-0.060
-474.274	-200.000	-0.012	-0.260
-473.259	-85.168	0.190	-0.060
-472.245	9.149	-0.177	-0.135
-471.230	-65.477	0.193	-0.079
-470.216	-37.419	-0.303	0.164
-469.201	18.571	0.220	-0.178
-468.186	145.830	-0.032	0.044
-467.172	800.000	0.096	-0.294
-466.157	-6.920	-0.190	0.131
-465.143	558.672	-0.162	-0.396
-464.128	-136.772	-0.204	-0.024
-463.113	-41.249	0.206	0.108
-462.099	58.798	0.087	0.086
-461.084	-124.628	0.328	0.051
-460.070	87.193	0.164	0.184
-459.055	281.991	0.182	-0.330
-458.040	-122.725	0.257	0.042
-457.026	-119.176	-0.498	-0.088
-456.011	527.570	0.050	-0.120
-454.997	-24.687	-0.383	0.230
-453.982	1.693	-0.380	0.277
-452.968	437.826	-0.096	0.213
-451.953	8.215	-0.237	0.180
-450.938	-98.772	0.182	-0.047
-449.924	-183.533	0.311	-0.005
-448.909	-2.912	-0.101	-0.071
-447.895	800.000	0.051	-0.210
-446.880	209.180	-0.063	0.100
-445.865	-200.000	0.009	0.171
-444.851	-16.320	0.116	-0.075
-443.836	36.461	-0.050	-0.044
-442.822	-200.000	0.029	-0.136
-441.807	-200.000	-0.010	-0.048
-440.792	33.192	0.124	-0.109
-439.778	-200.000	-0.005	0.141
-438.763	-63.719	-0.174	0.072
-437.749	-200.000	0.090	-0.482
-436.734	-57.499	0.221	0.098
-435.719	-161.241	-0.236	0.012
-434.705	107.772	0.080	-0.096
-433.690	108.055	0.174	0.210
-432.676	-65.788	-0.175	0.071
-431.661	-200.000	0.020	-0.175
-430.646	-49.060	-0.195	-0.095
-429.632	-137.894	-0.132	0.015
-428.617	187.228	-0.008	0.011
-427.603	-174.429	-0.038	0.001
-426.588	7.773	-0.190	0.144
-425.573	245.804	-0.077	0.132
-424.559	-200.000	-0.083	0.367
-423.544	-87.805	-0.227	0.069
-422.530	-200.000	-0.064	-0.389
-421.515	-87.170	-0.084	0.026
-420.500	-105.492	-0.354	-0.081
-419.486	-35.109	0.072	0.040
-418.471	657.165	-0.049	0.127
-417.457	202.845	-0.054	0.085
-416.442	443.443	0.059	-0.131
-415.428	115.814	0.196	-0.242
-414.413	800.000	-0.036	0.155
-413.398	-69.371	0.116	0.045
-412.384	-74.209	0.158	0.058
-411.369	566.746	0.098	0.241
-410.355	800.000	-0.057	-0.224
-409.340	-46.167	-0.353	-0.176
-408.325	-148.663	0.183	0.015
-407.311	-150.657	0.020	0.002
-406.296	-200.000	-0.001	-0.093
-405.282	800.000	0.041	-0.153
-404.267	105.526	0.325	-0.388
-403.252	282.235	0.131	0.237
-402.238	-127.142	-0.240	-0.035
-401.223	-25.545	-0.168	0.100
-400.209	800.000	0.053	-0.231
-399.194	800.000	-0.118	0.332
-398.179	-72.828	-0.224	-0.083
-397.165	-104.439	0.184	-0.043
-396.150	800.000	-0.079	0.283
-395.136	77.737	0.381	0.409
-394.121	-173.774	-0.280	-0.008
-393.106	24.736	0.143	-0.120
-392.092	-98.002	-0.149	-0.039
-391.077	11.576	0.055	-0.043
-390.063	-169.070	0.100	0.004
-389.048	-56.338	0.146	0.066
-388.033	231.518	-0.138	0.228
-387.019	286.053	0.058	0.106
-386.004	-105.038	-0.284	0.066
-384.990	365.412	-0.223	0.454
-383.975	254.519	0.113	-0.195
-382.960	137.940	0.057	0.075
-381.946	800.000	0.107	0.361
-380.931	441.512	0.060	0.132
-379.917	-77.147	-0.104	0.036
-378.902	2.721	0.058	0.043
-377.888	44.281	0.120	-0.111
-376.873	-147.563	-0.031	-0.003
-375.858	99.800	-0.116	0.135
-374.844	-4.169	0.309	0.216
-373.829	69.812	-0.126	-0.131
-372.815	-200.000	0.017	0.165
-371.800	157.456	-0.164	-0.230
-370.785	398.593	-0.159	-0.335
-369.771	264.328	0.080	0.140
-368.756	-102.588	-0.248	-0.060
-367.742	-104.363	0.314	0.073
-366.727	558.985	-0.094	0.230
-365.712	50.696	-0.077	0.073
-364.698	438.560	0.083	0.183
-363.683	-0.328	-0.295	-0.211
-362.669	-79.114	0.217	-0.074
-361.654	800.000	-0.036	0.141
-360.639	622.103	0.040	0.103
-359.625	0.152	0.306	0.220
-358.610	-200.000	-0.003	-0.399
-357.596	-77.166	0.270	-0.095
-356.581	-100.077	-0.263	-0.066
-355.566	-200.000	-0.012	0.241
-354.552	169.014	0.134	0.192
-353.537	800.000	-0.021	-0.085
-352.523	-63.446	-0.176	-0.073
-351.508	-200.000	-0.010	0.254
-350.493	226.305	0.172	-0.281
-349.479	-1.289	-0.130	0.093
-348.464	-42.553	-0.102	-0.052
-347.450	-3.092	-0.324	-0.228
-346.435	-57.474	-0.103	0.046
-345.420	-167.653	-0.124	0.005
-344.406	7.268	0.316	-0.237
-343.391	-39.680	0.167	-0.088
-342.377	-84.662	0.171	0.054
-341.362	126.471	-0.033	-0.042
-340.348	385.167	-0.113	0.235
-339.333	-200.000	0.006	0.270
-338.318	250.822	-0.005	-0.009
-337.304	93.953	0.275	0.314
-336.289	494.420	0.152	0.351
-335.275	-172.571	-0.218	-0.007
-334.260	18.506	-0.049	0.039
-333.245	338.778	0.068	0.133
-332.231	-59.765	0.089	-0.038
-331.216	-200.000	-0.049	0.226
-330.202	-75.717	0.070	0.025
-329.187	-102.418	0.148	-0.036
-328.172	-135.300	0.270	-0.033
-327.158	-155.795	0.191	-0.012
-326.143	800.000	-0.097	0.292
-325.129	78.379	0.038	-0.041
-324.114	348.228	-0.078	-0.155
-323.099	199.866	-0.056	-0.087
-322.085	4.795	0.044	-0.033
-321.070	40.509	-0.169	-0.153
-320.056	-45.911	-0.106	-0.053
-319.041	153.947	-0.140	0.194
-318.026	-97.685	-0.122	-0.032
-317.012	-41.124	0.352	0.183
-315.997	32.680	-0.094	-0.082
-314.983	-62.659	0.089	-0.037
-313.968	-65.473	-0.223	0.090
-312.953	78.181	0.164	0.176
-311.939	-10.037	-0.238	0.159
-310.924	800.000	0.047	0.185
-309.910	-200.000	0.016	-0.203
-308.895	418.802	-0.094	0.201
-307.880	392.505	-0.050	0.105
-306.866	-86.972	0.213	-0.065
-305.851	-200.000	-0.001	-0.058
-304.837	-43.082	0.081	-0.041
-303.822	800.000	-0.070	-0.229
-302.807	-200.000	0.029	-0.169
-301.793	97.861	-0.071	-0.082
-300.778	123.211	0.265	0.334
-299.764	242.775	0.211	0.356
-298.749	-140.049	-0.156	0.017
-297.735	-8.557	-0.291	0.197
-296.720	111.452	0.076	0.092
-295.705	-62.019	0.132	-0.056
-294.691	-200.000	-0.043	0.315
-293.676	465.797	0.083	-0.187
-292.662	-68.099	0.115	-0.045
-291.647	45.941	-0.208	-0.193
-290.632	800.000	0.114	-0.380
-289.618	242.466	0.097	0.164
-288.603	-15.028	0.089	0.057
-287.589	-200.000	-0.002	0.165
-286.574	800.000	-0.090	0.265
-285.559	103.820	0.226	-0.266
-284.545	280.744	0.021	-0.039
-283.530	-102.751	-0.148	0.035
-282.516	-200.000	-0.025	0.196
-281.501	541.905	0.059	0.142
-280.486	169.581	-0.192	-0.276
-279.472	357.296	-0.098	0.196
-278.457	-200.000	0.055	0.256
-277.443	485.927	-0.030	0.069
-276.428	-119.299	0.052	-0.009
-275.413	-161.009	0.060	0.003
-274.399	-112.334	0.095	-0.019
-273.384	-200.000	0.028	0.168
-272.370	-200.000	-0.018	0.639
-271.355	-34.796	-0.036	-0.020
-270.340	-67.567	0.367	0.145
-269.326	60.418	-0.141	-0.140
-268.311	-155.029	-0.132	-0.009
-267.297	680.976	0.084	-0.221
-266.282	79.495	-0.132	-0.142
-265.267	800.000	0.061	-0.251
-264.253	-93.206	-0.370	-0.103
-263.238	483.158	0.111	0.253
-262.224	-155.364	-0.176	0.011
-261.209	-94.891	0.088	0.024
-260.195	-200.000	0.011	-0.207
-259.180	-100.880	0.377	-0.093
-258.165	28.298	-0.192	0.163
-257.151	-200.000	0.003	-0.028
-256.136	316.157	0.022	0.042
-255.122	-200.000	-0.057	0.307
-254.107	637.503	-0.100	0.255
-253.092	174.734	0.168	-0.244
-252.078	-108.377	-0.195	-0.042
-251.063	-2.677	-0.191	-0.134
-250.049	-113.936	0.146	-0.028
-249.034	800.000	-0.037	-0.148
-248.019	-49.016	-0.158	0.076
-247.005	284.461	0.021	0.038
-245.990	-97.886	-0.089	-0.023
-244.976	800.000	0.071	-0.228
-243.961	20.859	0.122	0.099
-242.946	-200.000	0.024	-0.174
-241.932	80.467	0.216	0.234
-240.917	-40.093	0.088	0.046
-239.903	-77.224	0.221	0.077
-238.888	800.000	0.032	-0.100
-237.873	554.862	0.039	-0.094
-236.859	313.590	0.053	-0.100
-235.844	-195.849	0.304	-0.002
-234.830	-200.000	0.003	0.184
-233.815	279.811	-0.281	-0.504
-232.800	-82.675	-0.078	0.025
-231.786	180.500	0.280	-0.413
-230.771	-141.018	0.186	-0.019
-229.757	59.968	0.035	0.034
-228.742	109.299	0.242	-0.291
-227.727	-17.200	-0.375	-0.237
-226.713	-102.454	-0.345	-0.083
-225.698	-200.000	0.043	-0.332
-224.684	-89.431	-0.180	0.053
-223.669	547.793	0.134	0.322
-222.655	48.646	0.199	0.187
-221.640	-200.000	0.016	0.139
-220.625	-200.000	0.039	-0.385
-219.611	-20.380	-0.130	-0.080
-218.596	-200.000	0.014	0.139
-217.582	-200.000	0.021	-0.294
-216.567	421.908	0.065	0.140
-215.552	-172.443	0.039	0.001
-214.538	-200.000	0.036	0.230
-213.523	800.000	0.035	-0.147
-212.509	-200.000	-0.059	0.276
-211.494	140.538	0.081	0.107
-210.479	-85.071	0.176	-0.055
-209.465	263.786	-0.028	0.048
-208.450	268.419	0.064	0.112
-207.436	66.120	-0.245	0.250
-206.421	-118.040	-0.451	-0.081
-205.406	-124.630	-0.430	0.067
-204.392	480.701	-0.082	-0.187
-203.377	45.984	-0.140	0.130
-202.363	117.647	0.328	-0.405
-201.348	104.855	0.155	-0.183
-200.333	-11.234	-0.145	-0.096
-199.319	53.365	-0.054	0.052
-198.304	-7.895	0.309	0.209
-197.290	-147.920	-0.177	0.015
-196.275	-33.759	-0.158	-0.087
-195.260	-131.006	0.024	0.003
-194.246	-158.061	0.311	0.018
-193.231	1.236	0.131	0.095
-192.217	249.373	-0.090	-0.153
-191.202	-190.693	-0.116	0.001
-190.187	-79.169	0.246	0.084
-189.173	70.216	0.268	-0.277
-188.158	-115.597	0.108	0.020
-187.144	800.000	0.065	-0.237
-186.129	62.439	0.020	0.020
-185.114	-200.000	-0.009	-0.092
-184.100	220.616	-0.065	-0.105
-183.085	-149.351	-0.148	-0.012
-182.071	-53.983	-0.192	0.088
-181.056	-200.000	-0.045	0.198
-180.042	-107.791	-0.164	0.036
-179.027	-95.841	0.383	0.102
-178.012	-200.000	0.092	-0.469
-176.998	-65.500	-0.101	-0.041
-175.983	83.506	0.352	0.384
-174.969	184.245	0.129	0.191
-173.954	-31.101	0.089	-0.050
-172.939	67.808	0.269	-0.275
-171.925	236.945	-0.056	0.093
-170.910	242.936	-0.155	0.260
-169.896	-200.000	0.026	-0.126
-168.881	800.000	0.061	0.264
-167.866	800.000	-0.153	0.441
-166.852	800.000	-0.057	-0.189
-165.837	-26.301	0.185	-0.109
-164.823	255.257	-0.115	0.197
-163.808	113.300	0.058	0.071
-162.793	451.913	0.021	-0.046
-161.779	800.000	-0.069	-0.253
-160.764	115.774	-0.196	-0.240
-159.750	57.366	0.192	-0.187
-158.735	-200.000	-0.002	0.384
-157.720	-200.000	-0.006	-0.178
-156.706	91.247	0.098	-0.110
-155.691	800.000	-0.081	0.246
-154.677	182.039	0.228	0.336
-153.662	237.945	-0.021	0.035
-152.647	-117.740	-0.304	-0.055
-151.633	-40.251	0.264	-0.137
-150.618	-32.268	0.137	0.077
-149.604	-15.480	0.211	-0.135
-148.589	728.354	-0.061	0.162
-147.574	268.823	0.079	-0.139
-146.560	117.164	-0.092	-0.113
-145.545	287.508	0.003	0.005
-144.531	800.000	-0.016	0.046
-143.516	-200.000	0.007	-0.204
-142.502	-137.290	-0.489	-0.055
-141.487	-80.685	0.258	0.086
-140.472	-200.000	-0.042	-0.228
-139.458	-200.000	-0.036	0.253
-138.443	-46.794	-0.269	-0.132
-137.429	-200.000	-0.057	0.274
-136.414	-1.567	-0.216	-0.152
-135.399	12.586	-0.235	0.181
-134.385	-105.217	0.351	-0.080
-133.370	338.202	-0.083	-0.161
-132.356	12.143	-0.229	0.176
-131.341	163.072	-0.103	0.144
-130.326	271.357	-0.140	0.246
-129.312	201.836	-0.156	0.240
-128.297	-200.000	0.028	-0.293
-127.283	-174.109	-0.165	0.005
-126.268	-39.943	-0.312	0.163
-125.253	236.930	0.137	-0.226
-124.239	-183.314	0.190	0.003
-123.224	-200.000	-0.025	0.215
-122.210	102.556	-0.289	0.337
-121.195	8.880	0.296	-0.223
-120.180	800.000	0.074	-0.261
-119.166	-5.698	0.130	-0.089
-118.151	-200.000	-0.040	-0.200
-117.137	-67.762	-0.338	-0.132
-116.122	306.490	0.302	0.562
-115.107	70.570	-0.084	0.087
-114.093	-83.884	0.118	-0.037
-113.078	75.811	0.089	-0.093
-112.064	-4.023	-0.268	-0.185
-111.049	-169.124	0.082	-0.003
-110.034	169.443	-0.081	0.116
-109.020	375.465	-0.047	-0.095
-108.005	-53.908	0.128	0.058
-106.991	-200.000	-0.014	-0.342
-105.976	-200.000	0.015	-0.604
-104.962	-92.630	0.207	-0.058
-103.947	-154.533	-0.175	-0.012
-102.932	21.856	-0.414	-0.337
-101.918	3.742	-0.213	0.155
-100.903	200.053	-0.027	0.042
-99.889	14.245	-0.179	-0.139
-98.874	-166.263	0.598	-0.025
-97.859	6.987	-0.224	0.167
-96.845	-20.968	0.074	0.045
-95.830	-51.300	0.076	0.036
-94.816	221.196	0.160	0.256
-93.801	-154.088	0.154	0.010
-92.786	119.443	0.260	0.321
-91.772	-200.000	-0.008	0.176
-90.757	5.274	0.221	0.163
-89.743	290.431	0.080	-0.145
-88.728	-93.950	-0.242	-0.066
-87.713	-57.232	0.495	-0.217
-86.699	-20.069	0.091	0.056
-85.684	372.698	0.057	0.116
-84.670	-200.000	-0.235	0.000
-83.655	800.000	-0.071	0.289
-82.640	-35.797	0.365	-0.197
-81.626	-147.262	0.118	0.010
-80.611	800.000	0.061	-0.256
-79.597	-200.000	-0.029	0.175
-78.582	-12.682	-0.184	0.120
-77.567	-68.887	0.278	-0.107
-76.553	-62.423	0.192	0.080
-75.538	-200.000	0.013	0.175
-74.524	-49.683	-0.210	0.100
-73.509	46.087	-0.239	0.220
-72.494	-200.000	0.001	-0.024
-71.480	-6.908	-0.253	0.172
-70.465	358.525	-0.155	0.308
-69.451	-66.978	0.188	-0.074
-68.436	75.696	0.140	-0.147
-67.422	-133.158	-0.435	0.055
-66.407	-42.701	-0.244	-0.124
-65.392	-200.000	-0.056	0.255
-64.378	44.647	-0.071	-0.065
-63.363	-68.393	-0.174	-0.067
-62.349	800.000	-0.045	0.130
-61.334	-5.980	-0.946	-0.645
-60.319	317.034	0.151	0.285
-59.305	-200.000	-0.070	-0.504
-58.290	800.000	0.227	0.647
-57.276	-200.000	0.268	1.232
-56.261	-200.000	77.329	512.040
-55.246	507.316	1341.023	3100.351
-54.232	143.825	2575.933	3421.261
-53.217	115.422	2254.551	2744.836
-52.203	51.300	1772.766	1676.801
-51.188	43.904	1570.969	1433.791
-50.173	41.149	1541.237	1387.435
-49.159	57.280	1577.829	1534.118
-48.144	62.861	1597.556	1592.469
-47.130	44.529	1560.818	1428.693
-46.115	40.925	1546.315	1390.217
-45.100	40.775	1542.659	1385.832
-44.086	40.580	1541.071	1382.990
-43.071	40.607	1538.874	1381.152
-42.057	40.527	1537.303	1379.131
-41.042	40.514	1535.926	1377.746
-40.027	40.515	1534.454	1376.383
-39.013	40.510	1532.331	1374.388
-37.998	40.519	1531.556	1373.697
-36.984	40.638	1529.988	1373.065
-35.969	40.683	1528.559	1372.033
-34.954	40.671	1527.363	1370.825
-33.940	40.607	1526.272	1369.351
-32.925	40.637	1523.992	1367.458
-31.911	40.597	1523.010	1366.244
-30.896	40.570	1521.797	1364.914
-29.881	40.653	1520.587	1364.350
-28.867	40.671	1519.115	1363.099
-27.852	40.699	1517.460	1361.748
-26.838	40.746	1515.814	1360.544
-25.823	40.619	1514.616	1358.545
-24.809	40.574	1512.948	1356.687
-23.794	40.523	1511.881	1355.329
-22.779	40.531	1510.600	1354.178
-21.765	40.587	1509.318	1353.358
-20.750	40.597	1508.268	1352.428
-19.736	40.654	1506.632	1351.294
-18.721	40.668	1505.884	1350.667
-17.706	40.544	1505.116	1349.086
-16.692	40.452	1504.465	1347.821
-15.677	40.580	1502.644	1347.002
-14.663	40.563	1501.882	1346.151
-13.648	40.458	1501.006	1344.601
-12.633	40.524	1499.862	1343.970
-11.619	40.531	1499.375	1343.528
-10.604	40.525	1498.261	1342.434
-9.590	40.455	1497.547	1341.266
-8.575	40.503	1496.198	1340.334
-7.560	40.430	1495.389	1339.058
-6.546	40.470	1494.439	1338.426
-5.531	40.370	1493.688	1337.029
-4.517	40.535	1492.602	1337.116
-3.502	40.475	1491.918	1336.047
-2.487	40.532	1490.665	1335.249
-1.473	40.497	1489.881	1334.261
-0.458	40.547	1488.341	1333.168
0.556	39.052	1479.647	1324.516
1.571	36.757	1452.873	1285.218
2.586	33.169	1389.418	1206.144
3.600	30.711	1304.550	1117.627
4.615	28.507	1255.440	1062.703
5.629	24.427	1197.887	991.282
6.644	14.757	1108.045	866.918
7.659	6.593	1062.541	790.468
8.673	5.247	1056.535	779.217
9.688	4.963	1053.516	775.505
10.702	4.773	1052.242	773.558
11.717	4.928	1050.030	772.630
12.731	8.157	1054.578	791.966
13.746	16.783	1066.165	843.737
14.761	20.501	1070.542	865.683
15.775	18.528	1067.067	852.986
16.790	16.974	1063.800	842.591
17.804	15.902	1061.472	835.356
18.819	14.922	1059.402	828.796
19.834	14.393	1058.253	825.204
20.848	14.198	1056.805	823.039
21.863	13.864	1056.286	820.911
22.877	13.685	1055.410	819.276
23.892	13.568	1054.144	817.641
24.907	13.440	1053.759	816.636
25.921	13.432	1053.359	816.215
26.936	13.422	1052.418	815.366
27.950	13.503	1050.899	814.518
28.965	13.503	1049.857	813.636
29.980	13.592	1048.324	812.812
30.994	13.650	1047.591	812.455
32.009	13.652	1046.357	811.437
33.023	13.735	1045.854	811.379
34.038	13.777	1044.788	810.688
35.053	13.738	1044.159	809.936
36.067	13.589	1043.371	808.529
37.082	13.562	1042.749	807.841
38.096	13.603	1041.585	807.071
39.111	13.653	1041.273	806.997
40.126	13.652	1039.895	805.853
41.140	13.533	1038.723	804.296
42.155	13.432	1037.562	802.836
43.169	13.398	1036.686	801.922
44.184	13.398	1035.938	801.276
45.199	13.377	1034.311	799.846
46.213	13.361	1033.538	799.096
47.228	13.351	1032.727	798.350
48.242	13.421	1031.647	797.783
49.257	13.520	1030.770	797.510
50.271	13.540	1029.829	796.811
51.286	13.552	1028.766	795.975
52.301	13.525	1028.155	795.299
53.315	13.538	1027.625	794.882
54.330	13.577	1026.079	793.806
55.344	13.469	1025.484	792.756
56.359	13.373	1024.972	791.830
57.374	13.353	1024.404	791.227
58.388	13.410	1023.206	790.501
59.403	13.393	1022.122	789.516
60.417	13.284	1021.432	788.393
61.432	13.384	1020.648	788.193
62.447	13.265	1020.104	787.136
63.461	13.334	1018.959	786.511
64.476	13.251	1018.182	785.451
65.490	13.286	1017.097	784.706
66.505	13.269	1016.203	783.867
67.520	13.092	1016.005	782.806
68.534	13.236	1014.973	782.624
69.549	13.315	1014.334	782.436
70.563	13.333	1013.608	781.894
71.578	13.285	1012.989	781.119
72.593	13.363	1011.510	780.276
73.607	13.259	1010.756	779.136
74.622	13.150	1009.978	777.956
75.636	13.084	1009.259	777.021
76.651	13.124	1008.665	776.684
77.666	13.219	1007.604	776.243
78.680	13.296	1006.533	775.713
79.695	13.190	1006.539	775.149
80.709	13.138	1006.216	774.590
81.724	13.272	1004.980	774.196
82.739	13.325	1004.358	773.896
83.753	13.380	1003.619	773.519
84.768	13.517	1002.804	773.459
85.782	13.635	1001.740	773.119
86.797	13.776	1001.105	773.218
87.812	13.713	1000.414	772.324
88.826	13.581	999.382	770.847
89.841	13.530	998.529	769.881
90.855	13.541	997.862	769.350
91.870	13.647	997.069	769.162
92.884	13.677	996.254	768.607
93.899	13.609	995.851	767.911
94.914	13.757	994.951	767.835
95.928	13.736	994.458	767.291
96.943	13.866	993.487	767.074
97.957	13.738	992.682	765.792
98.972	13.449	992.185	764.006
99.987	13.570	991.567	764.020
101.001	13.796	989.997	763.787
102.016	13.632	989.591	762.650
103.030	13.579	988.805	761.734
104.045	13.750	987.284	761.277
105.060	13.671	986.548	760.284
106.074	13.708	985.741	759.760
107.089	13.520	985.250	758.456
108.103	13.424	984.134	757.089
109.118	13.355	983.002	755.837
110.133	13.384	982.210	755.293
111.147	13.249	981.621	754.157
112.162	13.447	980.725	754.304
113.176	13.478	979.549	753.473
114.191	13.483	979.075	753.066
115.206	13.498	978.130	752.339
116.220	13.414	977.391	751.327
117.235	13.427	976.525	750.652
118.249	13.424	975.568	749.837
119.264	13.380	974.987	749.123
120.279	13.462	973.888	748.583
121.293	13.358	973.453	747.712
122.308	13.440	972.535	747.313
123.322	13.451	971.359	746.391
124.337	13.327	970.680	745.248
125.352	13.285	969.328	743.952
126.366	13.334	968.502	743.474
127.381	13.321	967.574	742.638
128.395	13.374	965.926	741.545
129.410	13.430	965.212	741.179
130.424	13.384	964.566	740.413
131.439	13.371	963.712	739.632
132.454	13.376	963.154	739.163
133.468	13.437	962.626	738.964
134.483	13.498	961.803	738.538
135.497	13.662	960.711	738.368
136.512	13.556	960.690	737.812
137.527	13.549	959.615	736.891
138.541	13.562	959.112	736.495
139.556	13.624	957.956	735.819
140.570	13.616	957.285	735.203
141.585	13.476	956.554	733.957
142.600	13.667	956.309	734.552
143.614	13.755	955.323	734.117
144.629	13.725	954.631	733.386
145.643	13.763	953.882	732.916
146.658	13.799	952.692	732.096
147.673	13.709	951.781	730.934
148.687	13.544	951.154	729.660
149.702	13.575	950.181	728.987
150.716	13.388	949.592	727.646
151.731	13.513	948.425	727.238
152.746	13.509	947.708	726.608
153.760	13.398	947.520	725.909
154.775	13.592	946.111	725.617
155.789	13.766	945.533	725.869
156.804	13.676	944.555	724.661
157.819	13.737	943.928	724.383
158.833	13.659	943.340	723.526
159.848	13.702	942.903	723.316
160.862	13.692	942.209	722.676
161.877	13.740	941.487	722.268
162.892	13.746	940.359	721.365
163.906	13.647	939.710	720.374
164.921	13.594	938.810	719.390
165.935	13.584	937.887	718.573
166.950	13.688	936.893	718.201
167.964	13.735	935.988	717.644
168.979	13.690	935.086	716.695
169.994	13.684	934.251	715.967
171.008	13.655	933.290	715.042
172.023	13.588	932.596	714.159
173.037	13.815	931.294	714.075
174.052	13.832	931.063	713.908
175.067	13.839	930.315	713.300
176.081	13.731	929.567	712.201
177.096	13.800	928.431	711.563
178.110	13.709	928.016	710.790
179.125	13.747	926.897	710.037
180.140	13.876	926.178	709.974
181.154	13.808	925.822	709.347
182.169	13.788	924.942	708.526
183.183	13.785	924.703	708.265
184.198	14.010	923.878	708.532
185.213	13.867	923.246	707.374
186.227	13.935	922.471	707.008
187.242	13.988	922.023	706.828
188.256	14.059	921.050	706.318
189.271	14.029	920.465	705.681
190.286	14.036	920.072	705.346
191.300	13.984	919.132	704.343
192.315	13.744	918.408	702.710
193.329	13.809	917.338	702.106
194.344	13.713	917.064	701.426
195.359	13.676	916.524	700.794
196.373	13.908	915.599	701.006
197.388	13.894	915.353	700.697
198.402	13.912	915.198	700.589
199.417	14.098	914.054	700.435
200.432	14.227	913.650	700.610
201.446	14.278	913.407	700.576
202.461	14.256	912.691	699.870
203.475	14.328	912.770	700.171
204.490	14.252	911.975	699.182
205.504	14.249	910.965	698.333
206.519	14.258	909.562	697.234
207.534	14.126	909.545	696.604
208.548	14.106	908.915	695.976
209.563	14.066	907.886	694.961
210.577	14.078	907.803	694.885
211.592	14.047	907.203	694.237
212.607	14.360	906.326	694.810
213.621	14.404	905.512	694.306
214.636	14.338	905.040	693.610
215.650	14.395	904.272	693.194
216.665	14.326	903.365	692.153
217.680	14.302	903.242	691.899
218.694	14.438	902.708	691.993
219.709	14.532	902.174	691.909
220.723	14.539	901.022	690.994
221.738	14.521	900.280	690.290
222.753	14.511	899.748	689.779
223.767	14.397	899.426	689.001
224.782	14.644	898.052	688.909
225.796	14.491	897.927	688.119
226.811	14.634	897.018	687.949
227.826	14.553	896.500	687.159
228.840	14.525	895.787	686.437
229.855	14.552	895.245	686.072
230.869	14.635	894.182	685.536
231.884	14.419	893.903	684.374
232.899	14.507	892.883	683.894
233.913	14.486	892.307	683.307
234.928	14.540	891.472	682.829
235.942	14.408	891.180	682.004
236.957	14.466	890.005	681.280
237.972	14.378	889.639	680.580
238.986	14.575	888.801	680.682
240.001	14.531	888.103	679.910
241.015	14.514	887.590	679.389
242.030	14.510	886.896	678.779
243.045	14.448	886.575	678.222
244.059	14.573	885.869	678.132
245.074	14.735	884.873	677.964
246.088	14.723	884.376	677.478
247.103	14.757	883.990	677.260
248.117	14.702	883.724	676.772
249.132	14.835	882.901	676.620
250.147	14.729	882.835	676.081
251.161	14.831	881.931	675.740
252.176	15.026	881.054	675.798
253.190	15.017	880.339	675.152
254.205	14.989	880.178	674.855
255.220	15.016	879.493	674.381
256.234	15.083	878.639	673.934
257.249	15.187	877.725	673.591
258.263	14.997	877.306	672.446
259.278	15.234	876.419	672.661
260.293	15.078	876.579	672.095
261.307	15.293	875.606	672.152
262.322	15.151	875.319	671.305
263.336	15.103	874.753	670.619
264.351	15.154	874.074	670.243
265.366	15.146	873.350	669.597
266.380	15.312	872.377	669.454
267.395	15.342	871.755	669.037
268.409	15.303	871.530	668.650
269.424	15.142	871.134	667.645
270.439	15.246	869.971	667.107
271.453	15.259	869.227	666.530
272.468	15.214	868.528	665.758
273.482	15.248	867.800	665.276
274.497	15.264	867.207	664.823
275.512	15.246	866.590	664.223
276.526	15.175	866.123	663.524
277.541	15.304	865.106	663.197
278.555	15.226	864.805	662.598
279.570	15.454	864.228	662.998
280.585	15.397	863.684	662.297
281.599	15.549	863.000	662.313
282.614	15.444	862.371	661.360
283.628	15.306	862.037	660.502
284.643	15.345	861.405	660.112
285.657	15.292	861.043	659.567
286.672	15.560	860.347	660.027
287.687	15.415	859.946	659.092
288.701	15.402	859.091	658.327
289.716	15.401	858.608	657.895
290.730	15.599	858.021	658.163
291.745	15.464	857.418	657.115
292.760	15.523	856.660	656.707
293.774	15.636	856.165	656.710
294.789	15.632	855.804	656.358
295.803	15.581	855.408	655.801
296.818	15.484	854.550	654.705
297.833	15.648	853.558	654.524
298.847	15.564	852.926	653.658
299.862	15.520	852.430	653.045
300.876	15.631	851.943	653.048
301.891	15.640	851.230	652.479
302.906	15.815	850.642	652.648
303.920	15.729	849.750	651.573
304.935	15.713	849.023	650.897
305.949	15.792	848.587	650.810
306.964	15.833	848.301	650.690
307.979	15.915	847.304	650.187
308.993	15.830	846.628	649.284
310.008	15.858	846.638	649.340
311.022	15.941	845.708	648.888
312.037	15.722	845.921	648.150
313.052	15.954	844.954	648.245
314.066	15.716	844.508	646.931
315.081	15.720	843.789	646.339
316.095	15.739	843.058	645.795
317.110	15.752	842.554	645.402
318.125	15.826	841.592	644.892
319.139	15.781	841.283	644.425
320.154	15.751	841.149	644.150
321.168	15.740	840.768	643.758
322.183	15.927	839.966	643.803
323.197	15.969	839.522	643.566
324.212	15.913	838.806	642.745
325.227	15.935	838.118	642.244
326.241	15.985	837.620	641.998
327.256	15.870	837.369	641.312
328.270	15.895	836.433	640.633
329.285	15.922	835.954	640.313
330.300	15.868	835.555	639.746
331.314	15.947	835.157	639.682
332.329	15.868	834.303	638.674
333.343	16.012	833.659	638.668
334.358	16.046	833.041	638.267
335.373	16.165	832.573	638.303
336.387	15.992	832.501	637.535
337.402	16.084	832.124	637.539
338.416	16.137	831.171	636.951
339.431	16.168	830.703	636.654
340.446	16.397	830.038	636.953
341.460	16.372	829.435	636.337
342.475	16.328	828.800	635.629
343.489	16.540	828.360	636.035
344.504	16.542	827.533	635.349
345.519	16.604	826.946	635.076
346.533	16.552	826.706	634.638
347.548	16.467	826.572	634.162
348.562	16.320	825.734	632.913
349.577	16.330	825.227	632.506
350.592	16.282	824.683	631.852
351.606	16.347	823.980	631.502
352.621	16.219	823.782	630.816
353.635	16.226	823.446	630.528
354.650	16.282	823.127	630.436
355.665	16.382	822.605	630.354
356.679	16.474	822.165	630.304
357.694	16.542	821.326	629.858
358.708	16.484	820.382	628.862
359.723	16.395	820.438	628.518
360.738	16.405	819.983	628.153
361.752	16.590	819.183	628.172
362.767	16.546	818.674	627.562
363.781	16.542	818.687	627.503
364.796	16.655	818.343	627.600
365.810	16.650	817.886	627.176
366.825	16.761	817.096	626.926
367.840	16.960	816.694	627.298
368.854	16.804	816.440	626.469
369.869	16.741	815.941	625.801
370.883	16.669	815.522	625.160
371.898	16.747	814.770	624.814
372.913	16.671	814.285	624.106
373.927	16.998	813.204	624.426
374.942	16.846	812.610	623.357
375.956	16.842	811.994	622.815
376.971	16.872	811.841	622.749
377.986	16.983	811.033	622.482
379.000	16.866	810.732	621.770
380.015	17.023	810.308	621.963
381.029	16.930	809.728	621.123
382.044	17.004	809.076	620.838
383.059	16.995	808.794	620.534
384.073	16.933	808.270	619.849
385.088	17.140	807.752	620.153
386.102	16.961	806.564	618.536
387.117	17.027	806.132	618.390
388.132	16.938	805.848	617.791
389.146	16.859	805.521	617.199
390.161	16.828	805.362	616.910
391.175	17.217	804.737	617.791
392.190	17.212	804.329	617.405
393.205	17.053	803.929	616.467
394.219	17.004	803.777	616.117
395.234	17.075	803.228	615.899
396.248	16.925	802.876	615.031
397.263	16.869	802.085	614.167
398.278	17.000	801.723	614.309
399.292	16.891	801.331	613.562
400.307	16.955	800.956	613.453
401.321	17.070	800.460	613.434
402.336	17.038	800.082	612.975
403.350	17.002	799.808	612.581
404.365	16.991	799.518	612.262
405.380	17.071	798.849	611.986
406.394	17.177	798.232	611.839
407.409	17.293	798.039	612.056
408.423	17.435	797.032	611.739
409.438	17.351	796.832	611.232
410.453	17.413	796.267	610.965
411.467	17.544	796.011	611.186
412.482	17.487	795.557	610.578
413.496	17.371	795.234	609.861
414.511	17.362	795.029	609.615
415.526	17.487	794.523	609.622
416.540	17.614	793.928	609.565
417.555	17.443	793.813	608.813
418.569	17.488	793.271	608.505
419.584	17.434	792.708	607.826
420.599	17.576	791.883	607.646
421.613	92.179	1263.006	1373.183
422.628	78.509	1331.718	1373.302
