DTS Sentinel unit serial number:	SN413079Multiplexer serial number:	ORYXHardware model number:	OX4-SRSoftware version number:	ORYX F/W v4.00 Oryx Data Collector v3.7.2.0data status	okinstallation	princeton_trtdifferential loss correction	single-endedforward channel	channel 3reverse channel	N/Adate	2019/09/12time	22:40:34forward acquisition time	60.00reverse acquisition time	0.00gamma	496.2192k internal	0.2327k external	0.2327temperature offset calibration	1.0127default loss term (dB/km)	0.3790temperature slope calibration	1.0000multiplexer offset coefficient	1.0000multiplexer slope coefficient	1.0000fibre end	0.00T internal ref (°C)	29.56T ext. ref 1 (°C)	3.75T ext. ref 2 (°C)	24.18length (m)	temperature (°C)	Stokes	anti-Stokes-747.200	800.000	-0.098	0.287
-746.185	800.000	-0.079	0.289
-745.171	-119.611	-0.161	-0.028
-744.156	59.862	-0.034	-0.034
-743.142	-161.385	0.158	0.008
-742.127	90.756	-0.279	0.316
-741.112	287.688	-0.012	0.022
-740.098	-169.643	0.233	-0.009
-739.083	28.049	0.182	-0.155
-738.069	94.592	0.192	0.220
-737.054	-151.893	-0.345	-0.025
-736.039	78.042	-0.358	-0.385
-735.025	120.710	0.183	-0.229
-734.010	-76.913	0.129	-0.046
-732.996	-77.312	0.202	0.071
-731.981	411.933	0.116	-0.247
-730.966	18.805	-0.256	-0.206
-729.952	13.300	-0.187	0.146
-728.937	100.980	-0.203	-0.238
-727.923	-96.353	-0.149	0.040
-726.908	70.625	-0.189	0.197
-725.894	-200.000	-0.001	-0.041
-724.879	-13.053	0.326	-0.214
-723.864	404.120	0.066	-0.140
-722.850	-200.000	0.024	0.134
-721.835	-98.930	-0.053	0.013
-720.821	-200.000	0.015	-0.216
-719.806	74.164	0.105	-0.111
-718.791	-200.000	-0.032	-0.252
-717.777	27.159	-0.106	-0.089
-716.762	0.850	0.103	0.075
-715.748	-56.960	0.367	0.163
-714.733	15.540	-0.200	-0.158
-713.718	-1.474	-0.145	-0.103
-712.704	800.000	0.130	0.454
-711.689	83.081	-0.120	0.131
-710.675	800.000	-0.113	-0.416
-709.660	-96.074	0.162	0.043
-708.645	31.835	0.145	-0.126
-707.631	-57.727	0.194	0.086
-706.616	39.649	-0.354	0.320
-705.602	14.784	-0.162	-0.127
-704.587	46.229	0.095	-0.088
-703.572	-124.192	0.139	-0.022
-702.558	311.976	-0.086	0.163
-701.543	-63.890	0.411	-0.169
-700.529	248.692	-0.242	0.412
-699.514	242.277	0.121	-0.203
-698.499	-58.607	0.176	-0.077
-697.485	-200.000	-0.065	0.501
-696.470	-90.841	-0.079	-0.023
-695.456	106.765	0.086	0.102
-694.441	800.000	-0.004	0.013
-693.426	-94.083	0.138	-0.038
-692.412	42.542	-0.177	-0.162
-691.397	-200.000	0.004	-0.230
-690.383	800.000	-0.046	0.154
-689.368	-146.489	0.069	0.006
-688.354	60.368	-0.067	-0.067
-687.339	-63.193	-0.158	0.065
-686.324	521.780	-0.068	-0.159
-685.310	-6.227	-0.209	0.144
-684.295	106.502	-0.243	0.290
-683.281	136.786	0.154	0.202
-682.266	800.000	-0.044	0.149
-681.251	800.000	-0.018	-0.067
-680.237	57.625	-0.324	-0.319
-679.222	800.000	-0.123	-0.354
-678.208	-23.699	0.270	-0.162
-677.193	800.000	0.032	-0.114
-676.178	800.000	0.067	-0.293
-675.164	800.000	-0.033	-0.127
-674.149	-102.304	0.104	-0.025
-673.135	-200.000	-0.013	0.339
-672.120	42.564	0.157	0.143
-671.105	155.534	0.134	0.186
-670.091	259.936	0.083	-0.144
-669.076	-200.000	0.016	0.153
-668.062	-22.382	-0.107	-0.065
-667.047	9.784	-0.177	-0.135
-666.032	435.177	0.102	-0.223
-665.018	-108.182	0.112	-0.024
-664.003	-39.269	0.135	-0.071
-662.989	-108.283	0.241	-0.052
-661.974	291.180	-0.128	0.234
-660.959	-200.000	-0.004	0.264
-659.945	800.000	-0.042	0.154
-658.930	-60.749	0.129	-0.055
-657.916	-200.000	0.018	0.095
-656.901	192.654	0.174	0.264
-655.886	800.000	-0.053	-0.199
-654.872	126.758	0.058	0.073
-653.857	626.871	0.114	-0.288
-652.843	-62.319	0.227	0.095
-651.828	50.420	-0.366	0.348
-650.814	-108.485	0.145	-0.031
-649.799	709.142	0.065	0.174
-648.784	662.227	-0.081	-0.210
-647.770	325.755	-0.115	-0.221
-646.755	800.000	-0.050	-0.144
-645.741	-2.400	-0.295	0.207
-644.726	399.835	-0.122	-0.257
-643.711	-200.000	0.018	-0.230
-642.697	-79.558	-0.213	-0.072
-641.682	105.452	0.106	0.126
-640.668	351.858	-0.140	-0.279
-639.653	-200.000	-0.001	-0.167
-638.638	553.043	0.080	0.193
-637.624	2.821	0.117	0.085
-636.609	90.518	0.043	0.048
-635.595	178.406	0.103	0.151
-634.580	-200.000	0.059	-0.339
-633.565	-66.344	-0.264	0.105
-632.551	800.000	0.103	-0.298
-631.536	-157.618	-0.140	-0.008
-630.522	-71.703	0.180	0.068
-629.507	-68.918	-0.011	0.004
-628.492	398.187	0.055	-0.116
-627.478	-75.337	0.097	-0.035
-626.463	-200.000	0.045	-0.325
-625.449	53.321	-0.159	0.153
-624.434	-184.630	-0.113	-0.002
-623.419	-63.039	0.126	0.052
-622.405	131.404	-0.251	-0.324
-621.390	70.886	-0.162	0.169
-620.376	-20.305	0.183	-0.113
-619.361	-58.362	0.191	-0.083
-618.346	800.000	-0.076	-0.237
-617.332	724.122	0.055	0.146
-616.317	236.130	0.331	-0.549
-615.303	3.325	0.169	0.123
-614.288	229.974	-0.092	-0.151
-613.273	-5.388	0.235	0.162
-612.259	110.765	-0.147	-0.177
-611.244	44.927	-0.176	-0.163
-610.230	-127.947	-0.285	0.041
-609.215	-200.000	-0.006	0.134
-608.201	186.778	-0.120	0.180
-607.186	-15.011	-0.106	-0.068
-606.171	-85.756	0.130	-0.040
-605.157	-200.000	-0.041	0.260
-604.142	-200.000	0.026	0.208
-603.128	-90.238	0.153	-0.045
-602.113	800.000	-0.080	-0.287
-601.098	800.000	0.014	-0.058
-600.084	100.498	-0.178	-0.207
-599.069	-165.864	-0.419	-0.018
-598.055	-90.418	-0.050	0.015
-597.040	66.168	0.118	0.120
-596.025	-200.000	0.048	0.287
-595.011	-200.000	-0.042	0.202
-593.996	55.893	-0.222	0.215
-592.982	151.326	0.278	-0.380
-591.967	-7.181	0.139	0.094
-590.952	218.563	-0.008	0.012
-589.938	-77.675	0.163	-0.057
-588.923	369.180	0.013	0.027
-587.909	-200.000	-0.023	0.245
-586.894	-74.063	0.159	-0.058
-585.879	576.762	-0.085	0.208
-584.865	77.383	0.140	-0.149
-583.850	2.977	-0.330	-0.240
-582.836	705.023	0.087	0.231
-581.821	-23.344	0.167	0.101
-580.806	299.724	-0.057	-0.106
-579.792	-184.298	0.147	-0.002
-578.777	800.000	-0.047	-0.141
-577.763	800.000	0.059	-0.185
-576.748	294.895	-0.119	-0.218
-575.733	-157.474	0.257	-0.015
-574.719	-84.555	0.151	0.048
-573.704	-63.266	-0.161	0.067
-572.690	350.514	-0.080	0.158
-571.675	800.000	0.068	0.191
-570.661	37.898	0.194	0.173
-569.646	45.917	0.141	0.131
-568.631	640.516	0.030	-0.076
-567.617	-24.085	-0.042	-0.025
-566.602	-129.948	0.109	0.015
-565.588	-95.343	0.054	-0.014
-564.573	-169.408	0.293	-0.011
-563.558	-116.639	0.045	-0.008
-562.544	-56.643	-0.324	0.144
-561.529	287.002	0.136	0.246
-560.515	-33.490	-0.268	-0.149
-559.500	-200.000	0.019	-0.245
-558.485	-200.000	-0.038	-0.275
-557.471	-34.049	-0.150	-0.083
-556.456	-69.876	-0.124	-0.048
-555.442	-200.000	-0.027	-0.222
-554.427	800.000	0.038	-0.161
-553.412	-139.277	-0.046	0.005
-552.398	-150.446	-0.105	-0.008
-551.383	252.117	-0.181	-0.309
-550.369	-21.447	-0.174	0.106
-549.354	800.000	0.063	-0.194
-548.339	-129.578	-0.243	0.034
-547.325	62.358	0.129	0.128
-546.310	246.499	-0.143	-0.242
-545.296	347.789	-0.083	0.164
-544.281	800.000	-0.056	0.174
-543.266	-78.146	-0.177	0.061
-542.252	-55.089	0.247	0.111
-541.237	-26.216	0.182	0.107
-540.223	-132.718	-0.104	-0.013
-539.208	159.668	-0.067	-0.094
-538.193	-14.114	-0.126	-0.081
-537.179	-70.826	0.224	-0.084
-536.164	307.759	-0.145	0.270
-535.150	126.412	-0.232	0.294
-534.135	69.412	0.132	-0.136
-533.121	9.303	0.112	0.085
-532.106	-74.753	-0.239	-0.086
-531.091	-200.000	0.043	-0.269
-530.077	-12.662	0.177	0.115
-529.062	800.000	-0.033	0.115
-528.048	-88.419	0.085	0.025
-527.033	800.000	-0.028	0.083
-526.018	-77.047	-0.183	-0.064
-525.004	-200.000	0.010	-0.105
-523.989	94.298	-0.044	-0.050
-522.975	-49.476	-0.019	0.009
-521.960	49.445	0.174	-0.164
-520.945	-140.745	0.078	-0.008
-519.931	50.613	0.180	0.170
-518.916	126.593	-0.198	0.250
-517.902	-113.294	-0.243	0.048
-516.887	58.567	-0.164	-0.161
-515.872	-48.383	0.102	0.049
-514.858	87.434	-0.115	-0.127
-513.843	-200.000	-0.025	-0.209
-512.829	-17.269	0.203	0.128
-511.814	-200.000	0.000	-0.217
-510.799	-77.502	0.230	-0.080
-509.785	49.660	0.181	0.170
-508.770	-121.072	0.355	-0.060
-507.756	518.169	0.172	0.403
-506.741	215.691	-0.199	0.316
-505.726	15.439	0.139	-0.109
-504.712	483.515	0.110	-0.251
-503.697	37.933	-0.271	0.241
-502.683	-200.000	-0.031	-0.259
-501.668	71.063	-0.114	0.118
-500.653	800.000	-0.083	-0.309
-499.639	-186.335	0.252	0.004
-498.624	-200.000	0.018	0.103
-497.610	-200.000	-0.008	-0.250
-496.595	-49.334	-0.243	-0.116
-495.581	95.989	0.237	0.271
-494.566	79.745	0.125	0.134
-493.551	-200.000	0.028	0.235
-492.537	-200.000	0.077	-0.370
-491.522	800.000	-0.059	-0.186
-490.508	127.136	-0.020	0.025
-489.493	-26.346	0.161	-0.095
-488.478	-50.299	-0.108	0.051
-487.464	-160.528	-0.121	-0.006
-486.449	173.129	0.095	0.136
-485.435	-53.992	-0.095	-0.043
-484.420	-200.000	0.034	-0.199
-483.405	800.000	0.064	-0.250
-482.391	800.000	0.074	-0.228
-481.376	187.202	-0.194	-0.289
-480.362	231.215	-0.191	-0.313
-479.347	128.963	-0.183	0.232
-478.332	-5.253	0.285	0.196
-477.318	73.027	-0.139	-0.145
-476.303	-66.783	-0.313	-0.123
-475.289	9.928	0.238	0.180
-474.274	156.651	0.161	0.221
-473.259	91.850	-0.206	-0.231
-472.245	141.242	0.133	-0.175
-471.230	130.620	0.105	0.134
-470.216	-67.992	-0.123	-0.048
-469.201	-82.774	-0.083	0.027
-468.186	77.559	-0.291	-0.309
-467.172	8.831	-0.245	0.184
-466.157	-128.249	-0.149	0.021
-465.143	-33.159	0.227	-0.126
-464.128	-200.000	0.004	-0.202
-463.113	-200.000	-0.004	0.017
-462.099	800.000	0.063	0.198
-461.084	-200.000	0.002	-0.058
-460.070	-200.000	-0.020	0.286
-459.055	800.000	-0.085	-0.261
-458.040	194.558	0.098	-0.148
-457.026	-32.914	0.067	-0.037
-456.011	237.838	-0.086	-0.142
-454.997	-47.794	0.164	0.079
-453.982	-82.918	-0.121	0.039
-452.968	144.705	-0.092	-0.123
-451.953	-200.000	-0.002	0.167
-450.938	-79.811	-0.309	0.104
-449.924	-92.501	-0.031	0.009
-448.909	-111.634	0.015	-0.003
-447.895	502.190	0.098	-0.226
-446.880	49.195	-0.304	-0.285
-445.865	-13.804	0.263	0.169
-444.851	-200.000	0.022	-0.112
-443.836	-119.874	-0.170	-0.029
-442.822	-142.681	0.336	-0.033
-441.807	690.974	0.064	-0.166
-440.792	-65.913	-0.393	-0.157
-439.778	-45.628	-0.039	-0.019
-438.763	-200.000	-0.003	-0.236
-437.749	-200.000	-0.071	-0.329
-436.734	21.051	0.108	0.087
-435.719	-200.000	-0.021	-0.103
-434.705	153.255	-0.207	-0.282
-433.690	-49.325	-0.171	-0.081
-432.676	-200.000	0.039	0.276
-431.661	-61.984	0.345	0.144
-430.646	1.031	0.089	0.063
-429.632	767.367	-0.121	0.329
-428.617	-31.432	0.139	-0.078
-427.603	-48.957	0.376	0.179
-426.588	800.000	-0.027	-0.115
-425.573	-200.000	0.000	0.003
-424.559	-200.000	0.000	0.487
-423.544	800.000	0.121	0.448
-422.530	125.652	-0.129	-0.162
-421.515	-200.000	0.006	0.259
-420.500	229.479	-0.123	0.200
-419.486	-200.000	0.008	-0.062
-418.471	-78.786	-0.071	0.024
-417.457	-13.855	0.117	-0.076
-416.442	-24.493	-0.246	0.146
-415.428	800.000	-0.055	0.176
-414.413	-115.244	0.141	-0.027
-413.398	-200.000	-0.000	-0.013
-412.384	162.529	0.166	0.232
-411.369	-90.025	-0.201	0.058
-410.355	-200.000	0.028	0.195
-409.340	-200.000	0.042	-0.348
-408.325	-200.000	0.514	0.002
-407.311	-105.145	0.272	-0.062
-406.296	160.659	0.299	0.416
-405.282	15.891	0.077	-0.060
-404.267	-40.311	0.028	-0.014
-403.252	379.935	0.127	0.259
-402.238	800.000	-0.101	-0.364
-401.223	-88.945	-0.295	-0.087
-400.209	289.937	-0.148	-0.267
-399.194	-133.251	0.342	0.043
-398.179	25.555	-0.268	0.222
-397.165	-200.000	0.022	0.131
-396.150	-32.621	0.210	0.116
-395.136	-126.630	0.093	0.014
-394.121	121.471	-0.081	-0.100
-393.106	198.146	0.231	0.351
-392.092	-81.862	0.197	0.064
-391.077	-60.070	-0.229	0.097
-390.063	-105.533	-0.151	-0.034
-389.048	-1.552	0.210	-0.147
-388.033	316.015	-0.052	-0.098
-387.019	52.989	-0.217	-0.206
-386.004	594.350	0.169	0.415
-384.990	-82.433	-0.111	-0.036
-383.975	800.000	-0.060	0.179
-382.960	401.097	-0.099	0.207
-381.946	-200.000	0.029	0.161
-380.931	109.713	-0.158	-0.188
-379.917	114.223	-0.038	-0.046
-378.902	-200.000	-0.010	-0.092
-377.888	321.840	-0.057	0.107
-376.873	-140.509	-0.295	-0.030
-375.858	-45.353	-0.250	-0.123
-374.844	145.152	0.205	0.273
-373.829	-200.000	-0.045	-0.394
-372.815	-105.752	0.174	0.039
-371.800	-200.000	0.038	-0.318
-370.785	77.058	-0.019	0.020
-369.771	-110.193	0.252	-0.052
-368.756	131.500	-0.200	0.256
-367.742	800.000	0.089	0.322
-366.727	-110.655	0.296	0.061
-365.712	-62.896	0.066	0.027
-364.698	-200.000	0.004	-0.240
-363.683	-200.000	-0.067	-0.432
-362.669	-25.413	0.062	0.036
-361.654	234.669	-0.200	-0.328
-360.639	636.978	-0.076	0.191
-359.625	-126.736	-0.186	0.027
-358.610	800.000	0.068	-0.218
-357.596	544.196	-0.125	0.297
-356.581	128.492	-0.049	0.062
-355.566	417.041	0.087	0.185
-354.552	-45.769	0.206	-0.101
-353.537	-132.884	-0.223	0.028
-352.523	-200.000	-0.001	-0.131
-351.508	-35.679	0.230	-0.124
-350.493	-0.415	0.219	-0.154
-349.479	-93.502	-0.194	0.053
-348.464	179.204	0.075	0.110
-347.450	257.653	0.179	0.306
-346.435	-200.000	0.011	-0.074
-345.420	-156.235	0.272	-0.017
-344.406	58.434	-0.300	-0.292
-343.391	-56.940	0.349	-0.153
-342.377	-200.000	0.022	0.118
-341.362	-79.424	-0.167	0.056
-340.348	5.299	-0.038	-0.028
-339.333	-9.983	-0.032	-0.021
-338.318	-102.342	-0.136	0.032
-337.304	-141.876	0.368	-0.037
-336.289	-75.997	-0.095	-0.033
-335.275	-101.846	0.195	0.047
-334.260	84.365	-0.228	-0.248
-333.245	-152.508	0.124	0.009
-332.231	-200.000	-0.049	0.237
-331.216	682.795	-0.023	-0.059
-330.202	-42.548	0.133	0.067
-329.187	539.027	-0.091	-0.215
-328.172	-147.535	-0.148	-0.012
-327.158	-22.845	0.254	0.152
-326.143	28.353	0.248	-0.208
-325.129	32.801	-0.093	-0.080
-324.114	-112.644	0.108	0.021
-323.099	17.759	-0.037	-0.029
-322.085	47.491	-0.292	0.270
-321.070	-200.000	-0.033	-0.170
-320.056	-150.807	-0.157	0.012
-319.041	800.000	-0.053	-0.220
-318.026	800.000	-0.049	0.159
-317.012	7.924	-0.188	0.140
-315.997	-171.993	0.441	0.014
-314.983	-200.000	-0.001	-0.243
-313.968	-78.063	0.217	0.074
-312.953	-9.777	-0.056	-0.037
-311.939	106.809	-0.195	0.229
-310.924	800.000	-0.103	0.340
-309.910	-88.687	0.103	-0.030
-308.895	-101.539	-0.101	-0.024
-307.880	755.380	-0.028	-0.074
-306.866	800.000	0.067	-0.195
-305.851	-122.515	0.154	0.025
-304.837	114.793	0.140	-0.169
-303.822	-139.089	-0.260	0.028
-302.807	-72.354	0.055	-0.020
-301.793	-200.000	-0.042	-0.234
-300.778	-200.000	0.026	0.219
-299.764	17.209	-0.228	0.179
-298.749	366.913	0.147	0.293
-297.735	75.179	-0.247	0.258
-296.720	-27.197	-0.078	-0.045
-295.705	-54.956	0.414	0.185
-294.691	202.503	-0.242	0.370
-293.676	47.589	0.225	-0.208
-292.662	-200.000	-0.005	0.219
-291.647	461.790	-0.079	0.173
-290.632	-59.629	0.400	0.170
-289.618	131.100	0.093	-0.119
-288.603	800.000	0.076	-0.269
-287.589	-33.841	-0.274	-0.149
-286.574	208.909	-0.159	-0.247
-285.559	79.386	0.138	-0.147
-284.545	-200.000	0.002	0.040
-283.530	-1.734	-0.468	0.326
-282.516	-52.207	0.500	0.230
-281.501	-49.797	0.354	0.166
-280.486	305.922	0.076	-0.140
-279.472	800.000	-0.029	0.094
-278.457	800.000	0.039	-0.131
-277.443	-200.000	0.029	0.220
-276.428	101.042	-0.133	0.153
-275.413	-68.752	0.183	-0.070
-274.399	-134.366	0.280	0.034
-273.384	-12.123	-0.206	0.134
-272.370	67.744	-0.102	0.103
-271.355	-10.852	-0.186	-0.121
-270.340	800.000	-0.024	0.099
-269.326	-77.866	0.180	0.062
-268.311	800.000	-0.053	0.168
-267.297	800.000	0.049	0.184
-266.282	-117.396	-0.376	0.067
-265.267	82.897	0.182	0.196
-264.253	-149.579	0.581	0.045
-263.238	800.000	-0.066	0.226
-262.224	-29.702	-0.146	0.083
-261.209	800.000	0.102	0.363
-260.195	150.672	0.112	-0.150
-259.180	253.251	0.081	-0.137
-258.165	115.504	-0.178	0.215
-257.151	800.000	-0.095	-0.299
-256.136	114.990	-0.299	-0.361
-255.122	-200.000	0.016	0.144
-254.107	-200.000	0.029	0.248
-253.092	-178.573	-0.243	-0.006
-252.078	-109.743	0.152	0.032
-251.063	-200.000	0.151	0.001
-250.049	-81.582	-0.088	-0.029
-249.034	161.243	0.073	0.101
-248.019	-14.511	-0.386	0.246
-247.005	622.043	0.152	0.377
-245.990	184.522	0.064	-0.094
-244.976	94.344	-0.171	-0.193
-243.961	106.498	0.120	0.141
-242.946	281.861	-0.105	-0.187
-241.932	518.469	-0.047	0.110
-240.917	20.808	-0.322	0.258
-239.903	-106.473	-0.122	0.027
-238.888	-116.849	0.215	0.039
-237.873	800.000	-0.043	-0.127
-236.859	-100.349	-0.068	0.017
-235.844	192.201	0.036	-0.053
-234.830	-83.456	0.072	-0.023
-233.815	121.798	0.121	0.149
-232.800	-12.827	-0.215	0.138
-231.786	577.934	0.065	-0.156
-230.771	-164.946	0.207	0.009
-229.757	-200.000	-0.031	-0.164
-228.742	41.635	-0.075	0.067
-227.727	-200.000	0.006	-0.123
-226.713	-37.709	-0.044	-0.023
-225.698	176.710	-0.125	0.179
-224.684	-69.287	-0.233	0.088
-223.669	7.036	0.191	0.141
-222.655	-125.594	0.240	0.036
-221.640	220.869	0.088	-0.140
-220.625	800.000	0.015	0.065
-219.611	800.000	0.048	0.151
-218.596	-142.487	0.170	-0.017
-217.582	565.640	-0.065	0.157
-216.567	186.968	-0.121	0.178
-215.552	-3.525	0.455	-0.312
-214.538	91.558	0.306	0.340
-213.523	-186.596	0.153	0.002
-212.509	800.000	-0.088	-0.314
-211.494	-62.160	-0.154	0.063
-210.479	482.009	-0.085	-0.191
-209.465	-173.717	-0.179	0.005
-208.450	524.042	0.088	0.205
-207.436	43.804	0.069	0.063
-206.421	267.239	0.016	-0.027
-205.406	252.235	-0.054	-0.091
-204.392	-50.156	-0.091	0.043
-203.377	-200.000	-0.009	0.157
-202.363	99.696	0.215	0.246
-201.348	-156.981	-0.183	0.011
-200.333	96.348	0.048	-0.054
-199.319	296.235	-0.095	-0.172
-198.304	-200.000	0.022	-0.205
-197.290	800.000	-0.061	-0.240
-196.275	-119.715	-0.325	0.055
-195.260	800.000	0.047	-0.173
-194.246	248.694	-0.100	0.166
-193.231	-113.589	0.137	0.026
-192.217	64.095	0.086	-0.085
-191.202	-200.000	-0.028	-0.218
-190.187	224.462	-0.079	0.126
-189.173	10.593	0.084	-0.063
-188.158	414.419	-0.071	0.148
-187.144	-200.000	-0.028	0.226
-186.129	-187.395	-0.063	0.001
-185.114	42.915	-0.118	-0.106
-184.100	-200.000	-0.040	0.186
-183.085	-200.000	-0.006	-0.171
-182.071	-20.363	-0.215	0.130
-181.056	-156.159	0.135	0.008
-180.042	-200.000	-0.041	-0.190
-179.027	-88.957	0.121	-0.035
-178.012	516.782	0.133	-0.307
-176.998	800.000	0.040	-0.128
-175.983	711.657	-0.069	0.179
-174.969	-54.045	-0.086	0.039
-173.954	-122.402	-0.298	-0.048
-172.939	-200.000	-0.054	-0.425
-171.925	-128.072	-0.184	0.026
-170.910	91.804	0.194	0.216
-169.896	27.204	0.126	0.104
-168.881	-200.000	-0.019	-0.352
-167.866	-13.077	0.315	0.202
-166.852	-114.295	-0.433	-0.082
-165.837	-75.330	-0.162	-0.057
-164.823	800.000	0.012	0.037
-163.808	-31.708	0.273	-0.151
-162.793	187.630	-0.106	0.157
-161.779	-72.204	-0.040	-0.014
-160.764	65.388	-0.346	-0.345
-159.750	-200.000	0.018	-0.100
-158.735	-31.254	0.169	0.094
-157.720	180.733	0.165	0.239
-156.706	3.610	0.043	0.031
-155.691	133.149	-0.152	-0.193
-154.677	-108.591	0.143	0.030
-153.662	63.097	-0.099	0.097
-152.647	143.272	-0.028	0.037
-151.633	-78.611	0.392	0.132
-150.618	513.067	0.045	-0.103
-149.604	-84.983	0.143	0.044
-148.589	-200.000	0.023	0.383
-147.574	-200.000	-0.025	0.199
-146.560	-147.326	0.054	0.005
-145.545	800.000	-0.086	0.279
-144.531	-171.570	-0.029	0.001
-143.516	80.509	-0.062	0.065
-142.502	-50.861	-0.211	0.098
-141.487	-200.000	-0.030	0.226
-140.472	-150.471	0.231	-0.017
-139.458	-23.763	0.185	-0.109
-138.443	-3.924	-0.110	0.075
-137.429	-34.795	0.265	0.143
-136.414	-200.000	0.034	0.353
-135.399	603.875	-0.067	-0.164
-134.385	-47.946	-0.045	-0.022
-133.370	222.093	0.114	-0.181
-132.356	288.706	-0.255	0.455
-131.341	78.103	0.252	0.264
-130.326	261.934	-0.105	-0.180
-129.312	-23.494	0.023	-0.014
-128.297	-200.000	0.048	0.237
-127.283	-78.054	0.083	0.028
-126.268	52.543	-0.172	-0.162
-125.253	-7.520	0.127	-0.085
-124.239	12.447	-0.133	0.101
-123.224	5.966	0.145	-0.106
-122.210	-65.166	-0.302	0.120
-121.195	-75.825	0.204	0.071
-120.180	800.000	-0.030	-0.114
-119.166	-98.026	0.231	-0.059
-118.151	-25.727	-0.047	0.027
-117.137	-200.000	-0.044	0.417
-116.122	65.000	0.045	-0.045
-115.107	-0.014	0.310	-0.217
-114.093	-51.520	-0.130	-0.060
-113.078	54.286	-0.056	-0.053
-112.064	-103.169	0.191	0.044
-111.049	-108.178	-0.219	0.047
-110.034	-200.000	0.032	-0.253
-109.020	332.739	0.220	-0.419
-108.005	-184.664	0.352	0.006
-106.991	-54.356	0.249	0.111
-105.976	12.878	-0.074	0.056
-104.962	-54.141	0.140	-0.062
-103.947	-111.829	0.226	0.045
-102.932	262.367	-0.066	-0.113
-101.918	-200.000	0.045	0.229
-100.903	11.665	-0.323	0.244
-99.889	-100.901	0.188	0.045
-98.874	-28.859	0.188	0.106
-97.859	74.336	0.212	0.219
-96.845	-200.000	0.012	-0.114
-95.830	-68.676	-0.139	0.053
-94.816	248.363	-0.140	0.233
-93.801	-45.574	0.235	0.115
-92.786	-119.717	0.168	0.028
-91.772	-200.000	-0.001	-0.277
-90.757	153.791	0.170	0.229
-89.743	-27.163	0.070	0.040
-88.728	32.893	0.038	0.032
-87.713	-37.258	0.373	0.196
-86.699	-28.744	0.148	-0.084
-85.684	-200.000	0.039	0.433
-84.670	95.019	0.158	0.176
-83.655	-75.057	0.346	0.122
-82.640	-200.000	0.042	0.243
-81.626	190.594	0.033	0.049
-80.611	800.000	0.055	0.152
-79.597	-78.269	0.234	0.079
-78.582	89.291	-0.144	-0.158
-77.567	-50.340	-0.108	-0.050
-76.553	-200.000	0.007	0.101
-75.538	-200.000	0.049	0.379
-74.524	631.489	0.084	-0.209
-73.509	-59.961	0.398	0.167
-72.494	278.663	0.159	0.278
-71.480	8.219	0.142	0.105
-70.465	-144.483	-0.197	0.018
-69.451	-166.975	0.312	0.013
-68.436	345.536	0.114	0.220
-67.422	-38.867	0.122	-0.063
-66.407	3.840	-0.047	-0.034
-65.392	-112.434	-0.376	-0.074
-64.378	800.000	-0.046	-0.188
-63.363	159.584	-0.141	-0.192
-62.349	-23.366	0.181	-0.107
-61.334	83.877	-1.142	-1.223
-60.319	91.936	0.420	0.464
-59.305	-200.000	-0.070	-0.625
-58.290	279.094	0.513	0.898
-57.276	167.159	0.722	1.006
-56.261	-200.000	108.451	604.288
-55.246	512.904	1488.811	3405.323
-54.232	180.046	2670.275	3841.454
-53.217	109.516	2168.798	2549.742
-52.203	39.606	1701.948	1497.348
-51.188	32.674	1517.174	1287.582
-50.173	30.293	1491.012	1249.322
-49.159	50.296	1547.654	1434.734
-48.144	50.843	1564.155	1453.733
-47.130	32.933	1519.887	1291.453
-46.115	29.841	1504.857	1257.649
-45.100	29.714	1501.337	1253.800
-44.086	29.653	1499.459	1251.764
-43.071	29.599	1497.511	1249.726
-42.057	29.520	1495.790	1247.708
-41.042	29.557	1494.134	1246.525
-40.027	29.551	1493.100	1245.569
-39.013	29.525	1491.010	1243.604
-37.998	29.432	1489.980	1242.072
-36.984	29.583	1488.885	1242.120
-35.969	29.587	1487.431	1240.888
-34.954	29.465	1486.463	1239.210
-33.940	29.507	1484.740	1238.009
-32.925	29.543	1483.809	1237.423
-31.911	29.505	1482.510	1236.038
-30.896	29.580	1481.352	1235.523
-29.881	29.646	1480.097	1234.868
-28.867	29.714	1478.251	1233.737
-27.852	29.613	1477.267	1232.193
-26.838	29.650	1475.812	1231.172
-25.823	29.603	1473.924	1229.236
-24.809	29.584	1472.494	1227.871
-23.794	29.610	1471.461	1227.131
-22.779	29.547	1470.582	1225.935
-21.765	29.563	1469.154	1224.798
-20.750	29.675	1467.690	1224.271
-19.736	29.564	1466.852	1222.793
-18.721	29.583	1465.589	1221.815
-17.706	29.549	1464.466	1220.603
-16.692	29.567	1463.424	1219.808
-15.677	29.573	1462.686	1219.185
-14.663	29.533	1461.773	1218.111
-13.648	29.576	1460.261	1217.087
-12.633	29.558	1459.803	1216.535
-11.619	29.531	1459.030	1215.669
-10.604	29.573	1457.868	1214.926
-9.590	29.575	1457.155	1214.298
-8.575	29.665	1455.669	1213.604
-7.560	29.566	1455.065	1212.397
-6.546	29.517	1454.303	1211.392
-5.531	29.490	1453.985	1210.904
-4.517	29.498	1452.994	1210.084
-3.502	29.568	1451.681	1209.403
-2.487	29.558	1450.327	1208.162
-1.473	29.632	1449.206	1207.660
-0.458	29.443	1448.115	1205.470
0.556	31.054	1438.178	1194.290
1.571	27.835	1412.866	1152.876
2.586	24.284	1353.486	1082.798
3.600	22.467	1272.237	1007.329
4.615	21.280	1226.113	964.173
5.629	18.466	1170.317	905.372
6.644	10.763	1087.718	803.437
7.659	4.723	1049.296	746.095
8.673	3.997	1042.943	738.052
9.688	3.760	1039.475	734.408
10.702	3.563	1038.197	732.504
11.717	3.681	1036.260	731.632
12.731	6.519	1038.296	746.461
13.746	14.266	1050.077	791.844
14.761	21.319	1059.281	832.430
15.775	23.334	1060.882	843.217
16.790	23.058	1059.419	840.669
17.804	22.402	1057.608	836.043
18.819	21.783	1056.500	832.158
19.834	21.453	1055.107	829.422
20.848	21.502	1054.633	829.207
21.863	21.440	1054.444	828.691
22.877	21.486	1053.708	828.257
23.892	21.378	1053.027	827.135
24.907	21.128	1052.042	825.109
25.921	21.024	1051.246	823.921
26.936	21.098	1050.266	823.430
27.950	20.994	1049.539	822.296
28.965	21.023	1048.222	821.329
29.980	21.020	1046.847	820.161
30.994	21.221	1046.468	820.737
32.009	21.430	1045.719	821.060
33.023	21.368	1044.916	820.065
34.038	21.390	1044.022	819.392
35.053	21.359	1043.191	818.525
36.067	21.258	1042.014	817.054
37.082	21.099	1041.383	815.744
38.096	21.065	1040.695	814.974
39.111	21.128	1040.278	814.872
40.126	21.305	1039.083	814.687
41.140	21.181	1038.123	813.285
42.155	20.896	1036.443	810.573
43.169	20.580	1035.082	807.969
44.184	20.596	1033.961	807.097
45.199	20.486	1033.765	806.364
46.213	20.569	1032.256	805.498
47.228	20.583	1031.658	805.024
48.242	20.903	1031.729	806.489
49.257	21.190	1031.013	807.184
50.271	21.141	1029.808	805.943
51.286	21.165	1029.541	805.776
52.301	21.272	1028.840	805.651
53.315	21.522	1027.483	805.667
54.330	21.230	1027.026	803.892
55.344	20.944	1025.981	801.690
56.359	20.926	1024.719	800.551
57.374	20.910	1024.244	800.033
58.388	20.729	1023.617	798.643
59.403	20.641	1022.407	797.226
60.417	20.524	1021.602	795.989
61.432	20.417	1021.626	795.449
62.447	20.379	1020.984	794.703
63.461	20.460	1019.569	793.902
64.476	20.315	1018.809	792.578
65.490	20.346	1017.712	791.796
66.505	20.362	1016.462	790.828
67.520	20.402	1015.892	790.495
68.534	20.461	1015.594	790.463
69.549	20.299	1014.517	788.817
70.563	20.238	1013.493	787.673
71.578	20.096	1013.251	786.771
72.593	19.977	1012.139	785.299
73.607	19.717	1011.226	783.344
74.622	19.753	1010.109	782.572
75.636	19.933	1009.343	782.724
76.651	20.022	1008.175	782.149
77.666	19.956	1007.587	781.328
78.680	20.187	1006.949	781.803
79.695	20.077	1006.615	780.979
80.709	20.092	1005.847	780.382
81.724	20.240	1005.299	780.553
82.739	20.455	1004.676	780.971
83.753	20.478	1003.885	780.388
84.768	20.803	1003.893	781.786
85.782	21.345	1003.246	783.642
86.797	21.753	1002.628	784.918
87.812	21.584	1002.071	783.657
88.826	21.433	1001.016	782.087
89.841	21.406	1000.014	781.113
90.855	21.528	999.303	781.034
91.870	21.535	998.720	780.540
92.884	21.567	997.979	780.036
93.899	21.510	997.659	779.460
94.914	21.488	996.729	778.570
95.928	21.488	995.542	777.572
96.943	21.487	995.286	777.299
97.957	21.367	993.957	775.661
98.972	21.305	992.999	774.570
99.987	21.297	992.290	773.912
101.001	21.409	991.482	773.708
102.016	21.286	991.145	772.835
103.030	21.427	989.353	771.988
104.045	21.306	988.817	770.970
105.060	21.541	987.854	771.188
106.074	21.374	987.463	770.080
107.089	21.045	985.830	767.289
108.103	20.817	984.846	765.452
109.118	20.666	983.946	764.023
110.133	20.444	983.045	762.280
111.147	20.207	981.830	760.234
112.162	20.097	980.951	759.002
113.176	20.214	980.189	758.857
114.191	20.329	979.732	758.938
115.206	20.652	978.573	759.385
116.220	20.452	978.314	758.247
117.235	20.538	976.925	757.474
118.249	20.295	976.726	756.197
119.264	20.411	975.431	755.633
120.279	20.201	974.274	753.756
121.293	20.129	973.908	753.093
122.308	20.058	972.767	751.834
123.322	19.889	972.012	750.451
124.337	19.729	971.132	749.012
125.352	19.817	969.396	747.988
126.366	19.873	968.523	747.493
127.381	19.796	967.738	746.486
128.395	19.852	967.003	746.094
129.410	20.021	965.737	745.780
130.424	19.888	965.096	744.647
131.439	20.120	964.470	745.098
132.454	20.438	963.921	745.973
133.468	20.603	963.359	746.179
134.483	20.453	962.769	745.011
135.497	20.499	962.097	744.623
136.512	20.558	961.272	744.172
137.527	20.588	960.489	743.630
138.541	20.572	959.656	742.847
139.556	20.550	959.025	742.202
140.570	20.595	958.492	741.915
141.585	20.837	957.930	742.447
142.600	21.036	957.399	742.816
143.614	21.114	956.925	742.713
144.629	21.227	956.485	742.788
145.643	21.506	955.587	743.209
146.658	21.391	954.848	742.080
147.673	21.270	953.122	740.163
148.687	21.068	951.901	738.294
149.702	20.818	950.955	736.439
150.716	20.571	950.387	734.888
151.731	20.566	949.511	734.123
152.746	20.640	948.997	733.974
153.760	20.683	948.097	733.395
154.775	20.732	947.282	732.908
155.789	20.870	946.615	732.905
156.804	20.962	945.793	732.590
157.819	20.895	945.063	731.680
158.833	21.065	944.479	731.878
159.848	21.186	944.064	731.996
160.862	21.338	943.407	732.060
161.877	21.310	942.622	731.268
162.892	20.910	941.372	728.564
163.906	20.660	939.943	726.349
164.921	20.440	939.013	724.648
165.935	20.550	937.597	723.948
166.950	20.468	937.345	723.351
167.964	20.740	936.707	723.926
168.979	20.694	935.899	723.045
169.994	20.731	934.516	722.065
171.008	20.455	933.612	720.158
172.023	20.673	932.955	720.493
173.037	20.848	932.502	720.803
174.052	21.277	931.859	722.016
175.067	21.198	930.752	720.768
176.081	20.766	929.447	717.912
177.096	20.287	928.734	715.322
178.110	20.350	927.596	714.643
179.125	20.490	926.904	714.623
180.140	20.485	926.175	713.978
181.154	20.507	926.355	714.144
182.169	20.817	925.657	714.815
183.183	21.070	925.077	715.340
184.198	21.138	924.559	715.155
185.213	21.183	924.157	714.965
186.227	21.004	923.545	713.696
187.242	21.023	923.089	713.357
188.256	21.325	921.935	713.638
189.271	21.439	921.791	713.926
190.286	21.494	921.188	713.620
191.300	21.391	919.852	712.104
192.315	20.639	918.387	707.847
193.329	20.289	917.791	705.903
194.344	20.289	917.270	705.441
195.359	20.531	916.493	705.764
196.373	20.788	916.073	706.418
197.388	20.789	916.067	706.355
198.402	20.982	915.807	706.875
199.417	21.357	915.404	708.021
200.432	21.556	915.244	708.641
201.446	21.624	915.418	708.988
202.461	21.882	914.827	709.512
203.475	21.937	914.212	709.193
204.490	21.828	913.586	708.204
205.504	21.421	911.746	705.077
206.519	21.168	910.782	703.249
207.534	21.132	910.224	702.611
208.548	21.160	909.396	702.023
209.563	21.154	909.117	701.720
210.577	21.148	908.275	700.985
211.592	21.199	907.885	700.827
212.607	21.472	907.330	701.429
213.621	21.847	906.888	702.530
214.636	21.596	906.319	701.022
215.650	21.484	905.924	700.206
216.665	21.388	905.194	699.195
217.680	21.434	905.092	699.238
218.694	21.752	904.526	700.011
219.709	21.652	904.254	699.339
220.723	21.585	903.522	698.444
221.738	21.528	902.285	697.196
222.753	21.415	901.599	696.155
223.767	21.417	900.770	695.461
224.782	21.548	900.316	695.572
225.796	21.725	899.380	695.487
226.811	21.802	899.350	695.710
227.826	21.708	898.313	694.473
228.840	21.407	897.594	692.664
229.855	21.182	896.769	691.074
230.869	21.195	896.328	690.725
231.884	21.409	895.135	690.591
232.899	21.050	895.086	689.074
233.913	21.180	893.814	688.547
234.928	21.045	893.255	687.522
235.942	20.914	892.571	686.421
236.957	20.686	892.058	685.068
237.972	20.701	891.104	684.334
238.986	20.946	890.343	684.648
240.001	20.858	890.177	684.116
241.015	20.847	889.195	683.257
242.030	20.908	888.696	683.055
243.045	20.987	888.698	683.301
244.059	21.271	887.870	683.719
245.074	21.321	887.360	683.461
246.088	21.275	886.524	682.576
247.103	21.462	886.490	683.220
248.117	21.630	885.879	683.344
249.132	21.797	885.689	683.788
250.147	22.240	885.488	685.300
251.161	22.560	885.353	686.381
252.176	22.633	884.910	686.262
253.190	22.750	883.902	685.876
254.205	22.850	883.346	685.770
255.220	22.788	883.306	685.439
256.234	22.616	882.391	683.999
257.249	22.519	881.815	683.117
258.263	22.543	880.956	682.484
259.278	22.476	880.461	681.779
260.293	22.471	879.922	681.283
261.307	22.436	879.809	681.001
262.322	22.647	878.969	681.104
263.336	22.691	878.361	680.742
264.351	22.718	877.790	680.344
265.366	22.716	877.106	679.746
266.380	22.535	876.710	678.682
267.395	22.634	876.201	678.609
268.409	22.570	875.159	677.495
269.424	22.264	874.710	675.913
270.439	22.374	873.842	675.604
271.453	22.411	873.050	675.074
272.468	22.144	872.004	673.183
273.482	22.289	871.385	673.201
274.497	22.180	871.042	672.460
275.512	22.177	870.248	671.776
276.526	22.276	869.602	671.595
277.541	22.142	868.941	670.515
278.555	22.275	868.649	670.738
279.570	22.474	868.194	671.083
280.585	22.625	868.413	671.770
281.599	22.837	867.355	671.698
282.614	22.633	866.408	670.131
283.628	22.221	865.725	667.976
284.643	22.147	864.732	666.873
285.657	22.291	864.361	667.073
286.672	22.305	864.159	666.912
287.687	22.135	863.182	665.456
288.701	22.379	863.071	666.234
289.716	22.364	862.717	665.846
290.730	22.312	862.292	665.262
291.745	22.388	861.027	664.514
292.760	22.553	860.407	664.600
293.774	22.354	860.073	663.532
294.789	22.676	860.317	664.876
295.803	22.924	859.220	664.904
296.818	22.399	858.801	662.544
297.833	22.256	857.722	661.114
298.847	22.310	856.949	660.663
299.862	22.196	856.390	659.745
300.876	22.365	855.952	659.985
301.891	22.673	855.016	660.358
302.906	22.675	855.142	660.403
303.920	22.866	854.667	660.693
304.935	23.084	854.406	661.250
305.949	23.272	853.517	661.204
306.964	23.202	852.650	660.213
307.979	22.746	852.344	658.217
308.993	22.693	851.667	657.439
310.008	22.861	851.040	657.521
311.022	22.989	850.461	657.492
312.037	23.000	849.951	657.080
313.052	22.492	849.577	654.845
314.066	22.430	848.631	653.828
315.081	22.125	847.619	651.858
316.095	22.233	846.765	651.546
317.110	22.220	846.380	651.142
318.125	22.246	845.853	650.775
319.139	21.909	845.680	649.337
320.154	22.015	845.034	649.175
321.168	22.041	844.492	648.799
322.183	22.164	843.808	648.670
323.197	22.369	843.428	649.076
324.212	22.531	842.839	649.161
325.227	22.290	842.756	648.154
326.241	22.256	841.858	647.280
327.256	22.218	841.362	646.701
328.270	22.343	840.219	646.225
329.285	22.201	840.016	645.490
330.300	22.150	839.403	644.775
331.314	22.017	839.221	644.090
332.329	21.993	838.476	643.373
333.343	22.406	837.714	644.245
334.358	22.664	837.778	645.179
335.373	22.714	836.874	644.608
336.387	22.668	836.805	644.331
337.402	22.773	836.209	644.198
338.416	22.894	835.615	644.124
339.431	23.060	835.241	644.384
340.446	23.368	834.837	645.139
341.460	23.445	834.262	644.916
342.475	23.494	834.155	644.956
343.489	23.586	833.198	644.494
344.504	23.561	833.122	644.286
345.519	23.459	832.831	643.635
346.533	23.791	832.234	644.321
347.548	23.730	831.770	643.681
348.562	23.435	830.762	641.778
349.577	22.975	830.131	639.568
350.592	22.854	829.410	638.521
351.606	22.788	828.790	637.748
352.621	22.685	828.092	636.780
353.635	22.595	827.967	636.305
354.650	22.793	827.226	636.393
355.665	22.843	826.833	636.214
356.679	22.982	826.465	636.377
357.694	22.979	826.207	636.108
358.708	23.131	825.706	636.215
359.723	23.070	824.852	635.281
360.738	22.990	824.182	634.420
361.752	22.937	823.732	633.829
362.767	23.017	823.553	633.921
363.781	23.327	823.016	634.563
364.796	23.506	822.980	635.121
365.810	23.772	822.626	635.741
366.825	23.808	822.792	635.944
367.840	23.834	822.393	635.671
368.854	23.901	821.380	635.072
369.869	23.751	820.812	634.043
370.883	23.407	820.128	632.230
371.898	23.255	820.075	631.591
372.913	23.727	818.903	632.315
373.927	23.778	818.570	632.182
374.942	23.696	817.410	630.940
375.956	23.393	817.388	629.789
376.971	23.632	816.862	630.176
377.986	23.831	816.442	630.504
379.000	23.819	816.307	630.299
380.015	24.030	815.570	630.423
381.029	23.979	814.718	629.529
382.044	23.975	813.751	628.710
383.059	23.934	813.646	628.429
384.073	24.081	813.057	628.436
385.088	23.926	812.244	627.207
386.102	23.658	811.234	625.427
387.117	23.345	810.587	623.773
388.132	23.144	810.433	622.891
389.146	23.254	809.964	622.860
390.161	23.252	809.457	622.411
391.175	23.592	809.271	623.406
392.190	23.911	809.070	624.317
393.205	23.849	808.173	623.352
394.219	23.559	807.639	621.869
395.234	23.375	807.258	620.874
396.248	23.041	806.369	618.969
397.263	23.145	806.004	618.997
398.278	23.010	805.583	618.144
399.292	23.045	805.147	617.878
400.307	22.903	804.708	616.991
401.321	22.953	804.014	616.578
402.336	22.948	803.748	616.305
403.350	23.104	803.536	616.631
404.365	23.457	803.000	617.395
405.380	23.622	802.724	617.701
406.394	23.829	802.511	618.205
407.409	24.196	802.532	619.441
408.423	24.257	801.904	619.112
409.438	24.199	801.653	618.665
410.453	24.208	801.739	618.707
411.467	24.307	800.841	618.302
412.482	24.256	800.215	617.585
413.496	24.402	799.799	617.716
414.511	24.419	799.824	617.739
415.526	24.529	799.256	617.628
416.540	24.362	798.316	616.271
417.555	24.157	798.129	615.362
418.569	24.073	797.809	614.771
419.584	24.232	796.729	614.431
420.599	24.164	796.776	614.180
421.613	162.743	1370.390	1795.584
422.628	141.249	1453.936	1795.667
