DTS Sentinel unit serial number:	SN413079Multiplexer serial number:	ORYXHardware model number:	OX4-SRSoftware version number:	ORYX F/W v4.00 Oryx Data Collector v3.7.2.0data status	okinstallation	princeton_trtdifferential loss correction	single-endedforward channel	channel 3reverse channel	N/Adate	2019/09/12time	11:10:11forward acquisition time	60.00reverse acquisition time	0.00gamma	496.2192k internal	0.2295k external	0.2295temperature offset calibration	1.0036default loss term (dB/km)	0.3790temperature slope calibration	1.0000multiplexer offset coefficient	1.0000multiplexer slope coefficient	1.0000fibre end	0.00T internal ref (°C)	38.75T ext. ref 1 (°C)	1.94T ext. ref 2 (°C)	35.76length (m)	temperature (°C)	Stokes	anti-Stokes-747.200	-65.519	-0.041	0.017
-746.185	-200.000	0.061	0.482
-745.171	94.486	-0.038	-0.044
-744.156	-11.126	0.252	0.170
-743.142	-74.133	0.161	0.060
-742.127	-5.584	0.186	0.130
-741.112	-68.465	-0.331	-0.131
-740.098	-200.000	0.022	0.246
-739.083	-152.400	0.174	0.013
-738.069	24.760	-0.114	-0.097
-737.054	-50.517	-0.307	0.148
-736.039	401.424	-0.105	0.226
-735.025	108.712	0.103	0.126
-734.010	-95.058	-0.224	-0.062
-732.996	800.000	0.074	-0.227
-731.981	680.669	0.035	0.092
-730.966	179.462	0.010	-0.015
-729.952	-89.927	-0.166	0.050
-728.937	184.512	-0.148	0.225
-727.923	-71.769	0.100	-0.038
-726.908	-174.362	0.321	-0.009
-725.894	-149.205	0.185	-0.015
-724.879	113.188	-0.139	-0.172
-723.864	-200.000	0.040	0.194
-722.850	130.352	0.312	0.408
-721.835	691.702	-0.043	0.114
-720.821	800.000	0.066	-0.216
-719.806	197.795	0.061	0.095
-718.791	-52.183	-0.098	-0.046
-717.777	-200.000	0.044	0.233
-716.762	43.738	-0.103	-0.096
-715.748	497.123	0.129	-0.302
-714.733	378.122	-0.053	0.110
-713.718	-67.528	0.134	-0.054
-712.704	32.785	0.155	-0.137
-711.689	568.365	-0.108	-0.268
-710.675	26.794	-0.253	-0.216
-709.660	-16.018	0.237	0.154
-708.645	-200.000	-0.034	-0.330
-707.631	-27.423	0.343	0.204
-706.616	341.777	-0.047	-0.094
-705.602	-9.618	0.068	0.046
-704.587	156.817	0.125	-0.177
-703.572	99.325	0.118	0.140
-702.558	9.474	-0.120	0.093
-701.543	-52.116	-0.051	-0.024
-700.529	-89.111	-0.190	0.057
-699.514	-200.000	0.045	-0.397
-698.499	-46.705	0.101	0.050
-697.485	109.649	0.054	0.066
-696.470	-73.005	0.304	0.114
-695.456	-200.000	-0.061	-0.327
-694.441	-61.136	-0.139	0.060
-693.426	-70.945	0.135	-0.052
-692.412	-90.449	-0.266	-0.079
-691.397	54.326	0.325	-0.319
-690.383	278.212	0.094	-0.170
-689.368	-152.739	0.104	-0.008
-688.354	25.290	-0.133	-0.112
-687.339	-23.222	0.036	-0.022
-686.324	114.240	-0.315	0.391
-685.310	-24.165	0.187	0.114
-684.295	-61.994	0.293	-0.125
-683.281	223.416	0.143	0.235
-682.266	800.000	0.055	-0.162
-681.251	-114.957	-0.168	0.033
-680.237	-47.612	0.079	0.039
-679.222	800.000	0.026	-0.083
-678.208	532.980	-0.151	0.363
-677.193	48.667	0.255	-0.244
-676.178	-200.000	0.015	0.110
-675.164	691.137	-0.140	0.372
-674.149	-35.296	-0.124	0.069
-673.135	-200.000	0.002	-0.257
-672.120	-119.242	-0.085	0.015
-671.105	137.317	-0.094	0.126
-670.091	-69.466	-0.249	-0.097
-669.076	278.821	0.104	-0.190
-668.062	-21.097	0.218	0.136
-667.047	130.416	-0.148	-0.193
-666.032	800.000	-0.042	-0.145
-665.018	-200.000	-0.011	-0.549
-664.003	800.000	0.055	0.199
-662.989	800.000	-0.140	-0.462
-661.974	-88.625	0.120	-0.036
-660.959	800.000	-0.096	-0.273
-659.945	527.984	-0.023	0.054
-658.930	-99.530	-0.109	-0.028
-657.916	-38.244	0.276	0.149
-656.901	-196.888	0.170	-0.001
-655.886	-200.000	0.029	0.196
-654.872	-200.000	-0.041	-0.236
-653.857	110.984	-0.109	-0.134
-652.843	-112.897	0.247	-0.050
-651.828	-98.573	0.199	0.052
-650.814	800.000	-0.055	-0.223
-649.799	101.682	0.180	-0.214
-648.784	-200.000	-0.008	0.082
-647.770	800.000	-0.010	0.038
-646.755	36.797	0.239	-0.215
-645.741	-200.000	-0.027	-0.187
-644.726	-45.423	0.226	-0.114
-643.711	-84.197	-0.390	-0.126
-642.697	-120.220	-0.367	-0.064
-641.682	-200.000	-0.023	0.350
-640.668	54.449	0.102	0.100
-639.653	319.336	0.001	-0.001
-638.638	-200.000	0.026	0.274
-637.624	-39.830	-0.313	-0.167
-636.609	-8.421	0.047	-0.032
-635.595	102.809	-0.080	-0.096
-634.580	13.202	0.240	-0.189
-633.565	188.531	0.118	0.180
-632.551	-52.248	0.106	-0.050
-631.536	-155.986	0.289	-0.019
-630.522	800.000	0.091	-0.324
-629.507	143.694	0.149	-0.202
-628.492	203.804	0.065	-0.102
-627.478	-20.458	-0.345	0.216
-626.463	-116.765	-0.060	0.011
-625.449	-55.555	0.082	-0.037
-624.434	-134.142	-0.125	-0.016
-623.419	-200.000	0.030	-0.219
-622.405	-200.000	0.024	-0.153
-621.390	63.982	-0.191	-0.196
-620.376	24.519	0.040	0.034
-619.361	313.546	-0.007	-0.014
-618.346	140.676	0.076	-0.103
-617.332	230.565	-0.122	-0.203
-616.317	247.092	0.074	-0.127
-615.303	91.266	0.230	-0.262
-614.288	100.037	-0.209	-0.246
-613.273	-200.000	0.010	-0.058
-612.259	800.000	0.008	-0.034
-611.244	-64.651	0.178	0.073
-610.230	13.746	0.101	0.080
-609.215	-200.000	-0.002	-0.033
-608.201	-62.008	0.067	-0.029
-607.186	-67.220	-0.144	-0.058
-606.171	30.868	-0.263	-0.229
-605.157	-144.164	-0.286	0.027
-604.142	2.892	0.156	0.115
-603.128	18.822	0.255	-0.207
-602.113	284.022	-0.173	0.317
-601.098	6.208	-0.073	-0.055
-600.084	22.155	-0.250	-0.207
-599.069	138.506	0.175	-0.234
-598.055	356.288	0.088	-0.179
-597.040	79.023	0.113	0.123
-596.025	330.508	-0.128	0.250
-595.011	-200.000	-0.012	0.256
-593.996	576.015	-0.176	0.437
-592.982	38.207	0.013	0.012
-591.967	-200.000	-0.007	0.377
-590.952	187.373	-0.119	-0.180
-589.938	-42.677	-0.275	0.142
-588.923	355.827	0.044	-0.089
-587.909	26.372	0.114	-0.097
-586.894	-121.664	0.439	0.074
-585.879	689.869	-0.059	-0.157
-584.865	-165.851	0.142	-0.006
-583.850	-158.782	0.063	-0.004
-582.836	389.456	-0.164	0.346
-581.821	-131.297	-0.426	-0.057
-580.806	-23.097	0.198	0.121
-579.792	-107.669	-0.097	-0.022
-578.777	30.895	0.277	0.241
-577.763	-96.352	0.384	0.103
-576.748	-66.995	0.260	0.104
-575.733	110.574	-0.104	0.127
-574.719	-80.594	-0.183	0.062
-573.704	800.000	0.054	0.173
-572.690	167.322	0.107	-0.155
-571.675	800.000	0.033	-0.107
-570.661	233.142	0.086	0.144
-569.646	-200.000	-0.005	0.030
-568.631	-163.702	0.519	0.025
-567.617	113.348	-0.277	0.341
-566.602	203.656	0.110	0.173
-565.588	800.000	0.114	0.344
-564.573	-75.544	0.346	-0.125
-563.558	-23.104	0.105	0.064
-562.544	242.000	0.095	-0.162
-561.529	-192.968	-0.022	0.000
-560.515	-51.898	0.145	0.068
-559.500	-49.028	-0.132	-0.064
-558.485	800.000	0.065	0.274
-557.471	42.209	0.164	0.151
-556.456	-74.909	-0.021	0.008
-555.442	42.170	0.089	0.082
-554.427	-200.000	0.027	-0.232
-553.412	800.000	0.014	-0.060
-552.398	-136.461	-0.245	-0.029
-551.383	-200.000	-0.004	-0.069
-550.369	-200.000	0.015	0.131
-549.354	-93.883	0.103	-0.029
-548.339	800.000	-0.072	-0.286
-547.325	-61.776	-0.104	-0.044
-546.310	123.639	0.086	0.109
-545.296	-200.000	0.011	0.093
-544.281	315.640	-0.182	-0.348
-543.266	18.030	0.270	-0.218
-542.252	229.050	-0.102	0.168
-541.237	-25.646	-0.255	-0.153
-540.223	-175.407	0.408	0.011
-539.208	-18.598	0.146	-0.093
-538.193	64.996	0.051	0.052
-537.179	-200.000	0.046	-0.222
-536.164	309.867	-0.058	-0.110
-535.150	-200.000	0.023	-0.130
-534.135	148.889	0.087	-0.119
-533.121	-32.806	-0.177	0.100
-532.106	-102.508	-0.078	0.019
-531.091	-200.000	0.023	-0.340
-530.077	-0.301	0.176	-0.127
-529.062	449.940	-0.172	-0.384
-528.048	-24.076	-0.203	-0.123
-527.033	-200.000	0.019	-0.149
-526.018	-169.074	0.223	-0.008
-525.004	-128.086	0.303	-0.044
-523.989	34.168	-0.199	-0.176
-522.975	579.344	0.016	-0.040
-521.960	3.364	0.096	-0.071
-520.945	-13.903	-0.113	-0.074
-519.931	505.351	0.139	-0.326
-518.916	800.000	0.095	-0.314
-517.902	-200.000	-0.016	-0.186
-516.887	-155.653	0.331	0.022
-515.872	396.261	0.132	0.278
-514.858	-98.922	-0.371	0.096
-513.843	-73.263	0.144	0.053
-512.829	-153.377	0.251	0.018
-511.814	-200.000	-0.009	0.332
-510.799	-200.000	-0.015	0.201
-509.785	-144.193	-0.089	-0.008
-508.770	-56.277	0.264	-0.119
-507.756	6.035	0.281	-0.211
-506.741	-200.000	0.057	-0.360
-505.726	-146.832	0.378	0.033
-504.712	-200.000	-0.032	0.243
-503.697	93.101	-0.113	0.129
-502.683	-134.996	0.193	0.024
-501.668	-200.000	0.011	-0.262
-500.653	-200.000	0.007	0.072
-499.639	-43.036	0.189	-0.097
-498.624	131.851	0.255	-0.332
-497.610	-200.000	0.019	-0.319
-496.595	-147.968	0.104	0.009
-495.581	800.000	-0.042	-0.141
-494.566	45.912	-0.058	-0.054
-493.551	-200.000	0.002	-0.190
-492.537	-200.000	-0.004	-0.053
-491.522	800.000	-0.072	-0.248
-490.508	90.934	0.071	-0.080
-489.493	516.528	0.115	-0.271
-488.478	744.819	-0.069	0.189
-487.464	-38.226	-0.290	-0.156
-486.449	-104.648	-0.410	-0.096
-485.435	-24.323	-0.354	0.214
-484.420	-171.663	-0.056	-0.002
-483.405	265.662	0.125	0.220
-482.391	800.000	0.076	0.273
-481.376	160.821	0.113	-0.160
-480.362	800.000	-0.076	-0.224
-479.347	54.757	-0.054	0.053
-478.332	-142.883	0.194	-0.019
-477.318	-119.340	-0.294	-0.052
-476.303	131.058	0.362	-0.470
-475.289	-116.365	0.144	0.027
-474.274	-200.000	0.014	-0.144
-473.259	-144.707	-0.109	0.010
-472.245	123.398	-0.017	-0.021
-471.230	28.089	-0.108	0.092
-470.216	-200.000	-0.001	0.162
-469.201	-115.964	-0.264	0.050
-468.186	-19.541	-0.217	-0.136
-467.172	-145.408	-0.273	-0.025
-466.157	-51.880	-0.236	0.111
-465.143	9.010	-0.067	0.052
-464.128	36.595	-0.148	0.132
-463.113	-144.950	0.135	0.013
-462.099	-60.689	-0.427	-0.183
-461.084	4.005	0.077	-0.057
-460.070	-27.285	0.071	-0.042
-459.055	-129.687	0.220	-0.031
-458.040	189.995	-0.091	0.139
-457.026	-200.000	0.002	0.194
-456.011	427.550	0.078	0.170
-454.997	-63.851	-0.183	-0.076
-453.982	188.879	-0.092	0.139
-452.968	59.129	0.102	0.102
-451.953	12.709	-0.046	0.036
-450.938	-110.508	0.136	-0.028
-449.924	-45.658	-0.146	-0.073
-448.909	800.000	-0.061	0.268
-447.895	800.000	0.093	-0.268
-446.880	49.796	0.225	-0.215
-445.865	-173.768	0.125	0.004
-444.851	-19.569	0.020	-0.013
-443.836	-112.392	0.409	-0.083
-442.822	-176.879	-0.143	-0.004
-441.807	800.000	-0.035	0.100
-440.792	-46.557	0.071	0.035
-439.778	-60.913	-0.184	-0.078
-438.763	35.188	0.241	-0.213
-437.749	83.110	-0.245	-0.270
-436.734	-200.000	-0.008	0.141
-435.719	16.713	-0.169	0.135
-434.705	-200.000	-0.024	0.280
-433.690	107.855	0.042	-0.050
-432.676	217.338	0.068	-0.110
-431.661	86.982	0.209	0.233
-430.646	-93.040	0.112	0.032
-429.632	-156.748	-0.587	-0.037
-428.617	800.000	0.106	-0.444
-427.603	147.571	0.240	0.326
-426.588	263.555	-0.098	0.172
-425.573	-25.195	-0.118	-0.071
-424.559	501.522	-0.047	-0.110
-423.544	-200.000	0.220	-0.001
-422.530	77.514	0.099	-0.106
-421.515	800.000	0.034	0.097
-420.500	-160.008	-0.162	0.009
-419.486	800.000	0.052	0.226
-418.471	-124.768	-0.221	-0.035
-417.457	-130.973	-0.297	-0.040
-416.442	778.727	0.133	0.368
-415.428	272.244	-0.174	0.310
-414.413	-200.000	0.058	0.471
-413.398	73.121	-0.203	-0.214
-412.384	-118.650	-0.136	-0.024
-411.369	-200.000	0.045	-0.375
-410.355	652.842	0.161	-0.416
-409.340	101.072	0.183	-0.214
-408.325	172.615	-0.110	-0.159
-407.311	-11.619	-0.185	-0.123
-406.296	-77.673	0.329	-0.115
-405.282	57.490	-0.196	0.193
-404.267	-124.716	0.104	0.016
-403.252	-76.618	0.150	-0.053
-402.238	94.615	0.053	0.061
-401.223	104.014	0.051	-0.061
-400.209	-134.872	0.198	-0.024
-399.194	-200.000	0.022	0.210
-398.179	-131.372	-0.405	0.054
-397.165	-35.704	-0.105	-0.057
-396.150	680.205	0.166	0.437
-395.136	58.429	-0.488	0.483
-394.121	-200.000	0.004	0.155
-393.106	-136.970	0.158	0.018
-392.092	249.302	-0.218	0.373
-391.077	-138.788	-0.124	-0.014
-390.063	-55.453	-0.391	-0.177
-389.048	-196.426	-0.072	0.000
-388.033	16.113	0.434	0.345
-387.019	-147.979	0.063	0.005
-386.004	-54.116	-0.058	-0.027
-384.990	443.276	-0.082	0.180
-383.975	-14.557	-0.112	-0.073
-382.960	102.363	-0.251	0.295
-381.946	800.000	-0.030	0.109
-380.931	-156.773	-0.199	0.012
-379.917	800.000	-0.014	-0.046
-378.902	-10.827	-0.148	-0.099
-377.888	800.000	0.057	0.169
-376.873	-200.000	-0.039	-0.177
-375.858	-87.162	-0.301	0.092
-374.844	757.479	0.067	0.183
-373.829	-186.888	-0.060	-0.001
-372.815	30.646	0.141	0.122
-371.800	45.207	-0.251	-0.233
-370.785	431.637	-0.175	-0.381
-369.771	-14.082	-0.254	0.165
-368.756	-6.124	0.323	0.222
-367.742	-42.148	0.316	-0.163
-366.727	-120.078	-0.309	0.053
-365.712	38.282	0.192	-0.172
-364.698	-90.376	-0.287	-0.084
-363.683	-26.475	-0.128	-0.075
-362.669	-15.209	-0.109	0.071
-361.654	800.000	-0.105	-0.330
-360.639	-113.678	-0.027	-0.005
-359.625	-200.000	0.050	0.283
-358.610	-22.520	-0.325	0.198
-357.596	75.183	0.059	0.062
-356.581	-146.692	-0.062	-0.005
-355.566	584.486	0.058	-0.142
-354.552	-200.000	-0.046	0.255
-353.537	-200.000	-0.003	-0.085
-352.523	800.000	-0.052	0.189
-351.508	-200.000	-0.018	0.101
-350.493	-149.768	0.195	-0.015
-349.479	259.440	-0.155	-0.269
-348.464	617.923	-0.128	-0.323
-347.450	800.000	-0.084	0.276
-346.435	86.246	-0.177	0.196
-345.420	-62.134	-0.117	0.049
-344.406	30.503	0.328	0.283
-343.391	533.198	0.168	0.401
-342.377	119.496	0.224	0.279
-341.362	-32.364	-0.353	-0.198
-340.348	-200.000	0.015	-0.178
-339.333	-200.000	-0.061	-0.289
-338.318	-200.000	0.051	0.232
-337.304	89.149	0.146	0.163
-336.289	53.084	0.077	0.074
-335.275	-200.000	-0.009	0.171
-334.260	-37.482	0.336	-0.181
-333.245	182.237	0.039	0.058
-332.231	32.916	0.092	-0.080
-331.216	666.180	-0.063	-0.165
-330.202	29.916	-0.123	0.105
-329.187	170.092	-0.130	-0.187
-328.172	-104.791	-0.142	-0.033
-327.158	-200.000	0.041	0.261
-326.143	799.430	0.085	0.236
-325.129	800.000	-0.096	0.366
-324.114	726.851	0.081	0.217
-323.099	22.598	0.081	0.067
-322.085	40.000	-0.067	-0.061
-321.070	-115.031	-0.213	-0.041
-320.056	204.571	-0.166	0.258
-319.041	-124.815	0.087	0.014
-318.026	-28.691	0.266	0.154
-317.012	-2.083	-0.194	-0.137
-315.997	212.161	-0.268	-0.424
-314.983	272.839	-0.122	0.216
-313.968	230.046	0.242	0.398
-312.953	667.741	0.110	0.287
-311.939	28.648	0.098	0.083
-310.924	151.846	-0.044	-0.061
-309.910	-107.832	0.307	-0.067
-308.895	155.475	-0.211	0.292
-307.880	8.548	0.111	-0.084
-306.866	-130.607	-0.388	0.053
-305.851	-9.658	-0.213	-0.142
-304.837	-82.169	-0.275	-0.090
-303.822	-67.571	-0.263	-0.104
-302.807	-5.315	0.146	-0.101
-301.793	182.728	0.201	0.298
-300.778	-80.951	0.395	-0.132
-299.764	177.967	-0.193	-0.283
-298.749	-133.872	0.276	0.034
-297.735	-165.425	-0.123	0.005
-296.720	-200.000	-0.020	0.153
-295.705	-129.310	0.233	0.033
-294.691	-128.443	-0.203	0.029
-293.676	76.109	-0.059	0.062
-292.662	-26.331	-0.309	-0.182
-291.647	457.686	0.079	-0.175
-290.632	213.716	0.150	-0.237
-289.618	270.243	0.112	0.197
-288.603	-200.000	-0.010	0.125
-287.589	-36.749	-0.151	-0.081
-286.574	24.748	0.155	-0.129
-285.559	800.000	0.139	0.407
-284.545	800.000	-0.066	0.185
-283.530	45.923	-0.125	-0.116
-282.516	-200.000	-0.029	-0.162
-281.501	-200.000	-0.013	-0.528
-280.486	-38.106	0.208	0.111
-279.472	-170.510	0.092	-0.003
-278.457	-200.000	-0.012	-0.101
-277.443	366.894	0.147	0.297
-276.428	-200.000	-0.026	0.232
-275.413	21.732	-0.153	-0.125
-274.399	211.614	-0.069	0.109
-273.384	556.868	-0.041	0.099
-272.370	619.097	-0.091	-0.229
-271.355	800.000	0.061	-0.223
-270.340	-58.437	-0.140	-0.061
-269.326	-200.000	-0.004	0.447
-268.311	800.000	0.047	-0.143
-267.297	-200.000	0.041	-0.570
-266.282	-200.000	-0.007	0.498
-265.267	179.153	0.122	-0.178
-264.253	-135.064	0.052	0.006
-263.238	73.739	-0.121	0.127
-262.224	-48.411	0.179	-0.086
-261.209	800.000	-0.036	-0.132
-260.195	21.282	0.200	0.163
-259.180	75.011	-0.277	0.292
-258.165	29.536	0.241	0.205
-257.151	-118.333	-0.378	0.067
-256.136	-163.163	0.128	-0.006
-255.122	-46.199	0.193	0.095
-254.107	-112.992	-0.200	-0.040
-253.092	-200.000	-0.084	0.000
-252.078	157.794	-0.057	-0.079
-251.063	101.299	0.386	-0.451
-250.049	402.290	-0.170	0.359
-249.034	-193.826	-0.235	0.002
-248.019	-68.052	-0.356	-0.139
-247.005	-122.085	0.212	-0.035
-245.990	105.295	0.213	0.252
-244.976	-141.330	-0.228	-0.023
-243.961	139.973	0.079	0.104
-242.946	348.006	0.173	-0.343
-241.932	423.368	-0.028	0.061
-240.917	91.955	0.074	-0.084
-239.903	537.145	-0.021	-0.050
-238.888	-200.000	-0.000	-0.064
-237.873	-36.866	-0.076	0.041
-236.859	-81.488	0.158	0.052
-235.844	-200.000	0.013	0.313
-234.830	49.343	0.247	-0.233
-233.815	113.089	0.132	0.160
-232.800	288.898	-0.176	0.320
-231.786	-99.546	0.206	0.052
-230.771	-115.811	0.283	-0.053
-229.757	-26.539	0.051	0.030
-228.742	-68.078	0.088	0.034
-227.727	-200.000	0.020	0.183
-226.713	800.000	-0.108	-0.299
-225.698	800.000	-0.068	-0.256
-224.684	-34.909	-0.095	-0.052
-223.669	587.371	0.018	-0.045
-222.655	517.428	0.081	-0.189
-221.640	76.301	0.020	0.022
-220.625	-13.620	0.153	-0.099
-219.611	-200.000	0.067	-0.457
-218.596	78.666	0.343	0.367
-217.582	2.064	-0.076	-0.055
-216.567	78.851	-0.118	0.126
-215.552	-67.253	0.082	-0.032
-214.538	110.749	-0.140	0.168
-213.523	-185.075	-0.116	0.002
-212.509	-155.705	-0.376	-0.024
-211.494	143.055	-0.195	-0.260
-210.479	800.000	-0.048	-0.190
-209.465	-200.000	0.048	-0.228
-208.450	800.000	0.044	-0.186
-207.436	407.553	-0.050	0.106
-206.421	273.519	0.198	-0.351
-205.406	184.739	-0.233	-0.346
-204.392	48.515	0.207	-0.194
-203.377	-200.000	0.064	0.293
-202.363	66.628	0.133	-0.136
-201.348	-42.534	0.123	-0.063
-200.333	6.319	0.067	0.050
-199.319	-17.426	0.176	-0.111
-198.304	-200.000	0.034	0.281
-197.290	492.120	0.042	0.097
-196.275	-135.309	0.086	-0.010
-195.260	-7.785	-0.114	0.077
-194.246	800.000	0.135	0.472
-193.231	-200.000	0.040	0.188
-192.217	800.000	-0.041	0.120
-191.202	286.890	0.057	0.102
-190.187	-200.000	-0.023	-0.128
-189.173	-200.000	-0.278	0.001
-188.158	-129.125	0.373	0.052
-187.144	-200.000	0.047	0.229
-186.129	138.797	-0.069	0.091
-185.114	-132.671	-0.187	0.024
-184.100	41.935	0.136	-0.123
-183.085	-48.502	0.319	-0.153
-182.071	800.000	0.046	0.183
-181.056	157.100	-0.149	-0.206
-180.042	-200.000	0.015	-0.224
-179.027	63.877	0.259	-0.260
-178.012	-4.629	-0.191	0.132
-176.998	629.013	0.047	-0.119
-175.983	-161.143	0.157	0.008
-174.969	43.697	-0.275	0.251
-173.954	14.696	0.254	0.199
-172.939	70.121	-0.228	0.236
-171.925	-200.000	-0.010	0.107
-170.910	-149.049	-0.187	0.015
-169.896	-181.909	-0.158	0.003
-168.881	-133.175	-0.124	-0.016
-167.866	124.493	-0.112	-0.141
-166.852	800.000	0.124	-0.460
-165.837	104.054	0.052	-0.061
-164.823	-54.036	-0.446	-0.203
-163.808	-50.765	0.212	-0.100
-162.793	353.917	0.083	0.164
-161.779	-42.579	-0.326	0.166
-160.764	-200.000	-0.009	-0.181
-159.750	-174.669	-0.181	-0.005
-158.735	-100.445	-0.327	0.081
-157.720	-73.888	0.173	0.063
-156.706	22.991	-0.147	-0.121
-155.691	18.268	0.303	0.242
-154.677	800.000	-0.133	0.491
-153.662	-96.309	0.118	-0.031
-152.647	22.484	0.318	0.260
-151.633	800.000	-0.063	0.220
-150.618	-100.414	-0.055	0.014
-149.604	-69.102	0.469	0.180
-148.589	82.308	0.062	-0.067
-147.574	-200.000	0.027	-0.137
-146.560	179.675	0.035	-0.051
-145.545	622.591	-0.081	-0.204
-144.531	-121.743	-0.075	-0.012
-143.516	-200.000	0.032	-0.393
-142.502	313.256	0.125	0.235
-141.487	-34.653	-0.119	0.065
-140.472	-85.450	0.188	-0.059
-139.458	239.446	-0.072	0.120
-138.443	93.094	-0.184	-0.208
-137.429	65.479	0.198	0.200
-136.414	376.539	0.117	-0.238
-135.399	-74.256	0.105	-0.038
-134.385	489.688	-0.061	-0.139
-133.370	79.651	-0.185	-0.198
-132.356	-118.631	0.222	0.039
-131.341	-200.000	0.014	0.212
-130.326	-158.854	-0.233	0.013
-129.312	266.486	0.072	-0.125
-128.297	-115.158	0.363	0.069
-127.283	208.049	0.151	0.235
-126.268	800.000	0.079	-0.290
-125.253	-118.291	0.155	0.027
-124.239	229.315	0.036	0.059
-123.224	-192.558	0.091	-0.001
-122.210	-200.000	-0.036	-0.179
-121.195	-81.107	-0.109	0.036
-120.180	84.568	0.116	-0.126
-119.166	-45.938	0.131	0.064
-118.151	-200.000	-0.053	0.289
-117.137	151.058	0.055	0.074
-116.122	16.460	0.123	-0.097
-115.107	-78.595	-0.035	-0.012
-114.093	-200.000	-0.012	0.155
-113.078	-148.498	0.159	0.013
-112.064	800.000	-0.105	0.297
-111.049	-200.000	-0.012	-0.098
-110.034	-82.214	-0.065	0.021
-109.020	-200.000	0.050	0.230
-108.005	105.222	-0.129	0.152
-106.991	163.401	-0.137	-0.192
-105.976	575.916	-0.161	-0.392
-104.962	399.623	0.092	0.192
-103.947	-174.551	-0.290	-0.008
-102.932	-67.776	0.351	0.137
-101.918	800.000	-0.104	-0.369
-100.903	-92.364	-0.138	0.039
-99.889	-59.577	0.178	0.076
-98.874	800.000	0.045	0.174
-97.859	800.000	-0.080	0.221
-96.845	-77.872	0.233	-0.080
-95.830	49.662	-0.191	0.179
-94.816	-200.000	-0.016	-0.116
-93.801	-83.809	0.176	-0.056
-92.786	26.875	0.108	0.090
-91.772	-72.748	0.104	0.038
-90.757	-115.840	0.234	-0.044
-89.743	-2.204	-0.069	0.049
-88.728	204.299	0.022	-0.033
-87.713	107.020	-0.159	0.189
-86.699	-10.890	-0.266	0.175
-85.684	360.739	-0.043	-0.087
-84.670	64.899	0.176	0.177
-83.655	-94.046	-0.372	0.102
-82.640	-200.000	-0.009	-0.213
-81.626	665.711	-0.014	0.035
-80.611	-88.903	0.326	0.096
-79.597	178.856	-0.073	-0.107
-78.582	-149.792	-0.261	0.020
-77.567	568.427	0.217	-0.525
-76.553	-200.000	0.027	0.243
-75.538	-131.032	-0.298	-0.040
-74.524	71.456	-0.316	-0.327
-73.509	-103.040	-0.111	0.026
-72.494	800.000	-0.047	0.154
-71.480	-162.312	0.259	-0.013
-70.465	-104.931	0.281	0.064
-69.451	286.905	-0.315	-0.567
-68.436	-70.749	0.531	0.200
-67.422	625.427	-0.017	0.042
-66.407	-200.000	0.050	-0.264
-65.392	-64.068	-0.091	0.037
-64.378	716.976	-0.065	0.172
-63.363	-58.341	0.074	0.032
-62.349	-200.000	-0.002	-0.268
-61.334	9.441	-0.663	-0.500
-60.319	510.722	0.229	0.530
-59.305	-200.000	-0.121	-0.778
-58.290	288.154	0.413	0.745
-57.276	800.000	0.534	1.629
-56.261	-200.000	81.244	499.457
-55.246	471.978	1377.193	3085.077
-54.232	143.313	2605.142	3450.158
-53.217	110.329	2263.219	2705.255
-52.203	48.424	1790.554	1668.282
-51.188	41.774	1596.883	1440.077
-50.173	39.334	1568.363	1397.007
-49.159	55.010	1608.495	1545.607
-48.144	59.567	1628.502	1597.514
-47.130	42.325	1591.132	1438.616
-46.115	39.053	1575.863	1401.457
-45.100	38.872	1572.948	1397.525
-44.086	38.844	1570.847	1395.399
-43.071	38.737	1568.962	1392.910
-42.057	38.687	1567.326	1391.051
-41.042	38.672	1565.527	1389.293
-40.027	38.719	1564.611	1388.757
-39.013	38.754	1562.581	1387.148
-37.998	38.739	1561.124	1385.691
-36.984	38.806	1559.648	1384.804
-35.969	38.802	1558.145	1383.382
-34.954	38.758	1557.433	1382.389
-33.940	38.822	1555.655	1381.202
-32.925	38.682	1554.639	1379.262
-31.911	38.804	1552.959	1378.577
-30.896	38.889	1551.182	1377.537
-29.881	38.891	1550.238	1376.659
-28.867	38.772	1548.747	1374.447
-27.852	38.820	1547.207	1373.360
-26.838	38.830	1546.215	1372.496
-25.823	38.757	1544.144	1370.095
-24.809	38.803	1542.628	1369.013
-23.794	38.758	1541.178	1367.361
-22.779	38.809	1540.472	1367.034
-21.765	38.761	1539.243	1365.559
-20.750	38.795	1537.570	1364.257
-19.736	38.900	1536.336	1363.831
-18.721	38.786	1535.139	1361.925
-17.706	38.694	1534.958	1361.076
-16.692	38.728	1533.090	1359.602
-15.677	38.712	1532.026	1358.493
-14.663	38.628	1531.395	1357.291
-13.648	38.745	1529.889	1356.714
-12.633	38.750	1528.810	1355.743
-11.619	38.652	1528.353	1354.604
-10.604	38.746	1526.938	1353.945
-9.590	38.709	1526.338	1353.105
-8.575	38.727	1524.910	1351.907
-7.560	38.665	1524.387	1350.960
-6.546	38.661	1523.350	1349.965
-5.531	38.594	1522.677	1348.854
-4.517	38.612	1521.700	1348.057
-3.502	38.653	1520.267	1347.012
-2.487	38.686	1519.476	1346.484
-1.473	38.631	1518.321	1345.032
-0.458	38.716	1517.082	1344.468
0.556	38.991	1507.412	1334.929
1.571	36.350	1479.724	1292.635
2.586	32.701	1415.877	1213.319
3.600	30.816	1330.818	1128.915
4.615	28.878	1281.546	1075.694
5.629	23.975	1220.630	997.073
6.644	12.343	1127.268	860.161
7.659	3.476	1080.545	779.759
8.673	2.276	1074.522	769.308
9.688	1.971	1071.315	765.416
10.702	1.716	1069.558	762.815
11.717	1.798	1067.849	761.935
12.731	5.227	1072.272	782.225
13.746	15.872	1088.452	847.831
14.761	23.928	1098.727	896.544
15.775	25.274	1099.441	903.831
16.790	25.380	1099.179	904.066
17.804	25.237	1098.182	902.450
18.819	24.890	1097.309	899.907
19.834	25.095	1096.758	900.405
20.848	25.267	1096.040	900.600
21.863	25.249	1095.914	900.325
22.877	25.262	1095.406	899.893
23.892	25.274	1094.738	899.324
24.907	25.118	1093.825	897.718
25.921	25.171	1093.288	897.462
26.936	25.312	1092.146	897.146
27.950	25.172	1090.982	895.416
28.965	25.141	1089.874	894.273
29.980	25.091	1088.269	892.627
30.994	25.025	1087.219	891.359
32.009	25.241	1086.200	891.516
33.023	25.394	1085.745	891.825
34.038	25.109	1084.559	889.359
35.053	25.055	1084.038	888.586
36.067	25.261	1083.511	889.093
37.082	25.199	1082.614	887.973
38.096	25.311	1081.736	887.726
39.111	25.337	1081.241	887.369
40.126	25.552	1080.283	887.569
41.140	25.392	1079.204	885.813
42.155	25.190	1077.454	883.303
43.169	24.805	1076.584	880.618
44.184	24.848	1075.292	879.694
45.199	24.847	1074.573	879.023
46.213	24.791	1073.456	877.759
47.228	24.752	1072.417	876.641
48.242	24.991	1071.823	877.245
49.257	24.924	1071.624	876.677
50.271	24.999	1070.516	876.062
51.286	25.246	1069.822	876.623
52.301	25.357	1068.884	876.317
53.315	25.256	1068.327	875.292
54.330	25.282	1067.471	874.637
55.344	25.176	1066.768	873.471
56.359	25.311	1065.592	873.086
57.374	25.135	1065.046	871.704
58.388	25.087	1064.172	870.682
59.403	24.995	1063.295	869.437
60.417	24.993	1062.724	868.887
61.432	24.744	1062.149	867.129
62.447	24.871	1060.838	866.597
63.461	24.923	1060.963	866.878
64.476	24.970	1059.904	866.162
65.490	24.923	1058.971	865.097
66.505	24.882	1057.638	863.733
67.520	24.921	1056.987	863.311
68.534	24.791	1056.567	862.265
69.549	24.812	1055.440	861.371
70.563	24.462	1054.407	858.767
71.578	24.339	1053.442	857.317
72.593	24.483	1052.813	857.419
73.607	24.320	1051.415	855.424
74.622	24.339	1050.552	854.736
75.636	24.601	1050.087	855.537
76.651	24.680	1049.256	855.164
77.666	24.686	1048.561	854.550
78.680	24.503	1047.541	852.768
79.695	24.593	1047.117	852.777
80.709	24.634	1046.515	852.407
81.724	24.876	1045.491	852.652
82.739	24.874	1044.413	851.688
83.753	24.880	1043.493	850.888
84.768	25.077	1043.164	851.480
85.782	25.322	1042.585	852.099
86.797	25.499	1042.043	852.420
87.812	25.550	1041.236	851.923
88.826	25.333	1039.913	849.739
89.841	25.255	1039.654	849.083
90.855	25.397	1038.721	848.920
91.870	25.358	1038.185	848.222
92.884	25.516	1037.057	847.968
93.899	25.333	1035.916	846.100
94.914	25.227	1034.980	844.762
95.928	25.430	1034.216	845.019
96.943	25.394	1033.629	844.293
97.957	25.012	1032.354	841.386
98.972	24.871	1030.987	839.534
99.987	24.596	1030.299	837.610
101.001	24.731	1029.295	837.354
102.016	25.115	1028.729	838.613
103.030	25.067	1028.042	837.757
104.045	24.922	1027.149	836.276
105.060	24.910	1025.585	834.872
106.074	24.780	1024.735	833.503
107.089	24.766	1024.218	832.942
108.103	25.105	1023.320	833.715
109.118	25.216	1022.299	833.325
110.133	24.913	1021.138	830.899
111.147	24.809	1020.539	829.855
112.162	24.752	1019.321	828.529
113.176	24.549	1017.885	826.350
114.191	24.706	1017.631	826.794
115.206	24.741	1016.406	825.888
116.220	24.552	1015.314	824.058
117.235	24.341	1014.637	822.461
118.249	24.513	1013.632	822.363
119.264	24.585	1013.015	822.122
120.279	24.494	1011.971	820.784
121.293	24.447	1011.233	819.897
122.308	24.391	1010.966	819.352
123.322	24.518	1009.987	819.067
124.337	24.540	1008.956	818.263
125.352	24.463	1007.521	816.672
126.366	23.948	1005.741	812.807
127.381	23.688	1004.432	810.490
128.395	24.141	1004.328	812.401
129.410	24.843	1003.889	815.171
130.424	25.033	1003.564	815.700
131.439	25.060	1002.513	814.898
132.454	25.012	1001.303	813.625
133.468	24.898	1000.744	812.579
134.483	25.020	999.566	812.105
135.497	24.956	999.364	811.578
136.512	25.221	999.024	812.430
137.527	25.295	998.188	812.013
138.541	25.344	997.340	811.471
139.556	25.235	996.669	810.364
140.570	25.432	995.185	809.974
141.585	25.282	994.634	808.778
142.600	25.538	993.847	809.216
143.614	25.265	993.491	807.627
144.629	25.380	992.668	807.406
145.643	25.607	992.055	807.857
146.658	25.384	991.056	805.970
147.673	25.389	989.312	804.501
148.687	25.174	988.734	802.997
149.702	25.211	987.343	801.962
150.716	25.102	986.654	800.846
151.731	25.027	985.864	799.797
152.746	25.063	984.713	798.956
153.760	25.233	984.358	799.354
154.775	25.383	983.533	799.281
155.789	25.505	982.543	798.947
156.804	25.559	981.636	798.377
157.819	25.309	980.773	796.498
158.833	25.329	980.079	795.954
159.848	25.508	978.905	795.719
160.862	25.583	978.333	795.517
161.877	25.423	977.417	793.994
162.892	25.375	976.367	792.862
163.906	25.523	974.992	792.327
164.921	25.424	974.290	791.251
165.935	25.345	973.146	789.901
166.950	25.358	972.498	789.365
167.964	25.444	971.877	789.165
168.979	25.496	970.334	788.074
169.994	25.371	969.223	786.552
171.008	25.253	968.300	785.220
172.023	25.277	967.686	784.757
173.037	25.517	966.807	785.021
174.052	25.411	965.480	783.411
175.067	25.151	964.788	781.647
176.081	25.139	963.859	780.773
177.096	25.230	963.198	780.565
178.110	25.297	962.233	780.005
179.125	25.069	961.215	778.122
180.140	24.636	960.389	775.508
181.154	24.827	959.548	775.587
182.169	24.897	959.039	775.410
183.183	25.078	958.650	775.812
184.198	25.435	958.383	777.068
185.213	25.422	957.605	776.313
186.227	25.302	956.471	774.806
187.242	25.407	956.243	775.008
188.256	25.373	956.226	774.777
189.271	25.375	954.976	773.707
190.286	25.497	954.355	773.659
191.300	25.231	953.786	771.984
192.315	24.734	952.015	768.348
193.329	23.921	950.484	763.558
194.344	23.626	949.043	761.065
195.359	24.045	949.862	763.455
196.373	25.056	950.064	767.884
197.388	25.404	949.793	769.084
198.402	25.357	948.668	767.907
199.417	25.253	948.068	766.906
200.432	25.223	948.375	766.962
201.446	25.282	947.035	766.061
202.461	24.974	946.216	764.015
203.475	24.926	946.126	763.670
204.490	24.477	944.660	760.507
205.504	23.454	942.365	754.246
206.519	23.807	941.680	755.131
207.534	24.723	942.345	759.486
208.548	24.852	942.023	759.710
209.563	25.271	941.398	760.915
210.577	25.219	941.214	760.479
211.592	24.997	940.027	758.514
212.607	25.288	940.056	759.699
213.621	25.486	939.595	760.098
214.636	25.368	939.225	759.233
215.650	25.458	938.333	758.824
216.665	25.315	937.791	757.714
217.680	25.438	937.478	757.915
218.694	25.509	937.045	757.796
219.709	25.201	935.810	755.434
220.723	24.835	934.877	753.072
221.738	25.026	934.538	753.537
222.753	25.151	934.104	753.648
223.767	25.149	933.251	752.882
224.782	25.347	932.555	753.087
225.796	25.578	931.615	753.228
226.811	25.699	930.867	753.063
227.826	25.119	930.109	749.956
228.840	24.337	928.335	745.193
229.855	24.288	927.720	744.432
230.869	24.561	927.556	745.372
231.884	24.275	926.270	743.080
232.899	24.255	926.043	742.748
233.913	24.974	926.373	745.945
234.928	25.249	925.729	746.506
235.942	25.095	925.408	745.538
236.957	25.144	924.706	745.112
237.972	24.824	923.612	742.833
238.986	24.737	922.496	741.510
240.001	24.915	921.790	741.617
241.015	24.869	921.869	741.421
242.030	24.947	920.959	740.948
243.045	25.145	920.242	741.125
244.059	25.221	919.743	740.970
245.074	25.280	919.556	740.997
246.088	25.307	918.719	740.367
247.103	25.022	917.571	738.203
248.117	25.049	916.845	737.666
249.132	25.511	917.087	739.696
250.147	25.887	917.169	741.247
251.161	25.955	916.573	740.975
252.176	26.075	916.317	741.198
253.190	26.206	915.208	740.773
254.205	26.172	914.562	740.045
255.220	26.480	914.348	741.067
256.234	26.332	913.704	739.875
257.249	26.100	913.277	738.514
258.263	26.053	912.481	737.612
259.278	26.086	911.680	737.035
260.293	26.029	911.537	736.621
261.307	26.256	911.002	737.050
262.322	26.154	910.168	735.893
263.336	26.120	909.132	734.852
264.351	25.613	908.066	731.864
265.366	24.502	906.171	725.760
266.380	23.902	905.638	722.829
267.395	24.926	905.732	727.001
268.409	25.668	905.520	729.775
269.424	25.690	904.678	729.124
270.439	25.843	904.592	729.610
271.453	25.911	903.756	729.143
272.468	25.935	903.268	728.782
273.482	26.040	903.041	728.959
274.497	26.296	902.464	729.462
275.512	25.998	901.626	727.521
276.526	25.391	900.495	724.099
277.541	25.595	899.779	724.277
278.555	25.921	899.633	725.410
279.570	25.762	898.950	724.155
280.585	25.674	898.227	723.153
281.599	25.765	897.985	723.263
282.614	25.903	897.098	723.036
283.628	25.394	895.846	719.925
284.643	25.041	895.266	717.979
285.657	25.352	895.324	719.208
286.672	25.438	894.393	718.740
287.687	25.029	893.407	716.252
288.701	25.154	893.562	716.810
289.716	25.668	892.845	718.225
290.730	25.247	892.264	716.015
291.745	25.108	891.404	714.708
292.760	25.117	890.506	713.960
293.774	24.942	889.673	712.532
294.789	25.639	890.681	716.052
295.803	26.300	890.483	718.460
296.818	26.444	890.146	718.697
297.833	26.624	888.956	718.386
298.847	26.173	888.473	716.141
299.862	25.823	887.228	713.691
300.876	26.030	886.854	714.144
301.891	26.432	886.710	715.556
302.906	26.368	886.150	714.789
303.920	26.192	884.699	712.858
304.935	26.047	883.969	711.635
305.949	26.380	883.781	712.734
306.964	26.443	883.909	713.024
307.979	26.179	882.824	711.047
308.993	26.122	882.311	710.347
310.008	26.225	882.291	710.672
311.022	26.656	881.467	711.638
312.037	26.373	880.830	709.950
313.052	26.210	880.134	708.686
314.066	26.175	879.597	708.056
315.081	25.419	878.131	703.853
316.095	24.671	876.613	699.647
317.110	25.142	877.044	701.774
318.125	26.047	876.998	705.211
319.139	25.688	875.943	702.901
320.154	24.669	874.284	697.530
321.168	24.091	873.300	694.431
322.183	24.715	873.603	697.045
323.197	25.645	874.239	701.116
324.212	25.954	873.393	701.577
325.227	26.181	873.415	702.417
326.241	26.249	872.909	702.213
327.256	26.042	872.660	701.145
328.270	26.122	871.485	700.452
329.285	26.056	870.765	699.555
330.300	25.794	870.231	698.049
331.314	25.521	869.389	696.254
332.329	25.522	868.940	695.837
333.343	26.017	868.720	697.514
334.358	26.316	868.341	698.303
335.373	26.330	867.909	697.948
336.387	26.289	867.242	697.191
337.402	26.501	866.739	697.544
338.416	26.833	866.325	698.427
339.431	26.663	866.081	697.515
340.446	26.687	865.275	696.895
341.460	27.083	864.542	697.763
342.475	27.035	863.908	697.007
343.489	26.741	863.226	695.265
344.504	26.713	863.086	694.985
345.519	26.878	862.715	695.258
346.533	27.234	862.383	696.290
347.548	27.285	861.802	695.955
348.562	27.260	861.264	695.365
349.577	27.144	860.942	694.601
350.592	27.070	860.471	693.874
351.606	26.973	859.692	692.817
352.621	27.062	858.762	692.342
353.635	26.953	858.402	691.576
354.650	26.967	857.961	691.214
355.665	26.582	857.013	688.924
356.679	25.502	855.150	683.263
357.694	25.432	854.595	682.492
358.708	26.037	854.745	684.851
359.723	26.057	853.950	684.229
360.738	26.183	853.566	684.338
361.752	26.642	853.592	686.035
362.767	26.847	853.540	686.709
363.781	26.915	853.571	686.934
364.796	27.359	853.359	688.381
365.810	27.326	853.145	688.022
366.825	27.485	852.406	687.968
367.840	27.450	852.101	687.526
368.854	27.352	851.249	686.410
369.869	26.904	850.513	684.065
370.883	26.809	849.761	683.044
371.898	26.771	849.173	682.366
372.913	26.768	848.431	681.700
373.927	26.758	847.631	680.957
374.942	26.892	847.258	681.104
375.956	27.071	846.642	681.219
376.971	27.155	845.903	680.879
377.986	27.257	845.431	680.819
379.000	27.492	845.274	681.513
380.015	27.461	844.757	680.921
381.029	27.308	843.862	679.567
382.044	27.213	843.310	678.705
383.059	27.412	842.980	679.124
384.073	27.354	842.544	678.495
385.088	27.602	841.807	678.766
386.102	27.402	841.639	677.825
387.117	27.180	840.661	676.153
388.132	27.048	840.178	675.213
389.146	26.991	839.348	674.276
390.161	26.577	838.207	671.762
391.175	26.549	837.965	671.406
392.190	26.958	838.150	673.013
393.205	27.127	837.786	673.285
394.219	26.237	835.576	668.159
395.234	24.595	833.228	660.163
396.248	23.560	832.179	655.450
397.263	24.662	833.251	660.312
398.278	26.570	834.610	668.380
399.292	26.991	834.544	669.821
400.307	26.705	833.699	668.030
401.321	26.686	833.266	667.556
402.336	26.649	833.220	667.323
403.350	27.071	832.747	668.438
404.365	27.482	832.736	669.883
405.380	27.620	832.827	670.403
406.394	28.214	831.818	671.713
407.409	28.214	831.981	671.786
408.423	28.215	831.253	671.142
409.438	28.114	830.590	670.176
410.453	28.168	830.349	670.120
411.467	28.204	830.229	670.097
412.482	28.238	829.374	669.472
413.496	28.207	828.834	668.865
414.511	28.214	828.512	668.569
415.526	28.115	828.317	667.990
416.540	28.293	827.796	668.161
417.555	28.016	827.279	666.676
418.569	27.885	826.330	665.373
419.584	27.670	826.056	664.310
420.599	27.776	825.289	664.021
421.613	98.594	1272.992	1402.132
422.628	85.214	1338.270	1402.245
