DTS Sentinel unit serial number:	SN413079Multiplexer serial number:	ORYXHardware model number:	OX4-SRSoftware version number:	ORYX F/W v4.00 Oryx Data Collector v3.7.2.0data status	okinstallation	princeton_trtdifferential loss correction	single-endedforward channel	channel 3reverse channel	N/Adate	2019/09/18time	23:24:35forward acquisition time	60.00reverse acquisition time	0.00gamma	496.2192k internal	0.2345k external	0.2345temperature offset calibration	0.9989default loss term (dB/km)	0.3790temperature slope calibration	1.0000multiplexer offset coefficient	1.0000multiplexer slope coefficient	1.0000fibre end	0.00T internal ref (°C)	23.75T ext. ref 1 (°C)	0.77T ext. ref 2 (°C)	16.85length (m)	temperature (°C)	Stokes	anti-Stokes-747.200	-8.366	-0.332	0.224
-746.185	705.524	-0.036	0.094
-745.171	179.651	-0.099	-0.145
-744.156	23.532	0.292	0.240
-743.142	-166.959	-0.132	-0.005
-742.127	-175.695	-0.167	0.005
-741.112	-109.114	-0.208	-0.044
-740.098	-45.354	0.118	0.059
-739.083	-165.514	-0.273	-0.012
-738.069	133.096	-0.135	0.175
-737.054	-105.312	-0.119	0.027
-736.039	-82.101	-0.139	-0.045
-735.025	411.698	0.210	0.446
-734.010	12.073	-0.079	0.061
-732.996	-92.508	-0.328	-0.092
-731.981	494.264	0.149	0.342
-730.966	-134.590	-0.358	-0.044
-729.952	381.489	0.026	0.054
-728.937	384.397	-0.077	-0.159
-727.923	-70.865	0.195	-0.073
-726.908	-39.537	0.278	0.146
-725.894	-134.225	-0.150	0.018
-724.879	-139.645	-0.245	0.026
-723.864	51.678	-0.019	0.018
-722.850	-200.000	0.014	0.289
-721.835	-82.203	-0.245	-0.080
-720.821	576.811	-0.115	-0.281
-719.806	74.179	-0.057	-0.060
-718.791	246.078	-0.209	-0.352
-717.777	142.870	-0.141	-0.188
-716.762	-186.786	-0.453	0.006
-715.748	-22.883	-0.027	-0.016
-714.733	-200.000	-0.051	-0.258
-713.718	141.242	-0.020	0.026
-712.704	-70.407	-0.127	-0.048
-711.689	-200.000	0.050	0.338
-710.675	149.828	-0.072	0.097
-709.660	-129.015	-0.115	0.016
-708.645	303.970	-0.137	-0.254
-707.631	-156.665	0.299	0.018
-706.616	-2.145	0.155	-0.109
-705.602	-130.297	0.396	0.054
-704.587	-200.000	-0.024	0.187
-703.572	-92.568	-0.117	-0.033
-702.558	313.963	-0.108	-0.204
-701.543	-134.965	0.309	0.037
-700.529	-15.409	-0.292	-0.186
-699.514	357.654	0.096	0.191
-698.499	64.720	0.095	-0.096
-697.485	-9.968	0.116	0.077
-696.470	-7.320	0.124	0.084
-695.456	157.486	0.085	-0.118
-694.441	-200.000	-0.007	0.164
-693.426	-123.946	-0.189	0.030
-692.412	-200.000	0.051	-0.348
-691.397	-51.701	0.146	-0.068
-690.383	-200.000	-0.203	-0.000
-689.368	-200.000	-0.010	-0.253
-688.354	2.794	0.076	-0.055
-687.339	-200.000	0.004	-0.137
-686.324	434.947	-0.135	0.292
-685.310	199.546	-0.293	-0.449
-684.295	476.479	0.089	-0.202
-683.281	-200.000	0.027	0.293
-682.266	-102.996	-0.270	-0.064
-681.251	800.000	-0.058	0.202
-680.237	-158.780	-0.503	-0.029
-679.222	800.000	0.042	-0.164
-678.208	8.622	-0.171	0.128
-677.193	-83.242	-0.185	-0.059
-676.178	72.075	0.207	-0.215
-675.164	582.434	-0.038	-0.093
-674.149	784.227	-0.084	-0.228
-673.135	104.249	-0.043	0.051
-672.120	242.534	0.137	0.228
-671.105	152.895	0.068	0.093
-670.091	800.000	0.058	0.211
-669.076	800.000	-0.035	-0.118
-668.062	599.231	0.076	-0.188
-667.047	231.547	-0.045	-0.074
-666.032	260.161	-0.118	-0.204
-665.018	-200.000	0.033	-0.272
-664.003	-23.514	0.216	0.129
-662.989	-42.540	-0.162	-0.082
-661.974	412.635	-0.081	-0.172
-660.959	800.000	-0.128	-0.383
-659.945	-200.000	0.037	0.310
-658.930	-200.000	-0.006	0.137
-657.916	-163.258	-0.232	0.011
-656.901	607.180	-0.063	0.156
-655.886	-114.356	0.244	-0.047
-654.872	-200.000	-0.008	-0.045
-653.857	165.265	-0.074	0.105
-652.843	-39.552	0.125	0.065
-651.828	71.738	-0.245	-0.254
-650.814	800.000	0.034	-0.104
-649.799	-132.657	-0.236	-0.030
-648.784	26.773	-0.186	-0.156
-647.770	-101.334	-0.311	0.076
-646.755	1.210	-0.160	-0.115
-645.741	-114.440	0.095	-0.018
-644.726	-23.531	-0.172	-0.103
-643.711	-167.448	-0.146	-0.006
-642.697	-3.727	-0.210	-0.146
-641.682	-36.331	-0.070	-0.038
-640.668	273.440	-0.113	-0.199
-639.653	8.874	0.265	0.199
-638.638	-155.177	0.050	-0.003
-637.624	-23.016	0.117	0.070
-636.609	-125.650	0.225	-0.034
-635.595	-200.000	-0.025	-0.151
-634.580	305.078	-0.041	0.075
-633.565	-200.000	-0.007	-0.168
-632.551	-31.527	0.119	-0.067
-631.536	233.859	0.134	0.220
-630.522	800.000	0.050	0.185
-629.507	-106.057	-0.094	0.021
-628.492	-200.000	-0.003	0.093
-627.478	-115.977	0.379	-0.070
-626.463	12.236	0.225	-0.172
-625.449	-200.000	0.007	-0.157
-624.434	-0.093	0.141	-0.100
-623.419	-200.000	0.022	-0.567
-622.405	38.311	0.100	0.089
-621.390	-127.072	-0.392	0.057
-620.376	-185.503	0.173	-0.003
-619.361	179.089	-0.170	0.248
-618.346	408.030	0.079	0.167
-617.332	42.105	-0.110	-0.100
-616.317	689.097	-0.012	-0.032
-615.303	-200.000	0.000	-0.107
-614.288	20.492	-0.133	0.107
-613.273	-44.814	-0.170	0.085
-612.259	-49.193	0.196	0.093
-611.244	8.691	-0.119	-0.089
-610.230	-120.549	-0.214	-0.036
-609.215	-34.459	0.113	-0.062
-608.201	-89.903	0.374	-0.109
-607.186	49.657	0.052	0.049
-606.171	317.900	-0.038	-0.071
-605.157	-53.368	-0.299	-0.136
-604.142	-50.998	-0.073	-0.034
-603.128	702.731	0.100	-0.262
-602.113	-200.000	-0.014	0.151
-601.098	-74.605	0.099	-0.035
-600.084	-110.550	-0.107	0.022
-599.069	-58.164	-0.138	0.060
-598.055	-37.663	-0.121	0.064
-597.040	-19.693	-0.220	0.135
-596.025	39.033	-0.234	0.208
-595.011	-3.949	-0.083	0.057
-593.996	-200.000	-0.023	0.108
-592.982	-30.143	-0.130	-0.074
-591.967	-200.000	0.040	0.391
-590.952	-65.616	0.474	-0.189
-589.938	208.819	-0.067	0.104
-588.923	218.059	-0.225	-0.357
-587.909	-22.884	-0.295	-0.177
-586.894	79.154	0.186	-0.198
-585.879	10.718	-0.084	0.064
-584.865	52.529	-0.121	-0.115
-583.850	-175.612	-0.477	0.013
-582.836	-135.195	0.252	-0.030
-581.821	-1.621	-0.099	-0.069
-580.806	-157.737	0.084	-0.005
-579.792	117.675	0.256	-0.314
-578.777	-200.000	-0.014	0.149
-577.763	52.320	-0.129	-0.122
-576.748	-61.310	0.130	0.055
-575.733	225.326	0.041	0.066
-574.719	171.893	-0.061	-0.087
-573.704	-10.942	-0.049	0.032
-572.690	-114.405	-0.097	-0.019
-571.675	399.862	-0.035	-0.073
-570.661	96.350	0.393	0.447
-569.646	-85.141	-0.386	-0.120
-568.631	-200.000	0.029	-0.240
-567.617	-111.055	-0.076	0.015
-566.602	-88.859	-0.417	-0.123
-565.588	427.397	-0.133	0.285
-564.573	-127.856	-0.292	0.042
-563.558	-2.674	-0.064	-0.045
-562.544	99.669	0.168	0.194
-561.529	-57.245	-0.278	0.121
-560.515	-61.062	0.307	-0.129
-559.500	-7.231	0.189	0.127
-558.485	694.056	-0.116	0.303
-557.471	731.241	-0.074	-0.196
-556.456	-18.681	0.194	-0.120
-555.442	77.870	-0.165	-0.175
-554.427	149.022	-0.147	0.198
-553.412	6.530	-0.092	0.068
-552.398	38.160	-0.159	-0.140
-551.383	-36.135	0.041	0.022
-550.369	441.482	0.136	0.294
-549.354	-82.623	-0.113	-0.036
-548.339	-74.910	-0.077	-0.028
-547.325	-108.720	0.109	-0.023
-546.310	-200.000	0.020	0.109
-545.296	-99.046	0.343	0.086
-544.281	-91.200	-0.154	-0.044
-543.266	-187.389	0.137	0.002
-542.252	800.000	0.063	0.272
-541.237	-62.409	0.255	-0.105
-540.223	-136.957	-0.311	-0.035
-539.208	126.730	0.175	0.220
-538.193	105.359	-0.097	-0.114
-537.179	-160.902	-0.415	0.022
-536.164	67.191	0.152	0.154
-535.150	193.866	-0.152	-0.229
-534.135	-200.000	-0.011	-0.085
-533.121	136.728	-0.167	0.216
-532.106	-100.789	-0.244	-0.060
-531.091	-200.000	0.012	-0.175
-530.077	-165.831	-0.048	0.002
-529.062	-30.353	-0.109	-0.061
-528.048	127.261	-0.037	0.047
-527.033	-16.040	-0.365	-0.230
-526.018	-200.000	-0.010	-0.146
-525.004	-200.000	-0.025	0.164
-523.989	381.681	0.158	0.323
-522.975	800.000	0.051	-0.197
-521.960	-106.218	0.179	-0.040
-520.945	-88.015	0.072	0.021
-519.931	-114.968	0.388	-0.073
-518.916	-61.248	0.225	-0.094
-517.902	45.606	0.093	0.086
-516.887	78.944	0.221	0.235
-515.872	-58.192	-0.380	0.164
-514.858	-27.606	0.112	0.064
-513.843	286.258	0.178	-0.318
-512.829	-137.814	-0.319	0.035
-511.814	299.876	-0.072	0.131
-510.799	593.271	-0.154	-0.378
-509.785	23.698	0.091	0.075
-508.770	-132.412	0.021	-0.003
-507.756	-53.453	-0.192	0.087
-506.741	733.621	0.091	-0.241
-505.726	52.137	-0.111	-0.105
-504.712	16.522	0.311	0.244
-503.697	166.087	0.222	0.312
-502.683	-129.669	0.319	0.044
-501.668	491.172	-0.057	0.129
-500.653	-96.028	0.063	-0.017
-499.639	114.861	-0.184	0.223
-498.624	-200.000	0.010	0.281
-497.610	-123.288	-0.037	0.006
-496.595	-26.359	-0.224	0.130
-495.581	-177.512	0.237	0.006
-494.566	-200.000	-0.019	0.151
-493.551	-6.172	0.113	-0.077
-492.537	800.000	-0.054	-0.197
-491.522	-94.750	0.520	-0.140
-490.508	39.584	-0.074	-0.066
-489.493	-15.786	0.187	0.118
-488.478	800.000	-0.073	0.308
-487.464	180.762	-0.116	-0.169
-486.449	-138.965	-0.181	-0.019
-485.435	0.536	-0.179	-0.127
-484.420	-107.069	0.340	0.074
-483.405	-200.000	0.219	-0.001
-482.391	-9.361	0.064	-0.042
-481.376	160.199	0.168	0.232
-480.362	-110.513	0.091	0.019
-479.347	13.381	-0.046	0.035
-478.332	383.057	-0.121	0.247
-477.318	43.800	0.093	0.085
-476.303	8.729	-0.187	0.139
-475.289	-122.882	0.221	-0.035
-474.274	-200.000	-0.037	-0.200
-473.259	800.000	0.052	-0.143
-472.245	-104.678	-0.156	0.036
-471.230	-59.793	0.170	-0.072
-470.216	-52.872	-0.133	-0.061
-469.201	-200.000	-0.012	-0.075
-468.186	19.807	-0.073	-0.058
-467.172	313.858	-0.101	0.188
-466.157	-104.462	-0.023	-0.005
-465.143	288.830	-0.133	0.238
-464.128	57.448	0.110	-0.106
-463.113	-15.423	0.143	-0.090
-462.099	-2.404	0.079	-0.055
-461.084	-200.000	0.048	0.289
-460.070	-63.812	-0.337	0.137
-459.055	800.000	-0.050	0.173
-458.040	357.737	0.148	0.293
-457.026	-93.209	-0.211	0.058
-456.011	680.444	0.100	-0.259
-454.997	90.170	-0.135	-0.150
-453.982	-200.000	0.023	0.243
-452.968	-167.515	-0.281	0.011
-451.953	-123.675	-0.122	0.019
-450.938	-178.437	0.121	0.003
-449.924	800.000	0.093	-0.354
-448.909	-200.000	-0.046	0.376
-447.895	77.111	-0.114	-0.120
-446.880	-103.104	-0.228	-0.053
-445.865	-2.147	-0.130	0.090
-444.851	51.323	-0.168	-0.158
-443.836	-23.723	-0.070	-0.041
-442.822	-3.907	0.046	0.032
-441.807	77.244	0.157	-0.165
-440.792	-200.000	0.014	-0.151
-439.778	499.858	0.281	-0.641
-438.763	-18.126	0.058	0.036
-437.749	12.158	0.240	-0.182
-436.734	800.000	0.091	-0.250
-435.719	-28.323	-0.310	-0.177
-434.705	10.624	0.163	0.123
-433.690	-135.874	0.124	0.014
-432.676	108.834	0.179	0.211
-431.661	-200.000	-0.042	0.201
-430.646	235.411	-0.168	-0.275
-429.632	47.487	-0.180	0.166
-428.617	-200.000	0.027	0.126
-427.603	-200.000	0.015	-0.133
-426.588	194.232	-0.102	0.153
-425.573	-96.313	0.298	0.078
-424.559	-200.000	0.019	-0.132
-423.544	276.405	-0.147	0.258
-422.530	-56.665	-0.237	-0.104
-421.515	344.711	0.082	0.159
-420.500	-149.039	0.135	-0.011
-419.486	-38.199	0.178	-0.093
-418.471	116.097	-0.155	0.188
-417.457	-200.000	0.032	-0.163
-416.442	224.909	-0.115	0.183
-415.428	204.827	0.032	-0.049
-414.413	91.629	0.140	0.156
-413.398	68.389	-0.166	0.168
-412.384	800.000	0.106	0.375
-411.369	-165.643	-0.320	0.014
-410.355	800.000	-0.121	-0.423
-409.340	67.517	0.112	-0.113
-408.325	-178.748	0.274	0.006
-407.311	-53.509	-0.168	0.076
-406.296	1.540	0.143	-0.102
-405.282	115.513	0.113	0.136
-404.267	-200.000	-0.013	0.511
-403.252	-180.476	0.194	-0.004
-402.238	-67.969	0.219	0.084
-401.223	-56.389	-0.294	-0.129
-400.209	-200.000	0.005	0.151
-399.194	251.156	0.060	0.101
-398.179	800.000	0.073	-0.227
-397.165	-200.000	-0.011	0.290
-396.150	-200.000	0.365	-0.000
-395.136	-97.268	0.336	-0.087
-394.121	20.790	-0.146	0.117
-393.106	-200.000	0.009	-0.048
-392.092	-129.227	0.382	-0.053
-391.077	800.000	0.058	0.216
-390.063	-144.922	-0.385	0.035
-389.048	-176.211	0.243	0.006
-388.033	96.538	-0.133	0.150
-387.019	-45.083	0.232	0.114
-386.004	44.614	-0.265	-0.241
-384.990	-124.795	0.180	-0.027
-383.975	502.705	0.140	-0.318
-382.960	239.076	0.143	-0.235
-381.946	16.490	-0.045	-0.035
-380.931	-200.000	0.052	0.272
-379.917	168.260	0.186	-0.261
-378.902	263.041	-0.098	0.168
-377.888	119.910	-0.047	-0.058
-376.873	800.000	0.106	0.317
-375.858	-70.709	0.206	0.077
-374.844	-128.584	0.361	0.050
-373.829	12.180	-0.247	-0.187
-372.815	179.326	-0.358	0.516
-371.800	179.185	0.043	0.062
-370.785	-15.447	-0.062	0.039
-369.771	185.601	0.036	0.053
-368.756	128.580	-0.130	-0.164
-367.742	-61.882	0.177	-0.073
-366.727	-200.000	-0.032	-0.246
-365.712	104.293	-0.181	-0.210
-364.698	43.483	0.015	0.014
-363.683	-87.624	-0.364	-0.108
-362.669	-200.000	-0.033	0.196
-361.654	-53.849	0.066	-0.030
-360.639	-122.367	-0.160	-0.026
-359.625	-200.000	-0.020	0.280
-358.610	-52.367	0.127	-0.058
-357.596	-31.099	0.234	0.130
-356.581	-39.045	-0.176	-0.091
-355.566	-200.000	0.025	0.149
-354.552	-53.691	-0.379	0.171
-353.537	800.000	-0.138	-0.454
-352.523	-67.519	0.076	-0.029
-351.508	-200.000	0.054	0.363
-350.493	-2.286	-0.271	-0.187
-349.479	-61.307	0.119	-0.050
-348.464	-200.000	0.037	0.186
-347.450	800.000	-0.003	0.008
-346.435	-79.311	-0.335	-0.112
-345.420	461.047	-0.144	-0.315
-344.406	151.229	0.119	-0.160
-343.391	112.697	-0.160	0.190
-342.377	-66.141	-0.051	-0.020
-341.362	-131.317	-0.377	0.049
-340.348	278.723	0.051	0.089
-339.333	-100.611	-0.127	-0.031
-338.318	208.971	0.107	0.166
-337.304	174.084	-0.068	0.096
-336.289	41.759	-0.394	-0.351
-335.275	262.285	-0.156	-0.267
-334.260	-124.249	0.371	0.057
-333.245	108.242	-0.190	-0.223
-332.231	800.000	0.029	-0.092
-331.216	-192.597	-0.054	-0.000
-330.202	-62.068	0.149	-0.061
-329.187	753.600	0.092	0.245
-328.172	94.242	0.045	0.051
-327.158	-74.734	-0.333	-0.118
-326.143	597.743	0.061	0.149
-325.129	-200.000	0.003	-0.109
-324.114	800.000	-0.020	-0.066
-323.099	-200.000	0.055	-0.303
-322.085	-157.174	-0.186	-0.011
-321.070	62.637	0.313	-0.308
-320.056	-200.000	-0.020	-0.145
-319.041	-200.000	0.068	-0.356
-318.026	61.475	-0.148	0.145
-317.012	-172.929	0.247	0.008
-315.997	435.951	-0.086	-0.183
-314.983	463.523	-0.167	-0.368
-313.968	25.526	0.166	0.136
-312.953	-137.675	-0.081	0.009
-311.939	23.982	-0.172	-0.139
-310.924	-36.072	0.142	-0.075
-309.910	-80.721	-0.052	0.017
-308.895	800.000	-0.064	-0.188
-307.880	-13.281	-0.208	-0.133
-306.866	-98.487	0.102	0.026
-305.851	529.506	0.045	-0.105
-304.837	-109.278	-0.079	0.016
-303.822	361.611	-0.119	-0.235
-302.807	-200.000	-0.169	-0.000
-301.793	-138.024	0.054	-0.006
-300.778	-108.396	0.194	-0.041
-299.764	-89.902	0.355	0.102
-298.749	-108.341	0.095	-0.020
-297.735	112.553	-0.018	0.021
-296.720	-167.955	0.222	0.009
-295.705	-86.766	-0.102	0.031
-294.691	800.000	0.164	-0.539
-293.676	58.222	-0.115	0.111
-292.662	215.763	0.038	0.059
-291.647	-200.000	-0.028	-0.177
-290.632	800.000	-0.126	-0.401
-289.618	-200.000	-0.015	0.192
-288.603	-37.852	-0.105	-0.055
-287.589	-200.000	-0.038	-0.565
-286.574	28.185	-0.088	-0.073
-285.559	557.191	0.088	-0.208
-284.545	87.534	-0.054	-0.058
-283.530	-155.412	-0.215	0.014
-282.516	-200.000	0.007	-0.188
-281.501	173.537	0.174	-0.247
-280.486	-200.000	-0.056	-0.353
-279.472	-87.206	0.361	0.108
-278.457	-200.000	0.104	0.450
-277.443	800.000	0.026	0.078
-276.428	-200.000	0.013	0.134
-275.413	-200.000	-0.018	-0.113
-274.399	127.656	0.133	-0.166
-273.384	-74.181	-0.422	-0.150
-272.370	-200.000	-0.061	-0.435
-271.355	-37.459	0.369	0.193
-270.340	44.876	0.316	0.285
-269.326	164.185	0.099	0.138
-268.311	591.132	-0.170	-0.412
-267.297	84.707	0.280	-0.301
-266.282	-200.000	0.052	0.239
-265.267	352.096	0.127	0.248
-264.253	-200.000	0.033	0.190
-263.238	-141.280	-0.325	0.032
-262.224	-72.938	-0.129	-0.046
-261.209	129.650	-0.117	-0.146
-260.195	60.367	-0.017	-0.016
-259.180	-200.000	-0.052	0.242
-258.165	-58.109	-0.230	0.099
-257.151	46.664	-0.132	-0.121
-256.136	-200.000	0.009	0.224
-255.122	44.984	-0.062	0.056
-254.107	-200.000	0.030	-0.221
-253.092	6.922	-0.024	-0.017
-252.078	61.155	0.187	0.182
-251.063	800.000	-0.051	0.174
-250.049	-200.000	-0.012	0.287
-249.034	-119.073	0.395	0.068
-248.019	82.124	0.063	0.067
-247.005	-200.000	0.030	-0.184
-245.990	-200.000	0.071	0.323
-244.976	-171.522	0.243	0.008
-243.961	7.965	-0.229	-0.168
-242.946	-200.000	-0.002	0.485
-241.932	-1.247	-0.165	0.114
-240.917	-148.939	-0.209	0.017
-239.903	-106.767	-0.117	-0.025
-238.888	260.272	-0.022	0.038
-237.873	590.948	0.076	0.183
-236.859	23.537	0.273	0.221
-235.844	-3.751	-0.285	0.194
-234.830	303.881	0.133	-0.242
-233.815	565.160	-0.086	-0.205
-232.800	181.712	-0.137	0.198
-231.786	87.357	-0.117	0.127
-230.771	8.785	-0.185	0.137
-229.757	-158.663	0.172	-0.010
-228.742	-65.179	-0.250	-0.099
-227.727	-46.780	0.144	0.069
-226.713	-200.000	0.026	-0.133
-225.698	-27.307	0.239	0.136
-224.684	-98.902	-0.288	0.072
-223.669	-146.347	-0.143	0.012
-222.655	-68.857	0.219	0.083
-221.640	547.906	0.114	0.268
-220.625	800.000	0.070	0.231
-219.611	-200.000	-0.030	0.313
-218.596	800.000	0.057	-0.163
-217.582	118.896	0.107	-0.130
-216.567	165.544	0.095	0.131
-215.552	-200.000	-0.017	0.282
-214.538	189.941	0.086	-0.126
-213.523	-86.088	-0.357	-0.108
-212.509	800.000	0.124	-0.451
-211.494	159.951	-0.026	0.036
-210.479	418.013	-0.116	-0.243
-209.465	-200.000	-0.006	-0.501
-208.450	44.011	0.290	-0.260
-207.436	-90.108	0.355	-0.101
-206.421	32.170	0.084	-0.071
-205.406	800.000	0.062	-0.257
-204.392	-119.532	0.299	0.051
-203.377	-103.678	-0.199	-0.046
-202.363	610.266	-0.016	0.039
-201.348	-126.219	0.189	-0.028
-200.333	-127.694	0.359	0.051
-199.319	-200.000	-0.018	0.077
-198.304	-113.864	0.284	-0.054
-197.290	800.000	-0.075	0.264
-196.275	800.000	-0.042	-0.142
-195.260	800.000	0.077	0.255
-194.246	106.486	0.117	0.136
-193.231	800.000	0.081	0.287
-192.217	313.243	0.068	-0.126
-191.202	301.598	0.175	-0.317
-190.187	-27.077	0.280	0.160
-189.173	-96.794	0.197	-0.051
-188.158	216.714	0.138	0.215
-187.144	-176.375	-0.422	-0.011
-186.129	50.470	-0.035	0.032
-185.114	800.000	0.044	-0.148
-184.100	-134.469	0.192	-0.023
-183.085	-74.358	0.235	-0.083
-182.071	101.676	0.151	0.173
-181.056	-37.532	0.254	-0.132
-180.042	800.000	0.074	-0.248
-179.027	-112.983	-0.240	0.046
-178.012	23.536	0.125	0.101
-176.998	405.154	0.249	0.513
-175.983	-83.513	0.080	-0.025
-174.969	-200.000	-0.022	0.106
-173.954	800.000	0.025	-0.104
-172.939	44.380	-0.278	0.249
-171.925	-200.000	-0.016	-0.137
-170.910	-200.000	0.000	0.047
-169.896	122.340	0.126	-0.154
-168.881	-200.000	-0.024	0.324
-167.866	349.892	0.125	0.242
-166.852	-0.878	0.053	-0.037
-165.837	-200.000	-0.016	-0.121
-164.823	-50.000	-0.434	-0.201
-163.808	110.337	-0.241	0.283
-162.793	-93.167	0.256	0.070
-161.779	89.409	-0.126	0.137
-160.764	-147.183	-0.245	-0.020
-159.750	-200.000	0.016	-0.212
-158.735	339.866	0.108	0.205
-157.720	-200.000	-0.045	0.209
-156.706	-42.555	0.362	0.180
-155.691	-75.223	-0.447	0.156
-154.677	11.535	0.129	-0.097
-153.662	-125.819	-0.145	0.021
-152.647	-200.000	0.010	0.081
-151.633	115.243	0.073	-0.087
-150.618	-200.000	0.041	-0.235
-149.604	308.581	0.063	-0.115
-148.589	-85.043	0.094	-0.029
-147.574	20.419	-0.269	-0.212
-146.560	800.000	-0.052	-0.144
-145.545	800.000	-0.046	-0.180
-144.531	711.139	-0.066	0.172
-143.516	-200.000	-0.007	-0.064
-142.502	46.443	0.335	-0.304
-141.487	32.218	0.346	0.292
-140.472	-200.000	0.071	0.324
-139.458	-163.875	-0.242	0.011
-138.443	800.000	0.031	-0.103
-137.429	800.000	-0.060	0.181
-136.414	154.042	0.061	-0.081
-135.399	-200.000	0.009	0.458
-134.385	-151.485	0.212	-0.015
-133.370	251.665	-0.146	0.243
-132.356	143.618	-0.137	0.178
-131.341	-200.000	-0.036	0.444
-130.326	434.353	-0.029	0.061
-129.312	-23.735	0.157	-0.092
-128.297	-200.000	-0.011	-0.070
-127.283	-200.000	-0.059	-0.282
-126.268	-109.716	0.147	-0.030
-125.253	-128.858	-0.314	0.043
-124.239	800.000	-0.063	0.211
-123.224	-200.000	-0.048	-0.280
-122.210	7.665	0.300	0.219
-121.195	-49.407	0.119	0.055
-120.180	-200.000	-0.019	0.364
-119.166	-140.282	-0.072	0.007
-118.151	800.000	-0.050	-0.147
-117.137	-15.464	0.048	-0.030
-116.122	-200.000	0.034	0.157
-115.107	-99.366	0.235	-0.058
-114.093	-84.915	-0.209	0.064
-113.078	-69.186	-0.106	0.040
-112.064	-12.658	0.151	-0.096
-111.049	52.054	0.188	-0.175
-110.034	109.248	-0.141	0.165
-109.020	-84.748	0.325	0.100
-108.005	-43.183	-0.145	0.072
-106.991	100.027	-0.060	-0.068
-105.976	-200.000	-0.014	0.338
-104.962	118.033	0.080	0.096
-103.947	-166.626	-0.211	0.009
-102.932	800.000	0.118	-0.444
-101.918	120.047	0.152	-0.185
-100.903	-200.000	0.032	-0.245
-99.889	516.951	0.054	-0.122
-98.874	-200.000	-0.012	-0.080
-97.859	210.114	-0.170	0.260
-96.845	-60.730	-0.074	-0.031
-95.830	-149.560	0.138	0.011
-94.816	153.337	-0.095	0.126
-93.801	800.000	-0.125	0.370
-92.786	-200.000	-0.047	-0.334
-91.772	57.337	-0.267	0.254
-90.757	-55.665	0.230	0.100
-89.743	-28.342	-0.311	0.175
-88.728	-200.000	-0.007	0.147
-87.713	800.000	0.062	0.262
-86.699	-25.277	-0.176	-0.102
-85.684	800.000	-0.090	-0.367
-84.670	-53.889	-0.150	-0.067
-83.655	800.000	0.083	0.257
-82.640	44.436	-0.170	0.152
-81.626	-200.000	-0.014	0.237
-80.611	-98.752	-0.157	0.039
-79.597	-57.569	0.293	0.125
-78.582	-200.000	-0.009	0.039
-77.567	243.744	0.042	0.068
-76.553	7.831	0.034	0.025
-75.538	-51.172	-0.115	-0.052
-74.524	-60.880	0.033	0.014
-73.509	-26.027	-0.088	-0.051
-72.494	326.145	0.162	0.303
-71.480	-29.834	-0.173	0.096
-70.465	-128.277	0.437	0.061
-69.451	-57.823	0.339	-0.144
-68.436	322.965	-0.069	0.127
-67.422	132.437	0.126	-0.159
-66.407	-47.578	0.243	-0.115
-65.392	-101.319	-0.078	0.019
-64.378	273.698	-0.097	0.167
-63.363	800.000	0.035	0.127
-62.349	800.000	-0.088	0.337
-61.334	103.312	-0.947	-1.082
-60.319	18.105	1.098	0.853
-59.305	800.000	-0.488	-1.344
-58.290	172.586	0.921	1.292
-57.276	300.561	0.799	1.436
-56.261	-200.000	124.141	668.567
-55.246	437.935	1556.739	3306.233
-54.232	145.852	2709.356	3537.542
-53.217	97.821	2168.607	2428.889
-52.203	34.355	1690.681	1436.726
-51.188	26.716	1509.172	1230.783
-50.173	24.887	1485.336	1199.058
-49.159	49.477	1556.263	1426.239
-48.144	46.537	1568.817	1417.497
-47.130	26.926	1517.932	1239.159
-46.115	24.097	1501.425	1206.498
-45.100	23.777	1498.964	1202.312
-44.086	23.766	1496.914	1200.542
-43.071	23.758	1494.749	1198.703
-42.057	23.803	1492.746	1197.353
-41.042	23.783	1491.676	1196.314
-40.027	23.752	1490.029	1194.740
-39.013	23.670	1488.792	1193.144
-37.998	23.787	1487.399	1192.772
-36.984	23.759	1486.641	1191.925
-35.969	23.688	1485.047	1190.123
-34.954	23.672	1483.492	1188.727
-33.940	23.602	1482.316	1187.265
-32.925	23.785	1480.130	1186.693
-31.911	23.807	1479.680	1186.427
-30.896	23.832	1477.888	1185.112
-29.881	23.788	1476.895	1183.974
-28.867	23.759	1475.579	1182.680
-27.852	23.801	1474.019	1181.665
-26.838	23.882	1472.871	1181.232
-25.823	23.879	1471.113	1179.759
-24.809	23.762	1469.562	1177.693
-23.794	23.751	1468.327	1176.585
-22.779	23.824	1466.852	1175.835
-21.765	23.810	1465.884	1174.920
-20.750	23.811	1464.762	1173.980
-19.736	23.760	1464.237	1173.177
-18.721	23.649	1463.173	1171.548
-17.706	23.711	1462.170	1171.108
-16.692	23.778	1461.071	1170.622
-15.677	23.740	1459.673	1169.203
-14.663	23.719	1458.786	1168.308
-13.648	23.720	1457.986	1167.630
-12.633	23.783	1456.724	1166.986
-11.619	23.764	1456.182	1166.383
-10.604	23.717	1455.410	1165.406
-9.590	23.717	1454.499	1164.629
-8.575	23.782	1452.939	1163.758
-7.560	23.731	1452.397	1162.948
-6.546	23.786	1452.031	1162.967
-5.531	23.707	1451.129	1161.682
-4.517	23.697	1449.895	1160.583
-3.502	23.818	1448.780	1160.432
-2.487	23.846	1447.725	1159.724
-1.473	23.725	1446.953	1158.270
-0.458	23.722	1445.448	1157.001
0.556	22.643	1435.220	1144.794
1.571	19.132	1411.420	1103.252
2.586	15.576	1349.557	1032.974
3.600	13.838	1266.935	959.607
4.615	12.804	1223.762	921.052
5.629	11.175	1167.692	870.080
6.644	5.871	1087.792	784.023
7.659	1.417	1052.476	736.932
8.673	0.849	1047.555	730.680
9.688	0.809	1044.141	728.041
10.702	0.726	1042.718	726.586
11.717	0.686	1040.915	725.071
12.731	2.447	1042.044	734.249
13.746	8.499	1049.429	768.551
14.761	14.653	1057.744	804.309
15.775	17.171	1060.053	818.137
16.790	17.014	1058.957	816.465
17.804	15.889	1057.163	809.603
18.819	15.267	1055.034	804.916
19.834	14.759	1053.632	801.338
20.848	14.559	1052.536	799.473
21.863	14.316	1051.900	797.758
22.877	13.894	1051.268	795.185
23.892	13.758	1050.658	794.002
24.907	13.824	1049.186	793.137
25.921	13.634	1048.768	791.845
26.936	13.700	1047.985	791.496
27.950	13.704	1047.727	791.249
28.965	13.728	1047.112	790.831
29.980	13.867	1045.364	790.100
30.994	13.976	1044.227	789.692
32.009	13.889	1043.729	788.833
33.023	13.804	1043.214	787.971
34.038	13.838	1042.492	787.515
35.053	13.972	1041.498	787.331
36.067	13.862	1040.606	786.066
37.082	13.842	1040.136	785.547
38.096	13.832	1039.122	784.662
39.111	13.945	1038.543	784.693
40.126	13.974	1037.677	784.103
41.140	13.947	1036.563	783.064
42.155	13.801	1035.878	781.791
43.169	13.725	1035.219	780.866
44.184	13.859	1033.651	780.244
45.199	13.784	1032.961	779.303
46.213	13.821	1031.736	778.481
47.228	13.806	1030.762	777.609
48.242	13.797	1030.174	777.052
49.257	13.870	1029.098	776.514
50.271	13.765	1028.067	775.176
51.286	13.770	1027.476	774.689
52.301	14.012	1025.826	774.500
53.315	13.768	1025.681	773.188
54.330	13.828	1024.725	772.679
55.344	13.759	1023.950	771.704
56.359	13.899	1022.598	771.267
57.374	13.892	1022.107	770.796
58.388	13.737	1021.324	769.420
59.403	13.819	1020.345	768.995
60.417	13.841	1019.657	768.507
61.432	13.859	1019.072	768.082
62.447	13.716	1018.222	766.714
63.461	13.729	1017.686	766.304
64.476	13.730	1016.401	765.272
65.490	13.695	1015.496	764.362
66.505	13.658	1015.343	764.009
67.520	13.761	1014.524	763.795
68.534	13.736	1013.697	762.991
69.549	13.805	1012.521	762.358
70.563	13.859	1011.891	762.062
71.578	13.649	1011.754	760.929
72.593	13.650	1010.768	760.122
73.607	13.697	1009.818	759.555
74.622	13.643	1009.010	758.635
75.636	13.760	1007.644	758.076
76.651	13.704	1006.902	757.196
77.666	13.706	1006.510	756.841
78.680	13.679	1005.381	755.801
79.695	13.666	1005.002	755.392
80.709	13.790	1004.552	755.551
81.724	13.759	1003.677	754.686
82.739	13.761	1002.830	753.991
83.753	13.751	1002.630	753.730
84.768	13.815	1001.289	752.944
85.782	13.729	1000.915	752.207
86.797	13.741	1000.080	751.566
87.812	13.846	999.098	751.239
88.826	13.923	998.158	750.814
89.841	13.805	997.790	749.937
90.855	13.760	997.197	749.221
91.870	13.912	995.851	748.829
92.884	13.900	995.371	748.345
93.899	13.831	994.806	747.546
94.914	13.966	993.772	747.308
95.928	14.013	992.768	746.698
96.943	14.006	992.449	746.363
97.957	13.968	991.380	745.321
98.972	13.920	990.589	744.444
99.987	13.881	990.156	743.880
101.001	14.011	988.963	743.502
102.016	14.014	988.059	742.768
103.030	14.048	987.367	742.333
104.045	13.886	986.804	741.123
105.060	13.970	985.841	740.708
106.074	13.932	984.957	739.808
107.089	13.906	984.078	738.965
108.103	13.867	983.422	738.235
109.118	13.895	982.151	737.339
110.133	13.727	981.779	736.249
111.147	13.759	980.942	735.698
112.162	13.873	979.923	735.376
113.176	13.802	978.763	734.124
114.191	14.007	977.805	734.246
115.206	13.958	977.131	733.458
116.220	13.890	976.649	732.733
117.235	13.937	975.477	731.997
118.249	13.841	975.017	731.165
119.264	13.873	974.313	730.714
120.279	13.815	973.339	729.664
121.293	13.882	972.322	729.128
122.308	13.954	971.270	728.594
123.322	13.842	970.545	727.493
124.337	13.925	969.423	726.949
125.352	13.971	968.377	726.305
126.366	13.803	967.560	724.891
127.381	13.825	966.143	723.864
128.395	13.864	965.420	723.426
129.410	13.702	964.820	722.207
130.424	13.794	963.589	721.621
131.439	13.833	962.445	720.873
132.454	13.839	961.972	720.477
133.468	13.922	961.143	720.155
134.483	13.854	960.587	719.379
135.497	13.909	959.880	719.023
136.512	13.923	959.270	718.565
137.527	13.929	958.412	717.882
138.541	13.928	957.562	717.180
139.556	13.959	956.759	716.648
140.570	13.973	956.041	716.107
141.585	13.841	955.382	714.984
142.600	13.982	954.573	714.921
143.614	14.068	954.098	714.873
144.629	14.012	953.430	714.068
145.643	14.069	952.254	713.368
146.658	14.173	951.259	713.005
147.673	14.099	950.425	712.000
148.687	14.041	949.690	711.138
149.702	13.870	948.883	709.738
150.716	13.920	948.247	709.413
151.731	13.960	947.604	709.041
152.746	14.013	946.572	708.433
153.760	14.044	946.081	708.136
154.775	14.129	945.191	707.765
155.789	14.031	944.425	706.714
156.804	14.205	943.435	706.651
157.819	14.111	943.017	705.877
158.833	14.246	941.991	705.615
159.848	14.183	941.373	704.826
160.862	14.227	941.081	704.731
161.877	14.166	940.403	703.903
162.892	14.048	939.492	702.660
163.906	14.147	938.573	702.329
164.921	14.177	937.565	701.637
165.935	13.989	937.147	700.469
166.950	14.087	935.762	699.787
167.964	14.140	934.574	699.060
168.979	14.266	933.689	698.862
169.994	14.222	932.908	698.034
171.008	14.244	932.190	697.525
172.023	14.307	931.091	696.906
173.037	14.349	930.446	696.536
174.052	14.455	929.769	696.410
175.067	14.368	929.341	695.663
176.081	14.235	928.700	694.569
177.096	14.231	927.741	693.774
178.110	14.137	927.294	692.987
179.125	14.178	926.314	692.363
180.140	14.269	925.684	692.211
181.154	14.390	924.642	691.874
182.169	14.286	924.183	691.034
183.183	14.418	923.459	690.982
184.198	14.388	922.853	690.344
185.213	14.609	921.576	690.241
186.227	14.323	921.539	688.968
187.242	14.510	920.861	689.171
188.256	14.478	920.174	688.464
189.271	14.600	919.108	688.110
190.286	14.441	918.411	686.871
191.300	14.425	917.810	686.298
192.315	14.329	917.209	685.392
193.329	14.454	916.580	685.373
194.344	14.288	916.138	684.299
195.359	14.289	915.544	683.801
196.373	14.425	914.714	683.679
197.388	14.561	914.119	683.732
198.402	14.477	913.708	683.019
199.417	14.638	913.529	683.482
200.432	14.735	912.930	683.372
201.446	14.615	912.653	682.614
202.461	14.757	911.898	682.568
203.475	14.678	911.763	682.084
204.490	14.820	910.740	681.840
205.504	14.783	909.589	680.765
206.519	14.808	908.901	680.294
207.534	14.731	908.638	679.722
208.548	14.581	908.178	678.709
209.563	14.721	907.322	678.576
210.577	14.629	906.652	677.643
211.592	14.759	906.161	677.744
212.607	14.862	905.692	677.749
213.621	14.908	904.628	677.079
214.636	14.878	904.127	676.525
215.650	14.814	903.246	675.545
216.665	15.022	902.734	675.941
217.680	14.945	901.920	674.961
218.694	14.899	901.708	674.557
219.709	14.902	901.239	674.162
220.723	14.906	900.714	673.725
221.738	14.928	899.881	673.131
222.753	15.015	898.845	672.644
223.767	15.030	898.035	672.038
224.782	14.985	897.635	671.500
225.796	15.095	896.611	671.115
226.811	15.025	895.998	670.315
227.826	14.943	895.616	669.643
228.840	14.954	895.096	669.241
229.855	15.065	894.615	669.264
230.869	15.115	893.614	668.656
231.884	15.251	892.504	668.308
232.899	15.001	891.954	666.844
233.913	15.121	891.574	666.975
234.928	14.941	891.210	665.929
235.942	15.170	890.123	665.967
236.957	15.055	889.839	665.238
237.972	14.976	889.031	664.262
238.986	14.983	888.201	663.614
240.001	15.129	887.684	663.747
241.015	15.125	887.205	663.313
242.030	15.015	886.656	662.409
243.045	15.211	885.556	662.304
244.059	15.395	884.592	662.249
245.074	15.156	884.408	661.109
246.088	15.234	883.720	660.843
247.103	15.239	883.201	660.419
248.117	15.178	882.570	659.647
249.132	15.394	881.845	659.895
250.147	15.310	881.624	659.342
251.161	15.528	880.546	659.334
252.176	15.369	879.981	658.230
253.190	15.519	879.450	658.360
254.205	15.525	878.728	657.786
255.220	15.530	878.337	657.454
256.234	15.589	877.473	656.980
257.249	15.551	876.784	656.260
258.263	15.431	876.951	655.858
259.278	15.634	875.985	655.869
260.293	15.557	875.380	655.057
261.307	15.685	874.574	654.895
262.322	15.541	874.714	654.379
263.336	15.681	873.681	654.096
264.351	15.857	872.896	654.132
265.366	15.822	872.098	653.339
266.380	15.726	871.706	652.616
267.395	15.793	870.801	652.143
268.409	15.739	870.505	651.651
269.424	15.649	869.600	650.570
270.439	15.666	869.341	650.384
271.453	15.799	868.227	650.006
272.468	15.808	867.261	649.259
273.482	15.807	866.833	648.879
274.497	15.716	866.304	648.076
275.512	15.871	865.465	647.988
276.526	15.757	864.874	647.048
277.541	15.801	864.179	646.638
278.555	15.916	863.728	646.686
279.570	15.963	862.644	645.998
280.585	15.913	862.404	645.569
281.599	15.840	861.665	644.681
282.614	15.991	861.206	644.858
283.628	15.913	860.983	644.335
284.643	16.054	859.949	644.044
285.657	15.988	859.799	643.619
286.672	15.999	859.240	643.187
287.687	15.920	858.811	642.509
288.701	16.213	858.037	642.990
289.716	16.063	857.232	641.758
290.730	16.010	856.938	641.278
291.745	16.153	856.222	641.230
292.760	16.096	855.597	640.489
293.774	16.188	854.633	640.062
294.789	16.191	854.596	639.988
295.803	16.239	853.759	639.485
296.818	16.151	853.185	638.665
297.833	16.270	852.321	638.414
298.847	16.103	851.662	637.231
299.862	16.058	851.360	636.777
300.876	16.233	850.247	636.552
301.891	16.184	849.562	635.798
302.906	16.307	849.333	636.032
303.920	16.306	848.556	635.391
304.935	16.254	848.123	634.816
305.949	16.423	847.399	634.851
306.964	16.380	846.837	634.212
307.979	16.540	845.904	634.057
308.993	16.539	845.572	633.750
310.008	16.383	844.974	632.660
311.022	16.347	844.625	632.210
312.037	16.549	844.121	632.531
313.052	16.401	843.568	631.509
314.066	16.422	842.822	630.972
315.081	16.353	842.128	630.140
316.095	16.476	841.503	630.073
317.110	16.504	840.985	629.734
318.125	16.459	840.421	629.090
319.139	16.583	839.945	629.140
320.154	16.451	839.501	628.260
321.168	16.557	839.191	628.367
322.183	16.533	838.418	627.641
323.197	16.596	838.045	627.540
324.212	16.654	836.990	626.911
325.227	16.462	837.159	626.269
326.241	16.543	836.386	625.938
327.256	16.595	835.563	625.456
328.270	16.609	835.142	625.138
329.285	16.581	834.394	624.419
330.300	16.776	833.750	624.602
331.314	16.570	833.634	623.700
332.329	16.650	832.620	623.182
333.343	16.613	832.270	622.727
334.358	16.687	831.759	622.563
335.373	16.772	831.383	622.538
336.387	16.713	830.694	621.752
337.402	16.775	830.368	621.681
338.416	16.825	829.679	621.292
339.431	16.919	829.110	621.155
340.446	16.878	828.560	620.538
341.460	16.805	828.258	619.991
342.475	16.939	827.305	619.710
343.489	16.855	827.035	619.148
344.504	16.864	826.397	618.648
345.519	16.923	825.871	618.416
346.533	17.008	825.232	618.190
347.548	17.026	824.425	617.597
348.562	17.078	824.150	617.525
349.577	16.882	823.796	616.493
350.592	17.167	822.922	616.821
351.606	16.982	822.864	616.050
352.621	16.878	822.548	615.380
353.635	16.900	821.810	614.853
354.650	17.055	821.205	614.908
355.665	17.053	820.954	614.659
356.679	17.087	820.712	614.547
357.694	16.919	820.191	613.495
358.708	17.012	819.342	613.142
359.723	17.158	818.922	613.300
360.738	17.143	818.114	612.586
361.752	17.073	817.881	612.107
362.767	17.330	817.056	612.359
363.781	17.074	817.001	611.341
364.796	17.290	816.365	611.589
365.810	17.285	815.823	611.112
366.825	17.255	815.792	610.925
367.840	17.335	815.568	610.992
368.854	17.320	815.030	610.482
369.869	17.361	814.531	610.198
370.883	17.460	813.662	609.849
371.898	17.384	813.239	609.208
372.913	17.273	812.879	608.485
373.927	17.345	812.297	608.255
374.942	17.239	811.741	607.403
375.956	17.341	811.030	607.185
376.971	17.441	810.453	607.054
377.986	17.627	809.715	607.111
379.000	17.604	809.211	606.598
380.015	17.541	808.786	606.000
381.029	17.452	808.614	605.500
382.044	17.707	807.630	605.617
383.059	17.595	807.020	604.708
384.073	17.670	806.367	604.433
385.088	17.724	806.138	604.399
386.102	17.732	805.366	603.793
387.117	17.525	804.890	602.653
388.132	17.542	804.759	602.561
389.146	17.578	804.203	602.219
390.161	17.686	803.773	602.226
391.175	17.676	803.520	601.944
392.190	17.734	803.109	601.791
393.205	17.724	802.917	601.557
394.219	17.722	801.999	600.810
395.234	17.443	802.373	600.051
396.248	17.641	801.097	599.742
397.263	17.712	800.470	599.469
398.278	17.571	800.163	598.690
399.292	17.560	800.091	598.545
400.307	17.558	799.762	598.238
401.321	17.783	799.187	598.544
402.336	17.574	798.923	597.562
403.350	17.639	798.315	597.283
404.365	17.804	797.765	597.397
405.380	17.900	797.499	597.480
406.394	17.868	797.056	596.982
407.409	17.861	796.220	596.281
408.423	18.001	796.070	596.603
409.438	17.970	795.471	595.992
410.453	18.071	794.830	595.813
411.467	17.872	794.777	595.027
412.482	18.035	794.154	595.073
413.496	17.871	793.661	594.083
414.511	18.058	793.377	594.467
415.526	18.209	792.994	594.652
416.540	18.141	792.740	594.172
417.555	18.008	792.305	593.333
418.569	18.055	791.640	592.946
419.584	18.178	791.024	592.858
420.599	18.099	791.038	592.541
421.613	115.633	1297.569	1490.190
422.628	99.528	1371.348	1490.276
