DTS Sentinel unit serial number:	SN413079Multiplexer serial number:	ORYXHardware model number:	OX4-SRSoftware version number:	ORYX F/W v4.00 Oryx Data Collector v3.7.2.0data status	okinstallation	princeton_trtdifferential loss correction	single-endedforward channel	channel 3reverse channel	N/Adate	2019/09/15time	06:24:35forward acquisition time	60.00reverse acquisition time	0.00gamma	496.2192k internal	0.2325k external	0.2325temperature offset calibration	0.9976default loss term (dB/km)	0.3790temperature slope calibration	1.0000multiplexer offset coefficient	1.0000multiplexer slope coefficient	1.0000fibre end	0.00T internal ref (°C)	30.50T ext. ref 1 (°C)	4.84T ext. ref 2 (°C)	25.34length (m)	temperature (°C)	Stokes	anti-Stokes-747.200	-187.119	0.171	0.002
-746.185	287.467	-0.054	0.098
-745.171	-186.629	0.103	0.001
-744.156	-61.833	-0.557	0.235
-743.142	800.000	-0.062	-0.191
-742.127	-33.602	-0.172	0.096
-741.112	-200.000	-0.009	-0.099
-740.098	-130.730	-0.359	-0.049
-739.083	-38.690	-0.081	-0.043
-738.069	209.921	-0.117	0.185
-737.054	-80.124	0.023	0.008
-736.039	35.144	-0.158	0.139
-735.025	47.911	0.280	0.264
-734.010	320.837	-0.176	0.337
-732.996	-141.258	-0.178	-0.018
-731.981	-181.248	-0.270	-0.005
-730.966	-7.839	0.079	-0.054
-729.952	-23.909	-0.083	0.050
-728.937	-149.374	0.159	-0.013
-727.923	-151.289	-0.334	-0.025
-726.908	112.000	-0.129	-0.157
-725.894	-106.685	-0.420	-0.094
-724.879	-200.000	-0.003	-0.146
-723.864	-200.000	-0.003	0.240
-722.850	83.068	-0.227	0.249
-721.835	472.213	0.125	0.283
-720.821	-98.263	0.288	-0.075
-719.806	169.459	-0.044	0.063
-718.791	498.463	0.056	-0.129
-717.777	-59.982	-0.241	-0.104
-716.762	800.000	-0.040	-0.166
-715.748	-186.464	0.294	0.004
-714.733	453.902	-0.181	-0.404
-713.718	800.000	0.054	-0.212
-712.704	490.965	0.039	-0.089
-711.689	453.912	-0.204	-0.454
-710.675	-119.918	-0.336	0.058
-709.660	-92.183	0.117	-0.033
-708.645	-143.906	0.169	-0.016
-707.631	-200.000	0.004	-0.137
-706.616	101.374	0.091	0.106
-705.602	800.000	-0.047	-0.172
-704.587	-200.000	0.009	0.077
-703.572	-102.554	0.559	-0.135
-702.558	70.760	-0.033	-0.035
-701.543	-159.327	0.186	0.010
-700.529	1.892	0.139	0.101
-699.514	185.661	-0.134	0.201
-698.499	-5.751	0.305	-0.211
-697.485	-200.000	-0.008	0.057
-696.470	-200.000	0.001	-0.143
-695.456	-36.455	-0.361	0.196
-694.441	-88.708	0.301	0.090
-693.426	522.686	-0.049	-0.116
-692.412	-200.000	0.008	0.257
-691.397	-57.765	0.199	0.088
-690.383	692.689	0.133	-0.352
-689.368	-200.000	-0.018	-0.275
-688.354	742.698	0.110	-0.299
-687.339	-18.621	0.201	-0.126
-686.324	-55.746	-0.236	-0.106
-685.310	800.000	0.010	0.044
-684.295	106.970	-0.272	-0.325
-683.281	525.949	-0.021	0.050
-682.266	-200.000	-0.009	-0.126
-681.251	16.459	0.123	0.098
-680.237	-200.000	-0.088	0.389
-679.222	-200.000	0.011	0.147
-678.208	283.548	-0.035	0.064
-677.193	-84.582	-0.203	0.064
-676.178	800.000	-0.039	0.146
-675.164	-119.456	-0.082	0.014
-674.149	-200.000	-0.007	-0.170
-673.135	136.002	0.088	0.116
-672.120	-10.797	0.224	0.149
-671.105	54.918	0.143	0.139
-670.091	39.194	0.269	0.242
-669.076	800.000	-0.115	-0.340
-668.062	-85.939	0.276	0.086
-667.047	150.826	0.083	-0.114
-666.032	-34.615	0.234	-0.129
-665.018	142.881	-0.142	0.190
-664.003	537.168	-0.035	0.085
-662.989	117.681	0.133	-0.164
-661.974	-130.737	0.408	-0.055
-660.959	-200.000	-0.000	0.062
-659.945	-91.571	0.053	0.015
-658.930	-200.000	0.008	-0.457
-657.916	498.389	-0.099	-0.228
-656.901	-200.000	-0.024	0.187
-655.886	-72.849	-0.211	-0.078
-654.872	-200.000	0.006	-0.031
-653.857	-200.000	0.029	0.163
-652.843	738.524	0.095	0.256
-651.828	800.000	0.031	-0.132
-650.814	-119.626	-0.504	0.088
-649.799	-98.948	-0.070	-0.018
-648.784	-200.000	0.005	0.145
-647.770	402.388	-0.028	0.059
-646.755	-133.831	-0.246	0.031
-645.741	44.894	-0.039	0.036
-644.726	47.622	0.085	-0.080
-643.711	800.000	0.036	0.140
-642.697	114.468	-0.131	0.161
-641.682	-200.000	-0.023	-0.333
-640.668	288.548	0.200	-0.364
-639.653	-146.488	-0.158	-0.014
-638.638	-153.883	-0.083	0.006
-637.624	-32.991	-0.334	-0.187
-636.609	800.000	-0.027	-0.109
-635.595	143.533	0.083	-0.110
-634.580	10.802	-0.162	0.124
-633.565	356.014	0.118	-0.236
-632.551	-137.887	0.357	-0.040
-631.536	-200.000	-0.004	-0.130
-630.522	-55.049	0.253	0.114
-629.507	-30.658	0.326	0.185
-628.492	153.616	0.125	0.172
-627.478	231.888	-0.140	0.230
-626.463	451.227	0.153	-0.340
-625.449	258.596	-0.054	0.094
-624.434	-18.013	-0.159	0.100
-623.419	-71.056	-0.044	0.017
-622.405	2.983	-0.205	-0.150
-621.390	-20.718	0.075	-0.046
-620.376	54.733	-0.084	-0.081
-619.361	539.789	-0.123	-0.295
-618.346	-162.688	0.194	-0.010
-617.332	-200.000	-0.016	-0.320
-616.317	-114.053	-0.075	0.015
-615.303	-200.000	0.035	0.166
-614.288	4.563	-0.072	0.053
-613.273	-200.000	0.014	-0.140
-612.259	-200.000	0.008	0.173
-611.244	250.642	0.084	-0.144
-610.230	72.681	0.238	-0.249
-609.215	157.985	0.243	-0.338
-608.201	-162.046	-0.207	0.010
-607.186	-2.147	0.305	-0.215
-606.171	192.145	-0.107	0.162
-605.157	-107.818	0.195	-0.043
-604.142	128.552	-0.015	-0.019
-603.128	56.446	-0.094	-0.092
-602.113	-67.418	0.062	-0.024
-601.098	800.000	-0.047	-0.183
-600.084	-73.036	0.100	-0.037
-599.069	193.454	0.090	0.136
-598.055	-150.047	0.176	0.014
-597.040	45.894	0.072	0.067
-596.025	-199.732	-0.389	-0.002
-595.011	-71.462	-0.248	0.093
-593.996	-190.647	-0.202	0.002
-592.982	70.530	0.179	0.186
-591.967	800.000	0.071	0.299
-590.952	158.020	-0.131	-0.182
-589.938	-139.126	-0.143	-0.015
-588.923	167.313	-0.175	0.250
-587.909	-109.799	-0.349	-0.073
-586.894	-155.076	0.413	-0.027
-585.879	14.237	0.109	-0.085
-584.865	-11.710	-0.120	-0.079
-583.850	11.851	0.044	-0.034
-582.836	-200.000	0.021	0.149
-581.821	-63.870	-0.190	-0.078
-580.806	92.924	-0.166	-0.188
-579.792	48.622	-0.261	-0.245
-578.777	103.704	0.268	-0.315
-577.763	-194.259	0.153	-0.001
-576.748	244.143	0.126	0.212
-575.733	-31.016	0.134	0.076
-574.719	-104.020	-0.017	0.004
-573.704	267.119	0.059	0.103
-572.690	-114.404	-0.131	0.025
-571.675	-41.933	-0.186	0.096
-570.661	52.744	-0.090	0.086
-569.646	-149.020	-0.166	-0.013
-568.631	-6.117	-0.235	-0.161
-567.617	-50.424	-0.237	0.112
-566.602	-185.834	0.337	0.005
-565.588	6.041	0.122	0.091
-564.573	-136.925	0.170	0.020
-563.558	-110.003	-0.159	0.033
-562.544	-200.000	-0.025	-0.164
-561.529	10.746	-0.116	0.088
-560.515	-200.000	0.036	0.162
-559.500	144.805	0.072	0.096
-558.485	392.833	0.063	-0.132
-557.471	800.000	0.029	-0.115
-556.456	241.230	0.083	0.139
-555.442	-14.960	-0.244	0.157
-554.427	-152.421	-0.109	0.008
-553.412	144.555	0.169	-0.226
-552.398	-77.138	0.264	0.092
-551.383	-167.190	0.137	-0.006
-550.369	83.645	-0.284	-0.310
-549.354	53.633	0.148	-0.142
-548.339	455.190	0.050	-0.110
-547.325	146.694	-0.154	0.207
-546.310	2.412	0.206	-0.149
-545.296	246.989	0.095	-0.160
-544.281	-173.044	-0.154	-0.005
-543.266	800.000	-0.103	-0.324
-542.252	-200.000	-0.018	0.186
-541.237	57.833	-0.141	0.138
-540.223	-200.000	-0.034	-0.316
-539.208	-90.918	-0.108	0.031
-538.193	-54.934	0.080	0.036
-537.179	223.138	0.114	-0.185
-536.164	-200.000	0.035	-0.162
-535.150	-151.426	0.350	-0.026
-534.135	729.421	0.049	-0.130
-533.121	109.479	-0.087	-0.105
-532.106	-58.798	0.262	0.113
-531.091	-124.172	-0.507	-0.080
-530.077	54.689	-0.176	-0.170
-529.062	45.626	0.082	-0.076
-528.048	105.267	0.127	-0.150
-527.033	800.000	0.042	0.138
-526.018	-200.000	-0.020	0.148
-525.004	71.243	0.198	0.205
-523.989	55.027	0.096	0.093
-522.975	134.928	-0.048	0.063
-521.960	305.216	-0.245	0.455
-520.945	298.518	-0.201	0.370
-519.931	-160.564	-0.522	-0.028
-518.916	-62.246	0.037	-0.015
-517.902	243.145	0.094	0.158
-516.887	800.000	0.008	0.031
-515.872	-194.977	0.078	-0.001
-514.858	782.608	0.047	-0.129
-513.843	646.473	0.070	-0.179
-512.829	-46.321	-0.069	0.034
-511.814	800.000	0.072	-0.313
-510.799	800.000	-0.015	0.053
-509.785	-143.663	-0.081	-0.008
-508.770	-200.000	0.025	0.178
-507.756	-200.000	-0.021	-0.252
-506.741	217.401	-0.061	0.097
-505.726	800.000	0.104	0.356
-504.712	-190.010	-0.061	0.001
-503.697	37.976	-0.142	0.126
-502.683	-56.931	0.193	0.085
-501.668	-200.000	-0.068	-0.363
-500.653	117.319	-0.064	-0.079
-499.639	-35.198	0.176	0.096
-498.624	88.866	-0.183	-0.204
-497.610	177.527	-0.200	-0.292
-496.595	71.976	-0.285	0.296
-495.581	-200.000	-0.030	0.160
-494.566	42.980	0.118	-0.108
-493.551	-40.263	-0.244	-0.127
-492.537	541.299	-0.092	-0.218
-491.522	-90.103	-0.152	-0.044
-490.508	18.700	0.196	0.157
-489.493	13.902	-0.124	-0.096
-488.478	-78.592	0.143	-0.049
-487.464	800.000	-0.088	0.259
-486.449	263.590	-0.133	-0.231
-485.435	-36.516	-0.090	0.048
-484.420	-200.000	-0.036	-0.231
-483.405	-200.000	0.011	0.156
-482.391	97.302	0.082	0.095
-481.376	150.011	-0.244	0.331
-480.362	800.000	-0.078	-0.317
-479.347	-21.917	-0.307	0.186
-478.332	-180.967	0.438	-0.009
-477.318	-133.355	0.092	-0.012
-476.303	595.398	-0.138	-0.342
-475.289	201.887	-0.123	0.190
-474.274	-28.003	0.287	-0.166
-473.259	13.324	0.230	0.178
-472.245	-90.888	0.050	0.014
-471.230	-51.373	0.140	-0.066
-470.216	127.670	-0.187	-0.237
-469.201	-172.776	0.219	-0.007
-468.186	82.751	0.059	0.064
-467.172	-99.369	-0.143	0.036
-466.157	612.587	0.114	0.285
-465.143	-77.854	0.415	0.143
-464.128	556.277	0.017	0.041
-463.113	39.548	-0.274	0.245
-462.099	-42.645	0.186	0.094
-461.084	-200.000	-0.015	-0.166
-460.070	-153.136	0.086	0.006
-459.055	-200.000	0.026	0.219
-458.040	800.000	0.081	-0.275
-457.026	-65.620	0.113	-0.045
-456.011	-9.333	-0.100	0.067
-454.997	0.324	0.361	-0.257
-453.982	89.290	0.169	-0.188
-452.968	-173.904	0.171	-0.005
-451.953	65.367	0.025	0.025
-450.938	-89.522	-0.176	-0.052
-449.924	800.000	-0.078	0.245
-448.909	228.868	0.111	-0.180
-447.895	360.651	0.105	0.209
-446.880	420.338	0.056	0.119
-445.865	-140.890	-0.245	-0.025
-444.851	-200.000	0.027	-0.120
-443.836	800.000	-0.108	-0.406
-442.822	800.000	-0.039	0.147
-441.807	-14.018	0.098	0.063
-440.792	-113.948	0.207	0.040
-439.778	37.162	-0.283	0.250
-438.763	299.765	-0.064	-0.117
-437.749	-136.694	0.208	-0.024
-436.734	219.194	-0.182	0.291
-435.719	-19.785	0.091	0.056
-434.705	27.258	-0.182	0.152
-433.690	529.548	-0.073	0.171
-432.676	195.041	0.172	0.261
-431.661	-22.874	0.211	-0.127
-430.646	-200.000	-0.004	-0.081
-429.632	-4.075	-0.163	0.113
-428.617	-90.239	-0.140	0.041
-427.603	-95.445	-0.224	-0.060
-426.588	118.573	-0.209	0.258
-425.573	-200.000	-0.021	0.169
-424.559	78.530	-0.131	-0.140
-423.544	-58.583	-0.086	0.037
-422.530	24.397	-0.235	0.193
-421.515	800.000	-0.040	0.163
-420.500	-7.885	-0.085	0.057
-419.486	-38.481	-0.380	0.200
-418.471	-200.000	0.037	0.456
-417.457	19.953	-0.214	0.172
-416.442	-79.704	0.228	0.077
-415.428	-103.788	0.173	0.040
-414.413	-82.999	-0.213	0.068
-413.398	143.234	0.149	-0.198
-412.384	-200.000	0.007	-0.148
-411.369	-122.437	0.198	-0.032
-410.355	-5.016	0.190	-0.130
-409.340	83.057	0.195	-0.212
-408.325	34.542	-0.247	-0.215
-407.311	188.101	-0.013	-0.020
-406.296	-147.463	-0.291	-0.024
-405.282	-32.362	0.282	0.157
-404.267	188.554	0.107	-0.159
-403.252	-200.000	0.008	-0.108
-402.238	-135.210	-0.024	-0.003
-401.223	55.062	0.081	-0.078
-400.209	-36.855	0.109	-0.058
-399.194	-200.000	0.017	0.399
-398.179	800.000	-0.101	0.392
-397.165	-16.517	-0.128	0.080
-396.150	105.911	0.077	-0.091
-395.136	-200.000	0.014	-0.206
-394.121	-200.000	-0.005	-0.353
-393.106	800.000	0.090	-0.381
-392.092	800.000	0.033	-0.138
-391.077	176.538	0.071	-0.103
-390.063	800.000	0.092	-0.290
-389.048	-36.135	0.119	0.064
-388.033	-6.633	-0.145	0.098
-387.019	436.085	0.109	0.237
-386.004	466.265	0.057	-0.128
-384.990	-47.888	0.172	-0.083
-383.975	-200.000	0.047	-0.291
-382.960	-117.067	-0.238	0.043
-381.946	800.000	0.012	-0.035
-380.931	166.888	-0.110	-0.155
-379.917	-71.114	0.079	-0.029
-378.902	-200.000	0.054	0.361
-377.888	-133.015	0.134	-0.017
-376.873	362.416	-0.116	-0.231
-375.858	17.773	-0.449	-0.355
-374.844	-102.317	0.064	0.015
-373.829	-200.000	-0.017	0.386
-372.815	-66.124	-0.184	-0.073
-371.800	-200.000	0.130	0.000
-370.785	212.650	0.135	0.212
-369.771	-117.900	-0.415	0.074
-368.756	800.000	-0.016	-0.063
-367.742	800.000	0.063	-0.195
-366.727	-200.000	0.018	0.200
-365.712	800.000	-0.027	0.081
-364.698	800.000	0.071	0.256
-363.683	762.398	-0.056	-0.150
-362.669	10.722	0.275	-0.209
-361.654	101.007	0.164	-0.190
-360.639	-200.000	-0.058	-0.364
-359.625	298.683	-0.129	0.236
-358.610	32.385	0.117	-0.100
-357.596	-173.702	0.200	-0.006
-356.581	-113.235	0.143	-0.028
-355.566	-81.528	0.203	-0.066
-354.552	127.323	-0.160	-0.202
-353.537	800.000	-0.099	-0.361
-352.523	151.185	-0.011	-0.015
-351.508	-15.416	0.454	0.288
-350.493	-200.000	-0.015	0.170
-349.479	217.720	-0.223	0.353
-348.464	244.124	0.116	-0.194
-347.450	139.480	0.170	0.222
-346.435	15.732	-0.143	0.112
-345.420	180.004	0.206	0.300
-344.406	-200.000	-0.004	0.120
-343.391	800.000	0.071	0.258
-342.377	589.728	0.153	-0.375
-341.362	261.033	-0.135	-0.231
-340.348	-200.000	0.497	-0.002
-339.333	-200.000	-0.025	-0.150
-338.318	78.579	0.159	-0.169
-337.304	19.938	-0.322	-0.257
-336.289	166.186	0.241	0.338
-335.275	-132.516	0.325	0.042
-334.260	600.240	-0.048	-0.117
-333.245	292.073	-0.141	0.255
-332.231	101.124	0.054	-0.062
-331.216	-98.602	-0.359	-0.091
-330.202	-76.232	-0.020	0.007
-329.187	-60.446	-0.434	0.183
-328.172	85.145	0.302	-0.329
-327.158	-88.206	0.302	0.090
-326.143	-88.815	-0.132	0.039
-325.129	-79.225	0.047	0.016
-324.114	-62.585	0.154	-0.063
-323.099	-84.952	0.388	0.121
-322.085	11.505	0.190	-0.145
-321.070	127.378	0.062	-0.079
-320.056	-199.098	0.155	0.001
-319.041	118.725	-0.153	0.187
-318.026	-198.006	0.136	-0.001
-317.012	-136.350	-0.172	-0.020
-315.997	72.015	0.196	-0.203
-314.983	800.000	0.024	0.076
-313.968	-144.506	-0.450	0.041
-312.953	25.374	-0.021	0.017
-311.939	-88.431	0.311	0.092
-310.924	-142.224	0.228	0.022
-309.910	96.449	0.095	0.108
-308.895	800.000	0.099	-0.361
-307.880	592.192	0.038	-0.092
-306.866	-200.000	-0.054	0.311
-305.851	187.457	-0.227	0.336
-304.837	423.415	0.131	0.279
-303.822	-200.000	0.015	0.103
-302.807	151.001	0.148	0.200
-301.793	800.000	-0.057	-0.227
-300.778	800.000	-0.160	0.488
-299.764	-121.852	0.203	0.033
-298.749	-101.395	-0.159	0.039
-297.735	110.377	0.178	-0.212
-296.720	83.926	-0.077	-0.083
-295.705	5.367	-0.116	0.085
-294.691	-164.772	0.279	-0.012
-293.676	61.170	-0.160	0.158
-292.662	800.000	-0.007	0.026
-291.647	-8.716	-0.026	-0.018
-290.632	-200.000	-0.416	-0.000
-289.618	-72.785	-0.332	0.121
-288.603	226.845	-0.064	0.103
-287.589	-200.000	-0.033	0.298
-286.574	345.316	-0.047	-0.091
-285.559	-200.000	0.084	0.564
-284.545	155.658	-0.132	0.180
-283.530	766.551	-0.026	0.071
-282.516	-200.000	0.014	0.140
-281.501	-70.607	-0.151	-0.056
-280.486	-168.017	-0.540	0.021
-279.472	29.625	0.271	-0.229
-278.457	-69.652	0.162	0.062
-277.443	177.814	-0.074	-0.107
-276.428	180.187	-0.225	-0.327
-275.413	326.800	-0.077	-0.146
-274.399	81.102	-0.163	-0.174
-273.384	-11.592	-0.103	0.067
-272.370	-20.026	-0.345	-0.211
-271.355	-59.713	0.366	0.156
-270.340	-108.474	0.482	-0.103
-269.326	73.648	-0.405	-0.420
-268.311	325.524	0.095	0.180
-267.297	29.578	-0.097	-0.081
-266.282	-132.707	0.198	0.025
-265.267	-58.767	0.150	-0.064
-264.253	54.004	-0.290	-0.276
-263.238	-18.874	-0.196	-0.121
-262.224	310.858	0.159	-0.295
-261.209	-114.149	-0.201	0.038
-260.195	-100.801	0.172	0.042
-259.180	-200.000	-0.000	0.214
-258.165	17.471	-0.035	0.028
-257.151	800.000	-0.018	0.049
-256.136	6.294	0.132	0.097
-255.122	146.647	-0.168	0.223
-254.107	-166.725	-0.141	-0.006
-253.092	-200.000	0.059	0.430
-252.078	800.000	-0.048	0.135
-251.063	15.294	0.212	0.165
-250.049	800.000	0.005	0.019
-249.034	-177.388	-0.124	-0.003
-248.019	211.662	0.037	0.057
-247.005	42.811	-0.221	0.199
-245.990	304.488	0.128	0.234
-244.976	800.000	0.044	0.169
-243.961	356.797	-0.123	-0.242
-242.946	-200.000	-0.007	0.070
-241.932	-200.000	-0.040	0.294
-240.917	-88.343	-0.316	0.094
-239.903	230.986	-0.063	0.102
-238.888	179.978	-0.225	0.326
-237.873	-200.000	0.006	0.126
-236.859	-153.292	0.289	-0.020
-235.844	342.937	-0.056	-0.108
-234.830	-200.000	-0.020	0.174
-233.815	24.263	-0.098	-0.080
-232.800	-139.152	-0.098	-0.010
-231.786	283.256	0.043	0.077
-230.771	800.000	-0.043	0.167
-229.757	-200.000	0.010	-0.110
-228.742	800.000	-0.074	-0.222
-227.727	-83.316	0.121	0.038
-226.713	101.780	0.108	-0.124
-225.698	-82.762	0.369	0.118
-224.684	-200.000	0.006	0.041
-223.669	800.000	-0.005	-0.013
-222.655	-53.649	0.266	0.120
-221.640	100.680	0.093	0.107
-220.625	164.914	-0.164	-0.229
-219.611	-181.223	0.506	0.010
-218.596	127.720	0.054	0.068
-217.582	-142.966	0.293	-0.028
-216.567	452.105	0.102	0.223
-215.552	-200.000	-0.203	0.000
-214.538	-143.986	-0.229	-0.021
-213.523	-22.784	0.171	0.102
-212.509	-55.887	-0.054	0.024
-211.494	-96.964	-0.402	0.104
-210.479	474.558	-0.089	0.198
-209.465	41.665	0.110	0.099
-208.450	145.250	0.215	0.285
-207.436	-142.904	0.193	0.019
-206.421	15.796	0.080	-0.062
-205.406	449.128	0.095	-0.208
-204.392	-39.670	-0.231	-0.119
-203.377	-200.000	-0.012	-0.193
-202.363	22.719	-0.059	0.047
-201.348	66.753	0.115	0.116
-200.333	17.821	0.326	-0.256
-199.319	-150.608	0.112	0.008
-198.304	360.686	-0.156	-0.309
-197.290	-200.000	-0.013	-0.128
-196.275	-200.000	-0.038	-0.296
-195.260	92.452	-0.058	-0.065
-194.246	-59.151	0.170	0.072
-193.231	-200.000	-0.019	-0.387
-192.217	-200.000	-0.041	-0.255
-191.202	800.000	0.158	-0.527
-190.187	-100.701	-0.237	-0.058
-189.173	-111.087	-0.111	0.023
-188.158	-160.042	-0.374	0.020
-187.144	-98.764	0.120	-0.030
-186.129	229.134	0.072	-0.116
-185.114	25.089	0.047	0.039
-184.100	38.563	0.152	0.134
-183.085	679.011	-0.106	-0.271
-182.071	800.000	-0.071	-0.221
-181.056	-200.000	-0.000	0.104
-180.042	-200.000	-0.014	0.351
-179.027	-163.438	0.136	-0.006
-178.012	-115.730	-0.161	-0.030
-176.998	-0.449	0.186	0.131
-175.983	-200.000	-0.003	-0.302
-174.969	-127.838	0.065	0.009
-173.954	-75.380	0.149	0.053
-172.939	-19.346	0.107	0.066
-171.925	-200.000	0.035	0.205
-170.910	-119.159	0.342	-0.059
-169.896	800.000	0.023	0.064
-168.881	312.681	0.145	0.269
-167.866	51.663	-0.191	-0.180
-166.852	-131.335	-0.186	-0.024
-165.837	330.944	-0.135	-0.256
-164.823	224.000	-0.303	0.483
-163.808	-130.317	0.221	0.030
-162.793	-32.049	-0.346	0.191
-161.779	-187.258	0.051	0.001
-160.764	-75.470	-0.096	-0.034
-159.750	13.044	0.029	-0.022
-158.735	800.000	-0.057	-0.229
-157.720	21.073	-0.147	0.117
-156.706	-4.464	-0.107	-0.073
-155.691	51.917	0.098	0.092
-154.677	-11.357	-0.139	0.090
-153.662	36.731	0.224	-0.195
-152.647	-200.000	-0.003	-0.163
-151.633	138.316	0.055	-0.071
-150.618	9.016	0.192	0.143
-149.604	77.485	-0.026	0.027
-148.589	477.063	-0.073	-0.163
-147.574	-182.082	0.187	-0.003
-146.560	-200.000	0.012	-0.326
-145.545	800.000	-0.026	0.097
-144.531	-34.684	-0.369	-0.199
-143.516	9.439	0.417	-0.311
-142.502	657.314	0.124	-0.314
-141.487	-117.667	-0.078	-0.014
-140.472	188.367	0.070	-0.104
-139.458	-80.735	0.252	0.083
-138.443	140.110	-0.197	0.256
-137.429	-171.536	0.030	0.001
-136.414	60.851	-0.081	0.080
-135.399	-200.000	-0.008	0.092
-134.385	20.549	0.152	0.121
-133.370	-26.453	-0.057	-0.033
-132.356	-64.052	0.272	0.109
-131.341	-84.165	0.174	0.054
-130.326	800.000	0.116	-0.383
-129.312	-172.833	-0.364	-0.011
-128.297	147.317	-0.060	0.079
-127.283	34.015	-0.253	-0.217
-126.268	33.700	-0.160	0.137
-125.253	332.446	0.069	-0.132
-124.239	7.758	-0.233	-0.172
-123.224	202.244	0.157	-0.238
-122.210	45.504	-0.041	-0.038
-121.195	-200.000	-0.024	0.367
-120.180	-200.000	0.019	0.237
-119.166	800.000	0.116	-0.479
-118.151	-95.109	-0.412	-0.110
-117.137	-82.454	-0.351	0.112
-116.122	68.423	-0.059	-0.059
-115.107	204.748	-0.033	0.051
-114.093	-200.000	0.016	0.097
-113.078	-167.591	0.262	-0.010
-112.064	185.363	0.134	0.196
-111.049	184.070	0.113	-0.165
-110.034	-141.537	0.333	-0.033
-109.020	-101.270	-0.328	-0.079
-108.005	52.068	0.126	-0.118
-106.991	-200.000	-0.023	-0.282
-105.976	798.285	0.051	-0.138
-104.962	800.000	0.087	-0.318
-103.947	-200.000	0.018	-0.134
-102.932	14.191	-0.161	0.124
-101.918	800.000	-0.068	-0.218
-100.903	-200.000	-0.022	-0.219
-99.889	23.355	-0.169	0.136
-98.874	800.000	0.056	-0.231
-97.859	194.969	0.215	0.322
-96.845	56.824	0.108	0.104
-95.830	-7.112	-0.120	-0.080
-94.816	355.823	0.084	0.165
-93.801	5.650	0.253	0.184
-92.786	146.102	0.265	-0.350
-91.772	-200.000	0.037	-0.186
-90.757	800.000	0.052	0.200
-89.743	-56.367	0.110	-0.048
-88.728	-31.151	0.355	0.197
-87.713	-142.967	0.202	0.019
-86.699	-80.125	0.255	0.084
-85.684	23.268	0.308	0.249
-84.670	101.041	0.094	0.108
-83.655	-200.000	-0.044	-0.195
-82.640	24.097	0.264	-0.214
-81.626	-200.000	0.033	0.148
-80.611	-19.246	0.349	0.213
-79.597	-14.705	0.112	0.071
-78.582	78.850	-0.158	0.166
-77.567	58.147	0.210	0.202
-76.553	-70.657	0.282	0.105
-75.538	607.705	-0.081	-0.198
-74.524	800.000	-0.101	-0.297
-73.509	800.000	0.066	0.227
-72.494	593.512	-0.085	0.207
-71.480	-79.378	-0.093	-0.031
-70.465	800.000	0.042	0.180
-69.451	-72.944	0.317	-0.114
-68.436	220.620	-0.135	0.213
-67.422	711.763	0.088	0.228
-66.407	800.000	-0.080	0.241
-65.392	-128.508	0.081	-0.011
-64.378	-200.000	0.065	0.368
-63.363	-124.551	0.422	-0.064
-62.349	38.115	-0.324	0.283
-61.334	251.176	-0.664	-1.110
-60.319	486.193	0.381	0.854
-59.305	-200.000	-0.092	-1.102
-58.290	237.233	0.584	0.951
-57.276	800.000	0.482	1.474
-56.261	-200.000	103.010	597.582
-55.246	560.157	1439.456	3415.960
-54.232	186.591	2628.037	3844.058
-53.217	116.373	2168.846	2611.375
-52.203	41.255	1696.726	1506.781
-51.188	33.655	1506.231	1286.278
-50.173	31.201	1479.567	1247.084
-49.159	52.495	1532.807	1437.253
-48.144	53.162	1549.812	1457.673
-47.130	33.929	1507.550	1289.058
-46.115	30.797	1492.402	1254.981
-45.100	30.522	1489.351	1250.518
-44.086	30.460	1487.618	1248.591
-43.071	30.528	1484.746	1246.590
-42.057	30.468	1483.358	1244.973
-41.042	30.429	1481.855	1243.400
-40.027	30.416	1481.146	1242.670
-39.013	30.446	1479.026	1241.045
-37.998	30.527	1477.421	1240.184
-36.984	30.495	1476.349	1239.028
-35.969	30.429	1475.061	1237.457
-34.954	30.499	1473.823	1236.834
-33.940	30.483	1472.285	1235.389
-32.925	30.509	1471.108	1234.524
-31.911	30.595	1469.725	1233.887
-30.896	30.614	1468.506	1232.938
-29.881	30.503	1467.870	1231.618
-28.867	30.514	1466.127	1230.178
-27.852	30.570	1464.216	1228.897
-26.838	30.541	1463.393	1227.965
-25.823	30.570	1461.637	1226.640
-24.809	30.576	1459.754	1225.048
-23.794	30.548	1458.772	1223.987
-22.779	30.619	1457.310	1223.181
-21.765	30.544	1456.361	1221.844
-20.750	30.502	1455.877	1221.111
-19.736	30.494	1454.277	1219.672
-18.721	30.485	1453.343	1218.779
-17.706	30.562	1451.846	1217.978
-16.692	30.535	1450.792	1216.870
-15.677	30.580	1449.839	1216.319
-14.663	30.458	1448.898	1214.682
-13.648	30.421	1448.384	1213.962
-12.633	30.445	1447.422	1213.263
-11.619	30.518	1446.446	1212.872
-10.604	30.450	1445.205	1211.339
-9.590	30.475	1444.576	1210.928
-8.575	30.467	1443.747	1210.137
-7.560	30.404	1443.405	1209.386
-6.546	30.485	1441.789	1208.515
-5.531	30.379	1441.364	1207.422
-4.517	30.425	1440.327	1206.803
-3.502	30.367	1439.582	1205.753
-2.487	30.433	1438.523	1205.248
-1.473	30.507	1436.835	1204.262
-0.458	30.494	1435.809	1203.272
0.556	29.237	1426.429	1191.969
1.571	26.404	1402.019	1153.426
2.586	22.956	1345.199	1085.443
3.600	21.420	1265.625	1012.259
4.615	20.123	1219.978	968.418
5.629	17.650	1164.500	911.094
6.644	10.953	1083.328	814.101
7.659	5.619	1045.173	759.543
8.673	4.969	1039.994	752.577
9.688	4.837	1036.642	749.450
10.702	4.790	1035.346	748.218
11.717	4.744	1033.203	746.381
12.731	6.804	1034.844	757.387
13.746	13.283	1043.811	795.134
14.761	18.322	1049.469	823.675
15.775	18.456	1049.025	823.898
16.790	17.411	1046.850	817.100
17.804	16.278	1044.854	810.038
18.819	15.424	1042.892	804.352
19.834	14.915	1041.422	800.715
20.848	14.724	1040.699	799.171
21.863	14.485	1039.658	797.161
22.877	14.244	1038.944	795.389
23.892	14.129	1038.161	794.170
24.907	14.015	1037.655	793.170
25.921	14.014	1036.614	792.300
26.936	14.018	1035.897	791.698
27.950	13.998	1035.165	790.974
28.965	14.030	1034.066	790.219
29.980	14.166	1032.921	789.918
30.994	14.213	1031.567	789.037
32.009	14.409	1030.389	788.993
33.023	14.276	1029.565	787.662
34.038	14.351	1029.054	787.559
35.053	14.270	1028.294	786.523
36.067	14.215	1027.066	785.254
37.082	14.116	1026.361	784.180
38.096	14.240	1025.519	784.050
39.111	14.354	1024.603	783.819
40.126	14.291	1023.897	782.911
41.140	14.232	1022.712	781.659
42.155	13.959	1021.987	779.756
43.169	13.938	1020.873	778.738
44.184	13.910	1019.840	777.752
45.199	13.914	1018.226	776.469
46.213	13.947	1018.069	776.434
47.228	14.119	1016.452	775.937
48.242	14.041	1015.829	775.029
49.257	14.076	1014.971	774.466
50.271	14.158	1014.228	774.213
51.286	14.125	1013.221	773.221
52.301	14.171	1012.224	772.605
53.315	14.128	1011.667	771.914
54.330	14.068	1011.034	771.087
55.344	14.050	1009.687	769.904
56.359	14.051	1008.589	769.004
57.374	14.082	1007.689	768.393
58.388	14.009	1007.329	767.713
59.403	13.906	1006.652	766.656
60.417	14.031	1005.534	766.311
61.432	14.036	1004.889	765.778
62.447	14.024	1003.939	764.929
63.461	13.831	1003.307	763.491
64.476	13.866	1002.350	762.855
65.490	13.909	1001.426	762.286
66.505	13.745	1000.777	760.972
67.520	13.788	999.648	760.240
68.534	13.818	999.441	760.154
69.549	13.963	998.100	759.729
70.563	13.924	997.788	759.249
71.578	13.980	996.584	758.521
72.593	13.819	995.765	757.094
73.607	13.936	995.053	757.019
74.622	13.782	994.262	755.649
75.636	13.821	992.910	754.733
76.651	13.692	992.799	753.993
77.666	13.844	991.911	753.945
78.680	13.911	990.792	753.332
79.695	13.845	990.377	752.650
80.709	13.812	990.117	752.235
81.724	13.855	989.311	751.754
82.739	14.013	988.103	751.482
83.753	13.957	988.158	751.202
84.768	14.123	987.102	751.082
85.782	14.165	986.557	750.794
86.797	14.226	986.197	750.729
87.812	14.210	985.293	749.900
88.826	14.165	984.403	748.954
89.841	14.156	983.236	747.958
90.855	14.281	982.544	747.928
91.870	14.216	981.645	746.888
92.884	14.189	981.201	746.363
93.899	14.222	980.135	745.630
94.914	14.305	979.565	745.502
95.928	14.520	978.482	745.573
96.943	14.325	978.217	744.437
97.957	14.204	977.345	743.168
98.972	14.405	976.023	742.992
99.987	14.227	975.679	741.870
101.001	14.165	975.223	741.182
102.016	14.240	974.130	740.619
103.030	14.168	973.564	739.804
104.045	14.196	972.304	738.905
105.060	14.233	971.703	738.545
106.074	14.259	970.650	737.798
107.089	14.074	969.684	736.177
108.103	13.927	969.250	735.132
109.118	13.975	968.055	734.372
110.133	13.898	967.161	733.290
111.147	13.898	966.566	732.773
112.162	14.045	965.406	732.477
113.176	14.066	964.793	732.041
114.191	14.047	963.551	730.948
115.206	14.065	962.946	730.504
116.220	13.989	962.469	729.745
117.235	14.069	961.449	729.256
118.249	14.099	960.184	728.364
119.264	14.003	959.846	727.625
120.279	14.089	958.918	727.233
121.293	14.062	958.293	726.575
122.308	13.965	957.300	725.338
123.322	14.007	956.905	725.154
124.337	13.994	955.707	724.127
125.352	13.859	954.706	722.715
126.366	13.789	954.114	721.902
127.381	13.993	952.311	721.359
128.395	13.808	951.960	720.224
129.410	13.942	950.303	719.489
130.424	13.973	949.944	719.287
131.439	14.093	948.672	718.777
132.454	14.187	948.175	718.745
133.468	14.030	947.408	717.422
134.483	14.101	946.850	717.241
135.497	14.093	946.263	716.699
136.512	14.053	945.492	715.879
137.527	14.122	944.477	715.347
138.541	14.133	943.789	714.807
139.556	14.022	943.403	713.975
140.570	14.039	942.618	713.390
141.585	14.223	941.624	713.365
142.600	14.256	941.080	713.032
143.614	14.217	940.337	712.236
144.629	14.204	939.579	711.547
145.643	14.248	939.123	711.327
146.658	14.353	938.378	711.146
147.673	14.230	937.335	709.767
148.687	14.117	936.500	708.592
149.702	14.117	935.800	707.998
150.716	14.088	934.578	706.888
151.731	14.189	933.565	706.490
152.746	14.086	933.267	705.765
153.760	14.261	932.253	705.675
154.775	14.236	931.570	704.990
155.789	14.274	930.526	704.301
156.804	14.319	929.899	703.954
157.819	14.319	929.291	703.429
158.833	14.206	929.067	702.721
159.848	14.372	928.225	702.723
160.862	14.476	927.388	702.464
161.877	14.415	926.704	701.628
162.892	14.238	925.619	700.000
163.906	14.239	925.255	699.667
164.921	14.244	923.965	698.649
165.935	14.165	923.676	698.039
166.950	14.241	922.091	697.098
167.964	14.327	921.304	696.800
168.979	14.388	920.267	696.211
169.994	14.322	919.450	695.254
171.008	14.245	918.595	694.224
172.023	14.250	917.971	693.713
173.037	14.362	917.125	693.480
174.052	14.389	916.461	693.028
175.067	14.377	915.671	692.317
176.081	14.391	914.737	691.609
177.096	14.161	914.284	690.250
178.110	14.368	913.163	690.201
179.125	14.242	912.317	688.982
180.140	14.497	911.158	689.099
181.154	14.475	910.976	688.808
182.169	14.468	910.380	688.268
183.183	14.421	909.817	687.586
184.198	14.460	909.078	687.127
185.213	14.408	908.612	686.503
186.227	14.585	908.198	686.856
187.242	14.665	907.638	686.701
188.256	14.648	906.597	685.784
189.271	14.773	905.587	685.472
190.286	14.696	905.248	684.837
191.300	14.546	904.487	683.588
192.315	14.401	903.563	682.234
193.329	14.252	902.727	680.934
194.344	14.280	902.197	680.588
195.359	14.265	901.971	680.296
196.373	14.518	901.154	680.652
197.388	14.574	900.679	680.460
198.402	14.653	900.403	680.516
199.417	14.785	900.012	680.696
200.432	14.741	899.694	680.217
201.446	14.851	899.226	680.250
202.461	14.957	898.585	680.138
203.475	15.001	898.108	679.894
204.490	15.015	897.051	679.091
205.504	14.819	896.425	677.764
206.519	14.709	896.159	677.056
207.534	14.825	894.937	676.541
208.548	14.705	894.665	675.790
209.563	14.795	893.613	675.299
210.577	14.862	892.761	674.866
211.592	14.758	892.452	674.154
212.607	14.832	892.203	674.206
213.621	15.016	891.697	674.504
214.636	15.007	890.744	673.686
215.650	14.939	890.022	672.809
216.665	14.864	889.766	672.255
217.680	14.855	889.351	671.843
218.694	15.012	888.922	672.093
219.709	15.020	888.067	671.416
220.723	15.082	886.960	670.771
221.738	15.090	886.736	670.571
222.753	15.159	885.888	670.148
223.767	15.125	885.194	669.429
224.782	15.120	884.328	668.696
225.796	15.168	883.810	668.435
226.811	15.236	883.015	668.046
227.826	15.262	882.363	667.599
228.840	14.920	882.363	666.177
229.855	14.975	881.728	665.856
230.869	15.143	880.601	665.616
231.884	15.048	880.074	664.779
232.899	14.975	879.451	663.960
233.913	14.981	878.559	663.252
234.928	14.972	877.923	662.678
235.942	14.961	877.211	662.040
236.957	15.000	876.547	661.632
237.972	15.070	875.972	661.418
238.986	15.188	875.099	661.166
240.001	15.148	874.198	660.269
241.015	15.216	873.436	659.903
242.030	15.282	873.097	659.847
243.045	15.268	872.521	659.298
244.059	15.207	872.034	658.632
245.074	15.141	871.485	657.900
246.088	15.120	870.956	657.360
247.103	15.253	870.767	657.682
248.117	15.418	869.789	657.529
249.132	15.481	869.170	657.253
250.147	15.590	868.700	657.264
251.161	15.620	868.093	656.863
252.176	15.585	867.444	656.177
253.190	15.602	866.886	655.763
254.205	15.534	866.248	654.957
255.220	15.808	865.556	655.443
256.234	15.825	864.881	654.941
257.249	15.732	864.811	654.467
258.263	15.612	864.294	653.554
259.278	15.811	863.525	653.685
260.293	15.834	863.092	653.391
261.307	15.800	862.343	652.635
262.322	15.807	861.986	652.333
263.336	15.891	861.209	652.014
264.351	15.965	860.569	651.758
265.366	15.969	859.783	651.118
266.380	15.974	859.352	650.753
267.395	16.001	858.486	650.147
268.409	15.886	857.986	649.264
269.424	15.904	856.838	648.411
270.439	15.795	856.744	647.859
271.453	15.813	856.149	647.423
272.468	15.755	855.560	646.698
273.482	15.800	854.835	646.266
274.497	15.869	853.839	645.718
275.512	15.860	852.983	644.980
276.526	15.887	852.415	644.597
277.541	15.817	851.922	643.900
278.555	15.937	851.593	644.054
279.570	15.799	851.524	643.417
280.585	16.099	850.316	643.592
281.599	16.127	849.771	643.228
282.614	15.981	849.618	642.500
283.628	16.079	848.605	642.049
284.643	15.805	848.326	640.739
285.657	15.958	847.826	640.885
286.672	15.910	847.349	640.288
287.687	16.076	846.237	640.020
288.701	16.013	846.447	639.881
289.716	16.021	845.470	639.117
290.730	16.211	844.912	639.360
291.745	16.188	843.943	638.483
292.760	16.043	843.632	637.644
293.774	16.178	843.366	637.897
294.789	16.223	842.387	637.270
295.803	16.219	842.403	637.208
296.818	16.202	841.352	636.295
297.833	16.077	840.604	635.201
298.847	16.141	840.142	635.035
299.862	16.226	839.331	634.687
300.876	16.238	838.357	633.941
301.891	16.314	837.755	633.712
302.906	16.397	837.101	633.474
303.920	16.395	836.646	633.064
304.935	16.425	836.238	632.812
305.949	16.382	835.912	632.348
306.964	16.446	835.067	631.895
307.979	16.440	834.331	631.257
308.993	16.478	833.900	631.017
310.008	16.597	833.401	631.028
311.022	16.500	832.511	629.936
312.037	16.595	832.105	629.928
313.052	16.367	831.719	628.733
314.066	16.465	830.858	628.391
315.081	16.470	829.853	627.593
316.095	16.421	829.787	627.306
317.110	16.415	829.381	626.919
318.125	16.451	828.661	626.456
319.139	16.261	828.843	625.830
320.154	16.340	827.978	625.415
321.168	16.455	827.177	625.182
322.183	16.567	826.672	625.159
323.197	16.464	826.392	624.510
324.212	16.511	825.512	623.962
325.227	16.456	825.346	623.580
326.241	16.447	824.636	622.956
327.256	16.527	823.829	622.586
328.270	16.522	823.666	622.388
329.285	16.508	823.068	621.831
330.300	16.524	822.574	621.462
331.314	16.485	821.907	620.760
332.329	16.530	821.381	620.473
333.343	16.682	820.573	620.364
334.358	16.777	819.970	620.200
335.373	16.733	819.596	619.702
336.387	16.651	819.089	618.965
337.402	16.820	818.600	619.156
338.416	16.700	817.913	618.143
339.431	16.812	817.557	618.228
340.446	16.853	817.270	618.108
341.460	16.921	816.446	617.677
342.475	17.094	815.494	617.531
343.489	16.947	815.317	616.809
344.504	17.040	815.103	616.930
345.519	17.109	814.392	616.588
346.533	17.077	813.964	616.094
347.548	17.034	813.543	615.563
348.562	17.016	813.108	615.116
349.577	17.047	812.187	614.477
350.592	16.987	811.896	613.985
351.606	16.890	811.096	612.974
352.621	16.826	810.952	612.578
353.635	16.919	810.259	612.337
354.650	16.859	810.113	611.956
355.665	16.975	809.593	611.928
356.679	16.914	809.224	611.374
357.694	17.035	808.930	611.533
358.708	16.958	807.956	610.469
359.723	16.902	807.527	609.888
360.738	16.950	807.527	610.007
361.752	16.998	807.114	609.814
362.767	17.103	805.957	609.263
363.781	17.064	805.957	609.070
364.796	17.253	805.382	609.259
365.810	17.309	804.976	609.096
366.825	17.343	804.985	609.171
367.840	17.308	804.651	608.739
368.854	17.328	804.088	608.333
369.869	17.412	803.284	607.971
370.883	17.465	802.467	607.486
371.898	17.437	802.043	607.013
372.913	17.373	801.688	606.462
373.927	17.416	800.839	605.918
374.942	17.464	800.063	605.447
375.956	17.485	799.655	605.161
376.971	17.548	798.997	604.833
377.986	17.548	798.252	604.214
379.000	17.606	798.374	604.462
380.015	17.651	798.034	604.311
381.029	17.544	797.372	603.374
382.044	17.675	796.619	603.216
383.059	17.636	796.072	602.610
384.073	17.598	795.673	602.121
385.088	17.397	795.510	601.232
386.102	17.538	794.629	601.011
387.117	17.538	793.784	600.320
388.132	17.406	793.777	599.798
389.146	17.438	793.175	599.400
390.161	17.469	792.725	599.117
391.175	17.653	792.185	599.304
392.190	17.728	792.009	599.381
393.205	17.713	791.525	598.908
394.219	17.805	790.869	598.683
395.234	17.634	790.657	597.869
396.248	17.616	789.958	597.223
397.263	17.492	789.366	596.289
398.278	17.534	789.082	596.169
399.292	17.431	788.861	595.590
400.307	17.407	788.514	595.189
401.321	17.645	787.680	595.338
402.336	17.522	787.397	594.642
403.350	17.565	786.989	594.431
404.365	17.631	787.103	594.697
405.380	17.634	786.559	594.243
406.394	17.685	785.883	593.859
407.409	17.806	785.236	593.735
408.423	17.814	785.177	593.670
409.438	17.914	784.536	593.480
410.453	18.033	783.863	593.332
411.467	17.976	783.581	592.868
412.482	18.015	783.315	592.748
413.496	18.040	782.917	592.483
414.511	18.122	782.295	592.242
415.526	18.076	782.104	591.886
416.540	18.007	781.891	591.433
417.555	18.136	781.067	591.204
418.569	18.091	780.662	590.688
419.584	18.069	780.330	590.310
420.599	18.103	779.885	590.039
421.613	157.202	1369.448	1796.869
422.628	135.683	1455.352	1796.975
