DTS Sentinel unit serial number:	SN413079Multiplexer serial number:	ORYXHardware model number:	OX4-SRSoftware version number:	ORYX F/W v4.00 Oryx Data Collector v3.7.2.0data status	okinstallation	princeton_trtdifferential loss correction	single-endedforward channel	channel 3reverse channel	N/Adate	2019/09/17time	09:40:35forward acquisition time	60.00reverse acquisition time	0.00gamma	496.2192k internal	0.2324k external	0.2324temperature offset calibration	0.9941default loss term (dB/km)	0.3790temperature slope calibration	1.0000multiplexer offset coefficient	1.0000multiplexer slope coefficient	1.0000fibre end	0.00T internal ref (°C)	29.23T ext. ref 1 (°C)	0.16T ext. ref 2 (°C)	25.41length (m)	temperature (°C)	Stokes	anti-Stokes-747.200	105.523	0.276	-0.330
-746.185	-200.000	0.004	-0.201
-745.171	-200.000	-0.006	0.115
-744.156	172.697	0.054	0.079
-743.142	-51.027	0.074	-0.035
-742.127	-118.444	0.182	0.033
-741.112	-22.602	0.263	-0.160
-740.098	-35.337	-0.107	0.059
-739.083	165.605	0.084	-0.120
-738.069	800.000	-0.016	0.053
-737.054	-37.028	0.504	-0.273
-736.039	68.702	-0.132	0.136
-735.025	-200.000	0.073	0.401
-734.010	-191.768	-0.327	-0.003
-732.996	-137.419	-0.384	-0.044
-731.981	800.000	0.102	-0.302
-730.966	-200.000	-0.233	-0.001
-729.952	227.528	-0.103	0.169
-728.937	188.958	0.134	-0.202
-727.923	-200.000	-0.068	0.000
-726.908	61.921	-0.160	-0.161
-725.894	149.525	0.179	-0.245
-724.879	386.049	-0.233	-0.484
-723.864	800.000	-0.115	0.417
-722.850	1.238	0.120	0.087
-721.835	-65.752	-0.336	0.136
-720.821	-7.195	0.125	0.085
-719.806	281.194	-0.094	-0.170
-718.791	-75.695	-0.173	0.062
-717.777	-54.794	0.284	-0.129
-716.762	800.000	-0.069	0.265
-715.748	154.319	-0.079	-0.110
-714.733	800.000	-0.027	-0.098
-713.718	102.752	-0.252	0.297
-712.704	4.389	0.268	0.198
-711.689	139.640	-0.132	-0.175
-710.675	-200.000	0.009	0.106
-709.660	800.000	0.127	0.557
-708.645	-200.000	-0.059	-0.312
-707.631	-200.000	0.020	-0.335
-706.616	800.000	0.035	0.141
-705.602	-200.000	0.178	0.001
-704.587	43.231	-0.142	-0.131
-703.572	-200.000	0.028	0.148
-702.558	-200.000	-0.021	-0.252
-701.543	51.224	-0.342	-0.327
-700.529	340.372	0.045	-0.088
-699.514	229.899	-0.063	0.104
-698.499	-200.000	0.001	-0.027
-697.485	15.866	0.088	0.070
-696.470	68.443	-0.121	-0.125
-695.456	-61.052	-0.231	0.098
-694.441	800.000	-0.010	0.031
-693.426	-200.000	-0.001	0.089
-692.412	-200.000	-0.022	-0.349
-691.397	800.000	-0.093	0.355
-690.383	80.993	-0.122	0.132
-689.368	205.039	0.192	0.300
-688.354	-128.236	0.125	-0.018
-687.339	119.738	-0.158	0.197
-686.324	-200.000	0.065	0.312
-685.310	107.366	-0.076	-0.091
-684.295	-113.857	-0.128	-0.025
-683.281	-159.031	0.112	0.006
-682.266	-156.896	0.488	0.030
-681.251	25.504	0.135	-0.113
-680.237	363.972	0.082	0.166
-679.222	142.273	0.139	0.186
-678.208	-46.182	-0.048	0.024
-677.193	86.413	-0.095	-0.106
-676.178	-183.603	0.115	0.002
-675.164	66.635	-0.274	0.281
-674.149	798.310	0.054	-0.150
-673.135	800.000	-0.067	-0.265
-672.120	-125.861	-0.345	0.052
-671.105	265.525	-0.235	0.413
-670.091	302.294	0.085	-0.158
-669.076	-80.487	0.345	0.116
-668.062	-178.528	-0.500	0.012
-667.047	436.851	0.102	-0.224
-666.032	-200.000	0.039	-0.180
-665.018	-54.833	0.301	-0.137
-664.003	-89.042	0.083	-0.025
-662.989	-170.205	0.209	0.007
-661.974	765.120	-0.150	0.411
-660.959	800.000	-0.066	0.191
-659.945	94.314	-0.321	-0.367
-658.930	299.247	-0.092	-0.171
-657.916	-32.288	0.270	-0.151
-656.901	-99.067	-0.068	0.017
-655.886	-140.190	-0.210	-0.022
-654.872	-109.951	0.182	-0.038
-653.857	-200.000	0.043	-0.252
-652.843	-32.190	-0.027	-0.015
-651.828	642.496	-0.077	-0.198
-650.814	800.000	-0.047	0.167
-649.799	135.058	0.203	-0.265
-648.784	-158.387	0.195	-0.011
-647.770	-151.559	-0.260	0.019
-646.755	72.441	-0.213	0.224
-645.741	288.919	0.063	0.114
-644.726	90.538	-0.121	-0.136
-643.711	135.039	0.195	-0.254
-642.697	800.000	-0.050	-0.188
-641.682	8.509	0.268	-0.203
-640.668	-200.000	-0.013	-0.161
-639.653	-200.000	0.054	0.239
-638.638	64.567	0.221	-0.224
-637.624	1.354	-0.237	-0.171
-636.609	12.131	0.185	-0.143
-635.595	-178.002	-0.338	-0.008
-634.580	-200.000	-0.030	0.139
-633.565	219.334	-0.109	-0.175
-632.551	-200.000	-0.006	0.159
-631.536	-200.000	0.097	-0.469
-630.522	-91.665	-0.338	-0.097
-629.507	29.515	-0.291	-0.249
-628.492	-180.326	-0.240	-0.005
-627.478	-156.954	0.170	-0.010
-626.463	-200.000	0.013	0.229
-625.449	422.901	-0.089	-0.192
-624.434	-200.000	0.041	-0.194
-623.419	106.915	-0.156	-0.186
-622.405	346.397	0.065	-0.129
-621.390	-200.000	-0.035	-0.186
-620.376	-113.026	0.120	-0.024
-619.361	-68.791	0.121	-0.047
-618.346	-200.000	-0.017	0.206
-617.332	-29.956	-0.102	0.058
-616.317	16.286	-0.164	0.130
-615.303	48.194	-0.320	-0.301
-614.288	-200.000	-0.002	0.275
-613.273	-191.894	-0.099	-0.001
-612.259	177.780	-0.060	0.088
-611.244	0.635	-0.209	-0.150
-610.230	-92.926	-0.282	-0.079
-609.215	-95.370	-0.070	-0.019
-608.201	-69.705	0.189	-0.073
-607.186	106.986	-0.127	0.151
-606.171	-43.638	-0.207	0.105
-605.157	-200.000	-0.003	0.273
-604.142	163.488	0.118	-0.167
-603.128	141.851	-0.275	-0.366
-602.113	58.509	-0.206	-0.203
-601.098	-121.221	-0.422	0.071
-600.084	115.578	-0.104	0.127
-599.069	63.676	0.223	0.225
-598.055	581.956	-0.099	-0.244
-597.040	200.676	0.036	-0.056
-596.025	326.299	-0.077	-0.149
-595.011	-200.000	-0.002	-0.023
-593.996	66.814	-0.134	-0.137
-592.982	91.649	-0.107	-0.121
-591.967	800.000	-0.147	-0.491
-590.952	252.513	0.188	-0.322
-589.938	68.675	0.206	-0.212
-588.923	63.634	-0.113	0.114
-587.909	361.724	-0.124	-0.250
-586.894	740.209	-0.042	0.113
-585.879	144.466	0.019	0.025
-584.865	-176.258	0.337	-0.009
-583.850	82.008	0.116	-0.126
-582.836	-172.894	0.116	0.004
-581.821	117.174	0.121	0.149
-580.806	-29.295	-0.065	0.037
-579.792	-200.000	-0.013	-0.139
-578.777	-200.000	0.010	0.180
-577.763	800.000	0.067	-0.188
-576.748	-155.509	0.443	-0.029
-575.733	94.986	0.103	0.118
-574.719	-84.880	-0.207	-0.065
-573.704	-126.568	0.024	0.004
-572.690	151.023	-0.118	0.162
-571.675	85.947	0.049	0.054
-570.661	-143.306	-0.021	-0.002
-569.646	644.714	0.031	-0.079
-568.631	-50.412	-0.047	-0.022
-567.617	-8.458	-0.287	-0.194
-566.602	-200.000	-0.007	0.062
-565.588	-39.986	0.214	0.112
-564.573	2.498	-0.070	0.051
-563.558	99.763	0.209	0.243
-562.544	-129.384	-0.137	0.019
-561.529	-97.982	0.355	-0.092
-560.515	-126.872	0.319	0.047
-559.500	48.319	-0.116	-0.109
-558.485	139.856	0.132	-0.174
-557.471	-200.000	-0.018	0.109
-556.456	-161.073	-0.067	-0.003
-555.442	-101.513	0.348	0.085
-554.427	-4.598	-0.055	-0.038
-553.412	140.033	-0.155	0.205
-552.398	15.362	0.068	-0.053
-551.383	118.738	0.033	0.041
-550.369	-174.744	0.363	0.010
-549.354	-97.641	0.061	-0.016
-548.339	21.665	0.174	0.142
-547.325	-40.632	-0.260	-0.135
-546.310	-200.000	-0.015	-0.156
-545.296	-104.934	-0.111	-0.025
-544.281	-200.000	0.059	-0.301
-543.266	-104.333	0.262	-0.061
-542.252	-124.864	0.205	0.032
-541.237	79.852	0.178	-0.191
-540.223	214.787	0.211	-0.335
-539.208	-139.601	0.165	0.018
-538.193	-3.755	-0.121	0.084
-537.179	-200.000	-0.007	0.426
-536.164	139.446	-0.079	-0.104
-535.150	540.199	-0.049	0.116
-534.135	-13.294	-0.051	0.033
-533.121	-66.329	-0.191	-0.076
-532.106	715.415	0.053	0.141
-531.091	-107.495	0.080	0.018
-530.077	800.000	-0.095	0.341
-529.062	169.269	-0.060	0.086
-528.048	-200.000	-0.047	0.238
-527.033	128.272	-0.255	0.325
-526.018	124.222	-0.138	-0.173
-525.004	217.306	-0.151	0.241
-523.989	-74.804	0.306	-0.110
-522.975	-200.000	0.057	0.296
-521.960	350.875	-0.059	0.117
-520.945	-200.000	-0.013	-0.369
-519.931	11.710	-0.214	0.164
-518.916	800.000	0.074	-0.206
-517.902	71.222	0.130	0.135
-516.887	118.707	-0.222	-0.275
-515.872	-50.249	0.117	0.056
-514.858	800.000	-0.080	0.226
-513.843	-73.194	0.215	0.079
-512.829	-32.654	0.137	-0.076
-511.814	-36.533	0.185	-0.100
-510.799	-200.000	-0.007	-0.063
-509.785	-200.000	-0.039	-0.254
-508.770	-38.404	0.170	-0.090
-507.756	-143.763	-0.345	-0.033
-506.741	135.861	-0.094	0.122
-505.726	-200.000	-0.037	-0.282
-504.712	9.153	-0.244	0.184
-503.697	151.971	0.237	0.323
-502.683	800.000	-0.055	0.227
-501.668	-167.289	0.171	0.007
-500.653	-89.148	-0.056	0.017
-499.639	180.993	-0.126	-0.185
-498.624	800.000	0.098	-0.279
-497.610	800.000	-0.095	-0.372
-496.595	-1.930	-0.180	0.127
-495.581	-36.448	-0.234	-0.126
-494.566	-26.641	0.279	-0.164
-493.551	94.948	-0.193	-0.220
-492.537	-200.000	0.009	0.041
-491.522	-79.435	-0.341	0.115
-490.508	-53.378	0.116	-0.053
-489.493	199.132	0.197	0.302
-488.478	-44.936	0.273	-0.136
-487.464	54.206	0.119	-0.115
-486.449	616.496	-0.055	-0.137
-485.435	99.545	0.072	-0.084
-484.420	-56.881	0.162	-0.071
-483.405	-121.858	-0.091	0.015
-482.391	382.243	-0.111	-0.229
-481.376	-120.252	0.076	-0.013
-480.362	-25.529	-0.190	0.112
-479.347	33.049	-0.085	-0.074
-478.332	-200.000	0.031	-0.275
-477.318	408.865	-0.194	0.410
-476.303	323.250	-0.117	-0.222
-475.289	-21.872	-0.020	0.012
-474.274	-114.929	-0.316	-0.060
-473.259	-200.000	-0.035	0.288
-472.245	-44.767	-0.248	-0.124
-471.230	-200.000	0.037	0.238
-470.216	-5.888	0.194	-0.133
-469.201	-200.000	0.000	0.090
-468.186	51.957	0.235	0.224
-467.172	-200.000	0.015	-0.225
-466.157	-200.000	0.013	-0.082
-465.143	-200.000	0.094	0.474
-464.128	-200.000	-0.005	-0.050
-463.113	246.565	-0.051	-0.086
-462.099	523.576	-0.067	-0.158
-461.084	-108.789	-0.411	-0.088
-460.070	-59.410	-0.082	-0.035
-459.055	-20.048	0.116	-0.071
-458.040	-41.327	0.263	-0.136
-457.026	-65.057	0.077	0.031
-456.011	33.109	-0.214	0.185
-454.997	-7.371	-0.058	-0.039
-453.982	-76.227	0.487	0.171
-452.968	-152.120	0.073	-0.005
-451.953	-176.527	0.116	0.003
-450.938	39.203	0.206	-0.184
-449.924	-132.492	-0.169	-0.022
-448.909	1.002	-0.199	0.142
-447.895	-83.742	-0.096	0.031
-446.880	24.120	-0.072	0.059
-445.865	6.490	0.040	-0.030
-444.851	-19.404	-0.228	0.141
-443.836	-112.470	0.372	-0.074
-442.822	-75.228	-0.217	-0.077
-441.807	-82.821	0.063	-0.020
-440.792	138.192	-0.272	-0.355
-439.778	-200.000	0.002	0.086
-438.763	-87.619	-0.150	0.045
-437.749	385.018	0.041	-0.084
-436.734	-61.925	-0.324	-0.135
-435.719	-22.064	-0.262	0.159
-434.705	97.663	0.077	0.088
-433.690	157.275	0.134	0.186
-432.676	357.286	-0.026	-0.052
-431.661	-38.043	-0.145	0.077
-430.646	-32.915	-0.189	0.105
-429.632	-154.553	-0.136	-0.009
-428.617	114.378	0.137	-0.167
-427.603	-54.303	0.211	-0.095
-426.588	-71.816	-0.246	-0.091
-425.573	-76.166	0.270	-0.095
-424.559	172.467	0.248	-0.356
-423.544	224.298	0.111	-0.178
-422.530	-112.448	-0.090	0.018
-421.515	-57.029	0.153	-0.067
-420.500	89.590	0.084	0.093
-419.486	292.321	0.099	0.181
-418.471	800.000	0.049	0.194
-417.457	800.000	-0.078	0.253
-416.442	-200.000	-0.008	-0.263
-415.428	190.065	0.060	-0.089
-414.413	-71.106	-0.202	0.076
-413.398	59.802	-0.222	0.219
-412.384	64.478	-0.166	-0.167
-411.369	-116.766	0.131	-0.024
-410.355	-125.564	0.324	-0.049
-409.340	-8.949	-0.162	0.108
-408.325	-28.726	-0.071	0.041
-407.311	-2.652	-0.046	0.032
-406.296	-139.404	0.260	-0.028
-405.282	-83.404	0.173	-0.055
-404.267	-82.944	-0.051	0.016
-403.252	-200.000	-0.037	-0.281
-402.238	-99.409	-0.199	0.050
-401.223	-34.539	0.208	0.113
-400.209	-6.124	0.313	-0.213
-399.194	451.045	-0.023	0.051
-398.179	800.000	-0.064	0.212
-397.165	-200.000	-0.024	0.141
-396.150	-200.000	-0.015	-0.081
-395.136	110.975	0.052	0.062
-394.121	-74.535	0.132	0.048
-393.106	-200.000	-0.042	0.326
-392.092	800.000	0.058	0.199
-391.077	-108.124	0.119	-0.026
-390.063	800.000	0.048	-0.153
-389.048	-52.150	0.233	0.108
-388.033	-57.369	0.438	0.192
-387.019	-71.360	-0.401	0.149
-386.004	-52.015	0.209	0.096
-384.990	142.391	-0.113	0.150
-383.975	-36.410	-0.252	0.135
-382.960	800.000	0.057	-0.230
-381.946	-74.896	0.161	0.058
-380.931	800.000	-0.087	0.261
-379.917	800.000	-0.066	-0.282
-378.902	800.000	0.044	0.189
-377.888	345.909	0.218	0.426
-376.873	-200.000	-0.018	0.109
-375.858	-4.225	-0.264	0.182
-374.844	119.180	-0.171	0.211
-373.829	29.738	-0.335	0.284
-372.815	-140.738	0.234	0.024
-371.800	369.210	0.119	0.240
-370.785	-34.880	-0.159	0.086
-369.771	-164.092	0.397	0.018
-368.756	139.562	-0.042	0.056
-367.742	171.738	0.200	0.286
-366.727	-82.002	0.071	-0.023
-365.712	-200.000	-0.034	-0.152
-364.698	-200.000	-0.027	0.316
-363.683	9.381	-0.344	-0.259
-362.669	-163.943	-0.323	-0.015
-361.654	800.000	0.072	-0.252
-360.639	150.317	-0.176	-0.237
-359.625	-200.000	-0.008	-0.212
-358.610	99.191	0.187	-0.215
-357.596	59.755	-0.241	-0.237
-356.581	53.951	-0.182	-0.174
-355.566	-158.591	0.221	-0.013
-354.552	576.300	0.006	-0.014
-353.537	-161.843	0.087	-0.004
-352.523	84.578	0.214	0.233
-351.508	-121.215	-0.054	0.009
-350.493	-200.000	0.038	-0.184
-349.479	-200.000	-0.046	0.259
-348.464	229.843	-0.119	-0.194
-347.450	11.732	0.216	-0.165
-346.435	800.000	-0.087	-0.255
-345.420	94.608	-0.133	-0.151
-344.406	231.650	0.023	-0.038
-343.391	-200.000	-0.067	0.326
-342.377	395.217	-0.076	-0.158
-341.362	20.309	-0.246	-0.197
-340.348	-43.509	-0.109	-0.055
-339.333	12.403	0.037	0.029
-338.318	27.047	-0.135	-0.113
-337.304	172.472	0.259	0.370
-336.289	-200.000	0.010	0.266
-335.275	-114.160	0.275	0.053
-334.260	-112.282	0.362	0.072
-333.245	167.331	-0.059	0.084
-332.231	-200.000	0.066	-0.478
-331.216	-200.000	0.053	-0.394
-330.202	7.538	-0.057	0.042
-329.187	-182.983	0.498	-0.009
-328.172	800.000	-0.053	-0.174
-327.158	-200.000	0.043	-0.205
-326.143	-200.000	0.029	-0.160
-325.129	266.697	-0.042	0.073
-324.114	-179.791	-0.610	-0.013
-323.099	-143.358	-0.238	-0.023
-322.085	-70.925	0.286	0.107
-321.070	138.549	-0.227	-0.295
-320.056	632.954	-0.025	0.063
-319.041	-200.000	0.005	-0.035
-318.026	-200.000	0.024	0.174
-317.012	800.000	0.116	0.417
-315.997	36.014	0.053	-0.046
-314.983	-200.000	-0.032	0.427
-313.968	-136.962	0.258	-0.029
-312.953	-102.284	0.097	0.023
-311.939	-169.790	-0.150	0.005
-310.924	-200.000	-0.062	0.387
-309.910	112.332	0.359	-0.431
-308.895	-51.511	0.072	0.033
-307.880	-200.000	0.026	0.289
-306.866	-200.000	0.001	-0.502
-305.851	-103.107	-0.238	-0.056
-304.837	438.077	0.069	0.150
-303.822	-125.889	0.022	-0.003
-302.807	-200.000	-0.063	-0.305
-301.793	-124.378	-0.068	-0.011
-300.778	81.042	0.069	-0.074
-299.764	800.000	-0.033	0.112
-298.749	-200.000	-0.094	0.439
-297.735	-131.458	0.306	-0.040
-296.720	-200.000	-0.004	-0.196
-295.705	646.848	-0.110	-0.278
-294.691	-48.445	0.209	-0.100
-293.676	22.246	-0.061	0.050
-292.662	-72.928	-0.292	0.107
-291.647	800.000	0.019	0.077
-290.632	-111.137	0.236	-0.048
-289.618	-200.000	-0.006	0.043
-288.603	800.000	-0.046	0.150
-287.589	84.848	0.054	0.058
-286.574	31.550	0.092	-0.079
-285.559	-200.000	-0.015	-0.131
-284.545	31.498	-0.251	-0.214
-283.530	-200.000	-0.036	-0.216
-282.516	9.579	-0.088	0.066
-281.501	-63.367	-0.162	0.066
-280.486	-200.000	0.034	-0.172
-279.472	213.516	-0.086	-0.135
-278.457	-200.000	-0.034	0.254
-277.443	139.660	0.137	-0.179
-276.428	150.736	-0.052	0.069
-275.413	275.488	-0.139	0.244
-274.399	274.698	0.197	0.346
-273.384	-60.880	0.214	-0.090
-272.370	-142.954	0.188	-0.018
-271.355	-47.608	-0.178	-0.086
-270.340	-112.653	0.124	-0.025
-269.326	106.582	-0.114	-0.134
-268.311	99.256	0.076	-0.087
-267.297	-75.598	0.084	-0.030
-266.282	-59.526	-0.204	0.087
-265.267	-200.000	-0.109	-0.489
-264.253	-136.249	0.084	-0.010
-263.238	261.831	-0.172	0.296
-262.224	-157.301	-0.083	0.005
-261.209	42.584	0.187	-0.168
-260.195	-101.806	-0.249	-0.060
-259.180	-200.000	-0.059	0.462
-258.165	139.129	-0.079	-0.103
-257.151	699.362	0.109	0.283
-256.136	-200.000	0.013	0.094
-255.122	-27.276	-0.212	-0.122
-254.107	258.826	-0.092	0.157
-253.092	-200.000	0.016	0.269
-252.078	-112.448	-0.378	-0.075
-251.063	548.323	0.035	0.084
-250.049	122.296	-0.117	-0.145
-249.034	97.847	0.150	0.171
-248.019	0.285	-0.194	-0.137
-247.005	15.699	0.272	-0.211
-245.990	800.000	-0.032	0.125
-244.976	-34.372	-0.293	0.159
-243.961	-125.278	0.319	-0.048
-242.946	346.704	0.024	-0.047
-241.932	-67.741	0.241	-0.093
-240.917	-41.063	0.416	0.213
-239.903	436.380	0.106	-0.229
-238.888	354.966	-0.097	-0.191
-237.873	-138.370	0.260	0.028
-236.859	193.972	-0.086	-0.129
-235.844	-16.862	-0.197	0.123
-234.830	-39.779	-0.308	-0.159
-233.815	-43.568	0.142	-0.071
-232.800	703.907	0.086	-0.224
-231.786	-129.423	0.111	0.015
-230.771	273.418	0.119	0.208
-229.757	155.728	-0.213	-0.290
-228.742	-65.703	-0.141	-0.056
-227.727	800.000	0.100	0.405
-226.713	-200.000	-0.021	-0.295
-225.698	-104.247	-0.267	-0.061
-224.684	94.314	0.319	0.359
-223.669	-182.788	-0.062	0.001
-222.655	239.220	0.151	-0.249
-221.640	800.000	0.049	-0.163
-220.625	800.000	-0.037	0.136
-219.611	-71.497	-0.053	0.020
-218.596	800.000	-0.035	0.106
-217.582	-200.000	-0.008	0.276
-216.567	105.840	-0.171	0.200
-215.552	-200.000	0.031	0.370
-214.538	-2.448	-0.182	0.126
-213.523	242.403	0.099	-0.164
-212.509	513.012	-0.094	0.216
-211.494	800.000	0.019	0.052
-210.479	263.715	-0.214	0.367
-209.465	-200.000	-0.008	0.322
-208.450	-53.714	-0.066	-0.030
-207.436	-200.000	0.025	-0.437
-206.421	-200.000	0.024	0.191
-205.406	94.671	-0.202	0.227
-204.392	-16.321	0.104	-0.065
-203.377	-200.000	-0.036	0.251
-202.363	554.701	-0.007	-0.017
-201.348	-154.777	0.282	0.018
-200.333	27.643	-0.304	0.253
-199.319	-84.490	-0.191	0.060
-198.304	488.840	-0.018	-0.041
-197.290	-35.002	-0.221	0.119
-196.275	-80.536	0.183	-0.060
-195.260	-92.329	0.451	0.126
-194.246	-153.715	0.144	-0.010
-193.231	92.815	-0.171	0.191
-192.217	-200.000	-0.047	0.224
-191.202	-155.341	-0.027	0.002
-190.187	-200.000	0.069	0.350
-189.173	-200.000	0.004	0.201
-188.158	-18.630	-0.239	0.147
-187.144	800.000	-0.065	-0.205
-186.129	-200.000	-0.009	0.171
-185.114	-88.064	-0.065	0.019
-184.100	-200.000	0.026	-0.153
-183.085	54.290	0.183	0.174
-182.071	800.000	0.102	0.296
-181.056	-83.825	-0.195	0.061
-180.042	-129.555	0.220	0.030
-179.027	-187.247	0.050	-0.001
-178.012	-73.668	0.131	0.047
-176.998	-154.502	0.273	0.018
-175.983	-200.000	-0.024	0.178
-174.969	-100.059	0.134	-0.033
-173.954	-95.584	0.237	0.063
-172.939	40.329	0.204	0.182
-171.925	403.190	0.061	-0.126
-170.910	-130.759	0.240	0.032
-169.896	-137.307	0.147	-0.016
-168.881	-200.000	-0.003	0.402
-167.866	-126.036	0.066	-0.010
-166.852	-29.157	-0.047	-0.026
-165.837	95.492	-0.087	-0.098
-164.823	404.738	-0.134	0.278
-163.808	75.493	0.143	0.149
-162.793	-200.000	-0.082	-0.703
-161.779	-64.554	0.227	0.091
-160.764	-137.850	0.155	-0.017
-159.750	800.000	-0.056	-0.163
-158.735	-200.000	0.038	-0.252
-157.720	156.887	-0.195	-0.266
-156.706	8.767	0.309	0.230
-155.691	284.164	-0.097	-0.172
-154.677	-26.405	-0.137	0.079
-153.662	-5.376	0.099	0.067
-152.647	-142.339	0.354	0.034
-151.633	-134.209	-0.170	0.021
-150.618	98.512	0.287	0.326
-149.604	189.011	-0.162	-0.239
-148.589	25.624	-0.134	0.110
-147.574	-70.746	0.287	0.107
-146.560	-134.355	-0.389	0.047
-145.545	-91.721	0.143	-0.040
-144.531	-84.565	0.108	-0.034
-143.516	56.431	-0.152	0.146
-142.502	-57.985	-0.203	-0.088
-141.487	-89.004	-0.441	-0.129
-140.472	-180.816	0.240	0.005
-139.458	-200.000	-0.011	0.076
-138.443	800.000	0.011	-0.041
-137.429	-200.000	-0.035	0.323
-136.414	-200.000	0.035	0.204
-135.399	91.091	-0.225	0.249
-134.385	624.971	0.117	0.291
-133.370	633.967	0.057	-0.141
-132.356	-116.326	0.152	-0.028
-131.341	130.857	-0.225	0.285
-130.326	-182.654	-0.186	0.003
-129.312	-139.730	-0.057	-0.006
-128.297	631.396	0.182	-0.454
-127.283	-85.137	0.169	0.052
-126.268	-144.661	0.136	0.012
-125.253	800.000	0.082	0.235
-124.239	159.388	-0.053	-0.073
-123.224	800.000	-0.045	0.149
-122.210	-200.000	-0.061	0.303
-121.195	-145.536	0.054	0.005
-120.180	-160.949	-0.296	0.015
-119.166	-200.000	0.003	-0.118
-118.151	321.411	-0.063	-0.119
-117.137	-200.000	-0.036	-0.162
-116.122	41.748	-0.023	0.020
-115.107	85.015	0.162	-0.175
-114.093	25.463	-0.137	-0.112
-113.078	321.023	0.064	0.120
-112.064	800.000	-0.049	-0.207
-111.049	31.104	-0.275	-0.233
-110.034	676.280	-0.038	0.098
-109.020	447.109	0.054	-0.117
-108.005	138.173	-0.091	-0.118
-106.991	800.000	-0.071	0.208
-105.976	-135.973	0.290	-0.034
-104.962	-121.471	0.135	-0.022
-103.947	-34.950	-0.265	-0.143
-102.932	-57.642	-0.115	0.050
-101.918	81.968	-0.166	-0.178
-100.903	-200.000	0.001	-0.124
-99.889	-102.530	-0.104	0.024
-98.874	800.000	-0.029	-0.094
-97.859	-200.000	0.011	-0.075
-96.845	-92.456	0.094	-0.026
-95.830	-63.487	0.051	0.021
-94.816	-140.905	0.059	-0.006
-93.801	-49.152	-0.098	0.046
-92.786	-90.302	-0.349	-0.100
-91.772	-25.536	0.217	-0.126
-90.757	174.943	-0.066	0.094
-89.743	-13.428	0.246	0.157
-88.728	800.000	-0.008	0.032
-87.713	37.558	0.213	-0.186
-86.699	588.370	-0.039	-0.094
-85.684	396.230	0.096	0.196
-84.670	800.000	0.108	0.308
-83.655	-38.711	-0.284	-0.147
-82.640	74.021	-0.228	-0.235
-81.626	451.158	0.077	-0.168
-80.611	250.033	0.308	0.513
-79.597	186.757	-0.124	-0.182
-78.582	-114.718	0.401	-0.075
-77.567	-200.000	-0.014	0.079
-76.553	800.000	0.164	0.512
-75.538	-200.000	0.034	-0.381
-74.524	-200.000	-0.057	-0.350
-73.509	-117.809	-0.246	0.043
-72.494	-11.355	-0.132	0.086
-71.480	-200.000	0.164	0.000
-70.465	-33.729	0.078	0.042
-69.451	-200.000	-0.024	0.105
-68.436	-200.000	0.205	0.000
-67.422	24.069	0.251	0.204
-66.407	-14.097	0.347	-0.220
-65.392	-29.020	-0.161	-0.091
-64.378	79.423	0.102	0.108
-63.363	52.475	-0.116	0.109
-62.349	28.245	-0.141	-0.117
-61.334	97.045	-1.005	-1.133
-60.319	-200.000	0.126	0.580
-59.305	107.735	-0.777	-0.909
-58.290	259.726	0.700	1.188
-57.276	800.000	0.514	1.706
-56.261	-200.000	106.763	577.786
-55.246	439.516	1478.070	3172.322
-54.232	145.832	2670.489	3517.983
-53.217	104.477	2190.926	2535.043
-52.203	39.493	1716.955	1511.751
-51.188	32.263	1529.279	1296.804
-50.173	29.968	1503.229	1259.079
-49.159	50.548	1557.708	1447.767
-48.144	50.833	1574.112	1464.926
-47.130	32.516	1531.380	1300.127
-46.115	29.547	1516.283	1266.918
-45.100	29.426	1512.935	1263.247
-44.086	29.276	1511.068	1260.613
-43.071	29.311	1508.581	1258.723
-42.057	29.287	1506.888	1257.099
-41.042	29.244	1505.451	1255.559
-40.027	29.191	1504.275	1254.166
-39.013	29.174	1502.723	1252.705
-37.998	29.165	1501.189	1251.319
-36.984	29.183	1499.683	1250.131
-35.969	29.176	1498.976	1249.447
-34.954	29.162	1497.972	1248.463
-33.940	29.163	1496.322	1247.050
-32.925	29.310	1494.547	1246.514
-31.911	29.301	1493.333	1245.393
-30.896	29.263	1492.243	1244.177
-29.881	29.362	1490.598	1243.423
-28.867	29.331	1489.385	1242.153
-27.852	29.253	1488.193	1240.583
-26.838	29.286	1487.018	1239.776
-25.823	29.269	1485.488	1238.340
-24.809	29.345	1483.240	1236.925
-23.794	29.304	1482.202	1235.737
-22.779	29.225	1481.334	1234.430
-21.765	29.248	1480.427	1233.779
-20.750	29.240	1479.476	1232.888
-19.736	29.264	1477.733	1231.545
-18.721	29.192	1476.513	1230.001
-17.706	29.197	1475.283	1228.959
-16.692	29.298	1474.614	1229.027
-15.677	29.332	1472.973	1227.838
-14.663	29.234	1472.378	1226.638
-13.648	29.222	1471.275	1225.590
-12.633	29.307	1470.394	1225.375
-11.619	29.227	1469.807	1224.306
-10.604	29.201	1468.551	1223.037
-9.590	29.166	1467.952	1222.258
-8.575	29.275	1466.924	1222.074
-7.560	29.148	1466.454	1220.793
-6.546	29.240	1465.242	1220.348
-5.531	29.147	1464.396	1218.977
-4.517	29.282	1463.217	1218.840
-3.502	29.155	1462.728	1217.543
-2.487	29.187	1461.311	1216.529
-1.473	29.260	1459.994	1215.865
-0.458	29.194	1459.052	1214.597
0.556	27.540	1449.576	1204.788
1.571	24.882	1424.361	1166.431
2.586	21.544	1363.177	1095.374
3.600	20.070	1280.700	1020.336
4.615	18.757	1236.209	977.333
5.629	16.549	1179.075	920.086
6.644	8.288	1094.041	811.797
7.659	1.465	1052.743	747.604
8.673	0.353	1047.342	738.256
9.688	0.157	1044.452	735.200
10.702	0.059	1042.744	733.454
11.717	0.052	1040.841	732.017
12.731	2.720	1043.300	746.684
13.746	10.859	1054.151	794.290
14.761	16.785	1060.922	828.380
15.775	17.214	1061.470	830.835
16.790	16.527	1059.090	825.546
17.804	15.313	1057.298	818.153
18.819	14.561	1055.473	813.007
19.834	14.123	1054.347	809.933
20.848	13.860	1052.833	807.422
21.863	13.624	1052.232	805.740
22.877	13.490	1051.372	804.359
23.892	13.187	1050.637	802.256
24.907	13.231	1049.309	801.386
25.921	13.025	1049.134	800.184
26.936	13.087	1048.466	799.900
27.950	13.190	1047.328	799.463
28.965	13.201	1047.192	799.338
29.980	13.192	1046.124	798.411
30.994	13.391	1044.592	798.128
32.009	13.413	1043.889	797.630
33.023	13.427	1043.283	797.163
34.038	13.416	1042.544	796.473
35.053	13.401	1041.697	795.685
36.067	13.373	1040.681	794.704
37.082	13.212	1040.093	793.409
38.096	13.266	1039.568	793.197
39.111	13.256	1039.109	792.732
40.126	13.409	1037.755	792.361
41.140	13.280	1036.816	790.954
42.155	13.147	1036.089	789.695
43.169	13.045	1035.106	788.391
44.184	13.057	1033.904	787.462
45.199	13.270	1032.647	787.449
46.213	13.134	1031.920	786.179
47.228	13.035	1030.888	784.851
48.242	13.111	1030.093	784.538
49.257	13.242	1028.754	784.072
50.271	13.314	1028.174	783.901
51.286	13.205	1027.021	782.437
52.301	13.192	1026.464	781.881
53.315	13.182	1025.652	781.146
54.330	13.186	1024.766	780.419
55.344	13.121	1023.988	779.451
56.359	13.091	1023.183	778.628
57.374	13.180	1021.874	777.984
58.388	13.139	1021.110	777.138
59.403	13.117	1020.476	776.484
60.417	13.098	1019.336	775.459
61.432	13.227	1018.416	775.296
62.447	13.211	1017.962	774.809
63.461	13.135	1016.921	773.590
64.476	12.887	1016.899	772.345
65.490	13.112	1014.978	771.867
66.505	13.024	1014.506	771.027
67.520	12.975	1014.019	770.360
68.534	13.056	1013.654	770.393
69.549	13.065	1012.565	769.539
70.563	13.229	1011.385	769.340
71.578	13.051	1011.336	768.406
72.593	12.961	1010.340	767.164
73.607	12.932	1009.465	766.297
74.622	13.024	1008.579	765.980
75.636	12.870	1007.988	764.751
76.651	12.988	1006.573	764.157
77.666	12.960	1006.275	763.733
78.680	12.977	1005.154	762.894
79.695	13.053	1005.004	763.063
80.709	13.085	1004.175	762.515
81.724	13.107	1003.296	761.882
82.739	13.070	1002.935	761.370
83.753	13.179	1002.279	761.304
84.768	13.200	1001.072	760.420
85.782	13.285	1000.234	760.104
86.797	13.271	999.820	759.658
87.812	13.305	998.879	759.032
88.826	13.363	997.839	758.439
89.841	13.267	997.184	757.438
90.855	13.301	996.474	756.985
91.870	13.322	995.690	756.418
92.884	13.412	995.088	756.305
93.899	13.407	994.329	755.640
94.914	13.309	994.135	754.980
95.928	13.397	992.943	754.406
96.943	13.362	992.421	753.785
97.957	13.203	991.658	752.414
98.972	13.366	990.453	752.173
99.987	13.390	990.143	751.979
101.001	13.447	988.869	751.204
102.016	13.287	988.672	750.265
103.030	13.299	988.003	749.747
104.045	13.400	986.527	749.018
105.060	13.328	985.652	747.958
106.074	13.286	984.383	746.740
107.089	13.259	983.312	745.743
108.103	13.187	982.919	745.052
109.118	13.182	981.364	743.786
110.133	13.125	981.405	743.491
111.147	13.100	980.673	742.761
112.162	13.183	979.354	742.070
113.176	13.305	978.359	741.795
114.191	13.225	977.771	740.927
115.206	13.222	976.787	740.103
116.220	13.305	976.123	739.905
117.235	13.102	975.688	738.602
118.249	13.252	974.907	738.615
119.264	13.251	973.867	737.757
120.279	13.166	972.954	736.621
121.293	13.234	971.982	736.123
122.308	13.280	971.387	735.814
123.322	13.191	970.850	734.944
124.337	13.241	969.418	734.015
125.352	13.170	968.512	732.953
126.366	13.188	967.341	732.080
127.381	13.277	965.592	731.086
128.395	13.161	965.310	730.297
129.410	13.107	964.519	729.392
130.424	13.260	963.006	728.858
131.439	13.192	962.640	728.217
132.454	13.213	961.658	727.504
133.468	13.252	961.358	727.383
134.483	13.217	960.600	726.589
135.497	13.228	959.842	726.001
136.512	13.245	959.224	725.547
137.527	13.084	958.588	724.292
138.541	13.354	957.000	724.211
139.556	13.297	956.811	723.756
140.570	13.175	956.294	722.764
141.585	13.297	955.389	722.551
142.600	13.385	954.518	722.213
143.614	13.423	953.427	721.491
144.629	13.439	952.867	721.074
145.643	13.295	952.417	720.040
146.658	13.536	951.271	720.158
147.673	13.412	950.326	718.840
148.687	13.509	949.261	718.391
149.702	13.333	948.577	717.048
150.716	13.369	947.991	716.696
151.731	13.383	946.721	715.734
152.746	13.351	946.344	715.246
153.760	13.282	945.621	714.339
154.775	13.367	944.574	713.851
155.789	13.345	943.693	713.028
156.804	13.485	942.820	712.909
157.819	13.551	941.775	712.337
158.833	13.376	942.048	711.731
159.848	13.625	940.828	711.815
160.862	13.463	940.255	710.623
161.877	13.479	939.784	710.275
162.892	13.523	938.725	709.599
163.906	13.394	938.016	708.448
164.921	13.435	936.906	707.722
165.935	13.301	935.928	706.346
166.950	13.323	935.061	705.723
167.964	13.397	934.137	705.281
168.979	13.367	933.286	704.448
169.994	13.483	932.112	703.993
171.008	13.335	931.627	702.937
172.023	13.451	930.540	702.545
173.037	13.574	929.873	702.503
174.052	13.603	929.139	702.008
175.067	13.671	928.149	701.486
176.081	13.409	928.355	700.470
177.096	13.596	926.685	699.939
178.110	13.470	926.191	698.970
179.125	13.553	925.556	698.781
180.140	13.496	924.731	697.855
181.154	13.585	923.984	697.604
182.169	13.623	923.961	697.683
183.183	13.666	922.852	696.965
184.198	13.762	922.118	696.755
185.213	13.666	921.311	695.679
186.227	13.747	920.679	695.482
187.242	13.787	920.273	695.279
188.256	13.663	919.808	694.349
189.271	13.832	918.897	694.304
190.286	13.878	917.816	693.620
191.300	13.694	917.411	692.484
192.315	13.545	916.964	691.464
193.329	13.676	915.698	690.992
194.344	13.617	915.205	690.316
195.359	13.603	914.867	689.940
196.373	13.798	913.861	689.933
197.388	13.716	913.683	689.393
198.402	13.813	913.020	689.235
199.417	13.779	912.932	688.969
200.432	13.862	912.369	688.825
201.446	14.048	911.447	688.842
202.461	13.943	911.425	688.330
203.475	14.060	910.672	688.183
204.490	14.075	910.088	687.741
205.504	14.089	909.149	687.029
206.519	14.019	908.193	685.958
207.534	13.989	907.266	685.075
208.548	13.913	906.507	684.125
209.563	13.948	905.959	683.796
210.577	14.103	905.171	683.780
211.592	14.028	904.476	682.885
212.607	13.922	904.638	682.512
213.621	14.100	903.685	682.460
214.636	14.244	902.556	682.138
215.650	14.119	902.296	681.371
216.665	14.221	901.713	681.290
217.680	14.102	901.068	680.255
218.694	14.130	900.615	679.967
219.709	14.143	900.400	679.796
220.723	14.213	899.176	679.097
221.738	14.131	898.786	678.408
222.753	14.247	897.942	678.183
223.767	14.244	896.895	677.320
224.782	14.193	896.496	676.750
225.796	14.313	895.770	676.631
226.811	14.277	895.350	676.110
227.826	14.258	894.385	675.244
228.840	14.320	893.489	674.759
229.855	14.357	892.703	674.253
230.869	14.274	892.381	673.617
231.884	14.139	891.931	672.672
232.899	14.272	890.865	672.344
233.913	14.503	890.052	672.605
234.928	14.265	889.935	671.497
235.942	14.314	888.782	670.765
236.957	14.188	888.412	669.920
237.972	14.348	887.327	669.684
238.986	14.294	887.057	669.203
240.001	14.454	885.894	668.909
241.015	14.467	885.482	668.589
242.030	14.552	884.942	668.466
243.045	14.430	883.901	667.129
244.059	14.556	883.746	667.459
245.074	14.343	883.157	666.104
246.088	14.398	882.357	665.663
247.103	14.486	881.958	665.654
248.117	14.545	881.196	665.252
249.132	14.501	880.891	664.791
250.147	14.728	880.080	665.024
251.161	14.650	879.633	664.314
252.176	14.764	878.577	663.914
253.190	14.745	877.935	663.293
254.205	14.883	877.213	663.235
255.220	14.799	876.594	662.378
256.234	14.737	876.369	661.901
257.249	14.772	875.749	661.513
258.263	14.878	875.328	661.556
259.278	14.714	874.738	660.402
260.293	14.858	874.080	660.417
261.307	14.943	873.373	660.158
262.322	14.913	872.878	659.609
263.336	14.864	872.336	658.947
264.351	14.909	871.674	658.568
265.366	14.808	871.257	657.798
266.380	14.999	870.044	657.571
267.395	14.998	869.612	657.185
268.409	15.054	868.838	656.762
269.424	15.125	867.844	656.229
270.439	15.123	866.896	655.446
271.453	14.936	866.622	654.448
272.468	15.085	865.581	654.186
273.482	14.910	865.309	653.243
274.497	14.980	864.876	653.132
275.512	15.045	864.058	652.708
276.526	15.107	862.758	651.911
277.541	15.090	862.358	651.486
278.555	15.124	861.720	651.078
279.570	15.057	861.371	650.495
280.585	15.136	860.838	650.340
281.599	15.283	859.810	650.078
282.614	15.190	859.742	649.609
283.628	15.209	858.913	648.998
284.643	15.232	858.596	648.791
285.657	15.152	858.002	647.975
286.672	15.180	857.641	647.750
287.687	15.369	856.817	647.803
288.701	15.317	856.580	647.367
289.716	15.296	855.860	646.682
290.730	15.227	855.621	646.180
291.745	15.284	854.531	645.519
292.760	15.282	853.855	644.941
293.774	15.355	853.292	644.740
294.789	15.487	852.767	644.793
295.803	15.463	852.089	644.134
296.818	15.362	851.844	643.501
297.833	15.317	851.091	642.706
298.847	15.427	850.231	642.417
299.862	15.499	849.798	642.309
300.876	15.439	849.051	641.459
301.891	15.579	848.041	641.176
302.906	15.543	847.576	640.629
303.920	15.415	847.267	639.852
304.935	15.465	846.474	639.386
305.949	15.592	846.124	639.547
306.964	15.703	844.989	639.056
307.979	15.625	844.430	638.279
308.993	15.618	843.948	637.834
310.008	15.669	843.246	637.439
311.022	15.746	843.003	637.488
312.037	15.648	842.418	636.622
313.052	15.629	842.068	636.227
314.066	15.565	841.371	635.403
315.081	15.676	840.868	635.388
316.095	15.585	839.956	634.299
317.110	15.779	839.340	634.508
318.125	15.543	839.170	633.433
319.139	15.513	838.555	632.798
320.154	15.498	838.396	632.568
321.168	15.747	837.585	632.837
322.183	15.651	836.939	631.933
323.197	15.652	836.792	631.768
324.212	15.742	835.949	631.414
325.227	15.731	835.623	631.070
326.241	15.813	834.759	630.671
327.256	15.653	834.561	629.865
328.270	15.745	834.025	629.747
329.285	15.882	833.056	629.474
330.300	15.840	832.440	628.796
331.314	15.633	832.089	627.701
332.329	15.775	831.218	627.519
333.343	15.990	830.417	627.661
334.358	15.897	830.361	627.217
335.373	15.833	829.916	626.586
336.387	15.854	829.313	626.154
337.402	15.852	828.709	625.633
338.416	16.107	827.861	625.884
339.431	16.066	827.449	625.368
340.446	15.989	827.324	624.932
341.460	16.090	826.131	624.350
342.475	16.036	825.884	623.907
343.489	16.102	825.411	623.739
344.504	16.075	825.046	623.307
345.519	16.089	824.309	622.749
346.533	16.172	823.771	622.593
347.548	16.249	823.242	622.421
348.562	16.261	822.640	621.954
349.577	16.189	822.010	621.157
350.592	16.195	821.678	620.877
351.606	16.051	821.013	619.787
352.621	15.940	820.932	619.263
353.635	16.185	820.039	619.435
354.650	16.121	819.678	618.872
355.665	16.288	819.265	619.119
356.679	16.167	819.107	618.501
357.694	16.330	818.260	618.405
358.708	16.374	818.164	618.438
359.723	16.219	817.527	617.335
360.738	16.362	816.663	617.150
361.752	16.342	815.753	616.334
362.767	16.408	815.771	616.535
363.781	16.291	815.722	616.016
364.796	16.296	815.345	615.695
365.810	16.371	814.957	615.621
366.825	16.328	814.318	614.926
367.840	16.510	813.766	615.118
368.854	16.471	813.357	614.612
369.869	16.483	813.212	614.492
370.883	16.466	812.116	613.547
371.898	16.493	811.980	613.490
372.913	16.605	811.263	613.300
373.927	16.753	810.244	613.011
374.942	16.540	809.872	611.905
375.956	16.742	809.122	612.014
376.971	16.591	808.759	611.138
377.986	16.661	808.144	610.874
379.000	16.770	807.811	610.960
380.015	16.735	807.363	610.439
381.029	16.707	806.664	609.759
382.044	16.804	806.293	609.774
383.059	16.768	805.739	609.169
384.073	16.788	805.438	608.962
385.088	16.811	804.603	608.356
386.102	16.816	803.750	607.678
387.117	16.637	803.637	606.896
388.132	16.916	802.889	607.278
389.146	16.795	802.534	606.522
390.161	16.729	802.374	606.111
391.175	16.816	801.876	605.993
392.190	16.704	801.505	605.259
393.205	16.862	801.207	605.545
394.219	16.762	800.942	604.932
395.234	16.728	800.303	604.276
396.248	16.973	799.443	604.445
397.263	16.814	798.957	603.457
398.278	16.698	798.933	602.972
399.292	16.735	798.321	602.592
400.307	16.818	798.011	602.599
401.321	16.939	797.321	602.452
402.336	16.868	797.150	602.021
403.350	16.913	796.914	601.946
404.365	16.924	796.151	601.355
405.380	16.875	795.752	600.827
406.394	16.983	795.250	600.777
407.409	17.072	795.012	600.861
408.423	17.099	794.239	600.320
409.438	17.250	793.591	600.308
410.453	17.179	793.444	599.895
411.467	17.102	793.297	599.458
412.482	17.295	792.575	599.541
413.496	17.308	791.904	599.024
414.511	17.274	791.869	598.825
415.526	17.028	791.802	597.856
416.540	17.100	791.112	597.534
417.555	17.244	790.798	597.753
418.569	17.212	790.351	597.249
419.584	17.257	789.681	596.849
420.599	17.339	789.443	596.901
421.613	109.031	1290.693	1470.125
422.628	93.543	1363.685	1470.247
