DTS Sentinel unit serial number:	SN413079Multiplexer serial number:	ORYXHardware model number:	OX4-SRSoftware version number:	ORYX F/W v4.00 Oryx Data Collector v3.7.2.0data status	okinstallation	princeton_trtdifferential loss correction	single-endedforward channel	channel 3reverse channel	N/Adate	2019/09/14time	09:52:35forward acquisition time	60.00reverse acquisition time	0.00gamma	496.2192k internal	0.2315k external	0.2315temperature offset calibration	1.0056default loss term (dB/km)	0.3790temperature slope calibration	1.0000multiplexer offset coefficient	1.0000multiplexer slope coefficient	1.0000fibre end	0.00T internal ref (°C)	32.61T ext. ref 1 (°C)	3.97T ext. ref 2 (°C)	30.91length (m)	temperature (°C)	Stokes	anti-Stokes-747.200	-200.000	0.017	-0.253
-746.185	800.000	-0.028	-0.092
-745.171	-200.000	-0.070	0.317
-744.156	211.772	-0.207	0.330
-743.142	-53.875	0.274	0.127
-742.127	53.111	-0.202	0.196
-741.112	14.328	-0.069	0.055
-740.098	-84.053	-0.217	-0.070
-739.083	-20.085	0.058	-0.036
-738.069	498.438	-0.021	-0.049
-737.054	-156.411	-0.075	-0.005
-736.039	84.226	-0.111	0.123
-735.025	-107.861	0.400	-0.088
-734.010	-106.787	-0.191	0.043
-732.996	-49.292	-0.196	0.095
-731.981	800.000	-0.070	-0.304
-730.966	68.243	0.055	-0.057
-729.952	292.319	0.150	-0.277
-728.937	67.678	-0.225	0.233
-727.923	20.668	0.085	0.069
-726.908	4.977	-0.156	-0.117
-725.894	800.000	-0.109	-0.332
-724.879	31.987	-0.335	-0.293
-723.864	156.012	0.175	-0.245
-722.850	800.000	-0.116	-0.431
-721.835	-200.000	-0.006	0.030
-720.821	275.733	-0.116	-0.208
-719.806	18.149	0.233	0.188
-718.791	-94.495	-0.304	-0.084
-717.777	-70.857	-0.253	0.097
-716.762	-170.747	0.345	-0.012
-715.748	156.172	0.115	-0.161
-714.733	-109.758	-0.222	-0.047
-713.718	-39.410	-0.233	-0.124
-712.704	-39.334	0.159	-0.085
-711.689	-3.372	-0.207	0.146
-710.675	51.340	0.189	0.181
-709.660	-88.123	-0.249	-0.076
-708.645	322.413	0.096	0.185
-707.631	-200.000	-0.018	-0.472
-706.616	-45.510	0.270	-0.135
-705.602	453.621	0.053	0.118
-704.587	-56.454	-0.210	0.094
-703.572	-36.402	0.204	-0.111
-702.558	-97.193	-0.205	0.054
-701.543	-110.628	-0.035	-0.007
-700.529	104.119	0.076	-0.091
-699.514	-200.000	-0.009	0.063
-698.499	-109.388	-0.207	-0.044
-697.485	800.000	-0.104	0.330
-696.470	-116.096	-0.070	-0.013
-695.456	655.929	0.032	0.083
-694.441	62.252	0.154	-0.155
-693.426	-183.948	-0.472	-0.008
-692.412	-200.000	0.029	0.260
-691.397	-37.596	-0.267	-0.144
-690.383	-41.407	-0.191	-0.100
-689.368	163.853	-0.210	-0.298
-688.354	800.000	-0.104	-0.336
-687.339	-73.171	-0.240	-0.089
-686.324	-3.739	-0.114	0.080
-685.310	-200.000	-0.012	-0.120
-684.295	60.861	0.298	-0.298
-683.281	-109.590	0.175	0.037
-682.266	138.013	-0.089	-0.118
-681.251	800.000	-0.109	0.316
-680.237	376.338	0.226	-0.466
-679.222	-60.571	-0.097	-0.042
-678.208	1.994	0.323	-0.236
-677.193	-93.109	-0.248	0.070
-676.178	800.000	-0.075	0.253
-675.164	-95.467	-0.187	0.051
-674.149	44.653	0.114	0.106
-673.135	-12.192	-0.031	-0.021
-672.120	-200.000	-0.005	-0.096
-671.105	282.194	0.063	-0.115
-670.091	742.742	-0.046	-0.124
-669.076	-92.962	0.102	0.029
-668.062	-9.336	-0.106	-0.072
-667.047	-136.306	-0.324	-0.038
-666.032	-133.640	-0.158	0.020
-665.018	800.000	-0.019	-0.079
-664.003	-200.000	-0.006	0.210
-662.989	-7.654	-0.058	0.040
-661.974	165.967	-0.102	0.146
-660.959	-97.572	0.327	0.086
-659.945	19.707	0.105	-0.085
-658.930	-60.875	0.156	0.067
-657.916	-151.490	-0.252	-0.019
-656.901	-151.107	-0.037	0.003
-655.886	-101.700	0.232	0.057
-654.872	-25.174	0.100	-0.060
-653.857	9.684	0.196	0.150
-652.843	156.655	0.055	0.076
-651.828	-200.000	-0.070	-0.368
-650.814	62.884	-0.193	-0.195
-649.799	-32.489	-0.322	0.181
-648.784	-28.639	-0.130	0.075
-647.770	13.966	-0.122	0.096
-646.755	25.769	-0.151	-0.127
-645.741	-200.000	0.042	-0.288
-644.726	130.923	0.193	-0.251
-643.711	-64.029	0.296	-0.122
-642.697	-55.466	-0.052	0.024
-641.682	800.000	-0.028	-0.111
-640.668	-18.641	-0.175	-0.110
-639.653	-130.174	-0.194	0.027
-638.638	-2.189	-0.129	0.091
-637.624	-200.000	-0.001	-0.445
-636.609	-54.888	-0.279	-0.127
-635.595	152.197	-0.128	-0.176
-634.580	6.908	-0.251	-0.189
-633.565	800.000	-0.113	-0.326
-632.551	595.650	-0.052	0.129
-631.536	165.804	-0.126	-0.180
-630.522	800.000	-0.052	-0.177
-629.507	-125.436	0.086	0.013
-628.492	239.955	0.086	-0.145
-627.478	7.097	0.260	-0.196
-626.463	-133.131	0.350	-0.045
-625.449	263.421	-0.072	0.127
-624.434	27.800	0.146	0.124
-623.419	-123.339	-0.272	-0.044
-622.405	-200.000	-0.150	-0.001
-621.390	89.021	-0.124	-0.139
-620.376	20.410	-0.227	-0.185
-619.361	341.241	0.145	0.285
-618.346	225.755	-0.150	-0.244
-617.332	399.630	0.066	0.139
-616.317	-112.593	-0.072	0.015
-615.303	-36.134	-0.275	0.150
-614.288	-60.773	0.113	0.048
-613.273	800.000	0.050	-0.184
-612.259	47.961	-0.080	0.076
-611.244	800.000	0.051	0.174
-610.230	103.871	-0.062	0.074
-609.215	225.904	-0.223	0.364
-608.201	51.818	0.142	0.136
-607.186	165.219	-0.049	0.070
-606.171	-119.886	0.172	0.030
-605.157	-195.325	0.239	-0.002
-604.142	336.940	0.073	0.143
-603.128	-100.833	0.125	-0.031
-602.113	119.022	-0.182	-0.227
-601.098	187.730	-0.141	-0.213
-600.084	-200.000	-0.043	-0.283
-599.069	-200.000	0.011	0.134
-598.055	145.574	0.047	0.064
-597.040	80.572	-0.051	-0.055
-596.025	-87.482	0.172	-0.052
-595.011	-62.833	0.157	0.066
-593.996	170.593	0.066	-0.096
-592.982	-46.654	-0.164	0.081
-591.967	-200.000	0.012	-0.194
-590.952	555.481	-0.138	-0.335
-589.938	-200.000	-0.040	-0.566
-588.923	-200.000	0.027	0.345
-587.909	-154.943	0.116	0.008
-586.894	85.863	-0.136	0.151
-585.879	334.983	0.007	-0.014
-584.865	-66.120	-0.147	-0.059
-583.850	-157.522	-0.356	-0.022
-582.836	68.015	-0.182	-0.187
-581.821	-200.000	-0.024	0.158
-580.806	-153.437	-0.111	-0.008
-579.792	800.000	0.055	0.167
-578.777	-155.122	0.130	0.009
-577.763	-54.196	-0.215	-0.098
-576.748	83.068	-0.179	-0.196
-575.733	-200.000	0.052	-0.267
-574.719	82.144	-0.193	-0.211
-573.704	-56.981	0.119	-0.053
-572.690	71.907	0.093	0.097
-571.675	-200.000	-0.003	0.128
-570.661	12.012	0.156	-0.121
-569.646	-92.418	0.245	-0.069
-568.631	159.348	-0.048	-0.068
-567.617	93.277	-0.118	-0.134
-566.602	430.134	-0.060	-0.130
-565.588	-50.164	0.352	0.168
-564.573	-67.898	0.162	-0.064
-563.558	800.000	0.114	0.335
-562.544	82.933	-0.205	-0.224
-561.529	-162.308	0.216	-0.011
-560.515	-200.000	0.006	-0.149
-559.500	-31.652	-0.246	0.139
-558.485	-36.473	-0.141	-0.077
-557.471	691.119	-0.076	0.201
-556.456	144.546	0.133	-0.178
-555.442	800.000	-0.115	0.389
-554.427	800.000	-0.014	-0.049
-553.412	-66.994	-0.155	-0.062
-552.398	139.508	-0.046	0.061
-551.383	167.533	0.141	0.202
-550.369	246.425	0.089	-0.152
-549.354	-120.581	0.109	-0.019
-548.339	128.701	0.105	-0.134
-547.325	-200.000	-0.022	-0.372
-546.310	-6.461	-0.172	-0.118
-545.296	-57.903	0.215	-0.095
-544.281	103.895	0.226	-0.267
-543.266	313.486	0.182	-0.344
-542.252	194.636	-0.127	0.194
-541.237	-13.775	-0.074	-0.048
-540.223	-200.000	-0.007	0.132
-539.208	-200.000	-0.050	0.334
-538.193	-98.107	-0.203	0.052
-537.179	206.540	-0.124	-0.195
-536.164	594.631	-0.033	0.082
-535.150	40.701	-0.279	-0.253
-534.135	-94.072	-0.162	0.045
-533.121	-135.535	0.187	-0.022
-532.106	-7.457	0.068	-0.046
-531.091	-25.853	0.240	0.142
-530.077	-200.000	-0.021	0.240
-529.062	800.000	-0.079	0.225
-528.048	674.875	-0.101	-0.263
-527.033	-64.862	-0.234	-0.095
-526.018	-46.850	-0.148	0.073
-525.004	-34.924	-0.465	0.255
-523.989	-200.000	-0.004	0.202
-522.975	-200.000	0.000	-0.243
-521.960	-76.252	0.100	0.036
-520.945	-75.502	0.135	0.048
-519.931	39.626	0.038	0.034
-518.916	800.000	-0.083	0.320
-517.902	264.236	0.051	-0.089
-516.887	37.357	0.284	-0.253
-515.872	800.000	0.032	-0.136
-514.858	800.000	0.023	0.069
-513.843	800.000	-0.002	-0.005
-512.829	-66.847	-0.093	0.037
-511.814	87.254	-0.059	0.066
-510.799	69.363	0.226	0.234
-509.785	1.009	-0.066	-0.047
-508.770	428.687	-0.037	-0.081
-507.756	-200.000	0.032	0.150
-506.741	800.000	0.089	-0.371
-505.726	-200.000	-0.000	-0.166
-504.712	-127.642	0.050	-0.007
-503.697	-67.822	-0.078	-0.031
-502.683	38.983	-0.131	0.117
-501.668	140.020	0.116	-0.153
-500.653	89.782	-0.114	0.127
-499.639	-200.000	-0.053	0.250
-498.624	183.622	0.157	0.233
-497.610	375.891	0.154	-0.316
-496.595	40.015	0.067	-0.061
-495.581	-93.225	-0.233	0.065
-494.566	-200.000	0.051	0.442
-493.551	-52.531	-0.235	-0.109
-492.537	163.912	-0.063	0.089
-491.522	-200.000	0.021	0.244
-490.508	-54.071	-0.354	0.162
-489.493	2.996	0.178	0.129
-488.478	46.999	-0.107	-0.100
-487.464	198.622	0.121	-0.186
-486.449	46.040	-0.130	-0.120
-485.435	-0.262	0.239	0.170
-484.420	-200.000	-0.019	0.294
-483.405	27.280	0.112	0.094
-482.391	-36.252	-0.331	-0.179
-481.376	218.711	-0.230	-0.369
-480.362	-29.777	-0.300	0.171
-479.347	32.597	0.181	-0.157
-478.332	502.367	0.026	0.061
-477.318	-200.000	0.028	-0.266
-476.303	-147.169	0.068	-0.006
-475.289	-3.931	0.153	0.107
-474.274	670.585	-0.074	-0.191
-473.259	-145.574	0.220	-0.020
-472.245	138.033	0.141	-0.185
-471.230	722.532	-0.067	0.180
-470.216	-11.209	-0.237	0.156
-469.201	479.604	0.143	0.324
-468.186	51.420	0.077	-0.073
-467.172	-200.000	-0.004	0.136
-466.157	-183.121	0.100	0.002
-465.143	-58.112	-0.166	0.073
-464.128	-67.659	0.113	-0.044
-463.113	282.146	0.155	0.278
-462.099	177.513	-0.026	-0.038
-461.084	-152.855	-0.069	-0.005
-460.070	215.758	-0.007	-0.011
-459.055	31.956	-0.221	-0.191
-458.040	-37.259	0.075	0.040
-457.026	-137.060	0.274	0.031
-456.011	377.214	-0.082	0.168
-454.997	15.085	0.130	-0.102
-453.982	-122.611	0.140	-0.023
-452.968	-23.174	0.224	-0.135
-451.953	-131.740	-0.131	0.017
-450.938	-200.000	0.019	0.289
-449.924	-67.606	-0.210	0.083
-448.909	180.684	-0.068	0.100
-447.895	-177.756	-0.177	0.004
-446.880	800.000	0.037	0.122
-445.865	-64.636	-0.097	-0.040
-444.851	707.726	-0.102	-0.271
-443.836	-56.649	-0.114	0.050
-442.822	-200.000	0.006	0.061
-441.807	18.868	0.110	0.088
-440.792	162.656	0.121	0.170
-439.778	-94.494	0.257	0.070
-438.763	-153.688	-0.256	0.018
-437.749	110.770	-0.078	0.094
-436.734	516.676	-0.028	0.067
-435.719	800.000	0.028	-0.107
-434.705	-95.912	-0.276	-0.074
-433.690	-80.161	0.181	-0.061
-432.676	-0.890	0.158	0.112
-431.661	-200.000	0.039	-0.234
-430.646	-180.131	-0.267	-0.006
-429.632	-101.008	0.130	-0.032
-428.617	639.102	-0.070	-0.178
-427.603	98.793	0.071	0.082
-426.588	-163.190	0.324	-0.016
-425.573	148.033	0.161	0.217
-424.559	73.256	-0.234	0.245
-423.544	329.568	-0.152	0.293
-422.530	-69.862	0.459	0.175
-421.515	7.102	-0.257	0.192
-420.500	10.814	0.079	0.060
-419.486	-132.199	0.073	0.009
-418.471	696.826	0.040	-0.106
-417.457	74.450	0.221	0.232
-416.442	-103.067	-0.204	-0.048
-415.428	-131.944	0.571	0.075
-414.413	777.934	-0.125	0.341
-413.398	23.190	0.122	0.100
-412.384	-61.417	0.122	-0.051
-411.369	-200.000	-0.020	-0.175
-410.355	-200.000	0.001	-0.117
-409.340	181.724	0.064	-0.095
-408.325	800.000	0.113	0.368
-407.311	-29.357	-0.182	-0.104
-406.296	-200.000	-0.057	0.295
-405.282	-21.732	0.157	-0.096
-404.267	-62.788	0.347	0.144
-403.252	800.000	0.130	0.381
-402.238	-2.265	0.277	0.194
-401.223	52.527	-0.189	0.180
-400.209	44.017	-0.114	0.104
-399.194	-129.490	0.163	0.023
-398.179	800.000	0.070	0.269
-397.165	-79.102	0.141	0.048
-396.150	-200.000	-0.019	-0.093
-395.136	-200.000	0.017	-0.181
-394.121	-31.720	-0.182	-0.102
-393.106	246.467	-0.085	-0.144
-392.092	-200.000	-0.010	0.211
-391.077	-200.000	0.041	0.287
-390.063	223.685	0.188	0.303
-389.048	-103.254	0.194	0.046
-388.033	-13.526	-0.112	-0.073
-387.019	-200.000	-0.015	-0.403
-386.004	-106.327	-0.089	-0.020
-384.990	-66.458	-0.205	0.081
-383.975	312.086	0.131	0.245
-382.960	117.463	-0.268	0.329
-381.946	-30.636	0.149	-0.084
-380.931	-200.000	-0.014	0.103
-379.917	-33.782	0.128	-0.071
-378.902	-98.085	-0.105	0.027
-377.888	-200.000	0.003	0.459
-376.873	331.603	0.092	-0.178
-375.858	348.943	0.066	0.130
-374.844	-141.332	-0.469	-0.048
-373.829	-39.919	-0.187	0.097
-372.815	-200.000	-0.063	0.432
-371.800	26.539	0.067	-0.056
-370.785	-200.000	-0.040	-0.217
-369.771	40.752	0.041	-0.037
-368.756	-200.000	0.015	-0.224
-367.742	-200.000	0.016	0.129
-366.727	118.281	-0.040	0.049
-365.712	-99.410	0.195	-0.049
-364.698	52.673	0.067	0.064
-363.683	-67.715	-0.305	0.119
-362.669	-183.162	-0.135	-0.002
-361.654	-200.000	-0.011	-0.115
-360.639	21.814	0.087	0.071
-359.625	-200.000	-0.014	-0.131
-358.610	800.000	-0.114	-0.349
-357.596	-117.490	0.356	0.064
-356.581	245.713	0.194	0.326
-355.566	-133.098	0.217	0.027
-354.552	-128.311	-0.191	-0.027
-353.537	-128.106	-0.132	0.019
-352.523	-0.710	-0.249	0.176
-351.508	-56.882	-0.201	0.089
-350.493	800.000	0.097	0.274
-349.479	-200.000	0.047	0.211
-348.464	-26.992	0.264	-0.154
-347.450	598.777	-0.028	-0.069
-346.435	760.173	0.037	-0.099
-345.420	-139.846	0.162	-0.017
-344.406	-200.000	0.021	-0.118
-343.391	-91.617	0.170	-0.048
-342.377	-51.463	-0.543	0.253
-341.362	176.815	0.090	0.130
-340.348	-200.000	-0.058	-0.263
-339.333	107.774	0.173	0.206
-338.318	-77.617	0.057	0.020
-337.304	-78.664	0.405	-0.138
-336.289	-200.000	-0.019	-0.443
-335.275	-77.511	-0.160	-0.055
-334.260	-51.465	0.185	0.086
-333.245	613.332	-0.034	-0.085
-332.231	800.000	0.012	-0.051
-331.216	2.384	0.059	-0.043
-330.202	-116.904	0.284	0.052
-329.187	-156.958	-0.241	-0.015
-328.172	800.000	0.079	0.233
-327.158	263.123	-0.185	0.320
-326.143	-95.507	-0.260	0.070
-325.129	657.851	-0.048	-0.124
-324.114	-200.000	0.010	-0.106
-323.099	-121.552	0.359	0.059
-322.085	107.915	0.039	-0.046
-321.070	257.482	0.172	-0.295
-320.056	-112.300	-0.443	0.088
-319.041	145.582	-0.185	0.248
-318.026	99.241	0.126	0.145
-317.012	800.000	-0.086	-0.254
-315.997	-200.000	0.059	-0.338
-314.983	-41.891	-0.365	-0.186
-313.968	-129.026	-0.240	0.034
-312.953	39.784	-0.215	0.192
-311.939	644.515	0.094	0.239
-310.924	-200.000	-0.004	0.225
-309.910	32.703	0.289	0.249
-308.895	334.597	0.062	-0.120
-307.880	293.963	0.041	-0.076
-306.866	-127.214	0.278	0.040
-305.851	12.313	0.028	-0.021
-304.837	38.214	0.454	-0.403
-303.822	464.411	-0.053	-0.118
-302.807	800.000	0.050	0.209
-301.793	-164.435	0.052	-0.002
-300.778	-200.000	0.010	-0.063
-299.764	-1.610	0.352	-0.247
-298.749	-61.312	-0.114	-0.048
-297.735	-7.948	0.268	0.180
-296.720	-117.633	-0.206	0.037
-295.705	-200.000	-0.033	0.204
-294.691	94.449	-0.048	0.054
-293.676	14.118	-0.279	0.217
-292.662	275.919	-0.086	-0.153
-291.647	-106.439	0.181	0.040
-290.632	-34.074	-0.094	0.051
-289.618	-170.387	-0.131	0.005
-288.603	65.456	0.051	0.051
-287.589	-10.794	0.206	0.136
-286.574	-107.352	-0.388	-0.085
-285.559	-11.846	-0.149	0.097
-284.545	251.864	0.103	0.175
-283.530	58.491	0.268	0.262
-282.516	-129.936	0.162	0.022
-281.501	13.411	-0.299	0.231
-280.486	-200.000	0.031	0.342
-279.472	-55.993	-0.219	-0.097
-278.457	82.697	0.191	-0.207
-277.443	-10.134	0.115	-0.076
-276.428	-31.890	0.336	-0.188
-275.413	-200.000	-0.015	0.216
-274.399	126.790	0.185	0.233
-273.384	62.515	-0.137	0.136
-272.370	-20.520	0.186	0.114
-271.355	-45.881	0.181	-0.089
-270.340	69.097	-0.027	0.028
-269.326	-200.000	0.009	0.055
-268.311	800.000	0.058	-0.166
-267.297	6.372	-0.301	-0.222
-266.282	-73.092	-0.114	-0.042
-265.267	67.523	-0.176	0.179
-264.253	26.252	-0.045	0.038
-263.238	13.633	-0.336	-0.260
-262.224	-85.028	0.237	0.074
-261.209	72.467	-0.080	-0.082
-260.195	-34.229	0.083	0.045
-259.180	559.119	0.055	0.132
-258.165	-87.929	-0.302	0.090
-257.151	800.000	-0.018	-0.062
-256.136	-200.000	-0.045	0.244
-255.122	-200.000	-0.043	-0.277
-254.107	-12.677	0.388	0.252
-253.092	139.372	0.129	0.169
-252.078	263.041	0.056	-0.097
-251.063	6.340	0.052	-0.038
-250.049	41.006	0.120	-0.108
-249.034	188.437	-0.183	0.272
-248.019	-55.474	0.228	-0.102
-247.005	304.462	-0.007	0.013
-245.990	-111.504	-0.355	0.072
-244.976	-70.755	-0.087	-0.033
-243.961	382.087	-0.052	-0.105
-242.946	554.654	-0.130	-0.310
-241.932	-200.000	-0.013	0.075
-240.917	0.343	0.187	-0.132
-239.903	242.177	-0.130	-0.216
-238.888	-137.499	-0.078	-0.009
-237.873	51.462	-0.233	0.220
-236.859	108.531	-0.123	-0.146
-235.844	66.143	-0.141	0.143
-234.830	141.237	0.115	-0.151
-233.815	-128.860	0.245	-0.034
-232.800	303.250	-0.127	-0.233
-231.786	211.495	-0.243	-0.380
-230.771	59.803	0.190	0.186
-229.757	800.000	-0.043	0.132
-228.742	-200.000	-0.037	-0.268
-227.727	-3.764	0.158	-0.109
-226.713	784.816	-0.099	-0.269
-225.698	265.756	-0.054	0.093
-224.684	-33.819	0.198	0.108
-223.669	-200.000	0.165	0.000
-222.655	-200.000	-0.030	0.211
-221.640	45.699	-0.017	-0.016
-220.625	-200.000	0.026	0.385
-219.611	-37.171	0.185	-0.098
-218.596	800.000	-0.099	0.351
-217.582	-199.482	-0.082	0.000
-216.567	-145.461	-0.126	0.011
-215.552	-15.438	-0.146	0.093
-214.538	-200.000	-0.042	0.258
-213.523	-200.000	0.061	0.397
-212.509	800.000	0.070	0.299
-211.494	134.244	0.083	-0.107
-210.479	64.742	-0.185	-0.185
-209.465	444.370	-0.064	-0.139
-208.450	-200.000	-0.016	-0.132
-207.436	38.422	0.123	-0.109
-206.421	153.131	0.183	-0.249
-205.406	-41.495	-0.172	-0.088
-204.392	72.361	-0.077	0.079
-203.377	434.871	0.076	-0.164
-202.363	157.383	0.195	-0.268
-201.348	414.140	-0.074	-0.156
-200.333	155.079	-0.041	0.055
-199.319	-42.022	-0.126	-0.064
-198.304	-48.352	0.139	0.066
-197.290	-90.322	-0.315	0.091
-196.275	213.779	0.271	-0.426
-195.260	800.000	0.100	-0.334
-194.246	349.558	-0.021	0.040
-193.231	476.052	-0.026	-0.057
-192.217	-200.000	0.034	-0.158
-191.202	-68.719	0.170	-0.065
-190.187	-200.000	0.011	-0.244
-189.173	657.765	-0.197	0.502
-188.158	759.487	0.029	0.077
-187.144	68.301	-0.066	0.067
-186.129	800.000	-0.084	-0.357
-185.114	91.094	-0.143	-0.159
-184.100	-56.371	0.165	0.073
-183.085	-200.000	0.044	-0.412
-182.071	154.261	0.282	-0.384
-181.056	24.993	-0.130	0.107
-180.042	232.108	0.133	0.216
-179.027	-200.000	0.025	0.125
-178.012	-21.682	0.387	-0.234
-176.998	-200.000	0.073	-0.466
-175.983	85.125	-0.115	0.125
-174.969	-88.305	-0.128	0.038
-173.954	800.000	0.124	-0.364
-172.939	401.503	0.050	-0.105
-171.925	-200.000	0.036	0.368
-170.910	-91.827	0.220	0.062
-169.896	155.164	0.241	0.329
-168.881	197.695	-0.077	-0.116
-167.866	32.882	0.150	-0.129
-166.852	-164.609	0.245	-0.011
-165.837	-135.804	-0.258	0.030
-164.823	-142.083	-0.476	-0.047
-163.808	45.725	-0.312	-0.286
-162.793	178.016	0.117	-0.169
-161.779	-61.230	0.369	-0.154
-160.764	134.710	0.229	-0.294
-159.750	-200.000	-0.006	-0.054
-158.735	-42.260	-0.369	0.187
-157.720	57.742	0.036	-0.035
-156.706	-73.385	0.161	0.058
-155.691	-25.531	0.423	0.248
-154.677	102.514	0.014	0.016
-153.662	435.392	0.163	-0.351
-152.647	219.367	-0.185	-0.294
-151.633	-200.000	-0.011	0.056
-150.618	800.000	0.041	0.178
-149.604	155.970	0.117	-0.160
-148.589	-200.000	-0.051	-0.292
-147.574	-200.000	-0.071	-0.366
-146.560	-3.478	0.135	-0.093
-145.545	96.331	0.128	0.145
-144.531	175.642	-0.107	0.154
-143.516	83.593	-0.201	0.217
-142.502	106.559	-0.100	0.117
-141.487	800.000	-0.051	-0.140
-140.472	14.540	-0.180	-0.139
-139.458	320.847	0.201	-0.379
-138.443	564.480	0.124	0.297
-137.429	-49.311	0.291	0.137
-136.414	-164.640	-0.218	0.010
-135.399	71.825	0.251	0.258
-134.385	800.000	0.094	0.379
-133.370	-200.000	0.053	-0.341
-132.356	320.857	0.033	0.062
-131.341	-200.000	0.008	0.205
-130.326	-87.630	-0.452	0.135
-129.312	-12.948	-0.363	-0.234
-128.297	-38.217	0.089	0.047
-127.283	-33.693	-0.135	0.074
-126.268	64.014	0.130	0.129
-125.253	-135.309	0.154	0.018
-124.239	-49.572	-0.104	-0.049
-123.224	-200.000	0.030	0.194
-122.210	800.000	-0.073	0.253
-121.195	147.916	0.200	0.266
-120.180	-68.143	0.495	0.191
-119.166	-200.000	0.029	0.186
-118.151	-200.000	-0.041	-0.260
-117.137	76.033	0.152	-0.159
-116.122	-72.577	-0.053	0.019
-115.107	544.700	0.048	0.113
-114.093	207.450	0.299	-0.461
-113.078	421.617	-0.045	-0.095
-112.064	-200.000	0.037	-0.188
-111.049	-177.867	0.194	-0.005
-110.034	800.000	-0.081	-0.298
-109.020	170.748	0.078	-0.111
-108.005	-200.000	-0.024	0.115
-106.991	119.633	0.231	0.282
-105.976	800.000	0.023	0.082
-104.962	-66.120	-0.183	0.072
-103.947	-26.889	-0.152	0.088
-102.932	67.038	-0.141	-0.142
-101.918	261.933	-0.162	-0.278
-100.903	-17.718	0.117	0.073
-99.889	479.200	-0.128	-0.286
-98.874	800.000	-0.121	-0.462
-97.859	-143.674	0.114	-0.011
-96.845	-19.830	0.169	0.103
-95.830	390.690	0.228	-0.468
-94.816	-13.106	-0.082	-0.053
-93.801	179.159	-0.118	-0.171
-92.786	-105.353	-0.351	-0.079
-91.772	-24.234	0.180	0.106
-90.757	-42.858	-0.233	-0.117
-89.743	68.686	-0.198	-0.201
-88.728	31.520	0.146	0.124
-87.713	153.502	0.172	0.232
-86.699	800.000	0.054	0.176
-85.684	-73.984	-0.229	-0.082
-84.670	76.393	0.189	0.198
-83.655	-129.207	0.229	0.032
-82.640	31.842	0.056	-0.048
-81.626	-75.425	-0.277	-0.098
-80.611	326.007	0.048	0.091
-79.597	18.085	-0.354	0.279
-78.582	233.515	0.183	-0.297
-77.567	-13.279	-0.200	0.128
-76.553	-121.237	0.168	0.028
-75.538	58.989	-0.049	-0.048
-74.524	333.069	0.046	-0.087
-73.509	-52.215	0.092	0.042
-72.494	-148.840	0.024	0.002
-71.480	156.834	0.041	0.056
-70.465	292.064	-0.141	-0.254
-69.451	-75.071	-0.320	0.113
-68.436	-200.000	0.014	0.082
-67.422	160.791	0.116	0.160
-66.407	413.801	0.065	-0.136
-65.392	-200.000	0.012	0.251
-64.378	113.205	-0.229	0.274
-63.363	-58.590	0.073	0.031
-62.349	162.239	0.160	-0.221
-61.334	101.654	-0.557	-0.641
-60.319	256.974	0.186	0.315
-59.305	214.188	-0.403	-0.629
-58.290	54.539	0.844	0.803
-57.276	800.000	0.412	1.778
-56.261	-200.000	97.556	594.654
-55.246	601.627	1439.713	3529.402
-54.232	180.996	2647.650	3837.910
-53.217	117.486	2220.399	2694.623
-52.203	43.154	1746.861	1572.762
-51.188	35.810	1557.371	1350.781
-50.173	33.318	1530.733	1310.396
-49.159	52.993	1580.804	1492.057
-48.144	55.021	1598.658	1523.100
-47.130	35.990	1556.624	1351.183
-46.115	32.852	1541.254	1315.946
-45.100	32.737	1537.645	1312.010
-44.086	32.734	1535.314	1309.948
-43.071	32.609	1534.459	1308.298
-42.057	32.596	1532.371	1306.378
-41.042	32.779	1530.567	1306.058
-40.027	32.592	1529.833	1304.082
-39.013	32.619	1527.973	1302.635
-37.998	32.535	1527.502	1301.597
-36.984	32.676	1525.836	1301.103
-35.969	32.614	1524.627	1299.592
-34.954	32.643	1523.219	1298.541
-33.940	32.593	1521.504	1296.682
-32.925	32.655	1520.753	1296.414
-31.911	32.610	1518.675	1294.283
-30.896	32.743	1517.058	1293.770
-29.881	32.662	1516.228	1292.451
-28.867	32.661	1514.230	1290.690
-27.852	32.685	1512.895	1289.669
-26.838	32.696	1511.955	1288.889
-25.823	32.612	1510.453	1286.981
-24.809	32.665	1508.484	1285.614
-23.794	32.656	1507.089	1284.312
-22.779	32.681	1505.428	1283.016
-21.765	32.696	1504.084	1281.923
-20.750	32.669	1503.451	1281.149
-19.736	32.585	1502.813	1279.986
-18.721	32.630	1501.476	1279.100
-17.706	32.558	1500.560	1277.782
-16.692	32.625	1499.609	1277.373
-15.677	32.500	1498.912	1275.887
-14.663	32.517	1497.532	1274.777
-13.648	32.569	1496.870	1274.513
-12.633	32.571	1495.541	1273.346
-11.619	32.574	1495.012	1272.859
-10.604	32.528	1494.013	1271.649
-9.590	32.577	1493.105	1271.156
-8.575	32.611	1491.823	1270.245
-7.560	32.681	1490.983	1269.954
-6.546	32.545	1490.521	1268.594
-5.531	32.516	1489.427	1267.414
-4.517	32.543	1488.826	1267.033
-3.502	32.589	1487.317	1266.010
-2.487	32.594	1486.022	1264.888
-1.473	32.549	1485.381	1263.993
-0.458	32.531	1484.256	1262.866
0.556	33.235	1475.084	1254.620
1.571	31.180	1449.428	1219.285
2.586	28.323	1388.144	1149.718
3.600	26.657	1305.279	1071.152
4.615	24.809	1258.570	1022.182
5.629	20.735	1199.360	951.780
6.644	11.779	1111.061	836.055
7.659	4.817	1070.746	771.261
8.673	3.887	1064.743	762.289
9.688	4.076	1061.540	760.859
10.702	3.937	1060.342	759.249
11.717	3.970	1058.404	757.956
12.731	6.469	1061.523	772.382
13.746	14.980	1073.276	822.891
14.761	20.383	1079.761	854.451
15.775	20.048	1078.011	851.349
16.790	19.184	1076.291	845.673
17.804	18.033	1074.372	838.446
18.819	17.086	1072.711	832.432
19.834	16.809	1070.236	829.084
20.848	16.498	1069.971	827.283
21.863	16.323	1069.207	825.766
22.877	16.166	1068.407	824.307
23.892	15.991	1067.684	822.821
24.907	15.852	1066.874	821.445
25.921	15.928	1065.945	821.028
26.936	15.960	1065.215	820.548
27.950	16.024	1063.832	819.721
28.965	15.877	1063.353	818.564
29.980	15.988	1061.883	817.900
30.994	16.017	1060.983	817.277
32.009	16.248	1059.596	817.252
33.023	16.096	1059.765	816.575
34.038	16.231	1058.520	816.197
35.053	15.958	1057.957	814.372
36.067	16.009	1056.820	813.668
37.082	15.949	1055.955	812.643
38.096	16.030	1054.931	812.174
39.111	15.977	1054.455	811.479
40.126	16.117	1053.680	811.487
41.140	16.100	1051.906	809.963
42.155	15.848	1051.292	808.211
43.169	15.725	1049.978	806.542
44.184	15.838	1048.168	805.618
45.199	15.742	1047.857	804.848
46.213	15.757	1046.671	803.940
47.228	15.783	1046.028	803.497
48.242	15.937	1045.182	803.512
49.257	15.970	1044.371	802.972
50.271	15.849	1043.755	801.856
51.286	16.026	1042.399	801.581
52.301	16.009	1042.006	801.131
53.315	15.928	1040.933	799.848
54.330	15.960	1040.105	799.292
55.344	16.091	1038.565	798.659
56.359	15.785	1038.109	796.790
57.374	15.916	1037.099	796.562
58.388	15.816	1036.376	795.463
59.403	15.706	1035.867	794.485
60.417	15.609	1034.784	793.127
61.432	15.700	1033.623	792.592
62.447	15.731	1033.155	792.311
63.461	15.687	1032.424	791.471
64.476	15.505	1031.534	789.864
65.490	15.533	1030.500	789.137
66.505	15.572	1029.420	788.421
67.520	15.690	1028.625	788.294
68.534	15.774	1027.976	788.121
69.549	15.575	1027.506	786.758
70.563	15.629	1026.153	785.906
71.578	15.548	1025.922	785.284
72.593	15.434	1025.020	783.990
73.607	15.377	1024.030	782.899
74.622	15.525	1022.514	782.358
75.636	15.450	1022.145	781.659
76.651	15.526	1021.019	781.082
77.666	15.532	1020.741	780.826
78.680	15.494	1020.090	780.085
79.695	15.528	1019.400	779.645
80.709	15.609	1018.599	779.339
81.724	15.552	1018.181	778.686
82.739	15.661	1017.228	778.391
83.753	15.735	1016.359	778.001
84.768	15.851	1015.948	778.157
85.782	15.998	1015.136	778.144
86.797	16.182	1013.957	778.018
87.812	16.118	1013.234	777.101
88.826	15.927	1012.830	775.839
89.841	15.920	1011.731	774.897
90.855	16.005	1010.977	774.644
91.870	16.073	1010.266	774.343
92.884	16.030	1009.805	773.722
93.899	16.044	1008.897	773.025
94.914	16.054	1008.116	772.404
95.928	16.185	1007.384	772.374
96.943	16.304	1006.416	772.104
97.957	16.088	1005.136	770.067
98.972	16.128	1004.766	769.902
99.987	16.104	1003.853	769.026
101.001	16.059	1003.364	768.375
102.016	16.091	1002.765	767.996
103.030	16.201	1000.973	767.053
104.045	16.019	1000.616	765.887
105.060	16.064	999.758	765.367
106.074	15.961	998.583	763.931
107.089	15.869	997.562	762.665
108.103	15.825	996.701	761.741
109.118	15.683	995.922	760.436
110.133	15.569	994.972	759.131
111.147	15.652	994.135	758.797
112.162	15.643	993.189	757.966
113.176	15.549	992.536	756.978
114.191	15.629	991.692	756.628
115.206	15.793	990.328	756.259
116.220	15.798	989.810	755.818
117.235	15.696	988.818	754.534
118.249	15.768	988.294	754.390
119.264	15.631	987.543	753.139
120.279	15.747	986.426	752.741
121.293	15.623	986.121	751.885
122.308	15.666	985.016	751.167
123.322	15.593	984.099	750.078
124.337	15.547	983.031	748.991
125.352	15.669	981.455	748.268
126.366	15.494	981.021	747.090
127.381	15.492	979.612	745.944
128.395	15.461	979.148	745.387
129.410	15.616	978.025	745.155
130.424	15.692	976.957	744.609
131.439	15.659	976.298	743.894
132.454	15.720	975.616	743.579
133.468	15.853	974.638	743.355
134.483	15.610	974.781	742.326
135.497	15.739	973.598	741.930
136.512	15.700	972.956	741.202
137.527	15.886	971.643	740.955
138.541	15.816	970.927	740.035
139.556	15.639	970.918	739.184
140.570	15.750	970.283	739.122
141.585	15.962	968.821	738.875
142.600	15.979	968.877	738.926
143.614	16.180	967.296	738.536
144.629	16.069	966.966	737.731
145.643	16.068	966.383	737.218
146.658	16.089	965.266	736.391
147.673	16.065	964.175	735.391
148.687	15.862	963.297	733.769
149.702	15.858	962.354	732.970
150.716	15.753	961.499	731.797
151.731	15.783	960.906	731.413
152.746	15.879	960.115	731.163
153.760	15.808	959.612	730.406
154.775	15.895	958.630	729.971
155.789	15.893	958.114	729.506
156.804	16.021	957.306	729.378
157.819	16.135	956.231	728.990
158.833	16.073	955.711	728.260
159.848	16.266	955.164	728.613
160.862	16.225	954.742	728.048
161.877	16.115	954.062	726.992
162.892	16.181	952.635	726.123
163.906	15.919	951.529	724.090
164.921	15.909	950.943	723.535
165.935	15.935	949.541	722.516
166.950	16.001	948.696	722.092
167.964	16.031	947.941	721.581
168.979	16.042	947.063	720.897
169.994	15.922	946.046	719.546
171.008	15.836	945.619	718.793
172.023	16.073	944.700	719.041
173.037	16.119	943.972	718.620
174.052	16.130	943.146	717.975
175.067	16.090	942.734	717.428
176.081	16.130	941.086	716.280
177.096	15.998	940.756	715.406
178.110	16.001	939.894	714.696
179.125	15.936	939.037	713.705
180.140	15.885	938.609	713.104
181.154	16.072	937.656	713.106
182.169	16.159	936.750	712.724
183.183	16.199	936.329	712.509
184.198	16.396	935.878	712.933
185.213	16.157	935.364	711.468
186.227	16.168	935.081	711.239
187.242	16.316	934.075	711.034
188.256	16.382	933.135	710.534
189.271	16.536	932.451	710.598
190.286	16.511	931.590	709.772
191.300	16.131	930.880	707.574
192.315	15.877	930.355	706.048
193.329	15.809	929.356	704.944
194.344	15.800	928.964	704.545
195.359	16.163	928.095	705.342
196.373	16.104	927.694	704.727
197.388	16.248	926.833	704.613
198.402	16.451	926.904	705.452
199.417	16.373	926.829	705.007
200.432	16.635	925.890	705.321
201.446	16.583	925.533	704.773
202.461	16.700	925.404	705.097
203.475	16.646	924.915	704.440
204.490	16.673	923.901	703.715
205.504	16.535	923.067	702.444
206.519	16.550	921.988	701.623
207.534	16.312	921.527	700.225
208.548	16.362	920.753	699.782
209.563	16.447	920.011	699.507
210.577	16.623	919.232	699.581
211.592	16.417	918.764	698.313
212.607	16.591	918.272	698.595
213.621	16.697	917.863	698.657
214.636	16.720	917.081	698.096
215.650	16.525	916.667	696.915
216.665	16.590	915.697	696.386
217.680	16.898	915.281	697.273
218.694	16.791	914.811	696.412
219.709	16.709	914.327	695.645
220.723	16.777	913.943	695.570
221.738	16.741	913.065	694.693
222.753	16.875	911.962	694.341
223.767	16.715	911.513	693.284
224.782	17.019	910.500	693.698
225.796	16.979	909.930	693.035
226.811	16.869	909.535	692.224
227.826	16.852	908.680	691.445
228.840	16.876	907.606	690.665
229.855	16.894	906.710	689.996
230.869	16.876	906.486	689.689
231.884	16.771	905.928	688.775
232.899	16.739	905.016	687.891
233.913	16.666	904.496	687.141
234.928	16.710	903.453	686.467
235.942	16.615	902.740	685.479
236.957	16.596	902.249	684.965
237.972	16.669	901.353	684.523
238.986	16.814	900.667	684.527
240.001	16.683	900.237	683.611
241.015	16.666	899.634	683.022
242.030	16.797	898.651	682.745
243.045	16.762	898.465	682.400
244.059	16.870	897.961	682.393
245.074	16.797	897.170	681.439
246.088	16.941	896.502	681.449
247.103	17.064	896.199	681.654
248.117	17.006	895.581	680.891
249.132	17.205	894.863	681.082
250.147	17.194	894.741	680.885
251.161	17.256	894.221	680.676
252.176	17.410	893.324	680.548
253.190	17.446	892.838	680.263
254.205	17.379	892.242	679.482
255.220	17.467	891.680	679.342
256.234	17.647	890.952	679.448
257.249	17.488	890.472	678.385
258.263	17.474	889.827	677.779
259.278	17.578	889.243	677.688
260.293	17.589	888.452	677.068
261.307	17.605	888.258	676.924
262.322	17.680	887.179	676.342
263.336	17.630	887.119	676.035
264.351	17.693	886.127	675.471
265.366	17.655	885.633	674.884
266.380	17.759	885.000	674.755
267.395	17.696	884.460	674.031
268.409	17.637	883.531	673.034
269.424	17.759	882.588	672.737
270.439	17.622	882.029	671.711
271.453	17.580	881.132	670.803
272.468	17.530	880.491	670.058
273.482	17.546	879.876	669.594
274.497	17.565	879.165	669.066
275.512	17.542	878.594	668.484
276.526	17.633	877.956	668.297
277.541	17.581	877.270	667.512
278.555	17.497	876.719	666.705
279.570	17.721	876.538	667.383
280.585	17.918	875.414	667.241
281.599	17.931	874.981	666.900
282.614	17.719	874.500	665.648
283.628	17.584	873.928	664.626
284.643	17.601	873.372	664.213
285.657	17.726	872.521	663.992
286.672	17.867	871.999	664.085
287.687	17.808	871.730	663.590
288.701	17.672	871.343	662.711
289.716	17.702	870.707	662.283
290.730	17.742	869.967	661.818
291.745	17.776	869.227	661.327
292.760	17.916	868.237	661.056
293.774	17.820	867.628	660.165
294.789	17.982	867.517	660.649
295.803	17.968	866.640	659.868
296.818	17.980	866.061	659.417
297.833	17.877	865.260	658.350
298.847	17.936	864.388	657.854
299.862	17.960	864.052	657.636
300.876	17.880	863.566	656.898
301.891	17.942	862.550	656.304
302.906	18.066	862.220	656.471
303.920	18.074	861.607	655.977
304.935	18.231	860.665	655.803
305.949	18.233	860.606	655.711
306.964	18.254	859.946	655.231
307.979	18.248	859.621	654.900
308.993	18.172	858.890	653.996
310.008	18.373	857.758	653.845
311.022	18.307	857.565	653.386
312.037	18.290	857.150	652.948
313.052	18.238	856.309	652.051
314.066	18.177	855.586	651.208
315.081	18.054	854.905	650.166
316.095	17.984	854.660	649.657
317.110	18.066	853.772	649.233
318.125	18.056	853.069	648.605
319.139	17.908	853.384	648.226
320.154	18.110	852.429	648.209
321.168	17.950	852.123	647.313
322.183	18.233	851.276	647.682
323.197	18.129	850.869	646.923
324.212	18.143	850.217	646.420
325.227	18.121	849.744	645.923
326.241	18.147	849.284	645.613
327.256	18.149	848.693	645.114
328.270	18.180	848.202	644.801
329.285	18.054	847.578	643.794
330.300	18.033	847.133	643.321
331.314	17.995	846.633	642.743
332.329	18.243	845.495	642.753
333.343	18.245	845.248	642.515
334.358	18.304	844.833	642.364
335.373	18.395	844.420	642.333
336.387	18.414	843.528	641.669
337.402	18.433	843.197	641.434
338.416	18.388	842.900	640.982
339.431	18.582	841.951	640.930
340.446	18.827	841.210	641.222
341.460	18.781	840.896	640.753
342.475	18.614	840.453	639.740
343.489	18.756	839.994	639.861
344.504	18.837	839.337	639.607
345.519	18.654	839.204	638.765
346.533	18.906	838.167	638.858
347.548	18.740	837.838	637.934
348.562	18.793	837.278	637.646
349.577	18.757	836.596	636.937
350.592	18.641	835.737	635.798
351.606	18.571	835.478	635.285
352.621	18.556	835.222	634.978
353.635	18.502	834.313	634.030
354.650	18.511	834.438	634.103
355.665	18.641	834.056	634.239
356.679	18.707	833.320	633.865
357.694	18.724	832.874	633.532
358.708	18.784	832.080	633.094
359.723	18.705	831.717	632.470
360.738	18.743	831.120	632.102
361.752	18.733	830.950	631.878
362.767	18.890	830.266	631.881
363.781	18.861	830.321	631.761
364.796	19.107	829.393	631.903
365.810	19.047	829.058	631.370
366.825	19.141	828.639	631.338
367.840	19.107	828.523	631.069
368.854	19.124	828.227	630.853
369.869	19.088	827.567	630.160
370.883	19.113	826.861	629.661
371.898	19.120	826.319	629.218
372.913	18.966	825.944	628.313
373.927	19.102	824.891	627.953
374.942	19.183	824.188	627.657
375.956	19.081	823.727	626.878
376.971	19.151	823.528	626.925
377.986	19.251	822.981	626.817
379.000	19.367	822.343	626.698
380.015	19.383	821.697	626.207
381.029	19.302	821.235	625.507
382.044	19.299	820.776	625.093
383.059	19.346	820.202	624.771
384.073	19.267	819.679	624.030
385.088	19.436	818.903	623.996
386.102	19.248	818.383	622.862
387.117	19.229	817.482	622.054
388.132	19.067	817.034	621.073
389.146	19.181	816.778	621.237
390.161	19.384	815.985	621.309
391.175	19.328	816.029	621.088
392.190	19.385	815.675	620.966
393.205	19.371	815.019	620.361
394.219	19.193	814.864	619.550
395.234	19.354	814.162	619.541
396.248	19.309	813.594	618.892
397.263	19.115	813.420	618.006
398.278	19.137	812.883	617.623
399.292	19.125	812.330	617.104
400.307	19.132	811.731	616.619
401.321	19.197	811.518	616.636
402.336	19.091	811.189	615.953
403.350	19.205	810.792	616.004
404.365	19.238	810.401	615.771
405.380	19.339	810.007	615.777
406.394	19.577	809.181	615.946
407.409	19.626	809.084	615.992
408.423	19.886	808.273	616.244
409.438	19.630	808.471	615.431
410.453	19.650	807.602	614.784
411.467	19.594	807.460	614.423
412.482	19.739	806.723	614.323
413.496	19.797	806.506	614.310
414.511	19.821	805.849	613.840
415.526	19.927	805.356	613.787
416.540	19.905	805.132	613.483
417.555	19.863	804.983	613.167
418.569	19.839	804.124	612.375
419.584	19.742	803.424	611.441
420.599	19.812	803.450	611.655
421.613	156.980	1370.674	1790.725
422.628	136.245	1453.331	1790.789
