DTS Sentinel unit serial number:	SN413079Multiplexer serial number:	ORYXHardware model number:	OX4-SRSoftware version number:	ORYX F/W v4.00 Oryx Data Collector v3.7.2.0data status	okinstallation	princeton_trtdifferential loss correction	single-endedforward channel	channel 3reverse channel	N/Adate	2019/09/19time	14:28:35forward acquisition time	60.00reverse acquisition time	0.00gamma	496.2192k internal	0.2320k external	0.2320temperature offset calibration	1.0006default loss term (dB/km)	0.3790temperature slope calibration	1.0000multiplexer offset coefficient	1.0000multiplexer slope coefficient	1.0000fibre end	0.00T internal ref (°C)	32.12T ext. ref 1 (°C)	1.07T ext. ref 2 (°C)	29.30length (m)	temperature (°C)	Stokes	anti-Stokes-747.200	-200.000	0.077	0.382
-746.185	233.996	0.085	0.141
-745.171	147.802	0.149	0.204
-744.156	279.531	-0.249	0.450
-743.142	134.247	0.033	-0.043
-742.127	548.604	-0.157	0.380
-741.112	482.425	0.090	0.206
-740.098	-84.849	0.142	0.045
-739.083	-86.441	0.158	-0.049
-738.069	-167.427	-0.295	0.012
-737.054	134.387	0.064	-0.084
-736.039	800.000	0.024	-0.107
-735.025	-108.571	0.162	-0.035
-734.010	44.909	-0.233	0.217
-732.996	-200.000	0.348	-0.001
-731.981	-62.885	-0.282	0.118
-730.966	73.540	0.092	-0.098
-729.952	20.461	-0.150	0.123
-728.937	-200.000	0.037	-0.274
-727.923	-37.873	-0.274	0.147
-726.908	-22.335	0.254	-0.156
-725.894	-29.815	-0.217	-0.125
-724.879	18.378	-0.129	-0.104
-723.864	49.359	0.144	0.137
-722.850	-200.000	0.003	-0.424
-721.835	-91.857	-0.090	-0.026
-720.821	-36.550	0.154	-0.084
-719.806	130.081	-0.188	-0.243
-718.791	21.190	0.233	-0.191
-717.777	-131.662	0.128	-0.017
-716.762	660.721	-0.054	-0.141
-715.748	-200.000	-0.011	0.095
-714.733	-58.554	0.084	0.037
-713.718	248.430	0.054	-0.093
-712.704	-108.252	0.109	0.024
-711.689	-156.695	0.149	-0.009
-710.675	-36.945	-0.384	-0.208
-709.660	232.229	0.099	-0.165
-708.645	-200.000	-0.005	-0.244
-707.631	-98.649	0.398	-0.103
-706.616	-90.055	0.422	-0.124
-705.602	-90.934	-0.268	-0.078
-704.587	-118.183	0.166	0.030
-703.572	-52.398	-0.135	0.063
-702.558	-79.737	-0.131	0.044
-701.543	-36.347	0.190	-0.103
-700.529	800.000	0.089	-0.303
-699.514	-200.000	0.006	-0.221
-698.499	-6.787	0.227	-0.156
-697.485	-67.008	0.283	-0.113
-696.470	-200.000	0.024	-0.120
-695.456	274.237	-0.137	-0.245
-694.441	28.538	-0.214	0.183
-693.426	800.000	0.097	-0.375
-692.412	686.323	0.028	0.075
-691.397	-112.695	-0.151	-0.030
-690.383	-72.683	0.252	-0.094
-689.368	637.375	-0.082	0.210
-688.354	-200.000	0.001	0.178
-687.339	382.087	0.156	-0.324
-686.324	-46.013	-0.031	-0.015
-685.310	397.521	0.073	-0.154
-684.295	700.647	-0.142	-0.377
-683.281	-200.000	-0.012	-0.132
-682.266	-200.000	0.047	-0.364
-681.251	110.499	-0.194	0.235
-680.237	286.682	0.124	-0.225
-679.222	800.000	0.035	0.122
-678.208	19.863	0.123	-0.100
-677.193	800.000	-0.106	-0.341
-676.178	32.213	0.223	-0.194
-675.164	224.903	0.073	0.119
-674.149	8.499	0.118	-0.090
-673.135	-23.128	-0.101	-0.061
-672.120	-44.533	0.109	0.055
-671.105	211.070	-0.290	0.460
-670.091	800.000	-0.058	0.246
-669.076	-194.089	-0.169	0.001
-668.062	171.692	0.010	-0.015
-667.047	-38.181	-0.108	0.058
-666.032	470.409	0.071	0.160
-665.018	-156.213	0.156	0.010
-664.003	-200.000	-0.039	-0.348
-662.989	-132.928	0.203	0.026
-661.974	-200.000	-0.056	0.363
-660.959	-25.104	-0.151	0.090
-659.945	-32.210	-0.481	0.271
-658.930	-119.716	0.269	0.047
-657.916	-48.155	0.166	0.081
-656.901	-145.351	0.187	0.017
-655.886	53.516	0.310	0.300
-654.872	544.750	-0.059	-0.141
-653.857	-135.615	0.102	0.012
-652.843	-43.031	0.450	0.230
-651.828	-200.000	0.003	-0.094
-650.814	800.000	0.056	-0.161
-649.799	-83.972	-0.364	-0.117
-648.784	152.644	-0.141	0.194
-647.770	-200.000	0.019	-0.095
-646.755	133.646	0.137	-0.178
-645.741	-200.000	-0.024	-0.403
-644.726	-152.153	-0.127	-0.009
-643.711	-142.221	-0.507	-0.051
-642.697	800.000	0.095	-0.307
-641.682	-6.010	-0.148	0.102
-640.668	-9.879	0.333	-0.223
-639.653	19.847	-0.131	-0.106
-638.638	397.845	-0.166	0.349
-637.624	-200.000	0.035	-0.197
-636.609	329.643	-0.173	-0.335
-635.595	-139.225	-0.233	-0.025
-634.580	-58.688	0.076	0.033
-633.565	-47.786	0.110	0.053
-632.551	245.960	-0.170	0.289
-631.536	-102.265	-0.183	0.044
-630.522	800.000	-0.074	-0.258
-629.507	-119.762	-0.394	-0.068
-628.492	-200.000	0.020	-0.303
-627.478	417.571	-0.096	0.206
-626.463	-22.383	0.107	0.065
-625.449	-200.000	0.034	0.213
-624.434	47.026	0.107	0.100
-623.419	-28.695	-0.289	-0.167
-622.405	-45.706	-0.144	0.072
-621.390	-88.141	-0.035	0.011
-620.376	-64.680	0.139	0.057
-619.361	-172.279	-0.226	-0.007
-618.346	33.589	0.163	0.143
-617.332	-112.199	0.275	-0.056
-616.317	158.348	-0.076	0.106
-615.303	-200.000	0.035	0.375
-614.288	-100.268	0.295	-0.074
-613.273	-116.907	0.363	0.067
-612.259	-54.295	-0.360	0.165
-611.244	-107.989	0.365	-0.080
-610.230	-200.000	0.002	-0.290
-609.215	101.003	-0.082	-0.096
-608.201	-200.000	-0.007	-0.136
-607.186	-96.995	0.249	-0.066
-606.171	125.631	-0.243	-0.309
-605.157	-200.000	-0.037	0.292
-604.142	329.010	0.067	0.130
-603.128	-200.000	0.028	0.226
-602.113	46.413	-0.191	-0.179
-601.098	-129.965	-0.271	-0.037
-600.084	434.034	0.125	-0.273
-599.069	-32.459	-0.032	0.018
-598.055	223.098	0.113	-0.182
-597.040	38.344	0.146	0.131
-596.025	-107.970	-0.177	-0.039
-595.011	-49.840	-0.197	-0.094
-593.996	187.354	0.148	-0.221
-592.982	-200.000	0.008	0.158
-591.967	416.986	-0.042	0.090
-590.952	-106.717	0.190	0.042
-589.938	17.171	0.092	-0.073
-588.923	-41.566	0.304	-0.157
-587.909	78.403	0.101	-0.109
-586.894	-200.000	-0.061	-0.287
-585.879	38.295	-0.105	0.094
-584.865	439.624	-0.094	0.205
-583.850	800.000	0.057	-0.203
-582.836	-56.233	-0.234	0.105
-581.821	388.171	0.135	0.280
-580.806	597.750	0.151	0.375
-579.792	-97.441	0.124	-0.032
-578.777	475.623	-0.069	-0.158
-577.763	28.015	-0.372	-0.315
-576.748	200.253	-0.089	0.137
-575.733	350.018	0.143	0.285
-574.719	800.000	-0.030	0.091
-573.704	41.597	0.372	0.338
-572.690	205.593	-0.122	0.191
-571.675	-200.000	-0.002	0.162
-570.661	-104.627	0.159	-0.037
-569.646	54.551	-0.065	-0.063
-568.631	800.000	-0.016	-0.063
-567.617	-200.000	0.012	0.099
-566.602	-49.907	-0.147	0.070
-565.588	-200.000	-0.001	-0.091
-564.573	-21.809	0.140	0.086
-563.558	800.000	0.009	0.031
-562.544	0.594	0.135	-0.097
-561.529	-0.325	-0.256	-0.183
-560.515	-31.065	-0.502	0.284
-559.500	-21.084	0.072	0.044
-558.485	-128.819	0.330	0.047
-557.471	26.371	-0.270	0.226
-556.456	60.444	0.158	-0.157
-555.442	-105.288	-0.270	-0.062
-554.427	38.679	-0.292	-0.262
-553.412	-58.202	0.036	0.016
-552.398	-200.000	0.013	-0.083
-551.383	800.000	-0.072	-0.262
-550.369	21.411	0.227	-0.185
-549.354	5.234	0.174	0.129
-548.339	435.486	-0.098	-0.214
-547.325	800.000	-0.038	0.150
-546.310	74.161	0.084	-0.089
-545.296	800.000	0.045	-0.126
-544.281	-200.000	0.010	-0.233
-543.266	-200.000	0.056	-0.248
-542.252	-19.576	-0.285	0.177
-541.237	144.156	0.098	-0.131
-540.223	402.887	-0.134	0.282
-539.208	-200.000	0.020	-0.112
-538.193	326.578	0.167	0.322
-537.179	-138.412	0.150	-0.017
-536.164	-200.000	0.032	0.432
-535.150	474.642	-0.135	-0.305
-534.135	159.084	-0.297	-0.414
-533.121	-200.000	-0.059	0.317
-532.106	-18.591	-0.186	-0.116
-531.091	-37.077	-0.170	-0.091
-530.077	-80.775	-0.218	-0.073
-529.062	-53.008	-0.353	-0.163
-528.048	-200.000	0.026	0.178
-527.033	-104.898	0.099	-0.023
-526.018	-44.039	-0.280	0.141
-525.004	-181.378	0.131	0.003
-523.989	277.801	-0.102	-0.181
-522.975	-200.000	-0.036	0.213
-521.960	-107.181	-0.212	-0.047
-520.945	-200.000	0.042	0.344
-519.931	599.838	-0.066	0.165
-518.916	800.000	-0.042	0.149
-517.902	50.935	0.151	0.143
-516.887	753.912	0.119	-0.323
-515.872	-200.000	-0.022	-0.211
-514.858	-100.015	-0.122	-0.031
-513.843	-96.174	0.287	-0.076
-512.829	-48.837	0.071	0.034
-511.814	-123.029	-0.264	-0.043
-510.799	-7.496	0.025	-0.017
-509.785	-100.295	0.145	0.036
-508.770	-95.408	0.142	0.038
-507.756	146.572	0.071	-0.096
-506.741	-123.604	0.055	-0.009
-505.726	175.769	-0.069	-0.100
-504.712	45.619	0.159	-0.147
-503.697	43.695	-0.284	0.260
-502.683	-97.651	-0.166	0.043
-501.668	-78.814	-0.121	-0.041
-500.653	-23.041	-0.054	-0.032
-499.639	-200.000	-0.012	0.259
-498.624	92.953	-0.123	0.139
-497.610	-36.185	0.132	0.071
-496.595	56.360	-0.234	0.228
-495.581	243.778	0.104	-0.175
-494.566	800.000	0.043	0.155
-493.551	405.982	0.122	0.257
-492.537	800.000	-0.065	0.267
-491.522	181.962	-0.118	0.174
-490.508	4.674	-0.017	0.013
-489.493	-200.000	0.027	-0.171
-488.478	-68.793	0.144	0.056
-487.464	-132.250	0.181	0.023
-486.449	-200.000	0.092	0.421
-485.435	-115.350	-0.208	0.039
-484.420	194.193	-0.131	-0.199
-483.405	-109.821	0.285	-0.060
-482.391	-200.000	0.007	0.037
-481.376	-200.000	-0.013	0.110
-480.362	-114.835	-0.184	-0.035
-479.347	-169.961	0.258	-0.009
-478.332	-81.692	-0.201	0.066
-477.318	357.637	0.111	0.222
-476.303	17.499	-0.189	0.150
-475.289	-200.000	-0.200	-0.000
-474.274	-200.000	-0.009	0.060
-473.259	800.000	0.028	-0.093
-472.245	16.451	-0.139	-0.110
-471.230	-78.051	-0.190	-0.066
-470.216	-200.000	0.011	-0.218
-469.201	800.000	0.008	0.034
-468.186	118.451	0.013	0.016
-467.172	-185.771	-0.397	-0.006
-466.157	217.667	-0.073	-0.117
-465.143	-200.000	0.003	0.160
-464.128	-40.168	0.240	0.125
-463.113	128.697	-0.327	0.417
-462.099	97.588	0.076	0.087
-461.084	-200.000	-0.012	-0.210
-460.070	-4.441	0.111	-0.076
-459.055	93.086	0.140	-0.158
-458.040	800.000	-0.133	-0.464
-457.026	-200.000	0.058	0.438
-456.011	59.571	0.095	0.094
-454.997	289.220	0.119	0.215
-453.982	-200.000	0.043	-0.210
-452.968	-147.450	0.183	-0.015
-451.953	-146.930	0.141	-0.012
-450.938	-86.629	0.196	0.060
-449.924	-200.000	0.047	0.221
-448.909	-124.856	0.292	-0.045
-447.895	-200.000	-0.055	-0.312
-446.880	-200.000	-0.009	-0.259
-445.865	120.249	0.116	-0.144
-444.851	-200.000	-0.032	-0.244
-443.836	-200.000	-0.040	-0.290
-442.822	20.941	-0.131	-0.106
-441.807	135.905	-0.102	-0.133
-440.792	42.924	-0.319	-0.290
-439.778	-143.037	-0.156	-0.015
-438.763	40.787	0.096	0.086
-437.749	-152.068	-0.242	-0.018
-436.734	-129.069	-0.131	-0.018
-435.719	382.791	0.053	0.110
-434.705	-60.218	0.126	-0.054
-433.690	800.000	-0.037	-0.112
-432.676	-173.112	-0.276	-0.008
-431.661	-200.000	-0.001	-0.122
-430.646	265.528	0.101	0.176
-429.632	-200.000	-0.017	0.161
-428.617	-141.735	-0.233	0.023
-427.603	-24.787	-0.053	-0.031
-426.588	393.082	-0.091	0.189
-425.573	140.961	-0.107	-0.141
-424.559	493.179	-0.095	-0.217
-423.544	-200.000	0.016	0.216
-422.530	195.938	-0.033	-0.050
-421.515	107.336	-0.169	0.201
-420.500	800.000	0.026	0.073
-419.486	502.848	0.050	-0.114
-418.471	152.958	0.204	-0.279
-417.457	-128.037	-0.101	0.014
-416.442	87.219	0.227	-0.250
-415.428	136.379	-0.125	0.163
-414.413	-65.423	0.366	0.147
-413.398	-118.616	-0.342	0.060
-412.384	-80.441	0.165	0.055
-411.369	-76.665	0.177	-0.062
-410.355	-19.216	-0.242	-0.150
-409.340	-129.753	0.210	-0.029
-408.325	285.319	0.151	-0.271
-407.311	89.288	0.154	-0.171
-406.296	-7.720	0.096	-0.065
-405.282	-200.000	0.065	0.366
-404.267	-78.228	-0.129	0.044
-403.252	119.450	0.063	-0.077
-402.238	-115.433	-0.222	0.042
-401.223	283.090	-0.178	0.319
-400.209	128.978	-0.123	0.157
-399.194	-200.000	0.020	0.243
-398.179	101.191	-0.119	0.138
-397.165	-200.000	-0.057	0.323
-396.150	-103.602	0.098	0.023
-395.136	-75.470	0.130	-0.046
-394.121	-128.000	-0.228	-0.033
-393.106	-83.161	0.180	-0.058
-392.092	-64.921	-0.152	0.061
-391.077	39.979	-0.073	0.065
-390.063	122.954	0.098	0.123
-389.048	40.303	0.102	-0.092
-388.033	-22.918	0.103	-0.062
-387.019	-54.728	-0.415	-0.187
-386.004	8.526	-0.123	0.092
-384.990	-200.000	-0.010	-0.126
-383.975	215.534	-0.145	0.230
-382.960	-83.889	-0.090	-0.028
-381.946	238.607	-0.043	-0.071
-380.931	118.324	-0.101	-0.124
-379.917	-57.329	0.053	-0.023
-378.902	7.850	0.149	-0.111
-377.888	-75.166	-0.077	0.027
-376.873	-144.567	-0.193	-0.018
-375.858	-7.152	0.203	-0.137
-374.844	504.676	0.066	-0.151
-373.829	148.279	-0.081	-0.109
-372.815	467.401	-0.046	-0.103
-371.800	32.657	-0.102	0.088
-370.785	116.984	0.075	-0.092
-369.771	-200.000	-0.011	-0.106
-368.756	0.559	0.325	-0.231
-367.742	-200.000	-0.037	-0.224
-366.727	-200.000	-0.004	-0.071
-365.712	-200.000	-0.077	0.378
-364.698	17.305	0.099	-0.079
-363.683	-114.734	0.148	0.028
-362.669	-141.607	0.128	-0.013
-361.654	-128.967	0.238	0.033
-360.639	77.427	0.117	-0.124
-359.625	-18.144	0.369	-0.230
-358.610	-166.534	0.084	-0.004
-357.596	-71.247	0.042	-0.016
-356.581	29.397	-0.089	0.075
-355.566	800.000	-0.014	-0.053
-354.552	47.878	-0.126	0.117
-353.537	-47.242	0.309	0.150
-352.523	136.662	0.168	0.219
-351.508	265.079	0.152	-0.265
-350.493	-135.773	-0.339	-0.040
-349.479	309.524	0.077	-0.143
-348.464	684.879	0.148	-0.385
-347.450	-200.000	-0.024	-0.235
-346.435	-80.827	-0.396	-0.131
-345.420	-166.105	0.337	0.014
-344.406	800.000	0.018	0.062
-343.391	800.000	-0.072	-0.226
-342.377	161.375	-0.081	0.113
-341.362	-148.382	0.180	0.015
-340.348	-62.476	0.207	0.086
-339.333	16.792	0.049	0.038
-338.318	207.226	0.046	0.072
-337.304	-134.069	0.448	-0.055
-336.289	-99.521	-0.193	0.048
-335.275	678.022	-0.057	-0.147
-334.260	115.414	0.193	0.234
-333.245	-61.448	-0.169	0.071
-332.231	-147.975	0.267	0.022
-331.216	-173.205	-0.083	0.003
-330.202	699.551	-0.043	-0.112
-329.187	-200.000	-0.013	-0.232
-328.172	57.657	0.038	0.037
-327.158	800.000	0.119	0.391
-326.143	-51.043	0.193	0.090
-325.129	649.069	0.051	0.131
-324.114	645.321	0.068	0.172
-323.099	-60.238	-0.321	0.136
-322.085	-200.000	0.026	-0.213
-321.070	-84.748	0.053	0.017
-320.056	110.906	0.186	0.223
-319.041	0.568	-0.198	0.141
-318.026	-31.873	0.136	0.076
-317.012	39.153	0.117	-0.104
-315.997	800.000	0.040	0.132
-314.983	169.995	-0.099	-0.141
-313.968	43.231	-0.254	-0.231
-312.953	-128.698	0.349	0.049
-311.939	462.645	0.119	0.264
-310.924	-200.000	0.011	-0.323
-309.910	107.314	0.023	-0.027
-308.895	-188.391	-0.500	-0.006
-307.880	766.103	-0.053	0.144
-306.866	-1.226	0.463	0.325
-305.851	120.673	0.209	0.258
-304.837	142.619	0.053	-0.070
-303.822	271.220	-0.126	-0.220
-302.807	-40.759	0.067	-0.034
-301.793	114.651	0.243	0.294
-300.778	-200.000	0.042	-0.401
-299.764	352.502	-0.175	-0.345
-298.749	-122.256	-0.102	0.017
-297.735	800.000	0.169	0.525
-296.720	116.581	-0.105	-0.128
-295.705	-200.000	0.002	-0.058
-294.691	-0.111	-0.067	0.047
-293.676	-84.914	0.132	0.041
-292.662	-74.746	-0.415	0.148
-291.647	-94.292	0.204	0.055
-290.632	-137.630	0.154	-0.017
-289.618	-130.144	0.293	0.040
-288.603	39.211	0.104	-0.092
-287.589	219.281	-0.041	-0.065
-286.574	-200.000	-0.031	0.247
-285.559	92.962	-0.235	-0.264
-284.545	-71.000	-0.132	0.049
-283.530	-105.872	-0.180	0.040
-282.516	-119.400	-0.414	0.071
-281.501	137.957	0.033	-0.042
-280.486	-200.000	-0.045	0.204
-279.472	-13.935	-0.212	0.136
-278.457	800.000	0.065	0.231
-277.443	-119.846	0.152	-0.026
-276.428	-115.756	-0.179	-0.033
-275.413	10.946	-0.308	-0.233
-274.399	-88.127	0.284	-0.085
-273.384	-101.932	-0.166	0.040
-272.370	83.175	-0.057	-0.062
-271.355	224.175	-0.072	-0.116
-270.340	-80.681	0.185	0.061
-269.326	-108.772	-0.199	0.042
-268.311	-18.957	-0.096	0.059
-267.297	338.490	0.112	-0.217
-266.282	286.957	0.113	-0.203
-265.267	337.575	0.129	-0.249
-264.253	-49.080	0.182	0.087
-263.238	-200.000	0.018	0.183
-262.224	344.090	0.043	0.084
-261.209	231.744	0.140	0.228
-260.195	-15.730	-0.180	0.114
-259.180	-125.653	0.338	0.051
-258.165	-2.956	0.080	0.056
-257.151	-120.423	0.378	-0.064
-256.136	-169.517	0.095	-0.003
-255.122	538.907	-0.082	0.193
-254.107	-200.000	0.020	0.466
-253.092	-37.914	-0.174	-0.092
-252.078	-200.000	-0.035	0.402
-251.063	-97.755	-0.207	0.053
-250.049	-120.895	0.291	-0.049
-249.034	289.698	0.068	-0.123
-248.019	-116.541	0.377	-0.069
-247.005	-33.427	-0.216	0.118
-245.990	-200.000	0.032	-0.276
-244.976	800.000	-0.039	0.162
-243.961	147.081	0.180	-0.241
-242.946	64.815	0.234	0.234
-241.932	-10.598	-0.149	-0.098
-240.917	800.000	-0.018	0.075
-239.903	768.882	0.063	-0.169
-238.888	-122.333	0.152	-0.025
-237.873	114.617	-0.215	-0.260
-236.859	-33.063	0.245	0.135
-235.844	-200.000	0.031	-0.147
-234.830	-200.000	-0.016	-0.072
-233.815	-54.047	0.109	0.049
-232.800	-85.084	0.265	0.082
-231.786	-200.000	-0.019	-0.157
-230.771	376.121	0.018	-0.036
-229.757	1.684	0.155	-0.111
-228.742	10.127	-0.058	0.044
-227.727	-68.455	0.026	-0.010
-226.713	-119.646	-0.262	0.045
-225.698	13.657	0.097	-0.074
-224.684	-200.000	0.014	-0.244
-223.669	-125.484	0.294	0.044
-222.655	-24.002	0.400	-0.237
-221.640	-200.000	-0.004	-0.111
-220.625	24.571	0.129	-0.106
-219.611	-17.501	-0.249	-0.155
-218.596	-57.167	0.154	-0.067
-217.582	-200.000	0.010	0.375
-216.567	-100.340	0.131	-0.032
-215.552	800.000	-0.124	0.381
-214.538	-200.000	0.017	0.092
-213.523	-129.365	0.228	-0.031
-212.509	-107.043	0.297	-0.065
-211.494	-99.785	0.197	0.049
-210.479	-12.164	0.103	0.067
-209.465	-67.544	0.159	-0.062
-208.450	-23.812	-0.282	-0.167
-207.436	14.521	-0.263	-0.203
-206.421	-152.194	-0.235	0.017
-205.406	-188.800	0.185	-0.002
-204.392	35.177	-0.146	-0.127
-203.377	-75.765	0.070	0.025
-202.363	-79.559	-0.598	0.200
-201.348	-200.000	-0.022	0.314
-200.333	-60.896	-0.021	0.009
-199.319	-200.000	-0.017	-0.260
-198.304	104.711	0.300	0.350
-197.290	137.184	0.047	0.061
-196.275	376.720	-0.095	0.193
-195.260	-200.000	-0.007	0.059
-194.246	-176.433	-0.032	-0.001
-193.231	-113.314	-0.323	0.063
-192.217	0.644	-0.310	-0.219
-191.202	52.697	0.163	-0.154
-190.187	293.329	-0.061	0.110
-189.173	800.000	0.071	-0.216
-188.158	-200.000	-0.031	-0.569
-187.144	-200.000	-0.020	0.148
-186.129	-65.119	-0.062	0.025
-185.114	-158.224	0.301	-0.017
-184.100	102.058	0.236	0.272
-183.085	-200.000	0.038	-0.209
-182.071	31.881	0.124	0.106
-181.056	99.599	-0.174	-0.200
-180.042	513.133	0.065	-0.150
-179.027	263.323	-0.135	0.232
-178.012	120.901	0.092	0.114
-176.998	-76.726	-0.184	0.064
-175.983	-9.411	-0.079	-0.052
-174.969	800.000	-0.044	0.182
-173.954	271.313	0.134	0.234
-172.939	-65.992	0.164	-0.065
-171.925	800.000	-0.065	0.262
-170.910	50.638	0.062	-0.058
-169.896	-200.000	0.015	0.108
-168.881	513.274	0.072	-0.166
-167.866	372.824	-0.088	-0.178
-166.852	800.000	0.017	-0.051
-165.837	-38.911	-0.335	0.174
-164.823	197.814	0.159	-0.241
-163.808	-200.000	0.006	-0.061
-162.793	-64.642	0.125	-0.050
-161.779	-24.172	0.201	0.118
-160.764	688.688	0.120	0.311
-159.750	-200.000	0.059	0.322
-158.735	-130.573	-0.221	-0.029
-157.720	292.080	-0.078	0.140
-156.706	186.849	-0.082	0.121
-155.691	-122.081	-0.137	0.022
-154.677	18.194	0.092	-0.072
-153.662	-200.000	0.026	-0.232
-152.647	89.557	0.201	-0.222
-151.633	216.016	0.073	-0.115
-150.618	552.834	0.058	-0.138
-149.604	24.955	0.146	0.119
-148.589	179.896	0.122	-0.177
-147.574	-105.808	0.119	-0.027
-146.560	-49.393	-0.397	0.187
-145.545	196.179	0.254	-0.381
-144.531	-19.900	0.097	0.059
-143.516	143.994	-0.173	0.228
-142.502	174.448	0.188	-0.269
-141.487	-97.109	-0.098	-0.025
-140.472	800.000	0.025	-0.081
-139.458	-120.341	-0.190	-0.032
-138.443	-200.000	0.028	0.433
-137.429	593.882	-0.037	-0.091
-136.414	-200.000	0.004	-0.201
-135.399	374.365	0.124	-0.250
-134.385	57.184	0.112	-0.108
-133.370	-200.000	0.012	0.119
-132.356	49.979	0.134	0.125
-131.341	-123.453	-0.217	-0.034
-130.326	-124.417	-0.076	0.012
-129.312	26.345	0.150	-0.124
-128.297	703.156	0.054	-0.141
-127.283	16.092	0.280	-0.218
-126.268	-92.104	0.276	-0.077
-125.253	356.687	-0.051	-0.101
-124.239	405.669	0.177	-0.369
-123.224	-112.762	-0.129	0.025
-122.210	-35.052	0.325	-0.175
-121.195	-200.000	0.025	0.214
-120.180	800.000	-0.073	0.284
-119.166	104.935	-0.134	-0.156
-118.151	1.305	-0.112	0.079
-117.137	800.000	-0.092	-0.371
-116.122	793.752	0.044	0.118
-115.107	693.865	0.198	0.513
-114.093	-200.000	0.010	0.057
-113.078	-157.043	0.245	0.015
-112.064	-1.465	-0.131	-0.091
-111.049	-43.008	0.146	-0.073
-110.034	800.000	-0.078	-0.243
-109.020	65.196	-0.406	0.405
-108.005	-200.000	-0.018	-0.198
-106.991	800.000	-0.084	-0.239
-105.976	261.562	0.131	0.223
-104.962	10.598	-0.120	-0.090
-103.947	52.749	0.227	-0.214
-102.932	-2.499	-0.209	-0.145
-101.918	-34.115	0.190	-0.103
-100.903	-157.478	-0.282	0.017
-99.889	-27.024	-0.183	-0.106
-98.874	-86.332	-0.251	-0.076
-97.859	-72.655	0.152	0.055
-96.845	-87.451	-0.254	-0.076
-95.830	-20.766	-0.244	-0.148
-94.816	64.458	0.178	0.177
-93.801	800.000	-0.055	0.155
-92.786	-46.006	-0.182	-0.089
-91.772	151.997	0.123	-0.166
-90.757	-81.124	-0.105	-0.034
-89.743	-200.000	0.004	-0.187
-88.728	-75.748	-0.083	-0.029
-87.713	177.252	-0.178	0.255
-86.699	720.374	-0.111	0.291
-85.684	-3.511	0.112	-0.077
-84.670	8.256	-0.170	-0.126
-83.655	-45.165	0.164	-0.080
-82.640	-47.470	-0.140	0.067
-81.626	-163.959	0.149	0.007
-80.611	337.295	-0.092	-0.175
-79.597	-125.030	0.190	0.029
-78.582	-112.884	0.275	-0.054
-77.567	98.541	-0.091	0.103
-76.553	-66.027	0.179	0.070
-75.538	-200.000	-0.107	0.537
-74.524	-200.000	-0.009	-0.101
-73.509	-99.559	0.074	0.018
-72.494	50.922	0.107	0.100
-71.480	313.023	-0.107	0.198
-70.465	244.147	0.300	0.496
-69.451	102.386	0.234	-0.270
-68.436	206.552	0.044	-0.067
-67.422	-200.000	0.035	0.182
-66.407	153.515	-0.081	-0.109
-65.392	58.860	0.152	0.147
-64.378	105.561	-0.135	0.157
-63.363	-148.820	-0.129	-0.010
-62.349	-200.000	-0.021	0.116
-61.334	200.401	-0.781	-1.182
-60.319	-22.760	0.475	0.283
-59.305	-200.000	-0.138	-1.084
-58.290	475.423	0.470	1.045
-57.276	-200.000	0.306	1.436
-56.261	-200.000	93.721	555.454
-55.246	503.692	1411.856	3214.469
-54.232	151.293	2619.128	3508.605
-53.217	109.949	2223.988	2626.013
-52.203	42.932	1752.330	1572.144
-51.188	35.405	1559.501	1346.525
-50.173	32.872	1532.850	1305.956
-49.159	51.813	1580.513	1479.983
-48.144	53.161	1598.126	1505.889
-47.130	35.576	1558.019	1346.226
-46.115	32.491	1543.255	1311.963
-45.100	32.294	1539.940	1307.722
-44.086	32.248	1538.095	1305.781
-43.071	32.174	1536.036	1303.471
-42.057	32.175	1534.469	1302.097
-41.042	32.126	1532.988	1300.446
-40.027	32.139	1531.735	1299.420
-39.013	32.137	1529.950	1297.845
-37.998	32.134	1528.457	1296.504
-36.984	32.192	1527.604	1296.129
-35.969	32.191	1526.283	1294.952
-34.954	32.126	1524.468	1292.907
-33.940	32.148	1523.571	1292.251
-32.925	32.210	1521.480	1290.850
-31.911	32.152	1520.324	1289.420
-30.896	32.250	1518.655	1288.627
-29.881	32.291	1517.329	1287.729
-28.867	32.193	1516.306	1286.138
-27.852	32.220	1514.384	1284.644
-26.838	32.089	1513.592	1283.025
-25.823	32.137	1511.839	1281.818
-24.809	32.139	1510.070	1280.277
-23.794	32.179	1508.567	1279.226
-22.779	32.109	1507.261	1277.595
-21.765	32.174	1506.114	1277.012
-20.750	32.198	1504.697	1275.925
-19.736	32.154	1504.097	1275.066
-18.721	32.116	1502.646	1273.526
-17.706	31.995	1501.809	1271.944
-16.692	32.038	1500.533	1271.109
-15.677	31.997	1500.056	1270.376
-14.663	32.106	1498.645	1269.865
-13.648	32.050	1497.642	1268.587
-12.633	32.086	1496.663	1267.948
-11.619	32.136	1495.949	1267.634
-10.604	32.052	1495.058	1266.264
-9.590	32.111	1494.154	1265.842
-8.575	31.995	1493.670	1264.599
-7.560	32.180	1491.733	1264.155
-6.546	32.100	1491.091	1263.026
-5.531	32.105	1490.785	1262.746
-4.517	32.095	1489.424	1261.476
-3.502	32.037	1488.299	1260.083
-2.487	32.044	1487.037	1259.012
-1.473	32.087	1486.270	1258.604
-0.458	32.065	1485.230	1257.523
0.556	31.775	1475.651	1248.563
1.571	29.106	1449.819	1209.093
2.586	25.502	1385.792	1132.924
3.600	23.181	1300.193	1049.109
4.615	20.623	1253.248	996.506
5.629	17.244	1194.581	931.289
6.644	9.073	1107.026	821.301
7.659	2.271	1065.244	756.651
8.673	1.162	1059.458	747.013
9.688	1.027	1056.846	744.442
10.702	1.034	1055.403	743.396
11.717	1.048	1053.381	741.974
12.731	3.276	1055.585	754.383
13.746	10.649	1065.306	797.607
14.761	16.210	1072.148	830.093
15.775	17.545	1073.307	837.481
16.790	17.279	1071.677	834.832
17.804	16.377	1069.475	828.620
18.819	15.427	1067.882	822.656
19.834	14.942	1066.072	818.818
20.848	14.713	1065.212	816.963
21.863	14.445	1064.314	814.892
22.877	13.984	1064.358	812.598
23.892	13.906	1063.054	811.153
24.907	13.839	1062.060	809.994
25.921	13.760	1061.248	808.917
26.936	13.792	1060.706	808.592
27.950	13.975	1059.635	808.595
28.965	13.983	1059.134	808.176
29.980	13.922	1058.436	807.277
30.994	14.113	1057.164	807.163
32.009	14.039	1056.647	806.339
33.023	14.216	1055.735	806.426
34.038	14.218	1054.854	805.691
35.053	14.031	1054.073	804.119
36.067	14.050	1053.197	803.475
37.082	14.018	1052.430	802.661
38.096	14.041	1051.888	802.287
39.111	14.204	1050.600	802.020
40.126	14.105	1049.972	800.995
41.140	13.877	1049.093	799.155
42.155	13.925	1048.192	798.627
43.169	13.866	1047.194	797.516
44.184	13.788	1046.351	796.430
45.199	13.881	1045.331	796.029
46.213	13.874	1044.117	794.997
47.228	13.830	1043.286	794.083
48.242	13.927	1042.094	793.569
49.257	13.915	1041.279	792.821
50.271	13.989	1040.041	792.164
51.286	13.959	1039.067	791.209
52.301	14.004	1038.545	790.955
53.315	13.988	1037.439	789.968
54.330	13.985	1036.827	789.418
55.344	13.952	1035.898	788.481
56.359	13.947	1034.721	787.491
57.374	13.961	1033.884	786.851
58.388	13.826	1033.231	785.647
59.403	13.902	1032.469	785.357
60.417	13.917	1031.749	784.810
61.432	13.851	1030.918	783.800
62.447	13.822	1030.500	783.274
63.461	13.797	1029.571	782.379
64.476	13.847	1028.033	781.377
65.490	13.891	1027.327	780.979
66.505	13.767	1026.868	779.977
67.520	13.950	1025.917	780.047
68.534	13.964	1025.023	779.363
69.549	13.824	1024.805	778.472
70.563	13.778	1024.090	777.643
71.578	13.807	1023.096	776.956
72.593	13.860	1022.342	776.563
73.607	13.798	1021.091	775.253
74.622	13.782	1020.542	774.694
75.636	13.706	1019.521	773.498
76.651	13.835	1018.704	773.409
77.666	13.827	1018.202	772.922
78.680	13.741	1016.887	771.455
79.695	13.703	1016.620	771.008
80.709	13.861	1015.826	771.071
81.724	13.900	1014.800	770.406
82.739	13.917	1013.954	769.774
83.753	13.889	1013.642	769.339
84.768	13.946	1012.711	768.830
85.782	14.004	1011.650	768.224
86.797	14.044	1011.122	767.939
87.812	14.116	1009.806	767.206
88.826	13.891	1009.358	765.758
89.841	13.894	1008.423	764.993
90.855	13.990	1007.471	764.646
91.870	14.008	1006.855	764.194
92.884	14.012	1006.028	763.519
93.899	13.982	1005.353	762.800
94.914	14.110	1004.278	762.503
95.928	14.017	1004.321	762.045
96.943	14.136	1003.441	761.851
97.957	14.081	1002.265	760.641
98.972	13.959	1001.701	759.589
99.987	14.074	1001.015	759.528
101.001	14.135	1000.120	759.057
102.016	14.065	999.367	758.102
103.030	14.133	998.460	757.656
104.045	14.105	997.052	756.391
105.060	14.059	996.109	755.402
106.074	14.017	995.197	754.449
107.089	14.045	994.668	754.110
108.103	13.940	993.959	753.033
109.118	13.880	992.816	751.828
110.133	13.945	992.339	751.693
111.147	13.925	991.179	750.656
112.162	13.925	990.509	750.085
113.176	13.878	989.526	749.059
114.191	14.036	988.030	748.572
115.206	13.962	987.692	747.918
116.220	14.018	986.826	747.447
117.235	13.839	986.278	746.163
118.249	14.042	984.730	745.836
119.264	14.100	983.565	745.147
120.279	14.039	983.013	744.392
121.293	13.884	982.715	743.405
122.308	13.917	981.953	742.910
123.322	14.088	980.961	742.857
124.337	13.952	979.932	741.406
125.352	13.840	979.488	740.506
126.366	13.910	977.955	739.594
127.381	14.009	976.677	739.000
128.395	13.968	975.632	737.961
129.410	13.999	974.607	737.261
130.424	13.992	973.582	736.390
131.439	14.028	972.634	735.766
132.454	13.891	972.192	734.762
133.468	14.012	971.526	734.725
134.483	14.047	970.563	734.089
135.497	13.943	970.048	733.176
136.512	13.940	969.488	732.673
137.527	13.896	968.788	731.884
138.541	14.071	967.604	731.698
139.556	14.099	967.097	731.373
140.570	14.106	966.241	730.689
141.585	13.953	965.288	729.232
142.600	14.190	964.577	729.670
143.614	14.091	963.850	728.622
144.629	14.142	963.541	728.550
145.643	14.152	962.350	727.625
146.658	14.164	961.286	726.810
147.673	14.153	960.750	726.295
148.687	14.191	959.401	725.375
149.702	14.032	958.948	724.273
150.716	14.135	957.914	723.879
151.731	14.076	957.365	723.144
152.746	14.159	956.279	722.619
153.760	14.003	955.853	721.557
154.775	14.086	954.847	721.093
155.789	14.148	954.213	720.820
156.804	14.192	953.199	720.181
157.819	14.235	952.405	719.701
158.833	14.293	951.788	719.422
159.848	14.363	951.270	719.270
160.862	14.325	950.590	718.528
161.877	14.244	949.886	717.582
162.892	14.275	949.089	717.050
163.906	14.181	948.150	715.874
164.921	14.198	947.322	715.257
165.935	14.209	946.486	714.610
166.950	14.193	945.289	713.575
167.964	14.297	944.218	713.148
168.979	14.356	943.121	712.508
169.994	14.245	942.449	711.464
171.008	14.146	941.675	710.393
172.023	14.229	940.874	710.082
173.037	14.451	939.646	710.037
174.052	14.384	939.010	709.207
175.067	14.373	938.646	708.823
176.081	14.286	937.954	707.868
177.096	14.291	937.359	707.378
178.110	14.330	936.360	706.726
179.125	14.217	935.444	705.494
180.140	14.424	934.705	705.750
181.154	14.398	933.939	705.002
182.169	14.406	933.541	704.672
183.183	14.439	933.062	704.386
184.198	14.373	932.368	703.522
185.213	14.472	931.351	703.110
186.227	14.444	931.019	702.681
187.242	14.561	930.526	702.738
188.256	14.539	929.702	701.961
189.271	14.475	929.074	701.157
190.286	14.438	928.269	700.332
191.300	14.429	927.613	699.738
192.315	14.438	926.604	698.949
193.329	14.400	925.898	698.198
194.344	14.426	925.690	698.089
195.359	14.433	924.747	697.344
196.373	14.503	924.183	697.152
197.388	14.442	923.930	696.642
198.402	14.574	923.504	696.809
199.417	14.686	922.343	696.340
200.432	14.638	922.669	696.323
201.446	14.633	921.938	695.691
202.461	14.767	921.263	695.675
203.475	14.948	920.374	695.699
204.490	14.809	920.109	694.859
205.504	14.793	919.265	694.092
206.519	14.614	918.332	692.582
207.534	14.842	917.691	692.985
208.548	14.665	917.014	691.676
209.563	14.725	916.120	691.191
210.577	14.786	915.256	690.730
211.592	14.754	915.135	690.446
212.607	14.777	914.560	690.047
213.621	14.991	913.769	690.270
214.636	14.942	913.053	689.465
215.650	14.809	912.295	688.286
216.665	14.894	912.043	688.384
217.680	14.950	911.518	688.156
218.694	14.868	911.335	687.623
219.709	14.940	911.032	687.627
220.723	14.997	909.812	686.879
221.738	14.895	908.964	685.760
222.753	14.891	908.373	685.237
223.767	14.938	907.596	684.783
224.782	14.995	906.877	684.416
225.796	15.066	905.957	683.948
226.811	15.088	905.521	683.647
227.826	15.043	904.906	682.943
228.840	15.037	903.931	682.122
229.855	15.140	903.552	682.195
230.869	15.074	902.813	681.307
231.884	15.045	902.226	680.684
232.899	14.955	901.345	679.594
233.913	15.120	900.571	679.619
234.928	15.081	899.778	678.802
235.942	15.066	899.557	678.518
236.957	15.086	898.727	677.910
237.972	15.073	897.824	677.118
238.986	15.141	897.020	676.727
240.001	15.043	896.667	676.004
241.015	15.125	895.720	675.559
242.030	15.215	894.788	675.160
243.045	15.260	894.746	675.253
244.059	15.197	894.153	674.492
245.074	15.209	893.338	673.862
246.088	15.132	892.812	673.098
247.103	15.334	892.262	673.437
248.117	15.205	892.072	672.712
249.132	15.364	891.254	672.676
250.147	15.322	890.776	672.089
251.161	15.326	889.676	671.214
252.176	15.328	888.582	670.338
253.190	15.564	888.252	670.970
254.205	15.461	887.592	670.002
255.220	15.509	887.114	669.774
256.234	15.534	886.272	669.177
257.249	15.586	885.903	669.048
258.263	15.576	885.651	668.759
259.278	15.662	884.627	668.269
260.293	15.528	884.007	667.209
261.307	15.573	883.544	666.980
262.322	15.773	882.692	667.068
263.336	15.543	882.593	666.022
264.351	15.545	881.981	665.512
265.366	15.634	880.756	664.879
266.380	15.738	880.237	664.840
267.395	15.715	879.992	664.503
268.409	15.733	879.079	663.828
269.424	15.863	878.109	663.551
270.439	15.862	877.545	663.059
271.453	15.751	877.094	662.225
272.468	15.801	875.979	661.519
273.482	15.732	875.875	661.113
274.497	15.676	875.080	660.235
275.512	15.908	873.959	660.239
276.526	15.705	873.619	659.127
277.541	15.909	872.735	659.203
278.555	15.776	872.428	658.389
279.570	15.761	872.140	658.055
280.585	15.818	871.618	657.825
281.599	15.937	870.589	657.459
282.614	16.005	870.176	657.351
283.628	15.988	869.359	656.612
284.643	15.823	868.800	655.487
285.657	16.009	868.564	655.978
286.672	16.001	868.012	655.471
287.687	16.003	867.717	655.199
288.701	16.067	867.097	654.921
289.716	16.046	865.788	653.792
290.730	15.937	865.609	653.175
291.745	16.120	864.622	653.083
292.760	16.076	864.280	652.595
293.774	16.174	863.994	652.700
294.789	16.102	863.228	651.785
295.803	16.169	862.267	651.261
296.818	16.267	861.808	651.236
297.833	16.130	861.214	650.201
298.847	16.149	860.648	649.787
299.862	16.172	859.873	649.236
300.876	16.287	859.001	648.961
301.891	16.295	858.331	648.427
302.906	16.206	858.084	647.844
303.920	16.321	857.236	647.584
304.935	16.358	856.784	647.328
305.949	16.511	855.958	647.233
306.964	16.299	855.777	646.228
307.979	16.468	854.768	646.055
308.993	16.521	854.175	645.754
310.008	16.568	853.963	645.712
311.022	16.471	853.503	644.938
312.037	16.451	852.825	644.292
313.052	16.425	852.693	644.039
314.066	16.585	851.368	643.590
315.081	16.440	850.931	642.651
316.095	16.445	850.425	642.232
317.110	16.548	849.713	642.026
318.125	16.409	849.482	641.267
319.139	16.541	849.156	641.465
320.154	16.543	848.269	640.748
321.168	16.584	847.658	640.384
322.183	16.542	847.259	639.865
323.197	16.505	846.961	639.447
324.212	16.547	846.386	639.112
325.227	16.642	845.847	639.010
326.241	16.625	845.205	638.403
327.256	16.564	844.702	637.736
328.270	16.594	844.157	637.379
329.285	16.678	843.563	637.192
330.300	16.558	843.030	636.282
331.314	16.650	842.093	635.862
332.329	16.689	841.788	635.726
333.343	16.597	840.944	634.684
334.358	16.561	840.532	634.184
335.373	16.790	840.089	634.650
336.387	16.825	839.240	634.085
337.402	16.850	838.740	633.743
338.416	16.823	838.197	633.178
339.431	16.773	838.004	632.787
340.446	16.914	836.909	632.429
341.460	16.844	836.396	631.725
342.475	16.946	835.761	631.570
343.489	16.895	835.227	630.921
344.504	17.014	834.756	630.952
345.519	16.979	834.178	630.328
346.533	16.926	833.830	629.812
347.548	17.076	833.371	629.967
348.562	17.090	832.773	629.512
349.577	16.984	832.350	628.745
350.592	16.869	831.886	627.911
351.606	16.981	831.468	627.955
352.621	17.165	830.856	628.117
353.635	17.042	830.724	627.508
354.650	16.938	830.240	626.704
355.665	17.107	829.615	626.799
356.679	17.124	829.382	626.631
357.694	17.163	828.335	625.927
358.708	17.148	827.754	625.379
359.723	17.130	827.138	624.792
360.738	16.992	827.171	624.252
361.752	17.113	826.659	624.258
362.767	17.112	825.927	623.644
363.781	16.999	825.893	623.147
364.796	17.117	825.187	622.994
365.810	17.228	824.754	623.017
366.825	17.296	824.361	622.917
367.840	17.102	824.106	621.958
368.854	17.167	823.940	622.016
369.869	17.295	823.282	621.931
370.883	17.424	822.346	621.642
371.898	17.390	822.170	621.329
372.913	17.385	821.323	620.615
373.927	17.350	820.822	620.054
374.942	17.312	820.106	619.320
375.956	17.351	819.225	618.742
376.971	17.408	818.979	618.710
377.986	17.478	818.111	618.253
379.000	17.539	817.763	618.157
380.015	17.508	817.381	617.702
381.029	17.471	817.097	617.298
382.044	17.693	816.214	617.380
383.059	17.638	815.751	616.775
384.073	17.621	815.439	616.423
385.088	17.600	814.634	615.684
386.102	17.458	814.344	614.898
387.117	17.572	813.606	614.697
388.132	17.585	813.370	614.511
389.146	17.528	812.938	613.926
390.161	17.660	812.623	614.111
391.175	17.635	812.118	613.582
392.190	17.715	811.583	613.414
393.205	17.749	811.533	613.442
394.219	17.735	810.910	612.868
395.234	17.688	810.338	612.212
396.248	17.725	809.938	611.988
397.263	17.722	809.099	611.291
398.278	17.722	808.463	610.755
399.292	17.715	808.400	610.628
400.307	17.770	807.839	610.346
401.321	17.742	807.516	609.949
402.336	17.593	807.396	609.271
403.350	17.722	806.828	609.249
404.365	17.798	806.151	608.957
405.380	17.891	805.615	608.828
406.394	17.945	805.150	608.616
407.409	18.080	804.666	608.675
408.423	18.032	803.843	607.832
409.438	17.851	804.014	607.263
410.453	18.008	803.424	607.322
411.467	17.865	802.977	606.422
412.482	18.133	802.532	606.983
413.496	17.833	802.105	605.542
414.511	18.093	801.638	606.056
415.526	18.048	801.246	605.548
416.540	18.059	800.971	605.324
417.555	18.238	800.254	605.364
418.569	18.146	799.885	604.705
419.584	17.983	799.612	603.868
420.599	18.167	799.231	604.178
421.613	108.991	1289.004	1460.593
422.628	93.816	1360.327	1460.695
