DTS Sentinel unit serial number:	SN413079Multiplexer serial number:	ORYXHardware model number:	OX4-SRSoftware version number:	ORYX F/W v4.00 Oryx Data Collector v3.7.2.0data status	okinstallation	princeton_trtdifferential loss correction	single-endedforward channel	channel 3reverse channel	N/Adate	2019/09/17time	18:32:34forward acquisition time	60.00reverse acquisition time	0.00gamma	496.2192k internal	0.2289k external	0.2289temperature offset calibration	0.9950default loss term (dB/km)	0.3790temperature slope calibration	1.0000multiplexer offset coefficient	1.0000multiplexer slope coefficient	1.0000fibre end	0.00T internal ref (°C)	42.94T ext. ref 1 (°C)	0.31T ext. ref 2 (°C)	35.92length (m)	temperature (°C)	Stokes	anti-Stokes-747.200	-200.000	-0.003	-0.147
-746.185	100.375	0.160	-0.190
-745.171	117.173	-0.092	0.115
-744.156	95.452	-0.157	0.183
-743.142	-200.000	-0.013	0.084
-742.127	-14.612	-0.302	0.199
-741.112	800.000	-0.081	-0.278
-740.098	-200.000	-0.039	0.368
-739.083	-200.000	-0.004	-0.060
-738.069	4.611	0.126	-0.095
-737.054	800.000	0.027	0.117
-736.039	229.534	-0.147	-0.246
-735.025	-61.507	0.158	-0.068
-734.010	-4.004	-0.181	-0.129
-732.996	101.475	0.130	-0.155
-731.981	-200.000	-0.035	-0.158
-730.966	-42.461	-0.137	-0.071
-729.952	-200.000	-0.098	-0.604
-728.937	-135.986	-0.378	0.045
-727.923	-73.180	-0.399	-0.150
-726.908	-200.000	0.054	-0.350
-725.894	-55.064	-0.239	0.110
-724.879	-200.000	0.023	-0.136
-723.864	-118.453	0.326	0.059
-722.850	78.899	-0.045	-0.049
-721.835	-52.326	-0.253	-0.120
-720.821	98.505	-0.167	-0.198
-719.806	-97.290	-0.354	0.094
-718.791	-138.719	-0.352	0.039
-717.777	-200.000	0.012	0.146
-716.762	800.000	-0.077	-0.235
-715.748	407.050	0.061	-0.132
-714.733	-120.862	-0.370	-0.064
-713.718	-102.212	-0.076	-0.019
-712.704	222.494	0.191	-0.314
-711.689	-66.826	0.177	0.072
-710.675	-166.867	0.049	0.002
-709.660	665.855	0.110	-0.291
-708.645	-200.000	0.043	-0.433
-707.631	-133.151	0.182	0.024
-706.616	-200.000	-0.041	-0.198
-705.602	411.366	-0.127	-0.276
-704.587	31.567	-0.164	0.144
-703.572	123.558	0.128	0.164
-702.558	156.657	0.015	0.021
-701.543	-200.000	-0.026	-0.406
-700.529	5.874	0.203	0.154
-699.514	51.010	0.135	-0.131
-698.499	-67.050	-0.160	0.065
-697.485	-200.000	0.043	-0.279
-696.470	-200.000	0.143	0.000
-695.456	-64.059	-0.163	0.068
-694.441	-138.570	-0.341	-0.038
-693.426	-200.000	0.075	-0.378
-692.412	-200.000	-0.021	0.372
-691.397	158.783	0.042	0.059
-690.383	152.017	0.060	-0.084
-689.368	688.270	0.045	0.121
-688.354	800.000	-0.050	-0.144
-687.339	-83.808	-0.185	0.060
-686.324	-100.926	-0.300	0.075
-685.310	-65.848	-0.131	-0.054
-684.295	-155.283	0.193	0.013
-683.281	-14.789	0.169	-0.111
-682.266	66.577	0.198	0.205
-681.251	-200.000	0.111	-0.507
-680.237	-127.698	0.205	-0.030
-679.222	291.093	0.065	-0.121
-678.208	-99.371	-0.033	0.009
-677.193	16.147	0.158	-0.128
-676.178	173.165	-0.088	-0.129
-675.164	-115.876	0.111	-0.021
-674.149	59.345	-0.254	-0.256
-673.135	77.403	0.061	0.067
-672.120	69.859	-0.100	0.106
-671.105	-200.000	-0.028	-0.166
-670.091	504.898	0.084	-0.199
-669.076	-66.262	-0.191	-0.078
-668.062	22.656	-0.037	-0.031
-667.047	-39.086	-0.058	-0.031
-666.032	644.551	0.148	-0.385
-665.018	26.343	0.220	0.188
-664.003	487.373	-0.005	-0.012
-662.989	37.029	-0.084	-0.076
-661.974	-137.313	0.106	0.012
-660.959	41.802	-0.188	0.174
-659.945	-114.040	-0.302	-0.060
-658.930	800.000	-0.052	0.202
-657.916	-136.207	-0.043	0.005
-656.901	-121.257	-0.185	-0.032
-655.886	-182.120	-0.295	-0.006
-654.872	500.002	0.062	0.146
-653.857	-200.000	0.095	-0.437
-652.843	-28.626	-0.168	-0.099
-651.828	294.340	-0.011	-0.021
-650.814	800.000	-0.100	-0.439
-649.799	47.061	-0.045	-0.042
-648.784	-57.541	-0.206	-0.092
-647.770	-177.028	0.186	-0.005
-646.755	-12.345	-0.151	-0.101
-645.741	665.850	0.082	0.216
-644.726	400.845	0.069	0.148
-643.711	101.917	0.133	-0.158
-642.697	-200.000	-0.027	-0.163
-641.682	22.852	-0.243	-0.204
-640.668	113.799	0.109	-0.135
-639.653	-97.942	-0.133	0.035
-638.638	-200.000	-0.017	-0.253
-637.624	188.391	-0.118	0.180
-636.609	-200.000	0.024	-0.378
-635.595	-13.352	0.256	0.170
-634.580	101.027	-0.117	0.139
-633.565	-169.463	0.237	0.009
-632.551	152.690	0.117	-0.163
-631.536	48.655	0.171	0.164
-630.522	-139.330	-0.283	-0.031
-629.507	-50.688	0.066	-0.032
-628.492	53.481	-0.284	-0.278
-627.478	26.684	-0.264	-0.225
-626.463	242.516	0.096	0.164
-625.449	-200.000	-0.005	0.212
-624.434	-19.274	-0.078	-0.049
-623.419	-165.942	0.242	-0.011
-622.405	-200.000	-0.030	0.314
-621.390	-7.408	0.195	-0.135
-620.376	-200.000	0.001	0.156
-619.361	739.980	-0.035	0.095
-618.346	-192.738	-0.133	-0.001
-617.332	71.796	-0.142	-0.151
-616.317	-200.000	-0.019	0.291
-615.303	-118.411	-0.196	-0.035
-614.288	84.153	0.263	0.294
-613.273	-200.000	-0.004	0.178
-612.259	215.513	-0.140	-0.227
-611.244	499.087	-0.047	0.110
-610.230	-101.045	0.085	0.021
-609.215	-177.820	-0.180	0.004
-608.201	-3.418	-0.012	-0.008
-607.186	469.281	-0.019	0.043
-606.171	-103.914	0.359	-0.085
-605.157	-200.000	-0.016	0.363
-604.142	-96.948	0.208	-0.056
-603.128	-39.984	-0.229	-0.122
-602.113	101.851	-0.172	-0.205
-601.098	-187.308	-0.207	-0.003
-600.084	71.202	0.158	-0.167
-599.069	79.320	0.093	0.102
-598.055	126.338	-0.066	-0.085
-597.040	121.098	-0.139	-0.176
-596.025	298.039	0.043	0.080
-595.011	-31.810	-0.261	-0.149
-593.996	-131.614	-0.110	-0.015
-592.982	-150.498	-0.144	0.011
-591.967	-121.401	-0.130	-0.022
-590.952	711.995	0.012	-0.033
-589.938	-200.000	-0.005	-0.308
-588.923	-17.671	-0.313	-0.200
-587.909	-61.911	0.214	-0.091
-586.894	-200.000	-0.018	0.438
-585.879	340.425	-0.140	0.277
-584.865	-61.494	0.329	0.141
-583.850	-142.265	-0.142	0.014
-582.836	650.126	0.115	0.299
-581.821	35.158	-0.029	0.026
-580.806	-109.667	-0.182	-0.039
-579.792	128.887	0.045	-0.058
-578.777	196.381	-0.106	0.165
-577.763	271.000	-0.148	-0.266
-576.748	95.929	0.220	-0.255
-575.733	90.373	0.280	-0.319
-574.719	-174.691	-0.276	0.008
-573.704	103.460	0.139	0.167
-572.690	-200.000	-0.113	0.000
-571.675	800.000	-0.029	-0.099
-570.661	-200.000	-0.017	0.100
-569.646	175.180	-0.085	0.125
-568.631	-57.754	-0.090	-0.040
-567.617	-200.000	0.030	0.312
-566.602	-200.000	0.006	-0.157
-565.588	-6.878	0.096	-0.067
-564.573	-15.240	-0.064	0.042
-563.558	-8.447	-0.264	-0.180
-562.544	-168.444	0.189	0.007
-561.529	800.000	-0.080	0.307
-560.515	257.848	0.133	0.234
-559.500	14.526	-0.197	0.156
-558.485	800.000	0.029	-0.113
-557.471	-26.976	0.107	-0.064
-556.456	-200.000	0.062	-0.475
-555.442	-39.952	0.065	-0.035
-554.427	32.398	-0.185	0.163
-553.412	70.601	-0.201	-0.211
-552.398	-200.000	0.024	-0.156
-551.383	-200.000	-0.019	0.196
-550.369	-200.000	-0.044	0.224
-549.354	800.000	-0.020	-0.070
-548.339	77.627	-0.138	0.150
-547.325	-89.585	0.204	-0.061
-546.310	32.519	-0.121	-0.107
-545.296	-56.461	0.230	0.104
-544.281	-162.849	0.287	0.014
-543.266	44.575	-0.165	0.154
-542.252	88.087	-0.018	0.020
-541.237	-117.465	-0.224	-0.041
-540.223	-200.000	0.013	0.112
-539.208	-62.391	-0.194	0.082
-538.193	-200.000	-0.045	0.294
-537.179	-200.000	-0.003	-0.093
-536.164	-8.123	-0.108	-0.074
-535.150	45.758	0.054	0.051
-534.135	-27.893	0.073	-0.043
-533.121	140.231	0.074	0.100
-532.106	66.426	0.164	-0.169
-531.091	-200.000	0.044	-0.330
-530.077	625.410	-0.092	-0.236
-529.062	800.000	0.101	-0.411
-528.048	95.421	0.132	0.153
-527.033	-22.875	-0.317	0.194
-526.018	91.494	0.080	-0.091
-525.004	-163.806	-0.301	0.014
-523.989	3.697	-0.270	-0.200
-522.975	64.001	-0.022	0.022
-521.960	11.755	-0.219	0.171
-520.945	-14.314	-0.094	0.061
-519.931	190.846	0.123	-0.188
-518.916	-98.019	0.445	0.117
-517.902	15.487	-0.226	-0.180
-516.887	29.053	-0.193	0.166
-515.872	36.297	0.186	0.166
-514.858	-110.365	-0.116	0.025
-513.843	70.095	0.116	0.122
-512.829	73.863	0.250	-0.266
-511.814	118.961	0.096	-0.121
-510.799	288.526	-0.084	0.155
-509.785	152.865	0.131	0.181
-508.770	-72.729	0.131	-0.049
-507.756	31.751	0.267	0.233
-506.741	-124.331	-0.286	0.045
-505.726	-138.212	0.168	0.019
-504.712	-153.151	0.076	0.005
-503.697	81.575	0.029	0.032
-502.683	800.000	-0.108	0.411
-501.668	-110.968	0.062	0.013
-500.653	37.933	-0.199	-0.180
-499.639	75.242	-0.216	-0.231
-498.624	-191.130	-0.175	-0.002
-497.610	168.206	-0.020	0.030
-496.595	800.000	-0.025	-0.084
-495.581	-123.279	0.268	0.044
-494.566	-200.000	-0.034	0.182
-493.551	125.772	0.198	-0.254
-492.537	-139.756	-0.109	-0.012
-491.522	-10.641	0.299	0.201
-490.508	-200.000	0.000	0.085
-489.493	-200.000	-0.011	-0.127
-488.478	53.333	0.234	-0.227
-487.464	-25.834	-0.318	-0.190
-486.449	-108.397	0.070	-0.015
-485.435	-200.000	-0.026	-0.137
-484.420	-200.000	-0.047	0.222
-483.405	-14.308	-0.030	-0.020
-482.391	-200.000	-0.045	-0.269
-481.376	-181.511	-0.156	0.003
-480.362	-92.672	-0.037	0.010
-479.347	-38.479	0.121	-0.065
-478.332	39.214	0.045	0.041
-477.318	800.000	0.051	0.180
-476.303	-83.332	-0.102	-0.033
-475.289	-3.905	-0.153	0.108
-474.274	121.647	-0.204	0.257
-473.259	-200.000	-0.006	0.129
-472.245	-200.000	-0.002	0.141
-471.230	-39.865	0.205	0.109
-470.216	198.383	0.116	-0.180
-469.201	38.600	0.381	-0.345
-468.186	185.815	0.127	-0.192
-467.172	800.000	0.101	0.405
-466.157	-132.047	-0.122	-0.016
-465.143	123.619	-0.182	0.232
-464.128	99.996	-0.085	0.100
-463.113	-116.491	0.153	0.029
-462.099	800.000	-0.088	0.313
-461.084	-55.590	-0.196	-0.089
-460.070	800.000	-0.101	0.403
-459.055	800.000	0.078	-0.222
-458.040	-182.415	0.019	-0.000
-457.026	-200.000	-0.074	-0.347
-456.011	-200.000	0.004	-0.206
-454.997	-165.853	0.195	-0.008
-453.982	-155.215	0.053	0.004
-452.968	61.303	-0.053	0.054
-451.953	-11.206	0.125	-0.084
-450.938	-31.401	0.224	0.128
-449.924	-117.450	-0.089	0.016
-448.909	425.845	0.012	0.027
-447.895	-200.000	-0.037	-0.224
-446.880	-118.510	0.422	-0.076
-445.865	315.044	0.125	0.239
-444.851	-200.000	-0.025	0.234
-443.836	185.993	0.060	-0.090
-442.822	-141.716	0.104	-0.011
-441.807	-193.513	-0.248	0.002
-440.792	-76.308	0.135	-0.048
-439.778	-77.980	-0.114	0.040
-438.763	81.365	0.355	-0.388
-437.749	122.244	-0.368	-0.466
-436.734	143.309	-0.155	-0.208
-435.719	6.098	-0.085	0.064
-434.705	-42.355	-0.244	0.126
-433.690	18.976	0.122	0.099
-432.676	-70.881	-0.167	0.064
-431.661	150.371	-0.097	-0.134
-430.646	154.777	-0.143	0.198
-429.632	-87.608	0.028	-0.009
-428.617	-28.037	0.233	-0.136
-427.603	511.758	0.178	-0.419
-426.588	39.559	-0.250	-0.227
-425.573	-109.877	-0.088	-0.019
-424.559	-123.781	-0.071	-0.011
-423.544	200.505	-0.049	-0.076
-422.530	-143.578	-0.190	-0.018
-421.515	-200.000	0.017	0.143
-420.500	-200.000	0.034	-0.256
-419.486	-200.000	0.058	0.275
-418.471	182.736	0.063	-0.094
-417.457	-46.604	-0.210	0.104
-416.442	-150.021	-0.051	-0.004
-415.428	800.000	0.033	-0.138
-414.413	43.042	-0.137	-0.126
-413.398	13.109	0.195	0.153
-412.384	157.960	-0.029	-0.041
-411.369	-75.184	-0.256	-0.092
-410.355	-91.738	0.319	-0.092
-409.340	-38.412	-0.212	0.113
-408.325	6.922	-0.156	0.117
-407.311	-124.191	-0.124	-0.020
-406.296	-200.000	-0.017	0.177
-405.282	70.932	-0.059	-0.062
-404.267	-82.361	0.059	0.020
-403.252	81.958	-0.197	0.216
-402.238	-36.255	-0.103	-0.056
-401.223	369.899	0.100	0.204
-400.209	-35.804	-0.216	-0.118
-399.194	800.000	-0.021	0.088
-398.179	-78.124	0.145	-0.051
-397.165	214.565	-0.145	-0.233
-396.150	-200.000	0.027	-0.149
-395.136	800.000	0.078	-0.317
-394.121	-133.739	-0.112	-0.014
-393.106	-95.611	-0.204	-0.055
-392.092	24.968	-0.120	-0.101
-391.077	-200.000	-0.032	-0.205
-390.063	524.686	-0.179	0.425
-389.048	80.957	0.072	-0.078
-388.033	-200.000	0.005	0.182
-387.019	-38.960	-0.138	0.073
-386.004	-100.909	0.306	0.076
-384.990	-141.615	0.128	0.013
-383.975	-98.437	0.194	0.050
-382.960	-5.025	0.190	-0.132
-381.946	-200.000	-0.021	0.299
-380.931	493.948	0.075	0.173
-379.917	-88.530	0.144	0.043
-378.902	-200.000	0.024	0.178
-377.888	18.053	0.409	-0.329
-376.873	84.779	0.138	0.152
-375.858	28.060	-0.186	0.159
-374.844	643.901	-0.086	0.222
-373.829	-82.581	-0.226	-0.074
-372.815	-196.278	0.306	-0.002
-371.800	-200.000	0.024	-0.174
-370.785	-81.096	0.160	-0.053
-369.771	-63.078	0.223	-0.093
-368.756	800.000	-0.018	-0.071
-367.742	-200.000	0.014	-0.310
-366.727	167.514	0.142	-0.203
-365.712	800.000	0.038	0.160
-364.698	217.227	-0.013	0.021
-363.683	39.872	-0.194	0.176
-362.669	228.755	0.072	-0.119
-361.654	111.774	0.126	0.154
-360.639	201.038	-0.126	0.195
-359.625	-48.000	-0.074	0.036
-358.610	536.522	-0.058	-0.140
-357.596	-133.204	0.099	-0.013
-356.581	-2.721	-0.105	0.074
-355.566	-95.549	-0.123	-0.033
-354.552	7.899	0.109	0.083
-353.537	-200.000	-0.020	-0.267
-352.523	-161.540	0.168	0.009
-351.508	251.728	-0.108	-0.185
-350.493	800.000	0.063	-0.186
-349.479	-86.874	0.140	0.043
-348.464	3.201	-0.255	0.187
-347.450	-135.557	0.436	0.052
-346.435	-104.889	-0.347	-0.080
-345.420	-200.000	0.051	-0.393
-344.406	-124.333	-0.237	-0.037
-343.391	77.073	0.161	0.172
-342.377	-157.803	0.118	0.007
-341.362	-73.262	0.240	0.089
-340.348	-200.000	0.022	0.442
-339.333	-65.437	-0.117	-0.047
-338.318	-200.000	0.033	-0.211
-337.304	-200.000	-0.027	0.190
-336.289	-168.818	0.190	0.007
-335.275	-170.923	0.154	0.005
-334.260	89.763	-0.125	0.141
-333.245	106.949	-0.090	0.108
-332.231	54.383	0.187	-0.182
-331.216	-200.000	0.012	0.256
-330.202	65.319	-0.088	-0.090
-329.187	-95.329	0.375	-0.102
-328.172	424.647	0.086	0.186
-327.158	191.911	-0.017	-0.026
-326.143	212.147	-0.111	0.176
-325.129	61.723	0.247	-0.247
-324.114	577.499	0.114	-0.280
-323.099	800.000	-0.086	-0.258
-322.085	49.762	-0.247	-0.235
-321.070	-112.597	-0.130	-0.026
-320.056	-200.000	0.086	-0.520
-319.041	-12.147	0.021	-0.014
-318.026	508.704	0.067	0.156
-317.012	-58.394	0.125	0.055
-315.997	6.191	-0.379	0.283
-314.983	-122.696	-0.426	-0.070
-313.968	800.000	0.051	-0.222
-312.953	0.495	-0.128	-0.092
-311.939	-127.482	0.191	-0.028
-310.924	-200.000	-0.015	0.231
-309.910	-200.000	0.001	-0.056
-308.895	189.936	0.307	-0.464
-307.880	-200.000	-0.031	-0.253
-306.866	-27.332	0.239	-0.140
-305.851	-52.854	-0.080	-0.037
-304.837	800.000	-0.064	-0.214
-303.822	-200.000	-0.006	-0.031
-302.807	138.599	-0.240	0.318
-301.793	101.538	-0.252	0.295
-300.778	304.960	-0.275	0.515
-299.764	304.246	0.077	-0.143
-298.749	-137.336	0.239	-0.027
-297.735	-48.194	0.109	0.053
-296.720	9.621	0.241	-0.184
-295.705	-102.491	-0.303	0.073
-294.691	202.613	0.138	0.214
-293.676	-66.510	0.277	-0.111
-292.662	-89.317	0.079	0.023
-291.647	800.000	-0.015	-0.050
-290.632	280.246	-0.178	-0.320
-289.618	47.828	-0.262	0.247
-288.603	15.187	-0.124	-0.098
-287.589	63.774	0.336	0.340
-286.574	-71.282	-0.312	0.118
-285.559	83.611	0.085	0.093
-284.545	95.650	0.130	0.149
-283.530	349.408	0.151	0.301
-282.516	468.054	-0.117	0.265
-281.501	74.649	-0.148	-0.157
-280.486	4.719	0.299	0.221
-279.472	-28.067	0.161	-0.093
-278.457	-135.024	-0.183	-0.022
-277.443	-7.087	-0.236	0.161
-276.428	-96.452	-0.463	0.123
-275.413	126.779	0.122	-0.156
-274.399	433.605	-0.049	0.107
-273.384	159.080	0.122	0.171
-272.370	-89.104	-0.050	-0.015
-271.355	-87.985	0.407	0.123
-270.340	-68.630	-0.175	0.068
-269.326	800.000	0.020	0.061
-268.311	800.000	0.126	0.447
-267.297	-200.000	-0.007	-0.432
-266.282	39.853	-0.211	-0.191
-265.267	-107.584	0.375	-0.083
-264.253	120.438	-0.125	-0.156
-263.238	142.925	-0.189	0.253
-262.224	27.037	-0.089	-0.075
-261.209	-200.000	0.015	-0.224
-260.195	396.347	0.079	0.166
-259.180	-200.000	-0.001	-0.152
-258.165	-200.000	0.007	-0.094
-257.151	35.914	-0.142	-0.125
-256.136	800.000	0.112	0.487
-255.122	374.432	0.151	0.309
-254.107	800.000	0.090	-0.263
-253.092	-63.675	0.296	-0.122
-252.078	86.610	-0.077	0.085
-251.063	-200.000	-0.016	0.303
-250.049	-200.000	-0.000	0.050
-249.034	800.000	-0.018	0.072
-248.019	-102.680	0.480	-0.115
-247.005	-41.356	-0.297	-0.154
-245.990	-81.558	-0.168	0.055
-244.976	460.856	-0.121	0.271
-243.961	-180.332	-0.503	-0.011
-242.946	-53.177	-0.121	-0.056
-241.932	-111.464	-0.377	-0.077
-240.917	-200.000	0.041	-0.398
-239.903	800.000	-0.178	0.557
-238.888	-166.275	0.436	0.018
-237.873	-54.430	-0.178	-0.081
-236.859	115.495	-0.020	0.024
-235.844	-200.000	-0.015	-0.297
-234.830	800.000	-0.046	-0.137
-233.815	-200.000	0.010	0.289
-232.800	-200.000	-0.032	0.144
-231.786	712.890	-0.141	-0.376
-230.771	-60.949	-0.107	-0.045
-229.757	-61.950	-0.262	-0.110
-228.742	-113.706	-0.016	0.003
-227.727	105.733	-0.176	0.209
-226.713	-163.354	-0.264	-0.013
-225.698	155.955	0.220	-0.304
-224.684	-51.056	0.231	-0.109
-223.669	141.511	-0.174	-0.232
-222.655	40.232	0.348	-0.315
-221.640	140.672	-0.070	0.092
-220.625	-68.056	-0.108	-0.042
-219.611	77.165	0.071	0.075
-218.596	43.201	-0.098	-0.090
-217.582	-200.000	-0.033	-0.246
-216.567	-200.000	-0.001	-0.221
-215.552	-24.804	0.070	0.042
-214.538	-200.000	0.086	0.438
-213.523	435.916	-0.103	0.225
-212.509	-200.000	0.017	-0.253
-211.494	93.193	0.198	-0.225
-210.479	421.646	0.129	0.278
-209.465	-67.756	-0.148	-0.058
-208.450	191.954	-0.034	0.051
-207.436	2.436	0.169	-0.123
-206.421	-200.000	-0.004	-0.092
-205.406	-200.000	-0.003	-0.053
-204.392	-17.074	-0.190	0.120
-203.377	293.711	-0.175	-0.321
-202.363	-140.722	0.367	0.038
-201.348	-200.000	0.010	-0.314
-200.333	-43.244	0.190	-0.097
-199.319	-200.000	-0.025	0.288
-198.304	800.000	-0.074	0.258
-197.290	241.727	-0.165	0.277
-196.275	-24.826	0.138	-0.082
-195.260	270.407	0.116	-0.206
-194.246	-86.532	0.088	-0.027
-193.231	800.000	-0.104	0.298
-192.217	-78.591	-0.157	-0.054
-191.202	523.580	0.041	0.097
-190.187	800.000	-0.030	0.122
-189.173	800.000	0.044	0.142
-188.158	-35.245	0.131	-0.072
-187.144	146.953	0.154	-0.207
-186.129	-200.000	0.016	0.352
-185.114	77.939	0.350	0.374
-184.100	-200.000	-0.040	0.359
-183.085	-200.000	-0.020	0.261
-182.071	135.689	0.202	-0.264
-181.056	-200.000	-0.027	-0.327
-180.042	191.205	0.112	0.170
-179.027	-200.000	-0.065	-0.489
-178.012	-123.547	0.229	-0.037
-176.998	-200.000	0.007	0.088
-175.983	277.944	0.069	0.124
-174.969	55.017	0.196	0.190
-173.954	-51.680	0.260	-0.122
-172.939	-200.000	0.052	-0.321
-171.925	-28.074	0.079	0.046
-170.910	22.393	-0.062	-0.050
-169.896	112.969	0.193	0.235
-168.881	16.790	-0.175	-0.139
-167.866	800.000	0.055	0.205
-166.852	416.129	0.076	0.162
-165.837	-200.000	-0.016	0.188
-164.823	49.646	-0.210	0.198
-163.808	800.000	-0.120	-0.377
-162.793	18.601	0.203	-0.163
-161.779	-200.000	-0.013	0.205
-160.764	-106.262	-0.145	0.033
-159.750	146.261	0.078	-0.105
-158.735	-200.000	-0.043	0.242
-157.720	-200.000	-0.046	0.229
-156.706	379.165	-0.053	0.109
-155.691	-161.207	0.363	0.019
-154.677	800.000	0.013	0.056
-153.662	-38.994	0.155	0.081
-152.647	-25.696	0.398	-0.235
-151.633	-200.000	0.022	-0.175
-150.618	-200.000	0.013	-0.081
-149.604	-177.447	0.124	0.003
-148.589	-51.873	-0.274	-0.128
-147.574	-53.107	-0.206	0.095
-146.560	-84.450	0.093	-0.030
-145.545	362.637	0.139	0.280
-144.531	800.000	0.018	0.069
-143.516	41.362	-0.233	-0.211
-142.502	91.608	-0.231	0.260
-141.487	403.169	-0.112	0.235
-140.472	-48.996	0.177	-0.085
-139.458	98.381	0.064	-0.073
-138.443	-4.791	0.241	0.166
-137.429	548.686	-0.031	-0.074
-136.414	-150.762	0.080	-0.006
-135.399	-200.000	-0.042	0.237
-134.385	37.483	-0.081	-0.071
-133.370	-93.691	0.196	-0.054
-132.356	12.581	0.497	-0.384
-131.341	-200.000	0.095	-0.489
-130.326	518.722	0.048	-0.113
-129.312	39.693	0.124	0.112
-128.297	-160.809	0.369	0.020
-127.283	-133.620	0.067	0.008
-126.268	-13.226	-0.015	0.010
-125.253	147.907	0.125	0.169
-124.239	220.252	0.036	-0.058
-123.224	-27.765	-0.115	0.067
-122.210	252.617	-0.198	-0.338
-121.195	-200.000	0.005	0.034
-120.180	324.067	0.096	0.183
-119.166	-106.998	0.346	0.076
-118.151	386.964	-0.014	0.029
-117.137	63.565	-0.229	-0.229
-116.122	-174.247	0.132	0.004
-115.107	134.850	-0.080	-0.104
-114.093	7.574	0.165	-0.123
-113.078	-128.904	0.071	-0.010
-112.064	-53.126	0.236	0.108
-111.049	667.159	-0.142	0.367
-110.034	200.205	0.105	0.161
-109.020	-200.000	0.011	0.335
-108.005	-104.735	-0.129	0.030
-106.991	25.479	0.512	-0.426
-105.976	-89.712	-0.245	-0.072
-104.962	-19.078	-0.339	0.210
-103.947	282.941	0.100	0.180
-102.932	-40.811	0.204	-0.106
-101.918	-200.000	-0.018	-0.132
-100.903	769.551	0.102	-0.278
-99.889	202.975	0.072	-0.111
-98.874	-72.631	-0.062	-0.023
-97.859	800.000	-0.055	0.175
-96.845	-89.716	0.248	-0.073
-95.830	582.608	-0.047	0.116
-94.816	28.485	-0.213	0.180
-93.801	-64.570	-0.071	0.029
-92.786	45.924	0.426	0.393
-91.772	-58.689	-0.018	0.008
-90.757	-53.207	0.331	-0.152
-89.743	574.258	0.070	0.170
-88.728	102.235	-0.224	-0.262
-87.713	40.003	-0.340	-0.305
-86.699	-15.945	-0.478	-0.304
-85.684	216.818	-0.015	-0.023
-84.670	105.502	0.140	-0.165
-83.655	-40.108	0.434	-0.226
-82.640	266.197	-0.064	0.112
-81.626	-92.305	0.099	0.028
-80.611	231.053	0.070	0.114
-79.597	26.137	-0.255	0.213
-78.582	-200.000	-0.060	0.325
-77.567	-61.341	-0.126	0.053
-76.553	-200.000	0.013	-0.091
-75.538	70.400	0.181	0.186
-74.524	-118.474	0.104	0.018
-73.509	800.000	-0.055	-0.157
-72.494	-130.975	-0.231	0.031
-71.480	161.118	0.178	-0.248
-70.465	-46.385	0.180	0.088
-69.451	276.363	-0.255	0.452
-68.436	23.294	0.094	0.077
-67.422	-105.073	-0.110	-0.025
-66.407	-0.356	-0.105	-0.074
-65.392	-200.000	-0.023	-0.142
-64.378	402.747	-0.095	-0.200
-63.363	223.396	0.149	-0.239
-62.349	-200.000	0.059	-0.367
-61.334	32.312	-0.979	-0.844
-60.319	-200.000	0.049	0.316
-59.305	-200.000	-0.078	-0.634
-58.290	324.874	0.434	0.828
-57.276	472.353	0.747	1.678
-56.261	-200.000	75.882	564.687
-55.246	542.487	1337.182	3181.376
-54.232	140.521	2565.452	3379.326
-53.217	120.258	2256.667	2794.372
-52.203	54.554	1766.235	1698.312
-51.188	46.512	1558.581	1442.567
-50.173	43.631	1527.937	1394.322
-49.159	59.883	1564.326	1540.869
-48.144	67.143	1583.668	1610.247
-47.130	47.040	1547.213	1435.487
-46.115	43.225	1532.383	1395.349
-45.100	43.015	1529.212	1390.962
-44.086	42.966	1527.560	1389.062
-43.071	42.881	1525.457	1386.512
-42.057	42.870	1523.267	1384.386
-41.042	42.909	1521.416	1382.921
-40.027	42.850	1520.514	1381.637
-39.013	42.916	1519.150	1380.801
-37.998	42.920	1517.651	1379.408
-36.984	43.021	1516.021	1378.564
-35.969	43.018	1514.848	1377.423
-34.954	43.019	1513.714	1376.345
-33.940	42.900	1512.578	1374.444
-32.925	42.959	1510.557	1372.951
-31.911	42.773	1510.095	1371.210
-30.896	43.002	1508.156	1370.956
-29.881	43.065	1506.633	1369.941
-28.867	42.988	1505.359	1368.210
-27.852	43.060	1504.000	1367.407
-26.838	42.979	1502.993	1365.888
-25.823	42.990	1500.872	1363.984
-24.809	42.936	1499.353	1362.181
-23.794	42.956	1497.765	1360.817
-22.779	43.011	1496.512	1359.997
-21.765	42.982	1495.218	1358.571
-20.750	42.993	1494.597	1358.030
-19.736	42.986	1493.244	1356.697
-18.721	42.946	1492.412	1355.619
-17.706	42.953	1490.955	1354.291
-16.692	42.953	1489.426	1352.845
-15.677	42.906	1489.244	1352.314
-14.663	42.921	1487.929	1351.167
-13.648	42.834	1486.629	1349.349
-12.633	42.958	1485.555	1349.153
-11.619	42.941	1484.959	1348.441
-10.604	42.877	1484.240	1347.309
-9.590	42.847	1483.244	1346.149
-8.575	42.920	1482.455	1345.864
-7.560	42.857	1482.019	1344.995
-6.546	42.852	1481.280	1344.240
-5.531	42.878	1479.700	1342.928
-4.517	42.883	1478.605	1341.914
-3.502	42.898	1477.626	1341.073
-2.487	42.842	1476.299	1339.437
-1.473	42.912	1475.463	1339.094
-0.458	42.944	1473.981	1337.911
0.556	41.216	1464.787	1326.705
1.571	37.359	1435.157	1274.518
2.586	31.697	1369.405	1180.454
3.600	27.928	1282.714	1083.330
4.615	25.054	1233.256	1025.051
5.629	20.897	1176.066	954.704
6.644	10.610	1086.527	829.602
7.659	1.898	1040.416	751.525
8.673	0.518	1033.717	739.860
9.688	0.276	1031.084	736.723
10.702	0.188	1029.721	735.256
11.717	0.249	1028.011	734.267
12.731	2.705	1030.660	748.086
13.746	11.027	1042.248	797.345
14.761	17.123	1049.513	832.818
15.775	17.441	1048.307	833.346
16.790	16.783	1046.268	828.435
17.804	15.572	1044.505	821.050
18.819	14.675	1042.268	814.845
19.834	14.209	1041.416	811.833
20.848	13.886	1040.445	809.431
21.863	13.504	1039.601	806.838
22.877	13.382	1038.502	805.320
23.892	13.161	1037.666	803.526
24.907	13.118	1037.074	802.791
25.921	13.150	1036.385	802.339
26.936	13.056	1035.821	801.377
27.950	13.119	1035.073	801.033
28.965	13.246	1034.214	800.911
29.980	13.262	1033.219	800.149
30.994	13.253	1032.204	799.250
32.009	13.287	1032.077	799.242
33.023	13.451	1030.833	798.998
34.038	13.475	1029.489	798.006
35.053	13.243	1029.407	796.750
36.067	13.225	1028.063	795.556
37.082	13.289	1027.105	795.050
38.096	13.324	1026.941	795.020
39.111	13.259	1025.984	793.896
40.126	13.375	1024.836	793.498
41.140	13.215	1024.075	792.068
42.155	13.188	1023.322	791.288
43.169	13.050	1022.281	789.756
44.184	13.237	1020.769	789.407
45.199	13.022	1020.337	787.977
46.213	13.154	1018.669	787.248
47.228	13.137	1018.250	786.773
48.242	13.162	1017.169	785.988
49.257	13.231	1016.369	785.628
50.271	13.129	1015.320	784.266
51.286	13.151	1014.514	783.679
52.301	13.243	1013.645	783.373
53.315	13.132	1013.181	782.421
54.330	13.221	1012.116	781.947
55.344	13.207	1011.002	780.952
56.359	13.181	1010.112	780.070
57.374	13.032	1009.657	778.947
58.388	13.033	1008.868	778.276
59.403	12.996	1007.992	777.360
60.417	13.030	1007.237	776.864
61.432	13.078	1006.473	776.432
62.447	13.116	1005.918	776.115
63.461	13.138	1004.925	775.385
64.476	12.969	1004.408	774.122
65.490	13.077	1003.177	773.612
66.505	12.919	1002.456	772.250
67.520	12.923	1001.803	771.697
68.534	13.024	1000.936	771.431
69.549	13.143	1000.078	771.259
70.563	13.040	999.918	770.587
71.578	12.945	999.224	769.541
72.593	12.987	998.370	769.009
73.607	12.961	996.961	767.737
74.622	12.943	996.659	767.351
75.636	12.963	995.225	766.271
76.651	12.851	994.911	765.443
77.666	13.027	993.877	765.396
78.680	12.922	993.391	764.465
79.695	12.864	993.073	763.885
80.709	12.968	992.203	763.630
81.724	13.034	991.667	763.453
82.739	13.001	990.674	762.471
83.753	13.074	989.557	761.879
84.768	13.098	988.973	761.476
85.782	13.292	987.862	761.447
86.797	13.279	987.420	760.975
87.812	13.224	986.524	759.967
88.826	13.188	985.566	758.995
89.841	13.097	985.367	758.356
90.855	13.136	984.223	757.590
91.870	13.130	983.894	757.241
92.884	13.267	982.677	756.863
93.899	13.132	982.187	755.801
94.914	13.253	981.235	755.554
95.928	13.178	980.501	754.582
96.943	13.383	979.796	754.906
97.957	13.301	979.246	754.045
98.972	13.295	978.572	753.428
99.987	13.203	977.567	752.169
101.001	13.300	976.602	751.803
102.016	13.190	976.325	751.025
103.030	13.307	975.325	750.717
104.045	13.278	973.814	749.358
105.060	13.245	973.260	748.713
106.074	13.327	972.211	748.213
107.089	13.181	971.523	746.960
108.103	13.221	970.982	746.657
109.118	13.207	969.729	745.564
110.133	13.025	969.211	744.277
111.147	13.063	968.199	743.607
112.162	13.158	967.006	743.053
113.176	13.097	966.470	742.299
114.191	13.128	965.563	741.677
115.206	13.197	964.606	741.188
116.220	13.236	963.974	740.809
117.235	13.194	963.165	739.934
118.249	13.117	962.583	739.077
119.264	13.110	961.626	738.243
120.279	13.187	960.684	737.799
121.293	13.161	960.045	737.128
122.308	13.026	959.664	736.168
123.322	13.182	958.561	735.952
124.337	13.075	957.522	734.615
125.352	13.001	956.482	733.422
126.366	13.143	954.921	732.790
127.381	13.008	954.500	731.803
128.395	13.050	953.533	731.183
129.410	13.164	952.216	730.612
130.424	13.164	951.731	730.176
131.439	13.131	950.862	729.301
132.454	13.261	950.023	729.163
133.468	13.334	949.251	728.829
134.483	13.159	948.900	727.724
135.497	13.280	948.227	727.679
136.512	13.240	947.346	726.762
137.527	13.250	946.591	726.159
138.541	13.164	945.692	725.031
139.556	13.213	945.316	724.893
140.570	13.248	944.078	724.033
141.585	13.250	943.179	723.287
142.600	13.375	942.899	723.553
143.614	13.375	941.971	722.780
144.629	13.360	941.100	721.984
145.643	13.484	940.319	721.860
146.658	13.497	939.340	721.099
147.673	13.456	938.647	720.325
148.687	13.451	937.777	719.572
149.702	13.281	937.000	718.174
150.716	13.293	936.640	717.887
151.731	13.341	935.091	716.846
152.746	13.248	934.393	715.844
153.760	13.284	934.260	715.835
154.775	13.258	933.258	714.889
155.789	13.415	932.374	714.828
156.804	13.366	931.699	714.038
157.819	13.378	931.052	713.530
158.833	13.367	930.375	712.899
159.848	13.316	929.894	712.246
160.862	13.431	929.104	712.074
161.877	13.394	928.415	711.324
162.892	13.348	927.698	710.514
163.906	13.278	926.652	709.349
164.921	13.332	925.830	708.892
165.935	13.276	925.303	708.182
166.950	13.305	924.165	707.377
167.964	13.387	923.089	706.840
168.979	13.488	921.764	706.192
169.994	13.462	920.810	705.286
171.008	13.399	920.179	704.473
172.023	13.440	919.717	704.231
173.037	13.392	919.241	703.604
174.052	13.577	917.940	703.330
175.067	13.429	917.357	702.194
176.081	13.393	916.490	701.314
177.096	13.508	915.514	700.991
178.110	13.542	914.586	700.363
179.125	13.401	914.320	699.503
180.140	13.496	913.292	699.054
181.154	13.415	912.686	698.186
182.169	13.363	912.534	697.788
183.183	13.616	911.677	698.138
184.198	13.579	910.983	697.388
185.213	13.731	910.050	697.251
186.227	13.535	910.069	696.383
187.242	13.654	909.505	696.389
188.256	13.611	908.921	695.700
189.271	13.679	907.868	695.117
190.286	13.621	907.085	694.214
191.300	13.676	906.263	693.751
192.315	13.599	905.445	692.741
193.329	13.340	904.960	691.230
194.344	13.490	904.419	691.381
195.359	13.624	903.786	691.395
196.373	13.545	903.328	690.652
197.388	13.708	902.532	690.661
198.402	13.849	901.964	690.752
199.417	13.845	901.914	690.638
200.432	13.815	901.177	689.888
201.446	14.003	900.689	690.234
202.461	13.898	900.315	689.450
203.475	13.947	900.106	689.431
204.490	13.866	899.351	688.459
205.504	13.922	898.292	687.817
206.519	13.987	897.710	687.580
207.534	13.913	897.165	686.796
208.548	13.861	896.346	685.892
209.563	13.975	895.717	685.821
210.577	13.909	894.726	684.729
211.592	14.003	894.017	684.513
212.607	13.909	894.165	684.181
213.621	14.026	893.347	683.976
214.636	14.045	892.812	683.581
215.650	14.050	892.022	682.938
216.665	13.897	891.633	681.952
217.680	14.137	890.642	682.119
218.694	14.214	890.087	681.948
219.709	14.212	889.715	681.593
220.723	14.230	888.888	680.974
221.738	14.103	888.622	680.189
222.753	14.007	887.688	679.021
223.767	14.247	886.857	679.306
224.782	14.239	886.179	678.697
225.796	14.369	885.344	678.523
226.811	14.335	884.626	677.775
227.826	14.069	884.501	676.539
228.840	14.184	883.779	676.395
229.855	14.237	883.105	676.033
230.869	14.200	882.285	675.194
231.884	14.319	881.292	674.859
232.899	14.248	881.013	674.299
233.913	14.330	880.317	674.038
234.928	14.144	879.896	672.900
235.942	14.197	878.750	672.182
236.957	14.264	878.034	671.843
237.972	14.284	877.422	671.398
238.986	14.214	877.408	671.043
240.001	14.359	876.384	670.785
241.015	14.334	875.455	669.916
242.030	14.300	875.121	669.464
243.045	14.339	874.416	669.020
244.059	14.406	873.760	668.729
245.074	14.208	873.476	667.657
246.088	14.327	872.548	667.368
247.103	14.507	871.837	667.484
248.117	14.482	871.264	666.887
249.132	14.430	870.792	666.259
250.147	14.497	870.263	666.061
251.161	14.626	869.621	666.027
252.176	14.639	869.085	665.610
253.190	14.624	867.844	664.540
254.205	14.586	867.794	664.291
255.220	14.609	867.238	663.899
256.234	14.715	866.532	663.721
257.249	14.823	865.674	663.435
258.263	14.781	865.358	662.967
259.278	14.608	864.868	661.848
260.293	14.678	864.184	661.542
261.307	14.900	863.544	661.872
262.322	14.885	862.778	661.169
263.336	14.830	862.498	660.676
264.351	14.893	861.741	660.287
265.366	14.987	861.190	660.176
266.380	14.981	860.381	659.475
267.395	14.831	859.956	658.501
268.409	14.989	858.769	658.155
269.424	14.876	858.171	657.192
270.439	14.973	857.512	657.012
271.453	14.851	857.149	656.196
272.468	15.015	856.114	655.990
273.482	14.793	855.776	654.803
274.497	14.902	855.202	654.733
275.512	15.030	854.456	654.605
276.526	15.078	853.557	654.043
277.541	14.991	853.055	653.263
278.555	15.019	852.451	652.852
279.570	15.104	852.033	652.806
280.585	15.033	851.640	652.171
281.599	15.107	850.949	651.872
282.614	15.130	850.402	651.485
283.628	14.963	850.010	650.474
284.643	15.046	849.231	650.146
285.657	15.180	848.659	650.170
286.672	15.138	848.297	649.669
287.687	15.117	847.744	649.108
288.701	15.309	847.096	649.297
289.716	15.053	846.957	648.144
290.730	15.217	846.109	648.072
291.745	15.202	845.375	647.392
292.760	15.341	844.649	647.319
293.774	15.255	843.940	646.386
294.789	15.346	843.494	646.336
295.803	15.240	843.076	645.552
296.818	15.238	842.489	645.036
297.833	15.208	841.686	644.251
298.847	15.309	841.221	644.226
299.862	15.314	840.502	643.637
300.876	15.238	839.631	642.623
301.891	15.396	838.877	642.592
302.906	15.457	838.367	642.377
303.920	15.578	837.583	642.182
304.935	15.462	836.955	641.201
305.949	15.493	836.640	641.023
306.964	15.363	836.072	640.036
307.979	15.533	835.511	640.197
308.993	15.540	835.176	639.910
310.008	15.413	834.633	638.956
311.022	15.541	834.063	638.948
312.037	15.580	833.558	638.651
313.052	15.587	833.045	638.230
314.066	15.546	832.542	637.633
315.081	15.526	831.772	636.909
316.095	15.590	830.886	636.418
317.110	15.555	830.669	636.064
318.125	15.543	830.411	635.762
319.139	15.597	829.955	635.562
320.154	15.409	829.355	634.338
321.168	15.666	828.638	634.701
322.183	15.676	828.228	634.370
323.197	15.668	827.773	633.936
324.212	15.705	826.791	633.265
325.227	15.810	826.309	633.236
326.241	15.621	826.047	632.267
327.256	15.652	825.742	632.097
328.270	15.715	824.900	631.633
329.285	15.685	824.682	631.296
330.300	15.795	823.626	630.846
331.314	15.777	822.836	630.117
332.329	15.738	822.608	629.740
333.343	15.717	821.761	628.959
334.358	15.727	821.607	628.823
335.373	15.919	820.806	628.868
336.387	15.817	820.204	627.972
337.402	15.836	819.656	627.569
338.416	15.954	819.191	627.595
339.431	15.921	818.751	627.081
340.446	16.076	818.289	627.248
341.460	16.117	817.368	626.637
342.475	16.097	816.820	626.088
343.489	16.049	816.258	625.425
344.504	16.115	815.935	625.366
345.519	16.061	815.417	624.715
346.533	16.115	815.335	624.796
347.548	16.150	814.594	624.303
348.562	16.136	814.185	623.882
349.577	16.195	813.570	623.574
350.592	16.218	812.937	623.118
351.606	16.003	812.642	622.042
352.621	16.165	812.026	622.114
353.635	16.231	811.611	621.986
354.650	16.134	811.076	621.162
355.665	16.092	811.091	620.962
356.679	16.109	810.320	620.382
357.694	16.202	809.758	620.236
358.708	16.211	809.201	619.791
359.723	16.251	808.745	619.530
360.738	16.235	808.314	619.089
361.752	16.312	807.597	618.766
362.767	16.224	807.155	618.050
363.781	16.291	807.006	618.128
364.796	16.318	806.302	617.633
365.810	16.475	805.740	617.720
366.825	16.478	805.412	617.426
367.840	16.398	805.342	617.024
368.854	16.452	805.013	616.916
369.869	16.396	804.540	616.296
370.883	16.372	804.141	615.845
371.898	16.413	803.301	615.299
372.913	16.584	802.400	615.176
373.927	16.613	801.827	614.787
374.942	16.542	801.631	614.323
375.956	16.620	800.581	613.747
376.971	16.698	799.896	613.453
377.986	16.632	799.621	612.946
379.000	16.844	799.128	613.284
380.015	16.580	798.967	612.149
381.029	16.566	798.865	611.967
382.044	16.719	797.949	611.764
383.059	16.694	797.475	611.256
384.073	16.584	797.024	610.460
385.088	16.740	796.560	610.612
386.102	16.740	795.721	609.915
387.117	16.738	795.153	609.420
388.132	16.708	794.637	608.860
389.146	16.693	794.387	608.562
390.161	16.622	793.940	607.912
391.175	16.826	793.434	608.202
392.190	16.882	793.245	608.204
393.205	16.841	792.634	607.533
394.219	16.778	792.167	606.897
395.234	16.709	792.017	606.481
396.248	16.790	791.120	606.032
397.263	16.844	790.525	605.713
398.278	16.903	790.052	605.509
399.292	16.780	789.936	604.926
400.307	16.793	789.665	604.712
401.321	16.754	789.031	604.034
402.336	16.780	788.865	603.946
403.350	16.810	788.448	603.680
404.365	16.935	787.808	603.583
405.380	16.974	787.025	603.069
406.394	16.978	786.886	602.923
407.409	17.019	786.594	602.791
408.423	17.192	785.856	602.786
409.438	17.288	785.316	602.658
410.453	17.128	785.039	601.827
411.467	17.051	784.848	601.352
412.482	17.221	784.026	601.270
413.496	17.225	783.613	600.916
414.511	17.270	783.589	601.003
415.526	17.207	783.157	600.396
416.540	17.091	783.192	599.961
417.555	17.108	782.314	599.294
418.569	17.285	781.966	599.597
419.584	17.301	781.484	599.233
420.599	17.343	780.886	598.868
421.613	86.301	1250.893	1331.209
422.628	72.983	1319.395	1331.355
