DTS Sentinel unit serial number:	SN413079Multiplexer serial number:	ORYXHardware model number:	OX4-SRSoftware version number:	ORYX F/W v4.00 Oryx Data Collector v3.7.2.0data status	okinstallation	princeton_trtdifferential loss correction	single-endedforward channel	channel 3reverse channel	N/Adate	2019/09/14time	19:52:35forward acquisition time	60.00reverse acquisition time	0.00gamma	496.2192k internal	0.2313k external	0.2313temperature offset calibration	1.0006default loss term (dB/km)	0.3790temperature slope calibration	1.0000multiplexer offset coefficient	1.0000multiplexer slope coefficient	1.0000fibre end	0.00T internal ref (°C)	34.25T ext. ref 1 (°C)	4.87T ext. ref 2 (°C)	28.48length (m)	temperature (°C)	Stokes	anti-Stokes-747.200	236.617	-0.111	-0.187
-746.185	27.241	0.192	0.164
-745.171	-137.054	-0.220	0.026
-744.156	-200.000	-0.030	0.137
-743.142	67.787	0.119	0.123
-742.127	26.377	-0.339	0.287
-741.112	-68.454	0.386	-0.152
-740.098	-200.000	0.018	0.084
-739.083	616.555	-0.040	-0.102
-738.069	-200.000	-0.012	0.532
-737.054	800.000	0.086	0.299
-736.039	258.112	-0.080	0.140
-735.025	-165.348	0.279	-0.012
-734.010	211.953	0.145	0.231
-732.996	-200.000	0.000	0.111
-731.981	-124.416	0.307	0.049
-730.966	-120.647	-0.372	0.064
-729.952	192.181	-0.164	-0.250
-728.937	758.228	-0.047	-0.129
-727.923	-200.000	0.079	0.353
-726.908	43.392	-0.062	0.057
-725.894	178.704	-0.183	-0.270
-724.879	800.000	-0.047	-0.198
-723.864	-200.000	0.026	0.329
-722.850	-200.000	-0.003	0.219
-721.835	397.547	-0.101	-0.215
-720.821	-200.000	0.015	-0.131
-719.806	6.257	-0.180	-0.136
-718.791	-76.816	0.068	-0.024
-717.777	127.598	0.051	-0.066
-716.762	39.314	0.152	-0.138
-715.748	97.403	-0.082	-0.095
-714.733	41.161	-0.050	-0.046
-713.718	43.130	0.189	0.174
-712.704	-94.515	-0.380	-0.105
-711.689	-104.625	-0.210	-0.049
-710.675	800.000	0.095	0.306
-709.660	-200.000	0.001	0.214
-708.645	523.658	0.166	0.395
-707.631	-73.984	-0.097	0.036
-706.616	528.213	0.061	-0.146
-705.602	407.992	-0.105	-0.225
-704.587	-200.000	0.021	0.186
-703.572	-102.080	0.303	0.074
-702.558	-103.106	-0.201	-0.048
-701.543	-116.583	0.168	-0.031
-700.529	-17.484	0.206	-0.132
-699.514	-115.312	0.561	-0.107
-698.499	111.854	-0.018	-0.022
-697.485	311.749	0.092	0.174
-696.470	35.854	0.010	-0.009
-695.456	335.872	-0.246	-0.482
-694.441	75.379	-0.143	-0.152
-693.426	16.761	-0.239	0.191
-692.412	-16.482	-0.198	0.127
-691.397	-98.286	0.147	-0.038
-690.383	72.792	-0.169	-0.178
-689.368	179.802	-0.128	-0.190
-688.354	-53.071	-0.198	-0.092
-687.339	132.093	-0.130	-0.169
-686.324	-200.000	0.045	-0.218
-685.310	261.615	-0.140	-0.246
-684.295	-159.594	-0.084	-0.005
-683.281	-200.000	0.004	-0.029
-682.266	-200.000	0.010	-0.043
-681.251	800.000	0.090	-0.296
-680.237	-200.000	0.044	-0.199
-679.222	352.748	0.097	-0.194
-678.208	800.000	-0.035	-0.106
-677.193	42.159	-0.360	-0.330
-676.178	-73.368	0.231	0.085
-675.164	659.291	0.158	0.411
-674.149	-200.000	0.020	-0.150
-673.135	-69.127	-0.147	-0.057
-672.120	161.418	-0.052	0.073
-671.105	-95.470	0.285	-0.077
-670.091	240.805	0.068	0.115
-669.076	-57.583	-0.103	-0.045
-668.062	219.216	-0.088	0.142
-667.047	244.552	0.092	0.156
-666.032	-44.840	0.122	0.061
-665.018	800.000	0.115	0.327
-664.003	-29.223	0.405	-0.235
-662.989	-88.989	-0.226	0.068
-661.974	134.822	0.200	0.263
-660.959	-200.000	-0.364	0.000
-659.945	-200.000	0.001	-0.162
-658.930	-200.000	0.021	-0.106
-657.916	30.963	-0.086	0.075
-656.901	13.349	-0.195	0.153
-655.886	-55.755	0.368	-0.166
-654.872	-200.000	0.030	0.153
-653.857	194.038	-0.176	-0.270
-652.843	135.378	0.186	-0.245
-651.828	-200.000	0.026	-0.165
-650.814	42.150	0.205	-0.188
-649.799	36.522	0.199	-0.178
-648.784	429.716	-0.025	-0.055
-647.770	25.377	0.284	-0.238
-646.755	800.000	-0.048	0.172
-645.741	-108.760	-0.099	0.021
-644.726	-2.226	-0.205	0.145
-643.711	-69.879	-0.186	0.072
-642.697	12.318	-0.192	-0.149
-641.682	133.654	-0.158	-0.206
-640.668	-59.117	0.131	0.057
-639.653	-200.000	0.063	-0.284
-638.638	-64.905	-0.098	0.040
-637.624	-105.637	-0.563	-0.129
-636.609	-142.646	-0.103	-0.010
-635.595	-39.559	-0.306	-0.162
-634.580	63.931	-0.174	-0.177
-633.565	568.311	0.120	-0.295
-632.551	-200.000	-0.010	0.119
-631.536	-27.980	-0.093	-0.054
-630.522	-151.549	0.209	0.016
-629.507	248.693	0.081	0.139
-628.492	51.158	-0.219	-0.209
-627.478	-77.517	0.450	-0.158
-626.463	800.000	-0.049	-0.160
-625.449	800.000	0.053	-0.192
-624.434	-161.048	-0.200	0.011
-623.419	-200.000	-0.015	-0.185
-622.405	119.541	-0.113	-0.142
-621.390	29.157	-0.068	-0.058
-620.376	228.172	0.014	-0.023
-619.361	35.089	-0.067	-0.059
-618.346	8.865	0.142	-0.108
-617.332	-14.146	-0.124	-0.081
-616.317	-31.856	-0.236	0.134
-615.303	-200.000	-0.012	-0.123
-614.288	295.375	-0.076	0.140
-613.273	-73.855	-0.245	-0.090
-612.259	-164.759	-0.254	-0.012
-611.244	16.925	0.199	0.159
-610.230	166.419	-0.070	-0.101
-609.215	0.571	-0.074	-0.053
-608.201	-126.876	0.185	0.027
-607.186	-103.747	0.173	-0.041
-606.171	6.962	-0.326	0.245
-605.157	-169.202	0.224	0.008
-604.142	-39.845	-0.405	0.213
-603.128	516.114	-0.152	-0.359
-602.113	-85.401	0.071	-0.022
-601.098	-129.997	-0.178	-0.025
-600.084	-150.084	0.281	-0.022
-599.069	-200.000	-0.006	-0.032
-598.055	-134.070	-0.115	-0.014
-597.040	-119.579	-0.225	0.039
-596.025	-200.000	-0.002	0.107
-595.011	26.649	0.065	-0.055
-593.996	-32.155	-0.442	0.249
-592.982	-37.522	0.173	-0.093
-591.967	-200.000	0.006	-0.104
-590.952	-37.855	-0.479	0.257
-589.938	-160.561	-0.071	-0.004
-588.923	-88.372	0.266	0.080
-587.909	-161.302	0.150	-0.008
-586.894	-45.973	0.110	0.055
-585.879	408.482	0.092	0.197
-584.865	-68.134	0.256	0.101
-583.850	422.974	0.074	0.161
-582.836	-17.418	0.082	-0.052
-581.821	24.871	-0.321	-0.268
-580.806	-62.872	-0.351	0.146
-579.792	53.156	0.094	0.090
-578.777	45.519	0.058	-0.054
-577.763	-200.000	0.014	-0.322
-576.748	800.000	-0.040	-0.134
-575.733	-124.372	0.115	-0.018
-574.719	-200.000	-0.013	-0.120
-573.704	-200.000	-0.008	-0.370
-572.690	154.338	0.301	-0.416
-571.675	-200.000	-0.040	-0.226
-570.661	800.000	0.048	0.172
-569.646	-46.913	-0.215	0.106
-568.631	-37.580	-0.397	-0.213
-567.617	-128.818	-0.257	0.036
-566.602	800.000	0.011	0.033
-565.588	800.000	0.096	-0.409
-564.573	-93.329	0.306	-0.085
-563.558	-71.071	0.139	-0.053
-562.544	25.139	0.087	0.073
-561.529	-27.825	0.274	0.160
-560.515	-74.957	-0.135	0.049
-559.500	332.625	-0.052	0.100
-558.485	-86.437	0.247	-0.076
-557.471	-200.000	-0.008	0.242
-556.456	-119.789	-0.201	-0.035
-555.442	800.000	-0.040	-0.157
-554.427	800.000	-0.026	-0.096
-553.412	131.796	-0.116	0.150
-552.398	-148.779	0.084	0.007
-551.383	120.422	-0.076	-0.096
-550.369	-36.011	-0.063	0.034
-549.354	-6.573	0.281	-0.192
-548.339	-111.754	0.470	-0.096
-547.325	-200.000	0.030	-0.410
-546.310	168.044	0.147	-0.210
-545.296	217.661	0.091	0.146
-544.281	14.017	-0.142	0.111
-543.266	-22.029	0.091	-0.056
-542.252	-60.708	-0.187	0.080
-541.237	-1.552	-0.124	-0.088
-540.223	-200.000	0.003	0.030
-539.208	800.000	0.048	-0.212
-538.193	-87.381	-0.075	0.023
-537.179	421.728	-0.048	-0.104
-536.164	475.828	-0.154	-0.350
-535.150	-200.000	-0.018	0.153
-534.135	800.000	-0.062	-0.213
-533.121	-125.309	-0.238	-0.037
-532.106	-200.000	0.125	0.000
-531.091	-13.949	-0.094	-0.061
-530.077	170.447	0.172	-0.248
-529.062	159.462	-0.099	-0.139
-528.048	267.711	0.057	-0.101
-527.033	212.321	-0.238	0.378
-526.018	-152.807	0.218	-0.016
-525.004	-200.000	-0.002	0.376
-523.989	-134.661	0.233	0.029
-522.975	439.227	-0.113	-0.249
-521.960	171.543	-0.169	0.244
-520.945	175.077	-0.072	0.105
-519.931	-200.000	-0.009	-0.060
-518.916	-32.333	-0.159	-0.089
-517.902	-74.261	0.107	0.039
-516.887	-88.178	-0.269	-0.081
-515.872	-98.670	0.196	0.050
-514.858	332.277	-0.210	0.408
-513.843	96.727	0.075	0.086
-512.829	800.000	-0.074	0.269
-511.814	-117.362	-0.103	-0.019
-510.799	-24.860	-0.128	-0.077
-509.785	97.950	0.198	-0.229
-508.770	408.847	0.145	-0.308
-507.756	160.269	-0.090	-0.126
-506.741	-134.031	-0.248	0.031
-505.726	79.901	-0.262	0.283
-504.712	800.000	-0.123	-0.353
-503.697	83.054	-0.147	-0.161
-502.683	800.000	0.054	0.237
-501.668	11.231	0.315	-0.242
-500.653	61.643	0.059	0.059
-499.639	3.577	-0.196	-0.144
-498.624	800.000	-0.076	-0.249
-497.610	47.490	-0.182	0.170
-496.595	-146.911	0.174	0.015
-495.581	-200.000	0.051	0.277
-494.566	-103.216	0.159	0.038
-493.551	-30.724	-0.260	-0.148
-492.537	68.207	0.174	-0.179
-491.522	-16.068	-0.131	0.084
-490.508	460.995	0.070	-0.157
-489.493	51.907	-0.093	-0.089
-488.478	462.521	-0.028	-0.062
-487.464	-200.000	-0.003	0.073
-486.449	327.752	-0.048	-0.092
-485.435	136.875	0.099	-0.130
-484.420	311.359	0.110	0.207
-483.405	-74.122	-0.149	0.054
-482.391	800.000	0.058	0.187
-481.376	-200.000	-0.051	-0.297
-480.362	-80.052	-0.283	-0.095
-479.347	-200.000	-0.028	0.145
-478.332	-166.977	-0.046	-0.002
-477.318	800.000	0.030	0.109
-476.303	178.626	0.177	0.260
-475.289	-116.785	-0.116	0.021
-474.274	47.443	0.050	-0.046
-473.259	-42.531	-0.082	0.042
-472.245	224.242	-0.012	-0.020
-471.230	643.048	-0.084	0.215
-470.216	-43.883	-0.317	0.160
-469.201	292.638	-0.120	0.219
-468.186	70.321	-0.196	0.203
-467.172	-31.319	0.266	-0.150
-466.157	-21.660	0.174	-0.106
-465.143	-163.770	0.269	0.013
-464.128	546.630	0.028	0.067
-463.113	90.797	0.104	-0.116
-462.099	-142.067	-0.246	0.025
-461.084	-174.981	-0.162	-0.005
-460.070	45.407	0.029	-0.027
-459.055	605.591	0.158	0.395
-458.040	-51.982	0.201	0.094
-457.026	2.623	-0.295	0.215
-456.011	431.911	-0.103	0.224
-454.997	84.685	0.119	-0.131
-453.982	49.765	-0.035	-0.033
-452.968	-170.964	0.280	-0.010
-451.953	480.945	0.037	-0.083
-450.938	-200.000	-0.015	0.070
-449.924	-200.000	-0.027	0.278
-448.909	-56.961	-0.255	0.113
-447.895	536.077	-0.050	0.120
-446.880	28.857	-0.229	0.195
-445.865	-80.108	-0.283	-0.095
-444.851	175.688	0.107	-0.156
-443.836	119.755	-0.233	-0.290
-442.822	6.106	0.123	0.091
-441.807	800.000	-0.071	-0.210
-440.792	147.365	0.160	-0.216
-439.778	-146.455	0.419	0.037
-438.763	450.135	-0.126	0.278
-437.749	-150.714	0.161	-0.012
-436.734	800.000	-0.124	0.374
-435.719	-89.823	0.164	0.048
-434.705	-200.000	0.046	0.206
-433.690	-25.579	-0.176	0.104
-432.676	14.210	-0.251	-0.196
-431.661	108.301	-0.115	-0.138
-430.646	-200.000	-0.067	0.000
-429.632	-190.686	0.115	0.001
-428.617	-200.000	-0.020	-0.114
-427.603	183.340	-0.070	0.103
-426.588	56.737	0.201	0.196
-425.573	-61.296	-0.221	0.093
-424.559	-200.000	-0.048	0.299
-423.544	8.787	0.045	0.034
-422.530	-128.949	-0.172	-0.024
-421.515	112.445	-0.094	-0.114
-420.500	-66.692	0.181	0.072
-419.486	54.067	0.047	-0.045
-418.471	4.656	-0.162	-0.119
-417.457	800.000	0.099	-0.284
-416.442	-114.676	-0.077	-0.015
-415.428	-200.000	-0.034	-0.177
-414.413	51.142	-0.150	0.143
-413.398	-71.613	-0.165	0.062
-412.384	31.494	0.170	0.146
-411.369	27.140	-0.116	0.097
-410.355	602.775	-0.094	-0.234
-409.340	401.464	-0.055	0.116
-408.325	314.701	0.108	-0.204
-407.311	141.011	-0.115	-0.152
-406.296	-123.496	0.313	-0.050
-405.282	-27.539	-0.240	0.139
-404.267	-93.289	-0.162	-0.045
-403.252	37.005	-0.146	-0.130
-402.238	260.867	-0.126	0.218
-401.223	800.000	0.073	0.276
-400.209	249.099	0.169	0.286
-399.194	-150.292	0.264	0.020
-398.179	-184.461	0.185	0.003
-397.165	-23.455	0.202	0.122
-396.150	-180.529	-0.096	0.002
-395.136	-133.192	-0.050	-0.006
-394.121	355.517	0.100	-0.199
-393.106	800.000	0.044	0.128
-392.092	168.401	0.081	0.115
-391.077	-1.863	-0.106	0.074
-390.063	-115.708	-0.156	-0.029
-389.048	-200.000	0.003	-0.055
-388.033	-106.560	-0.141	0.031
-387.019	63.586	-0.147	-0.148
-386.004	36.252	-0.137	0.121
-384.990	-43.566	-0.312	-0.157
-383.975	-148.273	-0.217	-0.018
-382.960	-200.000	0.060	0.323
-381.946	90.621	-0.144	0.161
-380.931	12.798	0.121	-0.094
-379.917	-44.688	-0.185	-0.092
-378.902	800.000	0.098	-0.360
-377.888	1.814	-0.100	-0.072
-376.873	800.000	0.081	0.283
-375.858	-200.000	-0.015	-0.077
-374.844	800.000	0.088	-0.274
-373.829	6.854	-0.074	0.055
-372.815	-64.410	0.285	0.116
-371.800	-72.948	-0.265	0.097
-370.785	-200.000	0.019	0.155
-369.771	-91.563	0.413	0.118
-368.756	-11.341	0.072	-0.047
-367.742	-109.367	0.224	0.047
-366.727	-61.519	0.163	0.068
-365.712	-200.000	0.015	-0.285
-364.698	-110.692	-0.012	0.003
-363.683	15.388	-0.120	0.094
-362.669	74.495	-0.063	0.066
-361.654	800.000	-0.105	0.359
-360.639	-65.172	0.264	-0.106
-359.625	111.155	0.190	0.228
-358.610	126.752	0.074	0.094
-357.596	-18.297	-0.360	0.225
-356.581	185.133	-0.049	0.072
-355.566	382.705	0.087	-0.180
-354.552	22.930	-0.203	-0.167
-353.537	-200.000	-0.030	0.230
-352.523	211.649	0.100	-0.157
-351.508	290.135	0.189	0.343
-350.493	-200.000	0.017	0.381
-349.479	-200.000	-0.003	0.056
-348.464	762.741	-0.085	-0.231
-347.450	800.000	0.046	0.178
-346.435	800.000	0.119	0.353
-345.420	396.936	-0.065	0.136
-344.406	207.915	-0.086	-0.134
-343.391	-200.000	0.035	0.226
-342.377	-61.803	0.438	0.183
-341.362	208.009	0.095	-0.148
-340.348	185.354	-0.024	-0.035
-339.333	-64.553	-0.278	-0.113
-338.318	-200.000	-0.009	0.147
-337.304	800.000	0.035	0.130
-336.289	-113.341	-0.128	-0.025
-335.275	401.107	-0.086	0.180
-334.260	-128.512	0.183	0.026
-333.245	-136.605	-0.134	-0.016
-332.231	800.000	0.151	-0.447
-331.216	-55.195	-0.317	-0.142
-330.202	-2.267	-0.106	-0.074
-329.187	174.782	0.135	-0.195
-328.172	-200.000	-0.043	-0.321
-327.158	254.798	-0.177	-0.302
-326.143	-200.000	-0.060	0.295
-325.129	-200.000	0.006	0.057
-324.114	-111.108	0.441	-0.090
-323.099	341.404	-0.209	-0.407
-322.085	-198.097	0.360	0.002
-321.070	800.000	-0.055	0.166
-320.056	800.000	0.071	0.274
-319.041	-200.000	0.001	0.234
-318.026	-154.963	0.154	0.010
-317.012	-200.000	0.001	-0.087
-315.997	496.938	0.089	0.205
-314.983	-200.000	-0.006	0.151
-313.968	211.342	0.091	-0.142
-312.953	-115.990	-0.229	-0.043
-311.939	386.587	-0.093	-0.191
-310.924	-33.020	0.123	-0.068
-309.910	800.000	-0.018	0.075
-308.895	-59.042	0.137	-0.059
-307.880	-148.738	-0.166	-0.013
-306.866	404.909	0.048	-0.101
-305.851	51.723	-0.190	-0.180
-304.837	-200.000	-0.022	0.221
-303.822	328.191	0.097	0.186
-302.807	318.315	-0.185	-0.348
-301.793	349.480	-0.062	0.122
-300.778	800.000	0.079	0.240
-299.764	39.719	0.182	-0.163
-298.749	-200.000	0.001	0.078
-297.735	-140.150	-0.041	0.004
-296.720	800.000	0.026	-0.102
-295.705	-50.498	-0.224	0.105
-294.691	-200.000	-0.045	0.439
-293.676	142.999	0.129	-0.171
-292.662	800.000	0.011	-0.032
-291.647	-15.276	-0.129	-0.082
-290.632	-35.069	0.411	-0.223
-289.618	-129.468	-0.235	-0.032
-288.603	-200.000	-0.022	-0.137
-287.589	-200.000	0.008	-0.042
-286.574	-200.000	-0.059	-0.262
-285.559	19.081	-0.198	0.158
-284.545	-34.989	-0.290	0.157
-283.530	-200.000	-0.022	0.430
-282.516	-118.977	0.084	0.015
-281.501	140.195	-0.229	-0.300
-280.486	-76.140	-0.371	0.130
-279.472	-53.298	0.186	0.085
-278.457	-44.046	-0.268	-0.134
-277.443	182.248	0.123	0.180
-276.428	-19.915	0.286	0.176
-275.413	70.550	-0.077	0.079
-274.399	-200.000	-0.003	0.082
-273.384	-125.023	0.165	0.025
-272.370	-127.794	0.271	-0.039
-271.355	141.211	0.226	0.298
-270.340	411.146	-0.082	0.173
-269.326	-88.035	0.238	0.071
-268.311	-200.000	0.004	0.140
-267.297	638.747	0.063	-0.160
-266.282	24.440	0.062	-0.051
-265.267	-105.372	0.208	-0.047
-264.253	6.723	-0.024	0.018
-263.238	-123.813	0.162	0.025
-262.224	171.276	-0.129	-0.184
-261.209	4.168	0.095	-0.070
-260.195	32.621	0.260	0.224
-259.180	204.857	0.095	-0.146
-258.165	-200.000	0.059	-0.340
-257.151	-200.000	0.009	0.117
-256.136	99.192	-0.157	-0.180
-255.122	-82.586	0.253	-0.082
-254.107	144.040	0.124	-0.165
-253.092	-109.148	0.221	0.047
-252.078	800.000	-0.109	-0.326
-251.063	-111.406	-0.180	-0.036
-250.049	-190.444	0.019	0.000
-249.034	170.493	0.127	-0.181
-248.019	-72.577	-0.302	0.111
-247.005	42.965	-0.171	0.155
-245.990	800.000	0.088	0.319
-244.976	-44.683	-0.139	-0.069
-243.961	-149.419	-0.283	-0.022
-242.946	800.000	-0.008	-0.034
-241.932	22.191	0.165	0.134
-240.917	800.000	0.057	-0.156
-239.903	117.578	-0.159	0.194
-238.888	-190.388	-0.209	0.002
-237.873	800.000	0.147	-0.444
-236.859	198.629	-0.099	-0.151
-235.844	54.662	0.049	0.047
-234.830	-67.292	-0.183	-0.071
-233.815	-71.536	0.224	-0.083
-232.800	128.161	-0.028	-0.035
-231.786	93.481	-0.237	-0.267
-230.771	211.073	0.060	-0.094
-229.757	800.000	0.092	0.374
-228.742	180.995	-0.140	-0.205
-227.727	-151.639	0.094	-0.007
-226.713	157.176	0.223	0.306
-225.698	-200.000	-0.007	-0.166
-224.684	96.428	0.158	0.179
-223.669	800.000	-0.076	0.305
-222.655	-200.000	0.055	0.529
-221.640	-153.618	0.180	0.012
-220.625	-19.470	0.320	-0.197
-219.611	-200.000	0.005	0.209
-218.596	100.132	0.202	0.232
-217.582	-33.160	0.105	0.058
-216.567	-22.530	0.200	0.120
-215.552	-102.858	-0.230	-0.054
-214.538	36.035	0.127	0.111
-213.523	-3.099	0.296	0.205
-212.509	155.221	0.101	0.139
-211.494	-42.213	0.192	0.097
-210.479	-61.380	0.217	-0.091
-209.465	-108.354	0.265	0.057
-208.450	-132.383	0.137	-0.018
-207.436	-200.000	-0.025	0.185
-206.421	800.000	-0.028	-0.100
-205.406	-76.384	0.313	0.109
-204.392	-101.666	0.095	0.023
-203.377	177.488	0.205	0.296
-202.363	-10.321	-0.230	-0.151
-201.348	-200.000	0.027	-0.144
-200.333	800.000	0.056	0.166
-199.319	182.909	0.045	0.066
-198.304	-54.125	-0.089	0.040
-197.290	-55.340	0.168	-0.075
-196.275	170.212	-0.279	-0.397
-195.260	800.000	-0.043	-0.165
-194.246	-101.828	0.277	0.066
-193.231	-64.930	0.298	0.120
-192.217	678.357	0.050	-0.128
-191.202	8.459	0.216	0.162
-190.187	-146.785	0.334	0.029
-189.173	-24.312	0.079	-0.047
-188.158	-200.000	0.019	0.150
-187.144	-200.000	0.032	0.184
-186.129	99.742	0.255	0.294
-185.114	226.985	0.085	0.137
-184.100	800.000	-0.068	0.237
-183.085	60.338	-0.274	-0.269
-182.071	-39.547	0.272	-0.141
-181.056	-131.197	0.184	0.024
-180.042	-38.790	-0.246	0.128
-179.027	152.513	0.186	-0.252
-178.012	-14.021	0.240	0.154
-176.998	-26.160	0.334	0.195
-175.983	-200.000	-0.006	-0.238
-174.969	-135.136	-0.146	-0.017
-173.954	800.000	0.075	-0.323
-172.939	-200.000	0.064	-0.296
-171.925	64.033	0.159	-0.158
-170.910	-200.000	0.000	-0.212
-169.896	-200.000	0.015	-0.225
-168.881	606.164	-0.127	0.314
-167.866	800.000	0.080	0.241
-166.852	-99.042	0.099	0.025
-165.837	113.467	-0.165	-0.199
-164.823	800.000	-0.048	-0.168
-163.808	300.232	-0.072	0.131
-162.793	-200.000	-0.013	0.098
-161.779	800.000	0.078	0.334
-160.764	-109.015	-0.041	0.009
-159.750	71.188	-0.111	-0.114
-158.735	800.000	-0.066	-0.239
-157.720	-95.866	0.548	0.145
-156.706	-101.160	0.355	-0.086
-155.691	-200.000	0.014	-0.422
-154.677	397.812	-0.167	0.346
-153.662	-77.568	-0.275	-0.094
-152.647	-57.704	-0.231	-0.100
-151.633	-15.487	-0.192	-0.122
-150.618	-10.596	-0.122	-0.080
-149.604	157.440	0.190	0.260
-148.589	372.000	-0.140	-0.281
-147.574	89.692	-0.216	-0.238
-146.560	-200.000	-0.048	-0.300
-145.545	-90.116	0.062	0.018
-144.531	41.249	-0.148	0.132
-143.516	-50.440	0.046	-0.021
-142.502	-75.496	-0.095	0.033
-141.487	-200.000	0.022	0.097
-140.472	24.128	0.021	-0.017
-139.458	788.950	-0.055	0.148
-138.443	163.491	0.082	0.115
-137.429	-91.547	0.308	0.087
-136.414	-102.687	-0.074	-0.017
-135.399	162.402	-0.113	-0.157
-134.385	-200.000	0.003	0.283
-133.370	40.252	0.119	-0.106
-132.356	-158.952	-0.151	0.009
-131.341	12.724	0.078	0.060
-130.326	190.905	0.071	-0.106
-129.312	-165.811	0.158	0.007
-128.297	199.695	-0.098	0.149
-127.283	-93.214	0.072	0.020
-126.268	2.119	0.049	0.035
-125.253	-200.000	0.007	0.118
-124.239	-199.046	-0.342	0.002
-123.224	68.600	-0.106	-0.107
-122.210	-4.650	0.135	0.092
-121.195	-24.564	0.360	0.212
-120.180	-200.000	-0.041	-0.363
-119.166	-126.391	-0.336	-0.049
-118.151	-76.219	-0.075	0.026
-117.137	-200.000	-0.020	0.103
-116.122	-140.398	-0.209	0.022
-115.107	132.811	0.104	-0.133
-114.093	684.390	-0.207	0.534
-113.078	271.818	0.191	0.333
-112.064	190.868	0.180	0.268
-111.049	-200.000	0.052	0.385
-110.034	-119.307	-0.454	0.078
-109.020	-29.859	-0.053	0.030
-108.005	-122.977	0.106	-0.017
-106.991	-200.000	0.026	0.251
-105.976	15.807	-0.180	-0.140
-104.962	-94.661	0.192	0.052
-103.947	193.157	0.103	-0.154
-102.932	-200.000	0.034	0.192
-101.918	-108.741	0.245	-0.052
-100.903	114.548	-0.100	0.121
-99.889	-64.822	-0.137	0.055
-98.874	-136.148	-0.104	0.012
-97.859	-165.802	0.354	-0.015
-96.845	-70.214	0.162	0.061
-95.830	-28.662	-0.249	0.142
-94.816	-200.000	-0.034	-0.258
-93.801	323.951	0.144	-0.271
-92.786	-200.000	0.011	0.266
-91.772	-76.122	-0.270	0.094
-90.757	-46.207	0.126	-0.061
-89.743	-143.416	0.120	-0.011
-88.728	-200.000	-0.003	-0.077
-87.713	-175.341	-0.419	-0.011
-86.699	-200.000	-0.000	-0.336
-85.684	17.811	0.157	-0.124
-84.670	11.937	0.236	-0.179
-83.655	-7.665	0.214	-0.143
-82.640	70.189	-0.079	-0.081
-81.626	800.000	0.103	-0.429
-80.611	-90.161	0.357	0.103
-79.597	-113.078	-0.126	-0.025
-78.582	-200.000	0.007	0.034
-77.567	200.160	0.194	0.294
-76.553	-70.005	0.180	0.068
-75.538	-200.000	-0.031	-0.224
-74.524	-93.180	0.396	0.109
-73.509	-88.512	-0.222	0.065
-72.494	-144.691	-0.142	0.013
-71.480	-3.626	-0.184	0.126
-70.465	336.187	0.146	0.280
-69.451	-112.067	0.411	0.082
-68.436	-200.000	0.065	0.335
-67.422	-200.000	-0.007	-0.052
-66.407	-200.000	-0.020	0.143
-65.392	209.186	-0.098	-0.151
-64.378	-200.000	-0.038	0.328
-63.363	-68.477	0.173	-0.066
-62.349	-118.783	0.359	0.062
-61.334	-24.208	-0.968	-0.571
-60.319	339.779	0.274	0.528
-59.305	325.207	-0.528	-0.997
-58.290	410.833	0.500	1.048
-57.276	294.152	0.963	1.737
-56.261	-200.000	96.773	574.743
-55.246	628.187	1389.747	3466.916
-54.232	191.520	2582.005	3839.382
-53.217	118.642	2177.938	2654.989
-52.203	44.535	1716.007	1556.711
-51.188	37.338	1528.446	1337.204
-50.173	34.922	1501.714	1297.400
-49.159	54.574	1551.233	1476.030
-48.144	57.487	1570.162	1514.041
-47.130	37.727	1526.932	1338.345
-46.115	34.554	1511.232	1302.905
-45.100	34.417	1508.014	1299.146
-44.086	34.302	1506.389	1296.910
-43.071	34.154	1504.623	1294.334
-42.057	34.125	1503.060	1292.738
-41.042	34.200	1501.749	1292.071
-40.027	34.217	1500.698	1291.229
-39.013	34.261	1498.622	1289.690
-37.998	34.280	1497.448	1288.754
-36.984	34.220	1496.410	1287.405
-35.969	34.249	1495.014	1286.353
-34.954	34.256	1493.270	1284.848
-33.940	34.275	1491.660	1283.541
-32.925	34.276	1490.872	1282.816
-31.911	34.256	1489.680	1281.603
-30.896	34.344	1487.806	1280.535
-29.881	34.277	1486.882	1279.237
-28.867	34.319	1485.045	1277.890
-27.852	34.253	1483.955	1276.458
-26.838	34.310	1482.577	1275.604
-25.823	34.277	1481.065	1274.032
-24.809	34.280	1479.209	1272.402
-23.794	34.330	1477.734	1271.418
-22.779	34.270	1476.941	1270.284
-21.765	34.203	1476.117	1269.083
-20.750	34.367	1474.484	1268.714
-19.736	34.321	1473.411	1267.435
-18.721	34.340	1472.450	1266.686
-17.706	34.199	1471.377	1264.774
-16.692	34.270	1470.399	1264.356
-15.677	34.216	1469.743	1263.382
-14.663	34.207	1469.142	1262.755
-13.648	34.199	1468.068	1261.733
-12.633	34.217	1466.649	1260.580
-11.619	34.240	1466.188	1260.289
-10.604	34.182	1465.280	1259.071
-9.590	34.220	1464.242	1258.382
-8.575	34.244	1463.555	1257.899
-7.560	34.226	1463.050	1257.301
-6.546	34.185	1462.047	1256.114
-5.531	34.180	1460.756	1254.921
-4.517	34.281	1459.497	1254.456
-3.502	34.265	1458.641	1253.568
-2.487	34.215	1457.670	1252.355
-1.473	34.143	1457.048	1251.295
-0.458	34.204	1455.303	1250.149
0.556	33.525	1445.437	1238.405
1.571	30.265	1419.504	1195.126
2.586	26.456	1357.231	1119.080
3.600	24.469	1274.661	1039.348
4.615	22.919	1228.741	993.113
5.629	19.756	1172.058	930.226
6.644	11.693	1088.380	823.292
7.659	5.637	1047.667	762.998
8.673	4.862	1042.463	755.384
9.688	4.865	1039.612	753.268
10.702	4.895	1038.284	752.383
11.717	4.857	1036.338	750.724
12.731	6.969	1037.916	761.984
13.746	14.114	1048.184	804.118
14.761	19.302	1054.456	834.024
15.775	19.115	1053.380	832.196
16.790	18.052	1051.324	825.367
17.804	17.067	1048.877	818.624
18.819	16.190	1047.061	812.911
19.834	15.804	1045.027	809.405
20.848	15.323	1044.907	806.924
21.863	15.218	1044.044	805.683
22.877	14.923	1043.353	803.660
23.892	14.803	1042.519	802.370
24.907	14.723	1041.552	801.171
25.921	14.773	1040.747	800.721
26.936	14.697	1040.086	799.776
27.950	14.810	1038.748	799.220
28.965	14.855	1037.924	798.729
29.980	14.927	1036.819	798.154
30.994	14.918	1035.583	797.086
32.009	15.060	1034.929	797.187
33.023	15.125	1034.289	796.935
34.038	15.201	1033.587	796.688
35.053	14.960	1032.498	794.633
36.067	14.980	1031.562	793.937
37.082	14.989	1030.735	793.273
38.096	14.977	1029.850	792.464
39.111	15.026	1029.545	792.391
40.126	15.005	1028.329	791.283
41.140	14.831	1027.370	789.655
42.155	14.848	1025.836	788.484
43.169	14.745	1025.180	787.427
44.184	14.716	1024.108	786.398
45.199	14.603	1023.572	785.383
46.213	14.719	1021.992	784.648
47.228	14.759	1021.036	784.034
48.242	14.776	1020.602	783.706
49.257	14.926	1019.487	783.486
50.271	14.951	1017.950	782.353
51.286	14.818	1017.635	781.419
52.301	14.986	1016.554	781.307
53.315	14.729	1016.339	779.870
54.330	14.795	1015.525	779.482
55.344	14.766	1014.054	778.150
56.359	14.580	1013.076	776.467
57.374	14.687	1012.422	776.395
58.388	14.733	1011.794	776.058
59.403	14.562	1010.989	774.579
60.417	14.566	1010.234	773.950
61.432	14.470	1009.995	773.251
62.447	14.588	1008.700	772.737
63.461	14.562	1007.587	771.699
64.476	14.496	1006.988	770.864
65.490	14.506	1006.025	770.106
66.505	14.546	1004.614	769.144
67.520	14.437	1004.645	768.598
68.534	14.580	1003.620	768.400
69.549	14.593	1002.925	767.860
70.563	14.548	1002.445	767.218
71.578	14.577	1001.474	766.539
72.593	14.459	1000.812	765.424
73.607	14.394	999.204	763.830
74.622	14.494	998.344	763.565
75.636	14.423	997.749	762.714
76.651	14.367	996.990	761.814
77.666	14.454	996.121	761.476
78.680	14.474	995.275	760.854
79.695	14.417	995.125	760.415
80.709	14.413	994.652	759.967
81.724	14.622	993.623	760.066
82.739	14.612	993.097	759.551
83.753	14.660	992.589	759.312
84.768	14.865	991.428	759.290
85.782	14.914	991.280	759.332
86.797	15.013	990.394	759.033
87.812	15.086	989.338	758.489
88.826	15.007	988.587	757.487
89.841	14.847	987.670	755.993
90.855	14.939	987.229	756.007
91.870	15.063	986.315	755.799
92.884	14.972	985.388	754.612
93.899	15.017	984.945	754.407
94.914	15.135	984.228	754.324
95.928	15.082	983.389	753.377
96.943	15.150	982.799	753.160
97.957	14.977	982.026	751.724
98.972	14.945	980.745	750.535
99.987	15.078	980.617	750.969
101.001	15.007	979.607	749.809
102.016	14.881	979.200	748.867
103.030	14.996	977.834	748.269
104.045	15.016	976.910	747.586
105.060	14.904	976.349	746.589
106.074	14.855	975.466	745.632
107.089	14.885	974.254	744.771
108.103	14.648	973.266	742.897
109.118	14.644	972.571	742.280
110.133	14.701	971.439	741.607
111.147	14.618	970.882	740.745
112.162	14.517	970.215	739.724
113.176	14.628	969.174	739.358
114.191	14.632	968.305	738.644
115.206	14.766	967.425	738.503
116.220	14.728	966.589	737.631
117.235	14.735	966.137	737.249
118.249	14.607	965.232	735.932
119.264	14.660	964.305	735.395
120.279	14.757	962.969	734.735
121.293	14.524	962.703	733.441
122.308	14.650	961.466	732.989
123.322	14.472	960.908	731.719
124.337	14.636	959.562	731.346
125.352	14.470	958.882	730.036
126.366	14.508	957.723	729.255
127.381	14.547	957.152	728.927
128.395	14.487	955.733	727.520
129.410	14.537	954.899	727.038
130.424	14.622	954.126	726.757
131.439	14.686	953.511	726.504
132.454	14.726	952.383	725.750
133.468	14.761	951.578	725.225
134.483	14.759	951.570	725.146
135.497	14.733	950.536	724.182
136.512	14.724	949.684	723.432
137.527	14.768	948.861	722.931
138.541	14.787	948.454	722.639
139.556	14.770	947.506	721.779
140.570	14.816	947.071	721.580
141.585	14.972	946.307	721.610
142.600	14.854	945.921	720.740
143.614	14.959	945.010	720.436
144.629	15.124	944.232	720.489
145.643	14.993	943.864	719.582
146.658	15.064	942.583	718.844
147.673	15.075	941.210	717.782
148.687	14.809	940.640	716.145
149.702	14.840	939.719	715.511
150.716	14.876	938.845	714.937
151.731	14.767	938.313	714.003
152.746	14.832	937.395	713.520
153.760	14.798	936.799	712.855
154.775	14.785	936.246	712.317
155.789	14.944	935.239	712.165
156.804	14.981	934.553	711.740
157.819	15.021	933.504	711.045
158.833	15.035	933.014	710.671
159.848	14.975	932.591	710.031
160.862	15.110	932.249	710.280
161.877	15.175	930.829	709.412
162.892	15.077	929.873	708.202
163.906	14.935	929.083	706.939
164.921	14.869	928.528	706.178
165.935	14.869	927.490	705.325
166.950	14.826	926.815	704.568
167.964	15.016	925.742	704.490
168.979	14.920	925.102	703.536
169.994	15.018	923.694	702.816
171.008	14.893	923.171	701.830
172.023	15.052	922.274	701.752
173.037	14.992	922.025	701.249
174.052	15.174	920.987	701.161
175.067	15.073	920.340	700.183
176.081	14.940	919.876	699.213
177.096	14.994	918.427	698.275
178.110	14.976	917.850	697.698
179.125	14.945	917.388	697.157
180.140	15.019	916.388	696.644
181.154	14.932	915.651	695.659
182.169	15.113	915.467	696.211
183.183	15.168	914.356	695.531
184.198	15.170	913.788	695.045
185.213	15.255	913.300	694.964
186.227	15.253	912.346	694.172
187.242	15.346	911.676	693.984
188.256	15.376	911.344	693.795
189.271	15.337	910.836	693.185
190.286	15.473	909.449	692.627
191.300	15.170	909.118	691.064
192.315	14.999	908.082	689.513
193.329	14.860	907.684	688.578
194.344	14.896	907.165	688.269
195.359	15.073	906.212	688.213
196.373	15.135	905.784	688.084
197.388	15.169	905.657	688.064
198.402	15.308	905.421	688.394
199.417	15.416	904.771	688.285
200.432	15.502	904.243	688.172
201.446	15.508	903.699	687.721
202.461	15.653	903.247	687.911
203.475	15.749	902.713	687.836
204.490	15.542	902.067	686.438
205.504	15.456	901.130	685.314
206.519	15.480	900.262	684.689
207.534	15.450	899.675	684.061
208.548	15.399	899.001	683.281
209.563	15.364	898.221	682.486
210.577	15.433	897.469	682.135
211.592	15.390	896.929	681.487
212.607	15.558	896.450	681.746
213.621	15.675	895.973	681.796
214.636	15.647	895.243	681.067
215.650	15.591	894.467	680.190
216.665	15.528	894.053	679.559
217.680	15.589	893.646	679.438
218.694	15.685	893.048	679.311
219.709	15.753	892.660	679.230
220.723	15.763	891.716	678.491
221.738	15.655	891.285	677.666
222.753	15.862	890.130	677.565
223.767	15.800	889.556	676.819
224.782	15.751	888.795	675.981
225.796	15.907	887.944	675.903
226.811	15.921	887.486	675.548
227.826	15.915	886.915	675.030
228.840	15.747	886.130	673.699
229.855	15.852	885.602	673.660
230.869	15.850	885.002	673.136
231.884	15.806	883.934	672.088
232.899	15.656	883.544	671.131
233.913	15.625	882.900	670.461
234.928	15.746	882.025	670.221
235.942	15.725	881.069	669.351
236.957	15.737	880.764	669.108
237.972	15.732	880.450	668.790
238.986	15.702	879.637	667.992
240.001	15.797	878.890	667.746
241.015	15.680	878.360	666.817
242.030	15.800	877.326	666.448
243.045	15.781	877.057	666.112
244.059	15.771	876.621	665.679
245.074	15.820	876.093	665.416
246.088	15.903	875.371	665.135
247.103	16.036	874.642	665.050
248.117	16.046	874.232	664.717
249.132	16.205	873.171	664.477
250.147	16.188	873.154	664.339
251.161	16.346	872.640	664.510
252.176	16.403	872.021	664.204
253.190	16.277	871.301	663.101
254.205	16.504	870.691	663.470
255.220	16.468	870.153	662.861
256.234	16.463	869.464	662.258
257.249	16.488	868.653	661.678
258.263	16.478	868.186	661.227
259.278	16.526	867.676	660.968
260.293	16.382	867.689	660.355
261.307	16.473	866.904	660.054
262.322	16.674	865.980	660.076
263.336	16.519	865.686	659.190
264.351	16.553	865.026	658.760
265.366	16.738	864.027	658.662
266.380	16.594	863.593	657.712
267.395	16.633	862.765	657.175
268.409	16.669	861.672	656.424
269.424	16.536	861.555	655.761
270.439	16.666	860.410	655.336
271.453	16.519	859.944	654.352
272.468	16.470	859.687	653.909
273.482	16.473	858.703	653.116
274.497	16.539	857.959	652.746
275.512	16.443	857.466	651.942
276.526	16.559	856.605	651.678
277.541	16.525	856.082	651.093
278.555	16.478	855.610	650.493
279.570	16.577	855.064	650.402
280.585	16.791	854.627	650.836
281.599	16.828	853.876	650.350
282.614	16.694	853.495	649.487
283.628	16.606	852.913	648.650
284.643	16.600	852.365	648.150
285.657	16.616	851.506	647.500
286.672	16.687	851.175	647.463
287.687	16.749	850.492	647.122
288.701	16.811	849.922	646.870
289.716	16.728	849.428	646.118
290.730	16.760	849.177	645.995
291.745	16.833	848.374	645.604
292.760	16.796	847.463	644.713
293.774	16.828	847.249	644.615
294.789	16.884	846.583	644.263
295.803	17.009	845.824	644.103
296.818	16.969	845.368	643.546
297.833	16.720	844.744	642.071
298.847	16.759	844.095	641.670
299.862	16.837	843.531	641.480
300.876	16.882	842.724	640.980
301.891	17.006	842.066	640.890
302.906	17.098	841.450	640.710
303.920	17.073	841.037	640.245
304.935	17.093	840.491	639.849
305.949	17.165	839.903	639.617
306.964	17.255	839.220	639.378
307.979	17.074	838.863	638.369
308.993	17.047	838.247	637.741
310.008	17.143	837.870	637.761
311.022	17.308	836.950	637.622
312.037	17.137	836.895	636.881
313.052	17.050	836.340	636.077
314.066	17.034	835.742	635.507
315.081	16.954	835.013	634.596
316.095	16.959	834.179	633.927
317.110	17.018	833.705	633.728
318.125	17.118	833.317	633.752
319.139	16.963	832.969	632.853
320.154	17.124	831.994	632.656
321.168	17.051	831.851	632.218
322.183	17.013	831.728	631.930
323.197	17.102	831.040	631.680
324.212	17.130	830.231	631.113
325.227	17.115	829.766	630.648
326.241	17.155	829.190	630.305
327.256	17.187	828.194	629.611
328.270	17.172	828.171	629.480
329.285	17.114	827.376	628.604
330.300	17.252	826.582	628.458
331.314	17.262	825.916	627.934
332.329	17.166	825.205	626.983
333.343	17.257	824.917	627.042
334.358	17.358	824.429	626.988
335.373	17.343	824.148	626.664
336.387	17.463	823.478	626.540
337.402	17.290	823.161	625.607
338.416	17.400	822.787	625.672
339.431	17.388	822.061	625.023
340.446	17.583	821.558	625.301
341.460	17.611	820.808	624.778
342.475	17.655	820.636	624.751
343.489	17.567	820.120	623.983
344.504	17.722	819.590	624.090
345.519	17.730	819.118	623.705
346.533	17.720	818.447	623.102
347.548	17.733	818.072	622.809
348.562	17.695	817.292	622.020
349.577	17.587	817.005	621.354
350.592	17.538	816.172	620.487
351.606	17.496	815.707	619.927
352.621	17.442	815.087	619.204
353.635	17.521	814.849	619.254
354.650	17.645	814.491	619.378
355.665	17.725	813.865	619.137
356.679	17.638	813.750	618.679
357.694	17.777	813.103	618.639
358.708	17.651	812.585	617.732
359.723	17.730	812.075	617.574
360.738	17.632	811.200	616.500
361.752	17.754	810.683	616.496
362.767	17.812	810.743	616.697
363.781	17.907	810.079	616.479
364.796	17.990	809.748	616.474
365.810	18.060	809.363	616.376
366.825	17.862	809.375	615.616
367.840	18.087	808.919	616.026
368.854	18.053	808.432	615.478
369.869	17.988	807.857	614.755
370.883	18.092	806.945	614.378
371.898	18.147	806.618	614.274
372.913	18.189	805.988	613.888
373.927	18.098	805.359	613.030
374.942	18.179	804.731	612.786
375.956	18.149	803.952	612.034
376.971	18.101	803.897	611.766
377.986	18.299	803.254	611.931
379.000	18.425	802.545	611.786
380.015	18.281	802.260	610.999
381.029	18.229	801.652	610.298
382.044	18.357	800.906	610.131
383.059	18.256	800.559	609.454
384.073	18.260	800.214	609.152
385.088	18.257	799.649	608.658
386.102	18.311	798.777	608.130
387.117	18.140	798.327	607.125
388.132	18.170	797.981	606.917
389.146	18.140	797.625	606.485
390.161	18.234	796.929	606.236
391.175	18.398	796.815	606.678
392.190	18.434	796.701	606.664
393.205	18.243	796.005	605.406
394.219	18.261	795.637	605.135
395.234	18.349	795.053	604.949
396.248	18.262	794.464	604.137
397.263	17.993	794.231	602.958
398.278	18.155	793.408	602.853
399.292	18.245	792.620	602.515
400.307	18.107	792.795	602.112
401.321	18.020	792.098	601.223
402.336	18.088	791.987	601.323
403.350	18.317	791.418	601.641
404.365	18.378	790.970	601.463
405.380	18.298	790.614	600.858
406.394	18.467	790.013	600.941
407.409	18.639	789.603	601.178
408.423	18.608	789.143	600.665
409.438	18.610	788.594	600.203
410.453	18.616	788.687	600.241
411.467	18.668	788.350	600.115
412.482	18.606	787.851	599.464
413.496	18.900	786.975	599.769
414.511	18.757	786.797	599.082
415.526	18.737	786.498	598.731
416.540	18.848	786.118	598.778
417.555	18.603	786.079	597.841
418.569	18.752	784.951	597.448
419.584	18.730	784.439	596.929
420.599	18.749	784.036	596.636
421.613	155.655	1368.930	1792.386
422.628	134.439	1454.159	1792.520
