DTS Sentinel unit serial number:	SN413079Multiplexer serial number:	ORYXHardware model number:	OX4-SRSoftware version number:	ORYX F/W v4.00 Oryx Data Collector v3.7.2.0data status	okinstallation	princeton_trtdifferential loss correction	single-endedforward channel	channel 3reverse channel	N/Adate	2019/09/19time	03:08:34forward acquisition time	60.00reverse acquisition time	0.00gamma	496.2192k internal	0.2348k external	0.2348temperature offset calibration	0.9992default loss term (dB/km)	0.3790temperature slope calibration	1.0000multiplexer offset coefficient	1.0000multiplexer slope coefficient	1.0000fibre end	0.00T internal ref (°C)	20.81T ext. ref 1 (°C)	0.65T ext. ref 2 (°C)	14.38length (m)	temperature (°C)	Stokes	anti-Stokes-747.200	-122.933	0.089	0.014
-746.185	800.000	-0.079	-0.309
-745.171	-140.066	0.386	-0.041
-744.156	269.419	-0.170	-0.298
-743.142	-113.147	-0.239	-0.047
-742.127	800.000	0.096	0.368
-741.112	23.733	-0.267	0.220
-740.098	-200.000	-0.003	0.341
-739.083	800.000	-0.060	0.247
-738.069	161.857	0.172	0.240
-737.054	-112.272	0.187	-0.038
-736.039	-144.182	-0.566	-0.053
-735.025	-188.344	0.178	-0.002
-734.010	800.000	0.067	-0.289
-732.996	30.854	-0.230	0.197
-731.981	-159.447	-0.287	0.016
-730.966	-200.000	-0.027	-0.221
-729.952	-80.789	0.057	0.019
-728.937	-40.188	-0.198	-0.103
-727.923	-200.000	0.009	-0.135
-726.908	54.809	0.147	0.141
-725.894	748.622	0.030	-0.081
-724.879	185.684	0.148	0.219
-723.864	800.000	-0.081	0.267
-722.850	492.358	-0.140	0.319
-721.835	-122.371	-0.193	0.031
-720.821	-152.847	-0.115	0.008
-719.806	-33.244	-0.183	-0.101
-718.791	247.973	-0.043	0.072
-717.777	-200.000	0.085	0.418
-716.762	107.392	0.192	0.228
-715.748	-127.588	0.448	0.065
-714.733	-117.307	-0.065	0.012
-713.718	47.915	0.476	0.443
-712.704	-8.211	-0.342	0.230
-711.689	135.984	-0.156	0.203
-710.675	44.790	0.098	0.090
-709.660	800.000	0.041	-0.127
-708.645	82.489	-0.034	0.036
-707.631	41.850	0.113	-0.102
-706.616	-80.206	-0.353	0.118
-705.602	-18.620	-0.377	0.235
-704.587	275.554	-0.156	0.276
-703.572	-124.228	-0.286	-0.045
-702.558	26.218	0.104	-0.086
-701.543	155.584	0.061	0.083
-700.529	5.141	0.315	-0.231
-699.514	-15.019	-0.226	-0.144
-698.499	132.844	-0.223	-0.288
-697.485	-200.000	0.019	0.187
-696.470	-3.178	0.310	0.215
-695.456	231.142	-0.087	-0.143
-694.441	98.476	-0.263	-0.302
-693.426	800.000	0.130	-0.378
-692.412	199.625	-0.118	-0.180
-691.397	-157.584	-0.136	0.008
-690.383	-200.000	0.067	-0.383
-689.368	373.128	-0.131	-0.266
-688.354	-52.034	-0.194	0.090
-687.339	10.719	-0.249	-0.189
-686.324	-200.000	0.003	0.261
-685.310	-138.779	-0.077	-0.008
-684.295	-114.922	-0.306	-0.058
-683.281	-200.000	-0.000	0.140
-682.266	-70.156	-0.064	-0.024
-681.251	-200.000	-0.034	-0.373
-680.237	-57.315	0.393	0.172
-679.222	-43.215	0.218	0.110
-678.208	292.339	0.105	0.191
-677.193	434.406	0.133	0.289
-676.178	-200.000	-0.020	-0.105
-675.164	-132.688	-0.179	0.023
-674.149	-134.626	0.161	-0.020
-673.135	297.521	-0.120	-0.220
-672.120	248.738	0.157	-0.265
-671.105	-200.000	0.014	-0.075
-670.091	-22.129	0.063	-0.038
-669.076	800.000	0.077	-0.229
-668.062	-200.000	-0.120	0.555
-667.047	404.999	-0.138	-0.290
-666.032	-113.302	-0.200	-0.039
-665.018	-21.979	-0.168	0.102
-664.003	-75.807	0.146	-0.052
-662.989	-45.843	-0.086	-0.042
-661.974	-200.000	0.075	-0.373
-660.959	-58.595	0.087	-0.038
-659.945	20.058	0.316	0.254
-658.930	165.392	-0.103	-0.145
-657.916	767.168	-0.090	-0.245
-656.901	-110.207	0.173	0.036
-655.886	279.297	0.100	-0.178
-654.872	800.000	0.078	0.310
-653.857	376.399	-0.105	0.213
-652.843	-61.530	0.241	0.101
-651.828	422.225	-0.148	-0.317
-650.814	48.951	-0.144	0.135
-649.799	-200.000	-0.014	-0.149
-648.784	340.431	0.149	-0.289
-647.770	-200.000	-0.015	-0.109
-646.755	-21.182	0.052	-0.032
-645.741	-200.000	0.026	0.241
-644.726	102.217	0.150	0.175
-643.711	-139.681	0.120	0.013
-642.697	-11.016	-0.348	0.228
-641.682	-8.858	-0.217	0.145
-640.668	136.413	0.151	-0.196
-639.653	114.618	-0.195	-0.236
-638.638	800.000	0.067	0.252
-637.624	-90.927	-0.327	0.094
-636.609	800.000	0.056	0.174
-635.595	-200.000	-0.055	-0.279
-634.580	-82.950	-0.334	-0.107
-633.565	-200.000	0.017	-0.152
-632.551	-73.698	0.196	-0.071
-631.536	35.020	-0.191	0.167
-630.522	-200.000	0.036	-0.263
-629.507	188.452	0.194	-0.288
-628.492	35.367	0.175	-0.153
-627.478	-30.434	-0.380	-0.215
-626.463	-109.831	0.225	-0.047
-625.449	-37.926	-0.139	0.074
-624.434	-47.795	-0.141	-0.068
-623.419	-12.996	0.323	0.209
-622.405	-47.615	-0.165	-0.080
-621.390	-93.609	0.115	0.032
-620.376	-169.259	0.329	-0.012
-619.361	-54.472	-0.174	0.078
-618.346	-146.012	-0.227	-0.020
-617.332	-54.008	0.055	0.025
-616.317	-200.000	-0.025	-0.128
-615.303	273.446	-0.155	0.272
-614.288	-171.397	0.240	0.008
-613.273	5.990	0.192	-0.141
-612.259	-200.000	-0.107	-0.465
-611.244	90.484	0.153	0.170
-610.230	-161.364	-0.186	0.010
-609.215	161.462	-0.246	0.343
-608.201	-20.108	-0.034	0.021
-607.186	-4.487	-0.126	-0.086
-606.171	20.035	-0.308	-0.247
-605.157	-200.000	0.019	-0.131
-604.142	235.363	0.099	0.162
-603.128	586.880	0.064	-0.157
-602.113	26.666	-0.149	-0.124
-601.098	420.336	-0.076	-0.162
-600.084	-51.793	0.157	-0.073
-599.069	-83.499	-0.199	0.063
-598.055	800.000	0.046	-0.166
-597.040	-166.365	0.214	-0.009
-596.025	800.000	-0.114	0.349
-595.011	229.857	0.182	0.296
-593.996	278.085	0.044	0.077
-592.982	19.998	0.192	0.154
-591.967	-200.000	-0.049	-0.256
-590.952	800.000	0.073	0.290
-589.938	-53.912	0.096	0.044
-588.923	-120.754	-0.221	0.037
-587.909	155.341	-0.095	0.130
-586.894	-44.846	0.123	0.061
-585.879	8.615	-0.080	0.060
-584.865	215.231	-0.147	0.231
-583.850	-35.544	-0.168	-0.091
-582.836	-63.849	-0.216	0.088
-581.821	632.441	-0.052	0.131
-580.806	-18.829	0.171	-0.106
-579.792	337.893	-0.097	-0.187
-578.777	800.000	0.095	0.369
-577.763	800.000	-0.037	-0.113
-576.748	180.221	-0.221	-0.322
-575.733	-200.000	0.057	-0.272
-574.719	-47.608	-0.391	-0.189
-573.704	-144.530	-0.180	0.017
-572.690	-30.742	0.159	0.089
-571.675	56.880	-0.163	0.158
-570.661	-109.588	0.098	-0.020
-569.646	-51.741	0.088	0.041
-568.631	-35.844	0.204	-0.109
-567.617	-60.268	-0.238	0.101
-566.602	114.092	0.430	-0.519
-565.588	-91.066	0.266	-0.076
-564.573	-61.941	-0.222	0.092
-563.558	206.359	-0.132	-0.204
-562.544	135.015	-0.064	0.083
-561.529	93.502	0.162	-0.182
-560.515	-200.000	0.048	-0.430
-559.500	49.214	-0.205	0.191
-558.485	185.593	0.030	-0.043
-557.471	-57.124	0.488	0.213
-556.456	-175.556	-0.220	0.006
-555.442	800.000	0.032	-0.130
-554.427	12.001	-0.116	0.088
-553.412	-88.264	0.101	-0.030
-552.398	-200.000	-0.064	0.580
-551.383	-200.000	0.058	0.470
-550.369	-68.639	-0.191	-0.073
-549.354	-53.816	-0.244	0.110
-548.339	-200.000	0.030	-0.245
-547.325	-200.000	-0.022	-0.147
-546.310	-137.244	0.129	0.015
-545.296	-200.000	-0.007	0.079
-544.281	-30.291	-0.320	0.180
-543.266	-69.970	0.164	-0.062
-542.252	-200.000	-0.027	-0.425
-541.237	-200.000	0.146	-0.000
-540.223	-14.914	-0.443	-0.281
-539.208	76.255	-0.072	-0.076
-538.193	244.664	0.166	-0.277
-537.179	7.968	-0.143	0.106
-536.164	42.446	0.064	-0.058
-535.150	-88.987	-0.102	0.030
-534.135	491.978	-0.075	-0.171
-533.121	-89.691	-0.091	0.026
-532.106	-200.000	0.026	0.208
-531.091	-200.000	0.018	-0.140
-530.077	546.066	-0.170	-0.403
-529.062	-76.846	0.206	-0.071
-528.048	613.335	-0.070	0.174
-527.033	-29.468	0.172	0.098
-526.018	-90.574	0.075	-0.021
-525.004	141.973	-0.089	0.117
-523.989	-114.810	0.287	-0.054
-522.975	-23.200	0.295	-0.176
-521.960	0.760	-0.105	-0.074
-520.945	557.365	0.015	0.035
-519.931	800.000	0.018	0.062
-518.916	52.399	0.079	0.075
-517.902	-12.963	-0.128	0.082
-516.887	126.919	0.162	-0.204
-515.872	27.317	-0.190	-0.158
-514.858	505.116	-0.152	-0.349
-513.843	800.000	-0.050	-0.136
-512.829	-0.744	0.297	-0.209
-511.814	111.395	-0.047	-0.056
-510.799	95.884	-0.078	0.088
-509.785	389.103	0.054	-0.110
-508.770	-194.909	-0.615	0.005
-507.756	-31.521	0.185	0.103
-506.741	-200.000	-0.004	-0.108
-505.726	569.515	-0.172	-0.413
-504.712	-35.593	0.375	0.201
-503.697	-18.977	0.231	0.142
-502.683	184.067	0.008	-0.012
-501.668	-133.754	0.292	0.036
-500.653	-89.289	0.227	0.066
-499.639	169.476	0.116	-0.164
-498.624	92.998	0.133	0.148
-497.610	5.448	0.248	0.181
-496.595	-6.472	-0.245	0.165
-495.581	6.038	-0.181	0.133
-494.566	-119.506	0.107	-0.018
-493.551	8.683	0.202	-0.151
-492.537	-200.000	-0.003	0.093
-491.522	26.256	0.087	0.072
-490.508	-200.000	0.025	0.241
-489.493	-160.788	-0.196	-0.010
-488.478	800.000	-0.069	0.239
-487.464	580.872	0.073	-0.176
-486.449	67.895	-0.246	-0.249
-485.435	-94.939	0.295	-0.079
-484.420	-35.080	0.158	0.085
-483.405	-73.244	-0.200	-0.072
-482.391	-200.000	0.005	-0.071
-481.376	-200.000	-0.061	-0.405
-480.362	202.137	-0.254	0.387
-479.347	-154.625	-0.052	-0.003
-478.332	-122.746	0.201	-0.032
-477.318	800.000	-0.113	0.310
-476.303	-14.813	-0.109	0.069
-475.289	138.977	0.076	0.099
-474.274	210.558	0.119	-0.185
-473.259	800.000	-0.078	-0.261
-472.245	-17.402	-0.032	0.020
-471.230	-89.543	-0.301	-0.087
-470.216	-158.970	-0.179	0.010
-469.201	11.455	0.107	-0.081
-468.186	-44.176	-0.270	0.134
-467.172	-142.389	-0.050	-0.005
-466.157	77.112	0.235	-0.247
-465.143	16.798	0.135	-0.105
-464.128	-200.000	-0.037	-0.349
-463.113	-133.861	-0.171	0.021
-462.099	-99.650	-0.283	0.070
-461.084	70.714	0.073	-0.075
-460.070	35.062	-0.224	-0.193
-459.055	-127.964	0.186	-0.026
-458.040	75.291	0.157	-0.163
-457.026	-120.580	0.200	0.033
-456.011	-45.527	-0.163	-0.080
-454.997	-14.117	-0.182	-0.116
-453.982	249.800	-0.151	-0.254
-452.968	-90.507	0.134	-0.038
-451.953	65.728	0.087	-0.087
-450.938	-18.970	-0.174	-0.107
-449.924	21.502	0.254	-0.204
-448.909	800.000	0.063	-0.191
-447.895	309.777	-0.096	-0.178
-446.880	-36.311	-0.294	0.156
-445.865	-100.848	-0.103	-0.025
-444.851	178.348	0.078	-0.113
-443.836	-89.012	-0.239	0.070
-442.822	-39.101	0.161	0.084
-441.807	-200.000	-0.025	0.128
-440.792	800.000	0.084	-0.282
-439.778	-167.330	0.174	0.007
-438.763	-37.918	0.305	0.160
-437.749	-117.332	-0.066	-0.012
-436.734	105.861	0.087	0.102
-435.719	-95.004	-0.211	-0.056
-434.705	4.925	0.262	0.190
-433.690	23.919	0.284	0.231
-432.676	-52.759	0.127	-0.058
-431.661	-89.188	-0.462	0.135
-430.646	-200.000	0.021	0.092
-429.632	-17.574	0.286	0.178
-428.617	-61.670	-0.261	0.108
-427.603	172.209	-0.114	0.161
-426.588	-200.000	0.031	0.233
-425.573	-200.000	0.043	-0.216
-424.559	-11.412	-0.096	0.062
-423.544	-200.000	-0.043	-0.236
-422.530	800.000	0.027	-0.094
-421.515	371.352	-0.087	-0.175
-420.500	168.221	-0.198	0.278
-419.486	174.467	-0.119	0.170
-418.471	135.469	0.174	-0.224
-417.457	-27.738	-0.101	0.058
-416.442	37.523	-0.193	0.168
-415.428	295.240	-0.070	-0.126
-414.413	106.342	-0.143	-0.167
-413.398	-157.476	0.296	-0.018
-412.384	-40.662	0.169	0.087
-411.369	800.000	-0.103	0.352
-410.355	245.241	0.072	0.120
-409.340	-58.508	0.236	0.101
-408.325	800.000	-0.095	-0.284
-407.311	-178.962	0.182	-0.004
-406.296	250.907	0.103	-0.172
-405.282	-29.670	0.240	0.135
-404.267	-200.000	0.036	-0.182
-403.252	-200.000	-0.049	0.319
-402.238	309.853	0.136	0.251
-401.223	-73.921	-0.386	0.138
-400.209	64.066	0.143	0.142
-399.194	4.140	-0.273	0.197
-398.179	800.000	-0.088	0.252
-397.165	322.145	0.095	-0.179
-396.150	-49.664	0.172	0.081
-395.136	107.788	0.145	-0.170
-394.121	-125.593	-0.164	0.025
-393.106	-141.710	-0.178	0.018
-392.092	20.894	0.095	-0.076
-391.077	90.424	-0.112	0.123
-390.063	-27.060	-0.230	0.132
-389.048	-26.695	0.196	-0.113
-388.033	-200.000	-0.014	-0.071
-387.019	-71.127	0.079	0.029
-386.004	-200.000	-0.064	-0.434
-384.990	8.349	0.369	-0.273
-383.975	707.863	-0.075	-0.195
-382.960	-9.189	0.048	-0.031
-381.946	-78.060	0.188	-0.064
-380.931	-200.000	-0.033	0.150
-379.917	800.000	-0.048	-0.155
-378.902	642.831	-0.083	-0.208
-377.888	128.938	0.141	-0.177
-376.873	-162.153	0.139	-0.007
-375.858	-40.828	-0.187	0.095
-374.844	-15.464	-0.020	0.013
-373.829	800.000	0.044	0.130
-372.815	-124.076	-0.261	-0.040
-371.800	134.401	-0.066	0.085
-370.785	-25.363	-0.089	-0.052
-369.771	-96.008	0.054	0.014
-368.756	-62.051	0.382	-0.157
-367.742	321.291	-0.092	0.172
-366.727	254.042	-0.061	0.103
-365.712	608.264	-0.030	0.074
-364.698	231.636	-0.220	0.356
-363.683	-200.000	-0.049	0.475
-362.669	351.508	0.076	-0.149
-361.654	-78.102	-0.278	0.094
-360.639	-96.024	-0.073	-0.019
-359.625	-95.278	-0.291	-0.077
-358.610	-152.580	-0.269	0.019
-357.596	39.268	0.128	0.113
-356.581	-105.528	-0.142	-0.032
-355.566	-200.000	-0.026	0.177
-354.552	-200.000	0.018	-0.511
-353.537	10.023	0.180	0.135
-352.523	37.556	0.138	0.121
-351.508	-70.058	0.189	-0.071
-350.493	800.000	0.047	-0.175
-349.479	800.000	-0.079	0.223
-348.464	282.278	0.152	-0.269
-347.450	-200.000	0.025	-0.113
-346.435	634.116	-0.055	-0.136
-345.420	-3.240	0.210	-0.144
-344.406	49.600	0.151	0.140
-343.391	589.638	-0.094	-0.228
-342.377	322.729	0.173	0.325
-341.362	-69.537	-0.127	0.048
-340.348	-200.000	-0.007	0.147
-339.333	-105.416	-0.364	0.081
-338.318	-53.209	0.082	0.037
-337.304	2.170	0.094	0.067
-336.289	-9.365	-0.225	-0.147
-335.275	82.775	0.329	-0.351
-334.260	-200.000	0.017	-0.162
-333.245	12.201	0.228	0.173
-332.231	800.000	-0.061	0.194
-331.216	503.638	-0.041	-0.093
-330.202	-148.616	0.302	-0.024
-329.187	-200.000	-0.011	-0.152
-328.172	-5.707	0.187	0.126
-327.158	46.966	-0.064	-0.058
-326.143	-70.329	-0.083	0.031
-325.129	236.296	-0.194	0.316
-324.114	-26.702	0.160	0.092
-323.099	-193.813	-0.625	0.005
-322.085	-168.817	0.246	-0.009
-321.070	800.000	-0.105	0.329
-320.056	-24.010	0.357	0.210
-319.041	-200.000	0.036	0.157
-318.026	-30.336	0.163	0.091
-317.012	152.116	-0.092	0.124
-315.997	-18.533	0.075	-0.046
-314.983	245.548	-0.101	-0.167
-313.968	553.885	-0.208	-0.491
-312.953	-91.915	-0.250	0.070
-311.939	397.089	0.042	0.086
-310.924	-55.260	-0.138	0.061
-309.910	45.973	-0.251	-0.228
-308.895	77.743	0.150	0.157
-307.880	-113.779	0.099	-0.019
-306.866	13.184	-0.091	0.069
-305.851	187.677	-0.172	-0.253
-304.837	278.855	-0.099	-0.174
-303.822	-35.005	0.110	-0.059
-302.807	-200.000	0.035	0.191
-301.793	-26.528	-0.189	-0.108
-300.778	-200.000	-0.012	-0.206
-299.764	-120.684	-0.335	0.056
-298.749	53.318	0.309	-0.291
-297.735	-80.301	-0.244	-0.080
-296.720	99.954	0.095	-0.108
-295.705	-76.897	0.281	-0.097
-294.691	-48.715	-0.189	-0.089
-293.676	127.859	-0.280	0.350
-292.662	570.770	-0.124	0.297
-291.647	-200.000	0.013	0.402
-290.632	800.000	0.005	0.015
-289.618	139.029	-0.188	0.243
-288.603	-29.667	-0.071	-0.040
-287.589	538.469	0.070	-0.164
-286.574	-33.536	-0.115	-0.062
-285.559	-139.455	0.290	0.030
-284.545	800.000	-0.039	0.116
-283.530	-91.215	0.372	-0.105
-282.516	-87.685	-0.173	0.051
-281.501	-158.822	0.406	-0.023
-280.486	800.000	0.038	0.104
-279.472	85.407	0.135	-0.146
-278.457	-200.000	-0.039	-0.204
-277.443	496.305	-0.054	0.122
-276.428	-200.000	0.066	0.417
-275.413	800.000	0.075	-0.249
-274.399	-200.000	0.011	-0.177
-273.384	303.056	-0.051	0.094
-272.370	-145.969	-0.152	-0.013
-271.355	188.614	-0.075	0.111
-270.340	-32.922	0.108	-0.059
-269.326	401.524	0.136	-0.280
-268.311	-70.381	-0.207	0.077
-267.297	800.000	-0.047	0.132
-266.282	235.497	0.072	0.116
-265.267	-86.002	0.162	-0.049
-264.253	800.000	-0.017	-0.071
-263.238	-55.151	0.233	-0.103
-262.224	-73.308	0.136	0.049
-261.209	-112.971	0.157	-0.030
-260.195	-71.834	0.254	0.093
-259.180	174.401	0.090	-0.127
-258.165	-82.924	0.260	-0.082
-257.151	-200.000	0.068	0.334
-256.136	-200.000	0.008	0.398
-255.122	78.206	0.125	0.130
-254.107	-200.000	-0.012	0.062
-253.092	18.991	0.160	0.126
-252.078	21.134	0.066	-0.052
-251.063	-200.000	-0.015	0.155
-250.049	-200.000	0.035	0.249
-249.034	800.000	-0.100	-0.353
-248.019	58.820	-0.266	0.256
-247.005	238.616	0.137	0.223
-245.990	800.000	0.042	0.128
-244.976	31.124	0.137	0.115
-243.961	77.482	0.229	0.239
-242.946	-200.000	0.000	-0.221
-241.932	51.318	-0.144	-0.134
-240.917	-200.000	0.051	-0.387
-239.903	-92.115	0.201	0.056
-238.888	663.255	-0.046	0.116
-237.873	-83.090	0.271	-0.085
-236.859	6.998	0.030	0.022
-235.844	800.000	-0.189	0.529
-234.830	174.520	0.063	0.090
-233.815	-43.110	0.247	0.123
-232.800	800.000	0.172	0.470
-231.786	-129.137	-0.301	0.041
-230.771	296.294	-0.129	0.232
-229.757	37.694	0.342	0.297
-228.742	-92.316	0.204	-0.056
-227.727	-110.329	0.295	0.060
-226.713	22.527	-0.079	0.063
-225.698	100.642	-0.124	-0.141
-224.684	4.403	-0.222	0.159
-223.669	57.740	-0.234	0.225
-222.655	346.747	0.102	-0.196
-221.640	348.424	0.072	-0.139
-220.625	270.978	0.027	-0.046
-219.611	-62.074	-0.309	-0.126
-218.596	72.661	0.061	0.063
-217.582	-148.813	-0.187	0.015
-216.567	33.784	0.047	-0.040
-215.552	792.536	0.064	-0.173
-214.538	141.719	0.184	0.238
-213.523	-105.738	-0.039	0.009
-212.509	-193.140	-0.096	0.001
-211.494	-200.000	-0.018	-0.135
-210.479	-200.000	-0.006	-0.079
-209.465	579.818	0.036	-0.086
-208.450	-189.852	-0.169	0.002
-207.436	-200.000	-0.087	0.396
-206.421	-52.715	-0.281	-0.127
-205.406	-54.351	-0.206	-0.091
-204.392	-82.707	-0.178	0.056
-203.377	-189.700	0.160	-0.002
-202.363	460.454	-0.133	0.291
-201.348	114.472	0.059	-0.070
-200.333	800.000	-0.026	0.089
-199.319	-200.000	-0.039	-0.595
-198.304	190.653	-0.033	0.048
-197.290	100.117	0.069	-0.078
-196.275	-23.071	0.121	0.071
-195.260	-93.688	0.201	0.054
-194.246	5.132	-0.295	-0.212
-193.231	-158.995	0.380	-0.021
-192.217	-200.000	0.048	0.294
-191.202	97.437	-0.113	0.127
-190.187	35.265	-0.110	-0.094
-189.173	-200.000	-0.084	-0.421
-188.158	-108.519	-0.202	0.043
-187.144	-192.852	0.165	0.001
-186.129	-51.882	-0.306	-0.139
-185.114	-200.000	-0.039	-0.214
-184.100	-146.245	-0.167	0.014
-183.085	392.527	0.087	0.177
-182.071	92.713	-0.117	-0.129
-181.056	10.828	0.118	-0.088
-180.042	-89.631	-0.203	0.058
-179.027	-98.786	0.246	-0.061
-178.012	-178.709	-0.303	0.007
-176.998	-90.163	0.350	0.099
-175.983	-137.219	0.136	0.015
-174.969	-6.104	0.254	-0.170
-173.954	189.887	-0.072	-0.105
-172.939	-138.239	-0.170	0.018
-171.925	-130.456	-0.053	-0.007
-170.910	800.000	0.021	0.082
-169.896	53.589	0.086	0.080
-168.881	323.680	0.103	-0.192
-167.866	16.012	0.133	-0.102
-166.852	-34.783	0.039	0.021
-165.837	800.000	0.051	0.204
-164.823	237.677	0.122	0.198
-163.808	109.143	0.134	0.157
-162.793	8.497	-0.078	0.057
-161.779	21.939	-0.347	0.276
-160.764	8.668	0.367	-0.270
-159.750	-200.000	0.004	0.093
-158.735	-28.884	0.131	0.073
-157.720	-200.000	0.013	0.185
-156.706	71.992	0.185	0.188
-155.691	127.591	0.044	0.055
-154.677	135.623	-0.104	0.132
-153.662	-167.400	-0.105	0.004
-152.647	-200.000	-0.004	-0.160
-151.633	-167.147	0.212	0.008
-150.618	-136.875	0.382	0.043
-149.604	-200.000	-0.003	0.223
-148.589	512.681	-0.111	0.253
-147.574	-96.938	0.178	-0.046
-146.560	44.571	-0.121	0.109
-145.545	700.745	-0.042	0.109
-144.531	-112.506	0.338	-0.066
-143.516	-164.287	0.039	0.002
-142.502	800.000	0.039	-0.123
-141.487	800.000	0.086	-0.253
-140.472	-15.393	-0.170	-0.106
-139.458	-200.000	0.043	-0.313
-138.443	-78.443	0.186	0.062
-137.429	-29.880	0.230	0.128
-136.414	-200.000	0.004	-0.077
-135.399	-159.873	0.220	-0.012
-134.385	636.384	-0.057	0.142
-133.370	33.571	-0.229	0.195
-132.356	40.240	0.103	0.090
-131.341	-170.880	0.216	0.007
-130.326	147.576	-0.050	0.066
-129.312	-21.112	0.066	0.040
-128.297	800.000	0.016	0.063
-127.283	-63.424	-0.095	-0.038
-126.268	-200.000	0.031	0.202
-125.253	307.428	-0.142	-0.257
-124.239	-92.678	0.254	-0.069
-123.224	800.000	0.167	0.461
-122.210	800.000	-0.034	0.121
-121.195	695.703	0.101	-0.257
-120.180	9.537	0.316	-0.233
-119.166	800.000	-0.071	0.263
-118.151	-29.200	0.242	0.135
-117.137	-49.954	0.204	-0.094
-116.122	800.000	0.043	-0.123
-115.107	112.211	-0.187	-0.220
-114.093	-200.000	0.079	0.405
-113.078	-123.043	0.261	0.041
-112.064	-44.382	-0.095	0.047
-111.049	238.862	0.077	-0.125
-110.034	-45.084	0.228	-0.110
-109.020	418.646	0.087	-0.182
-108.005	-200.000	0.034	-0.222
-106.991	354.033	-0.175	-0.339
-105.976	-159.029	0.307	-0.017
-104.962	-200.000	0.035	-0.379
-103.947	30.828	-0.274	-0.229
-102.932	-200.000	0.027	-0.136
-101.918	225.986	-0.182	-0.288
-100.903	-200.000	-0.023	0.178
-99.889	-200.000	0.011	0.514
-98.874	474.020	-0.102	0.224
-97.859	-99.180	0.440	0.108
-96.845	-200.000	0.008	0.363
-95.830	3.662	0.166	0.118
-94.816	-164.268	0.306	-0.014
-93.801	800.000	0.049	0.178
-92.786	-200.000	0.005	0.145
-91.772	23.383	-0.152	-0.122
-90.757	63.472	-0.168	-0.164
-89.743	-0.355	-0.116	0.080
-88.728	192.232	-0.089	0.131
-87.713	800.000	-0.020	0.072
-86.699	789.950	0.200	-0.534
-85.684	800.000	0.018	0.062
-84.670	472.978	-0.093	-0.205
-83.655	403.917	-0.148	-0.304
-82.640	-200.000	0.014	0.423
-81.626	-200.000	-0.015	-0.069
-80.611	748.313	-0.056	0.148
-79.597	-55.068	0.487	-0.213
-78.582	-89.629	-0.354	0.101
-77.567	-200.000	-0.035	0.336
-76.553	27.435	-0.268	0.220
-75.538	-85.141	0.404	0.123
-74.524	286.343	0.201	0.352
-73.509	2.850	0.243	0.172
-72.494	667.252	0.100	-0.251
-71.480	66.782	0.075	-0.075
-70.465	-200.000	-0.081	-0.357
-69.451	-17.934	0.395	0.241
-68.436	41.580	0.316	0.278
-67.422	79.266	-0.235	-0.245
-66.407	-47.190	0.361	-0.171
-65.392	131.444	-0.082	0.102
-64.378	-110.214	0.311	0.063
-63.363	58.164	0.073	0.070
-62.349	-142.227	-0.107	-0.010
-61.334	67.115	-1.407	-1.395
-60.319	-20.906	0.879	0.524
-59.305	97.996	-1.103	-1.235
-58.290	196.931	0.853	1.266
-57.276	-200.000	0.383	1.913
-56.261	-200.000	136.208	679.787
-55.246	338.198	1679.560	3178.735
-54.232	134.537	2804.746	3538.662
-53.217	86.762	2195.888	2357.063
-52.203	30.939	1712.686	1427.256
-51.188	23.743	1536.489	1230.716
-50.173	22.088	1514.682	1201.890
-49.159	46.361	1590.073	1433.491
-48.144	42.846	1600.112	1417.784
-47.130	23.876	1548.941	1241.425
-46.115	21.100	1533.043	1209.421
-45.100	20.969	1529.379	1205.574
-44.086	20.856	1527.901	1203.586
-43.071	20.667	1526.465	1201.102
-42.057	20.683	1524.905	1199.935
-41.042	20.780	1522.949	1199.019
-40.027	20.728	1521.448	1197.430
-39.013	20.757	1520.073	1196.501
-37.998	20.722	1518.652	1195.096
-36.984	20.710	1517.634	1194.161
-35.969	20.738	1516.277	1193.237
-34.954	20.830	1514.765	1192.632
-33.940	20.758	1513.296	1190.935
-32.925	20.717	1512.000	1189.585
-31.911	20.891	1510.583	1189.617
-30.896	20.830	1509.331	1188.162
-29.881	20.797	1508.642	1187.352
-28.867	20.923	1506.551	1186.513
-27.852	20.984	1505.287	1185.891
-26.838	20.887	1504.325	1184.423
-25.823	20.907	1502.336	1182.947
-24.809	20.863	1501.082	1181.614
-23.794	20.774	1499.882	1180.020
-22.779	20.843	1498.738	1179.542
-21.765	20.834	1497.638	1178.565
-20.750	20.853	1496.277	1177.573
-19.736	20.822	1495.622	1176.807
-18.721	20.870	1494.467	1176.171
-17.706	20.882	1493.273	1175.264
-16.692	20.792	1492.480	1173.990
-15.677	20.855	1490.795	1173.041
-14.663	20.825	1489.737	1171.962
-13.648	20.678	1489.581	1170.801
-12.633	20.769	1488.754	1170.718
-11.619	20.832	1487.397	1170.029
-10.604	20.837	1486.298	1169.154
-9.590	20.833	1485.327	1168.312
-8.575	20.827	1484.912	1167.902
-7.560	20.845	1483.477	1166.848
-6.546	20.791	1482.824	1165.923
-5.531	20.762	1482.199	1165.196
-4.517	20.812	1481.086	1164.605
-3.502	20.717	1480.151	1163.188
-2.487	20.833	1478.364	1162.513
-1.473	20.815	1477.980	1162.043
-0.458	20.733	1476.818	1160.539
0.556	19.715	1466.901	1148.583
1.571	16.657	1442.039	1109.007
2.586	13.108	1379.384	1038.452
3.600	11.505	1293.574	964.302
4.615	10.641	1248.588	925.761
5.629	9.485	1192.329	877.667
6.644	4.804	1112.144	794.725
7.659	1.252	1077.843	752.552
8.673	0.661	1072.819	746.057
9.688	0.660	1069.422	743.626
10.702	0.657	1067.832	742.442
11.717	0.632	1065.485	740.620
12.731	2.094	1065.957	748.050
13.746	7.566	1072.618	779.578
14.761	13.897	1081.071	816.888
15.775	16.995	1084.970	835.031
16.790	16.898	1083.719	833.519
17.804	15.979	1081.531	827.251
18.819	15.029	1079.808	821.201
19.834	14.714	1078.400	818.513
20.848	14.463	1077.284	816.365
21.863	14.183	1076.954	814.673
22.877	13.993	1075.813	812.806
23.892	13.757	1074.964	810.941
24.907	13.568	1074.279	809.430
25.921	13.750	1073.172	809.410
26.936	13.729	1073.064	809.154
27.950	13.792	1071.973	808.569
28.965	13.735	1071.365	807.761
29.980	13.768	1070.476	807.180
30.994	13.949	1069.297	807.099
32.009	13.992	1068.370	806.539
33.023	13.922	1068.096	805.919
34.038	13.944	1066.733	804.926
35.053	13.886	1066.304	804.251
36.067	13.888	1065.183	803.344
37.082	13.872	1064.422	802.621
38.096	13.884	1063.457	801.881
39.111	13.828	1063.061	801.241
40.126	13.852	1062.017	800.498
41.140	13.753	1060.913	799.120
42.155	13.916	1059.443	798.725
43.169	13.680	1059.037	797.214
44.184	13.656	1058.170	796.373
45.199	13.766	1057.020	795.969
46.213	13.652	1056.022	794.600
47.228	13.755	1055.421	794.569
48.242	13.886	1053.672	793.809
49.257	13.841	1052.675	792.774
50.271	13.815	1051.747	791.879
51.286	13.853	1051.180	791.565
52.301	13.818	1050.075	790.494
53.315	13.864	1049.349	790.097
54.330	13.784	1048.939	789.338
55.344	13.851	1047.620	788.593
56.359	13.759	1046.563	787.291
57.374	13.838	1046.110	787.257
58.388	13.675	1045.076	785.634
59.403	13.726	1044.146	785.107
60.417	13.654	1043.798	784.438
61.432	13.751	1042.804	784.077
62.447	13.696	1041.887	783.059
63.461	13.679	1041.304	782.473
64.476	13.598	1040.677	781.549
65.490	13.782	1039.144	781.197
66.505	13.653	1038.462	780.009
67.520	13.667	1037.839	779.538
68.534	13.777	1036.834	779.227
69.549	13.723	1035.992	778.272
70.563	13.843	1035.011	778.032
71.578	13.787	1034.712	777.477
72.593	13.668	1033.587	776.003
73.607	13.567	1032.795	774.869
74.622	13.560	1031.958	774.141
75.636	13.584	1031.167	773.590
76.651	13.633	1029.909	772.805
77.666	13.725	1029.296	772.705
78.680	13.672	1028.441	771.748
79.695	13.689	1028.059	771.475
80.709	13.618	1027.460	770.623
81.724	13.781	1026.453	770.559
82.739	13.726	1026.030	769.918
83.753	13.889	1024.468	769.433
84.768	13.759	1024.009	768.418
85.782	13.854	1022.911	767.965
86.797	13.871	1022.300	767.515
87.812	13.939	1021.409	767.096
88.826	13.773	1021.097	766.024
89.841	13.834	1019.858	765.310
90.855	13.859	1019.199	764.863
91.870	13.856	1018.638	764.362
92.884	13.883	1017.597	763.635
93.899	13.843	1017.290	763.156
94.914	14.001	1016.345	763.105
95.928	13.993	1015.703	762.515
96.943	13.966	1014.783	761.634
97.957	13.884	1014.172	760.735
98.972	13.925	1013.274	760.178
99.987	13.880	1012.590	759.393
101.001	13.889	1011.733	758.724
102.016	14.056	1010.548	758.532
103.030	13.996	1009.721	757.568
104.045	13.868	1009.274	756.583
105.060	13.993	1007.928	756.077
106.074	13.965	1007.002	755.189
107.089	13.871	1005.908	753.876
108.103	13.977	1005.218	753.773
109.118	13.888	1004.251	752.578
110.133	13.747	1003.930	751.629
111.147	13.957	1002.157	751.186
112.162	13.901	1001.707	750.530
113.176	13.802	1001.177	749.619
114.191	13.852	1000.185	749.037
115.206	13.925	999.052	748.449
116.220	13.887	998.352	747.687
117.235	13.875	997.782	747.142
118.249	13.835	996.779	746.142
119.264	13.882	995.618	745.421
120.279	13.860	995.082	744.853
121.293	13.738	993.971	743.409
122.308	13.766	993.520	743.131
123.322	13.668	992.960	742.210
124.337	13.804	991.375	741.567
125.352	13.762	990.476	740.641
126.366	13.850	988.812	739.724
127.381	13.647	988.479	738.504
128.395	13.770	987.199	738.027
129.410	13.820	985.821	737.156
130.424	13.794	985.221	736.525
131.439	13.818	984.092	735.722
132.454	13.824	983.627	735.339
133.468	13.655	982.908	733.988
134.483	13.767	982.371	734.015
135.497	13.810	981.177	733.248
136.512	13.864	980.451	732.881
137.527	13.827	980.124	732.407
138.541	13.756	979.273	731.396
139.556	13.858	978.536	731.230
140.570	13.851	977.513	730.368
141.585	13.860	976.822	729.829
142.600	13.933	976.436	729.794
143.614	13.994	975.636	729.400
144.629	14.032	974.789	728.867
145.643	14.031	973.836	728.089
146.658	14.040	972.964	727.412
147.673	14.048	972.043	726.693
148.687	13.982	970.916	725.498
149.702	14.175	970.023	725.606
150.716	13.892	969.381	723.832
151.731	14.012	968.539	723.658
152.746	14.013	968.022	723.216
153.760	13.998	966.889	722.240
154.775	14.088	966.402	722.201
155.789	14.085	965.473	721.431
156.804	14.108	964.453	720.704
157.819	14.085	963.438	719.781
158.833	14.105	963.054	719.519
159.848	14.154	962.214	719.040
160.862	14.220	962.315	719.335
161.877	14.203	960.931	718.162
162.892	14.080	960.353	717.138
163.906	14.132	959.396	716.584
164.921	14.071	958.653	715.705
165.935	14.227	957.013	715.088
166.950	14.157	956.180	714.101
167.964	14.144	955.496	713.469
168.979	14.362	954.328	713.471
169.994	14.160	953.537	711.951
171.008	14.167	952.602	711.221
172.023	14.288	951.837	711.100
173.037	14.228	951.277	710.364
174.052	14.201	950.635	709.707
175.067	14.213	949.621	708.939
176.081	14.204	949.113	708.456
177.096	14.282	947.554	707.564
178.110	14.228	946.884	706.771
179.125	14.258	946.118	706.263
180.140	14.285	945.478	705.836
181.154	14.368	944.628	705.491
182.169	14.206	944.572	704.701
183.183	14.288	943.945	704.520
184.198	14.314	942.820	703.729
185.213	14.407	941.708	703.227
186.227	14.492	941.355	703.258
187.242	14.465	940.972	702.798
188.256	14.585	940.059	702.561
189.271	14.621	939.352	702.120
190.286	14.419	938.727	700.740
191.300	14.503	938.156	700.604
192.315	14.378	937.252	699.345
193.329	14.381	936.685	698.871
194.344	14.423	936.039	698.502
195.359	14.431	935.471	698.050
196.373	14.515	934.661	697.739
197.388	14.512	934.159	697.288
198.402	14.496	933.685	696.803
199.417	14.466	933.292	696.327
200.432	14.611	932.981	696.635
201.446	14.559	932.270	695.830
202.461	14.654	931.739	695.768
203.475	14.646	930.952	695.084
204.490	14.714	930.410	694.899
205.504	14.685	929.277	693.872
206.519	14.647	928.756	693.264
207.534	14.780	927.814	693.053
208.548	14.756	927.219	692.445
209.563	14.715	926.433	691.628
210.577	14.636	925.833	690.791
211.592	14.707	925.622	690.867
212.607	14.852	924.504	690.569
213.621	14.868	923.671	689.953
214.636	14.816	923.360	689.447
215.650	14.768	922.781	688.752
216.665	14.847	922.117	688.522
217.680	14.854	921.945	688.362
218.694	14.821	921.332	687.709
219.709	14.856	920.638	687.272
220.723	14.897	920.108	686.984
221.738	15.008	919.105	686.632
222.753	14.849	918.428	685.412
223.767	15.023	917.414	685.306
224.782	14.954	916.644	684.390
225.796	15.062	916.142	684.395
226.811	15.066	915.358	683.766
227.826	15.187	914.306	683.411
228.840	14.914	914.443	682.343
229.855	15.081	913.264	682.080
230.869	14.975	912.499	681.018
231.884	14.935	912.439	680.750
232.899	15.047	911.277	680.277
233.913	15.077	910.289	679.604
234.928	14.958	910.057	678.888
235.942	15.063	909.095	678.534
236.957	15.139	907.984	677.951
237.972	15.002	908.056	677.393
238.986	14.997	907.154	676.639
240.001	15.091	906.594	676.541
241.015	15.137	905.894	676.143
242.030	15.131	905.513	675.775
243.045	15.121	904.447	674.879
244.059	15.110	903.955	674.411
245.074	15.170	903.106	673.957
246.088	15.312	902.263	673.841
247.103	15.179	902.150	673.162
248.117	15.191	901.367	672.567
249.132	15.082	901.085	671.860
250.147	15.369	899.904	672.066
251.161	15.356	899.055	671.324
252.176	15.335	898.461	670.734
253.190	15.460	897.930	670.781
254.205	15.362	897.777	670.215
255.220	15.446	896.991	669.904
256.234	15.494	896.210	669.454
257.249	15.434	895.851	668.886
258.263	15.679	894.618	668.879
259.278	15.635	894.237	668.361
260.293	15.582	894.365	668.187
261.307	15.681	893.433	667.826
262.322	15.596	892.731	666.905
263.336	15.695	891.810	666.548
264.351	15.607	891.515	665.923
265.366	15.706	890.984	665.858
266.380	15.692	889.764	664.830
267.395	15.776	889.405	664.836
268.409	15.740	888.929	664.279
269.424	15.765	887.456	663.219
270.439	15.639	887.572	662.749
271.453	15.789	886.231	662.279
272.468	15.716	885.483	661.375
273.482	15.746	885.103	661.153
274.497	15.779	884.184	660.538
275.512	15.783	883.704	660.137
276.526	15.594	883.397	659.105
277.541	15.709	882.210	658.612
278.555	15.859	881.483	658.597
279.570	15.845	881.015	658.134
280.585	15.868	880.529	657.806
281.599	15.907	879.910	657.437
282.614	15.889	879.227	656.799
283.628	15.983	878.508	656.568
284.643	15.997	878.043	656.219
285.657	16.043	877.591	656.000
286.672	16.006	877.318	655.593
287.687	15.958	876.503	654.742
288.701	16.047	876.011	654.663
289.716	16.022	875.148	653.860
290.730	16.039	875.010	653.767
291.745	15.910	874.156	652.571
292.760	16.134	873.339	652.772
293.774	16.020	872.806	651.873
294.789	16.072	872.099	651.487
295.803	16.110	871.513	651.140
296.818	16.205	871.128	651.161
297.833	16.067	870.523	650.119
298.847	16.001	869.904	649.344
299.862	16.218	868.593	649.145
300.876	16.230	868.388	648.979
301.891	16.302	867.633	648.635
302.906	16.148	867.466	647.861
303.920	16.215	866.682	647.475
304.935	16.320	865.661	647.056
305.949	16.282	864.974	646.341
306.964	16.315	864.932	646.379
307.979	16.474	863.778	646.066
308.993	16.347	863.600	645.391
310.008	16.371	862.954	644.942
311.022	16.466	862.294	644.753
312.037	16.487	861.741	644.364
313.052	16.530	861.202	644.068
314.066	16.486	860.573	643.374
315.081	16.440	860.103	642.789
316.095	16.262	859.497	641.602
317.110	16.441	858.850	641.742
318.125	16.485	858.320	641.459
319.139	16.385	857.951	640.746
320.154	16.324	857.861	640.390
321.168	16.387	856.946	639.890
322.183	16.500	856.259	639.747
323.197	16.529	855.873	639.512
324.212	16.599	855.080	639.129
325.227	16.616	854.620	638.789
326.241	16.506	854.238	638.034
327.256	16.478	853.462	637.291
328.270	16.523	853.142	637.167
329.285	16.532	852.449	636.627
330.300	16.562	851.777	636.183
331.314	16.673	850.940	635.917
332.329	16.598	850.515	635.262
333.343	16.554	849.949	634.617
334.358	16.676	849.543	634.717
335.373	16.691	848.793	634.155
336.387	16.673	848.195	633.586
337.402	16.808	847.679	633.647
338.416	16.693	847.462	633.001
339.431	16.781	846.763	632.751
340.446	16.849	846.062	632.427
341.460	16.762	845.956	631.964
342.475	16.832	844.974	631.438
343.489	16.823	844.504	630.997
344.504	17.036	843.464	630.956
345.519	17.092	843.115	630.846
346.533	16.931	842.787	629.946
347.548	16.933	842.259	629.506
348.562	17.096	841.326	629.354
349.577	17.006	841.221	628.888
350.592	16.764	840.666	627.519
351.606	16.973	839.820	627.606
352.621	16.968	839.626	627.386
353.635	17.002	839.187	627.131
354.650	16.883	838.943	626.452
355.665	17.122	838.228	626.744
356.679	17.052	838.005	626.263
357.694	17.026	837.501	625.736
358.708	17.158	836.789	625.635
359.723	17.023	836.163	624.614
360.738	16.998	835.607	624.054
361.752	17.116	835.104	624.056
362.767	17.191	834.748	624.010
363.781	17.303	833.992	623.801
364.796	17.275	833.629	623.372
365.810	17.176	833.320	622.724
366.825	17.282	833.091	622.884
367.840	17.293	832.811	622.659
368.854	17.251	832.330	622.092
369.869	17.233	832.028	621.745
370.883	17.288	831.041	621.155
371.898	17.383	830.197	620.814
372.913	17.354	830.014	620.518
373.927	17.337	829.643	620.121
374.942	17.351	828.997	619.637
375.956	17.358	828.159	618.982
376.971	17.597	827.135	619.029
377.986	17.541	827.264	618.868
379.000	17.435	826.554	617.897
380.015	17.556	825.815	617.728
381.029	17.541	825.042	617.039
382.044	17.538	825.207	617.098
383.059	17.602	824.537	616.775
384.073	17.638	823.592	616.142
385.088	17.441	823.475	615.289
386.102	17.578	822.562	615.048
387.117	17.689	821.904	614.900
388.132	17.674	821.591	614.559
389.146	17.597	821.493	614.155
390.161	17.536	821.185	613.647
391.175	17.672	820.452	613.534
392.190	17.650	820.489	613.432
393.205	17.564	820.014	612.711
394.219	17.661	819.262	612.446
395.234	17.597	818.955	611.932
396.248	17.530	818.523	611.312
397.263	17.809	817.547	611.531
398.278	17.660	817.427	610.852
399.292	17.545	816.856	609.960
400.307	17.670	816.443	610.044
401.321	17.672	816.266	609.865
402.336	17.719	815.438	609.362
403.350	17.741	815.074	609.113
404.365	17.728	814.733	608.758
405.380	17.629	814.360	608.072
406.394	17.864	813.635	608.316
407.409	17.799	813.270	607.758
408.423	17.915	812.496	607.538
409.438	17.877	812.387	607.268
410.453	18.008	811.907	607.321
411.467	18.008	811.310	606.822
412.482	17.979	811.146	606.541
413.496	17.972	810.496	605.977
414.511	18.183	810.210	606.458
415.526	18.098	809.864	605.843
416.540	18.029	809.750	605.462
417.555	18.198	808.734	605.246
418.569	18.073	808.365	604.474
419.584	18.234	807.759	604.537
420.599	18.233	807.632	604.384
421.613	116.099	1300.106	1492.760
422.628	100.413	1371.793	1492.842
