DTS Sentinel unit serial number:	SN413079Multiplexer serial number:	ORYXHardware model number:	OX4-SRSoftware version number:	ORYX F/W v4.00 Oryx Data Collector v3.7.2.0data status	okinstallation	princeton_trtdifferential loss correction	single-endedforward channel	channel 3reverse channel	N/Adate	2019/09/15time	01:48:34forward acquisition time	60.00reverse acquisition time	0.00gamma	496.2192k internal	0.2321k external	0.2321temperature offset calibration	0.9969default loss term (dB/km)	0.3790temperature slope calibration	1.0000multiplexer offset coefficient	1.0000multiplexer slope coefficient	1.0000fibre end	0.00T internal ref (°C)	31.81T ext. ref 1 (°C)	4.51T ext. ref 2 (°C)	26.73length (m)	temperature (°C)	Stokes	anti-Stokes-747.200	-93.900	0.061	0.017
-746.185	-200.000	0.025	0.609
-745.171	19.278	-0.076	-0.062
-744.156	800.000	0.079	0.247
-743.142	73.908	0.007	-0.008
-742.127	-9.633	-0.242	0.163
-741.112	-200.000	0.023	0.189
-740.098	6.768	-0.056	0.042
-739.083	-9.407	-0.188	0.127
-738.069	-200.000	0.022	0.206
-737.054	-139.058	0.208	-0.023
-736.039	-200.000	-0.052	-0.284
-735.025	-86.067	0.109	0.034
-734.010	-31.219	0.034	-0.019
-732.996	368.262	-0.120	-0.246
-731.981	-130.912	-0.221	0.030
-730.966	101.019	-0.184	0.216
-729.952	20.571	0.126	0.103
-728.937	547.317	0.090	-0.219
-727.923	-28.877	0.110	0.064
-726.908	309.103	-0.107	0.203
-725.894	705.739	0.036	0.097
-724.879	107.122	0.052	-0.062
-723.864	707.910	-0.089	-0.237
-722.850	3.845	-0.412	-0.304
-721.835	-95.482	0.298	0.081
-720.821	231.510	0.046	0.076
-719.806	-59.737	0.042	-0.018
-718.791	-167.433	0.210	-0.009
-717.777	-149.822	-0.089	0.007
-716.762	184.639	-0.165	-0.248
-715.748	201.235	-0.135	-0.210
-714.733	-200.000	-0.041	-0.228
-713.718	-200.000	-0.008	0.158
-712.704	437.571	0.127	0.279
-711.689	800.000	-0.065	-0.222
-710.675	421.245	0.081	0.175
-709.660	-200.000	-0.028	0.174
-708.645	800.000	0.034	0.130
-707.631	-165.263	0.188	-0.008
-706.616	194.892	0.089	-0.137
-705.602	129.488	-0.061	-0.079
-704.587	-124.716	0.405	-0.063
-703.572	-81.692	-0.140	-0.046
-702.558	-200.000	-0.043	0.289
-701.543	76.318	0.157	-0.168
-700.529	-45.081	0.130	-0.065
-699.514	-109.884	0.470	0.099
-698.499	440.233	0.018	-0.039
-697.485	579.432	0.023	-0.056
-696.470	800.000	0.057	-0.212
-695.456	235.044	-0.107	-0.179
-694.441	26.768	-0.285	-0.241
-693.426	-14.569	0.388	0.252
-692.412	-80.044	-0.134	-0.045
-691.397	-194.546	-0.436	0.003
-690.383	29.358	-0.048	0.041
-689.368	-107.184	0.128	-0.028
-688.354	-200.000	-0.007	-0.042
-687.339	-200.000	-0.040	0.295
-686.324	-93.338	-0.268	-0.075
-685.310	800.000	0.067	-0.214
-684.295	-120.941	-0.159	0.027
-683.281	-29.727	0.100	-0.057
-682.266	-130.470	-0.301	-0.041
-681.251	-200.000	-0.011	-0.339
-680.237	-200.000	0.029	-0.384
-679.222	-26.051	0.042	-0.025
-678.208	71.816	0.132	-0.138
-677.193	-88.513	-0.046	-0.014
-676.178	-200.000	-0.010	0.120
-675.164	-58.138	-0.105	-0.046
-674.149	-78.254	-0.034	-0.012
-673.135	-200.000	-0.018	0.098
-672.120	-176.139	-0.299	0.008
-671.105	246.691	0.278	-0.472
-670.091	16.000	0.158	-0.125
-669.076	96.166	-0.160	0.184
-668.062	237.180	-0.044	0.074
-667.047	-64.101	-0.070	0.029
-666.032	-96.904	0.192	-0.051
-665.018	43.776	-0.247	0.228
-664.003	-200.000	0.030	0.186
-662.989	-135.552	0.369	0.044
-661.974	74.771	-0.046	-0.049
-660.959	-104.228	-0.047	0.011
-659.945	-200.000	-0.058	-0.313
-658.930	304.071	-0.080	0.149
-657.916	-106.849	0.472	-0.106
-656.901	-71.353	-0.034	0.013
-655.886	-78.390	0.157	0.054
-654.872	-200.000	-0.018	-0.163
-653.857	20.251	0.090	-0.073
-652.843	-200.000	0.021	0.132
-651.828	155.692	0.069	0.096
-650.814	-200.000	-0.085	0.401
-649.799	-200.000	0.011	0.316
-648.784	-200.000	-0.009	0.223
-647.770	105.238	-0.176	-0.209
-646.755	-200.000	0.015	-0.085
-645.741	-79.837	0.127	-0.043
-644.726	488.896	0.047	-0.109
-643.711	41.975	-0.259	-0.237
-642.697	145.877	0.045	0.061
-641.682	-200.000	0.019	0.224
-640.668	-143.514	-0.283	-0.027
-639.653	60.259	0.281	-0.280
-638.638	70.059	0.107	-0.111
-637.624	278.214	-0.073	-0.131
-636.609	168.370	0.241	-0.345
-635.595	-92.891	-0.125	-0.035
-634.580	-200.000	-0.028	-0.544
-633.565	-189.440	0.272	0.003
-632.551	144.097	0.193	-0.259
-631.536	346.917	-0.197	0.390
-630.522	31.031	-0.243	-0.210
-629.507	222.823	0.081	0.132
-628.492	-126.174	-0.221	-0.033
-627.478	800.000	-0.091	-0.354
-626.463	39.121	-0.122	0.109
-625.449	-64.717	0.165	0.067
-624.434	-134.479	-0.163	-0.020
-623.419	800.000	-0.020	-0.083
-622.405	39.893	-0.215	-0.194
-621.390	-76.330	0.216	0.076
-620.376	5.557	0.174	0.129
-619.361	-200.000	-0.007	0.131
-618.346	288.362	0.071	-0.129
-617.332	-200.000	-0.004	0.219
-616.317	-102.148	-0.174	0.042
-615.303	-111.830	0.367	0.075
-614.288	-112.799	-0.067	0.013
-613.273	-200.000	0.001	-0.121
-612.259	-2.169	0.141	0.099
-611.244	-4.862	-0.317	0.220
-610.230	-52.526	-0.182	0.085
-609.215	4.880	-0.150	-0.111
-608.201	181.816	-0.096	0.143
-607.186	-141.705	0.261	0.026
-606.171	-52.228	-0.231	-0.108
-605.157	-15.915	0.144	-0.092
-604.142	-200.000	-0.016	0.221
-603.128	-155.445	0.150	0.010
-602.113	-21.299	0.121	0.075
-601.098	-200.000	-0.032	-0.248
-600.084	-200.000	-0.047	-0.215
-599.069	-43.092	-0.177	0.090
-598.055	87.099	0.050	0.055
-597.040	300.576	0.045	0.084
-596.025	119.858	0.220	-0.274
-595.011	-87.030	-0.293	-0.090
-593.996	800.000	-0.093	0.342
-592.982	-84.550	0.478	0.151
-591.967	-200.000	-0.003	0.079
-590.952	265.215	-0.050	-0.087
-589.938	-62.198	0.303	0.127
-588.923	53.619	-0.236	-0.228
-587.909	-66.140	-0.087	0.035
-586.894	172.745	-0.073	0.105
-585.879	99.044	0.063	-0.073
-584.865	-200.000	-0.007	-0.181
-583.850	-79.015	-0.047	-0.016
-582.836	157.891	0.117	-0.163
-581.821	42.508	0.275	0.251
-580.806	-39.910	0.438	-0.230
-579.792	80.601	0.118	0.127
-578.777	-200.000	-0.036	-0.219
-577.763	-126.169	0.258	-0.039
-576.748	141.754	0.220	0.293
-575.733	38.815	-0.259	-0.232
-574.719	296.450	-0.098	-0.180
-573.704	108.950	-0.052	0.062
-572.690	-67.957	-0.292	0.115
-571.675	-135.177	0.306	0.037
-570.661	-200.000	-0.004	0.299
-569.646	800.000	0.029	0.111
-568.631	-144.164	-0.269	-0.025
-567.617	484.431	-0.227	-0.518
-566.602	800.000	-0.138	-0.528
-565.588	171.436	-0.092	-0.133
-564.573	-142.628	0.324	-0.032
-563.558	31.978	-0.165	0.142
-562.544	-141.283	0.070	-0.007
-561.529	41.093	-0.038	0.035
-560.515	408.957	-0.021	-0.044
-559.500	272.383	-0.083	0.146
-558.485	39.469	-0.098	0.088
-557.471	-200.000	-0.021	0.289
-556.456	-41.013	-0.179	0.093
-555.442	-16.775	0.244	-0.155
-554.427	-200.000	-0.007	-0.103
-553.412	38.911	-0.272	0.244
-552.398	213.070	-0.215	0.341
-551.383	136.683	0.178	0.233
-550.369	-108.298	-0.118	0.026
-549.354	-58.720	-0.270	-0.117
-548.339	207.228	-0.094	0.147
-547.325	24.787	-0.155	-0.128
-546.310	-68.544	0.483	0.188
-545.296	-87.810	-0.209	-0.063
-544.281	123.805	0.072	-0.091
-543.266	154.943	-0.050	-0.069
-542.252	91.245	0.121	-0.137
-541.237	800.000	0.091	0.360
-540.223	-200.000	-0.468	-0.001
-539.208	114.105	0.065	-0.080
-538.193	-35.632	-0.109	0.059
-537.179	156.943	-0.121	0.167
-536.164	-100.574	-0.235	0.058
-535.150	-128.860	0.240	-0.034
-534.135	-200.000	-0.002	0.061
-533.121	-116.606	0.349	-0.064
-532.106	36.847	0.070	0.062
-531.091	-111.394	0.145	0.030
-530.077	283.443	-0.035	0.062
-529.062	-200.000	0.013	-0.191
-528.048	-200.000	-0.018	-0.246
-527.033	-86.244	0.265	0.082
-526.018	241.821	-0.100	-0.167
-525.004	-133.905	-0.158	-0.020
-523.989	27.787	-0.229	-0.194
-522.975	39.489	0.184	-0.166
-521.960	254.836	0.085	0.145
-520.945	-9.579	-0.047	0.031
-519.931	-117.321	-0.085	-0.015
-518.916	78.726	-0.097	0.104
-517.902	800.000	-0.067	-0.286
-516.887	-200.000	0.044	-0.285
-515.872	538.104	0.033	0.077
-514.858	-104.493	0.292	0.068
-513.843	-97.873	-0.183	-0.047
-512.829	157.457	-0.114	-0.157
-511.814	-79.726	-0.021	-0.007
-510.799	142.563	0.128	0.171
-509.785	800.000	0.009	0.040
-508.770	490.600	0.074	0.169
-507.756	-153.933	-0.142	0.010
-506.741	-9.757	0.154	0.102
-505.726	-126.298	0.433	0.065
-504.712	24.805	-0.417	-0.346
-503.697	800.000	0.058	-0.191
-502.683	-17.164	-0.173	0.110
-501.668	-39.058	-0.199	0.105
-500.653	-12.193	0.202	0.133
-499.639	85.602	0.070	0.077
-498.624	387.105	0.128	-0.266
-497.610	-114.456	0.243	0.047
-496.595	7.173	0.272	0.204
-495.581	-100.337	-0.173	-0.043
-494.566	11.940	-0.228	-0.175
-493.551	-63.241	-0.073	0.030
-492.537	51.325	0.152	0.144
-491.522	800.000	-0.094	0.289
-490.508	-75.627	0.044	-0.016
-489.493	26.875	0.154	-0.129
-488.478	-87.217	-0.331	-0.101
-487.464	-200.000	0.013	0.159
-486.449	800.000	0.062	-0.257
-485.435	-71.258	-0.044	0.016
-484.420	-26.137	0.067	-0.039
-483.405	441.253	-0.140	-0.307
-482.391	15.802	0.182	-0.144
-481.376	-14.575	-0.304	-0.196
-480.362	-61.769	0.176	-0.074
-479.347	35.787	-0.288	0.253
-478.332	74.321	-0.311	0.327
-477.318	21.121	-0.087	0.071
-476.303	-23.600	0.112	-0.067
-475.289	-30.011	0.255	0.145
-474.274	-200.000	0.019	-0.103
-473.259	-116.254	-0.252	0.047
-472.245	-190.051	0.033	-0.000
-471.230	800.000	0.033	0.103
-470.216	796.891	0.073	-0.202
-469.201	-160.307	0.191	-0.010
-468.186	169.830	-0.094	-0.135
-467.172	115.135	0.012	-0.015
-466.157	-200.000	0.011	0.193
-465.143	-200.000	-0.010	-0.101
-464.128	-126.449	-0.394	0.059
-463.113	-74.922	-0.248	-0.089
-462.099	-103.441	-0.156	-0.037
-461.084	159.764	-0.059	-0.082
-460.070	-200.000	0.001	0.079
-459.055	-65.818	0.144	0.058
-458.040	317.102	-0.088	-0.167
-457.026	-47.090	0.082	-0.040
-456.011	-154.159	0.017	0.001
-454.997	553.837	-0.013	0.030
-453.982	800.000	-0.026	0.088
-452.968	375.218	0.055	0.112
-451.953	800.000	0.083	-0.249
-450.938	380.222	0.115	0.235
-449.924	7.093	-0.099	0.074
-448.909	-200.000	-0.007	-0.275
-447.895	242.994	0.098	-0.164
-446.880	518.393	0.122	0.285
-445.865	-200.000	0.026	0.165
-444.851	-48.376	-0.205	-0.099
-443.836	800.000	0.116	-0.337
-442.822	-15.734	0.095	0.060
-441.807	800.000	0.100	0.305
-440.792	59.781	0.147	0.145
-439.778	-132.827	0.343	-0.044
-438.763	177.048	0.134	0.195
-437.749	-150.131	0.112	-0.009
-436.734	800.000	0.016	0.059
-435.719	-93.011	-0.281	0.078
-434.705	-200.000	-0.041	-0.241
-433.690	-149.684	0.506	0.040
-432.676	-200.000	-0.033	0.150
-431.661	132.944	0.160	0.206
-430.646	541.934	0.092	0.218
-429.632	-76.498	-0.339	0.119
-428.617	44.292	-0.333	-0.306
-427.603	61.640	0.136	0.135
-426.588	41.898	0.072	0.065
-425.573	76.611	0.137	-0.145
-424.559	487.797	0.043	0.098
-423.544	-151.766	-0.236	0.017
-422.530	40.573	-0.053	-0.048
-421.515	-74.790	0.213	-0.076
-420.500	-33.684	-0.126	-0.070
-419.486	-124.825	0.258	0.040
-418.471	312.901	0.159	-0.297
-417.457	-121.161	0.117	0.020
-416.442	-200.000	-0.038	-0.367
-415.428	128.277	0.167	-0.212
-414.413	248.288	-0.036	-0.061
-413.398	68.686	-0.248	-0.254
-412.384	15.575	-0.152	0.119
-411.369	-24.373	0.251	-0.150
-410.355	0.068	0.304	0.216
-409.340	-52.699	-0.358	0.165
-408.325	127.284	0.142	0.179
-407.311	-200.000	0.009	0.161
-406.296	-22.299	-0.040	0.024
-405.282	800.000	-0.049	0.164
-404.267	-200.000	-0.013	0.174
-403.252	-37.160	-0.109	0.058
-402.238	-40.204	0.179	-0.093
-401.223	26.709	-0.136	0.114
-400.209	-69.111	-0.101	-0.039
-399.194	-191.370	0.402	-0.004
-398.179	-200.000	-0.066	0.455
-397.165	30.246	0.288	-0.245
-396.150	-76.615	0.309	0.108
-395.136	-27.524	-0.182	-0.106
-394.121	218.170	0.138	0.220
-393.106	46.281	-0.178	0.164
-392.092	-200.000	0.009	0.141
-391.077	-73.213	0.114	-0.041
-390.063	32.889	-0.118	0.102
-389.048	258.359	0.170	0.292
-388.033	-8.866	0.274	0.183
-387.019	-58.341	-0.234	-0.101
-386.004	-101.080	0.130	0.032
-384.990	317.757	0.147	-0.278
-383.975	-83.691	-0.243	-0.077
-382.960	33.774	0.382	-0.332
-381.946	495.072	-0.137	-0.314
-380.931	-35.127	0.405	-0.220
-379.917	-200.000	-0.008	-0.133
-378.902	61.160	-0.145	-0.143
-377.888	14.605	0.056	0.044
-376.873	-200.000	0.032	-0.178
-375.858	76.671	-0.295	0.312
-374.844	81.286	-0.062	0.067
-373.829	-11.349	-0.057	0.037
-372.815	-102.957	-0.253	0.060
-371.800	-125.806	-0.085	-0.013
-370.785	-72.481	-0.154	-0.057
-369.771	-200.000	0.018	-0.082
-368.756	183.401	0.083	-0.122
-367.742	299.315	0.069	-0.127
-366.727	-80.657	0.153	-0.051
-365.712	-83.145	0.222	-0.071
-364.698	-88.555	0.182	0.054
-363.683	-200.000	0.010	-0.120
-362.669	800.000	-0.137	-0.469
-361.654	-200.000	0.018	-0.192
-360.639	-200.000	-0.023	-0.184
-359.625	-84.321	0.066	-0.021
-358.610	-13.862	-0.102	-0.066
-357.596	-71.819	-0.092	0.034
-356.581	800.000	0.138	0.383
-355.566	-200.000	0.002	0.200
-354.552	0.982	-0.245	0.175
-353.537	621.257	-0.069	-0.174
-352.523	-200.000	-0.021	0.136
-351.508	-194.302	0.284	-0.002
-350.493	-159.277	-0.325	0.018
-349.479	26.847	0.194	-0.162
-348.464	800.000	0.074	-0.242
-347.450	800.000	-0.082	0.356
-346.435	304.116	-0.144	0.266
-345.420	170.992	-0.124	0.177
-344.406	389.499	0.105	0.216
-343.391	69.967	0.145	0.149
-342.377	-50.695	-0.397	0.186
-341.362	-150.118	0.212	0.016
-340.348	51.713	0.185	-0.175
-339.333	174.903	-0.036	-0.051
-338.318	251.888	0.101	-0.172
-337.304	-200.000	-0.069	-0.411
-336.289	1.326	0.158	-0.113
-335.275	-107.111	-0.175	0.038
-334.260	120.109	-0.223	0.275
-333.245	-79.937	-0.130	0.044
-332.231	-79.620	0.228	0.077
-331.216	-117.410	0.084	0.015
-330.202	159.617	-0.193	-0.267
-329.187	755.706	-0.061	-0.164
-328.172	-200.000	-0.046	0.287
-327.158	153.402	-0.171	-0.233
-326.143	194.747	0.236	0.357
-325.129	-200.000	0.023	-0.146
-324.114	-130.861	0.269	-0.036
-323.099	-200.000	-0.032	-0.243
-322.085	62.667	0.170	0.169
-321.070	-95.825	-0.339	-0.090
-320.056	140.877	-0.196	0.258
-319.041	-200.000	-0.035	0.161
-318.026	-200.000	0.011	-0.073
-317.012	-95.041	0.158	-0.042
-315.997	-146.065	-0.327	-0.029
-314.983	183.197	0.089	0.131
-313.968	800.000	-0.063	-0.200
-312.953	33.784	-0.047	0.041
-311.939	242.566	-0.174	0.290
-310.924	127.353	0.153	0.193
-309.910	800.000	0.100	0.316
-308.895	800.000	-0.028	-0.116
-307.880	-42.095	0.033	0.017
-306.866	-108.888	0.260	-0.055
-305.851	260.309	-0.108	-0.186
-304.837	-95.226	-0.248	-0.066
-303.822	-112.710	-0.135	-0.027
-302.807	-200.000	-0.005	0.077
-301.793	-200.000	-0.010	0.056
-300.778	-102.609	-0.052	-0.012
-299.764	-48.514	-0.288	0.138
-298.749	-101.640	-0.197	0.048
-297.735	-200.000	0.011	0.114
-296.720	193.697	0.206	-0.310
-295.705	-64.803	0.078	-0.032
-294.691	-140.192	-0.354	-0.037
-293.676	258.092	0.151	0.259
-292.662	268.451	-0.130	0.225
-291.647	-142.060	-0.100	0.010
-290.632	-71.893	-0.490	-0.181
-289.618	-200.000	-0.044	-0.199
-288.603	73.724	0.058	-0.061
-287.589	417.021	0.128	-0.272
-286.574	800.000	-0.076	-0.219
-285.559	-180.535	-0.453	0.009
-284.545	446.110	0.088	-0.191
-283.530	-80.809	0.040	-0.013
-282.516	25.475	0.353	-0.291
-281.501	88.413	0.025	-0.027
-280.486	800.000	0.057	0.165
-279.472	158.532	-0.200	-0.276
-278.457	419.915	-0.108	-0.230
-277.443	273.652	-0.151	0.265
-276.428	177.383	0.092	-0.133
-275.413	-200.000	0.093	0.405
-274.399	-58.042	-0.141	0.061
-273.384	-56.650	0.147	0.065
-272.370	320.908	0.164	-0.310
-271.355	-67.969	-0.211	-0.082
-270.340	148.516	0.176	-0.236
-269.326	146.870	-0.092	0.123
-268.311	-200.000	0.018	-0.243
-267.297	-200.000	-0.069	0.336
-266.282	800.000	-0.048	0.134
-265.267	229.479	-0.204	0.331
-264.253	-200.000	-0.023	-0.140
-263.238	279.208	-0.137	-0.242
-262.224	-35.030	0.148	0.080
-261.209	800.000	-0.075	0.209
-260.195	49.557	-0.116	0.109
-259.180	-200.000	0.002	-0.200
-258.165	-200.000	0.030	-0.192
-257.151	-200.000	-0.006	-0.122
-256.136	144.518	0.201	0.266
-255.122	211.408	-0.096	0.150
-254.107	65.124	-0.288	0.288
-253.092	-49.728	0.429	0.202
-252.078	800.000	0.073	0.274
-251.063	-200.000	-0.010	0.081
-250.049	14.971	-0.327	0.254
-249.034	800.000	-0.081	0.302
-248.019	-197.042	-0.268	0.002
-247.005	-1.677	0.072	0.050
-245.990	138.358	-0.161	-0.210
-244.976	-91.129	-0.139	-0.040
-243.961	-200.000	0.017	-0.149
-242.946	506.259	-0.090	-0.206
-241.932	-6.490	-0.161	0.109
-240.917	-102.657	-0.149	0.035
-239.903	261.758	0.143	0.245
-238.888	-200.000	-0.014	0.107
-237.873	-41.298	-0.168	-0.086
-236.859	86.250	-0.058	-0.063
-235.844	-113.192	0.120	0.024
-234.830	-200.000	0.005	-0.146
-233.815	-182.129	0.242	-0.005
-232.800	-121.775	0.265	0.043
-231.786	-71.016	0.199	-0.074
-230.771	-33.035	0.180	-0.099
-229.757	93.773	-0.150	-0.168
-228.742	71.505	0.182	-0.187
-227.727	-47.834	0.112	-0.054
-226.713	-51.608	-0.340	-0.157
-225.698	43.466	0.045	0.041
-224.684	282.995	0.019	0.034
-223.669	800.000	-0.106	-0.295
-222.655	-21.559	0.056	-0.034
-221.640	-171.691	0.407	0.013
-220.625	-6.140	-0.137	0.093
-219.611	242.852	0.074	-0.122
-218.596	422.394	0.055	0.117
-217.582	388.476	-0.055	-0.113
-216.567	147.315	-0.311	0.415
-215.552	-200.000	-0.045	0.267
-214.538	-200.000	0.018	-0.098
-213.523	-158.875	0.235	0.013
-212.509	-200.000	0.012	0.430
-211.494	-81.032	-0.355	-0.116
-210.479	800.000	0.024	-0.076
-209.465	92.994	-0.118	0.132
-208.450	-85.041	-0.292	0.091
-207.436	214.875	-0.108	0.170
-206.421	-200.000	-0.082	-0.451
-205.406	101.821	0.132	0.153
-204.392	-200.000	-0.028	0.172
-203.377	98.385	-0.073	0.083
-202.363	-105.650	0.297	-0.067
-201.348	800.000	-0.049	0.200
-200.333	-31.487	0.245	0.136
-199.319	-163.882	-0.062	-0.003
-198.304	-200.000	0.005	0.123
-197.290	-70.805	0.207	0.077
-196.275	33.173	-0.108	0.092
-195.260	243.068	-0.044	0.073
-194.246	-200.000	-0.032	-0.205
-193.231	-173.902	-0.160	0.005
-192.217	-40.522	0.058	-0.030
-191.202	-106.724	0.481	-0.106
-190.187	-47.263	0.245	0.118
-189.173	-93.433	0.175	-0.048
-188.158	-34.147	0.306	-0.166
-187.144	8.976	0.151	-0.113
-186.129	29.818	-0.240	-0.202
-185.114	-123.687	0.343	0.054
-184.100	228.462	0.078	0.126
-183.085	-23.325	-0.314	-0.187
-182.071	-93.358	-0.432	0.119
-181.056	484.494	0.206	0.464
-180.042	24.451	0.328	0.268
-179.027	-200.000	0.025	-0.384
-178.012	174.737	0.096	-0.138
-176.998	-200.000	-0.060	0.454
-175.983	62.774	0.118	0.116
-174.969	-200.000	-0.030	-0.146
-173.954	575.846	0.080	-0.194
-172.939	-115.188	-0.082	-0.015
-171.925	30.869	0.099	0.083
-170.910	800.000	-0.056	-0.166
-169.896	-200.000	-0.002	-0.063
-168.881	107.938	-0.027	-0.031
-167.866	-200.000	-0.013	-0.187
-166.852	2.442	0.333	-0.239
-165.837	147.815	0.130	-0.173
-164.823	-200.000	-0.026	0.567
-163.808	-130.325	-0.427	0.057
-162.793	-200.000	-0.033	0.384
-161.779	-200.000	-0.002	-0.217
-160.764	294.151	0.056	0.101
-159.750	0.238	-0.169	0.119
-158.735	-135.100	0.107	0.013
-157.720	35.476	0.326	-0.282
-156.706	-14.044	0.041	0.026
-155.691	-161.974	-0.198	-0.010
-154.677	2.675	-0.027	0.019
-153.662	800.000	0.067	0.256
-152.647	96.273	0.092	-0.103
-151.633	495.961	0.119	-0.270
-150.618	800.000	-0.072	0.213
-149.604	-118.880	0.165	-0.029
-148.589	-129.971	-0.060	0.008
-147.574	376.577	-0.096	0.194
-146.560	145.360	0.263	-0.347
-145.545	35.727	-0.140	-0.122
-144.531	-116.126	-0.339	-0.062
-143.516	23.756	0.165	0.134
-142.502	800.000	-0.053	-0.165
-141.487	352.041	0.095	0.186
-140.472	-146.735	0.117	0.010
-139.458	-120.380	-0.531	-0.089
-138.443	90.074	-0.123	-0.136
-137.429	-75.502	0.304	0.107
-136.414	800.000	0.080	-0.272
-135.399	52.084	0.221	0.208
-134.385	-200.000	0.044	0.244
-133.370	465.153	0.065	-0.144
-132.356	38.888	0.198	0.174
-131.341	-200.000	0.012	0.242
-130.326	127.620	-0.241	-0.302
-129.312	71.488	0.224	0.230
-128.297	-200.000	-0.076	0.424
-127.283	671.477	-0.043	0.111
-126.268	40.534	0.236	-0.210
-125.253	-109.465	-0.229	0.048
-124.239	-30.847	-0.206	-0.115
-123.224	577.803	-0.138	-0.334
-122.210	13.048	0.331	-0.253
-121.195	-4.579	-0.269	0.184
-120.180	101.682	-0.017	-0.019
-119.166	-200.000	0.015	0.191
-118.151	-24.061	-0.199	-0.117
-117.137	142.957	-0.129	-0.169
-116.122	-200.000	0.033	-0.261
-115.107	163.303	0.096	-0.133
-114.093	580.413	0.005	-0.012
-113.078	-69.345	0.395	-0.150
-112.064	800.000	-0.070	-0.209
-111.049	45.203	0.134	0.121
-110.034	-95.869	0.087	-0.023
-109.020	46.539	-0.073	0.067
-108.005	-200.000	-0.018	0.474
-106.991	82.800	0.151	-0.162
-105.976	-32.931	0.193	0.106
-104.962	-200.000	-0.040	0.409
-103.947	-79.148	-0.521	-0.174
-102.932	-136.074	0.331	-0.038
-101.918	54.816	0.194	0.185
-100.903	-39.743	0.255	0.131
-99.889	-92.984	-0.069	-0.019
-98.874	145.847	-0.085	0.113
-97.859	-200.000	0.007	0.149
-96.845	13.029	0.225	0.171
-95.830	800.000	0.092	-0.262
-94.816	-45.099	0.288	-0.141
-93.801	-83.566	0.215	-0.068
-92.786	125.305	0.246	-0.305
-91.772	147.957	0.154	0.204
-90.757	-113.016	0.399	-0.078
-89.743	607.956	-0.049	0.120
-88.728	-200.000	0.003	0.115
-87.713	6.247	-0.089	-0.065
-86.699	-101.313	0.165	-0.040
-85.684	-23.801	0.295	0.174
-84.670	-200.000	0.042	0.358
-83.655	-200.000	0.068	-0.297
-82.640	-112.122	-0.140	-0.028
-81.626	-63.509	0.121	0.049
-80.611	423.601	-0.175	-0.371
-79.597	-138.227	0.289	-0.032
-78.582	-161.161	0.149	0.008
-77.567	-57.824	0.117	0.050
-76.553	-200.000	-0.113	0.587
-75.538	-157.934	0.065	-0.004
-74.524	85.488	-0.116	0.126
-73.509	521.197	0.128	0.296
-72.494	-94.980	0.272	-0.072
-71.480	800.000	-0.044	0.149
-70.465	-108.829	-0.424	-0.089
-69.451	-98.346	0.139	0.035
-68.436	-150.542	0.404	-0.030
-67.422	0.199	-0.102	-0.072
-66.407	800.000	-0.026	-0.086
-65.392	-200.000	-0.028	0.230
-64.378	-154.063	0.301	-0.020
-63.363	-100.424	0.061	0.015
-62.349	364.409	-0.169	0.335
-61.334	84.742	-0.934	-1.006
-60.319	-53.977	0.429	0.192
-59.305	-200.000	-0.173	-0.944
-58.290	471.796	0.572	1.267
-57.276	800.000	0.446	1.647
-56.261	-200.000	95.987	598.695
-55.246	649.614	1374.412	3460.716
-54.232	198.843	2550.192	3842.041
-53.217	120.055	2158.811	2634.507
-52.203	42.699	1702.497	1525.181
-51.188	35.048	1514.769	1305.052
-50.173	32.605	1488.033	1265.575
-49.159	51.992	1537.161	1440.139
-48.144	53.813	1554.891	1469.125
-47.130	35.268	1514.485	1306.097
-46.115	32.071	1499.958	1271.899
-45.100	31.864	1496.663	1267.656
-44.086	31.842	1494.976	1266.031
-43.071	31.871	1493.148	1264.628
-42.057	31.912	1491.222	1263.221
-41.042	31.841	1489.961	1261.623
-40.027	31.747	1488.888	1260.032
-39.013	31.800	1487.241	1258.948
-37.998	31.747	1486.059	1257.538
-36.984	31.737	1484.699	1256.271
-35.969	31.818	1483.436	1255.697
-34.954	31.763	1482.005	1254.067
-33.940	31.805	1480.402	1252.942
-32.925	31.900	1478.736	1252.117
-31.911	31.946	1477.369	1251.214
-30.896	31.818	1476.363	1249.460
-29.881	31.870	1474.932	1248.547
-28.867	31.879	1473.530	1247.373
-27.852	31.867	1472.479	1246.352
-26.838	31.828	1470.968	1244.767
-25.823	31.890	1469.081	1243.526
-24.809	31.919	1467.544	1242.369
-23.794	31.912	1465.924	1240.905
-22.779	31.901	1465.013	1240.009
-21.765	31.837	1463.947	1238.635
-20.750	31.841	1463.083	1237.881
-19.736	31.904	1461.608	1236.998
-18.721	31.791	1460.581	1235.334
-17.706	31.808	1459.715	1234.668
-16.692	31.766	1458.473	1233.292
-15.677	31.695	1457.556	1231.999
-14.663	31.845	1456.253	1231.839
-13.648	31.758	1455.281	1230.397
-12.633	31.736	1454.821	1229.810
-11.619	31.843	1453.649	1229.473
-10.604	31.769	1452.672	1228.117
-9.590	31.729	1452.416	1227.586
-8.575	31.750	1451.433	1226.843
-7.560	31.764	1450.431	1226.040
-6.546	31.865	1449.129	1225.553
-5.531	31.752	1448.392	1224.142
-4.517	31.824	1446.965	1223.358
-3.502	31.690	1446.517	1222.058
-2.487	31.736	1445.561	1221.501
-1.473	31.708	1444.356	1220.249
-0.458	31.718	1443.119	1219.220
0.556	30.398	1433.844	1208.432
1.571	27.504	1407.694	1167.768
2.586	24.187	1347.440	1097.289
3.600	22.376	1267.406	1021.522
4.615	21.152	1221.792	977.817
5.629	18.224	1166.032	917.434
6.644	10.882	1083.434	815.659
7.659	5.250	1044.467	758.954
8.673	4.641	1039.099	752.042
9.688	4.575	1035.738	749.223
10.702	4.420	1034.726	747.680
11.717	4.404	1032.617	746.012
12.731	6.593	1034.057	757.508
13.746	13.286	1043.625	796.802
14.761	18.341	1049.529	825.674
15.775	18.408	1048.724	825.293
16.790	17.377	1046.821	818.760
17.804	16.274	1044.502	811.576
18.819	15.401	1042.558	805.803
19.834	15.016	1040.957	802.646
20.848	14.742	1039.964	800.500
21.863	14.579	1039.279	799.122
22.877	14.281	1038.755	797.217
23.892	14.031	1037.990	795.364
24.907	14.109	1037.031	794.935
25.921	14.049	1036.628	794.269
26.936	14.156	1035.560	793.888
27.950	14.150	1034.212	792.758
28.965	14.147	1033.662	792.251
29.980	14.219	1032.518	791.645
30.994	14.146	1031.648	790.562
32.009	14.325	1030.550	790.501
33.023	14.467	1029.830	790.554
34.038	14.253	1029.281	789.047
35.053	14.203	1027.847	787.642
36.067	14.280	1026.759	787.100
37.082	14.160	1026.012	785.892
38.096	14.158	1025.446	785.378
39.111	14.181	1024.546	784.729
40.126	14.314	1023.721	784.655
41.140	14.266	1022.192	783.187
42.155	14.138	1021.306	781.839
43.169	14.038	1020.560	780.727
44.184	13.877	1019.740	779.274
45.199	14.050	1017.843	778.567
46.213	13.820	1017.649	777.274
47.228	14.030	1016.099	777.000
48.242	14.178	1015.301	777.014
49.257	14.256	1014.705	776.856
50.271	14.136	1013.598	775.377
51.286	14.155	1012.456	774.523
52.301	14.187	1012.132	774.357
53.315	14.147	1011.186	773.378
54.330	14.094	1010.270	772.364
55.344	14.015	1009.724	771.511
56.359	13.920	1008.509	770.076
57.374	14.085	1007.588	770.067
58.388	14.089	1006.689	769.331
59.403	14.006	1005.926	768.294
60.417	13.878	1005.393	767.230
61.432	13.899	1004.920	766.897
62.447	13.985	1003.818	766.384
63.461	13.842	1003.277	765.244
64.476	13.752	1002.340	764.049
65.490	13.898	1001.000	763.632
66.505	13.869	1000.547	763.082
67.520	13.862	999.982	762.554
68.534	13.869	999.056	761.811
69.549	13.983	997.854	761.351
70.563	13.917	997.444	760.668
71.578	13.934	996.747	760.145
72.593	13.789	996.066	758.896
73.607	13.793	995.085	758.101
74.622	13.889	993.619	757.356
75.636	13.770	993.260	756.473
76.651	13.822	992.754	756.255
77.666	13.745	992.042	755.295
78.680	13.692	991.358	754.469
79.695	13.722	991.342	754.527
80.709	13.783	990.348	753.981
81.724	13.910	989.491	753.836
82.739	14.110	988.184	753.679
83.753	13.999	988.105	753.049
84.768	14.094	987.315	752.812
85.782	14.084	986.454	752.042
86.797	14.337	985.668	752.520
87.812	14.432	984.746	752.182
88.826	14.235	984.156	750.772
89.841	14.221	982.741	749.567
90.855	14.142	982.480	748.945
91.870	14.286	981.605	748.856
92.884	14.381	981.000	748.758
93.899	14.263	980.488	747.768
94.914	14.402	979.407	747.506
95.928	14.292	979.214	746.796
96.943	14.409	978.199	746.480
97.957	14.352	977.366	745.522
98.972	14.316	976.541	744.668
99.987	14.216	975.898	743.665
101.001	14.211	975.559	743.317
102.016	14.276	974.860	743.010
103.030	14.233	973.730	741.889
104.045	14.129	972.939	740.757
105.060	14.324	972.090	740.916
106.074	14.152	971.266	739.458
107.089	14.200	970.018	738.655
108.103	14.050	969.268	737.352
109.118	13.866	968.469	735.864
110.133	13.916	967.689	735.429
111.147	13.913	966.661	734.568
112.162	13.990	965.670	734.093
113.176	14.097	964.609	733.690
114.191	13.981	963.830	732.520
115.206	13.959	963.286	731.947
116.220	14.094	962.263	731.697
117.235	14.083	961.714	731.168
118.249	14.024	960.842	730.181
119.264	14.029	959.867	729.399
120.279	14.037	958.579	728.389
121.293	13.932	958.018	727.439
122.308	13.947	957.542	727.079
123.322	13.981	956.502	726.373
124.337	13.889	955.767	725.351
125.352	13.841	954.927	724.439
126.366	13.850	953.395	723.252
127.381	13.867	952.717	722.747
128.395	13.779	951.835	721.629
129.410	13.893	950.774	721.258
130.424	13.973	949.786	720.792
131.439	14.053	948.610	720.182
132.454	14.021	948.113	719.603
133.468	14.069	947.723	719.452
134.483	14.085	946.816	718.770
135.497	14.085	945.750	717.894
136.512	14.147	945.328	717.777
137.527	14.207	944.276	717.175
138.541	14.257	943.189	716.501
139.556	14.115	943.400	715.986
140.570	14.103	942.298	715.036
141.585	14.076	942.010	714.638
142.600	14.199	941.304	714.568
143.614	14.392	940.097	714.417
144.629	14.215	939.638	713.244
145.643	14.356	939.152	713.418
146.658	14.284	938.080	712.233
147.673	14.265	936.804	711.116
148.687	14.188	936.183	710.256
149.702	14.191	935.181	709.447
150.716	14.100	934.641	708.587
151.731	14.084	933.339	707.469
152.746	14.264	932.461	707.504
153.760	14.181	931.885	706.654
154.775	14.347	931.247	706.809
155.789	14.226	930.643	705.775
156.804	14.280	929.891	705.373
157.819	14.263	929.416	704.877
158.833	14.252	928.864	704.349
159.848	14.328	927.885	703.866
160.862	14.440	927.182	703.743
161.877	14.452	926.521	703.231
162.892	14.317	925.589	701.890
163.906	14.140	924.803	700.490
164.921	14.072	924.190	699.675
165.935	14.140	922.982	698.984
166.950	14.261	921.984	698.674
167.964	14.311	921.441	698.411
168.979	14.334	919.899	697.276
169.994	14.416	918.532	696.521
171.008	14.406	918.017	696.028
172.023	14.392	917.316	695.377
173.037	14.519	916.622	695.318
174.052	14.501	916.115	694.798
175.067	14.441	915.802	694.251
176.081	14.282	915.143	693.027
177.096	14.390	913.868	692.447
178.110	14.332	912.886	691.404
179.125	14.261	912.327	690.622
180.140	14.316	911.921	690.485
181.154	14.439	910.923	690.176
182.169	14.404	910.537	689.678
183.183	14.479	909.900	689.442
184.198	14.563	909.447	689.386
185.213	14.571	908.720	688.806
186.227	14.632	907.671	688.202
187.242	14.494	907.748	687.632
188.256	14.708	906.790	687.728
189.271	14.705	906.214	687.218
190.286	14.752	905.531	686.829
191.300	14.623	904.550	685.497
192.315	14.402	903.703	683.886
193.329	14.219	903.218	682.710
194.344	14.202	902.646	682.144
195.359	14.450	901.802	682.464
196.373	14.408	901.442	681.959
197.388	14.561	901.105	682.268
198.402	14.648	900.575	682.163
199.417	14.690	900.213	681.999
200.432	14.809	899.424	681.827
201.446	14.744	899.741	681.740
202.461	14.991	898.723	681.916
203.475	15.011	898.189	681.532
204.490	14.862	897.807	680.578
205.504	14.968	896.618	680.045
206.519	14.762	896.216	678.842
207.534	14.818	895.114	678.177
208.548	14.733	894.709	677.464
209.563	14.677	894.215	676.804
210.577	14.807	893.556	676.772
211.592	14.779	892.682	675.936
212.607	14.854	892.510	676.051
213.621	14.997	891.593	675.874
214.636	15.007	890.951	675.368
215.650	14.869	890.460	674.378
216.665	15.016	889.860	674.457
217.680	15.039	889.116	673.927
218.694	15.180	888.392	673.884
219.709	15.318	887.650	673.816
220.723	14.971	887.956	672.595
221.738	15.074	887.094	672.296
222.753	15.034	886.268	671.450
223.767	15.086	885.510	671.025
224.782	15.107	884.521	670.301
225.796	15.211	883.952	670.225
226.811	15.255	883.290	669.839
227.826	15.099	882.873	668.843
228.840	15.140	882.156	668.401
229.855	15.096	881.654	667.789
230.869	15.192	880.757	667.431
231.884	15.148	880.431	666.949
232.899	15.123	879.618	666.176
233.913	15.024	879.037	665.281
234.928	15.047	878.021	664.547
235.942	15.088	877.201	664.031
236.957	15.104	876.545	663.538
237.972	14.982	876.177	662.719
238.986	15.002	875.653	662.343
240.001	15.103	874.988	662.178
241.015	15.015	873.777	660.856
242.030	15.158	873.435	661.106
243.045	15.233	872.612	660.719
244.059	15.298	872.187	660.596
245.074	15.248	871.676	659.953
246.088	15.143	871.172	659.101
247.103	15.255	870.684	659.112
248.117	15.345	870.008	658.894
249.132	15.296	869.449	658.221
250.147	15.405	869.379	658.536
251.161	15.601	868.359	658.475
252.176	15.687	867.515	658.113
253.190	15.748	866.987	657.894
254.205	15.833	866.333	657.672
255.220	15.933	865.408	657.300
256.234	15.782	865.402	656.648
257.249	15.721	865.083	656.111
258.263	15.758	864.362	655.651
259.278	15.933	863.372	655.522
260.293	15.826	862.884	654.676
261.307	15.780	862.379	654.060
262.322	15.829	862.057	653.945
263.336	15.910	861.441	653.738
264.351	15.880	860.928	653.174
265.366	15.845	860.268	652.476
266.380	15.886	859.782	652.211
267.395	16.006	858.606	651.723
268.409	16.094	857.790	651.388
269.424	15.768	857.661	649.972
270.439	15.995	856.725	650.081
271.453	15.969	855.778	649.204
272.468	15.830	855.165	648.147
273.482	15.824	854.501	647.564
274.497	16.060	853.801	647.884
275.512	15.835	853.240	646.535
276.526	15.726	853.002	645.879
277.541	15.943	851.966	645.870
278.555	15.799	852.100	645.363
279.570	15.976	851.076	645.210
280.585	16.159	850.639	645.521
281.599	16.090	850.013	644.723
282.614	16.034	849.452	644.029
283.628	15.917	849.194	643.328
284.643	16.049	848.547	643.284
285.657	15.872	848.055	642.180
286.672	16.056	847.444	642.362
287.687	15.934	846.974	641.484
288.701	16.036	846.532	641.482
289.716	16.066	845.598	640.830
290.730	16.037	844.989	640.203
291.745	15.950	844.792	639.667
292.760	16.185	843.623	639.616
293.774	16.188	843.155	639.215
294.789	16.293	842.586	639.123
295.803	16.345	842.000	638.821
296.818	16.138	841.688	637.745
297.833	16.226	841.032	637.523
298.847	16.085	840.369	636.432
299.862	16.249	839.354	636.226
300.876	16.240	838.955	635.831
301.891	16.232	838.650	635.513
302.906	16.312	837.774	635.095
303.920	16.582	837.135	635.569
304.935	16.367	836.757	634.420
305.949	16.483	835.836	634.101
306.964	16.470	835.610	633.823
307.979	16.591	834.464	633.349
308.993	16.351	834.504	632.425
310.008	16.411	833.981	632.200
311.022	16.623	833.229	632.364
312.037	16.707	832.573	632.124
313.052	16.542	832.326	631.264
314.066	16.461	831.579	630.340
315.081	16.320	830.899	629.246
316.095	16.322	830.586	628.960
317.110	16.226	830.244	628.289
318.125	16.294	829.802	628.150
319.139	16.455	829.070	628.139
320.154	16.530	828.312	627.788
321.168	16.417	828.263	627.274
322.183	16.464	827.756	627.011
323.197	16.497	827.313	626.742
324.212	16.526	826.545	626.214
325.227	16.360	825.985	625.116
326.241	16.553	825.381	625.319
327.256	16.576	824.569	624.735
328.270	16.598	824.321	624.573
329.285	16.559	823.591	623.821
330.300	16.459	823.232	623.124
331.314	16.538	822.610	622.889
332.329	16.510	822.171	622.398
333.343	16.622	821.615	622.334
334.358	16.728	820.814	622.063
335.373	16.815	820.321	621.954
336.387	16.767	819.704	621.253
337.402	16.681	819.585	620.792
338.416	16.831	819.057	620.888
339.431	16.715	818.384	619.897
340.446	16.962	817.872	620.358
341.460	16.988	816.942	619.693
342.475	17.075	816.614	619.706
343.489	16.982	816.299	619.074
344.504	17.073	815.550	618.783
345.519	17.010	815.389	618.376
346.533	17.094	814.774	618.162
347.548	17.170	813.999	617.797
348.562	17.057	813.344	616.833
349.577	16.969	813.066	616.248
350.592	16.953	812.434	615.657
351.606	16.914	812.166	615.256
352.621	16.719	811.731	614.167
353.635	17.016	811.113	614.718
354.650	16.870	811.043	614.082
355.665	16.803	810.662	613.497
356.679	16.944	809.815	613.312
357.694	17.007	809.729	613.422
358.708	16.913	809.071	612.530
359.723	17.078	808.352	612.526
360.738	17.145	807.499	612.068
361.752	17.070	807.239	611.546
362.767	17.135	806.964	611.517
363.781	17.077	806.969	611.259
364.796	17.382	806.290	611.787
365.810	17.339	805.706	611.136
366.825	17.373	805.409	610.977
367.840	17.383	805.255	610.841
368.854	17.373	804.698	610.331
369.869	17.377	803.998	609.758
370.883	17.393	803.248	609.194
371.898	17.428	802.613	608.785
372.913	17.293	802.488	608.152
373.927	17.447	802.217	608.443
374.942	17.421	801.399	607.677
375.956	17.407	800.587	606.957
376.971	17.511	799.967	606.803
377.986	17.449	799.478	606.158
379.000	17.667	798.950	606.482
380.015	17.660	798.791	606.282
381.029	17.625	798.261	605.701
382.044	17.615	797.587	605.100
383.059	17.535	797.177	604.450
384.073	17.697	796.624	604.554
385.088	17.736	795.831	604.035
386.102	17.668	795.201	603.263
387.117	17.531	794.734	602.371
388.132	17.544	794.204	601.965
389.146	17.494	794.097	601.651
390.161	17.577	793.479	601.423
391.175	17.593	792.981	601.047
392.190	17.632	792.957	601.115
393.205	17.655	792.373	600.701
394.219	17.591	792.172	600.271
395.234	17.488	791.915	599.657
396.248	17.732	791.201	599.922
397.263	17.416	790.848	598.491
398.278	17.379	790.245	597.852
399.292	17.640	789.520	598.166
400.307	17.406	789.348	597.163
401.321	17.498	788.674	596.921
402.336	17.660	787.925	596.870
403.350	17.687	787.797	596.813
404.365	17.508	787.842	596.170
405.380	17.626	787.304	596.124
406.394	17.766	786.621	596.041
407.409	17.967	786.167	596.347
408.423	17.984	785.649	595.960
409.438	17.994	785.550	595.867
410.453	17.978	784.701	595.113
411.467	18.077	784.488	595.244
412.482	18.064	783.948	594.737
413.496	18.241	783.267	594.784
414.511	18.226	782.979	594.461
415.526	18.045	782.961	593.764
416.540	17.970	782.694	593.249
417.555	18.051	781.978	592.935
418.569	18.191	781.427	592.952
419.584	18.074	781.258	592.365
420.599	18.131	780.656	592.055
421.613	156.078	1368.884	1794.757
422.628	134.709	1454.589	1794.881
