DTS Sentinel unit serial number:	SN413079Multiplexer serial number:	ORYXHardware model number:	OX4-SRSoftware version number:	ORYX F/W v4.00 Oryx Data Collector v3.7.2.0data status	okinstallation	princeton_trtdifferential loss correction	single-endedforward channel	channel 3reverse channel	N/Adate	2019/09/11time	13:10:10forward acquisition time	60.00reverse acquisition time	0.00gamma	496.2192k internal	0.2294k external	0.2294temperature offset calibration	0.9967default loss term (dB/km)	0.3790temperature slope calibration	1.0000multiplexer offset coefficient	1.0000multiplexer slope coefficient	1.0000fibre end	0.00T internal ref (°C)	41.91T ext. ref 1 (°C)	0.76T ext. ref 2 (°C)	39.10length (m)	temperature (°C)	Stokes	anti-Stokes-747.200	-19.908	0.371	0.235
-746.185	-58.691	-0.140	0.062
-745.171	-136.922	0.240	-0.028
-744.156	215.633	-0.112	-0.182
-743.142	301.788	-0.045	-0.086
-742.127	-67.654	0.330	-0.132
-741.112	356.815	0.022	0.044
-740.098	-7.473	0.269	0.186
-739.083	97.341	0.091	-0.107
-738.069	-41.834	-0.354	0.186
-737.054	-171.358	-0.407	-0.014
-736.039	-132.583	0.122	0.016
-735.025	-111.458	0.231	-0.048
-734.010	-137.950	-0.471	0.054
-732.996	-200.000	0.017	-0.108
-731.981	58.785	0.079	0.080
-730.966	-24.969	-0.025	0.015
-729.952	0.369	-0.311	0.227
-728.937	-119.126	-0.384	0.069
-727.923	371.269	0.102	-0.212
-726.908	632.289	0.094	0.242
-725.894	22.823	0.118	0.099
-724.879	51.435	0.138	0.134
-723.864	-200.000	-0.030	0.175
-722.850	-1.165	-0.085	-0.061
-721.835	-200.000	-0.022	0.194
-720.821	-96.485	0.149	0.040
-719.806	-34.634	0.182	0.102
-718.791	327.125	0.120	0.234
-717.777	-1.198	0.040	0.029
-716.762	534.835	0.090	-0.219
-715.748	175.131	0.122	0.181
-714.733	257.326	-0.087	0.152
-713.718	246.672	0.114	-0.196
-712.704	124.836	0.228	-0.293
-711.689	-95.097	0.276	-0.076
-710.675	-23.900	0.241	0.147
-709.660	319.403	0.047	-0.092
-708.645	-102.841	-0.244	-0.059
-707.631	800.000	-0.017	0.062
-706.616	-200.000	0.009	0.327
-705.602	-117.262	0.140	-0.026
-704.587	-87.117	0.242	-0.075
-703.572	800.000	0.062	0.192
-702.558	687.553	0.071	-0.188
-701.543	245.605	-0.020	-0.035
-700.529	-40.475	0.144	0.076
-699.514	-74.323	-0.067	-0.025
-698.499	75.311	0.241	-0.259
-697.485	-138.172	0.161	0.018
-696.470	89.569	0.034	0.039
-695.456	-138.827	0.400	-0.045
-694.441	-200.000	-0.050	-0.409
-693.426	-107.612	0.026	0.006
-692.412	-141.152	0.024	-0.003
-691.397	-125.151	-0.227	-0.035
-690.383	604.658	-0.161	-0.410
-689.368	-145.834	0.208	-0.019
-688.354	1.450	-0.347	0.255
-687.339	-200.000	0.009	0.188
-686.324	-200.000	0.023	-0.355
-685.310	-67.246	0.222	0.089
-684.295	-200.000	0.002	0.178
-683.281	136.678	-0.038	-0.051
-682.266	-75.707	-0.460	0.167
-681.251	38.921	-0.228	-0.208
-680.237	-10.625	0.160	0.108
-679.222	-200.000	-0.005	-0.033
-678.208	800.000	-0.029	-0.127
-677.193	27.687	0.039	0.034
-676.178	800.000	-0.101	-0.450
-675.164	-44.110	0.291	-0.149
-674.149	120.784	0.350	-0.444
-673.135	-24.780	-0.056	-0.034
-672.120	5.533	0.241	0.181
-671.105	382.851	-0.157	-0.329
-670.091	95.090	0.160	0.186
-669.076	-17.588	0.113	-0.072
-668.062	31.584	0.200	-0.175
-667.047	-143.994	0.173	0.017
-666.032	-200.000	-0.009	0.109
-665.018	-66.086	0.021	0.009
-664.003	465.317	-0.035	-0.080
-662.989	-49.496	-0.147	-0.071
-661.974	-200.000	-0.017	-0.099
-660.959	-200.000	-0.002	-0.039
-659.945	-200.000	0.085	0.402
-658.930	-200.000	0.020	0.297
-657.916	-80.615	0.221	0.075
-656.901	-103.285	0.070	-0.017
-655.886	-200.000	-0.005	-0.125
-654.872	-163.759	-0.197	0.009
-653.857	-75.781	0.125	0.045
-652.843	-200.000	-0.042	0.195
-651.828	-55.565	-0.085	-0.039
-650.814	462.882	0.088	-0.201
-649.799	249.484	-0.019	-0.033
-648.784	-9.264	0.133	0.091
-647.770	84.526	0.191	-0.212
-646.755	-200.000	-0.053	-0.404
-645.741	32.343	-0.122	-0.107
-644.726	-200.000	-0.003	0.231
-643.711	-113.093	0.109	0.022
-642.697	-29.297	0.268	0.156
-641.682	800.000	-0.038	0.167
-640.668	-145.075	0.244	0.023
-639.653	-47.920	-0.250	0.123
-638.638	-114.013	-0.257	0.051
-637.624	-200.000	0.043	0.361
-636.609	133.740	0.113	-0.149
-635.595	-95.443	-0.335	-0.092
-634.580	262.065	-0.143	-0.252
-633.565	-80.938	0.209	-0.071
-632.551	260.397	0.181	-0.319
-631.536	-87.649	-0.179	-0.055
-630.522	2.836	0.132	-0.098
-629.507	550.636	0.027	0.066
-628.492	-200.000	-0.062	0.309
-627.478	800.000	0.030	0.120
-626.463	248.560	0.132	-0.227
-625.449	-200.000	-0.020	-0.215
-624.434	-65.120	0.115	-0.047
-623.419	-143.586	0.184	0.018
-622.405	-75.404	0.287	-0.104
-621.390	63.696	-0.108	-0.110
-620.376	97.091	-0.253	-0.295
-619.361	-92.758	0.134	0.038
-618.346	800.000	-0.032	-0.117
-617.332	27.757	-0.153	0.131
-616.317	-13.833	0.257	0.169
-615.303	258.278	-0.117	0.204
-614.288	-105.239	0.383	0.089
-613.273	-200.000	0.044	0.321
-612.259	-83.940	-0.323	-0.105
-611.244	-96.562	0.123	-0.033
-610.230	800.000	-0.044	-0.139
-609.215	39.239	-0.170	-0.155
-608.201	104.994	0.209	-0.251
-607.186	-200.000	0.018	0.168
-606.171	394.226	-0.135	0.285
-605.157	-114.875	-0.052	-0.010
-604.142	277.749	0.078	0.141
-603.128	613.343	-0.069	-0.175
-602.113	145.247	0.041	0.056
-601.098	399.949	-0.024	-0.051
-600.084	-125.139	-0.239	-0.037
-599.069	-18.319	-0.036	0.023
-598.055	-200.000	-0.018	-0.183
-597.040	-200.000	0.006	-0.029
-596.025	-176.779	0.050	0.001
-595.011	453.956	0.154	0.346
-593.996	-92.057	0.220	-0.063
-592.982	-33.612	0.309	-0.174
-591.967	-33.996	-0.157	0.088
-590.952	386.059	-0.074	0.156
-589.938	31.945	0.255	0.223
-588.923	-19.569	0.132	-0.083
-587.909	-69.300	-0.235	-0.092
-586.894	-173.015	-0.534	-0.017
-585.879	-48.676	0.227	0.111
-584.865	800.000	-0.097	-0.407
-583.850	-11.269	-0.303	-0.203
-582.836	300.701	-0.064	0.120
-581.821	-38.335	0.101	0.054
-580.806	187.133	-0.151	0.228
-579.792	-101.861	-0.192	0.047
-578.777	114.671	0.184	-0.228
-577.763	-200.000	0.055	-0.418
-576.748	100.998	-0.117	0.139
-575.733	-200.000	0.436	0.001
-574.719	732.040	-0.104	-0.283
-573.704	800.000	0.063	0.192
-572.690	56.703	-0.238	-0.235
-571.675	800.000	-0.130	0.457
-570.661	-78.624	0.238	-0.083
-569.646	27.058	-0.140	-0.119
-568.631	-75.415	-0.161	-0.058
-567.617	800.000	-0.012	-0.050
-566.602	-200.000	-0.065	-0.306
-565.588	-109.472	-0.099	-0.021
-564.573	-200.000	0.006	0.078
-563.558	52.109	0.039	0.038
-562.544	-164.449	0.093	-0.004
-561.529	-65.865	-0.292	-0.119
-560.515	-174.183	0.115	-0.003
-559.500	-115.644	0.165	-0.031
-558.485	-83.396	-0.364	0.119
-557.471	-110.539	0.167	-0.035
-556.456	-82.509	-0.226	-0.075
-555.442	20.783	-0.089	-0.073
-554.427	310.775	0.034	-0.064
-553.412	61.957	-0.151	0.152
-552.398	-200.000	0.030	0.183
-551.383	59.372	0.152	-0.152
-550.369	800.000	-0.058	-0.254
-549.354	-200.000	-0.031	-0.161
-548.339	644.776	-0.150	-0.388
-547.325	12.049	0.253	-0.197
-546.310	-25.559	-0.141	-0.085
-545.296	4.099	-0.052	0.039
-544.281	-143.992	0.174	0.017
-543.266	-81.841	0.294	-0.098
-542.252	181.735	-0.120	0.179
-541.237	114.547	0.267	0.331
-540.223	-32.606	0.012	0.007
-539.208	-61.630	-0.218	-0.093
-538.193	-78.320	0.299	-0.104
-537.179	-135.544	-0.239	-0.029
-536.164	-86.739	-0.199	0.062
-535.150	-72.640	-0.035	-0.013
-534.135	-95.065	0.221	0.060
-533.121	-44.659	-0.086	0.043
-532.106	-146.741	-0.448	0.039
-531.091	83.473	0.061	0.068
-530.077	-157.902	0.222	-0.013
-529.062	-156.297	-0.335	0.021
-528.048	-127.086	0.391	0.058
-527.033	-81.501	-0.229	-0.076
-526.018	-147.117	0.074	0.006
-525.004	-200.000	0.057	-0.336
-523.989	800.000	-0.069	0.221
-522.975	-183.931	0.344	0.006
-521.960	32.640	-0.140	0.123
-520.945	36.017	-0.118	-0.105
-519.931	-73.175	0.071	-0.026
-518.916	239.934	0.091	0.154
-517.902	735.290	-0.077	-0.210
-516.887	24.690	-0.221	0.185
-515.872	800.000	0.050	0.201
-514.858	2.534	0.337	0.247
-513.843	-20.185	-0.170	0.106
-512.829	82.166	-0.219	0.240
-511.814	100.144	0.085	-0.100
-510.799	-84.992	0.372	-0.118
-509.785	-178.090	0.383	0.009
-508.770	424.835	0.039	-0.085
-507.756	800.000	-0.068	-0.202
-506.741	176.833	-0.269	0.396
-505.726	23.219	-0.125	-0.104
-504.712	707.743	-0.126	-0.337
-503.697	-103.550	-0.120	-0.029
-502.683	186.164	-0.160	0.242
-501.668	-109.216	-0.435	0.094
-500.653	-109.022	-0.267	-0.058
-499.639	-82.403	0.336	-0.111
-498.624	800.000	-0.049	0.198
-497.610	105.646	-0.251	0.301
-496.595	-83.424	-0.625	-0.203
-495.581	-80.271	-0.047	0.016
-494.566	-13.345	0.153	0.101
-493.551	-102.597	-0.099	-0.024
-492.537	82.039	0.112	0.122
-491.522	-129.824	0.293	0.041
-490.508	391.742	-0.093	-0.195
-489.493	-49.794	-0.007	-0.003
-488.478	-19.630	0.070	0.044
-487.464	345.903	0.097	-0.193
-486.449	-114.947	-0.248	0.048
-485.435	64.149	0.125	0.127
-484.420	1.649	0.186	-0.136
-483.405	-200.000	-0.031	0.154
-482.391	-122.506	-0.293	0.048
-481.376	-2.573	-0.103	-0.073
-480.362	800.000	0.043	-0.141
-479.347	-85.167	0.225	-0.071
-478.332	158.742	0.018	0.026
-477.318	800.000	-0.072	0.241
-476.303	421.313	-0.016	0.034
-475.289	-13.088	0.216	0.142
-474.274	341.154	0.031	0.062
-473.259	-200.000	0.002	-0.026
-472.245	15.807	-0.048	-0.038
-471.230	800.000	0.014	-0.055
-470.216	740.187	0.092	-0.251
-469.201	-200.000	0.081	0.386
-468.186	-112.714	-0.042	0.009
-467.172	-47.382	-0.103	0.051
-466.157	325.261	0.098	-0.189
-465.143	49.452	-0.299	-0.284
-464.128	800.000	-0.069	0.198
-463.113	-28.413	0.109	-0.064
-462.099	-200.000	0.005	0.090
-461.084	131.418	-0.082	-0.106
-460.070	-200.000	0.019	-0.354
-459.055	800.000	0.022	-0.063
-458.040	-200.000	-0.000	-0.185
-457.026	-84.758	0.046	0.015
-456.011	-98.607	-0.295	-0.076
-454.997	212.858	0.087	-0.140
-453.982	-24.942	0.267	-0.161
-452.968	-117.270	-0.077	-0.014
-451.953	-61.099	0.245	-0.105
-450.938	18.307	-0.134	0.108
-449.924	800.000	0.112	0.319
-448.909	-125.062	0.449	-0.070
-447.895	-57.410	-0.260	0.116
-446.880	800.000	-0.042	0.129
-445.865	-200.000	-0.006	-0.236
-444.851	237.109	0.110	0.183
-443.836	-200.000	0.008	0.127
-442.822	-200.000	-0.009	0.259
-441.807	-102.210	-0.100	0.024
-440.792	152.363	0.244	0.337
-439.778	-200.000	-0.000	0.341
-438.763	-200.000	-0.050	0.316
-437.749	-38.513	-0.133	0.071
-436.734	-75.403	-0.272	0.098
-435.719	-72.518	0.090	0.034
-434.705	39.602	0.164	0.149
-433.690	-200.000	0.048	0.559
-432.676	201.260	-0.056	0.086
-431.661	800.000	-0.034	0.096
-430.646	800.000	-0.050	0.143
-429.632	-200.000	0.006	-0.115
-428.617	52.746	-0.089	-0.086
-427.603	800.000	-0.114	-0.318
-426.588	425.578	0.027	-0.058
-425.573	800.000	-0.012	0.040
-424.559	800.000	-0.077	-0.278
-423.544	-200.000	0.021	-0.130
-422.530	-200.000	0.015	-0.352
-421.515	-143.198	-0.184	0.018
-420.500	64.526	-0.068	-0.069
-419.486	71.931	-0.079	0.083
-418.471	-1.986	-0.043	0.030
-417.457	121.285	-0.223	-0.280
-416.442	-73.904	0.280	0.103
-415.428	-30.191	-0.275	0.158
-414.413	-38.358	0.055	0.030
-413.398	-65.559	0.195	-0.079
-412.384	-135.127	0.293	-0.036
-411.369	484.529	0.065	-0.150
-410.355	-200.000	-0.077	-0.359
-409.340	-200.000	0.031	-0.267
-408.325	800.000	0.037	0.113
-407.311	139.096	-0.087	0.116
-406.296	233.604	-0.045	-0.075
-405.282	-60.678	-0.258	-0.110
-404.267	-111.556	-0.256	0.052
-403.252	-154.738	0.141	0.009
-402.238	18.871	-0.403	-0.326
-401.223	-135.759	-0.114	0.014
-400.209	-111.619	0.109	-0.022
-399.194	-71.443	-0.304	0.115
-398.179	291.727	0.046	-0.084
-397.165	773.550	-0.010	0.029
-396.150	-175.712	-0.109	-0.003
-395.136	-50.238	0.080	-0.038
-394.121	800.000	0.005	-0.017
-393.106	-17.741	0.305	0.193
-392.092	-24.239	0.196	-0.118
-391.077	-58.255	-0.206	0.090
-390.063	204.834	0.116	0.181
-389.048	-154.890	-0.364	-0.024
-388.033	143.089	0.104	-0.140
-387.019	-200.000	-0.006	0.259
-386.004	-54.251	-0.158	-0.072
-384.990	9.485	-0.182	0.139
-383.975	-200.000	0.037	0.210
-382.960	800.000	-0.061	0.220
-381.946	-200.000	0.012	0.153
-380.931	-55.374	-0.309	-0.140
-379.917	-144.732	0.248	-0.023
-378.902	-65.084	-0.053	-0.021
-377.888	-200.000	-0.031	-0.210
-376.873	236.553	0.172	-0.287
-375.858	-96.111	0.180	-0.048
-374.844	320.387	-0.154	-0.296
-373.829	-94.509	-0.188	-0.052
-372.815	-195.984	-0.153	-0.001
-371.800	-200.000	-0.032	0.506
-370.785	583.301	-0.103	-0.256
-369.771	-129.559	0.074	0.010
-368.756	69.695	0.177	-0.184
-367.742	800.000	0.075	-0.273
-366.727	-102.088	0.051	-0.012
-365.712	36.208	0.007	-0.006
-364.698	399.826	0.098	-0.206
-363.683	573.886	-0.018	-0.043
-362.669	800.000	0.059	0.196
-361.654	292.213	0.073	0.134
-360.639	-65.831	0.133	0.054
-359.625	-200.000	0.011	-0.206
-358.610	-58.671	0.322	0.141
-357.596	-200.000	0.044	0.316
-356.581	70.052	-0.103	-0.107
-355.566	5.733	0.132	-0.099
-354.552	136.371	-0.223	0.293
-353.537	-127.522	-0.211	-0.031
-352.523	800.000	-0.051	0.210
-351.508	476.613	-0.054	-0.122
-350.493	402.538	0.079	0.166
-349.479	-156.645	0.290	0.018
-348.464	800.000	0.025	-0.087
-347.450	-200.000	0.008	-0.219
-346.435	-110.540	0.232	-0.048
-345.420	800.000	0.019	0.056
-344.406	-200.000	-0.008	0.044
-343.391	190.043	-0.050	-0.075
-342.377	49.124	-0.127	-0.120
-341.362	-148.009	-0.322	-0.027
-340.348	17.038	0.225	0.179
-339.333	-86.077	-0.329	-0.102
-338.318	-200.000	0.005	0.068
-337.304	-200.000	0.008	0.055
-336.289	-32.485	0.110	-0.062
-335.275	620.202	0.032	-0.080
-334.260	-200.000	-0.016	-0.276
-333.245	-146.299	-0.304	0.027
-332.231	266.054	-0.060	-0.106
-331.216	-38.432	0.217	0.115
-330.202	158.590	-0.126	-0.175
-329.187	237.443	-0.208	-0.346
-328.172	-82.159	0.021	0.007
-327.158	800.000	0.077	-0.233
-326.143	-93.140	0.563	0.158
-325.129	229.189	0.045	0.074
-324.114	312.582	0.047	-0.089
-323.099	-14.226	0.320	-0.207
-322.085	-200.000	0.003	-0.070
-321.070	322.561	-0.077	-0.148
-320.056	80.820	-0.077	0.083
-319.041	-48.442	0.327	-0.158
-318.026	-200.000	-0.112	-0.493
-317.012	242.229	0.093	-0.157
-315.997	569.232	0.088	0.214
-314.983	-112.283	0.259	-0.052
-313.968	-200.000	-0.051	-0.404
-312.953	18.598	0.342	-0.275
-311.939	-200.000	0.007	0.220
-310.924	-41.276	-0.053	0.028
-309.910	-200.000	0.020	0.255
-308.895	-44.631	0.124	0.062
-307.880	800.000	0.041	0.151
-306.866	-92.964	0.355	0.100
-305.851	30.360	0.123	-0.105
-304.837	145.557	-0.070	-0.094
-303.822	15.772	-0.286	0.226
-302.807	525.326	0.066	-0.157
-301.793	-200.000	-0.086	-0.384
-300.778	-200.000	-0.005	0.069
-299.764	384.807	-0.116	-0.239
-298.749	430.265	0.100	0.217
-297.735	-200.000	0.003	0.310
-296.720	64.492	-0.048	-0.049
-295.705	800.000	-0.021	-0.061
-294.691	-200.000	-0.011	-0.158
-293.676	388.999	0.077	0.160
-292.662	588.443	-0.173	0.429
-291.647	344.692	-0.137	0.269
-290.632	-200.000	0.007	0.133
-289.618	331.565	-0.153	-0.296
-288.603	-59.025	-0.093	0.040
-287.589	-200.000	0.012	0.053
-286.574	-200.000	-0.030	-0.292
-285.559	800.000	0.033	-0.135
-284.545	-53.648	0.027	0.013
-283.530	106.670	-0.085	-0.102
-282.516	-200.000	-0.017	0.378
-281.501	-200.000	-0.010	0.141
-280.486	-25.185	-0.199	0.119
-279.472	-86.481	0.119	0.037
-278.457	-200.000	-0.000	0.044
-277.443	800.000	0.072	-0.251
-276.428	201.761	-0.149	0.230
-275.413	-200.000	-0.001	0.126
-274.399	-117.720	0.335	-0.060
-273.384	6.820	0.205	-0.154
-272.370	-130.898	-0.380	-0.051
-271.355	456.859	-0.165	-0.367
-270.340	-76.190	0.173	-0.061
-269.326	-32.153	0.148	-0.083
-268.311	-62.679	-0.066	-0.028
-267.297	-64.154	0.063	-0.026
-266.282	800.000	0.090	0.380
-265.267	-105.185	-0.138	-0.032
-264.253	673.887	0.074	-0.193
-263.238	-200.000	0.019	-0.334
-262.224	-109.981	0.301	0.063
-261.209	-1.133	-0.088	0.063
-260.195	-172.732	-0.038	-0.001
-259.180	-86.510	0.221	-0.068
-258.165	-70.268	0.100	-0.038
-257.151	-200.000	-0.066	-0.319
-256.136	-116.217	-0.181	-0.034
-255.122	-200.000	0.046	-0.311
-254.107	269.768	0.132	-0.234
-253.092	-200.000	-0.002	0.090
-252.078	-58.987	0.231	0.100
-251.063	32.324	0.179	0.155
-250.049	183.894	0.077	-0.115
-249.034	155.313	0.084	0.116
-248.019	26.205	-0.011	0.009
-247.005	139.737	0.111	0.146
-245.990	-200.000	-0.027	-0.228
-244.976	83.755	-0.158	-0.173
-243.961	-113.896	0.081	-0.016
-242.946	-184.693	0.301	0.005
-241.932	103.870	-0.018	-0.021
-240.917	-0.783	0.040	-0.028
-239.903	311.267	0.128	0.242
-238.888	141.944	0.112	-0.149
-237.873	-142.534	-0.071	-0.007
-236.859	47.764	0.177	0.166
-235.844	-76.253	0.211	0.075
-234.830	388.231	0.053	-0.111
-233.815	238.234	0.189	0.315
-232.800	-13.828	-0.305	0.198
-231.786	-26.778	-0.295	-0.173
-230.771	-7.042	-0.030	-0.021
-229.757	33.343	-0.084	-0.073
-228.742	-200.000	-0.030	-0.147
-227.727	-200.000	0.011	0.051
-226.713	-135.073	-0.409	-0.049
-225.698	168.677	0.156	-0.222
-224.684	171.590	0.045	-0.065
-223.669	-130.332	-0.225	0.031
-222.655	800.000	0.014	0.058
-221.640	440.645	-0.093	0.205
-220.625	82.062	0.127	0.137
-219.611	-137.347	-0.196	-0.022
-218.596	176.050	0.127	-0.185
-217.582	-119.601	0.021	0.004
-216.567	-200.000	-0.002	-0.094
-215.552	-22.350	-0.276	-0.167
-214.538	206.993	0.176	0.275
-213.523	152.980	-0.249	0.341
-212.509	-81.151	0.400	0.132
-211.494	800.000	0.092	0.265
-210.479	-19.257	0.098	0.061
-209.465	-110.709	0.311	0.064
-208.450	-107.551	-0.190	0.042
-207.436	-146.553	0.128	-0.011
-206.421	-61.837	0.252	-0.106
-205.406	309.854	0.072	0.134
-204.392	447.220	0.014	0.031
-203.377	21.594	-0.228	-0.186
-202.363	-200.000	-0.009	0.360
-201.348	800.000	-0.065	0.183
-200.333	-200.000	0.011	0.348
-199.319	-200.000	-0.066	0.466
-198.304	-45.321	-0.189	-0.094
-197.290	800.000	-0.077	0.234
-196.275	-200.000	-0.012	0.289
-195.260	63.646	-0.005	-0.005
-194.246	-200.000	-0.026	0.222
-193.231	-168.906	0.304	-0.011
-192.217	127.787	0.186	-0.237
-191.202	-146.196	-0.421	0.037
-190.187	-200.000	0.047	0.318
-189.173	-24.518	-0.149	-0.089
-188.158	123.041	0.083	-0.103
-187.144	-52.322	-0.123	0.057
-186.129	-200.000	-0.027	-0.155
-185.114	800.000	-0.043	-0.167
-184.100	-200.000	-0.009	0.272
-183.085	-81.448	0.252	-0.083
-182.071	346.217	-0.128	-0.252
-181.056	-105.894	-0.449	-0.101
-180.042	-200.000	-0.004	0.295
-179.027	-200.000	-0.048	0.378
-178.012	-200.000	0.039	0.237
-176.998	-152.480	-0.231	0.017
-175.983	-200.000	-0.017	-0.197
-174.969	468.531	0.131	-0.293
-173.954	-68.910	0.101	-0.039
-172.939	-200.000	-0.016	-0.239
-171.925	10.254	-0.074	0.056
-170.910	104.352	0.226	0.266
-169.896	-55.934	-0.293	-0.131
-168.881	800.000	0.173	-0.511
-167.866	-40.385	0.290	0.151
-166.852	57.546	0.208	0.203
-165.837	800.000	0.055	0.213
-164.823	506.107	-0.108	-0.249
-163.808	800.000	-0.057	0.159
-162.793	800.000	0.076	0.276
-161.779	477.549	-0.079	0.180
-160.764	629.637	0.053	-0.135
-159.750	-76.033	0.177	0.063
-158.735	83.101	-0.105	-0.114
-157.720	-8.546	0.224	0.150
-156.706	14.005	0.220	-0.171
-155.691	132.317	-0.133	0.171
-154.677	36.473	-0.077	-0.068
-153.662	200.631	-0.220	0.338
-152.647	-200.000	-0.050	0.359
-151.633	-200.000	0.037	0.287
-150.618	57.711	-0.180	0.176
-149.604	-61.106	-0.233	-0.098
-148.589	800.000	0.066	-0.239
-147.574	-156.720	0.076	0.005
-146.560	5.747	-0.283	-0.209
-145.545	207.051	0.094	-0.146
-144.531	-78.634	-0.178	0.061
-143.516	-18.887	-0.440	-0.274
-142.502	-174.997	-0.149	-0.004
-141.487	-128.686	0.313	0.044
-140.472	-129.173	-0.208	-0.029
-139.458	-92.683	-0.334	-0.094
-138.443	-94.635	0.288	0.078
-137.429	-160.377	0.068	0.004
-136.414	-123.703	-0.269	-0.043
-135.399	-44.600	-0.083	-0.041
-134.385	-44.460	-0.185	-0.092
-133.370	-102.242	0.180	-0.043
-132.356	-200.000	-0.014	-0.094
-131.341	-101.168	0.211	0.052
-130.326	-57.048	-0.254	0.112
-129.312	-71.186	-0.098	-0.037
-128.297	45.098	-0.109	-0.100
-127.283	19.702	-0.284	0.229
-126.268	-161.847	-0.193	-0.010
-125.253	-102.315	-0.427	-0.102
-124.239	109.010	-0.202	0.241
-123.224	-155.414	0.263	0.017
-122.210	-170.288	-0.063	0.002
-121.195	321.259	0.174	-0.331
-120.180	-200.000	-0.006	-0.127
-119.166	-156.213	-0.325	0.020
-118.151	-14.489	-0.381	0.245
-117.137	-54.350	-0.184	0.083
-116.122	110.505	-0.054	-0.065
-115.107	35.645	0.109	0.095
-114.093	224.803	-0.109	-0.176
-113.078	374.693	0.049	-0.100
-112.064	-8.828	-0.075	0.050
-111.049	243.119	0.177	-0.295
-110.034	59.439	-0.166	0.164
-109.020	-21.276	-0.417	0.254
-108.005	-47.318	-0.221	0.107
-106.991	-144.742	-0.207	-0.019
-105.976	-200.000	0.022	-0.193
-104.962	-200.000	-0.065	-0.488
-103.947	-150.462	0.319	0.024
-102.932	-200.000	-0.038	0.420
-101.918	-33.820	0.195	0.107
-100.903	-94.998	-0.017	0.005
-99.889	118.779	-0.125	0.154
-98.874	800.000	0.022	0.076
-97.859	-58.920	0.162	-0.070
-96.845	1.569	0.304	-0.218
-95.830	-200.000	-0.148	0.000
-94.816	71.638	0.202	-0.210
-93.801	337.272	0.222	-0.431
-92.786	800.000	0.046	0.164
-91.772	-200.000	0.071	0.421
-90.757	577.097	-0.077	0.187
-89.743	800.000	0.050	0.139
-88.728	322.449	0.054	0.102
-87.713	-117.117	0.253	-0.046
-86.699	118.208	0.114	0.140
-85.684	-56.354	0.183	0.081
-84.670	69.542	-0.016	0.017
-83.655	-200.000	-0.029	0.229
-82.640	191.502	-0.090	0.135
-81.626	-44.735	-0.190	-0.094
-80.611	50.108	0.161	0.152
-79.597	-2.128	-0.105	0.073
-78.582	-89.896	-0.062	-0.018
-77.567	-181.353	0.249	-0.005
-76.553	-28.412	-0.169	0.097
-75.538	-29.277	-0.192	-0.110
-74.524	-173.921	0.229	-0.007
-73.509	450.050	-0.085	-0.187
-72.494	272.860	-0.175	-0.309
-71.480	800.000	-0.077	0.296
-70.465	-169.010	-0.435	-0.016
-69.451	-79.861	-0.309	0.104
-68.436	27.175	-0.078	-0.065
-67.422	467.232	0.215	-0.480
-66.407	-125.769	0.149	-0.022
-65.392	-171.506	-0.179	0.006
-64.378	-137.230	-0.024	-0.003
-63.363	614.417	0.097	0.243
-62.349	88.533	0.251	0.278
-61.334	520.965	-0.446	-1.043
-60.319	-163.188	0.349	0.017
-59.305	-200.000	0.071	-0.772
-58.290	16.655	0.723	0.569
-57.276	447.506	0.661	1.448
-56.261	-200.000	74.656	521.922
-55.246	550.579	1305.169	3116.983
-54.232	144.975	2552.923	3398.607
-53.217	117.796	2263.277	2774.295
-52.203	53.147	1778.856	1695.588
-51.188	45.630	1573.181	1446.666
-50.173	42.766	1543.092	1399.056
-49.159	58.166	1579.984	1540.939
-48.144	64.503	1599.853	1604.740
-47.130	45.834	1562.089	1437.666
-46.115	42.123	1547.900	1398.702
-45.100	41.975	1544.264	1394.331
-44.086	41.931	1542.456	1392.338
-43.071	41.833	1540.457	1389.797
-42.057	41.894	1538.805	1388.676
-41.042	41.848	1536.987	1386.661
-40.027	41.897	1535.738	1385.820
-39.013	41.949	1534.018	1384.572
-37.998	41.965	1533.206	1383.895
-36.984	41.868	1532.169	1382.231
-35.969	41.904	1530.576	1380.987
-34.954	42.004	1528.911	1380.123
-33.940	41.979	1527.326	1378.461
-32.925	41.975	1525.732	1376.943
-31.911	41.987	1524.350	1375.721
-30.896	41.948	1523.752	1374.859
-29.881	41.924	1522.071	1373.125
-28.867	41.993	1520.644	1372.255
-27.852	42.037	1519.359	1371.346
-26.838	41.896	1517.894	1369.004
-25.823	41.928	1516.388	1367.809
-24.809	41.886	1514.824	1366.056
-23.794	41.947	1513.262	1365.007
-22.779	41.961	1512.058	1363.965
-21.765	41.961	1510.963	1362.924
-20.750	42.047	1509.375	1362.024
-19.736	41.960	1508.962	1361.000
-18.721	41.840	1507.390	1358.717
-17.706	41.890	1505.984	1357.730
-16.692	41.882	1504.656	1356.430
-15.677	41.830	1504.090	1355.512
-14.663	41.827	1502.799	1354.273
-13.648	41.947	1501.966	1354.280
-12.633	41.834	1501.135	1352.717
-11.619	41.849	1500.294	1352.005
-10.604	41.891	1499.016	1351.086
-9.590	41.891	1498.163	1350.257
-8.575	41.758	1497.746	1348.932
-7.560	41.872	1496.659	1348.671
-6.546	41.858	1495.749	1347.699
-5.531	41.771	1495.302	1346.662
-4.517	41.919	1493.624	1346.090
-3.502	41.850	1492.756	1344.791
-2.487	41.875	1491.351	1343.637
-1.473	41.827	1490.579	1342.568
-0.458	41.843	1488.929	1341.138
0.556	40.734	1480.051	1332.161
1.571	38.497	1452.458	1292.464
2.586	34.981	1389.899	1214.417
3.600	32.859	1306.320	1128.617
4.615	30.869	1257.491	1074.864
5.629	25.406	1197.621	993.481
6.644	12.452	1102.652	848.202
7.659	2.433	1054.417	761.381
8.673	1.054	1047.658	749.617
9.688	0.760	1044.920	746.139
10.702	0.680	1043.433	744.616
11.717	0.557	1041.741	742.739
12.731	4.684	1046.935	766.748
13.746	15.927	1063.259	834.644
14.761	22.848	1072.222	876.071
15.775	23.117	1071.264	876.547
16.790	23.092	1070.500	875.721
17.804	22.933	1069.431	873.982
18.819	22.660	1068.752	872.000
19.834	22.751	1068.293	871.995
20.848	22.737	1067.926	871.548
21.863	22.830	1067.390	871.493
22.877	22.840	1067.062	871.198
23.892	22.917	1066.131	870.740
24.907	22.719	1065.271	868.988
25.921	22.738	1064.818	868.634
26.936	22.897	1063.780	868.490
27.950	22.731	1062.838	866.831
28.965	22.775	1061.617	865.973
29.980	22.680	1059.646	863.827
30.994	22.758	1057.888	862.697
32.009	22.790	1058.057	862.916
33.023	22.976	1057.240	863.080
34.038	22.806	1055.810	861.007
35.053	22.552	1055.570	859.498
36.067	22.886	1054.631	860.282
37.082	22.763	1053.804	858.936
38.096	22.810	1053.046	858.467
39.111	22.943	1052.661	858.726
40.126	23.053	1051.896	858.560
41.140	23.025	1050.590	857.283
42.155	22.745	1049.118	854.648
43.169	22.388	1047.899	851.852
44.184	22.335	1046.897	850.707
45.199	22.610	1045.224	850.598
46.213	22.337	1044.805	848.868
47.228	22.317	1044.078	848.102
48.242	22.577	1043.147	848.526
49.257	22.747	1042.078	848.400
50.271	22.752	1041.228	847.654
51.286	22.878	1040.776	847.818
52.301	22.861	1039.829	846.889
53.315	22.903	1039.393	846.661
54.330	22.843	1038.390	845.480
55.344	22.719	1037.392	844.002
56.359	22.741	1036.773	843.525
57.374	22.829	1035.792	843.074
58.388	22.616	1034.732	841.120
59.403	22.619	1033.809	840.311
60.417	22.376	1034.000	839.234
61.432	22.304	1033.042	838.039
62.447	22.281	1032.100	837.091
63.461	22.570	1031.179	837.644
64.476	22.595	1030.517	837.148
65.490	22.649	1029.227	836.285
66.505	22.502	1028.598	835.002
67.520	22.499	1027.867	834.322
68.534	22.519	1027.457	834.010
69.549	22.493	1026.118	832.724
70.563	22.288	1024.803	830.617
71.578	22.080	1023.967	828.883
72.593	22.032	1023.757	828.413
73.607	22.028	1022.280	827.125
74.622	21.981	1021.290	826.031
75.636	22.220	1020.858	826.735
76.651	22.472	1019.948	827.108
77.666	22.418	1019.040	826.043
78.680	22.085	1018.675	824.113
79.695	22.225	1017.833	824.017
80.709	22.217	1017.426	823.577
81.724	22.518	1016.527	824.185
82.739	22.418	1015.732	823.000
83.753	22.386	1014.688	821.929
84.768	22.658	1014.093	822.646
85.782	22.965	1013.650	823.643
86.797	23.164	1012.980	823.954
87.812	23.087	1012.037	822.757
88.826	22.889	1010.913	820.849
89.841	22.935	1010.309	820.496
90.855	23.011	1009.578	820.187
91.870	23.124	1008.249	819.558
92.884	23.069	1007.772	818.842
93.899	22.934	1006.925	817.455
94.914	22.810	1006.079	816.125
95.928	22.976	1005.369	816.245
96.943	23.032	1004.430	815.666
97.957	22.710	1003.352	813.235
98.972	22.415	1002.469	811.089
99.987	22.283	1001.105	809.307
101.001	22.345	1000.755	809.236
102.016	22.622	1000.171	809.965
103.030	22.829	998.547	809.530
104.045	22.716	997.549	808.129
105.060	22.526	996.406	806.263
106.074	22.530	995.112	805.163
107.089	22.378	994.759	804.113
108.103	22.689	994.621	805.347
109.118	22.772	993.810	804.999
110.133	22.486	992.442	802.517
111.147	22.489	991.783	801.928
112.162	22.432	990.102	800.237
113.176	22.143	989.022	797.984
114.191	22.420	988.387	798.654
115.206	22.520	987.244	798.115
116.220	22.236	986.059	795.801
117.235	22.002	985.437	794.171
118.249	22.270	984.912	794.887
119.264	22.229	983.959	793.865
120.279	22.156	982.780	792.514
121.293	22.060	982.350	791.662
122.308	22.351	981.546	792.257
123.322	22.298	980.593	791.179
124.337	22.227	979.246	789.701
125.352	22.290	978.261	789.122
126.366	21.826	976.370	785.450
127.381	21.380	975.386	782.593
128.395	21.914	975.036	784.627
129.410	22.577	974.634	787.200
130.424	22.672	973.994	787.035
131.439	22.747	972.847	786.373
132.454	22.794	971.868	785.724
133.468	22.750	971.124	784.857
134.483	22.616	970.693	783.843
135.497	22.618	970.187	783.375
136.512	22.889	968.885	783.455
137.527	22.914	968.589	783.257
138.541	22.970	967.561	782.604
139.556	22.888	966.972	781.694
140.570	23.080	965.811	781.537
141.585	23.112	964.810	780.800
142.600	23.169	964.467	780.703
143.614	22.990	963.417	778.996
144.629	22.896	963.292	778.413
145.643	23.347	962.366	779.580
146.658	23.132	961.278	777.686
147.673	23.041	959.682	775.925
148.687	22.980	958.576	774.697
149.702	22.782	957.930	773.235
150.716	22.704	956.843	771.949
151.731	22.734	955.559	770.977
152.746	22.848	954.625	770.651
153.760	23.008	954.259	770.985
154.775	23.050	953.991	770.883
155.789	23.070	953.179	770.249
156.804	23.118	952.181	769.583
157.819	22.926	951.093	767.799
158.833	23.066	950.386	767.768
159.848	23.046	949.969	767.276
160.862	23.185	948.605	766.712
161.877	23.102	947.857	765.678
162.892	22.903	946.791	763.891
163.906	23.058	946.227	764.036
164.921	23.016	944.921	762.733
165.935	22.931	944.149	761.675
166.950	23.178	942.729	761.526
167.964	23.096	942.012	760.525
168.979	22.981	941.383	759.457
169.994	23.071	940.137	758.770
171.008	22.903	938.794	756.899
172.023	22.945	938.391	756.691
173.037	23.086	937.881	756.815
174.052	22.960	936.587	755.164
175.067	22.725	935.382	753.123
176.081	22.766	934.304	752.361
177.096	22.976	933.573	752.602
178.110	22.983	932.715	751.873
179.125	22.686	932.235	750.159
180.140	22.445	930.975	748.055
181.154	22.515	930.167	747.635
182.169	22.526	929.862	747.371
183.183	22.743	929.705	748.097
184.198	23.094	929.204	749.114
185.213	23.119	928.304	748.429
186.227	23.058	927.637	747.569
187.242	23.104	927.011	747.193
188.256	23.077	926.380	746.503
189.271	23.114	925.621	745.980
190.286	23.119	925.173	745.578
191.300	23.114	923.933	744.490
192.315	22.503	922.844	740.979
193.329	21.805	921.057	736.545
194.344	21.480	919.951	734.234
195.359	22.009	920.336	736.695
196.373	22.719	920.214	739.510
197.388	22.920	920.334	740.382
198.402	22.878	919.757	739.676
199.417	22.818	919.343	739.029
200.432	23.060	918.335	739.163
201.446	22.770	918.043	737.650
202.461	22.586	917.150	736.101
203.475	22.583	916.291	735.332
204.490	22.365	914.482	732.909
205.504	21.086	912.985	726.323
206.519	21.463	912.661	727.569
207.534	22.348	913.262	731.667
208.548	22.536	912.667	731.904
209.563	22.845	912.329	732.851
210.577	22.896	911.996	732.732
211.592	22.706	910.863	730.969
212.607	23.034	910.465	731.943
213.621	23.090	910.157	731.862
214.636	23.071	909.572	731.248
215.650	23.180	908.773	730.991
216.665	23.040	908.331	729.994
217.680	23.003	908.235	729.700
218.694	23.227	907.298	729.804
219.709	22.888	906.204	727.464
220.723	22.468	905.553	725.149
221.738	22.657	904.758	725.227
222.753	22.888	904.478	725.888
223.767	22.851	903.675	725.026
224.782	22.929	902.817	724.593
225.796	23.136	902.519	725.138
226.811	23.273	901.846	725.096
227.826	22.869	900.762	722.506
228.840	22.085	899.221	718.006
229.855	21.967	898.580	716.948
230.869	22.280	898.018	717.710
231.884	21.957	896.982	715.502
232.899	21.952	896.599	715.116
233.913	22.663	897.299	718.508
234.928	22.994	896.182	718.894
235.942	22.853	895.427	717.654
236.957	22.845	894.977	717.199
237.972	22.532	894.245	715.276
238.986	22.491	893.325	714.311
240.001	22.617	892.807	714.344
241.015	22.596	892.151	713.670
242.030	22.749	891.655	713.829
243.045	22.837	890.851	713.480
244.059	22.922	890.734	713.664
245.074	23.174	890.248	714.231
246.088	23.154	889.212	713.254
247.103	22.648	888.478	710.564
248.117	22.727	887.520	710.054
249.132	23.124	887.839	711.845
250.147	23.455	887.686	712.991
251.161	23.630	887.118	713.173
252.176	23.713	886.652	713.068
253.190	23.665	886.144	712.405
254.205	23.781	885.560	712.339
255.220	24.089	885.023	713.078
256.234	23.987	884.377	712.083
257.249	23.847	883.893	711.072
258.263	23.664	883.406	709.887
259.278	23.813	882.145	709.404
260.293	23.755	882.241	709.186
261.307	23.890	881.226	708.846
262.322	23.774	880.553	707.779
263.336	23.507	880.115	706.305
264.351	23.350	878.411	704.249
265.366	22.119	876.842	698.042
266.380	21.732	875.649	695.495
267.395	22.515	876.218	698.991
268.409	23.358	876.077	702.160
269.424	23.465	875.457	702.024
270.439	23.500	874.757	701.540
271.453	23.637	874.409	701.741
272.468	23.614	873.993	701.252
273.482	23.785	873.212	701.240
274.497	23.946	873.104	701.726
275.512	23.880	871.792	700.351
276.526	23.268	870.256	696.647
277.541	23.242	870.097	696.356
278.555	23.739	869.967	698.146
279.570	23.489	869.120	696.419
280.585	23.221	868.637	694.921
281.599	23.292	868.376	694.929
282.614	23.597	867.499	695.362
283.628	23.121	866.530	692.661
284.643	22.705	865.613	690.236
285.657	23.164	865.376	691.781
286.672	22.896	865.250	690.574
287.687	22.503	863.950	687.941
288.701	22.826	863.819	689.034
289.716	23.360	863.236	690.592
290.730	23.096	862.717	689.087
291.745	23.008	861.429	687.655
292.760	22.756	861.174	686.409
293.774	22.560	860.473	685.028
294.789	23.450	861.026	688.869
295.803	24.065	860.751	690.977
296.818	24.161	860.455	691.049
297.833	24.247	859.813	690.807
298.847	23.960	858.769	688.796
299.862	23.553	858.030	686.568
300.876	23.733	857.389	686.688
301.891	24.141	856.895	687.810
302.906	24.210	856.616	687.789
303.920	23.848	855.577	685.497
304.935	23.734	854.389	684.046
305.949	24.011	854.433	685.088
306.964	24.121	853.971	685.080
307.979	23.858	853.144	683.344
308.993	23.818	852.615	682.709
310.008	24.032	852.573	683.436
311.022	24.436	851.992	684.459
312.037	24.160	851.344	682.820
313.052	23.970	850.518	681.369
314.066	23.847	850.120	680.522
315.081	23.213	848.510	676.748
316.095	22.414	847.368	672.724
317.110	23.046	847.307	675.031
318.125	23.756	847.596	677.912
319.139	23.539	846.606	676.235
320.154	22.380	844.523	670.098
321.168	21.857	843.722	667.417
322.183	22.456	843.897	669.772
323.197	23.395	844.611	673.855
324.212	23.617	843.918	674.085
325.227	23.775	843.620	674.386
326.241	23.995	843.051	674.706
327.256	23.791	842.983	673.819
328.270	23.759	842.262	673.061
329.285	23.714	841.535	672.251
330.300	23.666	840.404	671.106
331.314	23.471	839.849	669.865
332.329	23.450	838.991	669.043
333.343	23.826	838.528	670.032
334.358	24.186	838.335	671.177
335.373	24.021	838.056	670.274
336.387	24.121	837.391	670.055
337.402	24.412	837.170	670.916
338.416	24.597	836.587	671.084
339.431	24.599	835.975	670.542
340.446	24.438	835.647	669.613
341.460	24.700	835.170	670.155
342.475	24.517	834.818	669.126
343.489	24.433	833.546	667.735
344.504	24.356	833.088	667.020
345.519	24.720	832.762	668.061
346.533	24.774	833.004	668.396
347.548	25.002	832.098	668.462
348.562	24.846	831.659	667.469
349.577	24.768	831.242	666.784
350.592	24.722	830.645	666.075
351.606	24.706	830.496	665.836
352.621	24.814	829.644	665.498
353.635	24.753	829.181	664.840
354.650	24.705	828.373	663.955
355.665	24.481	827.676	662.506
356.679	23.302	826.149	656.854
357.694	23.117	825.495	655.591
358.708	23.690	825.661	657.790
359.723	23.743	824.784	657.226
360.738	23.938	824.412	657.594
361.752	24.333	824.770	659.282
362.767	24.447	824.411	659.357
363.781	24.871	823.789	660.367
364.796	24.979	823.859	660.765
365.810	25.178	823.331	661.013
366.825	25.254	822.935	660.919
367.840	25.104	822.804	660.203
368.854	25.009	821.825	659.008
369.869	24.746	820.970	657.299
370.883	24.462	820.173	655.558
371.898	24.690	819.645	655.917
372.913	24.508	818.964	654.645
373.927	24.505	818.545	654.243
374.942	24.702	818.115	654.561
375.956	24.714	817.619	654.150
376.971	24.770	817.180	653.948
377.986	24.922	816.623	653.998
379.000	25.063	816.117	654.048
380.015	25.114	815.683	653.830
381.029	24.930	814.973	652.531
382.044	24.920	814.375	651.962
383.059	25.017	814.007	651.960
384.073	25.078	813.499	651.718
385.088	25.075	812.873	651.150
386.102	25.154	812.275	650.898
387.117	24.931	811.555	649.455
388.132	24.894	810.789	648.648
389.146	24.747	810.288	647.661
390.161	24.276	809.365	645.160
391.175	24.213	809.146	644.699
392.190	24.583	809.429	646.207
393.205	24.889	808.536	646.544
394.219	23.867	806.845	641.446
395.234	22.279	804.721	633.984
396.248	21.422	803.660	630.005
397.263	22.501	804.635	634.604
398.278	24.279	805.900	641.953
399.292	24.869	805.568	643.755
400.307	24.629	804.810	642.229
401.321	24.318	804.899	641.127
402.336	24.657	804.203	641.732
403.350	24.753	804.113	641.948
404.365	25.151	804.408	643.557
405.380	25.524	803.835	644.378
406.394	25.763	803.589	644.980
407.409	25.966	803.079	645.241
408.423	25.921	802.552	644.599
409.438	25.871	801.590	643.590
410.453	25.911	801.609	643.691
411.467	25.871	801.346	643.281
412.482	25.668	800.801	642.064
413.496	25.759	800.062	641.737
414.511	25.898	799.820	641.981
415.526	25.781	799.746	641.448
416.540	25.909	799.359	641.537
417.555	25.805	798.654	640.545
418.569	25.430	798.083	638.698
419.584	25.415	797.279	637.943
420.599	25.473	796.845	637.747
421.613	90.660	1253.002	1350.498
422.628	77.418	1319.509	1350.643
