DTS Sentinel unit serial number:	SN413079Multiplexer serial number:	ORYXHardware model number:	OX4-SRSoftware version number:	ORYX F/W v4.00 Oryx Data Collector v3.7.2.0data status	okinstallation	princeton_trtdifferential loss correction	single-endedforward channel	channel 3reverse channel	N/Adate	2019/09/11time	20:10:11forward acquisition time	60.00reverse acquisition time	0.00gamma	496.2192k internal	0.2301k external	0.2301temperature offset calibration	1.0022default loss term (dB/km)	0.3790temperature slope calibration	1.0000multiplexer offset coefficient	1.0000multiplexer slope coefficient	1.0000fibre end	0.00T internal ref (°C)	38.41T ext. ref 1 (°C)	1.42T ext. ref 2 (°C)	31.90length (m)	temperature (°C)	Stokes	anti-Stokes-747.200	-127.386	0.146	-0.022
-746.185	-200.000	-0.036	-0.340
-745.171	-200.000	0.047	0.258
-744.156	225.786	-0.210	0.347
-743.142	-136.855	-0.263	0.031
-742.127	340.301	-0.098	0.194
-741.112	144.746	0.082	0.112
-740.098	332.443	-0.117	0.231
-739.083	-159.565	0.197	0.011
-738.069	33.650	-0.429	0.380
-737.054	-54.206	-0.226	-0.105
-736.039	28.479	-0.161	0.139
-735.025	79.629	0.213	-0.233
-734.010	260.955	0.141	-0.248
-732.996	383.922	-0.018	-0.038
-731.981	224.305	-0.128	-0.210
-730.966	800.000	-0.161	-0.453
-729.952	-156.634	-0.363	-0.023
-728.937	800.000	0.171	-0.536
-727.923	-200.000	0.013	-0.192
-726.908	-12.796	-0.100	-0.066
-725.894	55.291	0.088	0.087
-724.879	-200.000	-0.060	-0.388
-723.864	235.986	-0.045	-0.076
-722.850	266.921	-0.059	-0.106
-721.835	5.060	0.265	0.199
-720.821	-35.817	0.266	0.147
-719.806	48.076	0.361	0.344
-718.791	-200.000	-0.009	-0.052
-717.777	-200.000	-0.040	0.203
-716.762	-200.000	-0.004	0.151
-715.748	-33.907	-0.178	0.100
-714.733	-50.842	-0.073	-0.035
-713.718	-128.517	-0.294	0.042
-712.704	214.874	-0.069	-0.112
-711.689	202.779	-0.050	0.079
-710.675	-105.978	0.327	-0.075
-709.660	33.985	0.035	-0.031
-708.645	66.440	-0.284	0.293
-707.631	-16.653	-0.150	0.097
-706.616	89.671	0.144	0.164
-705.602	-114.701	-0.368	-0.072
-704.587	79.127	-0.233	0.254
-703.572	-200.000	-0.046	-0.246
-702.558	800.000	-0.063	-0.266
-701.543	-200.000	-0.042	-0.361
-700.529	49.955	-0.181	0.174
-699.514	-200.000	-0.013	-0.098
-698.499	-50.263	-0.378	0.182
-697.485	7.374	-0.105	-0.080
-696.470	145.616	0.216	0.294
-695.456	410.443	0.161	-0.347
-694.441	297.652	0.188	0.351
-693.426	134.055	0.169	-0.223
-692.412	24.337	-0.062	0.052
-691.397	-200.000	-0.024	-0.288
-690.383	-14.328	-0.061	-0.040
-689.368	-113.539	-0.287	-0.057
-688.354	-82.193	-0.234	0.077
-687.339	-97.268	-0.293	-0.078
-686.324	-180.955	0.021	-0.000
-685.310	-40.938	-0.296	-0.156
-684.295	-21.094	-0.076	-0.047
-683.281	-200.000	0.039	-0.183
-682.266	-52.140	0.288	-0.136
-681.251	-140.957	-0.219	0.023
-680.237	-62.102	0.186	-0.079
-679.222	101.186	-0.093	0.111
-678.208	48.093	0.090	0.086
-677.193	-90.713	-0.141	-0.041
-676.178	-77.768	-0.020	0.007
-675.164	-96.433	-0.083	-0.022
-674.149	458.268	0.103	-0.233
-673.135	50.865	-0.045	-0.043
-672.120	23.361	-0.100	0.084
-671.105	800.000	-0.066	-0.219
-670.091	-58.764	0.178	0.078
-669.076	-19.208	-0.227	-0.143
-668.062	14.504	0.151	-0.120
-667.047	800.000	-0.054	0.167
-666.032	-108.160	0.125	-0.028
-665.018	-28.108	-0.226	0.133
-664.003	27.256	-0.277	-0.237
-662.989	227.028	-0.164	-0.271
-661.974	-34.825	-0.066	0.037
-660.959	148.853	0.070	0.097
-659.945	404.202	0.093	0.200
-658.930	0.737	-0.251	-0.182
-657.916	175.156	0.084	0.123
-656.901	-2.855	-0.132	0.094
-655.886	73.182	-0.238	-0.253
-654.872	99.461	0.152	0.178
-653.857	-200.000	0.026	-0.316
-652.843	-161.781	-0.206	-0.011
-651.828	232.983	-0.042	0.070
-650.814	46.566	-0.199	-0.188
-649.799	-121.251	-0.332	0.056
-648.784	800.000	0.012	0.038
-647.770	252.797	0.226	0.392
-646.755	479.840	0.112	0.259
-645.741	-200.000	-0.032	0.271
-644.726	-200.000	-0.006	-0.174
-643.711	386.987	-0.092	-0.194
-642.697	-150.828	-0.172	0.013
-641.682	-200.000	-0.034	0.158
-640.668	14.533	0.178	0.141
-639.653	-26.200	0.250	-0.149
-638.638	-200.000	0.009	0.086
-637.624	-40.642	0.130	0.068
-636.609	-200.000	0.021	-0.097
-635.595	183.011	-0.052	-0.078
-634.580	-74.512	-0.534	0.195
-633.565	-137.445	-0.303	-0.035
-632.551	-35.832	0.178	-0.098
-631.536	-110.860	0.179	0.037
-630.522	800.000	0.076	-0.229
-629.507	-161.231	-0.177	0.009
-628.492	-160.251	0.291	-0.016
-627.478	-3.805	0.175	-0.123
-626.463	376.044	0.112	0.232
-625.449	373.162	0.117	-0.242
-624.434	346.964	-0.052	-0.103
-623.419	112.012	0.136	0.167
-622.405	587.129	-0.101	0.253
-621.390	-72.926	0.049	0.018
-620.376	-189.095	-0.252	-0.003
-619.361	-92.172	-0.387	0.111
-618.346	27.118	-0.123	-0.105
-617.332	-200.000	-0.020	0.241
-616.317	-106.565	-0.255	0.058
-615.303	-115.401	-0.033	0.006
-614.288	-200.000	-0.015	-0.219
-613.273	800.000	-0.010	0.039
-612.259	-69.383	-0.237	-0.092
-611.244	66.655	0.206	-0.212
-610.230	-79.373	-0.266	-0.091
-609.215	-118.779	0.193	0.034
-608.201	88.285	0.291	-0.327
-607.186	178.146	0.222	-0.328
-606.171	-146.032	-0.534	-0.048
-605.157	-55.557	-0.050	-0.023
-604.142	-200.000	0.018	0.219
-603.128	583.661	-0.095	-0.235
-602.113	36.511	-0.410	-0.366
-601.098	554.255	0.036	0.088
-600.084	-200.000	-0.044	-0.412
-599.069	-200.000	-0.021	-0.359
-598.055	-148.525	-0.109	-0.009
-597.040	-58.642	-0.347	0.152
-596.025	431.847	0.073	0.161
-595.011	170.518	-0.191	-0.277
-593.996	94.693	-0.183	0.210
-592.982	272.680	0.130	-0.233
-591.967	-71.972	-0.608	0.229
-590.952	651.891	-0.188	0.487
-589.938	100.599	0.139	-0.163
-588.923	98.864	-0.151	0.176
-587.909	147.748	0.045	0.062
-586.894	-112.265	0.239	0.049
-585.879	-48.649	-0.158	0.077
-584.865	24.010	-0.041	-0.034
-583.850	-6.446	0.157	0.108
-582.836	-200.000	-0.047	0.316
-581.821	-200.000	-0.008	-0.154
-580.806	22.427	0.123	0.101
-579.792	-87.536	0.373	0.114
-578.777	-200.000	-0.039	0.265
-577.763	-200.000	0.003	-0.229
-576.748	-107.021	-0.131	0.029
-575.733	800.000	-0.117	-0.396
-574.719	-200.000	0.057	0.317
-573.704	302.484	0.122	-0.228
-572.690	-80.034	-0.079	0.027
-571.675	-54.511	-0.287	-0.132
-570.661	-39.541	-0.245	0.130
-569.646	800.000	-0.123	-0.376
-568.631	123.979	0.169	0.215
-567.617	-22.180	-0.180	-0.110
-566.602	-138.916	0.174	0.019
-565.588	-200.000	-0.004	0.159
-564.573	47.305	-0.319	0.300
-563.558	-124.857	0.301	-0.047
-562.544	71.779	0.159	0.167
-561.529	146.219	0.125	-0.170
-560.515	402.244	0.070	-0.149
-559.500	800.000	0.054	-0.168
-558.485	-70.653	0.076	0.029
-557.471	-30.581	-0.357	-0.204
-556.456	74.919	-0.133	-0.142
-555.442	105.883	-0.149	-0.179
-554.427	800.000	-0.150	-0.476
-553.412	-68.926	0.174	0.068
-552.398	159.698	-0.070	0.099
-551.383	-200.000	0.009	-0.073
-550.369	-58.289	0.135	0.059
-549.354	-77.999	-0.098	0.034
-548.339	-104.754	0.190	-0.044
-547.325	70.469	-0.093	-0.098
-546.310	-76.455	0.382	0.136
-545.296	-65.554	0.248	-0.100
-544.281	800.000	-0.065	0.276
-543.266	-106.547	0.155	-0.035
-542.252	-5.340	0.244	-0.169
-541.237	492.896	0.226	0.525
-540.223	-113.039	0.350	0.070
-539.208	3.284	0.340	0.250
-538.193	67.241	0.242	-0.249
-537.179	-192.908	0.140	-0.001
-536.164	76.620	0.066	0.070
-535.150	-200.000	0.000	0.026
-534.135	-200.000	0.033	0.181
-533.121	-200.000	-0.035	0.357
-532.106	-93.115	0.234	-0.066
-531.091	312.385	-0.076	-0.143
-530.077	31.689	-0.232	-0.202
-529.062	198.632	-0.084	0.130
-528.048	-101.683	0.428	0.105
-527.033	-200.000	0.011	-0.325
-526.018	-123.349	-0.048	-0.008
-525.004	66.985	-0.093	0.096
-523.989	-200.000	0.011	0.068
-522.975	-16.320	-0.175	-0.113
-521.960	-200.000	-0.012	-0.393
-520.945	-147.768	-0.123	0.010
-519.931	32.334	-0.247	-0.216
-518.916	800.000	-0.052	-0.166
-517.902	-200.000	0.046	0.288
-516.887	-200.000	0.056	0.379
-515.872	138.098	-0.230	-0.304
-514.858	-60.617	-0.063	0.027
-513.843	-117.583	0.146	-0.027
-512.829	356.832	-0.140	0.282
-511.814	-160.557	0.104	-0.006
-510.799	800.000	0.033	-0.129
-509.785	12.699	-0.082	-0.064
-508.770	-200.000	0.022	0.117
-507.756	-71.288	-0.087	-0.033
-506.741	-200.000	-0.008	-0.119
-505.726	595.369	-0.071	-0.177
-504.712	133.792	0.085	-0.111
-503.697	72.737	0.085	-0.089
-502.683	86.093	0.200	-0.222
-501.668	339.961	0.049	0.096
-500.653	167.155	-0.205	-0.294
-499.639	-62.131	-0.155	-0.065
-498.624	-127.167	-0.172	0.025
-497.610	800.000	0.029	-0.104
-496.595	800.000	0.041	-0.134
-495.581	113.110	-0.053	-0.065
-494.566	-200.000	0.007	0.277
-493.551	-125.961	0.406	0.062
-492.537	69.976	-0.132	-0.137
-491.522	-161.566	0.126	-0.007
-490.508	-102.993	0.311	0.074
-489.493	800.000	-0.094	-0.401
-488.478	588.942	0.046	0.114
-487.464	467.648	0.153	0.346
-486.449	-57.258	0.124	0.055
-485.435	-200.000	-0.046	-0.279
-484.420	-96.807	0.091	0.024
-483.405	-163.119	0.198	-0.010
-482.391	167.959	0.136	0.196
-481.376	-159.749	-0.216	0.012
-480.362	30.503	-0.332	-0.287
-479.347	120.460	0.190	-0.238
-478.332	-148.304	0.029	0.002
-477.318	224.864	-0.188	-0.306
-476.303	-91.632	0.458	-0.131
-475.289	278.277	0.061	-0.109
-474.274	9.760	-0.179	-0.137
-473.259	34.374	0.292	0.257
-472.245	-107.039	0.133	0.030
-471.230	137.219	-0.177	-0.233
-470.216	-200.000	-0.060	0.309
-469.201	82.978	-0.412	0.452
-468.186	-36.407	-0.290	0.157
-467.172	-97.479	0.155	-0.041
-466.157	-134.940	0.079	-0.010
-465.143	-200.000	-0.027	-0.264
-464.128	-89.471	0.099	0.029
-463.113	680.359	-0.042	-0.109
-462.099	133.267	0.167	-0.218
-461.084	800.000	-0.149	-0.627
-460.070	132.641	-0.048	0.063
-459.055	335.686	0.014	-0.027
-458.040	800.000	-0.046	-0.176
-457.026	-1.522	0.100	0.071
-456.011	-130.259	-0.282	0.039
-454.997	-14.431	-0.105	-0.068
-453.982	-200.000	-0.014	-0.357
-452.968	520.099	0.133	0.313
-451.953	140.906	-0.132	-0.175
-450.938	32.674	0.189	0.165
-449.924	63.406	0.172	-0.174
-448.909	193.721	0.175	-0.267
-447.895	-200.000	-0.005	-0.210
-446.880	-75.741	-0.233	-0.083
-445.865	-200.000	-0.018	-0.135
-444.851	-140.399	-0.381	-0.040
-443.836	-200.000	0.010	0.049
-442.822	-97.466	-0.091	0.024
-441.807	-200.000	-0.035	0.353
-440.792	-200.000	-0.031	-0.392
-439.778	31.557	-0.082	-0.071
-438.763	-112.380	0.181	0.036
-437.749	-119.886	-0.056	-0.010
-436.734	-200.000	-0.038	-0.194
-435.719	406.412	-0.191	0.407
-434.705	24.496	-0.115	0.096
-433.690	-200.000	-0.010	-0.164
-432.676	479.095	-0.104	-0.238
-431.661	-96.907	-0.078	0.021
-430.646	-200.000	0.044	-0.239
-429.632	-30.105	0.097	0.056
-428.617	-200.000	-0.004	-0.090
-427.603	800.000	-0.054	0.196
-426.588	135.287	0.098	-0.129
-425.573	-154.468	-0.353	-0.024
-424.559	800.000	-0.098	0.292
-423.544	800.000	-0.010	0.035
-422.530	-200.000	-0.062	-0.280
-421.515	-200.000	-0.050	0.274
-420.500	40.589	-0.185	0.167
-419.486	-164.382	0.220	0.010
-418.471	-200.000	0.009	0.182
-417.457	-200.000	0.057	0.392
-416.442	-152.458	-0.337	0.024
-415.428	160.541	0.093	0.130
-414.413	-129.245	0.245	0.034
-413.398	-200.000	-0.014	-0.138
-412.384	56.050	0.216	-0.211
-411.369	-141.118	0.218	0.022
-410.355	148.947	0.143	0.195
-409.340	238.769	0.037	0.062
-408.325	-173.915	0.225	0.007
-407.311	62.185	0.140	-0.140
-406.296	-151.219	0.465	0.035
-405.282	-48.743	0.362	0.175
-404.267	281.368	0.148	0.267
-403.252	-137.252	0.177	0.020
-402.238	-200.000	0.063	0.283
-401.223	-49.169	0.185	-0.089
-400.209	800.000	-0.050	-0.177
-399.194	22.727	0.275	0.226
-398.179	173.045	0.194	0.281
-397.165	267.456	-0.225	0.397
-396.150	-140.111	0.094	-0.010
-395.136	800.000	0.015	0.053
-394.121	120.962	-0.112	0.140
-393.106	214.433	0.113	0.181
-392.092	93.041	0.122	0.139
-391.077	511.962	-0.039	0.092
-390.063	-200.000	-0.005	0.083
-389.048	-166.416	0.378	0.016
-388.033	-141.464	-0.257	0.026
-387.019	-200.000	0.004	-0.234
-386.004	-105.669	-0.214	0.049
-384.990	-58.078	0.082	-0.036
-383.975	290.392	-0.172	0.314
-382.960	-200.000	-0.039	0.205
-381.946	89.466	-0.039	-0.044
-380.931	104.012	0.053	-0.062
-379.917	-27.504	0.128	-0.075
-378.902	800.000	0.059	-0.180
-377.888	151.562	0.113	0.155
-376.873	800.000	-0.050	0.160
-375.858	6.956	-0.046	0.034
-374.844	-41.845	0.220	-0.113
-373.829	-86.299	-0.242	0.075
-372.815	149.472	0.158	0.216
-371.800	-99.265	0.224	0.057
-370.785	108.124	0.287	-0.344
-369.771	-95.475	-0.249	0.067
-368.756	800.000	-0.083	-0.234
-367.742	-200.000	0.004	0.096
-366.727	779.730	0.121	0.332
-365.712	-200.000	-0.015	0.265
-364.698	301.970	0.095	0.177
-363.683	800.000	0.026	0.083
-362.669	61.908	0.096	-0.096
-361.654	169.435	0.322	-0.461
-360.639	175.369	-0.069	0.101
-359.625	-200.000	-0.012	-0.103
-358.610	-153.726	-0.332	-0.023
-357.596	85.793	-0.101	-0.112
-356.581	182.912	-0.159	0.236
-355.566	-200.000	-0.043	-0.230
-354.552	-73.588	-0.034	0.012
-353.537	-41.742	-0.422	-0.217
-352.523	254.174	-0.096	0.165
-351.508	-119.409	-0.129	0.023
-350.493	-26.494	-0.097	0.057
-349.479	-200.000	0.091	0.461
-348.464	-92.059	0.390	-0.111
-347.450	635.722	-0.046	-0.116
-346.435	-200.000	-0.021	0.252
-345.420	-200.000	0.026	-0.250
-344.406	-200.000	-0.027	-0.272
-343.391	310.583	0.025	-0.047
-342.377	-90.003	-0.247	-0.072
-341.362	16.741	-0.203	0.162
-340.348	-54.443	0.014	0.006
-339.333	-50.332	-0.089	-0.042
-338.318	56.076	0.260	0.253
-337.304	10.941	-0.079	-0.060
-336.289	-161.599	-0.186	-0.010
-335.275	10.401	0.267	-0.204
-334.260	525.253	0.148	-0.349
-333.245	204.879	-0.070	-0.108
-332.231	-121.528	-0.166	0.028
-331.216	-0.769	0.243	0.173
-330.202	-36.697	0.165	0.089
-329.187	-124.084	0.201	0.032
-328.172	202.902	0.101	-0.157
-327.158	-23.036	0.063	0.038
-326.143	707.514	-0.145	0.384
-325.129	275.001	-0.208	0.370
-324.114	-161.847	0.270	-0.014
-323.099	-106.020	0.080	0.018
-322.085	272.668	0.151	0.267
-321.070	-200.000	-0.045	-0.213
-320.056	-200.000	0.010	0.103
-319.041	-71.844	-0.121	0.045
-318.026	156.129	0.078	0.107
-317.012	-8.840	-0.250	-0.168
-315.997	-169.054	-0.359	0.013
-314.983	271.424	-0.095	0.169
-313.968	-200.000	0.008	-0.236
-312.953	378.131	0.131	0.268
-311.939	-144.321	0.225	-0.021
-310.924	170.155	-0.140	-0.200
-309.910	-200.000	0.015	0.158
-308.895	-200.000	0.016	-0.133
-307.880	-200.000	-0.002	-0.269
-306.866	-200.000	0.002	-0.020
-305.851	-138.729	0.186	-0.020
-304.837	-165.379	-0.220	0.010
-303.822	500.114	0.064	0.149
-302.807	-119.729	0.343	-0.059
-301.793	-200.000	-0.018	0.113
-300.778	-81.144	-0.117	-0.039
-299.764	-36.286	-0.067	-0.036
-298.749	-200.000	-0.006	0.118
-297.735	105.083	0.038	-0.045
-296.720	211.946	-0.207	0.326
-295.705	492.235	0.024	-0.055
-294.691	367.147	-0.116	-0.234
-293.676	53.366	0.096	0.092
-292.662	90.725	0.033	-0.037
-291.647	-200.000	-0.044	-0.200
-290.632	-2.126	-0.355	-0.250
-289.618	-95.432	0.334	0.090
-288.603	800.000	-0.071	-0.201
-287.589	-125.092	-0.357	0.055
-286.574	-104.671	-0.178	0.041
-285.559	-140.607	0.061	0.006
-284.545	-27.187	-0.211	-0.123
-283.530	-70.053	-0.217	-0.083
-282.516	71.707	-0.089	0.092
-281.501	-43.214	0.207	-0.105
-280.486	-63.174	0.332	0.137
-279.472	293.446	0.069	0.125
-278.457	-154.775	-0.052	0.003
-277.443	-24.204	0.105	0.062
-276.428	-11.467	0.089	0.059
-275.413	-181.561	0.081	-0.002
-274.399	800.000	0.076	0.233
-273.384	-200.000	0.035	0.219
-272.370	-178.563	0.045	0.001
-271.355	800.000	-0.102	-0.299
-270.340	189.589	0.142	-0.213
-269.326	-86.110	-0.282	-0.087
-268.311	134.130	0.234	-0.303
-267.297	-180.130	-0.124	-0.003
-266.282	248.078	0.074	0.125
-265.267	696.842	0.152	-0.400
-264.253	800.000	-0.043	-0.162
-263.238	-168.036	0.059	-0.002
-262.224	75.401	0.109	0.116
-261.209	116.773	-0.172	0.211
-260.195	-95.253	-0.361	0.097
-259.180	-24.913	0.088	0.052
-258.165	-200.000	0.001	0.242
-257.151	581.509	-0.059	0.145
-256.136	77.830	-0.133	-0.142
-255.122	-38.742	0.129	-0.068
-254.107	-26.919	-0.351	0.205
-253.092	151.119	-0.122	0.166
-252.078	-92.665	-0.386	0.108
-251.063	147.223	-0.239	-0.322
-250.049	47.782	-0.105	-0.098
-249.034	80.216	0.081	0.087
-248.019	-97.801	0.301	0.078
-247.005	299.332	-0.105	-0.192
-245.990	-200.000	0.001	-0.006
-244.976	800.000	0.090	-0.374
-243.961	212.773	-0.021	0.034
-242.946	13.772	0.214	-0.166
-241.932	-90.911	0.070	-0.020
-240.917	85.971	0.189	0.208
-239.903	-181.277	-0.187	-0.004
-238.888	94.465	0.049	-0.055
-237.873	-144.033	0.267	0.025
-236.859	293.925	-0.115	0.209
-235.844	-14.795	-0.157	-0.101
-234.830	800.000	0.060	0.224
-233.815	312.638	-0.090	0.169
-232.800	-80.556	-0.106	-0.035
-231.786	197.122	0.079	-0.121
-230.771	-77.451	0.128	-0.044
-229.757	-42.258	-0.386	-0.197
-228.742	119.187	-0.191	0.236
-227.727	-127.996	0.256	-0.037
-226.713	-189.889	-0.310	-0.004
-225.698	350.278	0.100	-0.198
-224.684	-65.781	-0.153	0.061
-223.669	168.937	-0.118	-0.168
-222.655	444.762	0.071	0.155
-221.640	-200.000	-0.012	-0.149
-220.625	-200.000	0.004	0.251
-219.611	245.219	0.137	0.230
-218.596	800.000	-0.037	-0.139
-217.582	-9.596	0.184	-0.123
-216.567	52.706	0.105	-0.101
-215.552	350.160	-0.089	0.175
-214.538	213.680	0.101	0.159
-213.523	414.708	-0.033	0.070
-212.509	116.070	0.205	0.251
-211.494	-45.619	-0.346	0.171
-210.479	83.553	-0.153	-0.166
-209.465	-69.602	0.121	-0.046
-208.450	16.132	0.085	0.067
-207.436	-4.340	0.233	0.161
-206.421	-92.494	0.133	0.037
-205.406	-200.000	0.012	0.172
-204.392	-31.790	-0.017	0.010
-203.377	-46.345	0.116	0.057
-202.363	-114.433	-0.297	-0.057
-201.348	-60.357	0.271	0.115
-200.333	57.464	-0.124	-0.121
-199.319	47.416	-0.061	0.057
-198.304	-200.000	-0.027	0.372
-197.290	-200.000	-0.045	0.323
-196.275	-25.202	-0.281	0.166
-195.260	-61.618	-0.221	-0.092
-194.246	-67.494	0.333	0.130
-193.231	700.069	0.105	-0.274
-192.217	-166.903	0.234	-0.010
-191.202	-22.819	-0.091	0.055
-190.187	16.745	0.357	-0.282
-189.173	25.051	0.126	0.104
-188.158	-77.165	-0.089	0.031
-187.144	743.099	-0.098	-0.264
-186.129	-200.000	-0.038	-0.394
-185.114	505.990	0.090	0.209
-184.100	167.588	0.235	0.333
-183.085	-23.368	-0.312	-0.187
-182.071	80.303	-0.202	-0.217
-181.056	-88.973	-0.059	-0.017
-180.042	-140.993	-0.147	-0.015
-179.027	228.563	0.182	0.296
-178.012	-56.846	-0.379	-0.167
-176.998	800.000	-0.037	0.158
-175.983	-115.616	0.362	-0.068
-174.969	-200.000	-0.006	-0.046
-173.954	-191.020	-0.362	0.004
-172.939	-25.455	-0.227	-0.134
-171.925	-18.340	-0.196	-0.122
-170.910	-52.489	0.457	0.210
-169.896	-148.774	0.328	-0.026
-168.881	-108.547	0.086	0.018
-167.866	-140.265	-0.349	0.036
-166.852	-88.612	0.490	0.145
-165.837	96.482	0.147	-0.168
-164.823	19.077	0.022	-0.017
-163.808	-124.687	-0.140	0.022
-162.793	-91.898	0.379	0.107
-161.779	-38.982	-0.118	0.062
-160.764	-200.000	-0.011	-0.070
-159.750	75.775	-0.240	-0.253
-158.735	-89.377	-0.536	-0.157
-157.720	116.619	0.173	0.212
-156.706	401.593	-0.137	-0.286
-155.691	-42.599	0.374	0.190
-154.677	-168.022	-0.191	0.007
-153.662	126.236	0.141	-0.177
-152.647	-76.480	0.258	0.090
-151.633	211.652	-0.061	-0.095
-150.618	800.000	0.080	-0.242
-149.604	-200.000	0.021	-0.105
-148.589	691.938	-0.145	0.379
-147.574	-53.792	0.208	-0.094
-146.560	-32.264	0.119	-0.066
-145.545	177.823	0.160	0.232
-144.531	727.344	0.064	-0.170
-143.516	-82.723	-0.199	-0.064
-142.502	39.308	-0.094	-0.084
-141.487	-200.000	0.018	0.233
-140.472	291.699	0.144	0.262
-139.458	-200.000	-0.021	0.212
-138.443	-111.164	0.159	-0.032
-137.429	-200.000	0.051	-0.348
-136.414	800.000	-0.116	0.467
-135.399	-121.844	-0.309	-0.051
-134.385	-87.161	0.351	-0.106
-133.370	-79.234	0.130	0.044
-132.356	-138.342	0.252	-0.028
-131.341	-200.000	0.057	0.277
-130.326	-26.478	0.143	0.084
-129.312	-6.551	-0.315	0.213
-128.297	595.045	0.031	0.077
-127.283	581.821	0.107	0.261
-126.268	-200.000	-0.048	0.287
-125.253	97.621	-0.142	-0.163
-124.239	-200.000	-0.032	-0.217
-123.224	221.703	-0.185	0.295
-122.210	409.364	0.175	-0.368
-121.195	13.638	-0.225	0.174
-120.180	231.767	0.049	0.080
-119.166	800.000	0.078	-0.315
-118.151	142.526	0.085	-0.113
-117.137	-200.000	0.008	-0.169
-116.122	-99.036	0.181	0.046
-115.107	298.896	-0.136	-0.250
-114.093	-13.768	0.082	0.053
-113.078	-117.327	-0.251	0.045
-112.064	-31.503	-0.038	0.021
-111.049	-200.000	0.008	-0.161
-110.034	-77.468	-0.172	-0.059
-109.020	157.184	0.069	-0.094
-108.005	-63.005	-0.188	0.077
-106.991	-139.509	0.273	-0.029
-105.976	-200.000	-0.001	0.259
-104.962	59.148	0.047	0.046
-103.947	229.144	0.142	0.230
-102.932	76.196	0.100	-0.106
-101.918	-21.930	0.199	-0.120
-100.903	509.146	-0.060	0.138
-99.889	79.695	0.203	0.217
-98.874	-161.984	-0.256	-0.013
-97.859	104.002	-0.085	0.099
-96.845	800.000	-0.113	-0.343
-95.830	139.791	0.081	0.105
-94.816	174.093	-0.051	-0.073
-93.801	-155.931	-0.143	0.009
-92.786	217.393	-0.081	0.129
-91.772	-200.000	-0.012	-0.073
-90.757	20.659	-0.126	-0.101
-89.743	800.000	0.064	-0.178
-88.728	62.866	0.116	-0.116
-87.713	-47.534	0.120	-0.058
-86.699	-135.736	-0.100	0.012
-85.684	145.518	-0.160	-0.212
-84.670	-200.000	-0.024	-0.169
-83.655	-76.186	-0.326	-0.114
-82.640	-50.155	0.142	-0.067
-81.626	683.371	-0.052	-0.136
-80.611	466.147	0.064	-0.142
-79.597	-200.000	-0.000	-0.030
-78.582	169.904	-0.216	-0.306
-77.567	-38.480	0.466	0.245
-76.553	280.985	-0.083	-0.148
-75.538	-68.906	-0.089	0.034
-74.524	171.390	-0.110	-0.157
-73.509	311.775	0.068	-0.127
-72.494	800.000	0.066	0.188
-71.480	-200.000	0.016	0.315
-70.465	800.000	-0.016	0.048
-69.451	-64.165	0.156	-0.063
-68.436	-70.845	0.229	-0.086
-67.422	29.666	-0.201	0.170
-66.407	-73.670	-0.304	0.110
-65.392	800.000	0.036	0.121
-64.378	139.953	0.212	-0.277
-63.363	800.000	-0.017	-0.068
-62.349	-200.000	0.028	-0.173
-61.334	104.598	-0.725	-0.848
-60.319	212.437	0.352	0.551
-59.305	-200.000	0.015	-0.631
-58.290	166.117	0.644	0.904
-57.276	800.000	0.435	1.372
-56.261	-200.000	85.406	496.553
-55.246	493.891	1358.015	3091.745
-54.232	150.353	2570.709	3462.805
-53.217	113.507	2211.748	2664.412
-52.203	48.147	1749.799	1623.516
-51.188	41.391	1558.326	1398.632
-50.173	39.067	1530.612	1357.663
-49.159	55.043	1576.531	1510.821
-48.144	59.283	1596.615	1559.796
-47.130	41.956	1553.948	1398.433
-46.115	38.706	1538.830	1362.227
-45.100	38.532	1535.423	1357.953
-44.086	38.378	1533.870	1355.456
-43.071	38.414	1531.198	1353.294
-42.057	38.303	1529.837	1351.271
-41.042	38.337	1528.301	1350.093
-40.027	38.355	1527.237	1349.221
-39.013	38.254	1525.512	1346.950
-37.998	38.391	1523.833	1346.359
-36.984	38.417	1522.547	1345.348
-35.969	38.510	1520.880	1344.457
-34.954	38.395	1520.155	1342.972
-33.940	38.463	1518.409	1341.846
-32.925	38.526	1517.040	1341.017
-31.911	38.360	1515.936	1338.846
-30.896	38.470	1514.686	1338.447
-29.881	38.478	1513.182	1337.119
-28.867	38.421	1512.025	1335.655
-27.852	38.386	1510.077	1333.641
-26.838	38.466	1508.467	1332.712
-25.823	38.406	1506.991	1330.944
-24.809	38.464	1504.963	1329.497
-23.794	38.410	1503.876	1328.115
-22.779	38.492	1502.792	1327.658
-21.765	38.445	1502.059	1326.641
-20.750	38.450	1500.623	1325.353
-19.736	38.485	1499.476	1324.526
-18.721	38.487	1498.068	1323.245
-17.706	38.455	1497.172	1322.181
-16.692	38.475	1496.213	1321.417
-15.677	38.403	1495.021	1319.831
-14.663	38.323	1494.032	1318.366
-13.648	38.359	1492.935	1317.588
-12.633	38.375	1491.567	1316.430
-11.619	38.274	1491.412	1315.568
-10.604	38.357	1489.926	1314.761
-9.590	38.392	1488.607	1313.782
-8.575	38.416	1488.073	1313.415
-7.560	38.362	1487.432	1312.435
-6.546	38.479	1485.800	1311.732
-5.531	38.211	1485.859	1309.935
-4.517	38.161	1484.961	1308.753
-3.502	38.346	1483.652	1308.790
-2.487	38.347	1482.420	1307.651
-1.473	38.232	1481.620	1306.129
-0.458	38.393	1479.982	1305.705
0.556	37.986	1469.531	1292.939
1.571	34.398	1443.006	1246.084
2.586	30.173	1379.466	1164.640
3.600	28.283	1294.551	1081.703
4.615	26.705	1247.737	1033.498
5.629	22.542	1189.035	962.113
6.644	11.415	1099.303	832.936
7.659	2.965	1053.550	756.721
8.673	1.674	1047.146	745.730
9.688	1.504	1044.238	742.763
10.702	1.214	1043.310	740.623
11.717	1.279	1040.932	739.184
12.731	4.993	1045.577	760.560
13.746	15.234	1060.463	821.769
14.761	22.775	1070.107	866.336
15.775	24.106	1071.093	873.591
16.790	24.231	1070.420	873.576
17.804	24.133	1069.519	872.282
18.819	23.868	1068.907	870.411
19.834	24.022	1068.349	870.634
20.848	24.082	1067.791	870.395
21.863	24.131	1067.815	870.577
22.877	24.134	1066.933	869.796
23.892	24.194	1066.436	869.605
24.907	24.025	1065.537	867.970
25.921	24.097	1064.673	867.540
26.936	23.989	1064.203	866.557
27.950	23.956	1063.232	865.527
28.965	24.133	1061.840	865.180
29.980	23.928	1060.880	863.324
30.994	23.982	1058.912	861.909
32.009	24.283	1057.896	862.462
33.023	24.261	1057.851	862.242
34.038	23.952	1056.436	859.520
35.053	23.932	1056.182	859.143
36.067	24.090	1055.181	859.012
37.082	24.101	1054.338	858.303
38.096	24.134	1053.649	857.824
39.111	24.300	1052.862	857.909
40.126	24.450	1052.023	857.869
41.140	24.307	1050.644	855.983
42.155	23.985	1049.281	853.251
43.169	23.741	1048.280	851.192
44.184	23.702	1046.879	849.793
45.199	23.895	1045.878	849.827
46.213	23.717	1045.088	848.260
47.228	23.739	1044.322	847.671
48.242	23.909	1043.095	847.411
49.257	24.109	1042.303	847.645
50.271	24.042	1041.852	846.882
51.286	24.162	1041.210	846.856
52.301	24.224	1040.272	846.314
53.315	24.213	1039.999	845.964
54.330	24.061	1039.802	845.004
55.344	24.109	1037.801	843.532
56.359	24.183	1037.291	843.397
57.374	24.000	1036.800	842.053
58.388	23.927	1035.560	840.629
59.403	23.859	1034.737	839.563
60.417	23.882	1034.252	839.207
61.432	23.540	1033.977	837.295
62.447	23.775	1032.691	837.286
63.461	23.910	1031.950	837.249
64.476	23.900	1031.483	836.748
65.490	23.869	1030.259	835.532
66.505	23.732	1029.570	834.260
67.520	23.799	1028.498	833.628
68.534	23.830	1028.075	833.360
69.549	23.819	1026.673	832.098
70.563	23.527	1025.610	829.795
71.578	23.325	1025.316	828.541
72.593	23.340	1023.798	827.308
73.607	23.294	1023.186	826.529
74.622	23.291	1022.377	825.789
75.636	23.491	1021.534	825.965
76.651	23.736	1020.786	826.426
77.666	23.534	1020.072	824.839
78.680	23.458	1019.133	823.649
79.695	23.453	1018.829	823.308
80.709	23.619	1018.184	823.487
81.724	23.750	1017.119	823.161
82.739	23.667	1016.727	822.383
83.753	23.770	1015.094	821.467
84.768	23.975	1015.076	822.329
85.782	24.338	1014.253	823.263
86.797	24.410	1013.812	823.166
87.812	24.351	1012.957	822.126
88.826	24.210	1011.840	820.496
89.841	24.171	1011.195	819.722
90.855	24.312	1010.463	819.707
91.870	24.345	1009.477	818.984
92.884	24.274	1009.285	818.432
93.899	24.352	1007.644	817.383
94.914	24.061	1006.840	815.328
95.928	24.185	1006.279	815.371
96.943	24.407	1005.177	815.418
97.957	23.971	1004.111	812.489
98.972	23.707	1002.868	810.208
99.987	23.515	1002.036	808.587
101.001	23.679	1001.137	808.538
102.016	23.957	1000.834	809.490
103.030	24.017	999.903	808.938
104.045	23.934	998.999	807.755
105.060	23.838	997.576	806.102
106.074	23.693	996.451	804.460
107.089	23.544	996.069	803.409
108.103	23.932	995.390	804.546
109.118	24.137	994.200	804.440
110.133	23.861	993.226	802.334
111.147	23.814	992.143	801.174
112.162	23.649	990.947	799.396
113.176	23.441	990.112	797.715
114.191	23.535	989.599	797.653
115.206	23.740	988.187	797.366
116.220	23.446	987.192	795.176
117.235	23.159	986.563	793.313
118.249	23.563	985.572	794.253
119.264	23.568	984.472	793.318
120.279	23.316	983.739	791.529
121.293	23.327	983.183	791.065
122.308	23.382	982.356	790.570
123.322	23.428	982.101	790.501
124.337	23.561	980.295	789.572
125.352	23.294	979.200	787.434
126.366	22.962	977.972	784.901
127.381	22.624	976.264	781.962
128.395	23.153	976.430	784.373
129.410	23.738	976.244	786.746
130.424	24.024	975.485	787.329
131.439	24.000	974.221	786.135
132.454	23.922	973.420	785.072
133.468	24.041	972.341	784.660
134.483	23.868	971.735	783.335
135.497	24.026	970.899	783.289
136.512	24.281	970.132	783.720
137.527	24.273	969.886	783.417
138.541	24.199	968.962	782.278
139.556	24.242	968.145	781.739
140.570	24.267	967.006	780.858
141.585	24.271	966.225	780.177
142.600	24.276	966.145	780.066
143.614	24.224	964.808	778.687
144.629	24.178	964.308	778.016
145.643	24.540	963.426	778.814
146.658	24.433	962.188	777.278
147.673	24.341	960.458	775.414
148.687	24.201	959.770	774.182
149.702	24.034	958.903	772.687
150.716	24.064	957.350	771.500
151.731	23.843	956.909	770.116
152.746	23.955	956.265	770.016
153.760	24.180	955.329	770.167
154.775	24.253	955.171	770.287
155.789	24.473	954.053	770.265
156.804	24.507	952.530	769.115
157.819	24.384	951.295	767.522
158.833	24.358	951.306	767.351
159.848	24.454	950.548	767.083
160.862	24.472	949.926	766.590
161.877	24.393	948.544	765.067
162.892	24.352	947.745	764.182
163.906	24.277	947.273	763.412
164.921	24.410	946.016	762.900
165.935	24.204	945.036	761.162
166.950	24.362	944.125	761.036
167.964	24.347	943.277	760.220
168.979	24.470	941.887	759.557
169.994	24.312	940.833	757.966
171.008	24.194	939.972	756.706
172.023	24.239	939.617	756.542
173.037	24.380	938.663	756.309
174.052	24.323	937.439	755.014
175.067	24.018	936.755	753.106
176.081	24.071	936.066	752.707
177.096	24.092	935.249	752.072
178.110	24.291	934.202	752.005
179.125	24.014	932.846	749.680
180.140	23.740	931.948	747.739
181.154	23.746	931.633	747.443
182.169	23.786	931.214	747.210
183.183	24.034	931.091	748.087
184.198	24.225	930.521	748.363
185.213	24.234	929.873	747.815
186.227	24.214	928.860	746.853
187.242	24.413	928.328	747.191
188.256	24.272	927.513	745.877
189.271	24.322	926.596	745.285
190.286	24.484	926.176	745.558
191.300	24.338	925.180	744.081
192.315	23.761	923.679	740.402
193.329	22.882	922.635	735.841
194.344	22.587	921.010	733.251
195.359	23.245	921.480	736.298
196.373	23.990	921.996	739.746
197.388	24.368	921.342	740.725
198.402	24.224	920.881	739.692
199.417	24.091	920.375	738.669
200.432	24.225	920.022	738.874
201.446	24.158	919.028	737.732
202.461	23.861	918.067	735.667
203.475	23.843	917.890	735.385
204.490	23.438	916.260	732.342
205.504	22.265	914.355	725.916
206.519	22.622	914.332	727.308
207.534	23.614	914.758	731.673
208.548	23.806	913.968	731.767
209.563	24.017	913.731	732.380
210.577	24.334	912.604	732.715
211.592	24.009	911.768	730.648
212.607	24.209	912.310	731.838
213.621	24.459	911.682	732.296
214.636	24.383	910.751	731.172
215.650	24.362	910.383	730.724
216.665	24.278	909.527	729.629
217.680	24.430	909.016	729.776
218.694	24.535	908.439	729.675
219.709	24.049	907.727	727.057
220.723	23.742	907.004	725.158
221.738	23.880	906.423	725.194
222.753	24.060	905.810	725.372
223.767	24.138	905.155	725.102
224.782	24.129	904.530	724.501
225.796	24.324	903.953	724.767
226.811	24.439	903.301	724.645
227.826	24.083	901.943	722.049
228.840	23.391	900.222	717.804
229.855	23.334	899.485	716.924
230.869	23.639	899.315	717.958
231.884	23.202	898.580	715.543
232.899	23.273	897.680	715.049
233.913	24.098	898.034	718.599
234.928	24.224	897.818	718.869
235.942	23.973	897.202	717.300
236.957	24.149	896.669	717.520
237.972	23.861	895.478	715.347
238.986	23.713	894.594	713.982
240.001	23.919	894.211	714.441
241.015	23.777	893.531	713.262
242.030	23.902	892.703	713.040
243.045	24.065	892.555	713.512
244.059	24.360	891.447	713.743
245.074	24.154	891.875	713.198
246.088	24.257	890.788	712.680
247.103	23.941	890.072	710.780
248.117	23.948	889.192	710.042
249.132	24.383	889.213	711.733
250.147	24.883	888.969	713.470
251.161	25.005	888.177	713.257
252.176	25.103	887.738	713.229
253.190	25.221	886.910	712.969
254.205	25.003	887.079	712.175
255.220	25.190	886.765	712.605
256.234	25.210	885.970	711.983
257.249	25.149	885.121	710.993
258.263	25.072	883.969	709.704
259.278	25.054	883.407	709.114
260.293	25.108	883.218	709.114
261.307	25.172	882.860	709.017
262.322	25.001	882.050	707.629
263.336	24.847	881.731	706.704
264.351	24.442	880.113	703.746
265.366	23.400	878.273	698.110
266.380	22.844	877.288	695.077
267.395	23.862	877.355	699.077
268.409	24.489	878.199	702.153
269.424	24.730	876.900	701.999
270.439	24.826	876.578	702.056
271.453	24.913	875.863	701.761
272.468	24.869	875.139	700.948
273.482	24.955	874.854	700.993
274.497	25.153	874.652	701.543
275.512	25.063	873.653	700.329
276.526	24.330	872.341	696.353
277.541	24.596	871.612	696.748
278.555	24.898	871.559	697.820
279.570	24.863	870.758	696.981
280.585	24.612	870.029	695.361
281.599	24.649	869.776	695.239
282.614	24.816	869.094	695.284
283.628	24.379	868.417	692.984
284.643	23.907	867.576	690.417
285.657	24.520	867.192	692.428
286.672	24.258	866.907	691.126
287.687	23.734	865.741	688.107
288.701	24.016	865.726	689.124
289.716	24.545	865.216	690.704
290.730	24.241	864.198	688.656
291.745	24.073	863.700	687.549
292.760	23.974	862.746	686.346
293.774	23.865	862.063	685.322
294.789	24.643	862.950	688.970
295.803	25.434	862.414	691.525
296.818	25.287	862.444	690.923
297.833	25.456	861.643	690.868
298.847	25.290	860.168	688.987
299.862	24.937	859.459	687.004
300.876	24.978	859.449	687.093
301.891	25.385	858.746	688.032
302.906	25.461	858.065	687.714
303.920	25.078	857.013	685.347
304.935	24.954	856.465	684.375
305.949	25.222	856.299	685.205
306.964	25.363	855.984	685.432
307.979	25.174	855.072	683.917
308.993	25.090	854.735	683.267
310.008	25.519	854.093	684.328
311.022	25.506	854.165	684.275
312.037	25.353	853.650	683.221
313.052	25.108	852.754	681.512
314.066	25.049	851.930	680.570
315.081	24.389	850.683	677.009
316.095	23.655	849.331	673.090
317.110	24.039	849.702	674.782
318.125	25.023	849.767	678.501
319.139	24.726	848.385	676.217
320.154	23.582	846.425	670.275
321.168	22.882	846.010	667.244
322.183	23.730	845.906	670.302
323.197	24.607	846.418	673.959
324.212	24.992	845.979	675.003
325.227	25.124	845.790	675.289
326.241	25.269	845.391	675.457
327.256	25.146	844.388	674.133
328.270	24.916	844.298	673.135
329.285	24.820	843.446	672.035
330.300	24.692	842.974	671.120
331.314	24.639	841.505	669.692
332.329	24.637	841.249	669.425
333.343	25.076	840.984	670.798
334.358	25.288	840.648	671.263
335.373	25.123	840.314	670.319
336.387	25.201	839.657	670.026
337.402	25.501	839.428	670.905
338.416	25.502	839.154	670.631
339.431	25.661	838.442	670.594
340.446	25.779	837.588	670.290
341.460	25.806	837.419	670.196
342.475	25.805	836.813	669.651
343.489	25.572	835.826	667.934
344.504	25.595	835.392	667.615
345.519	25.893	835.044	668.383
346.533	25.996	834.871	668.566
347.548	26.182	834.421	668.838
348.562	26.157	833.857	668.233
349.577	25.997	833.494	667.289
350.592	25.944	832.695	666.396
351.606	25.917	832.460	666.048
352.621	25.967	831.737	665.597
353.635	25.790	831.128	664.395
354.650	25.792	830.580	663.907
355.665	25.641	829.396	662.348
356.679	24.448	827.990	656.779
357.694	24.408	827.411	656.112
358.708	25.008	827.422	658.269
359.723	24.839	827.169	657.388
360.738	25.074	826.898	657.978
361.752	25.582	826.789	659.697
362.767	25.718	826.411	659.836
363.781	26.137	826.069	661.039
364.796	26.198	826.221	661.327
365.810	26.333	825.727	661.366
366.825	26.352	825.133	660.902
367.840	26.469	824.958	661.130
368.854	26.364	824.067	659.973
369.869	25.869	823.077	657.318
370.883	25.646	822.457	655.950
371.898	25.829	821.945	656.153
372.913	25.723	821.299	655.192
373.927	25.757	820.785	654.847
374.942	25.852	820.324	654.766
375.956	25.778	820.053	654.226
376.971	26.173	819.108	654.846
377.986	26.260	818.633	654.724
379.000	26.307	818.381	654.635
380.015	26.408	817.793	654.473
381.029	26.240	816.905	653.095
382.044	26.001	816.966	652.224
383.059	26.318	815.982	652.525
384.073	26.248	816.044	652.262
385.088	26.406	815.248	652.140
386.102	26.272	814.486	650.987
387.117	26.286	813.175	649.935
388.132	26.082	813.008	649.007
389.146	25.982	812.177	647.929
390.161	25.411	811.230	645.065
391.175	25.436	811.080	644.979
392.190	25.901	811.419	646.862
393.205	25.984	810.766	646.580
394.219	25.149	808.772	641.947
395.234	23.427	806.798	634.168
396.248	22.719	805.810	630.804
397.263	23.662	806.488	634.650
398.278	25.544	807.815	642.370
399.292	26.195	807.458	644.355
400.307	25.792	806.850	642.374
401.321	25.682	806.762	641.856
402.336	25.828	806.343	641.987
403.350	26.101	805.948	642.585
404.365	26.466	806.155	643.993
405.380	26.781	805.990	644.927
406.394	27.068	805.476	645.477
407.409	27.008	805.904	645.552
408.423	27.058	804.927	644.890
409.438	26.997	804.205	644.038
410.453	27.055	803.555	643.667
411.467	27.070	803.606	643.701
412.482	27.129	802.521	642.986
413.496	26.987	802.187	642.157
414.511	27.065	801.673	641.964
415.526	27.149	801.573	642.123
416.540	27.026	801.271	641.393
417.555	26.955	800.713	640.639
418.569	26.749	799.671	639.020
419.584	26.720	799.230	638.512
420.599	26.742	798.879	638.251
421.613	101.629	1272.437	1414.809
422.628	87.298	1341.435	1414.915
