DTS Sentinel unit serial number:	SN413079Multiplexer serial number:	ORYXHardware model number:	OX4-SRSoftware version number:	ORYX F/W v4.00 Oryx Data Collector v3.7.2.0data status	okinstallation	princeton_trtdifferential loss correction	single-endedforward channel	channel 3reverse channel	N/Adate	2019/09/19time	09:16:35forward acquisition time	60.00reverse acquisition time	0.00gamma	496.2192k internal	0.2346k external	0.2346temperature offset calibration	0.9968default loss term (dB/km)	0.3790temperature slope calibration	1.0000multiplexer offset coefficient	1.0000multiplexer slope coefficient	1.0000fibre end	0.00T internal ref (°C)	22.19T ext. ref 1 (°C)	0.61T ext. ref 2 (°C)	19.35length (m)	temperature (°C)	Stokes	anti-Stokes-747.200	160.124	-0.029	0.041
-746.185	-95.973	-0.295	0.079
-745.171	-40.703	-0.206	0.107
-744.156	130.268	-0.235	0.301
-743.142	-167.101	0.191	0.008
-742.127	251.272	-0.121	0.206
-741.112	800.000	0.118	0.398
-740.098	-112.517	-0.196	0.039
-739.083	-119.667	-0.072	0.012
-738.069	-200.000	0.007	-0.171
-737.054	-69.252	-0.269	-0.103
-736.039	-200.000	-0.001	0.049
-735.025	-200.000	0.030	0.151
-734.010	455.584	0.109	0.241
-732.996	583.103	0.043	0.106
-731.981	-200.000	-0.007	0.117
-730.966	800.000	-0.063	-0.239
-729.952	-109.965	-0.070	0.015
-728.937	-41.501	0.310	-0.160
-727.923	-37.193	0.077	-0.041
-726.908	-200.000	-0.056	-0.300
-725.894	150.580	0.201	-0.273
-724.879	800.000	0.071	0.223
-723.864	136.213	-0.039	-0.051
-722.850	67.227	-0.207	0.211
-721.835	65.559	0.110	0.111
-720.821	29.629	0.233	-0.198
-719.806	223.111	0.079	0.127
-718.791	800.000	-0.055	-0.200
-717.777	123.352	-0.098	0.123
-716.762	-141.533	0.309	-0.031
-715.748	115.927	0.190	-0.232
-714.733	768.067	-0.054	0.146
-713.718	-140.343	0.102	-0.011
-712.704	342.735	0.103	-0.201
-711.689	77.342	-0.183	0.195
-710.675	800.000	-0.097	-0.357
-709.660	113.454	-0.177	0.214
-708.645	126.788	-0.026	-0.033
-707.631	-163.231	0.351	0.017
-706.616	-136.075	-0.142	0.017
-705.602	472.400	0.051	0.114
-704.587	370.695	-0.076	-0.153
-703.572	-44.963	-0.211	0.105
-702.558	-95.769	0.019	0.005
-701.543	465.337	-0.065	-0.144
-700.529	371.528	-0.116	-0.236
-699.514	428.575	0.081	0.176
-698.499	800.000	-0.074	0.295
-697.485	800.000	-0.013	-0.051
-696.470	-35.929	-0.252	-0.136
-695.456	55.909	0.090	0.087
-694.441	-50.022	0.052	0.025
-693.426	-35.815	-0.174	-0.094
-692.412	140.559	-0.193	0.254
-691.397	-49.403	0.072	0.034
-690.383	-75.544	0.255	0.090
-689.368	-50.282	0.222	0.105
-688.354	153.131	0.105	0.143
-687.339	-119.166	-0.128	-0.022
-686.324	-200.000	-0.019	-0.380
-685.310	130.895	0.126	-0.162
-684.295	-88.806	-0.182	-0.054
-683.281	-23.577	-0.179	-0.107
-682.266	686.745	0.100	0.261
-681.251	-72.034	-0.205	-0.076
-680.237	31.039	-0.053	0.045
-679.222	-52.010	-0.250	0.116
-678.208	-24.912	0.082	0.049
-677.193	69.227	-0.157	-0.161
-676.178	-34.488	-0.073	0.040
-675.164	47.791	0.154	0.143
-674.149	-200.000	-0.023	-0.328
-673.135	265.271	0.080	0.138
-672.120	-108.374	-0.393	0.085
-671.105	-120.264	-0.341	-0.058
-670.091	18.293	0.276	0.220
-669.076	800.000	0.039	0.159
-668.062	5.161	-0.173	-0.127
-667.047	-1.374	0.072	-0.051
-666.032	203.843	-0.076	0.117
-665.018	16.732	-0.158	0.125
-664.003	-200.000	-0.023	0.275
-662.989	-200.000	0.011	0.361
-661.974	-163.570	-0.234	0.011
-660.959	37.242	0.108	0.096
-659.945	800.000	0.037	-0.112
-658.930	-72.150	0.228	0.084
-657.916	-200.000	-0.010	0.147
-656.901	4.625	0.091	-0.067
-655.886	-200.000	0.003	0.013
-654.872	800.000	0.088	0.299
-653.857	797.240	0.104	-0.287
-652.843	107.314	0.209	-0.247
-651.828	12.438	0.154	0.119
-650.814	411.867	0.076	-0.161
-649.799	-147.690	-0.295	0.025
-648.784	-79.623	0.242	-0.081
-647.770	64.542	-0.088	0.088
-646.755	800.000	0.093	0.357
-645.741	-50.703	0.115	-0.054
-644.726	-200.000	-0.015	-0.232
-643.711	24.299	-0.171	-0.141
-642.697	3.256	0.263	0.191
-641.682	18.425	-0.026	0.021
-640.668	-72.643	-0.273	-0.100
-639.653	-200.000	0.036	-0.246
-638.638	344.224	0.104	-0.203
-637.624	-199.612	0.196	-0.001
-636.609	-140.418	-0.215	0.022
-635.595	800.000	-0.091	-0.262
-634.580	22.110	0.236	0.192
-633.565	229.348	0.045	0.074
-632.551	612.509	0.100	-0.250
-631.536	-200.000	0.033	-0.182
-630.522	70.914	-0.097	-0.100
-629.507	664.904	0.082	-0.212
-628.492	-37.675	-0.446	0.237
-627.478	-200.000	0.002	-0.178
-626.463	-18.139	0.161	-0.101
-625.449	800.000	-0.083	-0.282
-624.434	-118.506	-0.342	-0.060
-623.419	10.303	-0.070	-0.053
-622.405	300.100	0.133	0.245
-621.390	-200.000	0.016	0.073
-620.376	236.079	-0.122	-0.201
-619.361	81.572	0.099	0.106
-618.346	-95.687	0.196	0.052
-617.332	712.424	-0.049	-0.130
-616.317	300.879	-0.150	0.275
-615.303	-75.103	-0.142	-0.050
-614.288	-36.938	-0.195	-0.104
-613.273	-159.594	0.154	0.008
-612.259	-23.318	0.221	0.132
-611.244	800.000	-0.059	0.250
-610.230	-66.526	-0.158	0.062
-609.215	-109.934	-0.153	0.032
-608.201	-191.767	-0.087	-0.001
-607.186	-11.152	-0.165	-0.108
-606.171	-200.000	0.081	-0.431
-605.157	443.395	-0.071	0.154
-604.142	558.709	0.098	-0.235
-603.128	7.790	0.196	0.146
-602.113	-200.000	-0.079	0.348
-601.098	96.068	0.067	-0.076
-600.084	-101.165	0.109	-0.027
-599.069	-200.000	0.022	0.244
-598.055	36.208	0.175	0.154
-597.040	-200.000	-0.062	0.469
-596.025	224.450	0.255	-0.410
-595.011	-84.147	-0.255	-0.081
-593.996	14.346	-0.166	-0.129
-592.982	-35.656	-0.191	0.103
-591.967	-200.000	0.034	0.154
-590.952	800.000	-0.110	0.323
-589.938	309.922	-0.097	0.180
-588.923	206.997	0.103	0.159
-587.909	-200.000	0.004	-0.114
-586.894	-150.435	-0.177	0.014
-585.879	750.820	-0.139	-0.373
-584.865	154.967	0.110	0.150
-583.850	364.895	0.103	-0.206
-582.836	337.743	0.074	0.142
-581.821	-200.000	0.025	-0.132
-580.806	131.589	-0.140	0.179
-579.792	-102.761	-0.193	0.046
-578.777	-178.478	-0.066	0.002
-577.763	-161.212	0.166	-0.009
-576.748	-115.231	-0.099	-0.019
-575.733	-200.000	0.011	-0.172
-574.719	-2.123	0.118	-0.082
-573.704	92.849	-0.220	-0.246
-572.690	-200.000	-0.040	-0.317
-571.675	-40.179	0.223	0.115
-570.661	-200.000	0.027	-0.260
-569.646	115.702	-0.022	0.027
-568.631	345.735	-0.030	-0.058
-567.617	182.854	-0.164	-0.241
-566.602	-200.000	0.014	-0.226
-565.588	-102.529	0.141	0.033
-564.573	195.218	-0.138	-0.208
-563.558	54.577	0.133	0.128
-562.544	-118.595	-0.117	0.021
-561.529	-5.854	-0.351	-0.238
-560.515	-157.928	0.216	0.013
-559.500	32.690	0.304	0.261
-558.485	-65.169	-0.087	0.035
-557.471	98.049	0.100	-0.114
-556.456	-65.131	-0.204	0.082
-555.442	-19.660	-0.289	0.177
-554.427	-200.000	0.042	0.226
-553.412	-200.000	-0.010	0.065
-552.398	-121.228	-0.034	-0.006
-551.383	559.786	0.091	0.217
-550.369	-168.119	0.189	0.007
-549.354	-50.257	0.272	-0.128
-548.339	800.000	-0.098	0.328
-547.325	-200.000	0.020	-0.092
-546.310	-111.288	-0.133	-0.027
-545.296	247.541	0.171	-0.287
-544.281	-200.000	0.062	-0.356
-543.266	408.281	0.050	0.104
-542.252	-200.000	0.015	-0.417
-541.237	800.000	0.079	-0.269
-540.223	-200.000	-0.016	0.313
-539.208	-114.104	0.092	-0.018
-538.193	-120.432	-0.432	-0.073
-537.179	81.523	-0.147	-0.158
-536.164	432.564	-0.037	0.080
-535.150	-106.830	0.085	-0.019
-534.135	138.378	-0.080	-0.104
-533.121	28.322	0.257	0.215
-532.106	-78.690	-0.275	0.093
-531.091	476.200	0.065	-0.146
-530.077	494.744	-0.078	0.177
-529.062	-65.198	0.398	-0.159
-528.048	356.604	0.089	0.176
-527.033	623.246	-0.049	0.123
-526.018	-200.000	0.054	0.240
-525.004	-200.000	0.017	0.154
-523.989	193.150	0.161	-0.242
-522.975	100.243	0.213	-0.245
-521.960	800.000	0.063	0.246
-520.945	74.180	0.120	-0.125
-519.931	-90.335	-0.434	-0.125
-518.916	-66.790	-0.059	0.023
-517.902	505.046	0.046	-0.105
-516.887	-1.468	0.194	0.136
-515.872	-33.507	-0.204	-0.112
-514.858	-200.000	-0.023	0.125
-513.843	322.028	0.273	-0.516
-512.829	42.904	0.070	0.063
-511.814	-200.000	-0.015	0.119
-510.799	-200.000	0.031	-0.180
-509.785	-200.000	-0.076	0.355
-508.770	-117.090	-0.163	-0.030
-507.756	-65.290	-0.040	-0.016
-506.741	-174.278	-0.242	-0.007
-505.726	-10.832	-0.152	0.100
-504.712	800.000	-0.054	-0.230
-503.697	180.314	0.133	0.193
-502.683	800.000	0.144	0.469
-501.668	314.649	-0.028	0.052
-500.653	-124.799	-0.138	0.021
-499.639	22.650	-0.101	-0.082
-498.624	-200.000	-0.009	-0.125
-497.610	-98.071	-0.136	-0.035
-496.595	187.146	-0.317	0.468
-495.581	-54.198	0.112	-0.051
-494.566	86.578	-0.135	0.147
-493.551	-159.542	0.295	0.016
-492.537	-157.329	0.340	-0.020
-491.522	13.091	-0.140	-0.107
-490.508	-41.975	-0.146	0.074
-489.493	-6.089	-0.135	0.091
-488.478	-19.083	0.321	0.197
-487.464	163.757	0.113	-0.158
-486.449	35.567	0.134	-0.117
-485.435	-101.626	-0.323	0.078
-484.420	-200.000	0.037	-0.217
-483.405	-200.000	0.035	-0.248
-482.391	280.795	0.031	-0.056
-481.376	330.271	0.033	-0.063
-480.362	-200.000	0.016	-0.086
-479.347	-200.000	0.034	-0.215
-478.332	-12.609	-0.351	0.227
-477.318	19.501	-0.158	-0.125
-476.303	136.053	-0.015	-0.019
-475.289	800.000	-0.034	-0.109
-474.274	-200.000	-0.003	-0.162
-473.259	-58.430	0.195	0.084
-472.245	800.000	0.088	-0.297
-471.230	800.000	-0.086	0.267
-470.216	-128.359	-0.441	0.062
-469.201	80.031	0.218	-0.232
-468.186	-200.000	0.006	-0.102
-467.172	136.443	-0.087	0.112
-466.157	60.069	0.126	-0.123
-465.143	-19.096	0.061	0.037
-464.128	178.909	0.123	0.178
-463.113	-59.921	0.259	0.109
-462.099	800.000	0.082	0.264
-461.084	714.968	-0.128	-0.335
-460.070	66.547	-0.089	-0.089
-459.055	800.000	0.081	-0.249
-458.040	-85.362	-0.158	0.049
-457.026	-200.000	-0.015	0.087
-456.011	-23.864	-0.256	-0.152
-454.997	-17.514	-0.282	0.175
-453.982	-37.078	-0.297	0.157
-452.968	172.331	0.132	0.188
-451.953	54.880	0.081	-0.077
-450.938	-52.111	0.142	-0.065
-449.924	103.558	-0.067	0.078
-448.909	-19.762	-0.077	0.047
-447.895	-46.751	0.153	-0.074
-446.880	389.517	0.172	-0.353
-445.865	625.072	-0.086	-0.215
-444.851	78.702	0.121	-0.128
-443.836	295.195	-0.075	-0.136
-442.822	711.260	-0.056	-0.146
-441.807	-93.373	0.263	-0.072
-440.792	-52.495	0.067	0.031
-439.778	-200.000	-0.040	0.527
-438.763	-200.000	-0.036	0.368
-437.749	-70.414	-0.202	-0.076
-436.734	40.715	-0.103	0.091
-435.719	39.112	-0.164	0.145
-434.705	-47.194	0.402	0.194
-433.690	-64.534	-0.110	0.044
-432.676	21.843	0.062	-0.050
-431.661	-125.820	-0.141	-0.021
-430.646	-200.000	0.147	-0.001
-429.632	230.626	-0.127	0.206
-428.617	-100.004	-0.329	0.081
-427.603	783.113	-0.043	0.116
-426.588	33.852	0.202	0.174
-425.573	182.502	0.140	0.204
-424.559	-200.000	-0.112	-0.571
-423.544	-133.898	0.296	0.036
-422.530	20.641	0.122	0.098
-421.515	222.645	-0.029	-0.046
-420.500	174.791	-0.182	0.260
-419.486	44.065	0.048	0.043
-418.471	221.159	0.073	0.115
-417.457	312.533	-0.086	-0.159
-416.442	104.343	0.211	-0.245
-415.428	-54.566	0.292	0.131
-414.413	-172.477	0.061	-0.002
-413.398	-200.000	0.025	-0.226
-412.384	-93.474	-0.273	0.075
-411.369	16.021	0.160	-0.125
-410.355	13.918	-0.033	0.025
-409.340	-71.598	0.664	0.245
-408.325	-74.899	0.221	-0.078
-407.311	-2.555	-0.129	-0.089
-406.296	24.179	-0.265	0.216
-405.282	89.154	-0.230	0.253
-404.267	12.200	-0.263	-0.200
-403.252	580.013	0.104	0.252
-402.238	270.031	-0.177	0.306
-401.223	-65.662	-0.057	0.022
-400.209	292.084	-0.083	-0.149
-399.194	-77.132	0.200	-0.069
-398.179	-26.295	0.188	0.109
-397.165	-154.031	-0.044	-0.003
-396.150	-22.160	0.102	0.061
-395.136	-103.381	0.274	0.064
-394.121	19.609	-0.059	0.047
-393.106	187.975	0.026	0.039
-392.092	800.000	-0.062	-0.250
-391.077	-200.000	0.006	0.140
-390.063	-145.231	0.211	-0.019
-389.048	-200.000	-0.049	-0.367
-388.033	292.306	0.028	-0.050
-387.019	-125.526	-0.212	0.032
-386.004	-59.348	0.130	-0.055
-384.990	238.947	0.205	-0.335
-383.975	271.704	-0.143	-0.249
-382.960	-200.000	0.015	0.153
-381.946	-41.351	0.151	0.077
-380.931	-6.546	-0.148	0.099
-379.917	-129.489	0.341	0.047
-378.902	19.425	0.282	0.223
-377.888	-198.337	0.006	0.000
-376.873	215.374	-0.089	0.140
-375.858	-113.816	-0.053	0.010
-374.844	-57.383	-0.313	-0.136
-373.829	-64.778	0.344	-0.137
-372.815	-200.000	0.028	-0.147
-371.800	163.196	0.089	0.124
-370.785	-200.000	-0.021	-0.216
-369.771	-64.260	-0.214	-0.086
-368.756	800.000	0.130	0.389
-367.742	-140.467	0.374	0.038
-366.727	800.000	0.065	-0.196
-365.712	-53.459	0.150	-0.068
-364.698	-200.000	0.021	-0.344
-363.683	308.313	0.183	0.336
-362.669	800.000	-0.061	0.185
-361.654	800.000	0.019	-0.056
-360.639	800.000	-0.063	0.202
-359.625	-200.000	-0.000	-0.249
-358.610	-9.623	-0.223	0.146
-357.596	-34.496	0.240	0.130
-356.581	231.462	-0.156	-0.252
-355.566	-200.000	0.032	0.189
-354.552	-81.671	-0.360	-0.116
-353.537	-111.338	0.312	-0.063
-352.523	-200.000	0.017	0.165
-351.508	-180.754	-0.187	0.004
-350.493	-200.000	-0.051	0.393
-349.479	800.000	-0.050	-0.159
-348.464	389.910	-0.068	-0.139
-347.450	-115.169	0.162	-0.030
-346.435	132.006	0.109	0.138
-345.420	-50.232	0.149	0.070
-344.406	119.126	0.166	0.202
-343.391	117.777	0.127	0.153
-342.377	-23.065	-0.266	0.158
-341.362	-200.000	-0.009	0.260
-340.348	-105.685	0.196	0.044
-339.333	-200.000	0.008	-0.310
-338.318	-31.631	-0.226	-0.125
-337.304	-94.273	0.375	0.101
-336.289	45.061	-0.070	0.064
-335.275	211.690	-0.167	0.258
-334.260	260.690	-0.074	0.125
-333.245	-107.757	-0.207	-0.045
-332.231	-28.058	0.223	0.127
-331.216	10.068	0.095	-0.071
-330.202	202.243	0.048	-0.072
-329.187	-59.782	-0.264	0.111
-328.172	-200.000	-0.027	-0.219
-327.158	-62.363	0.303	0.124
-326.143	-200.000	0.021	-0.158
-325.129	-200.000	-0.010	-0.111
-324.114	-131.768	-0.012	-0.002
-323.099	-112.081	-0.080	0.016
-322.085	-151.237	-0.158	0.012
-321.070	-27.751	-0.348	-0.199
-320.056	-90.895	-0.116	0.033
-319.041	-9.735	-0.299	0.196
-318.026	-106.654	0.198	0.043
-317.012	-14.078	0.087	-0.055
-315.997	60.354	-0.123	0.119
-314.983	169.154	0.053	0.075
-313.968	-200.000	-0.004	0.120
-312.953	-72.624	-0.193	0.070
-311.939	-125.599	0.259	-0.039
-310.924	497.737	-0.053	-0.119
-309.910	-84.228	-0.050	-0.016
-308.895	607.714	0.144	-0.353
-307.880	-71.548	0.107	-0.039
-306.866	29.244	-0.339	0.283
-305.851	800.000	-0.082	0.288
-304.837	800.000	0.109	0.324
-303.822	-161.112	0.116	0.006
-302.807	-116.596	0.242	0.044
-301.793	313.471	0.121	0.224
-300.778	-17.393	-0.320	0.198
-299.764	-200.000	0.024	-0.111
-298.749	43.929	-0.110	0.099
-297.735	527.152	0.077	0.179
-296.720	-27.048	0.148	-0.085
-295.705	-100.024	-0.176	-0.043
-294.691	-36.421	-0.339	-0.180
-293.676	-100.886	0.213	0.052
-292.662	626.288	-0.117	-0.289
-291.647	222.899	0.174	-0.275
-290.632	-51.962	0.135	0.062
-289.618	68.626	-0.271	-0.273
-288.603	-200.000	0.002	0.355
-287.589	800.000	0.104	0.313
-286.574	800.000	-0.068	0.215
-285.559	373.043	0.197	0.394
-284.545	0.755	0.289	0.203
-283.530	-25.000	-0.241	0.140
-282.516	-189.888	0.364	0.004
-281.501	-118.357	-0.233	0.041
-280.486	28.720	0.115	0.095
-279.472	33.242	0.159	0.135
-278.457	133.669	-0.066	0.083
-277.443	-200.000	-0.067	-0.320
-276.428	19.238	0.122	-0.096
-275.413	-200.000	-0.003	0.199
-274.399	21.454	0.074	0.059
-273.384	800.000	-0.080	-0.328
-272.370	-200.000	-0.034	-0.476
-271.355	-44.955	0.175	-0.086
-270.340	42.537	-0.116	0.104
-269.326	-93.903	-0.222	0.060
-268.311	103.121	-0.110	0.127
-267.297	-65.784	-0.198	-0.078
-266.282	-200.000	-0.007	-0.234
-265.267	-24.702	0.162	0.095
-264.253	457.130	-0.106	0.232
-263.238	-200.000	-0.001	0.047
-262.224	-52.133	0.075	0.034
-261.209	-200.000	0.040	0.412
-260.195	-116.746	-0.206	-0.037
-259.180	-200.000	0.064	0.320
-258.165	-22.112	0.075	-0.045
-257.151	-200.000	0.079	-0.345
-256.136	-200.000	0.097	-0.458
-255.122	-78.721	-0.475	0.159
-254.107	-107.586	0.241	-0.052
-253.092	-200.000	0.020	0.102
-252.078	-104.364	0.172	-0.039
-251.063	-31.084	-0.213	-0.118
-250.049	-76.874	-0.141	-0.049
-249.034	46.829	0.196	-0.179
-248.019	800.000	-0.027	0.076
-247.005	-200.000	-0.043	0.402
-245.990	56.264	0.334	0.318
-244.976	329.559	-0.103	-0.195
-243.961	800.000	-0.038	-0.131
-242.946	-83.919	0.144	0.045
-241.932	-101.513	0.269	-0.064
-240.917	560.314	0.128	-0.303
-239.903	-56.925	-0.129	0.056
-238.888	-10.304	-0.248	-0.162
-237.873	151.397	-0.186	0.248
-236.859	59.190	-0.252	0.243
-235.844	-57.925	0.112	-0.048
-234.830	-75.975	-0.257	-0.089
-233.815	-90.723	-0.075	0.021
-232.800	-200.000	0.043	0.201
-231.786	186.636	-0.110	-0.160
-230.771	-200.000	0.024	-0.511
-229.757	-140.902	0.199	-0.020
-228.742	11.702	-0.163	-0.122
-227.727	-134.367	-0.253	0.030
-226.713	-200.000	0.025	0.149
-225.698	-100.503	0.150	0.036
-224.684	242.244	-0.171	-0.280
-223.669	-200.000	-0.012	0.131
-222.655	485.720	-0.153	-0.342
-221.640	33.405	-0.138	-0.118
-220.625	-200.000	0.008	-0.110
-219.611	800.000	0.078	-0.243
-218.596	-142.400	-0.110	0.011
-217.582	-200.000	-0.061	-0.296
-216.567	396.188	0.146	-0.299
-215.552	-74.257	0.153	0.054
-214.538	84.985	-0.101	-0.109
-213.523	6.827	0.085	0.062
-212.509	-115.256	0.144	0.027
-211.494	-9.833	-0.153	0.100
-210.479	-132.729	0.155	-0.019
-209.465	-64.320	-0.280	-0.112
-208.450	201.975	0.197	-0.297
-207.436	-62.663	0.131	-0.053
-206.421	-144.066	-0.136	0.013
-205.406	126.086	0.349	0.432
-204.392	800.000	-0.081	0.266
-203.377	-13.338	-0.244	0.155
-202.363	78.524	-0.060	0.063
-201.348	-33.827	-0.013	0.007
-200.333	-52.003	0.076	-0.035
-199.319	-200.000	0.012	-0.109
-198.304	73.601	0.123	-0.127
-197.290	-122.252	0.174	-0.028
-196.275	-132.562	-0.192	0.024
-195.260	-124.764	-0.089	0.014
-194.246	482.201	0.157	-0.349
-193.231	-173.762	0.427	-0.012
-192.217	-91.279	-0.234	-0.065
-191.202	52.773	0.185	-0.174
-190.187	-17.428	-0.100	-0.062
-189.173	6.056	-0.006	0.004
-188.158	-86.588	-0.336	0.101
-187.144	800.000	0.079	-0.285
-186.129	-145.957	0.257	0.022
-185.114	-200.000	0.053	0.251
-184.100	800.000	-0.050	0.175
-183.085	1.200	0.066	0.047
-182.071	-159.429	-0.177	0.010
-181.056	-140.211	-0.359	-0.037
-180.042	295.247	-0.185	0.332
-179.027	800.000	0.019	0.057
-178.012	-165.456	0.378	-0.016
-176.998	-55.499	-0.372	0.163
-175.983	-142.643	0.404	0.039
-174.969	81.174	-0.180	-0.190
-173.954	-200.000	-0.045	-0.236
-172.939	-170.589	0.187	-0.006
-171.925	-53.283	0.400	0.179
-170.910	532.544	-0.090	-0.209
-169.896	65.642	0.153	-0.151
-168.881	-25.378	-0.071	0.041
-167.866	-134.657	-0.108	0.013
-166.852	-200.000	-0.019	0.184
-165.837	-11.811	0.258	-0.166
-164.823	-102.095	0.249	0.059
-163.808	-147.562	-0.396	-0.033
-162.793	-59.215	-0.265	0.112
-161.779	-200.000	-0.002	-0.191
-160.764	124.360	0.079	-0.098
-159.750	126.661	0.059	0.073
-158.735	-200.000	-0.001	-0.046
-157.720	800.000	0.049	0.138
-156.706	-200.000	0.053	-0.399
-155.691	-133.676	0.350	-0.043
-154.677	94.081	0.070	0.077
-153.662	800.000	-0.126	0.527
-152.647	800.000	-0.030	0.128
-151.633	-90.402	-0.222	-0.063
-150.618	-200.000	0.017	0.181
-149.604	-83.502	0.203	-0.064
-148.589	-13.684	0.131	0.083
-147.574	114.352	-0.222	0.264
-146.560	-75.221	0.318	-0.111
-145.545	-39.301	0.023	-0.012
-144.531	800.000	-0.055	-0.160
-143.516	652.605	0.077	0.194
-142.502	69.093	0.252	0.253
-141.487	-166.902	0.164	0.007
-140.472	800.000	-0.121	0.411
-139.458	800.000	0.033	0.119
-138.443	-89.877	-0.299	-0.085
-137.429	387.004	0.103	-0.209
-136.414	-123.836	0.253	-0.039
-135.399	-200.000	-0.004	-0.098
-134.385	-200.000	-0.033	0.323
-133.370	-166.804	-0.322	0.013
-132.356	38.461	0.179	-0.156
-131.341	800.000	0.022	0.067
-130.326	-87.177	-0.107	-0.032
-129.312	800.000	0.027	0.094
-128.297	-168.078	0.136	-0.005
-127.283	-200.000	-0.028	-0.161
-126.268	-200.000	0.012	-0.112
-125.253	-200.000	0.001	0.192
-124.239	-200.000	-0.007	0.155
-123.224	-145.860	0.199	0.017
-122.210	-61.359	0.250	0.103
-121.195	-29.420	-0.348	0.194
-120.180	40.560	0.083	-0.073
-119.166	167.159	-0.088	-0.122
-118.151	-200.000	-0.023	-0.100
-117.137	800.000	-0.138	0.462
-116.122	-76.566	0.291	0.100
-115.107	-121.978	0.276	-0.044
-114.093	-102.691	-0.177	-0.041
-113.078	6.233	0.133	-0.096
-112.064	-200.000	0.048	0.448
-111.049	433.094	-0.211	-0.448
-110.034	146.113	0.266	0.348
-109.020	-200.000	-0.021	0.358
-108.005	-97.951	0.328	0.082
-106.991	-109.050	-0.152	0.032
-105.976	-147.860	-0.217	-0.018
-104.962	-162.991	0.164	0.008
-103.947	497.177	-0.083	0.185
-102.932	800.000	-0.096	-0.341
-101.918	73.105	-0.187	0.191
-100.903	-200.000	-0.055	-0.282
-99.889	800.000	-0.051	-0.196
-98.874	-14.347	-0.170	-0.107
-97.859	-29.118	0.168	-0.094
-96.845	535.442	0.156	0.361
-95.830	2.940	0.233	0.165
-94.816	-200.000	0.094	0.544
-93.801	-67.299	0.401	0.154
-92.786	-101.007	0.146	0.035
-91.772	-60.124	-0.088	0.036
-90.757	141.855	0.218	0.282
-89.743	130.774	0.036	0.045
-88.728	245.644	-0.171	0.280
-87.713	9.906	0.150	-0.111
-86.699	-48.602	0.326	0.153
-85.684	143.755	0.122	-0.158
-84.670	2.069	-0.247	-0.174
-83.655	-31.914	0.081	-0.044
-82.640	-116.715	-0.372	0.067
-81.626	-98.542	-0.140	0.035
-80.611	250.163	0.099	-0.163
-79.597	119.542	0.389	0.469
-78.582	800.000	0.039	0.106
-77.567	-200.000	-0.003	0.119
-76.553	-200.000	0.026	-0.270
-75.538	-75.707	0.049	0.017
-74.524	-200.000	-0.028	-0.169
-73.509	-102.694	-0.144	0.033
-72.494	270.515	-0.069	0.118
-71.480	-200.000	0.029	0.172
-70.465	-17.038	0.048	-0.029
-69.451	-142.368	-0.371	0.036
-68.436	171.266	0.114	-0.159
-67.422	800.000	-0.069	-0.234
-66.407	68.871	0.144	-0.144
-65.392	-124.800	-0.401	0.060
-64.378	-179.137	-0.114	-0.002
-63.363	-40.757	0.205	0.103
-62.349	16.972	0.167	-0.129
-61.334	38.111	-1.447	-1.253
-60.319	-18.719	1.134	0.688
-59.305	541.344	-0.534	-1.239
-58.290	507.594	0.659	1.489
-57.276	-200.000	0.328	1.599
-56.261	-200.000	126.377	625.427
-55.246	368.439	1613.000	3174.711
-54.232	135.877	2787.291	3533.902
-53.217	90.758	2213.290	2414.174
-52.203	32.719	1721.640	1449.726
-51.188	25.289	1537.773	1243.588
-50.173	23.323	1514.159	1211.021
-49.159	46.780	1586.694	1434.665
-48.144	43.998	1598.707	1425.941
-47.130	25.319	1547.502	1251.470
-46.115	22.522	1531.116	1218.846
-45.100	22.196	1528.051	1214.110
-44.086	22.330	1525.446	1212.917
-43.071	22.117	1524.162	1210.379
-42.057	22.122	1522.552	1209.088
-41.042	22.248	1520.548	1208.315
-40.027	22.133	1518.841	1206.122
-39.013	22.208	1517.423	1205.457
-37.998	22.165	1516.891	1204.693
-36.984	22.185	1515.256	1203.487
-35.969	22.120	1513.929	1201.936
-34.954	22.117	1512.557	1200.781
-33.940	22.131	1511.379	1199.890
-32.925	22.155	1509.993	1198.909
-31.911	22.205	1508.402	1197.942
-30.896	22.182	1506.980	1196.608
-29.881	22.232	1505.587	1195.790
-28.867	22.196	1504.816	1194.885
-27.852	22.167	1503.451	1193.559
-26.838	22.209	1501.682	1192.390
-25.823	22.231	1500.220	1191.331
-24.809	22.245	1498.461	1189.984
-23.794	22.296	1496.830	1188.984
-22.779	22.338	1495.810	1188.409
-21.765	22.272	1494.662	1187.008
-20.750	22.239	1493.918	1186.148
-19.736	22.197	1492.878	1184.993
-18.721	22.121	1492.003	1183.741
-17.706	22.173	1490.498	1182.845
-16.692	22.157	1489.599	1181.978
-15.677	22.230	1488.366	1181.442
-14.663	22.117	1488.103	1180.430
-13.648	22.167	1486.725	1179.628
-12.633	22.239	1485.422	1179.027
-11.619	22.239	1485.004	1178.650
-10.604	22.134	1484.327	1177.358
-9.590	22.161	1483.334	1176.709
-8.575	22.097	1482.891	1175.879
-7.560	22.210	1481.464	1175.460
-6.546	22.202	1480.715	1174.764
-5.531	22.255	1479.569	1174.164
-4.517	22.219	1478.660	1173.151
-3.502	22.145	1477.482	1171.678
-2.487	22.129	1476.874	1171.043
-1.473	22.152	1475.829	1170.325
-0.458	22.238	1473.771	1169.212
0.556	21.050	1464.772	1159.659
1.571	18.538	1441.567	1124.732
2.586	15.762	1380.443	1059.488
3.600	14.786	1296.035	988.843
4.615	13.464	1252.391	947.893
5.629	11.542	1194.698	893.637
6.644	5.912	1111.857	802.866
7.659	1.278	1076.299	754.135
8.673	0.669	1070.833	747.225
9.688	0.554	1067.565	744.313
10.702	0.593	1065.997	743.344
11.717	0.615	1063.183	741.425
12.731	2.307	1064.588	750.651
13.746	8.412	1072.475	786.267
14.761	14.300	1080.414	821.130
15.775	16.863	1083.285	835.895
16.790	16.737	1082.041	834.239
17.804	15.682	1080.254	827.599
18.819	14.946	1078.385	822.475
19.834	14.563	1076.811	819.320
20.848	14.262	1076.135	817.258
21.863	14.037	1075.191	815.364
22.877	13.838	1073.994	813.406
23.892	13.560	1073.535	811.629
24.907	13.620	1071.802	810.538
25.921	13.537	1071.818	810.074
26.936	13.604	1071.127	809.804
27.950	13.623	1070.326	809.220
28.965	13.594	1069.850	808.647
29.980	13.623	1068.895	807.997
30.994	13.771	1067.558	807.633
32.009	13.701	1067.164	806.927
33.023	13.809	1066.263	806.697
34.038	13.621	1066.003	805.516
35.053	13.808	1064.666	805.341
36.067	13.670	1063.896	804.016
37.082	13.693	1062.921	803.322
38.096	13.676	1062.382	802.760
39.111	13.656	1061.162	801.672
40.126	13.665	1060.489	801.135
41.140	13.600	1059.316	799.867
42.155	13.501	1058.493	798.697
43.169	13.571	1057.416	798.150
44.184	13.490	1056.407	796.927
45.199	13.504	1055.593	796.312
46.213	13.380	1054.546	794.852
47.228	13.449	1053.540	794.355
48.242	13.592	1052.263	794.007
49.257	13.592	1051.089	793.053
50.271	13.636	1050.045	792.407
51.286	13.571	1049.170	791.365
52.301	13.512	1048.628	790.603
53.315	13.501	1047.773	789.835
54.330	13.699	1046.973	790.109
55.344	13.642	1046.096	789.106
56.359	13.593	1044.959	787.944
57.374	13.500	1043.771	786.535
58.388	13.572	1042.930	786.176
59.403	13.563	1042.217	785.527
60.417	13.468	1041.603	784.545
61.432	13.397	1041.003	783.687
62.447	13.512	1039.863	783.303
63.461	13.485	1039.464	782.805
64.476	13.508	1038.318	781.979
65.490	13.444	1037.315	780.852
66.505	13.385	1036.694	780.039
67.520	13.496	1036.203	780.125
68.534	13.457	1034.906	778.897
69.549	13.466	1034.761	778.760
70.563	13.511	1033.497	777.953
71.578	13.479	1032.927	777.302
72.593	13.555	1032.066	776.943
73.607	13.499	1030.751	775.621
74.622	13.349	1030.445	774.620
75.636	13.423	1029.178	773.943
76.651	13.305	1028.524	772.831
77.666	13.456	1027.604	772.779
78.680	13.436	1026.702	771.937
79.695	13.384	1026.651	771.588
80.709	13.376	1026.149	771.109
81.724	13.485	1025.051	770.722
82.739	13.479	1024.372	770.114
83.753	13.597	1023.022	769.581
84.768	13.697	1022.150	769.322
85.782	13.762	1021.467	769.037
86.797	13.632	1020.993	768.013
87.812	13.709	1019.980	767.538
88.826	13.634	1018.971	766.363
89.841	13.613	1018.466	765.817
90.855	13.701	1017.581	765.490
91.870	13.698	1016.827	764.843
92.884	13.844	1015.675	764.582
93.899	13.790	1015.182	763.895
94.914	13.657	1014.415	762.637
95.928	13.645	1013.863	762.099
96.943	13.733	1013.165	761.913
97.957	13.611	1012.401	760.712
98.972	13.760	1011.292	760.494
99.987	13.712	1010.785	759.825
101.001	13.619	1009.961	758.711
102.016	13.747	1009.078	758.567
103.030	13.772	1007.983	757.792
104.045	13.666	1006.981	756.489
105.060	13.724	1006.097	756.023
106.074	13.628	1005.391	754.984
107.089	13.612	1004.353	754.065
108.103	13.525	1003.758	753.155
109.118	13.478	1002.536	751.962
110.133	13.627	1001.748	751.977
111.147	13.565	1000.611	750.778
112.162	13.547	1000.166	750.297
113.176	13.650	998.993	749.815
114.191	13.539	998.369	748.777
115.206	13.654	997.352	748.472
116.220	13.841	996.289	748.451
117.235	13.689	995.404	747.031
118.249	13.700	994.741	746.517
119.264	13.710	994.081	746.004
120.279	13.632	993.439	745.102
121.293	13.682	992.461	744.530
122.308	13.566	991.685	743.361
123.322	13.603	990.920	742.886
124.337	13.593	989.339	741.590
125.352	13.691	988.609	741.416
126.366	13.566	987.457	739.931
127.381	13.568	986.801	739.383
128.395	13.618	985.517	738.575
129.410	13.475	984.726	737.281
130.424	13.643	983.381	736.959
131.439	13.608	982.915	736.385
132.454	13.636	981.906	735.689
133.468	13.701	980.966	735.207
134.483	13.526	980.501	734.017
135.497	13.730	979.581	734.169
136.512	13.556	978.879	732.806
137.527	13.679	977.876	732.534
138.541	13.736	976.910	732.001
139.556	13.687	976.358	731.303
140.570	13.589	976.227	730.711
141.585	13.734	975.108	730.448
142.600	13.738	974.253	729.759
143.614	13.760	973.260	729.047
144.629	13.798	972.934	728.903
145.643	13.791	972.161	728.231
146.658	13.891	971.272	727.937
147.673	13.736	970.399	726.541
148.687	13.767	969.566	725.990
149.702	13.777	968.639	725.273
150.716	13.760	968.310	724.891
151.731	13.758	967.206	723.989
152.746	13.827	966.443	723.658
153.760	13.902	965.582	723.273
154.775	13.916	964.627	722.557
155.789	13.776	964.276	721.619
156.804	13.989	963.048	721.560
157.819	13.918	962.496	720.778
158.833	13.980	961.795	720.458
159.848	14.118	961.050	720.433
160.862	13.903	960.531	719.050
161.877	13.977	959.897	718.832
162.892	14.124	958.860	718.625
163.906	13.837	958.017	716.693
164.921	13.904	956.905	716.087
165.935	13.966	956.105	715.691
166.950	13.936	955.144	714.777
167.964	13.984	954.185	714.206
168.979	14.017	953.078	713.455
169.994	14.079	952.075	712.906
171.008	13.926	951.625	711.848
172.023	13.993	950.746	711.417
173.037	13.979	950.033	710.759
174.052	14.049	949.298	710.447
175.067	13.959	948.839	709.657
176.081	13.982	947.979	709.049
177.096	14.083	947.076	708.739
178.110	13.956	945.984	707.320
179.125	14.035	945.313	707.091
180.140	14.056	944.163	706.259
181.154	14.066	943.995	706.114
182.169	14.135	943.131	705.695
183.183	14.150	942.308	705.082
184.198	14.181	941.771	704.749
185.213	14.116	941.174	703.964
186.227	14.229	940.319	703.740
187.242	14.309	940.151	703.893
188.256	14.239	939.643	703.151
189.271	14.234	938.779	702.422
190.286	14.379	937.880	702.299
191.300	14.223	937.032	700.946
192.315	14.111	936.120	699.727
193.329	14.046	935.983	699.293
194.344	14.141	934.754	698.710
195.359	14.354	934.071	699.034
196.373	14.277	933.952	698.557
197.388	14.416	932.825	698.234
198.402	14.337	932.849	697.861
199.417	14.333	932.284	697.360
200.432	14.370	931.835	697.116
201.446	14.416	930.929	696.570
202.461	14.253	931.164	696.001
203.475	14.514	930.471	696.513
204.490	14.500	929.542	695.698
205.504	14.632	928.696	695.552
206.519	14.388	927.947	693.915
207.534	14.503	927.196	693.770
208.548	14.401	926.445	692.722
209.563	14.419	926.228	692.572
210.577	14.574	924.785	692.075
211.592	14.471	924.786	691.590
212.607	14.575	923.879	691.279
213.621	14.623	923.268	690.962
214.636	14.523	922.581	689.971
215.650	14.623	921.667	689.643
216.665	14.623	921.024	689.099
217.680	14.634	921.058	689.109
218.694	14.697	920.315	688.751
219.709	14.725	919.926	688.516
220.723	14.682	918.957	687.554
221.738	14.742	918.181	687.158
222.753	14.666	917.650	686.388
223.767	14.804	916.707	686.186
224.782	14.900	915.590	685.684
225.796	14.862	915.103	685.104
226.811	14.793	914.527	684.328
227.826	14.949	913.689	684.281
228.840	14.923	913.244	683.778
229.855	14.869	912.583	683.002
230.869	14.911	911.984	682.666
231.884	14.847	911.310	681.841
232.899	14.924	910.597	681.560
233.913	14.877	909.728	680.658
234.928	14.723	909.721	679.966
235.942	14.776	908.801	679.434
236.957	14.793	907.807	678.698
237.972	14.834	907.153	678.315
238.986	14.948	906.425	678.176
240.001	14.902	905.918	677.549
241.015	14.882	904.989	676.713
242.030	14.964	904.591	676.686
243.045	14.892	903.598	675.593
244.059	14.947	903.469	675.659
245.074	14.955	902.743	675.090
246.088	14.973	902.194	674.690
247.103	15.043	901.740	674.575
248.117	15.155	900.788	674.255
249.132	15.126	900.246	673.669
250.147	15.133	899.570	673.132
251.161	15.190	898.820	672.742
252.176	15.368	897.949	672.743
253.190	15.231	897.480	671.783
254.205	15.332	896.706	671.548
255.220	15.222	896.735	671.073
256.234	15.293	895.517	670.384
257.249	15.309	895.030	670.026
258.263	15.375	894.367	669.732
259.278	15.439	894.106	669.733
260.293	15.297	893.808	668.884
261.307	15.396	892.550	668.277
262.322	15.388	892.323	668.016
263.336	15.324	892.310	667.693
264.351	15.605	891.170	667.897
265.366	15.530	890.377	666.948
266.380	15.658	889.354	666.631
267.395	15.602	888.947	666.044
268.409	15.512	888.468	665.268
269.424	15.510	887.572	664.532
270.439	15.674	886.900	664.620
271.453	15.449	886.062	663.043
272.468	15.497	885.893	663.047
273.482	15.572	885.115	662.701
274.497	15.535	884.363	661.934
275.512	15.715	883.502	661.940
276.526	15.591	882.759	660.837
277.541	15.689	882.095	660.666
278.555	15.695	881.298	660.036
279.570	15.747	880.841	659.837
280.585	15.853	880.240	659.747
281.599	15.708	880.055	658.979
282.614	15.622	879.846	658.429
283.628	15.818	878.501	658.130
284.643	15.857	877.812	657.707
285.657	15.850	877.497	657.386
286.672	15.779	877.125	656.774
287.687	15.831	876.615	656.536
288.701	15.759	875.911	655.671
289.716	15.749	875.726	655.435
290.730	15.899	874.787	655.257
291.745	15.879	873.867	654.432
292.760	15.988	873.151	654.260
293.774	15.926	872.916	653.786
294.789	16.034	871.998	653.460
295.803	16.097	871.396	653.195
296.818	16.001	871.177	652.602
297.833	15.769	870.578	651.195
298.847	16.112	869.346	651.542
299.862	15.842	869.283	650.394
300.876	16.141	868.368	650.807
301.891	16.104	867.595	650.027
302.906	16.034	866.992	649.247
303.920	16.012	866.411	648.672
304.935	16.228	865.525	648.781
305.949	16.144	864.822	647.874
306.964	16.310	864.230	648.009
307.979	16.227	863.779	647.295
308.993	16.073	863.706	646.595
310.008	16.178	862.881	646.320
311.022	16.195	862.199	645.820
312.037	16.302	861.878	645.929
313.052	16.188	861.592	645.224
314.066	16.190	860.834	644.607
315.081	16.210	859.941	643.956
316.095	16.195	859.278	643.344
317.110	16.311	858.395	643.069
318.125	16.400	857.945	643.015
319.139	16.322	857.729	642.500
320.154	16.207	857.019	641.472
321.168	16.209	856.576	641.091
322.183	16.228	856.094	640.748
323.197	16.335	855.392	640.570
324.212	16.218	855.034	639.802
325.227	16.504	854.233	640.231
326.241	16.453	853.731	639.602
327.256	16.479	853.133	639.196
328.270	16.387	852.847	638.578
329.285	16.394	851.964	637.888
330.300	16.353	851.782	637.541
331.314	16.365	851.029	636.964
332.329	16.460	850.325	636.741
333.343	16.505	849.725	636.403
334.358	16.557	848.899	635.924
335.373	16.477	848.828	635.515
336.387	16.505	848.380	635.228
337.402	16.614	847.308	634.778
338.416	16.574	847.055	634.382
339.431	16.655	846.334	634.090
340.446	16.579	845.843	633.382
341.460	16.735	845.266	633.477
342.475	16.680	844.844	632.898
343.489	16.759	844.118	632.592
344.504	16.697	843.633	631.942
345.519	16.825	842.803	631.744
346.533	16.717	842.642	631.162
347.548	16.735	842.222	630.860
348.562	16.718	841.667	630.324
349.577	16.774	840.794	629.824
350.592	16.648	840.618	629.169
351.606	16.727	839.853	628.834
352.621	16.726	839.425	628.453
353.635	16.781	839.068	628.335
354.650	16.792	838.879	628.178
355.665	16.994	837.903	628.138
356.679	16.981	837.531	627.757
357.694	16.799	836.929	626.576
358.708	16.934	836.551	626.739
359.723	17.018	835.746	626.389
360.738	17.021	835.324	626.027
361.752	16.897	834.946	625.231
362.767	16.914	834.584	624.970
363.781	16.916	834.360	624.754
364.796	16.997	834.149	624.839
365.810	17.074	833.228	624.376
366.825	17.048	832.852	623.943
367.840	17.062	832.761	623.873
368.854	17.074	832.261	623.485
369.869	17.059	831.747	622.989
370.883	16.982	831.374	622.375
371.898	17.121	830.682	622.311
372.913	17.176	829.720	621.735
373.927	17.241	829.035	621.405
374.942	17.079	828.746	620.540
375.956	17.289	827.974	620.676
376.971	17.208	827.509	619.977
377.986	17.355	826.692	619.844
379.000	17.317	826.301	619.359
380.015	17.429	825.711	619.268
381.029	17.409	825.214	618.768
382.044	17.401	824.702	618.299
383.059	17.321	824.247	617.613
384.073	17.498	823.528	617.663
385.088	17.361	823.149	616.826
386.102	17.321	822.751	616.330
387.117	17.349	822.000	615.813
388.132	17.215	821.935	615.226
389.146	17.329	821.228	615.054
390.161	17.329	820.875	614.737
391.175	17.363	820.633	614.623
392.190	17.421	819.963	614.277
393.205	17.489	819.302	613.971
394.219	17.447	818.897	613.462
395.234	17.564	818.660	613.652
396.248	17.372	818.157	612.531
397.263	17.343	817.886	612.169
398.278	17.384	817.490	611.964
399.292	17.444	816.752	611.573
400.307	17.465	816.106	611.112
401.321	17.480	816.115	611.119
402.336	17.534	815.545	610.831
403.350	17.729	815.264	611.267
404.365	17.550	814.770	610.201
405.380	17.729	814.290	610.426
406.394	17.698	813.606	609.750
407.409	17.592	813.306	609.093
408.423	17.583	813.063	608.825
409.438	17.731	812.271	608.704
410.453	17.997	811.788	609.239
411.467	17.698	811.696	608.047
412.482	17.660	811.298	607.561
413.496	17.826	810.632	607.601
414.511	17.807	810.131	607.104
415.526	17.888	809.770	607.066
416.540	17.972	809.479	607.095
417.555	17.913	808.672	606.227
418.569	17.774	808.309	605.408
419.584	18.006	807.772	605.775
420.599	17.965	807.302	605.221
421.613	114.184	1298.902	1486.999
422.628	98.658	1370.477	1487.083
