DTS Sentinel unit serial number:	SN413079Multiplexer serial number:	ORYXHardware model number:	OX4-SRSoftware version number:	ORYX F/W v4.00 Oryx Data Collector v3.7.2.0data status	okinstallation	princeton_trtdifferential loss correction	single-endedforward channel	channel 3reverse channel	N/Adate	2019/09/13time	07:04:35forward acquisition time	60.00reverse acquisition time	0.00gamma	496.2192k internal	0.2339k external	0.2339temperature offset calibration	1.0142default loss term (dB/km)	0.3790temperature slope calibration	1.0000multiplexer offset coefficient	1.0000multiplexer slope coefficient	1.0000fibre end	0.00T internal ref (°C)	26.00T ext. ref 1 (°C)	4.14T ext. ref 2 (°C)	21.18length (m)	temperature (°C)	Stokes	anti-Stokes-747.200	471.333	-0.161	0.364
-746.185	-200.000	0.071	0.443
-745.171	-39.754	0.077	-0.040
-744.156	476.535	0.069	0.156
-743.142	-200.000	0.021	-0.341
-742.127	32.842	-0.186	0.161
-741.112	494.259	-0.149	-0.342
-740.098	140.580	-0.153	-0.203
-739.083	-200.000	-0.032	0.230
-738.069	-200.000	-0.009	-0.246
-737.054	-200.000	0.019	-0.232
-736.039	-116.651	-0.303	0.056
-735.025	-114.585	0.115	-0.022
-734.010	-200.000	-0.034	0.206
-732.996	-200.000	-0.004	0.085
-731.981	346.463	-0.024	0.047
-730.966	-113.902	0.179	0.035
-729.952	-120.903	-0.211	0.036
-728.937	-200.000	-0.011	0.267
-727.923	79.393	0.248	-0.266
-726.908	18.220	-0.151	-0.121
-725.894	-200.000	0.058	-0.330
-724.879	-200.000	0.061	-0.469
-723.864	-47.469	-0.231	0.113
-722.850	302.265	0.135	-0.249
-721.835	254.159	0.093	0.160
-720.821	-200.000	-0.016	0.111
-719.806	144.444	0.083	-0.111
-718.791	23.076	-0.140	0.115
-717.777	-200.000	-0.046	-0.414
-716.762	328.559	-0.076	-0.145
-715.748	800.000	0.042	-0.176
-714.733	204.934	-0.225	-0.350
-713.718	626.187	-0.129	-0.326
-712.704	-200.000	-0.004	-0.309
-711.689	-200.000	-0.032	-0.160
-710.675	-200.000	0.043	-0.406
-709.660	800.000	0.100	-0.293
-708.645	-85.918	0.161	0.050
-707.631	-12.410	-0.085	0.056
-706.616	800.000	0.061	-0.217
-705.602	-28.091	-0.163	-0.094
-704.587	111.247	0.059	0.071
-703.572	-200.000	0.031	0.362
-702.558	-200.000	-0.019	-0.279
-701.543	-105.864	0.143	0.032
-700.529	-200.000	-0.009	-0.044
-699.514	-169.601	0.314	0.011
-698.499	-81.009	0.135	0.045
-697.485	142.532	-0.065	-0.086
-696.470	-73.280	-0.201	0.074
-695.456	800.000	-0.070	-0.299
-694.441	-21.067	0.158	0.097
-693.426	644.126	-0.150	0.384
-692.412	-65.108	0.324	0.131
-691.397	257.526	-0.011	0.020
-690.383	-47.578	0.172	0.084
-689.368	-143.485	-0.160	0.015
-688.354	-200.000	0.036	0.234
-687.339	-134.652	-0.268	0.033
-686.324	-76.165	-0.072	-0.025
-685.310	142.711	-0.065	-0.087
-684.295	201.282	0.098	0.150
-683.281	-106.114	0.059	-0.013
-682.266	-200.000	-0.010	-0.048
-681.251	-200.000	-0.020	-0.135
-680.237	-17.204	0.122	0.077
-679.222	120.015	0.040	-0.050
-678.208	-86.564	0.123	0.038
-677.193	-200.000	-0.013	0.219
-676.178	-200.000	0.034	0.243
-675.164	-101.963	0.323	-0.078
-674.149	399.914	0.106	-0.222
-673.135	-41.464	-0.143	-0.073
-672.120	46.365	-0.145	0.134
-671.105	91.019	-0.313	-0.352
-670.091	-45.502	-0.038	0.019
-669.076	-60.939	0.205	0.087
-668.062	118.058	-0.337	-0.416
-667.047	-118.897	-0.121	-0.021
-666.032	236.681	0.159	0.263
-665.018	-200.000	-0.008	-0.205
-664.003	-54.743	-0.050	-0.023
-662.989	160.804	0.223	-0.311
-661.974	125.563	0.160	0.201
-660.959	253.171	-0.017	-0.029
-659.945	-98.383	0.147	-0.038
-658.930	-153.982	0.124	0.008
-657.916	257.906	0.183	-0.315
-656.901	-120.798	-0.197	0.033
-655.886	-169.990	-0.072	-0.003
-654.872	-54.327	-0.077	0.035
-653.857	-160.607	0.357	-0.019
-652.843	-3.990	0.081	-0.056
-651.828	-32.085	-0.187	0.104
-650.814	800.000	0.038	-0.149
-649.799	800.000	0.069	-0.244
-648.784	118.505	-0.130	-0.160
-647.770	-57.783	-0.125	-0.054
-646.755	800.000	-0.076	-0.234
-645.741	54.206	0.143	-0.138
-644.726	-27.502	0.115	0.067
-643.711	-11.293	-0.118	-0.078
-642.697	233.551	-0.049	0.080
-641.682	-61.771	-0.242	0.101
-640.668	-171.252	-0.411	0.014
-639.653	-39.145	-0.407	0.214
-638.638	402.739	0.060	-0.126
-637.624	800.000	-0.026	0.109
-636.609	119.246	0.225	-0.278
-635.595	-137.856	0.137	-0.015
-634.580	12.745	-0.148	-0.114
-633.565	304.951	0.144	-0.266
-632.551	-200.000	-0.044	-0.352
-631.536	-39.112	-0.208	-0.109
-630.522	-29.439	0.105	0.060
-629.507	8.586	0.064	-0.048
-628.492	-91.820	0.156	-0.044
-627.478	800.000	-0.090	-0.335
-626.463	800.000	0.169	0.513
-625.449	-200.000	0.059	0.282
-624.434	-122.286	-0.286	0.047
-623.419	44.601	0.149	0.137
-622.405	800.000	0.012	-0.046
-621.390	156.336	0.144	-0.199
-620.376	-131.892	-0.121	-0.016
-619.361	-200.000	0.011	-0.164
-618.346	119.712	-0.087	-0.108
-617.332	-59.510	-0.451	0.193
-616.317	-134.207	0.256	0.031
-615.303	-200.000	-0.019	0.195
-614.288	177.774	0.122	-0.177
-613.273	-82.506	0.301	0.097
-612.259	358.247	-0.030	0.060
-611.244	-200.000	0.007	0.202
-610.230	800.000	0.010	0.035
-609.215	109.626	0.255	0.305
-608.201	-200.000	-0.092	0.000
-607.186	-71.419	0.118	-0.044
-606.171	-12.432	-0.201	0.131
-605.157	800.000	-0.051	0.168
-604.142	-35.715	-0.408	0.221
-603.128	-200.000	-0.073	0.334
-602.113	-162.304	-0.367	0.018
-601.098	208.956	0.099	-0.155
-600.084	-200.000	-0.021	0.141
-599.069	-200.000	-0.007	-0.168
-598.055	559.184	-0.052	-0.125
-597.040	-115.034	0.283	0.054
-596.025	-87.980	0.276	-0.083
-595.011	-53.742	0.269	-0.123
-593.996	154.944	0.087	-0.119
-592.982	-126.345	0.153	0.023
-591.967	226.848	-0.083	0.134
-590.952	-200.000	-0.006	-0.119
-589.938	32.577	-0.242	-0.209
-588.923	-132.067	0.206	-0.027
-587.909	-74.942	-0.332	0.119
-586.894	-200.000	0.018	-0.107
-585.879	-104.410	0.223	0.051
-584.865	-112.906	0.085	-0.017
-583.850	35.725	-0.109	0.096
-582.836	-200.000	-0.002	0.137
-581.821	-26.261	-0.283	0.165
-580.806	-29.474	-0.445	-0.254
-579.792	-200.000	0.015	0.288
-578.777	34.778	0.088	-0.077
-577.763	-180.878	0.214	0.004
-576.748	-70.715	-0.230	-0.087
-575.733	-161.250	-0.458	-0.024
-574.719	236.614	-0.067	0.110
-573.704	-36.446	0.106	-0.057
-572.690	-200.000	0.004	-0.361
-571.675	800.000	-0.067	0.290
-570.661	-60.515	0.069	-0.029
-569.646	-39.962	-0.184	0.096
-568.631	-192.630	0.332	0.003
-567.617	-114.350	0.121	-0.023
-566.602	-4.064	0.117	-0.081
-565.588	131.490	0.177	-0.227
-564.573	370.963	0.040	-0.080
-563.558	-45.231	-0.108	-0.053
-562.544	97.491	0.237	0.271
-561.529	8.804	-0.173	0.130
-560.515	800.000	-0.064	0.200
-559.500	7.616	-0.113	-0.084
-558.485	800.000	-0.021	0.069
-557.471	24.673	0.207	-0.170
-556.456	-137.752	0.234	0.026
-555.442	230.542	0.116	-0.189
-554.427	-200.000	-0.023	0.217
-553.412	-43.064	-0.266	0.134
-552.398	-200.000	0.009	0.328
-551.383	-43.827	0.339	-0.170
-550.369	87.915	0.189	-0.208
-549.354	63.547	0.224	0.224
-548.339	-200.000	-0.024	-0.146
-547.325	800.000	0.086	0.288
-546.310	30.329	0.160	0.136
-545.296	-33.514	-0.250	0.137
-544.281	800.000	-0.025	-0.098
-543.266	-75.782	0.149	0.053
-542.252	-200.000	-0.117	0.580
-541.237	800.000	0.143	-0.394
-540.223	-37.156	-0.193	0.103
-539.208	-200.000	-0.033	0.152
-538.193	750.069	0.058	-0.157
-537.179	-48.583	-0.270	-0.129
-536.164	800.000	0.100	0.350
-535.150	176.993	-0.210	0.304
-534.135	-19.595	-0.303	0.187
-533.121	-106.350	0.182	0.041
-532.106	-4.445	-0.260	0.178
-531.091	-94.078	-0.127	0.035
-530.077	85.024	0.300	-0.327
-529.062	376.890	-0.072	-0.146
-528.048	-151.146	0.333	-0.025
-527.033	800.000	-0.043	-0.177
-526.018	800.000	-0.072	0.298
-525.004	-78.994	0.049	0.016
-523.989	126.431	0.145	0.183
-522.975	137.507	-0.120	0.157
-521.960	800.000	-0.051	-0.193
-520.945	593.192	0.108	0.266
-519.931	739.650	0.068	0.182
-518.916	118.536	-0.247	0.303
-517.902	-200.000	0.038	0.332
-516.887	275.346	0.137	-0.241
-515.872	302.050	-0.074	0.135
-514.858	25.601	0.034	-0.028
-513.843	108.917	-0.281	-0.334
-512.829	229.274	-0.064	-0.103
-511.814	-104.716	0.338	-0.077
-510.799	-200.000	0.001	0.095
-509.785	800.000	-0.012	-0.047
-508.770	-200.000	0.008	-0.276
-507.756	800.000	0.089	-0.273
-506.741	26.613	0.221	0.184
-505.726	-180.758	0.069	-0.001
-504.712	-200.000	-0.043	0.444
-503.697	-200.000	0.006	0.323
-502.683	231.271	0.045	0.074
-501.668	78.960	-0.115	0.122
-500.653	-2.732	-0.082	0.057
-499.639	-81.031	0.248	-0.082
-498.624	527.611	0.126	0.296
-497.610	50.515	-0.228	0.214
-496.595	-152.015	0.329	-0.024
-495.581	800.000	0.041	-0.156
-494.566	-55.767	-0.336	-0.149
-493.551	-21.688	0.250	0.151
-492.537	-80.630	-0.213	-0.070
-491.522	-46.619	0.030	0.015
-490.508	-38.687	0.208	-0.109
-489.493	-129.055	-0.156	0.022
-488.478	96.115	0.044	-0.050
-487.464	-147.843	0.178	0.015
-486.449	-16.055	-0.244	-0.154
-485.435	-200.000	0.018	-0.171
-484.420	198.808	-0.104	0.158
-483.405	-59.112	-0.137	-0.059
-482.391	800.000	-0.090	-0.356
-481.376	240.246	0.095	0.157
-480.362	661.893	0.088	0.224
-479.347	-67.481	-0.170	-0.066
-478.332	549.450	-0.159	0.379
-477.318	-27.280	0.226	0.131
-476.303	-101.922	0.043	0.010
-475.289	151.520	0.084	0.114
-474.274	-82.900	-0.368	-0.118
-473.259	-200.000	0.000	0.109
-472.245	-45.612	-0.059	0.029
-471.230	557.251	0.120	0.287
-470.216	-116.604	-0.324	-0.059
-469.201	41.323	-0.055	-0.049
-468.186	158.753	0.227	0.313
-467.172	-13.318	0.378	-0.243
-466.157	201.186	-0.124	-0.190
-465.143	647.452	-0.093	0.236
-464.128	800.000	0.051	-0.142
-463.113	800.000	0.134	-0.526
-462.099	-200.000	0.041	-0.283
-461.084	-200.000	-0.063	0.451
-460.070	112.743	0.300	-0.360
-459.055	800.000	-0.016	-0.069
-458.040	-200.000	0.024	-0.190
-457.026	530.666	0.099	-0.232
-456.011	-109.299	-0.051	-0.011
-454.997	-191.463	-0.288	-0.003
-453.982	-24.482	0.175	-0.103
-452.968	204.879	-0.141	-0.216
-451.953	-57.863	0.303	0.132
-450.938	16.904	0.145	0.114
-449.924	-200.000	0.023	-0.141
-448.909	-160.096	0.257	0.014
-447.895	-15.591	-0.202	-0.128
-446.880	-82.645	-0.235	-0.076
-445.865	-200.000	0.063	0.386
-444.851	-21.851	0.095	-0.057
-443.836	664.277	0.027	-0.070
-442.822	-44.139	-0.195	-0.097
-441.807	-107.135	0.150	0.033
-440.792	140.385	-0.303	-0.397
-439.778	-144.835	0.338	0.031
-438.763	-200.000	-0.028	0.131
-437.749	800.000	-0.070	-0.243
-436.734	-200.000	0.010	0.371
-435.719	-200.000	0.036	-0.158
-434.705	-34.677	0.028	0.015
-433.690	235.105	-0.262	0.429
-432.676	-200.000	-0.013	0.232
-431.661	-136.918	0.075	-0.009
-430.646	51.912	-0.335	-0.316
-429.632	-200.000	0.037	0.188
-428.617	-162.313	0.272	0.013
-427.603	-200.000	0.020	-0.190
-426.588	-155.547	0.245	-0.016
-425.573	-72.449	0.049	-0.018
-424.559	-126.427	-0.191	0.028
-423.544	800.000	-0.062	0.215
-422.530	562.913	0.128	0.307
-421.515	-83.670	-0.252	-0.080
-420.500	-200.000	-0.020	0.148
-419.486	-77.018	0.120	0.041
-418.471	-59.451	0.271	0.115
-417.457	-139.140	0.128	0.014
-416.442	61.132	0.293	0.288
-415.428	195.014	0.190	0.286
-414.413	408.096	-0.108	-0.226
-413.398	343.270	0.080	-0.155
-412.384	-60.859	0.261	-0.109
-411.369	658.165	-0.006	-0.016
-410.355	14.502	0.197	-0.152
-409.340	-25.892	-0.319	-0.186
-408.325	800.000	-0.051	0.167
-407.311	32.914	-0.165	-0.141
-406.296	94.795	0.258	0.290
-405.282	-200.000	-0.043	0.332
-404.267	-200.000	-0.028	0.206
-403.252	197.783	-0.294	0.444
-402.238	-23.526	-0.264	-0.157
-401.223	450.318	0.060	0.130
-400.209	-137.760	-0.045	0.005
-399.194	-119.629	0.411	-0.070
-398.179	-66.537	-0.136	-0.054
-397.165	-138.226	-0.303	0.033
-396.150	800.000	0.137	-0.454
-395.136	800.000	0.148	-0.416
-394.121	-40.605	0.142	-0.073
-393.106	72.639	0.056	-0.058
-392.092	39.824	0.303	0.269
-391.077	-185.677	0.108	-0.002
-390.063	466.587	-0.168	-0.372
-389.048	800.000	-0.052	-0.142
-388.033	-83.969	0.250	0.079
-387.019	722.258	-0.035	-0.093
-386.004	43.458	-0.023	-0.021
-384.990	-112.171	-0.477	0.095
-383.975	-59.677	-0.340	-0.144
-382.960	107.371	-0.077	-0.091
-381.946	208.911	-0.129	-0.200
-380.931	14.876	0.112	0.087
-379.917	-160.933	-0.175	-0.009
-378.902	800.000	0.093	0.356
-377.888	-200.000	0.012	-0.197
-376.873	-200.000	0.011	-0.246
-375.858	146.407	0.055	0.073
-374.844	233.963	0.140	0.227
-373.829	-166.168	-0.178	-0.007
-372.815	-60.567	0.119	-0.050
-371.800	-67.161	0.037	0.014
-370.785	-4.002	0.141	-0.096
-369.771	-200.000	-0.011	-0.362
-368.756	3.244	0.275	0.198
-367.742	338.742	0.135	-0.260
-366.727	-200.000	0.016	-0.201
-365.712	55.249	-0.173	0.166
-364.698	-46.820	-0.304	0.147
-363.683	128.405	-0.080	0.101
-362.669	313.646	-0.129	-0.240
-361.654	-17.872	-0.117	-0.072
-360.639	192.033	-0.093	0.139
-359.625	-144.556	-0.207	-0.019
-358.610	409.054	-0.160	-0.335
-357.596	72.997	-0.239	-0.247
-356.581	800.000	0.068	0.294
-355.566	25.927	0.324	-0.267
-354.552	406.409	0.140	-0.291
-353.537	279.318	-0.113	0.199
-352.523	-200.000	-0.043	0.365
-351.508	-200.000	0.037	-0.197
-350.493	437.186	0.092	0.199
-349.479	-200.000	0.017	0.138
-348.464	-151.527	-0.032	-0.002
-347.450	-200.000	0.165	0.001
-346.435	-200.000	-0.014	0.087
-345.420	-39.084	-0.239	-0.124
-344.406	28.003	0.204	-0.170
-343.391	-200.000	0.000	-0.113
-342.377	800.000	-0.125	-0.352
-341.362	151.695	0.150	0.202
-340.348	199.249	0.059	0.089
-339.333	107.833	-0.046	-0.054
-338.318	-200.000	-0.006	-0.026
-337.304	17.202	-0.136	-0.107
-336.289	-200.000	0.001	-0.064
-335.275	-124.318	0.253	0.039
-334.260	24.919	-0.162	0.132
-333.245	138.821	0.086	-0.112
-332.231	-17.902	-0.059	0.037
-331.216	-104.090	0.242	0.056
-330.202	-103.338	-0.180	-0.042
-329.187	-45.029	0.165	-0.081
-328.172	78.513	-0.195	0.206
-327.158	-76.639	0.305	-0.105
-326.143	-28.040	0.114	0.065
-325.129	326.247	-0.083	0.158
-324.114	-152.663	0.350	-0.025
-323.099	-6.713	-0.332	-0.223
-322.085	388.651	0.196	0.399
-321.070	-9.108	0.253	-0.167
-320.056	-75.254	0.147	0.052
-319.041	-138.649	-0.341	0.037
-318.026	800.000	-0.112	-0.388
-317.012	157.505	-0.189	-0.258
-315.997	326.058	0.170	-0.321
-314.983	218.439	0.023	0.037
-313.968	267.884	-0.034	-0.059
-312.953	198.506	-0.160	-0.242
-311.939	-200.000	-0.035	-0.302
-310.924	-96.905	-0.378	0.098
-309.910	-150.554	0.128	0.010
-308.895	-200.000	-0.051	0.297
-307.880	99.239	-0.135	0.153
-306.866	-171.299	-0.164	0.005
-305.851	-200.000	0.029	-0.244
-304.837	176.149	-0.310	0.444
-303.822	83.010	-0.148	-0.159
-302.807	-25.211	-0.131	0.076
-301.793	14.989	0.237	-0.183
-300.778	-200.000	-0.022	-0.224
-299.764	-55.626	0.159	0.070
-298.749	249.422	-0.143	0.238
-297.735	-200.000	0.017	-0.098
-296.720	-200.000	-0.042	-0.379
-295.705	248.092	0.119	-0.198
-294.691	132.868	-0.251	-0.319
-293.676	-90.595	0.173	0.049
-292.662	660.781	-0.108	-0.275
-291.647	800.000	0.100	-0.282
-290.632	-200.000	-0.035	-0.390
-289.618	299.517	0.075	0.136
-288.603	800.000	0.010	-0.033
-287.589	-56.971	-0.113	0.049
-286.574	-159.990	0.205	-0.011
-285.559	-200.000	-0.012	-0.164
-284.545	146.284	-0.072	0.095
-283.530	-50.565	0.411	0.191
-282.516	297.440	0.143	0.259
-281.501	21.925	-0.151	0.121
-280.486	20.910	-0.229	-0.183
-279.472	492.471	0.183	-0.413
-278.457	205.835	0.114	-0.174
-277.443	-200.000	-0.029	-0.407
-276.428	-128.147	-0.164	-0.023
-275.413	800.000	0.072	0.296
-274.399	237.095	0.154	0.251
-273.384	-77.836	-0.295	0.100
-272.370	800.000	0.080	-0.239
-271.355	232.244	0.175	0.283
-270.340	183.200	0.144	0.209
-269.326	-73.869	0.091	-0.033
-268.311	-53.996	-0.010	0.005
-267.297	170.606	-0.112	0.157
-266.282	72.941	0.114	-0.118
-265.267	-128.734	0.264	-0.037
-264.253	-60.829	-0.547	-0.228
-263.238	-200.000	0.018	0.194
-262.224	-106.988	-0.140	0.030
-261.209	800.000	0.014	-0.044
-260.195	-102.811	-0.114	-0.027
-259.180	-16.372	0.141	0.088
-258.165	-48.506	-0.215	-0.102
-257.151	38.581	-0.068	0.060
-256.136	25.339	-0.047	-0.039
-255.122	800.000	0.210	-0.762
-254.107	378.229	-0.018	-0.037
-253.092	773.683	0.088	0.236
-252.078	-200.000	0.034	0.196
-251.063	88.100	0.273	0.298
-250.049	-149.821	0.235	-0.018
-249.034	388.992	0.150	0.306
-248.019	2.523	0.289	-0.206
-247.005	10.272	0.152	-0.114
-245.990	-200.000	0.072	-0.348
-244.976	38.475	-0.296	0.260
-243.961	80.433	0.230	-0.244
-242.946	473.643	-0.218	0.483
-241.932	-200.000	-0.003	0.320
-240.917	26.205	-0.100	-0.082
-239.903	-70.280	0.167	0.062
-238.888	-200.000	0.040	-0.458
-237.873	9.599	0.141	-0.105
-236.859	-80.699	-0.248	-0.081
-235.844	150.401	-0.159	-0.213
-234.830	-63.644	0.577	0.233
-233.815	97.660	-0.042	-0.048
-232.800	800.000	0.041	-0.120
-231.786	-33.857	-0.249	-0.135
-230.771	800.000	-0.076	0.266
-229.757	800.000	-0.048	0.158
-228.742	146.606	0.109	-0.144
-227.727	-99.482	0.446	0.110
-226.713	183.387	-0.022	-0.033
-225.698	-47.698	-0.228	-0.109
-224.684	-28.942	-0.040	0.023
-223.669	-200.000	-0.080	0.363
-222.655	115.687	0.080	0.096
-221.640	139.145	-0.045	-0.058
-220.625	-200.000	0.063	-0.297
-219.611	191.550	0.073	0.107
-218.596	-129.306	-0.330	-0.045
-217.582	-102.591	0.134	0.031
-216.567	-91.788	-0.308	0.086
-215.552	-20.329	-0.060	0.036
-214.538	40.360	0.206	-0.182
-213.523	-109.448	0.056	-0.012
-212.509	-200.000	0.022	0.125
-211.494	-63.433	-0.068	0.028
-210.479	-67.722	-0.245	-0.094
-209.465	800.000	0.054	-0.151
-208.450	-26.950	0.141	0.081
-207.436	-29.946	-0.258	0.144
-206.421	168.213	0.195	0.273
-205.406	-79.798	0.226	0.075
-204.392	-109.622	-0.063	-0.013
-203.377	-108.962	-0.114	0.024
-202.363	-197.991	-0.377	-0.002
-201.348	-24.294	0.202	0.118
-200.333	-200.000	0.033	-0.210
-199.319	496.198	0.060	-0.136
-198.304	2.576	0.096	-0.069
-197.290	-66.059	-0.331	0.130
-196.275	800.000	-0.032	-0.133
-195.260	13.257	-0.127	-0.097
-194.246	800.000	-0.061	-0.255
-193.231	-200.000	-0.049	0.273
-192.217	800.000	0.025	0.073
-191.202	-200.000	-0.032	-0.258
-190.187	-107.840	-0.241	-0.052
-189.173	-130.650	-0.039	-0.005
-188.158	800.000	0.089	0.297
-187.144	800.000	-0.075	-0.213
-186.129	-173.267	0.396	-0.012
-185.114	-45.373	0.082	-0.040
-184.100	-129.853	-0.118	0.016
-183.085	800.000	-0.082	0.286
-182.071	-105.279	0.161	0.036
-181.056	16.214	0.123	0.095
-180.042	443.472	-0.128	0.276
-179.027	-200.000	-0.020	0.259
-178.012	-154.773	-0.240	0.016
-176.998	298.330	-0.007	0.013
-175.983	-9.015	-0.190	-0.125
-174.969	145.031	0.082	0.108
-173.954	-110.045	0.351	-0.072
-172.939	-87.601	-0.269	0.080
-171.925	423.755	0.154	-0.324
-170.910	265.111	0.054	0.093
-169.896	-130.415	0.158	0.021
-168.881	-200.000	-0.442	-0.001
-167.866	800.000	-0.059	0.167
-166.852	-47.893	0.131	-0.062
-165.837	-101.960	-0.088	0.021
-164.823	16.597	-0.114	0.088
-163.808	132.348	0.094	0.118
-162.793	60.324	-0.188	0.182
-161.779	-173.662	0.153	0.004
-160.764	36.764	-0.133	-0.115
-159.750	-200.000	-0.026	-0.143
-158.735	-156.426	-0.139	-0.009
-157.720	12.943	-0.024	-0.018
-156.706	143.084	-0.096	-0.125
-155.691	25.219	-0.158	-0.128
-154.677	-34.230	0.261	0.141
-153.662	-192.839	0.386	0.003
-152.647	129.235	0.362	0.453
-151.633	-66.337	-0.250	0.097
-150.618	-75.023	-0.329	-0.116
-149.604	-131.044	-0.272	0.036
-148.589	-90.844	0.392	-0.111
-147.574	98.178	-0.086	-0.097
-146.560	-65.858	-0.339	-0.133
-145.545	-200.000	-0.026	-0.199
-144.531	-75.616	0.243	-0.084
-143.516	-146.547	0.271	-0.023
-142.502	-200.000	0.049	-0.212
-141.487	40.307	-0.162	-0.143
-140.472	-200.000	-0.017	0.201
-139.458	103.151	0.279	-0.320
-138.443	-133.739	-0.330	-0.040
-137.429	-118.390	0.405	-0.070
-136.414	-26.040	0.030	-0.018
-135.399	-200.000	0.017	-0.129
-134.385	-200.000	-0.013	0.083
-133.370	-200.000	-0.095	0.410
-132.356	-115.130	-0.104	-0.019
-131.341	91.795	-0.112	0.124
-130.326	224.147	0.136	0.216
-129.312	800.000	-0.037	-0.127
-128.297	35.051	0.037	0.032
-127.283	31.751	0.089	-0.075
-126.268	-60.188	0.147	0.061
-125.253	-200.000	0.005	-0.259
-124.239	-91.068	0.280	0.079
-123.224	-72.391	-0.182	0.066
-122.210	-173.558	0.114	0.003
-121.195	-31.599	-0.365	-0.201
-120.180	-39.036	-0.186	0.096
-119.166	108.767	-0.130	-0.152
-118.151	-6.673	0.138	0.092
-117.137	258.425	-0.076	0.128
-116.122	139.428	-0.110	-0.141
-115.107	13.741	-0.040	-0.030
-114.093	-200.000	0.049	0.251
-113.078	-158.788	-0.099	0.006
-112.064	-33.919	0.231	0.124
-111.049	-45.973	0.329	0.159
-110.034	-200.000	0.030	-0.365
-109.020	-120.533	0.426	-0.071
-108.005	719.351	-0.095	-0.248
-106.991	-66.812	-0.213	-0.082
-105.976	-0.984	-0.142	-0.098
-104.962	-200.000	-0.011	-0.142
-103.947	-177.067	0.196	-0.005
-102.932	127.691	-0.171	0.212
-101.918	34.959	0.122	0.104
-100.903	800.000	-0.155	0.517
-99.889	-156.401	0.205	-0.013
-98.874	22.918	0.263	0.211
-97.859	363.182	0.170	0.334
-96.845	107.288	0.191	0.222
-95.830	161.481	0.182	0.249
-94.816	5.949	-0.161	-0.117
-93.801	103.594	-0.096	-0.111
-92.786	800.000	-0.038	-0.137
-91.772	-71.639	0.028	0.010
-90.757	-115.530	-0.190	-0.035
-89.743	-152.027	0.128	0.009
-88.728	-93.311	0.163	0.044
-87.713	-11.836	-0.188	0.120
-86.699	233.995	-0.099	-0.159
-85.684	-95.352	0.210	0.055
-84.670	-119.045	-0.509	0.087
-83.655	30.251	0.124	-0.103
-82.640	-200.000	0.095	0.483
-81.626	226.145	0.072	-0.115
-80.611	-200.000	-0.025	-0.303
-79.597	-46.888	0.189	-0.090
-78.582	154.453	0.130	0.174
-77.567	-72.328	0.093	-0.034
-76.553	-200.000	-0.047	0.344
-75.538	428.621	-0.029	0.061
-74.524	-45.023	0.351	-0.171
-73.509	38.789	0.261	-0.228
-72.494	-77.838	-0.123	-0.042
-71.480	200.413	-0.158	-0.237
-70.465	40.110	-0.347	-0.305
-69.451	800.000	0.057	0.200
-68.436	-111.362	0.235	0.047
-67.422	-70.614	-0.120	0.044
-66.407	373.475	-0.088	-0.175
-65.392	104.621	0.088	-0.102
-64.378	-95.691	-0.168	-0.044
-63.363	313.401	-0.120	-0.220
-62.349	-177.682	0.043	-0.001
-61.334	74.093	-0.973	-0.997
-60.319	121.635	0.519	0.632
-59.305	-200.000	-0.247	-1.359
-58.290	82.182	0.849	0.899
-57.276	194.668	0.679	1.006
-56.261	-200.000	118.332	644.310
-55.246	480.593	1557.634	3449.722
-54.232	173.981	2724.796	3842.162
-53.217	104.092	2177.072	2499.221
-52.203	36.635	1691.355	1457.991
-51.188	29.184	1507.587	1249.225
-50.173	26.936	1482.719	1213.556
-49.159	49.175	1544.461	1416.803
-48.144	47.947	1558.772	1421.484
-47.130	29.144	1513.642	1253.770
-46.115	26.162	1498.406	1220.971
-45.100	25.982	1494.997	1216.927
-44.086	26.029	1492.769	1215.385
-43.071	26.011	1490.687	1213.515
-42.057	25.986	1489.471	1212.312
-41.042	26.011	1487.900	1211.154
-40.027	26.015	1486.482	1209.981
-39.013	25.923	1485.129	1208.213
-37.998	25.944	1483.864	1207.274
-36.984	25.983	1482.998	1206.782
-35.969	26.014	1481.524	1205.740
-34.954	26.006	1479.895	1204.315
-33.940	25.949	1478.500	1202.753
-32.925	26.004	1477.138	1201.965
-31.911	25.995	1475.867	1200.823
-30.896	26.110	1474.259	1200.233
-29.881	26.112	1472.915	1199.102
-28.867	26.113	1471.706	1198.075
-27.852	26.076	1470.592	1196.881
-26.838	26.045	1469.431	1195.679
-25.823	26.029	1467.775	1194.181
-24.809	25.961	1466.465	1192.613
-23.794	26.012	1464.931	1191.659
-22.779	26.048	1463.702	1190.848
-21.765	25.980	1462.932	1189.729
-20.750	26.123	1461.653	1189.582
-19.736	26.085	1460.512	1188.357
-18.721	26.116	1459.161	1187.413
-17.706	25.993	1458.474	1186.000
-16.692	25.970	1457.143	1184.718
-15.677	26.017	1456.495	1184.452
-14.663	26.027	1455.514	1183.673
-13.648	25.934	1454.197	1181.947
-12.633	25.884	1453.921	1181.347
-11.619	26.030	1452.552	1181.141
-10.604	25.928	1451.941	1179.934
-9.590	25.959	1450.528	1178.937
-8.575	25.989	1449.586	1178.322
-7.560	25.921	1449.044	1177.390
-6.546	26.028	1447.978	1177.175
-5.531	25.927	1447.434	1176.031
-4.517	25.980	1446.602	1175.650
-3.502	25.977	1445.431	1174.637
-2.487	25.923	1444.911	1173.811
-1.473	25.991	1443.514	1173.077
-0.458	25.989	1441.754	1171.584
0.556	27.876	1432.258	1161.258
1.571	24.707	1408.432	1121.988
2.586	21.535	1349.101	1055.530
3.600	19.868	1267.776	982.356
4.615	18.471	1223.178	940.055
5.629	16.381	1167.156	885.976
6.644	9.933	1085.848	792.625
7.659	4.992	1049.339	742.424
8.673	4.326	1044.516	735.790
9.688	4.139	1041.076	732.420
10.702	3.942	1039.429	730.263
11.717	4.164	1037.124	729.626
12.731	6.403	1039.501	741.790
13.746	13.410	1048.636	781.433
14.761	19.994	1057.263	819.036
15.775	22.135	1059.252	830.636
16.790	21.908	1057.522	828.135
17.804	20.905	1055.765	821.959
18.819	20.064	1054.250	816.740
19.834	19.845	1052.471	814.262
20.848	19.707	1052.238	813.359
21.863	19.706	1051.338	812.589
22.877	19.521	1050.830	811.253
23.892	19.279	1050.443	809.744
24.907	19.335	1049.053	808.865
25.921	19.294	1048.433	808.124
26.936	19.281	1047.701	807.426
27.950	19.128	1046.707	805.873
28.965	19.178	1045.904	805.416
29.980	19.355	1044.479	805.075
30.994	19.360	1043.744	804.462
32.009	19.601	1042.614	804.641
33.023	19.569	1042.305	804.182
34.038	19.519	1041.478	803.239
35.053	19.470	1040.679	802.325
36.067	19.292	1039.537	800.547
37.082	19.305	1038.676	799.872
38.096	19.318	1037.700	799.113
39.111	19.375	1037.113	798.854
40.126	19.633	1036.495	799.503
41.140	19.460	1034.871	797.380
42.155	19.010	1033.797	794.402
43.169	18.885	1032.552	792.799
44.184	18.811	1031.373	791.484
45.199	18.832	1030.538	790.867
46.213	18.846	1029.524	790.083
47.228	19.032	1028.731	790.262
48.242	19.187	1028.108	790.425
49.257	19.348	1027.228	790.416
50.271	19.346	1025.993	789.385
51.286	19.259	1025.898	788.846
52.301	19.406	1025.019	788.772
53.315	19.312	1024.147	787.601
54.330	19.293	1023.487	786.936
55.344	19.127	1022.282	785.184
56.359	19.155	1021.057	784.300
57.374	19.112	1020.509	783.613
58.388	19.047	1019.576	782.532
59.403	18.935	1018.656	781.247
60.417	18.836	1017.665	779.971
61.432	18.929	1017.010	779.821
62.447	18.866	1016.207	778.853
63.461	18.775	1015.597	777.905
64.476	18.511	1014.986	776.172
65.490	18.597	1014.121	775.828
66.505	18.614	1013.502	775.366
67.520	18.620	1012.557	774.600
68.534	18.795	1011.629	774.610
69.549	18.768	1011.035	773.968
70.563	18.617	1010.041	772.458
71.578	18.573	1009.262	771.596
72.593	18.414	1008.455	770.194
73.607	18.317	1007.662	769.085
74.622	18.385	1006.322	768.300
75.636	18.506	1005.496	768.144
76.651	18.393	1004.983	767.177
77.666	18.567	1004.108	767.218
78.680	18.551	1003.893	766.915
79.695	18.664	1002.816	766.532
80.709	18.619	1002.763	766.223
81.724	18.708	1001.873	765.872
82.739	18.801	1001.226	765.724
83.753	18.848	1000.722	765.480
84.768	19.183	999.688	766.109
85.782	19.606	999.495	767.775
86.797	19.684	998.938	767.625
87.812	19.763	997.888	767.101
88.826	19.628	996.976	765.733
89.841	19.360	996.256	763.928
90.855	19.427	995.547	763.612
91.870	19.514	995.021	763.526
92.884	19.567	994.296	763.136
93.899	19.552	993.538	762.418
94.914	19.650	992.120	761.699
95.928	19.898	991.370	762.145
96.943	19.686	991.119	760.950
97.957	19.477	990.167	759.236
98.972	19.545	988.824	758.435
99.987	19.520	988.520	758.028
101.001	19.524	988.056	757.620
102.016	19.450	987.284	756.640
103.030	19.404	986.539	755.798
104.045	19.542	984.960	755.127
105.060	19.591	984.431	754.866
106.074	19.375	983.053	752.801
107.089	19.125	982.090	750.907
108.103	18.913	980.978	749.066
109.118	18.850	979.815	747.838
110.133	18.816	978.939	746.957
111.147	18.749	978.028	745.903
112.162	18.681	976.985	744.746
113.176	18.666	976.593	744.316
114.191	18.837	975.658	744.281
115.206	19.031	975.164	744.675
116.220	19.071	973.804	743.744
117.235	18.792	973.366	742.137
118.249	18.920	972.474	741.944
119.264	18.829	971.592	740.816
120.279	18.693	970.599	739.408
121.293	18.588	969.657	738.170
122.308	18.631	969.328	738.042
123.322	18.494	968.238	736.559
124.337	18.251	967.682	735.027
125.352	18.377	965.802	734.073
126.366	18.411	964.921	733.482
127.381	18.432	963.873	732.712
128.395	18.373	963.205	731.886
129.410	18.557	961.758	731.506
130.424	18.596	960.978	731.014
131.439	18.587	960.339	730.428
132.454	18.775	959.791	730.743
133.468	18.877	959.032	730.537
134.483	18.779	958.342	729.532
135.497	18.804	957.963	729.282
136.512	18.940	957.110	729.144
137.527	18.903	956.349	728.347
138.541	18.986	955.386	727.899
139.556	18.977	954.888	727.416
140.570	18.902	954.072	726.413
141.585	19.076	953.704	726.803
142.600	19.197	953.277	726.926
143.614	19.374	952.476	726.995
144.629	19.598	951.767	727.335
145.643	19.613	951.296	726.974
146.658	19.614	950.076	725.982
147.673	19.375	948.932	724.040
148.687	19.166	947.828	722.254
149.702	19.026	946.829	720.843
150.716	19.028	945.819	720.020
151.731	18.931	944.814	718.786
152.746	18.953	944.155	718.313
153.760	18.990	943.736	718.083
154.775	19.018	942.840	717.454
155.789	19.181	942.231	717.610
156.804	19.252	941.643	717.394
157.819	19.303	940.644	716.778
158.833	19.392	940.436	716.927
159.848	19.368	940.061	716.477
160.862	19.627	939.029	716.706
161.877	19.578	938.393	715.954
162.892	19.171	937.040	713.173
163.906	18.948	935.910	711.325
164.921	18.885	935.176	710.444
165.935	18.916	934.168	709.745
166.950	19.030	933.473	709.624
167.964	19.132	932.384	709.153
168.979	19.227	931.596	708.881
169.994	19.120	930.468	707.522
171.008	19.031	929.796	706.581
172.023	19.095	929.182	706.314
173.037	19.366	928.170	706.594
174.052	19.487	927.970	706.875
175.067	19.410	927.178	705.895
176.081	19.277	925.444	703.970
177.096	18.937	924.249	701.611
178.110	18.852	924.318	701.254
179.125	18.885	923.525	700.726
180.140	18.996	922.211	700.116
181.154	19.091	921.776	700.113
182.169	19.166	921.467	700.121
183.183	19.492	921.228	701.199
184.198	19.533	920.468	700.727
185.213	19.494	919.939	700.104
186.227	19.501	919.015	699.367
187.242	19.552	919.037	699.529
188.256	19.574	918.166	698.891
189.271	19.756	917.585	699.124
190.286	19.777	917.167	698.828
191.300	19.497	916.019	696.762
192.315	19.131	914.721	694.237
193.329	18.778	913.517	691.840
194.344	18.842	912.868	691.546
195.359	18.894	912.993	691.790
196.373	19.043	912.494	691.949
197.388	19.376	911.694	692.618
198.402	19.562	911.379	693.066
199.417	19.701	911.104	693.350
200.432	19.919	910.812	693.943
201.446	19.884	910.732	693.678
202.461	19.988	910.408	693.787
203.475	20.291	909.610	694.331
204.490	20.156	908.793	693.108
205.504	19.974	907.862	691.610
206.519	19.656	907.010	689.630
207.534	19.542	906.260	688.545
208.548	19.523	905.918	688.147
209.563	19.561	905.054	687.579
210.577	19.597	903.968	686.840
211.592	19.718	903.597	686.976
212.607	19.864	903.578	687.480
213.621	19.974	902.509	687.045
214.636	19.860	901.971	686.122
215.650	19.860	901.277	685.534
216.665	19.829	900.601	684.836
217.680	19.818	901.189	685.177
218.694	20.185	900.154	685.781
219.709	20.155	899.776	685.315
220.723	20.178	898.908	684.683
221.738	19.973	898.121	683.217
222.753	19.929	897.373	682.411
223.767	19.871	896.711	681.618
224.782	19.903	896.156	681.263
225.796	20.162	895.770	681.928
226.811	20.245	894.771	681.434
227.826	20.056	894.312	680.280
228.840	20.151	893.068	679.648
229.855	19.902	892.690	678.324
230.869	19.771	892.314	677.466
231.884	19.767	891.539	676.803
232.899	19.779	890.557	676.044
233.913	19.836	889.513	675.412
234.928	19.625	889.190	674.285
235.942	19.540	888.380	673.279
236.957	19.550	887.946	672.928
237.972	19.504	887.278	672.186
238.986	19.652	886.538	672.139
240.001	19.546	886.002	671.263
241.015	19.579	885.550	670.990
242.030	19.770	884.613	670.962
243.045	19.803	883.726	670.358
244.059	19.922	883.479	670.573
245.074	19.972	883.059	670.385
246.088	19.911	882.465	669.639
247.103	19.987	881.978	669.507
248.117	20.174	881.638	669.912
249.132	20.314	881.264	670.109
250.147	20.625	880.988	671.038
251.161	20.953	880.029	671.512
252.176	20.856	879.772	670.883
253.190	20.939	879.246	670.742
254.205	20.996	878.578	670.391
255.220	21.039	878.228	670.230
256.234	20.981	877.463	669.367
257.249	20.878	877.001	668.558
258.263	20.915	876.608	668.342
259.278	20.862	875.677	667.370
260.293	20.840	874.940	666.666
261.307	21.020	874.414	666.892
262.322	21.118	874.340	667.152
263.336	21.100	873.664	666.511
264.351	21.057	873.064	665.830
265.366	21.022	872.763	665.405
266.380	21.004	872.135	664.799
267.395	21.169	870.772	664.331
268.409	20.986	870.335	663.243
269.424	20.906	869.284	662.080
270.439	20.894	868.633	661.477
271.453	20.829	867.949	660.654
272.468	20.802	866.861	659.665
273.482	20.693	866.579	658.978
274.497	20.692	865.889	658.392
275.512	20.668	865.225	657.738
276.526	20.648	864.647	657.163
277.541	20.711	863.854	656.741
278.555	20.796	863.340	656.612
279.570	20.897	863.223	656.846
280.585	21.126	862.578	657.161
281.599	21.353	861.996	657.512
282.614	20.993	861.319	655.584
283.628	20.886	860.183	654.261
284.643	20.835	859.795	653.715
285.657	20.831	859.671	653.548
286.672	20.792	858.922	652.773
287.687	20.768	858.363	652.204
288.701	21.027	857.695	652.605
289.716	20.907	857.336	651.828
290.730	20.892	856.872	651.359
291.745	20.932	856.103	650.868
292.760	21.020	855.523	650.698
293.774	21.061	854.906	650.323
294.789	21.139	855.124	650.723
295.803	21.144	854.308	650.063
296.818	21.091	853.059	648.858
297.833	20.837	852.385	647.342
298.847	20.959	851.625	647.160
299.862	21.018	851.035	646.875
300.876	20.971	850.852	646.504
301.891	21.050	850.338	646.352
302.906	21.174	849.940	646.450
303.920	21.408	849.134	646.644
304.935	21.475	848.592	646.423
305.949	21.695	847.765	646.548
306.964	21.649	847.743	646.302
307.979	21.333	846.725	644.304
308.993	21.285	846.274	643.728
310.008	21.545	845.586	644.105
311.022	21.456	845.208	643.434
312.037	21.384	844.962	642.923
313.052	21.355	844.047	642.065
314.066	21.180	843.306	640.803
315.081	20.984	842.528	639.434
316.095	20.803	842.220	638.482
317.110	20.906	841.552	638.296
318.125	21.056	840.956	638.336
319.139	20.944	840.484	637.510
320.154	20.941	839.916	637.015
321.168	20.918	839.244	636.364
322.183	21.076	838.905	636.625
323.197	21.116	838.558	636.451
324.212	21.219	837.408	635.900
325.227	21.114	837.313	635.388
326.241	21.190	836.998	635.368
327.256	21.087	836.380	634.469
328.270	21.109	835.727	633.997
329.285	21.137	834.850	633.377
330.300	21.145	833.994	632.703
331.314	21.103	833.664	632.242
332.329	21.105	833.285	631.907
333.343	21.164	832.874	631.752
334.358	21.389	832.256	632.041
335.373	21.356	831.764	631.492
336.387	21.331	831.605	631.224
337.402	21.413	830.954	630.972
338.416	21.553	830.529	631.097
339.431	21.790	829.902	631.418
340.446	21.783	829.742	631.218
341.460	21.865	829.085	630.954
342.475	21.982	828.245	630.682
343.489	22.024	828.065	630.641
344.504	22.016	827.793	630.347
345.519	22.133	827.218	630.274
346.533	22.389	826.536	630.617
347.548	22.174	826.018	629.394
348.562	22.113	825.137	628.451
349.577	21.625	824.848	626.427
350.592	21.411	824.326	625.210
351.606	21.414	823.525	624.560
352.621	21.480	823.223	624.512
353.635	21.397	822.528	623.633
354.650	21.609	822.013	623.943
355.665	21.505	822.004	623.508
356.679	21.633	821.326	623.397
357.694	21.683	821.101	623.346
358.708	21.689	820.534	622.884
359.723	21.662	819.964	622.298
360.738	21.648	819.417	621.781
361.752	21.752	818.793	621.619
362.767	21.699	818.558	621.200
363.781	21.926	818.186	621.665
364.796	22.213	817.806	622.337
365.810	22.326	817.457	622.419
366.825	22.495	817.247	622.801
367.840	22.400	816.986	622.210
368.854	22.475	816.259	621.866
369.869	22.232	815.733	620.554
370.883	22.103	815.051	619.523
371.898	22.199	814.443	619.348
372.913	22.244	813.850	618.998
373.927	22.431	813.339	619.213
374.942	22.374	812.711	618.478
375.956	22.319	811.790	617.532
376.971	22.412	811.687	617.724
377.986	22.478	811.075	617.434
379.000	22.443	810.816	617.059
380.015	22.487	810.652	617.035
381.029	22.658	809.623	616.797
382.044	22.395	809.330	615.600
383.059	22.557	808.246	615.285
384.073	22.510	807.995	614.874
385.088	22.589	807.092	614.410
386.102	22.304	806.230	612.706
387.117	22.084	806.306	611.944
388.132	22.063	805.284	611.041
389.146	22.070	805.137	610.901
390.161	22.030	804.888	610.517
391.175	22.323	804.483	611.173
392.190	22.471	804.586	611.713
393.205	22.355	803.867	610.709
394.219	22.196	802.839	609.321
395.234	22.095	802.728	608.834
396.248	22.097	802.000	608.235
397.263	22.057	800.959	607.253
398.278	21.962	800.676	606.659
399.292	21.860	800.318	605.980
400.307	21.931	799.552	605.591
401.321	21.846	799.589	605.272
402.336	21.954	799.067	605.198
403.350	22.059	799.044	605.489
404.365	22.268	798.348	605.625
405.380	22.439	798.021	605.913
406.394	22.529	797.609	605.855
407.409	22.780	797.362	606.478
408.423	22.701	797.216	606.041
409.438	22.653	796.949	605.619
410.453	22.866	796.328	605.825
411.467	22.891	795.986	605.597
412.482	22.944	795.138	605.082
413.496	22.990	794.941	605.034
414.511	23.050	794.571	604.905
415.526	23.041	794.315	604.624
416.540	22.970	794.074	604.146
417.555	22.867	793.350	603.188
418.569	22.816	792.947	602.654
419.584	22.991	792.219	602.646
420.599	22.901	791.917	602.054
421.613	165.715	1370.179	1797.122
422.628	143.774	1454.401	1797.229
