DTS Sentinel unit serial number:	SN413079Multiplexer serial number:	ORYXHardware model number:	OX4-SRSoftware version number:	ORYX F/W v4.00 Oryx Data Collector v3.7.2.0data status	okinstallation	princeton_trtdifferential loss correction	single-endedforward channel	channel 3reverse channel	N/Adate	2019/09/12time	18:02:04forward acquisition time	15.00reverse acquisition time	0.00gamma	496.2192k internal	0.2317k external	0.2317temperature offset calibration	1.0093default loss term (dB/km)	0.3790temperature slope calibration	1.0000multiplexer offset coefficient	1.0000multiplexer slope coefficient	1.0000fibre end	0.00T internal ref (°C)	33.75T ext. ref 1 (°C)	2.82T ext. ref 2 (°C)	28.23length (m)	temperature (°C)	Stokes	anti-Stokes-747.200	-62.648	-0.292	0.123
-746.185	-22.951	0.367	-0.224
-745.171	14.450	-0.523	-0.413
-744.156	-154.095	-0.389	0.027
-743.142	-200.000	0.049	0.755
-742.127	-200.000	0.010	0.751
-741.112	230.127	0.271	-0.448
-740.098	-200.000	-0.040	-0.672
-739.083	-101.946	-0.455	0.111
-738.069	800.000	0.093	0.392
-737.054	-173.545	0.467	0.014
-736.039	103.410	0.576	-0.685
-735.025	40.047	-0.110	-0.100
-734.010	131.213	-0.018	0.024
-732.996	800.000	0.200	0.800
-731.981	800.000	-0.501	1.493
-730.966	32.403	-0.598	-0.522
-729.952	-32.304	-0.114	-0.064
-728.937	30.198	-0.333	-0.288
-727.923	7.369	0.297	-0.224
-726.908	243.841	0.038	0.065
-725.894	135.235	-0.471	0.620
-724.879	28.764	-0.256	-0.220
-723.864	735.729	-0.254	-0.689
-722.850	-107.907	0.500	0.110
-721.835	81.868	0.229	-0.250
-720.821	785.515	0.068	0.188
-719.806	-182.862	0.638	0.012
-718.791	-55.602	0.422	0.191
-717.777	42.977	0.284	0.262
-716.762	-161.953	0.868	-0.044
-715.748	-31.612	0.267	-0.152
-714.733	800.000	-0.251	-0.733
-713.718	247.448	0.126	0.216
-712.704	800.000	-0.064	0.223
-711.689	66.246	0.386	-0.397
-710.675	-25.509	-0.605	-0.362
-709.660	-52.093	0.894	-0.420
-708.645	-20.319	-0.428	-0.266
-707.631	415.353	-0.332	-0.715
-706.616	-200.000	-0.012	0.540
-705.602	-103.762	-0.754	0.178
-704.587	-34.796	0.316	0.174
-703.572	-11.040	-0.120	0.080
-702.558	-200.000	0.016	0.324
-701.543	279.164	-0.224	0.403
-700.529	749.331	-0.231	0.629
-699.514	-200.000	0.178	-0.846
-698.499	104.974	0.281	0.335
-697.485	2.392	0.697	0.510
-696.470	800.000	-0.169	0.558
-695.456	800.000	-0.084	-0.297
-694.441	36.501	0.255	-0.227
-693.426	-99.150	0.849	0.217
-692.412	-177.791	0.606	-0.015
-691.397	-133.978	-0.901	0.113
-690.383	800.000	-0.280	0.807
-689.368	800.000	-0.247	-0.961
-688.354	64.720	0.456	-0.465
-687.339	96.341	0.438	-0.506
-686.324	-150.822	0.643	-0.049
-685.310	-200.000	-0.018	0.521
-684.295	-169.806	0.738	-0.027
-683.281	-200.000	-0.015	-0.548
-682.266	-200.000	-0.003	0.138
-681.251	51.911	0.235	0.226
-680.237	800.000	0.239	-0.765
-679.222	42.367	0.934	-0.858
-678.208	38.641	0.405	0.365
-677.193	-200.000	-0.152	0.725
-676.178	800.000	0.100	-0.420
-675.164	-200.000	0.081	0.418
-674.149	68.434	-0.474	0.491
-673.135	-38.739	0.365	0.194
-672.120	127.565	0.216	0.277
-671.105	-174.671	0.151	-0.004
-670.091	103.303	-0.227	0.269
-669.076	134.362	-0.394	0.516
-668.062	800.000	0.155	0.441
-667.047	129.566	0.356	0.460
-666.032	173.277	-0.095	0.138
-665.018	-200.000	-0.212	-1.045
-664.003	-81.491	0.706	-0.235
-662.989	-200.000	-0.148	-0.685
-661.974	27.692	-0.715	0.607
-660.959	-9.528	-0.415	0.279
-659.945	-68.251	0.346	0.136
-658.930	-200.000	0.009	-0.181
-657.916	-200.000	-0.183	-0.843
-656.901	-200.000	0.009	0.206
-655.886	-47.837	0.236	-0.115
-654.872	-78.863	-0.353	-0.122
-653.857	-50.815	-0.473	0.225
-652.843	-141.217	-0.317	0.033
-651.828	-136.507	0.268	-0.031
-650.814	800.000	0.139	0.458
-649.799	-13.360	0.740	-0.484
-648.784	-82.125	0.294	0.097
-647.770	-143.078	-0.864	0.084
-646.755	-158.031	0.936	0.056
-645.741	-119.227	0.895	0.158
-644.726	-96.789	-1.109	-0.294
-643.711	81.967	-0.361	0.394
-642.697	225.031	-0.278	0.453
-641.682	578.832	0.148	0.365
-640.668	-53.377	0.612	-0.283
-639.653	-171.200	-0.404	0.014
-638.638	380.719	-0.388	0.802
-637.624	82.525	-0.583	-0.638
-636.609	-107.177	-0.326	-0.073
-635.595	152.626	0.481	0.663
-634.580	-28.785	0.295	0.171
-633.565	123.585	0.395	-0.499
-632.551	-200.000	-0.181	-1.485
-631.536	-73.686	0.184	0.067
-630.522	555.070	-0.164	-0.397
-629.507	166.991	0.433	-0.620
-628.492	-136.019	1.140	-0.135
-627.478	-200.000	0.067	-0.483
-626.463	26.281	-0.703	-0.592
-625.449	-200.000	0.132	0.610
-624.434	-158.297	-0.530	0.031
-623.419	-71.768	-0.332	-0.125
-622.405	-29.408	0.333	0.192
-621.390	-110.480	-0.499	-0.104
-620.376	-173.023	0.623	-0.019
-619.361	-123.005	0.807	0.131
-618.346	31.412	-0.618	0.535
-617.332	-200.000	-0.072	-0.643
-616.317	104.239	-0.569	-0.674
-615.303	-200.000	-0.113	0.528
-614.288	-67.317	0.719	-0.285
-613.273	-200.000	-0.047	-0.619
-612.259	-200.000	-0.004	-0.016
-611.244	83.843	-0.093	0.102
-610.230	24.174	-0.291	-0.242
-609.215	-161.189	0.903	0.047
-608.201	-200.000	-0.026	-0.398
-607.186	113.058	0.188	-0.230
-606.171	-164.033	-0.390	0.018
-605.157	160.320	-0.157	-0.220
-604.142	-191.192	-0.082	-0.001
-603.128	264.270	-0.369	0.647
-602.113	-4.777	-0.764	-0.531
-601.098	800.000	0.114	-0.344
-600.084	-200.000	0.106	0.649
-599.069	347.262	-0.121	0.239
-598.055	100.822	-0.282	0.330
-597.040	-13.750	-0.566	-0.368
-596.025	-39.904	0.694	-0.365
-595.011	-200.000	0.020	-0.361
-593.996	101.396	0.251	0.295
-592.982	-200.000	-0.033	-0.502
-591.967	181.331	0.101	-0.150
-590.952	249.711	-0.387	0.661
-589.938	-130.293	-0.796	-0.109
-588.923	-168.727	-1.000	-0.038
-587.909	800.000	0.016	-0.049
-586.894	162.433	-0.140	0.198
-585.879	-54.194	1.020	-0.466
-584.865	373.212	0.132	-0.270
-583.850	800.000	-0.048	-0.139
-582.836	270.936	-0.098	0.173
-581.821	8.259	0.760	0.575
-580.806	-89.979	-0.507	0.149
-579.792	-179.652	-0.378	-0.008
-578.777	800.000	-0.115	-0.430
-577.763	470.950	0.169	0.383
-576.748	-149.981	0.487	0.038
-575.733	800.000	0.123	0.347
-574.719	-115.674	0.648	-0.122
-573.704	-74.840	-0.508	-0.183
-572.690	-117.471	0.278	0.051
-571.675	800.000	-0.063	-0.189
-570.661	-200.000	0.113	0.584
-569.646	-91.518	0.313	-0.090
-568.631	118.358	-0.183	0.228
-567.617	-49.317	0.359	0.173
-566.602	-200.000	-0.152	0.719
-565.588	73.253	-0.353	0.371
-564.573	800.000	0.192	0.612
-563.558	156.999	0.144	0.201
-562.544	-101.340	1.140	0.280
-561.529	766.713	-0.056	0.153
-560.515	88.214	0.253	0.283
-559.500	-200.000	-0.600	0.002
-558.485	-89.206	0.236	-0.070
-557.471	51.806	0.375	-0.359
-556.456	-200.000	0.043	-0.235
-555.442	800.000	0.082	0.240
-554.427	172.329	0.226	0.327
-553.412	-200.000	0.064	0.741
-552.398	-105.612	0.196	0.045
-551.383	800.000	-0.135	-0.390
-550.369	-200.000	0.020	-0.925
-549.354	-200.000	-0.031	-0.424
-548.339	-61.718	0.383	-0.161
-547.325	381.400	0.086	0.177
-546.310	-24.353	-0.246	-0.148
-545.296	-200.000	-0.006	-0.866
-544.281	-16.812	-0.368	0.234
-543.266	-32.897	0.729	0.407
-542.252	-88.772	0.227	-0.068
-541.237	23.770	-0.753	0.623
-540.223	116.242	0.491	-0.604
-539.208	800.000	0.301	-1.069
-538.193	240.629	-0.345	0.579
-537.179	106.823	0.073	-0.087
-536.164	15.940	0.114	0.090
-535.150	450.222	-0.260	-0.577
-534.135	-200.000	-0.004	-0.498
-533.121	22.861	-0.091	0.075
-532.106	51.049	-0.370	-0.353
-531.091	773.754	0.087	-0.237
-530.077	-16.256	-0.233	-0.149
-529.062	800.000	-0.196	0.545
-528.048	-200.000	0.027	-0.303
-527.033	-137.415	0.134	-0.015
-526.018	-18.623	-0.463	-0.290
-525.004	-55.325	0.133	0.060
-523.989	-169.655	0.205	0.007
-522.975	102.201	0.267	-0.313
-521.960	-200.000	0.000	0.487
-520.945	-200.000	0.101	-0.842
-519.931	508.986	0.200	0.467
-518.916	73.340	0.515	-0.541
-517.902	-84.603	0.344	-0.109
-516.887	800.000	0.194	-0.542
-515.872	-200.000	0.136	-0.700
-514.858	200.387	-0.293	-0.453
-513.843	495.751	-0.217	-0.500
-512.829	137.442	-0.350	0.459
-511.814	16.721	0.132	0.105
-510.799	-200.000	0.004	-0.396
-509.785	-69.464	-0.987	0.380
-508.770	-200.000	-0.090	1.111
-507.756	800.000	-0.084	0.317
-506.741	-120.297	0.747	0.128
-505.726	-70.757	-0.528	-0.200
-504.712	-35.426	0.722	0.394
-503.697	-108.788	-1.092	-0.234
-502.683	140.084	-0.345	-0.457
-501.668	226.376	0.049	-0.080
-500.653	-40.772	0.511	-0.266
-499.639	-200.000	-0.138	-0.674
-498.624	-144.332	0.278	-0.026
-497.610	69.914	0.448	0.463
-496.595	-135.331	-0.177	0.021
-495.581	-200.000	0.046	-0.491
-494.566	146.007	-0.464	-0.624
-493.551	-200.000	-0.006	0.150
-492.537	-99.517	-0.834	-0.210
-491.522	-81.317	0.816	0.270
-490.508	-163.452	-0.298	-0.014
-489.493	37.333	-0.403	-0.358
-488.478	423.748	0.337	0.726
-487.464	800.000	-0.198	-0.562
-486.449	-81.955	0.664	-0.218
-485.435	-155.811	0.647	-0.041
-484.420	-136.034	-0.746	-0.088
-483.405	-108.455	-0.570	-0.123
-482.391	-126.500	0.462	-0.069
-481.376	-200.000	-0.001	1.008
-480.362	28.202	0.381	0.322
-479.347	138.230	0.020	0.026
-478.332	800.000	0.115	0.478
-477.318	97.537	-0.268	-0.308
-476.303	89.550	-0.384	-0.429
-475.289	274.881	0.233	0.414
-474.274	800.000	-0.078	0.293
-473.259	8.772	-0.835	-0.630
-472.245	346.117	0.332	0.654
-471.230	231.109	-0.398	0.654
-470.216	78.852	0.545	-0.584
-469.201	616.715	0.222	0.558
-468.186	428.197	-0.234	-0.506
-467.172	-200.000	0.159	0.906
-466.157	97.120	0.272	-0.312
-465.143	171.292	0.321	0.461
-464.128	163.958	0.110	-0.156
-463.113	-200.000	-0.011	-0.072
-462.099	-126.757	0.161	-0.024
-461.084	99.812	0.870	-1.009
-460.070	481.093	-0.047	-0.106
-459.055	-58.222	0.661	0.288
-458.040	-200.000	0.069	-0.521
-457.026	800.000	0.087	-0.286
-456.011	-200.000	-0.053	-0.461
-454.997	35.703	-0.084	0.074
-453.982	-115.043	-0.582	-0.111
-452.968	-35.150	-0.335	-0.183
-451.953	545.552	-0.045	0.108
-450.938	-116.624	0.318	-0.059
-449.924	217.604	0.083	0.133
-448.909	188.208	-0.208	-0.311
-447.895	-68.398	0.403	-0.157
-446.880	-200.000	0.016	-0.720
-445.865	-87.591	0.806	0.244
-444.851	238.900	0.211	-0.351
-443.836	-65.965	0.654	-0.262
-442.822	294.067	0.454	0.830
-441.807	24.805	0.221	0.183
-440.792	4.895	0.356	-0.262
-439.778	28.648	-0.747	0.633
-438.763	799.944	-0.114	-0.313
-437.749	29.603	-0.622	-0.529
-436.734	-47.733	0.309	-0.150
-435.719	-200.000	-0.037	-0.594
-434.705	-36.434	0.464	-0.250
-433.690	-200.000	-0.100	0.552
-432.676	-126.445	-0.783	0.117
-431.661	-200.000	-0.026	0.555
-430.646	151.339	0.338	0.460
-429.632	40.745	-0.788	0.711
-428.617	193.313	-0.674	-1.019
-427.603	-200.000	-0.019	0.400
-426.588	405.274	0.184	-0.388
-425.573	-200.000	-0.008	-0.362
-424.559	126.698	-0.129	-0.164
-423.544	-200.000	0.094	-0.522
-422.530	-64.329	-0.402	0.164
-421.515	276.637	0.281	0.500
-420.500	-200.000	0.143	-0.907
-419.486	-4.604	-0.411	0.284
-418.471	-102.749	-1.066	-0.254
-417.457	-82.485	-0.865	-0.281
-416.442	-107.444	-0.633	0.139
-415.428	-200.000	0.086	-0.415
-414.413	59.827	-0.212	-0.209
-413.398	14.574	0.152	0.119
-412.384	205.222	-0.455	-0.706
-411.369	11.584	0.202	0.155
-410.355	-66.860	0.502	-0.198
-409.340	-106.818	1.042	0.231
-408.325	21.291	0.546	-0.444
-407.311	546.098	0.243	-0.581
-406.296	-169.938	-0.647	-0.023
-405.282	-200.000	-0.108	-0.473
-404.267	-88.786	0.307	-0.091
-403.252	-150.850	-0.929	0.070
-402.238	-200.000	0.186	-0.879
-401.223	-165.793	0.280	0.012
-400.209	445.420	0.156	0.341
-399.194	-200.000	0.075	0.891
-398.179	177.971	0.101	-0.147
-397.165	112.725	-0.254	-0.307
-396.150	-49.041	-0.218	0.104
-395.136	313.627	0.457	0.859
-394.121	-200.000	0.091	-0.480
-393.106	-159.217	-0.318	0.018
-392.092	-157.638	-0.415	-0.025
-391.077	-200.000	0.100	-0.775
-390.063	-63.147	0.690	0.284
-389.048	76.892	-0.291	-0.308
-388.033	-133.272	0.111	0.014
-387.019	166.489	-0.453	-0.642
-386.004	350.873	-0.368	-0.727
-384.990	-8.131	0.096	-0.065
-383.975	800.000	0.284	0.903
-382.960	-165.088	-0.609	-0.027
-381.946	-98.572	-0.470	0.120
-380.931	8.421	0.381	-0.286
-379.917	800.000	-0.205	-0.639
-378.902	6.954	0.129	0.096
-377.888	-52.840	-0.304	-0.140
-376.873	-88.300	-1.044	-0.312
-375.858	-45.270	-0.221	-0.109
-374.844	-200.000	0.017	-0.262
-373.829	34.391	-0.699	-0.609
-372.815	-69.015	-0.899	-0.346
-371.800	-160.415	-0.669	0.036
-370.785	354.878	0.205	0.407
-369.771	-30.566	0.894	0.505
-368.756	380.237	-0.126	0.258
-367.742	-116.321	0.401	0.074
-366.727	800.000	-0.104	0.347
-365.712	184.871	0.283	-0.419
-364.698	123.982	0.273	-0.343
-363.683	-7.972	-0.385	-0.259
-362.669	118.395	-0.131	-0.162
-361.654	-22.464	0.240	-0.145
-360.639	188.079	-0.260	-0.387
-359.625	236.881	0.340	0.561
-358.610	-141.951	-0.180	-0.018
-357.596	468.968	-0.096	0.215
-356.581	112.845	-0.244	0.295
-355.566	533.885	0.400	0.944
-354.552	354.543	-0.190	-0.376
-353.537	81.185	0.343	0.369
-352.523	138.647	0.152	0.200
-351.508	-78.337	-0.353	-0.121
-350.493	-200.000	0.037	0.792
-349.479	-200.000	-0.013	0.114
-348.464	800.000	-0.114	-0.421
-347.450	800.000	0.057	-0.208
-346.435	5.435	-0.427	0.315
-345.420	-7.635	0.815	0.549
-344.406	-200.000	0.020	0.634
-343.391	233.016	0.168	-0.276
-342.377	-200.000	-0.242	1.421
-341.362	9.242	0.251	0.189
-340.348	209.096	0.232	-0.362
-339.333	-16.250	0.948	-0.600
-338.318	-41.548	0.997	0.511
-337.304	587.896	-0.399	0.978
-336.289	800.000	-0.108	0.320
-335.275	95.993	-0.377	-0.429
-334.260	243.282	-0.013	0.022
-333.245	76.703	-0.412	0.435
-332.231	-200.000	-0.010	-0.114
-331.216	-57.004	-0.127	-0.056
-330.202	-104.298	0.106	-0.024
-329.187	130.744	0.572	0.731
-328.172	143.412	0.142	0.188
-327.158	671.132	0.153	-0.395
-326.143	358.914	0.181	0.360
-325.129	-93.310	1.197	-0.331
-324.114	49.258	-0.791	-0.741
-323.099	186.468	-0.266	0.394
-322.085	29.699	0.469	0.398
-321.070	26.257	-0.095	0.079
-320.056	-200.000	0.040	0.747
-319.041	49.488	0.373	0.350
-318.026	-136.598	-0.476	0.055
-317.012	-200.000	0.049	0.285
-315.997	-25.793	0.590	-0.346
-314.983	230.754	-0.217	0.354
-313.968	-128.734	-0.190	0.027
-312.953	437.170	0.251	0.544
-311.939	-200.000	-0.027	0.363
-310.924	48.073	0.412	-0.384
-309.910	2.814	-0.453	-0.327
-308.895	-150.802	-0.505	-0.038
-307.880	-200.000	0.084	-0.717
-306.866	-200.000	0.019	-0.087
-305.851	-200.000	-0.047	-0.535
-304.837	-200.000	0.123	-0.636
-303.822	356.466	0.329	0.652
-302.807	-47.017	0.394	0.191
-301.793	-64.283	0.481	0.195
-300.778	-41.716	-0.661	0.338
-299.764	10.546	0.316	0.240
-298.749	-200.000	-0.112	0.838
-297.735	34.374	-0.307	-0.266
-296.720	405.972	-0.282	-0.591
-295.705	-200.000	0.136	0.759
-294.691	213.819	0.203	0.319
-293.676	-43.264	-0.560	-0.282
-292.662	324.079	-0.092	0.174
-291.647	-200.000	-0.020	0.710
-290.632	-30.988	-0.445	-0.250
-289.618	15.164	-0.291	-0.227
-288.603	-200.000	-0.015	1.052
-287.589	-168.259	0.693	0.027
-286.574	412.977	0.230	0.486
-285.559	11.285	-0.160	-0.122
-284.545	-66.399	0.047	-0.019
-283.530	-70.229	0.608	-0.230
-282.516	-200.000	0.044	-0.327
-281.501	66.842	-0.622	0.630
-280.486	-82.213	-0.458	0.148
-279.472	18.362	0.206	0.164
-278.457	-200.000	-0.012	0.166
-277.443	-48.575	0.122	-0.058
-276.428	800.000	-0.014	0.048
-275.413	56.950	0.638	-0.618
-274.399	-6.321	0.298	0.202
-273.384	333.170	-0.134	0.257
-272.370	246.215	0.469	0.786
-271.355	-188.646	0.561	0.007
-270.340	326.498	-0.279	0.530
-269.326	-56.247	-0.359	-0.159
-268.311	-93.513	-0.202	-0.056
-267.297	-200.000	0.044	-0.318
-266.282	75.558	-0.494	0.518
-265.267	25.172	-0.275	-0.227
-264.253	-200.000	0.002	0.152
-263.238	107.525	-0.333	-0.393
-262.224	-200.000	-0.094	-0.426
-261.209	-49.562	-1.361	0.644
-260.195	-154.769	0.260	-0.017
-259.180	-123.896	0.023	-0.004
-258.165	-200.000	-0.014	-0.140
-257.151	-71.615	-0.757	-0.281
-256.136	296.368	-0.424	0.771
-255.122	-98.852	-0.431	0.109
-254.107	79.368	0.366	-0.389
-253.092	-145.531	0.306	0.027
-252.078	295.591	-0.114	0.208
-251.063	-61.196	0.210	0.088
-250.049	-62.929	-0.397	0.163
-249.034	-137.004	-1.144	-0.130
-248.019	-50.935	0.818	0.382
-247.005	469.701	0.138	0.309
-245.990	800.000	-0.089	-0.293
-244.976	-200.000	0.011	0.581
-243.961	-200.000	0.140	0.804
-242.946	43.048	-0.180	-0.163
-241.932	-200.000	0.080	-0.867
-240.917	132.980	0.448	-0.575
-239.903	800.000	-0.077	0.234
-238.888	-200.000	0.052	-0.481
-237.873	217.127	-0.305	-0.482
-236.859	109.235	0.203	0.241
-235.844	408.488	-0.330	0.694
-234.830	800.000	0.178	0.522
-233.815	716.558	-0.158	0.417
-232.800	-3.401	0.530	0.366
-231.786	68.341	0.439	-0.447
-230.771	88.673	0.284	0.313
-229.757	189.087	-0.144	0.214
-228.742	-200.000	-0.185	-0.985
-227.727	-45.779	-0.638	0.313
-226.713	-117.816	0.316	0.056
-225.698	-54.927	0.099	0.044
-224.684	102.255	-0.318	0.369
-223.669	386.876	-0.075	-0.153
-222.655	131.361	0.165	0.211
-221.640	-200.000	-0.061	-0.288
-220.625	228.420	-0.048	0.078
-219.611	-11.766	-0.166	-0.108
-218.596	47.768	0.231	-0.214
-217.582	452.190	-0.105	-0.230
-216.567	800.000	0.190	-0.815
-215.552	111.036	0.555	0.663
-214.538	27.599	0.871	0.727
-213.523	106.642	0.332	-0.390
-212.509	271.448	0.309	-0.539
-211.494	518.735	-0.193	0.449
-210.479	800.000	0.285	-0.934
-209.465	-139.953	-0.194	-0.020
-208.450	370.843	-0.175	0.351
-207.436	-200.000	-0.039	-0.733
-206.421	800.000	0.143	0.613
-205.406	-26.966	0.234	-0.135
-204.392	-200.000	-0.106	0.699
-203.377	-200.000	-0.079	-0.378
-202.363	800.000	0.122	0.403
-201.348	-191.715	0.519	-0.005
-200.333	-157.876	-0.663	-0.039
-199.319	-107.621	0.334	0.072
-198.304	-66.055	0.269	-0.106
-197.290	75.671	-0.425	0.445
-196.275	199.056	0.374	0.568
-195.260	-50.731	0.760	-0.355
-194.246	-107.016	1.039	0.228
-193.231	388.604	0.389	-0.798
-192.217	486.768	0.140	0.316
-191.202	-55.455	-1.045	-0.464
-190.187	700.077	-0.283	-0.738
-189.173	800.000	0.254	0.892
-188.158	-200.000	0.059	-0.292
-187.144	309.097	0.369	0.684
-186.129	-38.819	0.777	0.406
-185.114	253.708	0.270	0.457
-184.100	-200.000	-0.012	0.209
-183.085	-23.235	0.133	-0.079
-182.071	332.149	0.179	-0.343
-181.056	-93.494	-0.664	-0.182
-180.042	800.000	-0.199	0.803
-179.027	-200.000	-0.055	0.291
-178.012	39.331	0.379	-0.336
-176.998	-151.374	-0.723	-0.053
-175.983	-30.093	-0.388	-0.219
-174.969	723.397	-0.079	0.208
-173.954	-1.660	-0.228	0.159
-172.939	569.049	-0.224	0.539
-171.925	-66.620	-0.726	-0.285
-170.910	-44.916	-0.695	0.343
-169.896	15.156	0.196	0.152
-168.881	-200.000	-0.018	-0.337
-167.866	800.000	-0.086	0.256
-166.852	208.680	0.098	-0.151
-165.837	-200.000	-0.031	0.243
-164.823	-62.363	-0.424	0.174
-163.808	-200.000	-0.152	0.896
-162.793	800.000	0.097	-0.308
-161.779	800.000	0.183	-0.619
-160.764	800.000	0.176	-0.665
-159.750	-200.000	-0.011	0.797
-158.735	508.391	0.192	0.442
-157.720	-200.000	-0.048	-0.226
-156.706	125.853	0.564	-0.705
-155.691	-11.162	-0.343	-0.224
-154.677	800.000	-0.145	0.475
-153.662	30.894	-0.428	0.363
-152.647	14.114	-0.751	-0.579
-151.633	332.925	0.081	-0.155
-150.618	-135.168	-0.680	-0.081
-149.604	-32.230	-0.237	-0.131
-148.589	-27.893	0.357	0.204
-147.574	-54.808	0.417	-0.186
-146.560	800.000	-0.306	1.069
-145.545	-39.085	-0.990	0.515
-144.531	-200.000	0.073	0.933
-143.516	455.387	0.375	-0.822
-142.502	-40.158	0.431	0.222
-141.487	-200.000	-0.122	-0.565
-140.472	-105.523	-0.567	-0.127
-139.458	-80.918	1.069	0.351
-138.443	-108.552	-0.242	-0.052
-137.429	-200.000	0.032	0.344
-136.414	-200.000	0.033	0.323
-135.399	53.176	-0.368	-0.348
-134.385	800.000	0.135	-0.563
-133.370	-200.000	-0.123	-1.116
-132.356	-200.000	-0.044	0.434
-131.341	654.917	-0.271	0.688
-130.326	-94.711	0.620	-0.166
-129.312	423.361	-0.369	0.785
-128.297	800.000	0.076	0.265
-127.283	61.772	0.330	-0.325
-126.268	168.286	-0.124	-0.174
-125.253	-102.437	-0.469	0.111
-124.239	-200.000	-0.105	-0.579
-123.224	26.039	-0.296	0.244
-122.210	-58.789	-0.376	-0.161
-121.195	-15.040	0.394	-0.250
-120.180	-200.000	-0.024	-0.365
-119.166	-122.346	-0.261	-0.042
-118.151	-26.324	-0.801	0.465
-117.137	25.465	0.378	-0.310
-116.122	114.602	-0.260	0.313
-115.107	-14.966	0.536	0.339
-114.093	-200.000	-0.125	-0.748
-113.078	-200.000	-0.029	-1.317
-112.064	769.676	0.180	-0.485
-111.049	758.273	-0.230	-0.614
-110.034	444.939	0.122	-0.265
-109.020	800.000	-0.137	-0.578
-108.005	-22.549	-0.385	0.230
-106.991	-109.643	1.066	-0.222
-105.976	-200.000	-0.073	-0.730
-104.962	-107.435	0.349	-0.076
-103.947	-96.721	0.295	0.077
-102.932	300.416	-0.247	0.451
-101.918	526.605	-0.238	-0.555
-100.903	-43.451	-0.218	0.109
-99.889	297.191	0.119	-0.216
-98.874	800.000	0.130	-0.410
-97.859	5.513	0.244	0.178
-96.845	11.352	0.230	-0.174
-95.830	-5.746	-0.294	-0.199
-94.816	-200.000	-0.164	0.817
-93.801	-200.000	-0.118	0.860
-92.786	71.333	0.240	-0.246
-91.772	75.122	-0.196	0.204
-90.757	-147.355	0.611	0.051
-89.743	178.298	0.473	-0.681
-88.728	116.509	0.321	-0.389
-87.713	588.309	0.240	-0.584
-86.699	-84.464	0.250	0.078
-85.684	-200.000	0.971	-0.002
-84.670	142.096	0.606	0.793
-83.655	-200.000	-0.002	-0.884
-82.640	-200.000	0.044	0.650
-81.626	52.494	-0.301	0.283
-80.611	-200.000	0.033	-0.801
-79.597	800.000	-0.161	0.518
-78.582	599.089	-0.109	-0.266
-77.567	15.958	0.656	0.510
-76.553	-131.679	-0.283	0.037
-75.538	800.000	0.269	-0.766
-74.524	-82.943	0.603	-0.192
-73.509	360.640	-0.254	0.501
-72.494	-144.165	0.775	-0.072
-71.480	-200.000	-0.129	0.813
-70.465	-151.690	-0.771	0.056
-69.451	-72.896	-0.340	0.123
-68.436	89.208	0.741	0.814
-67.422	61.663	-0.484	0.475
-66.407	59.334	-0.490	0.476
-65.392	-15.823	0.262	0.165
-64.378	-72.568	-0.127	-0.046
-63.363	-50.648	0.463	-0.215
-62.349	800.000	-0.195	0.542
-61.334	144.296	-0.757	-0.996
-60.319	-132.314	0.514	-0.065
-59.305	-200.000	-0.048	-0.972
-58.290	54.935	0.665	0.633
-57.276	511.382	0.730	1.675
-56.261	-200.000	95.279	576.340
-55.246	635.231	1378.277	3447.276
-54.232	196.562	2556.452	3838.820
-53.217	117.914	2158.846	2621.159
-52.203	44.205	1701.978	1538.922
-51.188	36.769	1516.698	1320.844
-50.173	34.522	1490.122	1282.560
-49.159	55.465	1541.476	1470.328
-48.144	56.376	1559.504	1493.691
-47.130	36.956	1517.469	1322.580
-46.115	34.004	1502.694	1289.661
-45.100	33.727	1499.091	1284.646
-44.086	33.584	1496.980	1281.815
-43.071	33.785	1494.702	1281.171
-42.057	33.711	1493.904	1279.942
-41.042	33.834	1492.597	1279.599
-40.027	33.509	1492.260	1277.068
-39.013	33.893	1488.443	1276.330
-37.998	33.717	1488.869	1275.464
-36.984	33.511	1489.051	1274.184
-35.969	33.848	1485.135	1273.044
-34.954	33.733	1483.529	1270.847
-33.940	33.735	1482.722	1270.116
-32.925	33.853	1480.315	1268.795
-31.911	33.815	1480.181	1268.372
-30.896	33.805	1480.039	1268.131
-29.881	33.645	1477.688	1265.001
-28.867	33.755	1476.733	1264.866
-27.852	33.725	1474.491	1262.697
-26.838	33.818	1473.375	1262.307
-25.823	33.675	1472.139	1260.253
-24.809	33.789	1470.385	1259.457
-23.794	33.790	1468.837	1258.086
-22.779	33.553	1468.062	1255.803
-21.765	33.703	1467.284	1256.084
-20.750	33.829	1464.872	1254.798
-19.736	33.789	1464.286	1253.984
-18.721	33.909	1462.178	1252.916
-17.706	34.048	1461.457	1253.165
-16.692	33.616	1462.098	1250.816
-15.677	33.398	1461.941	1249.200
-14.663	33.711	1459.533	1249.152
-13.648	33.851	1458.617	1249.237
-12.633	33.829	1457.352	1247.961
-11.619	33.744	1457.253	1247.270
-10.604	33.679	1455.847	1245.589
-9.590	33.712	1454.284	1244.417
-8.575	33.780	1454.167	1244.713
-7.560	33.807	1453.300	1244.103
-6.546	33.930	1451.465	1243.286
-5.531	33.757	1451.235	1241.905
-4.517	33.864	1449.931	1241.437
-3.502	33.838	1449.858	1241.157
-2.487	33.898	1447.813	1239.750
-1.473	33.802	1446.599	1238.035
-0.458	33.553	1446.515	1236.290
0.556	34.738	1436.231	1225.669
1.571	31.793	1410.428	1184.955
2.586	27.429	1351.932	1109.190
3.600	25.675	1270.004	1031.835
4.615	24.347	1222.858	986.103
5.629	20.537	1168.016	921.638
6.644	11.421	1082.453	809.049
7.659	4.066	1041.815	743.405
8.673	3.069	1036.269	734.621
9.688	2.722	1032.361	730.137
10.702	2.738	1030.836	729.067
11.717	2.751	1028.900	727.696
12.731	6.139	1032.240	746.095
13.746	15.428	1045.970	800.445
14.761	23.511	1056.240	847.003
15.775	26.056	1058.416	860.834
16.790	26.775	1057.937	863.793
17.804	26.335	1057.813	861.519
18.819	26.228	1057.022	860.287
19.834	26.291	1056.828	860.355
20.848	26.358	1056.217	860.098
21.863	26.521	1055.069	859.865
22.877	26.646	1055.224	860.509
23.892	26.316	1054.166	858.000
24.907	26.542	1053.251	858.255
25.921	26.461	1053.032	857.614
26.936	26.529	1051.562	856.663
27.950	26.425	1050.772	855.452
28.965	26.397	1049.345	854.082
29.980	26.143	1048.040	851.746
30.994	26.244	1047.336	851.574
32.009	26.406	1046.658	851.714
33.023	26.461	1046.602	851.848
34.038	26.709	1044.375	851.129
35.053	26.352	1043.879	848.970
36.067	26.556	1043.465	849.517
37.082	26.237	1043.617	848.070
38.096	26.372	1041.814	847.162
39.111	26.492	1041.441	847.342
40.126	26.753	1041.065	848.186
41.140	26.538	1039.167	845.560
42.155	26.391	1037.818	843.699
43.169	26.067	1036.530	841.067
44.184	25.782	1036.638	839.755
45.199	26.042	1035.565	840.022
46.213	26.026	1034.296	838.842
47.228	26.005	1032.786	837.447
48.242	25.904	1033.203	837.242
49.257	26.255	1031.886	837.727
50.271	26.304	1031.481	837.551
51.286	26.691	1030.194	838.226
52.301	26.649	1029.334	837.256
53.315	26.436	1029.400	836.251
54.330	26.356	1028.455	835.041
55.344	26.148	1027.698	833.391
56.359	26.743	1026.210	834.853
57.374	26.660	1025.650	833.942
58.388	26.216	1025.614	831.795
59.403	25.946	1024.599	829.652
60.417	26.259	1023.696	830.289
61.432	25.783	1024.030	828.299
62.447	25.727	1022.757	826.938
63.461	26.032	1021.355	827.129
64.476	25.944	1021.478	826.750
65.490	25.963	1021.168	826.514
66.505	26.040	1019.039	825.073
67.520	26.046	1018.570	824.645
68.534	26.279	1017.162	824.496
69.549	25.839	1017.467	822.661
70.563	25.591	1016.097	820.350
71.578	25.579	1015.355	819.626
72.593	25.666	1014.001	818.852
73.607	25.729	1013.027	818.282
74.622	25.671	1012.377	817.423
75.636	25.581	1012.632	817.146
76.651	25.955	1011.350	817.734
77.666	25.724	1009.517	815.135
78.680	25.535	1009.019	813.804
79.695	25.848	1008.669	814.869
80.709	25.986	1007.613	814.565
81.724	25.984	1007.693	814.550
82.739	26.081	1005.979	813.531
83.753	25.907	1005.646	812.401
84.768	26.167	1005.388	813.297
85.782	26.193	1004.687	812.770
86.797	26.812	1003.047	814.155
87.812	26.542	1003.332	813.102
88.826	26.824	1001.848	813.091
89.841	26.360	1000.654	809.970
90.855	26.489	1000.892	810.672
91.870	26.825	999.964	811.352
92.884	26.662	998.994	809.764
93.899	26.527	997.463	807.846
94.914	26.507	996.834	807.179
95.928	26.868	995.927	807.979
96.943	26.923	995.084	807.471
97.957	26.463	993.960	804.441
98.972	26.304	992.531	802.509
99.987	25.991	992.567	801.076
101.001	25.874	992.286	800.257
102.016	26.562	991.126	802.300
103.030	26.404	990.558	801.074
104.045	26.416	989.799	800.440
105.060	25.887	989.378	797.686
106.074	25.989	987.919	796.894
107.089	26.344	985.942	796.792
108.103	26.277	986.589	796.949
109.118	26.656	985.072	797.322
110.133	26.357	984.168	795.205
111.147	25.982	983.745	793.144
112.162	25.892	982.277	791.493
113.176	25.751	980.273	789.190
114.191	26.022	980.615	790.587
115.206	26.269	978.865	790.182
116.220	26.094	977.685	788.397
117.235	25.652	978.427	786.994
118.249	25.686	977.327	786.186
119.264	25.797	976.460	785.907
120.279	25.605	975.774	784.445
121.293	25.590	975.668	784.228
122.308	25.770	974.135	783.708
123.322	25.590	974.207	782.911
124.337	25.550	974.190	782.657
125.352	25.589	971.517	780.607
126.366	25.431	969.402	778.153
127.381	24.904	967.991	774.675
128.395	25.636	967.830	777.643
129.410	25.995	968.364	779.555
130.424	25.696	968.460	778.268
131.439	25.814	967.838	778.213
132.454	25.999	966.655	777.988
133.468	26.361	964.430	777.688
134.483	25.914	964.094	775.428
135.497	26.326	962.739	776.037
136.512	26.288	963.203	776.179
137.527	26.232	961.582	774.564
138.541	26.357	962.155	775.492
139.556	26.940	960.163	776.314
140.570	26.473	959.485	773.702
141.585	26.505	959.462	773.751
142.600	26.605	958.788	773.567
143.614	26.382	958.305	772.155
144.629	26.530	956.422	771.201
145.643	26.752	957.160	772.671
146.658	26.802	954.705	770.834
147.673	26.721	954.150	769.973
148.687	26.221	953.209	767.026
149.702	26.316	952.010	766.395
150.716	26.181	951.189	765.096
151.731	26.056	950.374	763.843
152.746	26.370	948.865	763.888
153.760	26.655	949.204	765.299
154.775	26.513	947.918	763.595
155.789	26.884	948.066	765.211
156.804	27.045	946.194	764.311
157.819	26.819	945.270	762.548
158.833	26.624	945.510	761.854
159.848	26.778	944.497	761.616
160.862	26.910	942.971	760.872
161.877	26.809	942.380	759.902
162.892	26.460	942.090	758.139
163.906	26.591	941.839	758.419
164.921	26.652	940.279	757.354
165.935	26.906	938.563	756.964
166.950	26.586	938.061	755.155
167.964	26.610	937.001	754.337
168.979	26.359	937.062	753.272
169.994	26.656	935.805	753.432
171.008	26.587	933.252	751.025
172.023	26.817	933.234	751.895
173.037	26.581	933.676	751.207
174.052	26.599	931.725	749.643
175.067	26.524	930.534	748.309
176.081	26.324	929.669	746.723
177.096	26.647	928.191	746.803
178.110	26.265	928.760	745.617
179.125	26.323	927.137	744.485
180.140	26.083	926.202	742.682
181.154	25.975	925.425	741.549
182.169	26.236	925.459	742.585
183.183	26.353	925.303	742.874
184.198	26.757	924.029	743.444
185.213	26.670	923.800	742.837
186.227	26.353	924.442	741.987
187.242	26.352	923.638	741.269
188.256	26.712	922.326	741.628
189.271	26.595	922.464	741.193
190.286	26.852	920.192	740.349
191.300	26.932	919.055	739.697
192.315	26.163	918.046	735.688
193.329	25.221	917.082	731.011
194.344	24.759	915.712	727.978
195.359	25.142	916.941	730.450
196.373	26.116	917.291	734.629
197.388	26.511	916.744	735.735
198.402	26.437	916.103	734.852
199.417	26.684	915.228	735.089
200.432	26.638	914.617	734.344
201.446	26.164	915.099	732.743
202.461	26.217	913.806	731.859
203.475	25.976	913.704	730.734
204.490	25.578	912.290	727.929
205.504	24.622	908.830	721.247
206.519	24.909	909.612	722.964
207.534	26.041	909.927	727.721
208.548	26.321	908.632	727.747
209.563	26.362	909.329	728.407
210.577	26.591	908.406	728.525
211.592	26.247	907.794	726.587
212.607	26.810	907.436	728.497
213.621	26.649	906.965	727.408
214.636	26.531	906.029	726.122
215.650	26.516	905.925	725.913
216.665	26.745	904.573	725.682
217.680	26.465	904.418	724.374
218.694	26.717	903.762	724.792
219.709	26.791	903.271	724.631
220.723	26.345	902.273	721.982
221.738	26.471	901.509	721.810
222.753	26.390	901.940	721.770
223.767	26.467	900.605	720.944
224.782	26.586	900.139	720.979
225.796	26.555	900.173	720.819
226.811	26.965	898.680	721.189
227.826	26.545	896.910	718.040
228.840	25.505	896.739	713.712
229.855	25.571	895.769	713.139
230.869	25.678	895.067	712.941
231.884	25.671	893.927	711.943
232.899	25.434	893.403	710.527
233.913	26.224	894.224	714.241
234.928	26.836	892.901	715.535
235.942	26.248	892.721	713.007
236.957	26.324	892.479	713.053
237.972	26.110	891.209	711.131
238.986	25.933	890.776	710.027
240.001	26.034	889.999	709.744
241.015	26.508	889.426	711.085
242.030	25.799	890.087	708.760
243.045	26.449	888.557	710.033
244.059	26.632	887.350	709.725
245.074	26.720	887.980	710.510
246.088	26.677	886.704	709.255
247.103	26.036	885.679	705.866
248.117	26.390	884.421	706.185
249.132	26.820	885.519	708.681
250.147	26.901	886.596	709.795
251.161	27.436	884.771	710.359
252.176	27.843	883.678	711.007
253.190	27.192	884.264	708.875
254.205	27.480	883.241	709.114
255.220	27.711	883.444	710.114
256.234	27.502	881.974	708.055
257.249	27.529	881.333	707.586
258.263	27.347	880.434	706.095
259.278	27.267	880.656	705.897
260.293	27.363	880.186	705.832
261.307	27.587	879.469	706.063
262.322	27.588	878.080	704.890
263.336	27.408	878.002	704.067
264.351	26.955	876.639	701.164
265.366	25.770	874.692	694.972
266.380	25.493	873.551	692.938
267.395	26.272	873.829	696.100
268.409	27.106	874.074	699.446
269.424	27.062	872.826	698.215
270.439	26.770	873.778	697.794
271.453	26.819	873.168	697.430
272.468	27.354	871.012	697.700
273.482	27.277	871.658	697.860
274.497	27.472	870.589	697.690
275.512	27.081	870.065	695.710
276.526	26.771	868.768	693.424
277.541	26.778	868.929	693.522
278.555	27.236	867.756	694.272
279.570	26.901	867.495	692.724
280.585	26.768	866.832	691.624
281.599	27.136	866.045	692.337
282.614	27.176	865.907	692.319
283.628	26.707	865.214	689.916
284.643	26.192	864.326	687.190
285.657	27.031	864.502	690.462
286.672	26.530	864.110	688.180
287.687	25.897	863.042	684.866
288.701	26.431	863.098	686.878
289.716	26.922	861.589	687.478
290.730	26.602	860.749	685.536
291.745	26.170	861.949	684.791
292.760	26.054	858.958	681.915
293.774	26.239	859.756	683.190
294.789	27.229	859.631	686.771
295.803	27.766	859.581	688.696
296.818	27.715	858.914	687.911
297.833	27.481	859.393	687.350
298.847	27.442	857.531	685.651
299.862	26.912	856.975	683.153
300.876	27.466	856.125	684.499
301.891	27.965	855.774	686.029
302.906	27.792	855.658	685.228
303.920	27.696	854.422	683.818
304.935	27.552	853.271	682.295
305.949	27.565	854.069	682.923
306.964	27.945	853.209	683.598
307.979	27.429	851.891	680.552
308.993	27.154	852.865	680.239
310.008	27.861	851.210	681.500
311.022	28.137	851.057	682.347
312.037	27.929	850.601	681.147
313.052	27.587	850.333	679.594
314.066	27.331	849.318	677.771
315.081	26.604	847.974	673.933
316.095	26.154	846.775	671.247
317.110	26.423	847.224	672.545
318.125	26.974	847.411	674.682
319.139	26.949	845.783	673.235
320.154	25.872	843.868	667.663
321.168	25.249	843.028	664.631
322.183	25.982	843.838	667.928
323.197	27.038	843.436	671.459
324.212	27.244	844.021	672.626
325.227	27.364	843.436	672.545
326.241	27.355	842.554	671.746
327.256	27.461	842.027	671.659
328.270	27.327	841.890	670.998
329.285	27.524	840.186	670.303
330.300	27.184	840.316	669.099
331.314	26.882	840.249	667.871
332.329	26.776	839.084	666.498
333.343	27.189	838.760	667.700
334.358	27.365	839.068	668.532
335.373	27.692	837.703	668.582
336.387	27.287	838.058	667.323
337.402	27.748	837.233	668.295
338.416	27.670	837.541	668.196
339.431	28.151	836.086	668.737
340.446	28.382	834.909	668.579
341.460	28.640	834.379	669.034
342.475	27.883	834.836	666.580
343.489	27.809	833.530	665.208
344.504	27.995	832.654	665.128
345.519	28.145	832.525	665.511
346.533	28.488	832.299	666.519
347.548	28.501	831.824	666.129
348.562	28.404	831.281	665.280
349.577	28.694	830.862	665.939
350.592	28.430	829.863	664.121
351.606	28.445	830.131	664.331
352.621	28.294	829.506	663.227
353.635	27.997	829.895	662.402
354.650	28.222	828.190	661.796
355.665	28.006	827.664	660.537
356.679	26.657	826.652	654.798
357.694	26.907	825.024	654.352
358.708	27.154	825.490	655.556
359.723	27.564	825.057	656.633
360.738	27.273	825.103	655.561
361.752	27.823	824.378	656.909
362.767	28.008	824.325	657.473
363.781	28.323	824.764	658.898
364.796	28.761	822.836	658.870
365.810	28.916	823.122	659.599
366.825	28.940	822.940	659.479
367.840	28.734	822.529	658.354
368.854	28.648	822.048	657.602
369.869	28.114	821.656	655.319
370.883	28.143	820.973	654.820
371.898	28.131	820.360	654.231
372.913	28.408	818.909	654.003
373.927	27.743	819.272	651.858
374.942	28.137	817.917	652.130
375.956	28.477	817.392	652.863
376.971	28.790	817.018	653.621
377.986	28.731	816.927	653.281
379.000	28.881	816.111	653.104
380.015	28.681	816.240	652.439
381.029	28.576	814.954	650.978
382.044	28.181	815.314	649.808
383.059	28.661	814.257	650.609
384.073	28.739	814.035	650.650
385.088	28.861	812.866	650.091
386.102	28.837	812.165	649.385
387.117	28.975	811.243	649.079
388.132	28.126	811.393	646.144
389.146	28.067	811.657	646.090
390.161	27.753	809.874	643.505
391.175	27.618	809.657	642.798
392.190	28.080	809.723	644.425
393.205	28.708	808.639	645.712
394.219	27.662	806.538	640.306
395.234	25.535	805.531	631.983
396.248	24.656	804.392	627.947
397.263	26.086	804.254	632.805
398.278	27.644	806.546	640.023
399.292	28.349	806.274	642.225
400.307	28.039	805.532	640.492
401.321	28.095	804.092	639.486
402.336	27.963	804.261	639.102
403.350	28.372	804.902	640.986
404.365	28.658	804.262	641.418
405.380	28.933	804.046	642.149
406.394	29.448	804.188	644.003
407.409	29.974	803.626	645.331
408.423	29.657	802.378	643.169
409.438	29.495	801.856	642.131
410.453	29.178	803.066	641.936
411.467	29.461	802.696	642.571
412.482	29.341	802.088	641.608
413.496	29.421	800.190	640.312
414.511	29.375	800.225	640.123
415.526	29.443	800.214	640.293
416.540	29.262	799.219	638.815
417.555	29.451	798.746	639.035
418.569	29.314	797.787	637.737
419.584	29.006	797.966	636.756
420.599	29.314	796.797	636.831
421.613	159.197	1370.257	1792.606
422.628	138.037	1453.812	1792.678
