DTS Sentinel unit serial number:	SN413079Multiplexer serial number:	ORYXHardware model number:	OX4-SRSoftware version number:	ORYX F/W v4.00 Oryx Data Collector v3.7.2.0data status	okinstallation	princeton_trtdifferential loss correction	single-endedforward channel	channel 3reverse channel	N/Adate	2019/09/19time	14:44:35forward acquisition time	60.00reverse acquisition time	0.00gamma	496.2192k internal	0.2318k external	0.2318temperature offset calibration	1.0006default loss term (dB/km)	0.3790temperature slope calibration	1.0000multiplexer offset coefficient	1.0000multiplexer slope coefficient	1.0000fibre end	0.00T internal ref (°C)	32.62T ext. ref 1 (°C)	1.09T ext. ref 2 (°C)	29.58length (m)	temperature (°C)	Stokes	anti-Stokes-747.200	-94.437	0.229	0.063
-746.185	278.527	0.189	0.341
-745.171	-121.534	0.048	-0.008
-744.156	124.274	0.350	0.445
-743.142	391.112	0.121	-0.254
-742.127	-125.128	-0.267	0.041
-741.112	135.687	0.049	-0.065
-740.098	48.344	-0.095	0.090
-739.083	-12.729	-0.389	0.257
-738.069	800.000	0.137	0.482
-737.054	310.735	0.158	0.299
-736.039	2.710	-0.257	-0.189
-735.025	244.144	-0.091	-0.155
-734.010	-4.412	-0.108	-0.076
-732.996	538.693	-0.146	-0.351
-731.981	-75.938	-0.352	0.126
-730.966	263.494	-0.166	-0.291
-729.952	800.000	0.126	-0.435
-728.937	-47.594	-0.444	-0.218
-727.923	-200.000	-0.055	-0.311
-726.908	103.816	-0.154	-0.183
-725.894	60.879	-0.334	-0.335
-724.879	-10.693	-0.036	0.024
-723.864	-47.096	0.240	-0.119
-722.850	-200.000	0.011	-0.049
-721.835	-89.630	-0.381	-0.113
-720.821	-53.972	0.547	-0.252
-719.806	-18.918	0.142	-0.090
-718.791	732.646	0.089	0.239
-717.777	153.861	0.108	-0.149
-716.762	800.000	0.059	-0.192
-715.748	-200.000	0.023	0.251
-714.733	-1.559	-0.099	-0.070
-713.718	-200.000	0.022	0.214
-712.704	3.859	-0.036	-0.027
-711.689	-112.279	-0.290	-0.059
-710.675	321.365	0.100	0.192
-709.660	-200.000	-0.030	0.169
-708.645	11.299	0.166	-0.129
-707.631	319.436	-0.099	0.190
-706.616	-67.475	0.291	-0.115
-705.602	-135.396	-0.189	0.023
-704.587	-200.000	0.172	0.000
-703.572	529.015	0.034	-0.080
-702.558	202.028	0.131	-0.205
-701.543	529.860	-0.108	0.257
-700.529	-46.694	0.083	-0.041
-699.514	-200.000	-0.025	0.424
-698.499	-88.047	-0.387	0.117
-697.485	-200.000	0.068	0.301
-696.470	-200.000	-0.013	-0.218
-695.456	800.000	0.062	0.226
-694.441	48.447	0.053	-0.050
-693.426	191.402	-0.117	-0.179
-692.412	208.093	-0.092	-0.145
-691.397	187.805	-0.044	0.067
-690.383	-102.152	-0.124	-0.030
-689.368	-59.143	-0.185	0.081
-688.354	116.833	0.050	0.062
-687.339	-118.901	0.217	0.039
-686.324	-65.109	-0.298	-0.121
-685.310	93.835	-0.086	0.099
-684.295	174.291	-0.105	-0.153
-683.281	7.930	-0.175	0.133
-682.266	764.135	0.084	-0.231
-681.251	-60.490	-0.118	0.051
-680.237	-200.000	0.000	-0.329
-679.222	44.970	0.079	-0.073
-678.208	-97.175	-0.070	0.018
-677.193	-53.221	-0.127	0.059
-676.178	-200.000	0.007	0.055
-675.164	-200.000	0.012	-0.093
-674.149	-200.000	-0.039	0.309
-673.135	-119.954	-0.251	-0.043
-672.120	41.268	-0.185	-0.169
-671.105	-109.780	-0.294	-0.062
-670.091	-130.429	-0.069	0.009
-669.076	-39.532	0.256	-0.135
-668.062	-27.399	0.139	-0.082
-667.047	-26.024	-0.176	-0.104
-666.032	800.000	0.039	0.140
-665.018	461.377	-0.155	-0.348
-664.003	-200.000	-0.087	-0.401
-662.989	-200.000	-0.001	0.136
-661.974	173.374	0.088	0.128
-660.959	30.975	0.183	0.158
-659.945	-171.603	-0.091	-0.003
-658.930	-30.964	0.054	0.031
-657.916	-155.641	0.237	-0.015
-656.901	-164.727	-0.212	-0.010
-655.886	-100.243	-0.113	0.028
-654.872	-11.564	-0.173	0.114
-653.857	101.476	0.354	-0.416
-652.843	100.633	0.131	-0.154
-651.828	88.668	0.056	-0.063
-650.814	-54.739	-0.099	-0.045
-649.799	-188.911	-0.081	0.001
-648.784	-71.872	-0.123	0.046
-647.770	25.326	0.016	-0.013
-646.755	-99.425	0.142	0.036
-645.741	-29.483	0.343	-0.198
-644.726	550.125	0.021	-0.050
-643.711	-117.396	-0.213	-0.039
-642.697	-98.488	0.265	-0.068
-641.682	-200.000	0.070	-0.427
-640.668	800.000	0.046	0.168
-639.653	66.284	0.094	0.097
-638.638	-168.825	-0.137	-0.005
-637.624	77.499	-0.053	-0.056
-636.609	-23.088	-0.140	-0.085
-635.595	-200.000	-0.005	-0.279
-634.580	26.356	0.061	0.051
-633.565	-117.786	0.455	-0.082
-632.551	-116.993	0.024	0.004
-631.536	20.389	0.025	0.021
-630.522	-91.287	-0.343	-0.099
-629.507	-200.000	0.028	-0.211
-628.492	800.000	-0.038	0.167
-627.478	481.891	0.059	0.134
-626.463	25.571	-0.416	-0.349
-625.449	-22.084	-0.173	-0.106
-624.434	-147.563	0.133	-0.011
-623.419	-200.000	-0.014	0.144
-622.405	603.168	-0.055	-0.138
-621.390	211.311	-0.219	-0.348
-620.376	800.000	0.039	0.118
-619.361	35.863	-0.127	0.113
-618.346	105.090	0.239	-0.284
-617.332	800.000	0.059	-0.244
-616.317	61.761	-0.366	0.367
-615.303	-52.166	-0.135	-0.063
-614.288	-133.333	0.086	0.011
-613.273	122.223	-0.074	-0.093
-612.259	-200.000	0.025	-0.284
-611.244	-106.826	-0.047	-0.011
-610.230	-200.000	0.015	-0.088
-609.215	800.000	-0.127	-0.403
-608.201	123.532	-0.123	0.156
-607.186	800.000	-0.084	-0.243
-606.171	-200.000	0.043	-0.320
-605.157	7.517	0.181	-0.137
-604.142	206.745	-0.113	-0.178
-603.128	-71.393	-0.276	-0.104
-602.113	-144.128	-0.200	0.019
-601.098	-196.407	0.051	-0.000
-600.084	145.365	-0.094	-0.126
-599.069	152.542	-0.265	0.364
-598.055	-106.096	0.395	0.089
-597.040	120.666	0.233	0.291
-596.025	-4.552	-0.062	0.043
-595.011	-200.000	-0.012	-0.078
-593.996	-158.388	-0.145	-0.008
-592.982	-74.561	0.137	-0.050
-591.967	-200.000	0.021	-0.206
-590.952	54.323	0.199	0.193
-589.938	-2.697	-0.027	-0.019
-588.923	4.591	-0.256	0.189
-587.909	206.777	0.176	-0.275
-586.894	-100.666	0.103	0.025
-585.879	-200.000	-0.078	0.483
-584.865	167.802	-0.119	0.170
-583.850	-200.000	0.004	0.122
-582.836	800.000	0.033	0.124
-581.821	-200.000	-0.019	-0.097
-580.806	787.444	-0.081	-0.223
-579.792	-29.902	-0.124	-0.071
-578.777	-118.779	-0.297	-0.053
-577.763	-66.192	0.072	0.029
-576.748	-200.000	0.035	-0.361
-575.733	345.875	-0.021	0.041
-574.719	-200.000	-0.193	0.000
-573.704	5.140	0.155	-0.115
-572.690	8.249	-0.191	-0.144
-571.675	-92.482	-0.197	0.056
-570.661	287.866	0.094	0.170
-569.646	420.961	-0.087	0.187
-568.631	92.116	-0.092	0.104
-567.617	-174.176	-0.163	-0.005
-566.602	-200.000	-0.001	-0.224
-565.588	291.165	-0.193	-0.354
-564.573	-200.000	-0.021	-0.289
-563.558	347.043	0.089	-0.175
-562.544	-200.000	0.002	0.198
-561.529	264.673	-0.142	-0.248
-560.515	-2.137	0.194	-0.137
-559.500	-5.029	0.219	-0.151
-558.485	265.734	-0.052	-0.090
-557.471	148.765	0.143	0.194
-556.456	404.267	0.090	0.191
-555.442	146.784	-0.073	0.098
-554.427	-200.000	-0.058	-0.256
-553.412	-63.153	0.289	0.120
-552.398	88.261	-0.128	0.142
-551.383	800.000	-0.096	-0.289
-550.369	-200.000	-0.026	0.236
-549.354	25.621	-0.118	-0.099
-548.339	525.625	-0.118	0.278
-547.325	800.000	-0.083	0.342
-546.310	-25.585	0.116	0.069
-545.296	-104.618	-0.281	-0.065
-544.281	-200.000	0.011	0.343
-543.266	226.170	-0.166	0.270
-542.252	79.600	-0.194	-0.209
-541.237	45.489	0.147	-0.137
-540.223	800.000	-0.130	0.469
-539.208	-75.048	0.081	-0.029
-538.193	-16.701	-0.295	0.188
-537.179	-137.792	0.192	0.022
-536.164	644.911	-0.072	0.184
-535.150	800.000	-0.087	0.264
-534.135	-174.073	0.225	0.007
-533.121	-63.110	0.331	0.137
-532.106	-116.885	0.203	0.037
-531.091	-63.358	-0.250	-0.103
-530.077	197.629	0.221	0.338
-529.062	-200.000	-0.019	0.145
-528.048	-200.000	0.007	0.145
-527.033	82.007	0.125	0.135
-526.018	-200.000	0.015	0.205
-525.004	54.385	0.228	-0.220
-523.989	19.307	-0.173	-0.139
-522.975	-162.251	-0.240	-0.012
-521.960	-107.129	0.220	-0.049
-520.945	299.942	0.204	0.378
-519.931	35.672	0.168	0.148
-518.916	-3.600	-0.278	0.194
-517.902	-84.745	-0.229	0.072
-516.887	322.177	-0.184	0.351
-515.872	-200.000	0.045	0.207
-514.858	79.137	-0.015	-0.016
-513.843	800.000	0.014	0.058
-512.829	-52.692	-0.335	0.155
-511.814	31.335	0.119	-0.102
-510.799	-200.000	0.056	0.259
-509.785	-84.710	0.091	0.029
-508.770	-13.858	-0.078	-0.050
-507.756	113.722	0.197	0.240
-506.741	119.169	0.131	-0.162
-505.726	-192.090	-0.144	-0.001
-504.712	348.789	0.185	-0.366
-503.697	-200.000	0.012	-0.141
-502.683	-145.601	0.273	0.024
-501.668	-200.000	-0.003	0.030
-500.653	21.961	0.081	-0.066
-499.639	55.771	0.174	-0.169
-498.624	-36.846	0.126	0.068
-497.610	541.205	-0.130	-0.310
-496.595	800.000	0.033	0.114
-495.581	-200.000	0.000	-0.099
-494.566	150.758	-0.132	0.179
-493.551	181.624	-0.145	-0.214
-492.537	286.526	-0.099	-0.179
-491.522	33.173	0.074	-0.064
-490.508	-2.845	-0.255	-0.179
-489.493	680.347	-0.077	0.200
-488.478	-82.465	-0.168	0.055
-487.464	-125.447	0.218	-0.033
-486.449	800.000	0.088	-0.335
-485.435	-200.000	0.006	0.282
-484.420	-133.141	-0.317	0.040
-483.405	565.654	-0.085	0.207
-482.391	-0.402	0.232	-0.165
-481.376	541.564	-0.127	0.303
-480.362	341.080	-0.056	0.110
-479.347	-87.926	0.070	0.021
-478.332	-92.732	0.200	-0.056
-477.318	70.326	0.140	0.145
-476.303	5.867	0.174	0.129
-475.289	-154.083	-0.187	0.013
-474.274	-52.841	0.183	-0.085
-473.259	67.401	-0.041	0.042
-472.245	-173.567	0.355	0.011
-471.230	-118.928	0.135	-0.024
-470.216	86.215	-0.253	-0.279
-469.201	82.302	-0.215	-0.233
-468.186	-58.784	0.142	-0.061
-467.172	-65.693	0.147	0.059
-466.157	-93.678	0.302	0.083
-465.143	347.597	0.089	-0.176
-464.128	800.000	-0.030	0.103
-463.113	-70.498	-0.061	0.023
-462.099	76.927	-0.121	-0.129
-461.084	4.047	-0.117	0.086
-460.070	-104.108	-0.326	0.076
-459.055	162.012	-0.131	0.184
-458.040	-81.841	-0.062	0.020
-457.026	-200.000	-0.029	0.144
-456.011	260.669	-0.225	-0.390
-454.997	51.360	0.051	-0.049
-453.982	-200.000	0.009	0.077
-452.968	-112.281	-0.127	0.025
-451.953	581.846	0.069	-0.170
-450.938	24.718	-0.185	0.154
-449.924	200.822	0.130	0.201
-448.909	-10.153	-0.232	0.154
-447.895	800.000	0.093	-0.287
-446.880	-200.000	-0.025	0.184
-445.865	169.567	0.281	-0.401
-444.851	-55.978	0.091	-0.040
-443.836	78.246	-0.128	-0.137
-442.822	-200.000	0.000	-0.080
-441.807	141.414	-0.060	-0.079
-440.792	-38.438	0.324	-0.171
-439.778	-97.065	-0.271	-0.071
-438.763	620.838	-0.136	-0.343
-437.749	-200.000	0.048	0.339
-436.734	59.649	0.031	0.031
-435.719	-118.394	-0.551	0.098
-434.705	-33.540	0.078	-0.043
-433.690	747.374	0.078	-0.211
-432.676	778.747	-0.093	-0.253
-431.661	183.387	0.027	-0.039
-430.646	800.000	-0.083	0.338
-429.632	-120.710	-0.287	-0.049
-428.617	-200.000	-0.035	0.180
-427.603	-200.000	0.019	-0.214
-426.588	-92.706	0.293	-0.082
-425.573	79.981	-0.073	-0.078
-424.559	-11.088	-0.320	-0.211
-423.544	-21.612	0.137	-0.084
-422.530	-125.391	0.189	-0.029
-421.515	117.192	0.126	0.155
-420.500	-99.841	0.371	0.093
-419.486	800.000	0.016	0.061
-418.471	235.509	0.072	-0.120
-417.457	67.350	-0.198	0.202
-416.442	-200.000	0.055	-0.342
-415.428	-200.000	-0.002	0.112
-414.413	556.014	-0.007	0.016
-413.398	800.000	0.032	-0.114
-412.384	-200.000	-0.011	0.232
-411.369	-200.000	0.075	0.000
-410.355	-26.568	0.305	-0.179
-409.340	228.381	0.085	0.139
-408.325	216.031	-0.062	0.098
-407.311	-38.285	0.151	0.080
-406.296	61.619	0.204	-0.203
-405.282	260.213	-0.153	-0.264
-404.267	-200.000	0.006	0.079
-403.252	180.230	-0.295	-0.432
-402.238	327.196	0.132	-0.252
-401.223	242.387	0.118	-0.198
-400.209	143.584	-0.234	0.311
-399.194	83.100	0.023	0.025
-398.179	131.187	0.176	0.226
-397.165	76.376	-0.058	-0.061
-396.150	-121.628	0.109	-0.018
-395.136	-101.524	-0.244	0.059
-394.121	644.380	0.059	-0.149
-393.106	-200.000	0.031	0.138
-392.092	-148.732	0.403	-0.033
-391.077	-200.000	-0.012	0.214
-390.063	-200.000	-0.009	-0.221
-389.048	42.077	-0.128	0.116
-388.033	581.856	0.104	0.255
-387.019	17.839	-0.302	0.240
-386.004	-39.131	0.286	-0.150
-384.990	-200.000	-0.062	-0.308
-383.975	-151.362	0.278	-0.021
-382.960	0.988	0.141	-0.101
-381.946	-151.458	-0.147	0.011
-380.931	205.602	0.060	0.094
-379.917	-200.000	-0.018	0.104
-378.902	-137.220	0.210	-0.024
-377.888	-1.951	-0.157	0.110
-376.873	374.041	0.049	-0.100
-375.858	312.370	0.128	-0.240
-374.844	244.115	0.027	0.046
-373.829	-124.166	-0.309	0.048
-372.815	-200.000	0.009	0.386
-371.800	-138.771	0.324	-0.035
-370.785	-153.708	0.344	-0.024
-369.771	-38.801	-0.225	0.118
-368.756	-200.000	0.018	0.198
-367.742	-178.015	-0.223	0.005
-366.727	75.930	-0.056	-0.059
-365.712	-106.081	-0.030	0.007
-364.698	-125.523	0.261	-0.039
-363.683	-126.383	-0.157	0.023
-362.669	535.631	-0.095	0.225
-361.654	-140.342	-0.423	0.044
-360.639	-56.127	0.027	-0.012
-359.625	800.000	-0.153	0.466
-358.610	800.000	-0.098	0.273
-357.596	-200.000	-0.024	-0.221
-356.581	433.600	0.153	-0.332
-355.566	-77.249	-0.260	-0.090
-354.552	-129.091	0.292	0.041
-353.537	-36.790	-0.228	-0.122
-352.523	-200.000	0.010	0.222
-351.508	43.792	0.127	0.116
-350.493	129.136	-0.093	-0.118
-349.479	-99.013	-0.176	-0.044
-348.464	113.659	0.080	-0.097
-347.450	87.430	-0.204	0.224
-346.435	-20.060	-0.153	0.094
-345.420	-135.871	-0.401	0.047
-344.406	307.636	0.064	0.118
-343.391	1.292	0.041	0.029
-342.377	-77.104	0.492	-0.171
-341.362	-200.000	-0.002	0.065
-340.348	-200.000	0.011	-0.110
-339.333	-200.000	-0.009	-0.220
-338.318	-200.000	0.017	0.093
-337.304	-97.103	0.102	0.027
-336.289	25.218	0.181	-0.150
-335.275	-103.532	-0.052	-0.012
-334.260	131.247	-0.148	0.189
-333.245	228.190	0.192	-0.312
-332.231	-29.536	-0.323	0.184
-331.216	179.115	-0.055	-0.080
-330.202	-200.000	-0.020	0.092
-329.187	38.049	-0.261	0.231
-328.172	-85.671	0.163	-0.050
-327.158	52.767	-0.263	-0.250
-326.143	619.204	0.059	0.148
-325.129	-62.229	0.380	0.158
-324.114	360.587	-0.076	-0.152
-323.099	-97.063	0.236	0.061
-322.085	-3.504	0.263	-0.182
-321.070	-31.882	0.090	0.050
-320.056	800.000	0.050	-0.145
-319.041	-34.683	0.248	0.135
-318.026	188.436	0.158	-0.234
-317.012	294.651	0.054	-0.098
-315.997	-200.000	-0.017	-0.214
-314.983	652.807	0.135	0.346
-313.968	-200.000	-0.008	0.117
-312.953	112.880	-0.152	-0.183
-311.939	-75.887	-0.085	-0.030
-310.924	-200.000	0.032	0.148
-309.910	66.943	0.193	-0.195
-308.895	-200.000	-0.021	0.097
-307.880	-45.116	0.224	0.111
-306.866	39.824	0.194	0.173
-305.851	-24.876	-0.114	-0.067
-304.837	-84.588	0.193	0.061
-303.822	-130.397	-0.265	0.036
-302.807	628.360	0.005	0.014
-301.793	572.124	0.028	0.069
-300.778	-200.000	0.014	0.096
-299.764	10.576	-0.228	0.173
-298.749	-12.144	-0.169	-0.110
-297.735	-55.131	-0.209	-0.093
-296.720	-14.752	0.154	-0.098
-295.705	-67.309	0.182	0.071
-294.691	-130.234	-0.161	0.022
-293.676	-200.000	-0.009	0.104
-292.662	-32.821	0.248	-0.137
-291.647	-127.594	0.168	0.024
-290.632	228.260	-0.125	0.203
-289.618	449.499	-0.147	0.322
-288.603	-77.303	0.380	-0.131
-287.589	-2.692	-0.172	0.120
-286.574	-81.490	0.348	0.114
-285.559	-167.331	0.401	-0.016
-284.545	188.359	0.190	-0.282
-283.530	688.536	-0.127	0.331
-282.516	501.744	0.048	0.110
-281.501	31.041	-0.268	-0.228
-280.486	613.463	0.079	0.196
-279.472	-59.170	0.340	0.146
-278.457	-69.048	0.071	-0.027
-277.443	3.159	0.086	-0.062
-276.428	63.705	0.067	0.067
-275.413	97.798	-0.025	-0.029
-274.399	-95.680	0.136	0.036
-273.384	800.000	0.086	0.247
-272.370	-102.778	-0.277	-0.066
-271.355	37.873	0.322	-0.284
-270.340	260.344	0.058	0.100
-269.326	455.238	-0.062	0.137
-268.311	543.315	-0.051	-0.120
-267.297	-18.971	0.182	0.112
-266.282	39.305	0.093	-0.082
-265.267	-71.408	-0.223	-0.083
-264.253	-200.000	0.006	0.151
-263.238	-6.782	-0.113	0.077
-262.224	-186.530	0.119	-0.002
-261.209	-64.214	-0.229	0.093
-260.195	-200.000	0.044	-0.227
-259.180	11.303	-0.151	-0.115
-258.165	69.102	0.108	0.110
-257.151	-200.000	0.036	0.566
-256.136	-185.656	-0.145	0.002
-255.122	-142.583	0.216	0.021
-254.107	-23.417	-0.369	-0.220
-253.092	46.656	0.220	0.203
-252.078	783.764	-0.192	-0.523
-251.063	549.471	-0.066	-0.157
-250.049	-45.833	0.170	0.083
-249.034	65.493	-0.076	-0.076
-248.019	-87.658	-0.393	-0.118
-247.005	-200.000	0.013	-0.095
-245.990	123.088	-0.201	-0.250
-244.976	112.196	0.083	-0.099
-243.961	473.665	-0.079	-0.176
-242.946	-76.372	0.396	-0.138
-241.932	-70.735	0.157	0.059
-240.917	241.758	-0.184	-0.305
-239.903	-13.199	-0.081	0.052
-238.888	29.174	0.154	0.130
-237.873	-200.000	0.040	-0.355
-236.859	-61.769	-0.112	-0.047
-235.844	-35.225	0.126	-0.068
-234.830	123.697	-0.188	-0.234
-233.815	-111.677	-0.081	-0.016
-232.800	-3.538	-0.093	-0.064
-231.786	196.502	-0.066	-0.100
-230.771	-7.494	0.051	0.034
-229.757	271.210	0.045	0.078
-228.742	112.152	0.192	-0.230
-227.727	800.000	-0.047	-0.196
-226.713	-10.669	0.101	0.066
-225.698	-200.000	-0.068	0.376
-224.684	-86.381	0.209	0.064
-223.669	-200.000	-0.006	-0.038
-222.655	-200.000	0.029	-0.139
-221.640	800.000	0.036	0.106
-220.625	-112.807	-0.444	-0.087
-219.611	43.726	-0.080	0.073
-218.596	-82.417	-0.081	-0.026
-217.582	-23.598	0.180	0.107
-216.567	7.583	0.290	-0.215
-215.552	-200.000	0.021	-0.191
-214.538	180.056	0.149	0.217
-213.523	-92.552	0.296	0.082
-212.509	308.250	-0.072	0.133
-211.494	100.846	0.059	-0.068
-210.479	-200.000	0.016	0.199
-209.465	-200.000	-0.088	0.548
-208.450	-143.602	-0.376	0.035
-207.436	497.172	-0.166	-0.378
-206.421	-148.007	-0.245	-0.020
-205.406	-114.631	-0.176	0.033
-204.392	-29.151	-0.177	-0.100
-203.377	51.054	0.244	-0.229
-202.363	-159.120	0.326	0.018
-201.348	800.000	0.066	0.269
-200.333	-20.220	-0.218	-0.133
-199.319	-102.439	-0.231	0.055
-198.304	-106.127	0.062	-0.014
-197.290	-60.066	-0.369	-0.156
-196.275	471.989	-0.096	0.215
-195.260	290.780	-0.077	-0.139
-194.246	-101.968	0.201	0.048
-193.231	-200.000	0.023	0.113
-192.217	334.760	0.135	-0.259
-191.202	719.191	-0.076	0.200
-190.187	-81.862	-0.229	0.074
-189.173	251.858	-0.021	-0.035
-188.158	-200.000	-0.005	0.073
-187.144	-118.412	0.235	-0.041
-186.129	204.561	0.066	0.101
-185.114	-118.602	0.341	-0.060
-184.100	150.069	0.244	-0.328
-183.085	370.383	-0.093	-0.186
-182.071	-157.611	0.108	-0.006
-181.056	800.000	0.067	-0.274
-180.042	-118.048	0.192	0.034
-179.027	-79.734	-0.093	0.031
-178.012	-200.000	-0.003	-0.130
-176.998	-200.000	-0.018	-0.132
-175.983	485.188	0.118	0.265
-174.969	56.971	0.176	0.170
-173.954	-40.340	-0.137	0.071
-172.939	67.582	-0.268	-0.271
-171.925	-70.430	-0.514	0.193
-170.910	-156.215	-0.214	0.013
-169.896	-44.993	-0.049	0.024
-168.881	258.140	-0.095	0.162
-167.866	422.383	0.150	0.319
-166.852	209.798	0.086	0.133
-165.837	-200.000	-0.008	0.059
-164.823	-142.248	-0.161	-0.016
-163.808	-2.393	0.344	-0.239
-162.793	-200.000	-0.027	0.382
-161.779	150.693	-0.209	0.281
-160.764	704.710	0.057	-0.149
-159.750	-49.246	0.289	0.137
-158.735	-200.000	0.013	0.183
-157.720	-40.266	-0.102	0.052
-156.706	655.122	-0.165	0.420
-155.691	697.479	-0.077	0.199
-154.677	-63.351	0.108	-0.044
-153.662	-107.961	-0.177	-0.038
-152.647	-5.438	0.529	-0.359
-151.633	16.200	0.169	0.132
-150.618	-117.996	0.108	-0.019
-149.604	263.336	0.092	-0.158
-148.589	-27.412	0.239	0.137
-147.574	-200.000	0.006	0.158
-146.560	10.843	0.165	-0.125
-145.545	260.153	0.148	-0.252
-144.531	-200.000	-0.025	0.288
-143.516	-183.125	0.279	0.005
-142.502	-200.000	-0.049	-0.255
-141.487	-200.000	-0.007	-0.181
-140.472	800.000	0.003	-0.010
-139.458	92.074	-0.281	-0.313
-138.443	33.098	0.025	0.021
-137.429	-82.512	0.435	0.140
-136.414	-58.359	-0.051	-0.022
-135.399	-112.009	-0.073	-0.015
-134.385	-93.016	-0.364	0.100
-133.370	129.381	-0.020	0.025
-132.356	-109.960	0.033	0.007
-131.341	800.000	-0.077	0.226
-130.326	-38.294	0.075	0.039
-129.312	341.390	0.155	0.299
-128.297	-200.000	0.002	-0.024
-127.283	20.720	-0.119	0.095
-126.268	-200.000	-0.026	-0.187
-125.253	-200.000	-0.000	-0.047
-124.239	800.000	0.045	0.163
-123.224	51.999	0.016	0.015
-122.210	150.760	0.080	0.107
-121.195	164.743	0.126	-0.175
-120.180	525.601	-0.050	0.117
-119.166	-84.808	-0.328	-0.102
-118.151	-9.794	-0.098	-0.065
-117.137	-200.000	-0.015	-0.098
-116.122	-177.455	-0.204	-0.005
-115.107	-200.000	-0.025	0.254
-114.093	69.257	-0.085	0.086
-113.078	-158.149	0.193	-0.011
-112.064	9.435	-0.059	0.044
-111.049	-24.354	-0.014	-0.008
-110.034	800.000	-0.109	0.314
-109.020	800.000	-0.056	0.167
-108.005	-70.254	-0.510	0.191
-106.991	-200.000	-0.020	0.149
-105.976	-52.747	0.155	0.070
-104.962	-60.531	-0.470	0.197
-103.947	227.354	-0.010	0.017
-102.932	2.264	0.092	-0.066
-101.918	-170.070	0.192	-0.007
-100.903	-51.926	0.346	-0.159
-99.889	-129.298	-0.278	0.038
-98.874	-125.887	0.100	0.015
-97.859	-26.994	0.223	0.129
-96.845	-177.145	-0.066	0.002
-95.830	198.534	0.281	-0.424
-94.816	-200.000	-0.047	-0.461
-93.801	28.402	0.147	0.123
-92.786	-200.000	-0.038	0.188
-91.772	-84.039	0.161	-0.050
-90.757	597.431	-0.093	0.228
-89.743	800.000	0.064	-0.199
-88.728	800.000	0.060	0.231
-87.713	100.446	-0.070	-0.080
-86.699	-200.000	0.021	0.346
-85.684	-90.522	-0.244	0.070
-84.670	-200.000	-0.042	0.476
-83.655	219.415	-0.134	0.212
-82.640	-200.000	-0.008	0.381
-81.626	-76.231	0.101	0.035
-80.611	-200.000	-0.040	0.264
-79.597	-106.171	0.247	-0.055
-78.582	384.240	-0.071	-0.143
-77.567	-58.040	-0.306	0.132
-76.553	-200.000	0.041	0.201
-75.538	66.763	0.162	-0.163
-74.524	377.216	-0.048	0.097
-73.509	-200.000	0.049	-0.402
-72.494	-72.608	0.228	0.083
-71.480	-200.000	-0.027	0.190
-70.465	-200.000	0.024	-0.167
-69.451	-71.760	-0.234	0.086
-68.436	-52.630	0.210	0.095
-67.422	53.871	0.158	-0.149
-66.407	37.165	0.300	-0.262
-65.392	-200.000	0.014	0.100
-64.378	65.773	-0.065	-0.065
-63.363	-129.248	0.333	-0.046
-62.349	149.809	0.074	0.099
-61.334	211.649	-0.753	-1.168
-60.319	-32.619	0.362	0.198
-59.305	568.484	-0.365	-0.875
-58.290	310.416	0.555	1.024
-57.276	371.710	0.787	1.574
-56.261	-200.000	95.040	544.711
-55.246	482.362	1433.021	3207.921
-54.232	147.764	2640.587	3506.749
-53.217	109.092	2233.232	2632.213
-52.203	43.205	1757.340	1580.537
-51.188	35.691	1565.942	1355.606
-50.173	33.355	1537.439	1314.684
-49.159	52.434	1584.473	1489.677
-48.144	54.048	1602.776	1518.201
-47.130	36.082	1562.877	1355.495
-46.115	32.947	1548.444	1321.033
-45.100	32.816	1544.985	1317.116
-44.086	32.831	1542.957	1315.439
-43.071	32.642	1541.037	1312.428
-42.057	32.644	1539.886	1311.410
-41.042	32.690	1538.136	1310.192
-40.027	32.749	1536.423	1309.086
-39.013	32.551	1535.404	1306.792
-37.998	32.560	1533.773	1305.419
-36.984	32.649	1532.500	1304.901
-35.969	32.714	1531.262	1304.240
-34.954	32.697	1529.610	1302.664
-33.940	32.701	1528.101	1301.360
-32.925	32.681	1526.761	1300.023
-31.911	32.708	1525.527	1299.107
-30.896	32.719	1523.966	1297.803
-29.881	32.642	1522.675	1296.124
-28.867	32.802	1520.762	1295.544
-27.852	32.696	1519.713	1293.870
-26.838	32.722	1517.901	1292.457
-25.823	32.665	1516.753	1291.033
-24.809	32.686	1514.850	1289.510
-23.794	32.716	1513.747	1288.721
-22.779	32.608	1512.069	1286.504
-21.765	32.662	1511.283	1286.154
-20.750	32.520	1510.648	1284.595
-19.736	32.686	1508.880	1284.170
-18.721	32.645	1508.155	1283.221
-17.706	32.558	1506.983	1281.584
-16.692	32.635	1505.753	1281.011
-15.677	32.638	1504.429	1279.853
-14.663	32.657	1503.726	1279.332
-13.648	32.534	1502.928	1277.772
-12.633	32.569	1502.311	1277.428
-11.619	32.622	1501.136	1276.738
-10.604	32.573	1500.256	1275.608
-9.590	32.493	1499.463	1274.346
-8.575	32.494	1498.601	1273.565
-7.560	32.546	1497.878	1273.256
-6.546	32.635	1496.742	1272.840
-5.531	32.509	1495.877	1271.202
-4.517	32.549	1494.884	1270.580
-3.502	32.568	1493.886	1269.805
-2.487	32.663	1492.303	1269.048
-1.473	32.572	1491.638	1267.823
-0.458	32.654	1490.097	1267.014
0.556	32.275	1480.800	1257.695
1.571	29.638	1455.065	1218.370
2.586	25.920	1389.752	1140.111
3.600	23.260	1303.861	1053.748
4.615	20.975	1256.827	1002.522
5.629	17.666	1198.317	937.591
6.644	9.072	1110.660	824.935
7.659	2.328	1068.082	759.821
8.673	1.321	1062.347	750.699
9.688	1.031	1059.250	747.011
10.702	1.021	1058.217	746.167
11.717	0.967	1056.385	744.546
12.731	3.343	1058.438	757.621
13.746	10.882	1068.620	802.156
14.761	16.573	1074.949	835.005
15.775	17.639	1076.549	841.441
16.790	17.361	1074.714	838.563
17.804	16.321	1072.427	831.585
18.819	15.392	1070.534	825.473
19.834	14.884	1069.228	821.895
20.848	14.601	1068.170	819.619
21.863	14.455	1067.399	818.240
22.877	14.097	1066.753	815.915
23.892	13.905	1065.786	814.163
24.907	13.876	1064.924	813.289
25.921	13.847	1063.824	812.237
26.936	13.801	1063.626	811.790
27.950	13.898	1062.783	811.548
28.965	13.776	1062.468	810.637
29.980	13.897	1061.051	810.077
30.994	14.108	1060.382	810.521
32.009	13.930	1059.528	808.929
33.023	13.955	1059.003	808.582
34.038	14.053	1057.849	808.103
35.053	13.879	1057.209	806.699
36.067	13.942	1056.211	806.173
37.082	13.874	1055.604	805.306
38.096	13.913	1054.800	804.810
39.111	14.109	1053.960	805.049
40.126	13.954	1053.193	803.640
41.140	13.882	1051.576	801.986
42.155	13.747	1050.992	800.820
43.169	13.773	1050.060	800.167
44.184	13.848	1049.091	799.718
45.199	13.849	1047.608	798.521
46.213	13.793	1046.425	797.278
47.228	13.904	1045.655	797.155
48.242	13.974	1044.562	796.586
49.257	13.830	1043.620	795.109
50.271	13.932	1042.698	794.822
51.286	13.983	1041.319	793.947
52.301	14.040	1040.830	793.775
53.315	13.998	1040.350	793.140
54.330	13.888	1039.456	791.859
55.344	13.886	1038.236	790.851
56.359	13.873	1037.171	789.908
57.374	13.823	1036.585	789.154
58.388	13.851	1035.682	788.533
59.403	13.762	1034.913	787.456
60.417	13.753	1034.438	786.978
61.432	13.780	1033.337	786.199
62.447	13.864	1032.915	786.208
63.461	13.913	1031.663	785.415
64.476	13.841	1030.887	784.416
65.490	13.733	1030.261	783.361
66.505	13.761	1029.222	782.633
67.520	13.866	1028.303	782.363
68.534	13.902	1027.428	781.793
69.549	13.891	1026.891	781.265
70.563	13.896	1025.897	780.464
71.578	13.796	1025.818	779.865
72.593	13.813	1024.994	779.248
73.607	13.837	1023.430	778.104
74.622	13.832	1022.754	777.497
75.636	13.680	1022.167	776.271
76.651	13.689	1021.397	775.658
77.666	13.725	1021.027	775.480
78.680	13.754	1020.138	774.870
79.695	13.705	1019.824	774.334
80.709	13.711	1018.962	773.636
81.724	13.837	1017.867	773.326
82.739	13.828	1016.921	772.496
83.753	13.809	1016.327	771.888
84.768	13.872	1015.418	771.422
85.782	13.950	1014.545	771.053
86.797	13.958	1013.994	770.602
87.812	14.058	1012.647	769.976
88.826	13.974	1012.210	769.188
89.841	13.796	1011.741	767.937
90.855	13.914	1010.713	767.634
91.870	13.898	1009.915	766.889
92.884	14.064	1008.991	766.885
93.899	13.941	1008.513	765.883
94.914	14.030	1007.431	765.406
95.928	14.096	1006.768	765.138
96.943	14.061	1006.030	764.350
97.957	14.173	1005.017	764.026
98.972	14.011	1004.698	762.972
99.987	14.074	1003.643	762.393
101.001	14.066	1002.948	761.757
102.016	14.029	1002.312	761.038
103.030	14.068	1001.139	760.262
104.045	14.070	1000.422	759.659
105.060	13.984	999.380	758.406
106.074	13.996	998.578	757.785
107.089	14.053	997.469	757.138
108.103	13.778	997.169	755.588
109.118	13.897	995.820	755.042
110.133	13.855	995.407	754.472
111.147	13.910	994.293	753.808
112.162	13.814	993.516	752.719
113.176	13.837	992.699	752.138
114.191	13.914	991.866	751.789
115.206	14.014	990.688	751.280
116.220	13.970	989.612	750.201
117.235	13.950	989.045	749.613
118.249	13.890	988.101	748.561
119.264	14.006	987.075	748.241
120.279	13.895	986.531	747.260
121.293	13.947	985.900	746.951
122.308	13.990	985.094	746.467
123.322	13.924	984.083	745.341
124.337	13.999	983.164	744.915
125.352	13.808	982.423	743.430
126.366	13.810	981.063	742.346
127.381	13.870	979.973	741.721
128.395	13.915	978.940	741.076
129.410	13.912	977.809	740.143
130.424	13.933	977.053	739.595
131.439	13.898	976.121	738.670
132.454	14.092	974.963	738.591
133.468	14.011	974.236	737.614
134.483	13.972	973.681	736.954
135.497	14.040	973.029	736.697
136.512	14.017	972.090	735.820
137.527	13.896	971.488	734.767
138.541	14.071	970.675	734.857
139.556	13.941	969.979	733.694
140.570	13.976	969.456	733.385
141.585	14.013	968.258	732.578
142.600	14.025	967.923	732.312
143.614	14.056	966.955	731.651
144.629	14.047	966.473	731.183
145.643	14.021	965.675	730.400
146.658	14.070	964.441	729.619
147.673	13.941	963.706	728.432
148.687	14.045	962.934	728.240
149.702	14.077	961.893	727.528
150.716	13.998	961.113	726.529
151.731	13.982	960.536	725.956
152.746	14.014	959.699	725.400
153.760	13.981	958.796	724.508
154.775	14.037	958.246	724.276
155.789	14.123	957.239	723.823
156.804	14.214	956.599	723.673
157.819	14.058	955.765	722.297
158.833	14.233	955.076	722.473
159.848	14.304	954.292	722.123
160.862	14.332	953.472	721.559
161.877	14.150	953.038	720.383
162.892	14.327	951.855	720.187
163.906	14.093	951.147	718.577
164.921	14.206	950.424	718.456
165.935	14.079	949.450	717.106
166.950	14.194	948.275	716.654
167.964	14.300	947.367	716.358
168.979	14.218	946.431	715.234
169.994	14.190	945.759	714.544
171.008	14.202	944.785	713.795
172.023	14.274	944.165	713.572
173.037	14.346	943.224	713.107
174.052	14.354	942.474	712.513
175.067	14.310	942.246	712.089
176.081	14.383	941.027	711.417
177.096	14.199	940.279	710.003
178.110	14.165	939.615	709.294
179.125	14.325	938.937	709.399
180.140	14.406	937.965	708.949
181.154	14.387	937.044	708.109
182.169	14.392	936.679	707.791
183.183	14.348	935.851	706.914
184.198	14.383	935.144	706.466
185.213	14.378	934.700	706.048
186.227	14.416	933.539	705.271
187.242	14.453	933.224	705.127
188.256	14.503	932.771	704.931
189.271	14.532	931.685	704.173
190.286	14.539	931.111	703.706
191.300	14.462	930.177	702.613
192.315	14.275	929.923	701.570
193.329	14.463	928.860	701.495
194.344	14.470	928.337	701.069
195.359	14.416	927.644	700.259
196.373	14.454	927.106	699.951
197.388	14.453	927.067	699.856
198.402	14.525	925.931	699.234
199.417	14.708	925.336	699.490
200.432	14.587	924.753	698.482
201.446	14.667	924.644	698.671
202.461	14.692	924.211	698.390
203.475	14.709	923.686	697.999
204.490	14.797	922.761	697.609
205.504	14.816	921.855	696.939
206.519	14.782	921.144	696.197
207.534	14.578	920.526	694.823
208.548	14.626	919.775	694.394
209.563	14.814	918.809	694.383
210.577	14.717	918.519	693.699
211.592	14.873	917.660	693.637
212.607	14.724	917.645	692.946
213.621	14.863	916.621	692.689
214.636	14.949	915.513	692.146
215.650	14.813	915.469	691.488
216.665	14.857	914.508	690.882
217.680	14.963	913.930	690.824
218.694	14.892	913.884	690.433
219.709	14.944	913.203	690.072
220.723	14.955	912.490	689.518
221.738	14.929	911.649	688.715
222.753	14.872	910.874	687.835
223.767	15.052	910.301	688.079
224.782	15.007	909.402	687.155
225.796	15.066	908.547	686.689
226.811	14.959	908.074	685.832
227.826	15.152	907.665	686.253
228.840	15.134	906.659	685.359
229.855	14.976	906.363	684.429
230.869	15.050	905.638	684.124
231.884	15.110	904.716	683.611
232.899	15.009	904.406	682.903
233.913	15.018	903.209	681.977
234.928	14.954	902.824	681.364
235.942	15.097	902.018	681.277
236.957	14.920	901.845	680.368
237.972	15.008	900.813	679.884
238.986	15.056	899.921	679.346
240.001	15.065	899.488	678.995
241.015	15.151	898.621	678.632
242.030	15.131	897.536	677.669
243.045	15.204	897.012	677.508
244.059	15.218	896.619	677.211
245.074	15.156	896.153	676.548
246.088	15.230	895.489	676.285
247.103	15.191	894.944	675.656
248.117	15.293	894.308	675.529
249.132	15.393	893.763	675.458
250.147	15.361	893.011	674.699
251.161	15.260	892.320	673.714
252.176	15.461	891.633	673.941
253.190	15.454	890.633	673.097
254.205	15.479	890.049	672.700
255.220	15.521	889.939	672.724
256.234	15.454	889.085	671.749
257.249	15.421	888.866	671.395
258.263	15.583	887.894	671.247
259.278	15.629	887.351	670.963
260.293	15.682	887.026	670.868
261.307	15.569	886.306	669.815
262.322	15.639	885.632	669.525
263.336	15.752	884.994	669.430
264.351	15.694	884.444	668.724
265.366	15.804	883.797	668.616
266.380	15.793	883.204	668.062
267.395	15.793	882.668	667.598
268.409	15.604	882.096	666.359
269.424	15.805	880.703	666.042
270.439	15.855	880.283	665.863
271.453	15.740	879.693	664.905
272.468	15.788	878.969	664.486
273.482	15.640	878.419	663.427
274.497	15.803	877.672	663.450
275.512	15.826	877.019	662.987
276.526	15.773	876.285	662.163
277.541	15.782	875.364	661.445
278.555	15.950	875.132	661.872
279.570	15.910	874.198	660.948
280.585	15.825	874.217	660.572
281.599	16.110	873.520	661.105
282.614	15.834	873.019	659.586
283.628	15.962	872.145	659.366
284.643	16.103	871.232	659.172
285.657	15.855	871.238	658.146
286.672	15.880	870.687	657.769
287.687	15.950	870.257	657.660
288.701	16.068	869.567	657.541
289.716	16.002	868.672	656.548
290.730	15.998	868.592	656.414
291.745	16.105	867.628	656.045
292.760	16.052	866.812	655.162
293.774	16.084	865.996	654.610
294.789	15.997	866.093	654.292
295.803	16.037	865.566	653.991
296.818	16.184	864.684	653.836
297.833	16.105	863.981	652.939
298.847	16.035	863.305	652.100
299.862	16.279	862.639	652.482
300.876	16.163	861.877	651.399
301.891	16.318	861.044	651.311
302.906	16.124	860.671	650.224
303.920	16.339	859.868	650.388
304.935	16.401	859.279	650.122
305.949	16.349	858.810	649.512
306.964	16.242	858.328	648.679
307.979	16.416	857.341	648.541
308.993	16.443	856.909	648.262
310.008	16.365	856.287	647.434
311.022	16.319	856.053	647.024
312.037	16.495	855.410	647.154
313.052	16.365	854.786	646.128
314.066	16.434	854.373	646.021
315.081	16.561	853.401	645.713
316.095	16.371	853.351	644.895
317.110	16.472	852.530	644.602
318.125	16.505	851.590	643.960
319.139	16.422	851.633	643.622
320.154	16.508	850.952	643.375
321.168	16.416	850.485	642.617
322.183	16.586	849.770	642.663
323.197	16.470	849.690	642.107
324.212	16.401	849.453	641.607
325.227	16.682	848.107	641.599
326.241	16.590	847.605	640.814
327.256	16.584	847.148	640.390
328.270	16.567	846.550	639.816
329.285	16.570	845.961	639.328
330.300	16.524	845.751	638.936
331.314	16.534	845.059	638.398
332.329	16.635	843.935	637.872
333.343	16.737	843.579	637.931
334.358	16.722	842.819	637.243
335.373	16.764	842.677	637.237
336.387	16.589	842.044	636.042
337.402	16.741	841.560	636.191
338.416	16.773	841.005	635.836
339.431	16.805	840.310	635.376
340.446	16.831	839.816	635.044
341.460	16.881	839.099	634.633
342.475	16.913	838.495	634.239
343.489	16.925	838.049	633.890
344.504	16.928	837.719	633.595
345.519	16.851	837.126	632.804
346.533	16.875	837.001	632.744
347.548	16.878	836.227	632.112
348.562	16.817	835.651	631.393
349.577	17.014	835.033	631.606
350.592	17.039	834.468	631.213
351.606	17.059	834.110	630.960
352.621	16.907	833.813	630.117
353.635	16.849	833.486	629.597
354.650	17.070	832.595	629.689
355.665	16.889	832.340	628.770
356.679	16.971	831.945	628.721
357.694	17.077	831.348	628.606
358.708	17.200	830.454	628.329
359.723	16.952	830.320	627.256
360.738	16.982	829.877	626.977
361.752	17.094	829.220	626.836
362.767	17.141	829.073	626.845
363.781	17.259	828.337	626.666
364.796	17.174	827.763	625.863
365.810	17.224	827.273	625.622
366.825	17.212	827.045	625.351
367.840	17.258	826.447	625.013
368.854	17.295	826.132	624.854
369.869	17.225	825.479	624.050
370.883	17.373	824.800	624.024
371.898	17.377	824.428	623.702
372.913	17.230	823.915	622.720
373.927	17.339	823.261	622.568
374.942	17.331	822.722	622.078
375.956	17.557	822.108	622.382
376.971	17.429	821.342	621.279
377.986	17.433	820.657	620.724
379.000	17.596	820.003	620.769
380.015	17.485	820.065	620.354
381.029	17.488	819.462	619.856
382.044	17.472	818.737	619.194
383.059	17.396	818.325	618.549
384.073	17.549	817.535	618.453
385.088	17.444	817.186	617.755
386.102	17.598	816.905	618.047
387.117	17.542	815.996	617.099
388.132	17.646	815.336	616.923
389.146	17.685	815.057	616.798
390.161	17.736	814.761	616.705
391.175	17.562	814.724	615.991
392.190	17.713	813.765	615.760
393.205	17.659	813.522	615.324
394.219	17.649	813.426	615.163
395.234	17.648	812.769	614.607
396.248	17.681	812.121	614.181
397.263	17.679	811.442	613.605
398.278	17.600	811.379	613.221
399.292	17.744	810.709	613.179
400.307	17.623	810.340	612.409
401.321	17.633	809.998	612.131
402.336	17.756	809.437	612.094
403.350	17.646	809.141	611.424
404.365	17.588	809.035	611.081
405.380	17.768	808.333	611.142
406.394	17.925	807.231	610.817
407.409	17.931	806.783	610.444
408.423	18.007	806.512	610.456
409.438	18.026	806.272	610.290
410.453	17.816	805.894	609.201
411.467	17.901	805.625	609.245
412.482	17.988	805.108	609.112
413.496	18.043	804.270	608.620
414.511	17.966	803.788	607.924
415.526	18.098	803.945	608.460
416.540	18.136	803.351	608.092
417.555	18.176	802.723	607.705
418.569	18.296	802.234	607.708
419.584	18.154	801.917	606.909
420.599	18.114	801.545	606.434
421.613	108.615	1287.536	1458.730
422.628	93.557	1358.350	1458.846
