DTS Sentinel unit serial number:	SN413079Multiplexer serial number:	ORYXHardware model number:	OX4-SRSoftware version number:	ORYX F/W v4.00 Oryx Data Collector v3.7.2.0data status	okinstallation	princeton_trtdifferential loss correction	single-endedforward channel	channel 3reverse channel	N/Adate	2019/09/18time	18:16:35forward acquisition time	60.00reverse acquisition time	0.00gamma	496.2192k internal	0.2292k external	0.2292temperature offset calibration	1.0003default loss term (dB/km)	0.3790temperature slope calibration	1.0000multiplexer offset coefficient	1.0000multiplexer slope coefficient	1.0000fibre end	0.00T internal ref (°C)	38.87T ext. ref 1 (°C)	0.93T ext. ref 2 (°C)	32.16length (m)	temperature (°C)	Stokes	anti-Stokes-747.200	-89.476	0.133	0.040
-746.185	-49.397	-0.168	0.082
-745.171	-134.204	-0.271	-0.034
-744.156	38.769	0.176	0.161
-743.142	2.795	-0.143	-0.106
-742.127	-89.938	-0.363	-0.108
-741.112	601.241	-0.059	-0.149
-740.098	-121.278	-0.194	-0.033
-739.083	-200.000	0.007	-0.164
-738.069	-17.725	0.167	0.107
-737.054	177.506	0.134	-0.200
-736.039	90.882	0.210	0.241
-735.025	-200.000	-0.020	-0.148
-734.010	72.852	-0.148	0.158
-732.996	274.086	-0.073	-0.133
-731.981	100.406	-0.230	0.273
-730.966	57.346	-0.167	0.167
-729.952	338.836	0.013	-0.025
-728.937	-48.961	-0.251	0.123
-727.923	32.379	-0.149	0.131
-726.908	-26.740	-0.234	0.140
-725.894	-200.000	-0.029	-0.157
-724.879	37.531	-0.209	0.189
-723.864	178.576	-0.088	0.131
-722.850	50.817	0.083	-0.080
-721.835	800.000	0.059	-0.179
-720.821	-200.000	-0.008	0.235
-719.806	800.000	-0.010	-0.035
-718.791	-127.584	-0.096	0.014
-717.777	-153.139	-0.523	-0.037
-716.762	-200.000	0.005	-0.264
-715.748	-200.000	0.005	-0.242
-714.733	184.151	-0.180	-0.272
-713.718	-83.772	-0.057	0.019
-712.704	800.000	0.086	0.344
-711.689	-133.136	-0.420	0.054
-710.675	-3.965	-0.260	-0.184
-709.660	-200.000	0.025	-0.495
-708.645	257.231	-0.072	0.126
-707.631	-16.719	-0.034	0.022
-706.616	-7.184	-0.126	0.088
-705.602	800.000	0.075	0.247
-704.587	142.900	-0.105	0.143
-703.572	-200.000	0.032	0.145
-702.558	-119.028	0.237	-0.042
-701.543	-22.223	-0.232	-0.144
-700.529	322.844	-0.156	-0.305
-699.514	-101.976	0.270	-0.067
-698.499	-200.000	-0.041	0.280
-697.485	26.079	-0.285	0.243
-696.470	-98.658	0.220	0.057
-695.456	-200.000	-0.010	-0.067
-694.441	-169.593	-0.162	0.006
-693.426	204.888	-0.180	0.286
-692.412	-199.784	-0.155	-0.001
-691.397	-58.596	-0.278	-0.123
-690.383	-133.800	-0.200	-0.025
-689.368	-128.104	-0.149	0.022
-688.354	-66.696	-0.091	0.037
-687.339	139.678	-0.160	0.215
-686.324	-1.908	0.183	-0.131
-685.310	-200.000	0.080	-0.475
-684.295	-95.458	-0.241	0.066
-683.281	-149.552	0.196	-0.016
-682.266	-71.049	0.256	0.098
-681.251	-200.000	-0.002	-0.204
-680.237	-61.254	-0.313	0.135
-679.222	-173.038	-0.050	-0.002
-678.208	-6.778	0.115	-0.080
-677.193	-105.662	0.067	-0.015
-676.178	548.626	-0.186	-0.456
-675.164	314.424	0.112	-0.215
-674.149	-200.000	0.015	-0.081
-673.135	-52.629	-0.046	0.022
-672.120	-77.544	-0.237	-0.084
-671.105	-56.448	-0.307	-0.139
-670.091	-200.000	0.014	0.282
-669.076	800.000	-0.035	0.131
-668.062	145.787	-0.039	0.054
-667.047	-200.000	0.006	0.102
-666.032	-200.000	0.000	0.284
-665.018	-95.372	-0.327	-0.090
-664.003	763.243	0.128	0.355
-662.989	288.710	0.113	0.208
-661.974	533.333	-0.170	-0.411
-660.959	-136.968	0.179	-0.021
-659.945	113.263	0.173	-0.214
-658.930	-79.698	-0.127	-0.044
-657.916	293.168	0.049	0.092
-656.901	161.199	-0.310	0.443
-655.886	-200.000	0.079	0.515
-654.872	366.555	0.127	0.260
-653.857	131.546	0.016	-0.022
-652.843	-132.924	0.039	-0.005
-651.828	800.000	-0.059	-0.255
-650.814	-94.055	-0.192	0.054
-649.799	800.000	-0.120	-0.358
-648.784	148.568	-0.117	-0.160
-647.770	-200.000	0.019	-0.159
-646.755	-200.000	0.034	-0.177
-645.741	794.558	0.069	-0.192
-644.726	109.162	0.200	0.244
-643.711	-184.906	-0.215	-0.003
-642.697	98.699	-0.225	0.265
-641.682	273.780	0.128	-0.231
-640.668	89.150	-0.027	-0.030
-639.653	-19.790	0.101	0.064
-638.638	167.544	0.018	-0.026
-637.624	-15.842	0.051	0.033
-636.609	-200.000	-0.082	-0.529
-635.595	-50.927	0.088	-0.042
-634.580	4.329	-0.231	-0.173
-633.565	-116.177	0.465	-0.088
-632.551	248.955	0.232	-0.401
-631.536	3.732	-0.262	-0.195
-630.522	16.837	-0.128	0.103
-629.507	312.030	-0.117	0.224
-628.492	-196.720	-0.072	0.000
-627.478	-77.852	0.175	-0.062
-626.463	44.245	0.093	-0.087
-625.449	-200.000	-0.090	0.414
-624.434	-69.829	-0.043	-0.017
-623.419	-148.432	0.139	-0.012
-622.405	-38.336	0.205	0.111
-621.390	800.000	-0.093	0.355
-620.376	-186.851	0.206	-0.003
-619.361	501.518	0.075	-0.176
-618.346	-37.378	0.196	-0.106
-617.332	-200.000	0.027	0.353
-616.317	292.301	-0.115	0.214
-615.303	800.000	-0.067	-0.246
-614.288	-200.000	0.021	0.194
-613.273	-50.245	-0.074	-0.036
-612.259	-200.000	-0.025	0.143
-611.244	-44.307	-0.088	0.045
-610.230	-142.442	0.209	0.021
-609.215	-200.000	-0.077	0.353
-608.201	800.000	0.059	0.203
-607.186	-109.788	-0.314	-0.067
-606.171	-200.000	-0.022	0.162
-605.157	377.392	0.042	0.088
-604.142	-26.328	-0.094	0.056
-603.128	192.265	0.130	-0.199
-602.113	-50.599	-0.287	0.138
-601.098	-173.402	0.393	0.012
-600.084	-128.088	0.213	-0.031
-599.069	59.626	-0.246	-0.247
-598.055	800.000	0.106	0.350
-597.040	190.126	0.151	0.231
-596.025	-13.548	-0.170	-0.112
-595.011	587.250	-0.062	0.155
-593.996	-200.000	0.007	0.169
-592.982	-68.809	0.150	0.059
-591.967	63.532	-0.254	0.259
-590.952	290.333	0.142	0.262
-589.938	60.277	0.210	-0.212
-588.923	-118.748	-0.235	-0.042
-587.909	42.755	0.057	0.053
-586.894	-6.512	-0.168	0.116
-585.879	-43.231	-0.215	-0.111
-584.865	-116.850	-0.122	0.023
-583.850	-125.530	-0.144	0.022
-582.836	48.721	0.107	-0.102
-581.821	120.391	-0.022	0.028
-580.806	191.612	0.182	0.279
-579.792	10.735	0.107	-0.083
-578.777	800.000	0.019	0.073
-577.763	-51.531	-0.217	-0.103
-576.748	-170.359	-0.556	0.020
-575.733	53.362	0.105	-0.102
-574.719	245.678	0.134	0.229
-573.704	662.357	-0.053	-0.140
-572.690	800.000	-0.104	-0.295
-571.675	15.378	-0.180	-0.144
-570.661	21.832	-0.079	-0.066
-569.646	127.225	0.148	0.191
-568.631	800.000	0.032	0.122
-567.617	122.953	-0.076	-0.097
-566.602	-49.295	0.147	-0.071
-565.588	148.659	0.054	-0.074
-564.573	-146.484	0.152	0.013
-563.558	-5.531	-0.151	0.105
-562.544	-86.512	-0.189	-0.059
-561.529	800.000	-0.086	-0.274
-560.515	563.750	-0.141	0.347
-559.500	-92.184	-0.061	-0.017
-558.485	-70.097	-0.206	0.080
-557.471	581.986	0.072	0.179
-556.456	393.822	0.138	-0.292
-555.442	204.945	0.066	-0.104
-554.427	-79.592	-0.365	-0.125
-553.412	406.878	0.088	-0.189
-552.398	118.667	-0.288	-0.361
-551.383	230.542	0.026	0.044
-550.369	-151.838	0.089	0.007
-549.354	104.552	0.101	0.121
-548.339	-200.000	0.043	-0.204
-547.325	30.465	0.294	0.255
-546.310	176.407	0.163	0.240
-545.296	-25.208	0.179	0.108
-544.281	109.681	0.094	-0.114
-543.266	-94.859	-0.228	-0.063
-542.252	522.880	0.078	0.187
-541.237	800.000	0.025	0.079
-540.223	-38.534	0.243	0.131
-539.208	-82.309	-0.240	0.079
-538.193	-97.540	-0.129	-0.034
-537.179	83.093	-0.172	-0.190
-536.164	-200.000	-0.028	-0.145
-535.150	-97.408	-0.099	0.026
-534.135	63.044	0.067	-0.068
-533.121	-200.000	0.040	-0.238
-532.106	428.467	0.035	-0.077
-531.091	-170.877	0.283	0.010
-530.077	-200.000	0.000	0.047
-529.062	178.943	-0.121	0.179
-528.048	-200.000	-0.050	0.362
-527.033	308.029	-0.035	0.067
-526.018	-81.121	0.222	0.074
-525.004	-118.860	-0.258	-0.046
-523.989	-41.946	0.235	-0.122
-522.975	-23.043	-0.192	0.117
-521.960	-115.049	-0.167	0.032
-520.945	-123.160	-0.484	0.079
-519.931	22.314	-0.152	-0.126
-518.916	-200.000	0.003	-0.063
-517.902	108.531	-0.169	-0.205
-516.887	-120.057	0.450	-0.078
-515.872	-114.650	0.350	0.068
-514.858	482.027	-0.042	0.098
-513.843	17.288	-0.152	-0.122
-512.829	800.000	0.077	-0.323
-511.814	24.380	0.221	0.185
-510.799	-200.000	-0.122	-0.001
-509.785	-61.606	-0.232	-0.099
-508.770	123.411	0.085	0.107
-507.756	92.303	0.051	0.058
-506.741	800.000	-0.054	-0.200
-505.726	-125.028	0.266	0.041
-504.712	17.441	-0.313	0.252
-503.697	-200.000	0.057	0.437
-502.683	30.168	-0.353	0.306
-501.668	661.204	-0.057	0.148
-500.653	326.573	-0.009	0.017
-499.639	-162.551	0.073	0.004
-498.624	525.460	-0.192	-0.459
-497.610	800.000	-0.172	-0.482
-496.595	29.329	-0.179	-0.154
-495.581	800.000	-0.029	-0.095
-494.566	800.000	-0.061	0.207
-493.551	-96.642	-0.105	0.028
-492.537	12.168	0.121	-0.094
-491.522	-64.826	0.141	0.058
-490.508	27.285	-0.145	0.123
-489.493	-157.649	-0.332	-0.020
-488.478	-200.000	-0.028	0.264
-487.464	14.730	-0.151	0.120
-486.449	239.545	-0.094	-0.158
-485.435	98.705	-0.142	-0.166
-484.420	-24.923	0.319	0.192
-483.405	-200.000	0.009	-0.243
-482.391	543.357	0.029	0.071
-481.376	8.297	0.197	0.150
-480.362	-74.450	-0.029	-0.011
-479.347	137.468	-0.162	0.214
-478.332	-200.000	-0.015	-0.291
-477.318	21.173	-0.080	0.066
-476.303	-58.330	0.128	-0.056
-475.289	213.449	0.166	-0.266
-474.274	800.000	0.065	-0.232
-473.259	-110.722	-0.058	-0.012
-472.245	95.043	0.083	-0.096
-471.230	-200.000	0.009	0.128
-470.216	172.463	-0.149	0.217
-469.201	800.000	-0.034	-0.141
-468.186	-200.000	-0.096	0.542
-467.172	-74.345	-0.304	-0.111
-466.157	-200.000	-0.064	-0.458
-465.143	313.192	0.071	-0.135
-464.128	132.384	-0.214	0.279
-463.113	-200.000	-0.023	0.162
-462.099	75.241	-0.108	0.115
-461.084	-74.335	-0.085	0.031
-460.070	800.000	-0.069	-0.213
-459.055	112.533	0.071	0.087
-458.040	-55.851	0.170	-0.077
-457.026	-52.986	0.101	-0.047
-456.011	-92.038	0.217	-0.062
-454.997	198.753	-0.130	-0.202
-453.982	-5.389	-0.190	-0.132
-452.968	436.623	-0.023	-0.052
-451.953	373.265	-0.203	0.417
-450.938	-94.265	0.247	-0.068
-449.924	400.456	-0.150	0.319
-448.909	-7.352	0.083	-0.057
-447.895	479.324	-0.019	-0.044
-446.880	-200.000	-0.024	-0.309
-445.865	-200.000	0.027	0.163
-444.851	-97.909	0.219	-0.057
-443.836	800.000	-0.061	-0.260
-442.822	656.030	-0.069	0.178
-441.807	111.617	-0.078	-0.096
-440.792	113.865	-0.069	0.085
-439.778	-125.861	-0.503	-0.077
-438.763	18.222	0.213	-0.172
-437.749	116.782	-0.086	0.106
-436.734	123.867	0.117	-0.149
-435.719	-200.000	-0.011	-0.067
-434.705	-25.818	-0.173	0.103
-433.690	197.635	0.019	-0.029
-432.676	-200.000	0.027	-0.517
-431.661	-5.806	0.129	-0.089
-430.646	-61.211	-0.310	-0.132
-429.632	-54.289	0.117	0.054
-428.617	-167.666	-0.394	0.016
-427.603	800.000	0.098	-0.339
-426.588	-76.102	-0.314	-0.112
-425.573	-97.054	-0.152	-0.040
-424.559	11.985	-0.227	0.177
-423.544	26.405	-0.064	0.054
-422.530	469.746	0.078	-0.178
-421.515	-89.895	-0.094	-0.028
-420.500	-132.036	-0.073	0.010
-419.486	57.318	0.218	-0.216
-418.471	-200.000	0.040	-0.316
-417.457	281.586	-0.067	0.122
-416.442	-200.000	0.042	-0.280
-415.428	160.802	-0.120	-0.170
-414.413	-93.426	-0.307	0.086
-413.398	68.818	0.261	0.271
-412.384	-57.598	0.147	-0.065
-411.369	-79.824	0.334	0.113
-410.355	-200.000	0.007	-0.058
-409.340	391.481	0.214	-0.450
-408.325	800.000	-0.088	-0.291
-407.311	-74.398	0.426	-0.155
-406.296	64.673	-0.282	0.287
-405.282	-47.459	0.282	-0.139
-404.267	400.342	-0.100	0.211
-403.252	-111.827	0.239	0.049
-402.238	343.030	0.102	-0.202
-401.223	-116.681	-0.247	-0.046
-400.209	193.749	0.196	0.299
-399.194	150.419	-0.152	0.208
-398.179	-200.000	-0.000	0.218
-397.165	-200.000	-0.017	0.084
-396.150	-182.218	-0.145	-0.003
-395.136	-4.800	-0.297	0.207
-394.121	-79.086	0.210	0.072
-393.106	800.000	0.106	0.345
-392.092	-164.801	-0.074	0.003
-391.077	-200.000	-0.042	-0.229
-390.063	-33.038	-0.149	0.083
-389.048	-150.834	-0.259	-0.020
-388.033	8.872	0.194	0.148
-387.019	238.598	-0.074	0.123
-386.004	0.184	-0.222	-0.160
-384.990	140.252	-0.035	0.046
-383.975	154.968	-0.044	0.061
-382.960	31.024	0.130	-0.112
-381.946	322.689	0.052	0.100
-380.931	576.907	0.041	0.102
-379.917	800.000	-0.043	-0.133
-378.902	189.057	0.097	-0.147
-377.888	800.000	0.041	-0.168
-376.873	-88.752	0.058	-0.017
-375.858	362.358	-0.128	-0.259
-374.844	129.891	0.111	-0.144
-373.829	602.319	0.091	-0.229
-372.815	-200.000	0.078	-0.360
-371.800	-32.922	-0.155	-0.087
-370.785	559.050	-0.136	0.331
-369.771	-200.000	0.011	0.223
-368.756	800.000	0.019	0.058
-367.742	-92.609	0.377	-0.107
-366.727	149.200	0.144	-0.197
-365.712	-49.514	-0.327	-0.157
-364.698	-97.092	0.301	0.079
-363.683	87.721	0.086	-0.096
-362.669	-63.669	-0.140	0.058
-361.654	-39.607	0.203	-0.107
-360.639	-200.000	-0.013	-0.195
-359.625	-8.570	0.019	0.013
-358.610	30.095	-0.210	0.180
-357.596	-84.983	0.148	-0.047
-356.581	-52.065	0.119	0.056
-355.566	-147.173	0.130	-0.011
-354.552	-171.918	-0.173	0.006
-353.537	-119.312	-0.237	0.042
-352.523	-200.000	0.016	-0.081
-351.508	235.483	0.068	0.113
-350.493	453.027	-0.144	0.321
-349.479	800.000	0.034	0.103
-348.464	-1.171	0.129	0.092
-347.450	-200.000	-0.005	-0.084
-346.435	800.000	-0.105	0.335
-345.420	800.000	-0.074	-0.258
-344.406	-34.435	-0.371	-0.205
-343.391	176.938	-0.149	-0.218
-342.377	-73.480	-0.127	0.047
-341.362	-67.386	0.241	0.095
-340.348	31.910	0.181	0.157
-339.333	-68.029	-0.080	0.031
-338.318	-200.000	0.012	-0.081
-337.304	42.532	-0.138	0.126
-336.289	-200.000	-0.027	0.317
-335.275	-6.549	0.085	-0.058
-334.260	-117.887	0.285	-0.051
-333.245	28.533	0.097	0.083
-332.231	-200.000	0.032	-0.219
-331.216	800.000	-0.012	0.050
-330.202	14.312	-0.114	0.090
-329.187	150.430	0.243	0.332
-328.172	-26.191	0.202	-0.120
-327.158	345.580	0.188	-0.372
-326.143	-200.000	0.177	-0.001
-325.129	-116.176	-0.148	-0.028
-324.114	-30.517	-0.088	0.050
-323.099	-129.984	-0.278	-0.038
-322.085	222.324	-0.038	0.062
-321.070	-133.081	-0.273	0.035
-320.056	41.988	-0.147	-0.134
-319.041	133.660	-0.047	0.062
-318.026	-200.000	-0.017	-0.208
-317.012	230.995	0.041	-0.067
-315.997	-167.497	0.198	-0.008
-314.983	140.324	0.352	0.468
-313.968	-77.036	0.237	-0.083
-312.953	-80.088	0.260	-0.088
-311.939	-200.000	-0.043	0.450
-310.924	-128.717	-0.366	0.052
-309.910	-114.069	0.052	-0.010
-308.895	383.415	0.111	0.230
-307.880	800.000	-0.058	-0.191
-306.866	-50.402	0.322	-0.153
-305.851	-115.952	0.409	0.077
-304.837	-78.917	-0.210	-0.072
-303.822	-98.375	-0.081	0.021
-302.807	45.752	-0.122	-0.114
-301.793	137.003	0.059	-0.078
-300.778	-200.000	-0.059	0.383
-299.764	-200.000	-0.001	-0.109
-298.749	1.681	0.222	-0.161
-297.735	485.382	-0.025	-0.056
-296.720	333.754	0.147	0.287
-295.705	22.056	-0.018	-0.015
-294.691	-19.130	0.084	-0.053
-293.676	-44.483	0.143	0.072
-292.662	-28.423	0.209	0.121
-291.647	-200.000	0.001	0.204
-290.632	34.636	0.043	0.038
-289.618	4.420	0.084	0.062
-288.603	2.742	-0.074	-0.054
-287.589	-51.372	0.269	0.126
-286.574	79.368	0.247	0.266
-285.559	-11.261	0.059	-0.039
-284.545	-28.387	0.102	-0.059
-283.530	-30.396	0.324	0.185
-282.516	-170.779	-0.203	-0.007
-281.501	800.000	-0.127	0.410
-280.486	236.245	0.027	-0.045
-279.472	800.000	-0.116	0.329
-278.457	-200.000	-0.005	-0.027
-277.443	800.000	-0.077	-0.300
-276.428	17.008	-0.059	0.047
-275.413	84.658	0.239	0.263
-274.399	-104.968	0.140	-0.032
-273.384	800.000	-0.020	-0.059
-272.370	322.590	-0.157	-0.300
-271.355	-28.552	-0.413	-0.239
-270.340	-75.296	0.066	-0.024
-269.326	-200.000	-0.085	-0.448
-268.311	-165.145	0.021	-0.001
-267.297	534.384	-0.199	-0.473
-266.282	-157.447	-0.267	0.016
-265.267	-49.185	-0.272	-0.131
-264.253	163.295	0.311	0.439
-263.238	158.322	0.203	-0.283
-262.224	-45.142	-0.304	0.152
-261.209	-94.792	-0.090	-0.025
-260.195	-128.631	-0.131	-0.019
-259.180	238.987	0.101	0.168
-258.165	800.000	-0.036	-0.138
-257.151	362.086	0.075	-0.151
-256.136	-47.710	0.302	-0.147
-255.122	-81.741	-0.219	-0.072
-254.107	-107.147	-0.197	0.044
-253.092	369.579	0.209	0.424
-252.078	42.375	0.251	-0.229
-251.063	-100.709	-0.256	0.063
-250.049	-200.000	-0.010	-0.095
-249.034	144.254	0.259	0.347
-248.019	2.612	-0.144	-0.105
-247.005	-2.351	-0.203	-0.143
-245.990	-3.998	0.179	0.125
-244.976	253.979	-0.073	-0.126
-243.961	-145.941	-0.299	-0.027
-242.946	-99.688	0.093	-0.023
-241.932	-200.000	0.068	0.666
-240.917	-105.688	-0.315	-0.072
-239.903	-200.000	-0.003	-0.054
-238.888	-37.568	0.053	0.028
-237.873	290.119	-0.113	0.206
-236.859	-141.586	0.347	-0.035
-235.844	-169.479	-0.225	0.008
-234.830	-58.557	0.201	-0.087
-233.815	-86.045	0.316	-0.098
-232.800	-58.699	0.396	-0.172
-231.786	-15.778	-0.116	0.074
-230.771	800.000	0.059	-0.212
-229.757	-121.733	-0.322	-0.053
-228.742	-44.759	-0.181	-0.090
-227.727	33.114	0.120	0.104
-226.713	182.156	-0.034	0.051
-225.698	-85.521	-0.122	0.038
-224.684	-164.601	0.094	-0.004
-223.669	-200.000	0.118	0.000
-222.655	157.010	0.118	0.163
-221.640	-200.000	-0.004	0.160
-220.625	800.000	-0.060	-0.177
-219.611	12.510	-0.132	0.102
-218.596	-200.000	-0.001	-0.148
-217.582	-69.545	0.239	-0.092
-216.567	-45.584	0.246	-0.122
-215.552	-44.830	0.048	-0.024
-214.538	-79.823	0.106	-0.036
-213.523	-6.581	-0.227	0.155
-212.509	800.000	0.026	-0.080
-211.494	-119.010	-0.093	0.016
-210.479	17.571	0.067	-0.054
-209.465	-172.994	0.280	-0.009
-208.450	-200.000	0.015	-0.091
-207.436	93.361	0.141	-0.160
-206.421	-200.000	-0.013	-0.139
-205.406	20.462	-0.130	0.105
-204.392	-116.618	0.257	-0.047
-203.377	60.113	-0.136	-0.135
-202.363	-22.431	0.332	-0.201
-201.348	12.147	-0.090	0.069
-200.333	129.140	-0.108	0.138
-199.319	377.327	0.141	0.289
-198.304	310.044	0.135	0.253
-197.290	-140.699	0.157	0.016
-196.275	-17.529	0.141	0.089
-195.260	-200.000	0.023	0.156
-194.246	229.309	-0.202	-0.331
-193.231	-134.952	0.132	0.016
-192.217	411.585	0.056	0.120
-191.202	146.886	0.051	-0.068
-190.187	115.661	-0.067	-0.082
-189.173	453.860	0.029	0.065
-188.158	-72.389	0.296	-0.110
-187.144	-157.659	-0.039	0.002
-186.129	218.293	-0.079	0.126
-185.114	-42.101	0.050	0.026
-184.100	-177.930	0.122	-0.003
-183.085	696.654	0.050	-0.131
-182.071	-157.965	-0.070	-0.004
-181.056	-200.000	0.021	0.185
-180.042	-2.455	-0.262	0.184
-179.027	371.645	0.060	0.121
-178.012	67.474	-0.359	0.367
-176.998	108.200	0.157	0.187
-175.983	154.740	0.099	0.136
-174.969	-18.495	0.196	0.123
-173.954	-140.627	-0.147	-0.015
-172.939	13.426	0.114	-0.089
-171.925	-200.000	-0.033	0.343
-170.910	63.475	-0.091	0.091
-169.896	62.059	0.270	-0.270
-168.881	800.000	-0.026	0.084
-167.866	-125.521	-0.389	-0.059
-166.852	-119.542	-0.216	0.037
-165.837	-94.633	0.202	0.055
-164.823	-128.214	0.298	0.043
-163.808	800.000	0.047	0.149
-162.793	504.056	0.054	-0.125
-161.779	-154.065	-0.241	0.016
-160.764	290.336	0.059	-0.108
-159.750	267.277	-0.091	-0.160
-158.735	-200.000	0.013	-0.169
-157.720	-68.929	0.223	0.086
-156.706	800.000	-0.036	-0.104
-155.691	-200.000	-0.023	0.196
-154.677	255.006	0.187	-0.320
-153.662	-135.286	-0.054	0.006
-152.647	-83.276	0.259	0.083
-151.633	-78.622	0.206	-0.071
-150.618	-29.249	-0.205	0.117
-149.604	21.623	0.139	-0.113
-148.589	-87.509	0.097	-0.029
-147.574	257.192	-0.077	0.133
-146.560	800.000	-0.068	0.273
-145.545	30.679	0.278	0.238
-144.531	-158.223	0.217	0.013
-143.516	-200.000	-0.027	-0.216
-142.502	333.496	-0.170	-0.329
-141.487	502.300	-0.040	-0.092
-140.472	-39.166	-0.222	-0.117
-139.458	-200.000	0.015	-0.418
-138.443	-38.857	-0.258	0.136
-137.429	-88.055	0.197	0.059
-136.414	56.428	-0.145	-0.141
-135.399	-68.779	0.134	0.052
-134.385	87.070	0.108	0.119
-133.370	-21.002	-0.104	-0.064
-132.356	-200.000	-0.013	0.132
-131.341	-21.989	-0.145	-0.088
-130.326	-24.946	-0.317	0.188
-129.312	-35.711	-0.106	0.057
-128.297	-83.131	-0.341	-0.110
-127.283	134.501	0.116	0.150
-126.268	800.000	-0.114	-0.325
-125.253	-2.889	0.260	0.182
-124.239	194.540	0.107	0.162
-123.224	-77.453	-0.040	-0.014
-122.210	2.660	0.163	-0.118
-121.195	110.377	0.095	0.114
-120.180	-92.581	0.249	0.070
-119.166	-144.719	-0.126	0.012
-118.151	-200.000	-0.011	-0.179
-117.137	-200.000	-0.011	-0.296
-116.122	-31.442	0.321	-0.180
-115.107	-200.000	0.005	0.411
-114.093	-200.000	-0.028	0.137
-113.078	414.246	-0.069	0.147
-112.064	-26.640	-0.348	-0.203
-111.049	421.988	-0.110	-0.237
-110.034	-182.333	0.237	0.004
-109.020	-66.854	-0.196	-0.078
-108.005	174.138	-0.162	0.234
-106.991	193.123	0.111	0.168
-105.976	800.000	0.143	-0.413
-104.962	47.105	0.090	-0.083
-103.947	247.958	-0.124	-0.210
-102.932	86.007	0.176	-0.194
-101.918	-6.308	-0.415	0.282
-100.903	264.820	0.109	0.190
-99.889	-160.656	-0.093	-0.005
-98.874	-53.761	-0.168	-0.077
-97.859	-200.000	0.088	0.406
-96.845	114.681	-0.131	-0.159
-95.830	118.765	-0.032	0.040
-94.816	-194.001	-0.059	0.000
-93.801	800.000	0.015	0.055
-92.786	8.236	-0.129	0.097
-91.772	7.460	-0.177	0.132
-90.757	-130.452	-0.141	-0.019
-89.743	166.823	0.262	-0.371
-88.728	800.000	0.059	0.237
-87.713	-94.922	0.125	0.034
-86.699	-200.000	0.032	0.175
-85.684	-101.923	-0.302	0.073
-84.670	-200.000	0.015	0.102
-83.655	258.365	0.109	-0.187
-82.640	-44.136	0.254	0.127
-81.626	800.000	0.052	0.174
-80.611	-33.616	-0.212	-0.117
-79.597	-200.000	0.002	0.054
-78.582	492.010	-0.014	-0.032
-77.567	-200.000	-0.007	0.128
-76.553	65.438	-0.231	0.233
-75.538	161.578	0.057	-0.079
-74.524	-85.393	-0.274	0.085
-73.509	193.317	0.121	0.182
-72.494	216.379	-0.309	0.490
-71.480	-200.000	0.025	-0.117
-70.465	308.330	0.093	-0.174
-69.451	800.000	0.084	-0.260
-68.436	-97.901	0.250	0.064
-67.422	118.269	-0.114	-0.140
-66.407	-200.000	0.067	0.313
-65.392	-200.000	-0.010	0.047
-64.378	388.771	0.072	0.149
-63.363	136.368	-0.243	-0.315
-62.349	-78.722	-0.215	-0.073
-61.334	7.295	-0.924	-0.688
-60.319	12.413	0.283	0.217
-59.305	800.000	-0.271	-0.839
-58.290	106.401	0.508	0.600
-57.276	800.000	0.581	1.650
-56.261	-200.000	83.514	512.048
-55.246	493.790	1361.554	3111.996
-54.232	146.440	2583.410	3455.925
-53.217	111.856	2255.036	2712.511
-52.203	48.800	1782.802	1666.001
-51.188	42.004	1586.998	1434.488
-50.173	39.507	1558.409	1390.987
-49.159	55.232	1602.138	1542.875
-48.144	59.574	1622.328	1593.365
-47.130	42.516	1581.270	1432.733
-46.115	39.085	1566.410	1394.912
-45.100	38.838	1563.185	1390.234
-44.086	38.895	1560.739	1388.404
-43.071	38.833	1558.668	1386.068
-42.057	38.771	1556.774	1383.893
-41.042	38.831	1555.306	1382.959
-40.027	38.768	1553.983	1381.283
-39.013	38.814	1552.286	1380.043
-37.998	38.710	1551.251	1378.334
-36.984	38.831	1549.530	1377.598
-35.969	38.943	1548.173	1377.128
-34.954	38.908	1546.873	1375.669
-33.940	38.875	1545.342	1374.021
-32.925	38.883	1544.142	1372.957
-31.911	38.850	1542.889	1371.561
-30.896	38.941	1541.438	1370.848
-29.881	39.001	1539.989	1369.921
-28.867	39.019	1538.583	1368.747
-27.852	38.975	1537.120	1367.080
-26.838	39.000	1535.627	1365.876
-25.823	38.926	1534.232	1364.068
-24.809	38.868	1532.513	1362.080
-23.794	38.877	1530.711	1360.490
-22.779	38.950	1529.855	1360.179
-21.765	38.887	1528.805	1358.757
-20.750	38.892	1527.418	1357.500
-19.736	38.980	1526.096	1356.879
-18.721	38.875	1525.090	1355.207
-17.706	38.849	1524.371	1354.339
-16.692	38.925	1522.769	1353.385
-15.677	38.869	1521.533	1351.846
-14.663	38.956	1520.508	1351.481
-13.648	38.855	1519.567	1349.891
-12.633	38.863	1518.606	1349.042
-11.619	38.765	1518.537	1348.254
-10.604	38.837	1517.014	1347.343
-9.590	38.875	1515.940	1346.594
-8.575	38.864	1515.157	1345.769
-7.560	38.776	1514.408	1344.449
-6.546	38.810	1513.450	1343.778
-5.531	38.756	1512.787	1342.764
-4.517	38.856	1511.239	1342.021
-3.502	38.880	1510.066	1341.095
-2.487	38.743	1509.344	1339.459
-1.473	38.845	1508.139	1339.034
-0.458	38.919	1506.744	1338.250
0.556	38.100	1496.876	1325.538
1.571	34.395	1467.499	1274.688
2.586	28.920	1399.001	1180.062
3.600	25.386	1308.849	1082.661
4.615	22.633	1258.826	1025.204
5.629	18.704	1200.840	956.057
6.644	9.834	1111.429	838.876
7.659	2.472	1067.089	768.487
8.673	1.002	1061.349	756.943
9.688	0.936	1058.214	754.313
10.702	0.872	1057.192	753.196
11.717	0.900	1055.211	751.858
12.731	3.182	1057.320	764.641
13.746	10.858	1067.842	810.586
14.761	16.881	1075.209	846.260
15.775	17.927	1075.233	851.424
16.790	17.358	1073.518	847.157
17.804	16.231	1071.427	839.828
18.819	15.393	1070.000	834.469
19.834	14.947	1068.132	830.724
20.848	14.648	1067.243	828.471
21.863	14.470	1066.181	826.693
22.877	14.054	1065.895	824.336
23.892	13.936	1064.471	822.579
24.907	13.832	1063.735	821.422
25.921	13.768	1063.425	820.792
26.936	13.832	1062.253	820.130
27.950	13.759	1062.298	819.732
28.965	13.942	1061.396	819.869
29.980	14.033	1059.982	819.150
30.994	13.983	1059.402	818.383
32.009	14.079	1058.201	817.858
33.023	13.982	1058.117	817.242
34.038	14.005	1056.923	816.362
35.053	14.007	1056.061	815.633
36.067	13.953	1055.033	814.502
37.082	13.920	1054.394	813.775
38.096	13.994	1053.445	813.333
39.111	14.003	1052.488	812.566
40.126	14.094	1051.501	812.177
41.140	13.964	1050.650	810.813
42.155	13.930	1049.479	809.671
43.169	13.776	1048.781	808.312
44.184	13.747	1048.395	807.800
45.199	13.674	1047.334	806.555
46.213	13.740	1045.997	805.778
47.228	13.871	1044.944	805.528
48.242	13.872	1043.738	804.532
49.257	13.851	1042.929	803.737
50.271	13.855	1041.815	802.828
51.286	13.877	1041.230	802.410
52.301	13.997	1040.361	802.249
53.315	13.959	1039.576	801.391
54.330	13.893	1038.460	800.140
55.344	13.783	1038.069	799.238
56.359	13.898	1036.819	798.760
57.374	13.807	1036.136	797.724
58.388	13.933	1035.002	797.385
59.403	13.811	1034.464	796.315
60.417	13.887	1033.472	795.847
61.432	13.746	1032.773	794.564
62.447	13.821	1032.370	794.543
63.461	13.644	1031.490	792.946
64.476	13.645	1030.529	792.142
65.490	13.687	1029.691	791.627
66.505	13.713	1028.963	791.123
67.520	13.789	1027.562	790.340
68.534	13.742	1027.228	789.789
69.549	13.688	1026.606	788.985
70.563	13.771	1025.738	788.638
71.578	13.727	1024.866	787.690
72.593	13.669	1023.810	786.536
73.607	13.663	1023.000	785.815
74.622	13.641	1022.491	785.248
75.636	13.685	1021.292	784.467
76.651	13.705	1020.299	783.731
77.666	13.673	1019.505	782.899
78.680	13.702	1019.087	782.645
79.695	13.616	1018.411	781.651
80.709	13.834	1017.344	781.789
81.724	13.815	1016.606	781.065
82.739	13.669	1016.409	780.155
83.753	13.773	1015.400	779.801
84.768	13.832	1014.477	779.301
85.782	13.780	1013.896	778.543
86.797	13.890	1012.803	778.151
87.812	13.803	1012.231	777.234
88.826	13.911	1010.882	776.635
89.841	13.688	1010.558	775.274
90.855	13.958	1009.388	775.569
91.870	13.846	1008.660	774.418
92.884	13.826	1007.966	773.726
93.899	13.904	1007.159	773.400
94.914	13.955	1006.561	773.111
95.928	13.955	1005.970	772.586
96.943	14.072	1004.950	772.279
97.957	13.943	1004.297	771.112
98.972	14.052	1003.382	770.846
99.987	13.898	1003.274	769.978
101.001	13.992	1002.192	769.515
102.016	13.865	1001.600	768.406
103.030	13.909	1000.513	767.706
104.045	13.962	999.165	766.849
105.060	13.891	998.535	765.972
106.074	14.011	997.285	765.495
107.089	13.924	996.839	764.688
108.103	13.894	995.923	763.777
109.118	13.816	995.096	762.716
110.133	13.708	994.200	761.467
111.147	13.741	993.164	760.758
112.162	13.848	992.138	760.395
113.176	13.778	991.548	759.555
114.191	13.756	990.469	758.562
115.206	13.846	989.529	758.184
116.220	13.728	989.226	757.348
117.235	13.943	987.692	757.084
118.249	13.832	987.123	756.076
119.264	13.884	986.238	755.567
120.279	13.927	985.304	754.980
121.293	13.767	984.760	753.771
122.308	13.827	984.195	753.546
123.322	13.789	983.116	752.479
124.337	13.868	981.966	751.889
125.352	13.698	981.026	750.337
126.366	13.749	979.784	749.547
127.381	13.721	979.152	748.874
128.395	13.801	977.426	747.847
129.410	13.682	977.176	747.053
130.424	13.782	976.289	746.757
131.439	13.839	974.721	745.752
132.454	13.910	973.942	745.407
133.468	13.950	973.474	745.164
134.483	13.915	972.773	744.403
135.497	13.889	972.390	743.930
136.512	13.838	971.445	742.911
137.527	13.932	970.604	742.622
138.541	13.948	969.522	741.800
139.556	13.801	968.987	740.669
140.570	13.944	968.722	741.037
141.585	13.960	967.416	740.044
142.600	14.132	966.466	740.017
143.614	14.046	965.793	739.056
144.629	13.948	965.172	738.078
145.643	13.952	964.232	737.311
146.658	13.966	963.312	736.606
147.673	14.044	962.212	736.044
148.687	13.934	961.452	734.914
149.702	14.036	960.694	734.720
150.716	13.906	959.709	733.325
151.731	13.966	958.891	732.901
152.746	13.924	958.150	732.087
153.760	13.975	957.365	731.647
154.775	14.037	956.486	731.182
155.789	14.112	955.641	730.801
156.804	13.943	955.113	729.590
157.819	13.916	954.863	729.216
158.833	13.895	953.873	728.302
159.848	14.083	953.151	728.510
160.862	14.197	952.393	728.367
161.877	14.160	951.768	727.662
162.892	14.132	950.541	726.539
163.906	14.105	949.914	725.877
164.921	14.084	949.159	725.142
165.935	14.072	947.801	723.989
166.950	14.109	946.935	723.427
167.964	14.041	946.241	722.534
168.979	14.208	944.979	722.234
169.994	14.142	944.214	721.296
171.008	14.215	943.621	721.096
172.023	14.055	943.111	719.951
173.037	14.125	942.209	719.503
174.052	14.266	941.312	719.363
175.067	14.237	940.849	718.821
176.081	14.230	939.911	718.008
177.096	14.144	939.213	717.043
178.110	14.096	938.355	716.116
179.125	14.166	937.689	715.845
180.140	14.231	936.641	715.261
181.154	14.087	936.248	714.277
182.169	14.130	935.744	714.018
183.183	14.270	934.435	713.556
184.198	14.324	933.930	713.339
185.213	14.191	933.590	712.446
186.227	14.331	932.670	712.278
187.242	14.369	932.286	712.085
188.256	14.392	931.650	711.634
189.271	14.587	930.428	711.467
190.286	14.427	929.666	710.144
191.300	14.364	929.179	709.437
192.315	14.125	928.451	707.802
193.329	14.319	927.988	708.213
194.344	14.321	927.071	707.457
195.359	14.281	926.704	706.945
196.373	14.363	925.892	706.612
197.388	14.361	925.376	706.148
198.402	14.397	924.660	705.689
199.417	14.391	924.614	705.568
200.432	14.605	923.718	705.728
201.446	14.454	923.644	704.970
202.461	14.580	923.148	705.063
203.475	14.631	922.416	704.653
204.490	14.682	921.808	704.345
205.504	14.540	920.982	703.051
206.519	14.640	919.866	702.557
207.534	14.562	919.213	701.669
208.548	14.628	918.412	701.274
209.563	14.629	918.017	700.915
210.577	14.594	917.373	700.211
211.592	14.597	917.006	699.883
212.607	14.690	916.144	699.555
213.621	14.705	915.495	699.060
214.636	14.741	915.039	698.798
215.650	14.784	914.481	698.489
216.665	14.846	913.382	697.848
217.680	14.810	913.139	697.452
218.694	14.872	912.561	697.206
219.709	14.908	912.539	697.279
220.723	14.820	911.566	696.104
221.738	14.961	910.828	696.069
222.753	14.878	909.801	694.875
223.767	14.915	909.235	694.536
224.782	14.746	908.816	693.451
225.796	14.870	908.282	693.501
226.811	15.028	906.870	693.013
227.826	15.029	906.261	692.491
228.840	14.866	905.989	691.546
229.855	14.972	905.202	691.323
230.869	14.917	904.703	690.653
231.884	14.883	903.716	689.699
232.899	14.994	903.109	689.634
233.913	14.890	902.022	688.315
234.928	14.980	901.204	687.999
235.942	15.020	900.856	687.836
236.957	14.869	900.369	686.785
237.972	14.867	899.640	686.158
238.986	14.919	899.173	685.954
240.001	14.999	898.417	685.645
241.015	15.003	897.748	685.090
242.030	14.950	896.902	684.169
243.045	15.059	896.333	684.121
244.059	15.046	895.774	683.578
245.074	15.052	895.037	682.980
246.088	15.049	894.341	682.374
247.103	15.080	893.772	682.007
248.117	15.024	893.324	681.376
249.132	15.147	892.490	681.183
250.147	15.242	892.301	681.364
251.161	15.274	891.548	680.856
252.176	15.240	891.097	680.314
253.190	15.273	890.227	679.725
254.205	15.250	889.918	679.336
255.220	15.213	889.097	678.499
256.234	15.384	888.037	678.320
257.249	15.335	887.675	677.789
258.263	15.438	887.102	677.703
259.278	15.415	886.640	677.200
260.293	15.554	885.864	677.109
261.307	15.566	885.066	676.484
262.322	15.581	884.686	676.194
263.336	15.462	884.016	675.145
264.351	15.495	883.828	675.073
265.366	15.668	882.820	674.939
266.380	15.610	882.226	674.195
267.395	15.508	881.608	673.253
268.409	15.671	880.778	673.212
269.424	15.625	880.426	672.699
270.439	15.566	879.842	671.956
271.453	15.523	878.776	670.910
272.468	15.639	877.957	670.689
273.482	15.479	877.358	669.535
274.497	15.574	877.210	669.739
275.512	15.730	876.076	669.435
276.526	15.537	875.602	668.247
277.541	15.653	874.345	667.691
278.555	15.670	874.588	667.886
279.570	15.687	873.576	667.121
280.585	15.863	873.020	667.334
281.599	15.836	872.806	667.004
282.614	15.852	871.597	666.084
283.628	15.712	871.154	665.132
284.643	15.841	870.795	665.311
285.657	15.820	870.262	664.763
286.672	15.827	869.995	664.526
287.687	15.751	869.141	663.517
288.701	15.790	869.012	663.511
289.716	15.997	867.619	663.207
290.730	15.925	867.297	662.616
291.745	15.895	866.497	661.830
292.760	15.893	865.767	661.205
293.774	15.874	865.641	660.977
294.789	16.065	864.952	661.141
295.803	16.065	864.088	660.420
296.818	15.973	863.539	659.583
297.833	15.990	862.838	659.056
298.847	16.111	861.920	658.770
299.862	16.079	861.273	658.091
300.876	15.965	860.996	657.377
301.891	16.039	859.996	656.842
302.906	16.147	859.045	656.481
303.920	16.191	858.747	656.367
304.935	16.210	858.068	655.863
305.949	16.169	857.665	655.338
306.964	16.189	856.862	654.742
307.979	16.168	856.157	654.064
308.993	16.136	855.971	653.740
310.008	16.260	855.382	653.712
311.022	16.265	854.880	653.289
312.037	16.338	854.065	652.893
313.052	16.238	853.979	652.381
314.066	16.262	853.074	651.727
315.081	16.276	852.386	651.197
316.095	16.201	852.300	650.783
317.110	16.316	851.556	650.602
318.125	16.118	851.141	649.464
319.139	16.271	850.402	649.431
320.154	16.343	849.875	649.248
321.168	16.367	849.526	649.018
322.183	16.243	848.645	647.811
323.197	16.252	848.291	647.519
324.212	16.318	847.620	647.201
325.227	16.367	846.763	646.676
326.241	16.310	846.419	646.140
327.256	16.499	845.922	646.423
328.270	16.401	845.583	645.734
329.285	16.388	844.766	645.003
330.300	16.409	844.464	644.794
331.314	16.394	843.915	644.261
332.329	16.387	843.219	643.649
333.343	16.423	842.454	643.142
334.358	16.467	841.837	642.784
335.373	16.618	841.347	642.926
336.387	16.523	840.672	641.993
337.402	16.663	840.380	642.244
338.416	16.670	839.472	641.519
339.431	16.640	839.097	641.062
340.446	16.671	838.319	640.531
341.460	16.637	837.879	640.008
342.475	16.522	837.688	639.369
343.489	16.752	836.523	639.294
344.504	16.713	836.190	638.833
345.519	16.779	835.704	638.657
346.533	16.782	835.413	638.388
347.548	16.627	834.917	637.367
348.562	16.837	834.257	637.598
349.577	16.905	833.667	637.347
350.592	16.869	833.093	636.716
351.606	16.804	832.720	636.131
352.621	16.745	832.178	635.441
353.635	16.818	831.809	635.374
354.650	16.925	831.246	635.289
355.665	16.935	830.847	634.964
356.679	16.784	830.251	633.887
357.694	16.853	829.986	633.890
358.708	16.996	829.076	633.670
359.723	16.934	828.647	633.058
360.738	16.924	828.002	632.469
361.752	16.987	827.725	632.436
362.767	16.912	827.614	632.016
363.781	16.859	826.905	631.223
364.796	16.993	826.255	631.171
365.810	17.007	826.097	631.044
366.825	17.222	825.514	631.343
367.840	17.330	824.901	631.217
368.854	17.248	824.571	630.607
369.869	17.149	824.032	629.771
370.883	17.216	823.358	629.447
371.898	17.173	823.093	629.032
372.913	17.227	822.437	628.674
373.927	17.168	821.773	627.893
374.942	17.278	821.012	627.661
375.956	17.400	820.043	627.316
376.971	17.344	820.014	627.030
377.986	17.216	819.682	626.250
379.000	17.240	819.103	625.839
380.015	17.165	818.866	625.329
381.029	17.283	818.191	625.191
382.044	17.352	817.599	624.937
383.059	17.571	816.601	624.922
384.073	17.310	816.578	623.890
385.088	17.277	815.988	623.264
386.102	17.383	815.664	623.351
387.117	17.411	814.870	622.791
388.132	17.273	814.552	621.987
389.146	17.283	814.015	621.561
390.161	17.487	813.485	621.844
391.175	17.427	813.234	621.378
392.190	17.568	812.350	621.164
393.205	17.668	812.317	621.447
394.219	17.557	811.894	620.664
395.234	17.514	811.482	620.138
396.248	17.591	810.990	619.987
397.263	17.465	810.207	618.875
398.278	17.507	809.834	618.689
399.292	17.496	809.264	618.158
400.307	17.503	808.936	617.878
401.321	17.514	808.664	617.657
402.336	17.484	808.532	617.394
403.350	17.468	807.731	616.667
404.365	17.442	807.641	616.451
405.380	17.536	807.000	616.248
406.394	17.764	806.535	616.663
407.409	17.654	806.040	615.831
408.423	17.721	805.444	615.564
409.438	17.696	805.155	615.198
410.453	17.777	804.599	615.011
411.467	17.890	804.113	614.992
412.482	17.686	803.852	614.001
413.496	17.889	803.181	614.166
414.511	17.835	802.737	613.577
415.526	17.847	802.536	613.414
416.540	17.860	802.057	613.040
417.555	18.062	801.533	613.311
418.569	17.874	801.109	612.257
419.584	18.073	800.462	612.420
420.599	17.954	800.051	611.626
421.613	98.227	1274.145	1407.881
422.628	84.147	1343.265	1408.000
