DTS Sentinel unit serial number:	SN413079Multiplexer serial number:	ORYXHardware model number:	OX4-SRSoftware version number:	ORYX F/W v4.00 Oryx Data Collector v3.7.2.0data status	okinstallation	princeton_trtdifferential loss correction	single-endedforward channel	channel 3reverse channel	N/Adate	2019/09/12time	20:02:04forward acquisition time	15.00reverse acquisition time	0.00gamma	496.2192k internal	0.2323k external	0.2323temperature offset calibration	1.0115default loss term (dB/km)	0.3790temperature slope calibration	1.0000multiplexer offset coefficient	1.0000multiplexer slope coefficient	1.0000fibre end	0.00T internal ref (°C)	31.75T ext. ref 1 (°C)	3.47T ext. ref 2 (°C)	26.32length (m)	temperature (°C)	Stokes	anti-Stokes-747.200	-118.994	-0.460	-0.081
-746.185	466.009	0.380	0.860
-745.171	-104.539	-0.613	0.143
-744.156	-55.098	0.221	-0.101
-743.142	308.556	0.388	-0.731
-742.127	213.444	-0.202	-0.323
-741.112	-200.000	0.050	-0.237
-740.098	-16.737	-0.297	0.190
-739.083	800.000	0.153	0.437
-738.069	37.759	-0.636	0.570
-737.054	-49.901	0.150	0.072
-736.039	-16.163	-0.538	0.345
-735.025	26.963	-0.499	0.422
-734.010	-68.806	-0.227	-0.089
-732.996	-119.094	0.428	-0.076
-731.981	-35.556	-0.380	0.208
-730.966	10.614	-0.434	0.334
-729.952	-197.907	0.127	0.001
-728.937	-179.838	0.709	0.015
-727.923	203.720	0.317	0.495
-726.908	-0.712	-0.268	0.192
-725.894	296.790	-0.351	-0.650
-724.879	-200.000	0.061	-0.670
-723.864	-45.237	0.302	-0.151
-722.850	-11.520	-0.902	-0.598
-721.835	-54.974	1.029	-0.468
-720.821	-145.806	-0.800	-0.072
-719.806	656.945	-0.294	-0.763
-718.791	-184.287	0.456	-0.008
-717.777	-87.948	0.692	-0.210
-716.762	36.041	-0.620	-0.551
-715.748	-200.000	-0.093	0.893
-714.733	96.058	0.065	-0.075
-713.718	38.747	-0.454	-0.408
-712.704	-200.000	-0.023	-0.209
-711.689	-71.668	-0.207	0.078
-710.675	145.271	0.167	-0.225
-709.660	51.614	-0.165	-0.158
-708.645	-58.638	-0.363	-0.159
-707.631	800.000	-0.082	-0.318
-706.616	33.396	-0.216	-0.189
-705.602	-200.000	-0.039	-0.913
-704.587	-90.162	0.566	0.166
-703.572	-182.899	-0.830	0.015
-702.558	136.059	0.264	-0.347
-701.543	155.812	0.672	-0.934
-700.529	392.168	-0.089	-0.187
-699.514	-200.000	0.123	-0.768
-698.499	-97.656	-0.896	0.234
-697.485	-117.357	-0.496	-0.091
-696.470	4.444	0.464	-0.343
-695.456	517.792	0.239	0.564
-694.441	-101.609	0.204	-0.050
-693.426	108.469	-0.412	-0.495
-692.412	-71.729	-0.343	-0.129
-691.397	800.000	0.213	-0.597
-690.383	-71.422	0.558	0.211
-689.368	-200.000	-0.005	-0.049
-688.354	256.684	-0.340	-0.588
-687.339	-41.798	0.536	0.277
-686.324	121.313	-0.215	0.270
-685.310	-13.296	-1.111	0.727
-684.295	105.529	-0.529	-0.629
-683.281	-16.216	0.612	0.392
-682.266	255.286	-0.242	0.417
-681.251	-50.518	-0.169	0.080
-680.237	623.417	0.133	-0.338
-679.222	-29.140	-0.853	0.493
-678.208	-34.373	-0.115	0.064
-677.193	58.477	0.437	-0.432
-676.178	-54.974	-0.134	-0.061
-675.164	-84.019	-0.645	0.206
-674.149	800.000	0.128	0.508
-673.135	800.000	0.111	0.320
-672.120	-102.856	-0.881	0.211
-671.105	391.193	0.458	0.957
-670.091	430.523	0.286	0.624
-669.076	-166.174	-1.039	-0.044
-668.062	-59.894	0.432	-0.186
-667.047	66.299	-0.276	-0.282
-666.032	-200.000	0.072	-0.601
-665.018	-80.198	-0.500	0.168
-664.003	-58.121	0.297	0.130
-662.989	-100.332	-1.145	0.286
-661.974	18.530	-0.386	0.311
-660.959	-200.000	0.125	1.075
-659.945	-159.368	0.493	0.028
-658.930	535.611	0.243	-0.581
-657.916	-134.764	0.340	0.042
-656.901	-200.000	-0.107	0.691
-655.886	800.000	0.144	-0.623
-654.872	800.000	-0.076	-0.215
-653.857	-83.951	0.363	-0.116
-652.843	8.955	0.269	-0.204
-651.828	-200.000	0.056	0.294
-650.814	-125.213	0.468	0.072
-649.799	9.711	0.964	0.735
-648.784	-39.359	-0.698	0.368
-647.770	68.024	0.325	0.335
-646.755	-200.000	0.092	0.784
-645.741	359.943	0.309	0.622
-644.726	-77.392	0.201	0.070
-643.711	-7.765	0.996	0.676
-642.697	140.707	-0.385	0.512
-641.682	-200.000	-0.036	0.628
-640.668	89.694	-0.447	0.502
-639.653	-200.000	-0.011	-0.105
-638.638	-28.593	0.647	0.375
-637.624	-200.000	0.055	0.272
-636.609	-100.754	0.175	0.043
-635.595	261.446	-0.222	-0.386
-634.580	-44.479	-0.900	-0.453
-633.565	-109.224	0.454	0.097
-632.551	-200.000	0.062	0.295
-631.536	-9.683	0.468	0.313
-630.522	-9.228	-0.182	0.123
-629.507	25.298	0.487	-0.407
-628.492	-73.345	0.356	0.131
-627.478	800.000	-0.219	0.835
-626.463	-103.866	0.976	-0.229
-625.449	29.158	0.296	-0.253
-624.434	-200.000	-0.060	-0.464
-623.419	152.102	0.129	-0.177
-622.405	-200.000	-0.017	-0.227
-621.390	-42.189	0.604	-0.310
-620.376	639.950	0.281	0.718
-619.361	227.195	0.353	0.576
-618.346	-63.224	-0.743	0.308
-617.332	-56.440	0.260	0.116
-616.317	800.000	-0.081	0.241
-615.303	-200.000	0.094	-1.059
-614.288	-78.178	0.636	-0.220
-613.273	-64.426	0.265	0.108
-612.259	-93.433	0.448	-0.125
-611.244	800.000	0.162	0.679
-610.230	800.000	-0.118	-0.402
-609.215	96.761	0.472	0.543
-608.201	-152.534	0.690	0.050
-607.186	3.467	0.801	-0.586
-606.171	35.875	0.618	-0.546
-605.157	-151.260	-0.844	-0.063
-604.142	-75.442	0.919	-0.329
-603.128	82.363	-0.668	-0.728
-602.113	42.528	-0.312	-0.285
-601.098	-14.598	0.187	0.121
-600.084	283.382	-0.410	-0.739
-599.069	-85.422	0.764	0.239
-598.055	-90.662	-0.332	-0.096
-597.040	-30.982	-0.080	0.045
-596.025	380.905	-0.324	0.667
-595.011	-99.752	-0.231	0.058
-593.996	575.382	-0.250	-0.612
-592.982	57.544	0.381	-0.373
-591.967	38.395	-0.328	0.294
-590.952	800.000	0.140	0.433
-589.938	35.325	0.229	-0.201
-588.923	800.000	-0.084	0.235
-587.909	-54.388	-0.670	-0.305
-586.894	239.227	-0.216	0.361
-585.879	81.083	-0.201	0.218
-584.865	-128.792	0.795	0.112
-583.850	-71.303	-0.549	0.207
-582.836	800.000	-0.280	-0.912
-581.821	117.269	-0.869	-1.072
-580.806	-117.558	-0.489	0.089
-579.792	-93.732	-0.050	-0.014
-578.777	-41.446	-0.096	0.050
-577.763	141.876	-0.194	-0.258
-576.748	25.535	-0.524	0.437
-575.733	-200.000	-0.012	0.789
-574.719	-52.473	0.350	0.163
-573.704	-85.012	-0.918	-0.289
-572.690	-200.000	-0.134	-0.690
-571.675	-200.000	0.053	0.603
-570.661	800.000	0.105	0.318
-569.646	-158.837	-0.809	0.046
-568.631	-93.324	1.141	0.318
-567.617	-95.910	-0.321	0.086
-566.602	-138.808	-0.665	-0.073
-565.588	782.120	0.170	-0.467
-564.573	-81.554	-0.281	-0.093
-563.558	432.546	0.256	-0.557
-562.544	382.904	-0.108	-0.223
-561.529	-142.757	-0.492	-0.048
-560.515	608.222	-0.375	0.937
-559.500	-36.940	0.650	0.349
-558.485	-42.568	0.365	-0.186
-557.471	-82.875	-0.103	-0.033
-556.456	-38.885	-0.216	-0.114
-555.442	-54.616	-0.099	-0.045
-554.427	75.345	-0.223	0.236
-553.412	275.753	-0.535	0.951
-552.398	-119.741	-0.992	0.172
-551.383	-57.427	0.221	0.097
-550.369	64.457	-0.465	-0.470
-549.354	78.130	-0.448	-0.479
-548.339	22.696	-0.319	-0.262
-547.325	383.715	-0.237	-0.489
-546.310	-149.637	-0.216	-0.017
-545.296	-45.965	0.584	-0.288
-544.281	-50.257	-0.582	0.276
-543.266	279.025	0.102	-0.182
-542.252	51.265	-0.302	-0.287
-541.237	-75.193	0.647	0.232
-540.223	-200.000	-0.110	0.596
-539.208	-109.690	-0.614	-0.129
-538.193	-87.168	-0.208	0.063
-537.179	-78.191	-0.791	0.273
-536.164	45.340	0.227	0.210
-535.150	-200.000	0.077	0.665
-534.135	-147.695	-0.788	-0.066
-533.121	-41.702	-0.471	0.242
-532.106	29.391	-0.582	0.495
-531.091	129.774	-0.045	-0.058
-530.077	-69.629	-0.969	0.371
-529.062	800.000	0.176	-0.548
-528.048	-12.545	0.261	-0.171
-527.033	-200.000	-0.127	0.890
-526.018	59.073	0.803	0.791
-525.004	-11.120	0.252	-0.166
-523.989	-104.303	0.482	0.112
-522.975	9.875	0.327	-0.248
-521.960	-52.634	0.525	-0.242
-520.945	-151.347	-0.155	-0.012
-519.931	-148.027	0.116	-0.010
-518.916	-133.306	-0.190	0.024
-517.902	483.939	0.280	-0.638
-516.887	-0.795	0.442	0.313
-515.872	106.050	0.442	-0.523
-514.858	492.059	0.040	0.091
-513.843	-25.361	-0.655	0.388
-512.829	60.470	-0.630	-0.625
-511.814	650.886	0.088	-0.225
-510.799	-138.669	-0.764	-0.084
-509.785	90.105	-0.657	-0.735
-508.770	-200.000	-0.002	0.275
-507.756	3.624	-0.401	0.293
-506.741	-77.365	-0.654	-0.227
-505.726	-134.559	0.538	-0.066
-504.712	12.818	-0.361	0.279
-503.697	-130.248	-0.699	0.095
-502.683	161.272	-0.055	0.077
-501.668	572.310	-0.295	-0.718
-500.653	-40.265	-0.297	-0.155
-499.639	70.261	-0.141	-0.146
-498.624	800.000	0.200	0.708
-497.610	-142.702	-1.004	0.098
-496.595	800.000	-0.018	0.077
-495.581	-103.943	0.442	0.103
-494.566	141.488	0.144	-0.191
-493.551	293.612	-0.183	-0.334
-492.537	-136.607	-0.512	-0.059
-491.522	103.511	-0.093	0.109
-490.508	-29.161	0.740	0.424
-489.493	-62.123	0.842	0.351
-488.478	-200.000	0.108	-0.699
-487.464	800.000	0.279	0.789
-486.449	-28.356	0.278	0.161
-485.435	100.179	0.529	0.613
-484.420	-200.000	-0.085	-0.925
-483.405	145.130	0.430	-0.575
-482.391	-46.460	0.215	0.105
-481.376	-33.827	-0.339	-0.187
-480.362	-200.000	0.055	0.849
-479.347	2.923	0.287	-0.209
-478.332	95.856	-0.214	0.244
-477.318	-200.000	0.115	-0.558
-476.303	-39.495	-0.827	0.433
-475.289	-66.559	-0.427	0.169
-474.274	163.679	0.424	-0.596
-473.259	12.855	0.535	-0.413
-472.245	92.094	-1.009	-1.136
-471.230	316.647	-0.351	0.663
-470.216	173.504	-0.251	-0.362
-469.201	-180.060	-0.982	-0.021
-468.186	-18.094	-0.168	0.105
-467.172	427.736	-0.192	-0.414
-466.157	94.453	-0.277	-0.314
-465.143	-103.490	-0.538	0.126
-464.128	-18.068	0.486	0.304
-463.113	-157.767	-0.309	-0.018
-462.099	-127.844	0.792	0.114
-461.084	274.105	0.295	0.521
-460.070	-37.889	-0.596	-0.316
-459.055	163.187	0.571	0.801
-458.040	-35.463	-0.762	-0.413
-457.026	341.472	0.325	0.633
-456.011	-90.498	-0.195	0.056
-454.997	733.483	0.306	-0.818
-453.982	166.196	0.232	-0.328
-452.968	204.936	-0.268	0.415
-451.953	3.938	-0.674	0.492
-450.938	-200.000	0.012	0.065
-449.924	800.000	0.216	-0.597
-448.909	-106.919	1.149	0.254
-447.895	-200.000	0.032	0.604
-446.880	362.025	0.125	0.249
-445.865	669.725	0.157	0.406
-444.851	-200.000	-0.051	-0.375
-443.836	-200.000	-0.031	-0.531
-442.822	179.045	0.444	-0.648
-441.807	13.559	-0.554	-0.429
-440.792	-130.048	0.676	0.092
-439.778	-152.337	0.712	0.051
-438.763	-49.486	-0.406	0.193
-437.749	-19.061	0.780	-0.484
-436.734	-95.186	-0.146	0.039
-435.719	78.876	-0.508	0.542
-434.705	-30.733	0.184	0.104
-433.690	418.132	-0.231	0.493
-432.676	303.304	-0.382	-0.707
-431.661	-71.452	-1.182	0.441
-430.646	481.401	-0.174	0.394
-429.632	800.000	0.101	0.423
-428.617	-200.000	-0.066	-0.544
-427.603	-200.000	0.074	-0.714
-426.588	319.087	0.320	-0.605
-425.573	-88.261	0.286	-0.085
-424.559	-3.659	-0.903	-0.626
-423.544	-45.983	0.698	0.343
-422.530	800.000	0.102	0.331
-421.515	72.332	0.191	0.199
-420.500	424.102	0.092	-0.198
-419.486	-200.000	0.159	0.864
-418.471	800.000	-0.235	-0.852
-417.457	-16.588	1.323	0.836
-416.442	-35.592	-0.242	-0.131
-415.428	-72.155	0.504	-0.186
-414.413	-153.041	-0.406	-0.028
-413.398	51.050	-0.547	-0.517
-412.384	184.992	0.157	0.233
-411.369	4.463	0.432	0.316
-410.355	-86.765	0.628	0.191
-409.340	-78.495	0.562	0.192
-408.325	-49.779	0.942	-0.446
-407.311	167.922	0.350	-0.497
-406.296	-65.067	-1.076	0.433
-405.282	70.827	0.274	-0.282
-404.267	800.000	0.307	-1.047
-403.252	-83.036	0.692	-0.222
-402.238	283.480	-0.229	-0.410
-401.223	-167.101	-0.116	-0.005
-400.209	-75.817	-0.214	-0.075
-399.194	800.000	0.102	0.331
-398.179	-200.000	0.057	0.342
-397.165	-200.000	0.047	0.606
-396.150	38.785	-0.044	0.039
-395.136	533.034	-0.231	0.545
-394.121	515.816	0.396	0.920
-393.106	-19.733	0.411	-0.253
-392.092	800.000	0.247	0.744
-391.077	-200.000	0.068	-0.349
-390.063	31.099	0.200	-0.171
-389.048	-16.850	-0.839	-0.528
-388.033	-194.105	0.530	0.004
-387.019	-155.908	-0.995	0.063
-386.004	205.577	-0.275	0.425
-384.990	-56.320	-0.353	0.156
-383.975	-46.637	-0.447	-0.218
-382.960	-200.000	0.081	0.622
-381.946	800.000	-0.267	0.894
-380.931	-200.000	-0.062	0.971
-379.917	800.000	-0.073	0.254
-378.902	349.280	0.359	-0.705
-377.888	-44.696	0.573	0.285
-376.873	-22.633	0.683	0.411
-375.858	-58.470	0.208	0.090
-374.844	371.070	0.150	-0.304
-373.829	-150.854	-0.211	0.016
-372.815	22.685	0.394	-0.321
-371.800	118.897	0.034	0.042
-370.785	6.262	0.359	-0.265
-369.771	207.535	0.136	0.211
-368.756	800.000	-0.260	-0.729
-367.742	477.274	-0.068	-0.153
-366.727	-37.705	0.249	-0.132
-365.712	-86.630	-0.609	0.186
-364.698	51.863	0.401	-0.380
-363.683	18.154	0.619	-0.491
-362.669	80.225	0.414	0.444
-361.654	27.876	-0.296	-0.248
-360.639	-101.093	-0.295	-0.072
-359.625	-38.340	0.710	-0.374
-358.610	-63.115	-0.515	0.211
-357.596	-26.642	0.462	-0.269
-356.581	-200.000	0.012	-0.078
-355.566	800.000	-0.181	-0.696
-354.552	800.000	-0.145	-0.428
-353.537	37.925	0.552	-0.488
-352.523	-200.000	0.061	0.463
-351.508	22.569	0.509	-0.414
-350.493	-72.887	0.512	-0.187
-349.479	-57.610	0.277	0.121
-348.464	147.306	0.549	-0.734
-347.450	76.655	-0.680	0.717
-346.435	-33.180	-0.584	-0.322
-345.420	349.557	-0.240	-0.471
-344.406	268.879	0.114	0.199
-343.391	100.230	-0.149	0.172
-342.377	-10.082	0.383	0.253
-341.362	-107.314	0.473	-0.103
-340.348	-132.639	-0.769	-0.098
-339.333	-122.612	0.601	-0.097
-338.318	-27.172	0.712	-0.412
-337.304	109.163	0.276	0.328
-336.289	-200.000	0.011	-0.216
-335.275	-93.597	-1.112	0.305
-334.260	693.904	-0.050	-0.130
-333.245	12.557	-0.876	0.672
-332.231	-200.000	0.022	-0.856
-331.216	426.215	-0.205	-0.439
-330.202	74.296	0.380	-0.396
-329.187	456.885	0.246	-0.543
-328.172	143.206	-0.367	0.486
-327.158	-200.000	0.035	-0.228
-326.143	-15.830	0.288	0.182
-325.129	800.000	0.347	-1.070
-324.114	-72.120	-0.513	0.189
-323.099	-129.129	0.076	-0.011
-322.085	-112.196	-0.337	-0.067
-321.070	800.000	-0.248	-0.975
-320.056	94.634	-0.255	-0.288
-319.041	108.006	-0.189	0.223
-318.026	31.714	0.505	-0.432
-317.012	-34.210	0.238	0.130
-315.997	-103.927	0.260	0.060
-314.983	602.864	-0.271	-0.668
-313.968	-200.000	-0.010	-0.644
-312.953	-53.235	0.831	0.378
-311.939	800.000	-0.108	-0.343
-310.924	-94.530	0.279	-0.075
-309.910	25.120	-0.312	0.257
-308.895	30.647	-0.727	-0.618
-307.880	-34.511	0.760	-0.413
-306.866	-200.000	0.067	-0.816
-305.851	-41.699	-0.399	0.203
-304.837	-161.704	-0.365	-0.018
-303.822	-200.000	0.136	-0.696
-302.807	-126.973	0.504	0.074
-301.793	-40.400	0.275	0.142
-300.778	-200.000	-0.002	-0.258
-299.764	-27.747	0.207	0.119
-298.749	13.756	0.930	-0.718
-297.735	800.000	0.167	-0.698
-296.720	-200.000	0.148	-0.926
-295.705	-65.891	0.536	0.213
-294.691	305.302	-0.146	0.269
-293.676	-200.000	-0.011	0.106
-292.662	-73.280	-0.876	-0.318
-291.647	-200.000	0.112	-0.968
-290.632	26.067	-0.195	0.162
-289.618	139.301	-0.195	-0.255
-288.603	-88.221	0.582	0.173
-287.589	-110.349	0.736	-0.152
-286.574	129.226	0.348	0.440
-285.559	800.000	0.149	0.420
-284.545	-137.488	-0.497	-0.056
-283.530	-40.241	0.987	-0.509
-282.516	-84.758	-0.391	-0.122
-281.501	-6.735	-0.296	-0.200
-280.486	-165.096	-0.895	0.039
-279.472	-200.000	0.030	-0.630
-278.457	-30.551	-0.766	-0.430
-277.443	113.115	0.135	-0.163
-276.428	-96.237	-0.122	0.032
-275.413	114.802	-0.071	0.086
-274.399	-29.232	0.096	0.055
-273.384	280.034	-0.272	0.482
-272.370	-135.974	1.090	0.127
-271.355	351.381	0.399	0.782
-270.340	800.000	-0.121	0.422
-269.326	-114.290	-0.739	-0.141
-268.311	82.481	-0.371	0.399
-267.297	-82.309	-0.300	0.097
-266.282	-48.926	0.811	-0.385
-265.267	-200.000	-0.093	0.786
-264.253	-42.994	-1.106	0.556
-263.238	-41.541	-0.415	0.212
-262.224	753.279	0.204	0.545
-261.209	-200.000	-0.062	0.507
-260.195	504.937	0.050	-0.115
-259.180	-143.930	-0.308	-0.029
-258.165	-104.554	0.184	-0.042
-257.151	146.663	0.662	0.882
-256.136	-117.410	0.894	0.160
-255.122	-98.331	-0.676	-0.172
-254.107	-60.015	-0.646	-0.273
-253.092	-150.182	0.952	-0.073
-252.078	-200.000	-0.042	-0.492
-251.063	-12.892	-0.364	-0.235
-250.049	172.709	-0.459	0.655
-249.034	-200.000	-0.044	0.566
-248.019	6.225	-0.428	-0.315
-247.005	-34.687	-0.402	0.218
-245.990	287.467	-0.201	-0.360
-244.976	290.198	-0.279	-0.502
-243.961	-66.998	-0.196	0.076
-242.946	741.876	-0.176	-0.469
-241.932	-137.502	-1.166	0.130
-240.917	-110.973	0.543	-0.110
-239.903	-137.823	-1.227	0.136
-238.888	380.797	0.173	-0.351
-237.873	-200.000	-0.187	-0.001
-236.859	149.215	0.548	-0.734
-235.844	-80.489	-0.172	-0.057
-234.830	-103.342	0.593	-0.138
-233.815	-135.566	0.373	0.044
-232.800	-146.389	0.283	-0.025
-231.786	406.123	0.245	0.512
-230.771	-171.610	-0.741	0.024
-229.757	170.582	-0.163	-0.231
-228.742	206.149	0.182	-0.280
-227.727	-118.248	-0.318	0.056
-226.713	-45.382	-0.439	0.215
-225.698	-97.137	0.390	0.101
-224.684	-47.557	0.412	-0.198
-223.669	444.993	0.394	0.856
-222.655	-200.000	-0.518	0.002
-221.640	-51.648	-0.441	0.203
-220.625	-1.695	-0.622	0.433
-219.611	130.619	-0.527	0.668
-218.596	800.000	0.071	0.285
-217.582	800.000	-0.103	-0.348
-216.567	-200.000	-0.274	1.286
-215.552	-157.418	0.692	0.041
-214.538	-40.355	-0.124	0.064
-213.523	189.764	-0.453	0.672
-212.509	-122.824	0.522	-0.083
-211.494	-38.703	0.283	-0.148
-210.479	477.338	0.278	-0.623
-209.465	-93.413	-0.867	-0.237
-208.450	-48.144	0.746	0.356
-207.436	-117.118	0.620	0.112
-206.421	428.515	-0.111	0.237
-205.406	-8.224	-0.406	-0.270
-204.392	-108.652	0.430	0.091
-203.377	690.594	-0.383	-0.991
-202.363	257.204	0.303	0.515
-201.348	38.424	-0.165	0.146
-200.333	148.191	-0.254	-0.339
-199.319	-24.890	0.686	-0.403
-198.304	-84.692	-0.546	-0.170
-197.290	-82.597	-0.571	0.183
-196.275	16.385	0.233	0.181
-195.260	190.435	-0.420	0.624
-194.246	379.971	0.187	0.379
-193.231	800.000	0.030	0.119
-192.217	32.161	0.772	0.658
-191.202	151.601	0.165	-0.222
-190.187	-133.152	-0.716	0.090
-189.173	-11.558	0.804	0.522
-188.158	446.427	0.085	-0.184
-187.144	-139.345	0.913	0.097
-186.129	69.412	0.289	0.294
-185.114	30.706	-0.309	-0.261
-184.100	-71.001	0.792	-0.294
-183.085	-200.000	-0.001	-0.369
-182.071	-104.359	-0.658	0.151
-181.056	-2.492	0.404	0.280
-180.042	160.509	-0.114	-0.158
-179.027	-200.000	0.047	-0.310
-178.012	-16.876	0.693	-0.433
-176.998	-98.031	0.522	-0.133
-175.983	-40.619	0.889	0.455
-174.969	145.484	0.373	-0.493
-173.954	-200.000	-0.090	0.431
-172.939	240.342	0.185	0.304
-171.925	378.180	0.234	-0.472
-170.910	35.753	0.552	-0.479
-169.896	602.496	0.207	0.509
-168.881	21.026	-0.564	-0.452
-167.866	0.143	-0.665	0.468
-166.852	-103.575	0.347	0.080
-165.837	-52.941	0.715	0.325
-164.823	-90.199	0.183	-0.052
-163.808	-97.686	0.391	0.100
-162.793	-56.995	0.232	-0.101
-161.779	25.896	0.293	-0.241
-160.764	-138.781	-0.294	0.032
-159.750	-39.008	-0.365	0.190
-158.735	-90.370	-0.672	0.192
-157.720	-129.019	-0.656	-0.091
-156.706	800.000	0.160	0.681
-155.691	192.542	-0.400	0.596
-154.677	-179.278	-0.559	-0.012
-153.662	129.632	-0.188	0.237
-152.647	156.420	-0.435	0.592
-151.633	-32.576	-0.580	-0.319
-150.618	142.612	-0.331	-0.434
-149.604	-200.000	-0.060	0.679
-148.589	-139.617	0.595	0.063
-147.574	-51.756	0.874	0.402
-146.560	800.000	0.047	0.174
-145.545	97.250	0.019	0.021
-144.531	-200.000	0.048	0.477
-143.516	625.728	0.195	0.484
-142.502	132.265	-0.212	-0.270
-141.487	-50.706	0.273	-0.127
-140.472	25.592	-0.704	0.578
-139.458	-200.000	0.001	0.511
-138.443	-114.626	-0.174	-0.033
-137.429	-200.000	0.020	0.341
-136.414	62.787	-0.317	0.313
-135.399	-129.662	0.295	0.040
-134.385	-116.591	-0.421	-0.076
-133.370	-90.145	-0.481	-0.138
-132.356	193.527	0.280	0.418
-131.341	-20.856	-0.196	0.118
-130.326	632.898	-0.140	0.350
-129.312	284.001	-0.161	-0.286
-128.297	250.963	0.227	0.381
-127.283	-200.000	0.111	0.773
-126.268	-200.000	0.037	-0.356
-125.253	-200.000	-0.068	-0.367
-124.239	-152.684	-0.682	-0.048
-123.224	-26.828	0.940	-0.541
-122.210	-39.472	-0.483	-0.249
-121.195	309.149	0.224	-0.412
-120.180	349.740	0.015	-0.030
-119.166	800.000	-0.013	-0.039
-118.151	-76.666	-0.779	0.269
-117.137	-59.756	-0.495	-0.209
-116.122	-105.027	-0.495	-0.112
-115.107	-58.373	-0.147	0.063
-114.093	800.000	-0.191	-0.821
-113.078	800.000	-0.276	-1.007
-112.064	124.565	-0.374	0.464
-111.049	-147.597	-1.038	-0.086
-110.034	-152.624	0.807	-0.057
-109.020	-77.174	0.711	-0.244
-108.005	29.259	-0.596	0.499
-106.991	-60.076	0.367	-0.154
-105.976	-83.145	-0.539	0.171
-104.962	135.579	0.459	-0.589
-103.947	800.000	0.046	-0.149
-102.932	-200.000	-0.030	-0.421
-101.918	-200.000	-0.021	-0.335
-100.903	-121.709	0.474	-0.077
-99.889	-200.000	0.063	-0.273
-98.874	4.355	-0.400	0.289
-97.859	-23.920	0.710	-0.419
-96.845	-134.799	-1.654	0.198
-95.830	111.617	-0.117	0.139
-94.816	800.000	0.043	0.121
-93.801	390.499	0.279	0.569
-92.786	-16.599	-0.515	0.321
-91.772	-153.279	0.300	-0.021
-90.757	-81.201	0.441	-0.144
-89.743	-82.278	0.182	-0.058
-88.728	800.000	0.109	-0.371
-87.713	90.932	0.308	-0.340
-86.699	766.294	-0.123	0.328
-85.684	192.363	0.207	0.307
-84.670	800.000	0.105	-0.353
-83.655	-14.690	-0.684	-0.433
-82.640	800.000	-0.039	-0.130
-81.626	800.000	-0.064	-0.263
-80.611	154.541	-0.259	-0.350
-79.597	-161.053	0.875	-0.045
-78.582	91.356	0.449	0.496
-77.567	102.004	0.130	0.150
-76.553	-65.697	0.473	-0.187
-75.538	-17.460	0.614	-0.380
-74.524	-200.000	-0.049	0.328
-73.509	-200.000	-0.055	0.793
-72.494	-101.250	0.580	-0.139
-71.480	408.243	0.051	-0.105
-70.465	-64.448	0.459	-0.184
-69.451	-64.827	-0.454	-0.181
-68.436	109.506	0.382	-0.451
-67.422	204.759	0.049	0.075
-66.407	800.000	0.059	-0.244
-65.392	256.112	-0.118	0.198
-64.378	-21.745	-0.298	-0.178
-63.363	-21.241	0.559	-0.336
-62.349	-200.000	-0.109	0.473
-61.334	-70.138	-1.629	-0.609
-60.319	-42.799	0.738	0.369
-59.305	-200.000	-0.039	-0.570
-58.290	469.048	0.570	1.258
-57.276	800.000	0.484	1.785
-56.261	-200.000	97.403	601.052
-55.246	624.472	1371.864	3399.369
-54.232	201.062	2539.606	3841.241
-53.217	117.594	2139.592	2587.876
-52.203	42.413	1687.825	1508.427
-51.188	34.899	1501.668	1291.507
-50.173	32.256	1476.432	1252.169
-49.159	53.456	1528.732	1440.677
-48.144	54.070	1544.451	1459.592
-47.130	35.115	1504.562	1295.248
-46.115	31.985	1488.992	1260.803
-45.100	31.746	1485.321	1256.041
-44.086	31.486	1484.639	1253.670
-43.071	31.918	1482.185	1254.442
-42.057	31.730	1480.511	1251.718
-41.042	31.749	1479.329	1250.796
-40.027	31.653	1477.197	1248.307
-39.013	31.642	1477.657	1248.572
-37.998	31.630	1475.717	1246.801
-36.984	31.768	1473.658	1245.930
-35.969	31.651	1472.319	1243.968
-34.954	31.661	1470.937	1242.817
-33.940	31.727	1470.276	1242.650
-32.925	31.916	1467.495	1241.503
-31.911	31.950	1466.795	1241.086
-30.896	31.988	1465.049	1239.811
-29.881	31.729	1464.730	1237.782
-28.867	31.953	1462.938	1237.693
-27.852	31.623	1462.164	1234.816
-26.838	31.911	1460.754	1235.470
-25.823	31.980	1458.582	1234.043
-24.809	31.937	1456.483	1231.930
-23.794	31.807	1454.726	1229.543
-22.779	31.839	1454.671	1229.659
-21.765	32.090	1452.386	1229.323
-20.750	31.792	1451.592	1226.654
-19.736	31.689	1450.890	1225.339
-18.721	31.687	1450.043	1224.557
-17.706	31.593	1449.771	1223.669
-16.692	31.845	1447.254	1223.135
-15.677	31.758	1447.423	1222.666
-14.663	31.603	1446.693	1220.985
-13.648	31.641	1445.352	1220.054
-12.633	31.703	1444.098	1219.353
-11.619	31.564	1443.771	1218.120
-10.604	31.709	1442.292	1217.766
-9.590	31.531	1442.151	1216.441
-8.575	31.767	1440.220	1216.300
-7.560	31.831	1439.136	1215.754
-6.546	31.784	1438.742	1215.067
-5.531	31.443	1438.670	1212.743
-4.517	31.390	1437.634	1211.480
-3.502	31.730	1434.903	1211.330
-2.487	31.572	1434.810	1210.179
-1.473	31.755	1433.388	1210.118
-0.458	31.680	1432.218	1208.592
0.556	32.941	1423.463	1197.344
1.571	29.854	1398.046	1156.601
2.586	26.238	1341.219	1087.759
3.600	24.540	1260.845	1012.863
4.615	23.147	1214.991	968.321
5.629	20.088	1159.069	907.676
6.644	11.185	1075.501	798.700
7.659	4.439	1034.994	736.635
8.673	3.796	1028.263	728.748
9.688	3.574	1025.283	725.529
10.702	3.219	1023.542	722.566
11.717	3.292	1023.054	722.501
12.731	6.486	1025.688	739.298
13.746	15.209	1038.078	789.420
14.761	22.464	1046.990	830.471
15.775	24.178	1048.574	839.741
16.790	24.398	1047.348	839.720
17.804	23.349	1045.371	833.130
18.819	23.322	1044.494	832.234
19.834	23.164	1043.423	830.565
20.848	22.883	1044.326	829.887
21.863	22.970	1043.484	829.555
22.877	23.215	1042.283	829.677
23.892	22.987	1042.108	828.395
24.907	22.657	1041.217	826.067
25.921	22.654	1039.951	824.974
26.936	22.749	1039.876	825.286
27.950	22.720	1037.842	823.463
28.965	22.676	1037.573	822.971
29.980	22.637	1036.400	821.787
30.994	22.833	1035.251	821.714
32.009	22.919	1034.154	821.171
33.023	22.729	1033.741	819.891
34.038	22.960	1032.628	820.008
35.053	23.106	1031.740	819.907
36.067	22.804	1031.497	818.241
37.082	22.604	1030.389	816.361
38.096	22.929	1028.646	816.412
39.111	22.716	1028.559	815.286
40.126	22.706	1027.963	814.693
41.140	22.911	1026.005	814.017
42.155	22.378	1025.708	811.251
43.169	22.113	1024.296	808.843
44.184	21.956	1023.577	807.482
45.199	22.107	1022.207	807.023
46.213	22.083	1021.266	806.100
47.228	22.364	1020.430	806.658
48.242	22.730	1020.742	808.510
49.257	23.296	1019.965	810.412
50.271	23.007	1018.581	807.919
51.286	22.976	1018.585	807.713
52.301	23.166	1017.986	808.032
53.315	23.217	1016.423	806.954
54.330	23.295	1015.328	806.367
55.344	22.847	1015.267	804.206
56.359	22.541	1014.205	801.905
57.374	22.291	1014.537	800.957
58.388	22.501	1013.060	800.672
59.403	22.682	1011.044	799.829
60.417	22.287	1010.509	797.545
61.432	22.186	1009.922	796.553
62.447	22.387	1009.052	796.709
63.461	22.075	1009.230	795.365
64.476	21.769	1008.636	793.441
65.490	22.211	1006.541	793.718
66.505	21.953	1006.087	792.128
67.520	22.030	1005.773	792.157
68.534	21.986	1005.723	791.847
69.549	22.252	1002.713	790.604
70.563	21.903	1002.546	788.836
71.578	22.048	1002.129	789.089
72.593	22.089	1000.237	787.714
73.607	21.202	999.799	783.321
74.622	21.346	999.538	783.693
75.636	21.555	997.562	783.007
76.651	21.797	997.481	783.960
77.666	21.609	996.824	782.535
78.680	21.736	996.597	782.851
79.695	21.814	995.817	782.517
80.709	21.567	994.932	780.654
81.724	21.773	994.678	781.304
82.739	22.344	993.334	782.717
83.753	22.222	992.276	781.273
84.768	22.357	993.583	782.834
85.782	23.012	992.918	785.149
86.797	23.461	992.404	786.668
87.812	23.697	990.623	786.232
88.826	23.198	990.486	783.844
89.841	22.846	989.947	781.791
90.855	22.968	989.164	781.643
91.870	23.080	989.191	782.088
92.884	23.103	988.276	781.400
93.899	23.478	986.096	781.257
94.914	23.384	986.037	780.729
95.928	23.048	985.180	778.500
96.943	23.374	984.269	779.146
97.957	22.992	982.632	776.106
98.972	22.765	983.032	775.356
99.987	22.939	980.935	774.397
101.001	23.094	979.843	774.143
102.016	22.956	980.537	774.018
103.030	23.024	979.353	773.314
104.045	23.050	978.148	772.404
105.060	23.207	977.748	772.709
106.074	23.094	977.525	771.969
107.089	22.871	975.988	769.713
108.103	22.574	975.419	767.903
109.118	22.623	973.703	766.697
110.133	22.203	972.662	763.987
111.147	21.849	970.870	760.975
112.162	21.503	970.955	759.474
113.176	21.939	970.209	760.714
114.191	21.932	969.314	759.916
115.206	22.238	969.120	761.019
116.220	22.175	967.921	759.740
117.235	21.986	967.598	758.600
118.249	21.882	966.714	757.391
119.264	21.966	965.357	756.624
120.279	21.850	964.204	755.152
121.293	22.028	963.249	755.106
122.308	21.683	963.029	753.381
123.322	21.486	962.119	751.754
124.337	21.504	961.283	751.115
125.352	21.570	958.922	749.484
126.366	21.418	958.356	748.325
127.381	21.624	957.274	748.297
128.395	21.812	956.627	748.526
129.410	21.844	955.693	747.865
130.424	21.857	954.559	746.969
131.439	22.090	954.302	747.690
132.454	22.234	954.427	748.338
133.468	22.653	953.604	749.407
134.483	21.938	953.298	746.063
135.497	22.521	951.689	747.210
136.512	22.502	950.670	746.261
137.527	22.492	950.366	745.914
138.541	22.222	950.657	744.933
139.556	22.368	949.174	744.324
140.570	22.588	948.108	744.352
141.585	22.510	947.863	743.765
142.600	22.941	948.703	746.178
143.614	22.932	947.217	744.904
144.629	23.435	945.404	745.528
145.643	23.354	945.761	745.406
146.658	23.109	944.262	743.126
147.673	23.086	943.598	742.442
148.687	22.426	943.450	739.488
149.702	22.799	941.134	739.172
150.716	22.407	941.107	737.444
151.731	22.111	939.830	735.140
152.746	22.411	938.843	735.556
153.760	22.606	938.265	735.851
154.775	22.613	937.817	735.464
155.789	22.711	937.187	735.313
156.804	22.673	936.115	734.247
157.819	22.916	934.441	733.880
158.833	22.635	934.573	732.754
159.848	22.799	934.904	733.628
160.862	23.329	933.138	734.374
161.877	22.865	932.769	732.099
162.892	22.932	931.636	731.421
163.906	22.363	930.447	728.068
164.921	22.557	930.080	728.519
165.935	22.295	927.588	725.421
166.950	22.565	926.988	726.003
167.964	22.074	927.229	724.101
168.979	22.571	925.364	724.625
169.994	22.631	923.067	723.009
171.008	22.509	922.876	722.297
172.023	22.468	923.526	722.572
173.037	23.028	922.145	723.723
174.052	23.241	922.213	724.583
175.067	23.248	920.834	723.465
176.081	22.709	919.955	720.509
177.096	22.112	919.971	718.016
178.110	21.717	918.074	714.864
179.125	21.901	917.229	714.892
180.140	22.041	916.178	714.578
181.154	22.306	915.423	715.003
182.169	22.662	915.189	716.203
183.183	22.746	915.163	716.460
184.198	23.120	914.145	717.116
185.213	22.954	913.027	715.503
186.227	22.863	913.021	715.069
187.242	23.005	912.599	715.251
188.256	22.921	912.463	714.740
189.271	23.222	911.591	715.208
190.286	22.702	911.588	713.042
191.300	22.801	910.154	712.255
192.315	22.291	909.671	709.758
193.329	21.730	908.179	706.271
194.344	21.726	907.406	705.590
195.359	22.233	906.337	706.736
196.373	22.536	905.810	707.478
197.388	22.548	905.744	707.415
198.402	22.751	905.594	708.048
199.417	23.209	905.151	709.478
200.432	23.210	906.774	710.688
201.446	23.616	904.902	710.784
202.461	23.689	904.764	710.907
203.475	23.664	903.942	710.098
204.490	23.457	903.698	709.016
205.504	22.702	903.071	705.442
206.519	22.783	901.311	704.328
207.534	22.660	901.024	703.551
208.548	22.755	899.957	703.036
209.563	23.185	898.657	703.665
210.577	23.115	898.724	703.378
211.592	22.598	898.772	701.296
212.607	23.237	897.961	703.140
213.621	23.663	897.745	704.601
214.636	23.438	897.131	703.164
215.650	23.158	896.808	701.738
216.665	23.370	895.074	701.158
217.680	23.187	895.071	700.372
218.694	23.521	895.029	701.596
219.709	23.023	895.586	699.999
220.723	23.060	893.678	698.592
221.738	23.293	892.227	698.318
222.753	23.311	891.896	698.068
223.767	22.749	891.321	695.340
224.782	23.292	890.066	696.435
225.796	23.174	890.454	696.213
226.811	23.434	890.236	697.006
227.826	23.359	888.581	695.352
228.840	22.912	888.363	693.367
229.855	22.626	888.094	691.973
230.869	22.706	887.480	691.747
231.884	22.814	886.283	691.174
232.899	22.916	885.171	690.646
233.913	22.600	884.719	688.995
234.928	22.346	884.127	687.482
235.942	22.608	882.810	687.421
236.957	22.299	882.018	685.540
237.972	22.449	881.043	685.305
238.986	22.149	881.377	684.336
240.001	22.352	880.172	684.129
241.015	22.308	879.244	683.177
242.030	22.571	878.910	683.876
243.045	22.444	878.341	682.880
244.059	23.070	878.289	685.205
245.074	22.773	878.438	684.110
246.088	22.505	878.169	682.800
247.103	22.600	877.743	682.777
248.117	23.007	877.133	683.818
249.132	23.744	875.821	685.578
250.147	24.058	875.819	686.727
251.161	24.030	876.737	687.279
252.176	24.542	875.265	688.038
253.190	24.273	874.665	686.470
254.205	24.420	874.068	686.505
255.220	24.402	873.630	686.033
256.234	23.801	873.712	683.726
257.249	24.114	872.894	684.227
258.263	24.108	872.284	683.666
259.278	24.115	871.486	683.005
260.293	23.914	870.868	681.691
261.307	24.000	870.349	681.554
262.322	24.359	869.169	681.942
263.336	24.205	868.769	680.981
264.351	24.221	868.248	680.572
265.366	23.890	868.719	679.617
266.380	24.106	867.392	679.344
267.395	23.889	867.342	678.415
268.409	24.011	866.204	677.931
269.424	23.555	865.575	675.641
270.439	23.783	864.273	675.431
271.453	23.809	864.912	675.969
272.468	23.690	862.672	673.710
273.482	23.614	863.042	673.651
274.497	23.657	861.998	672.939
275.512	23.832	860.581	672.435
276.526	23.907	860.327	672.459
277.541	24.092	859.514	672.464
278.555	23.798	859.804	671.519
279.570	23.928	859.505	671.717
280.585	24.577	858.347	673.202
281.599	24.344	857.997	671.988
282.614	24.024	856.903	669.869
283.628	23.569	856.419	667.718
284.643	23.425	856.235	666.973
285.657	23.528	855.391	666.644
286.672	23.354	855.969	666.380
287.687	23.419	855.354	666.089
288.701	23.631	854.213	665.938
289.716	23.954	853.711	666.696
290.730	23.693	852.124	664.422
291.745	24.199	852.582	666.615
292.760	23.798	851.721	664.382
293.774	24.067	851.113	664.855
294.789	24.400	851.677	666.480
295.803	24.448	849.827	665.151
296.818	24.131	849.423	663.598
297.833	24.015	848.803	662.622
298.847	23.914	847.979	661.546
299.862	23.828	847.351	660.676
300.876	23.837	846.305	659.834
301.891	24.134	845.968	660.618
302.906	24.102	846.113	660.554
303.920	24.465	845.895	661.668
304.935	24.972	844.362	662.286
305.949	24.698	844.337	661.195
306.964	24.428	844.659	660.389
307.979	24.276	842.972	658.450
308.993	24.130	842.654	657.604
310.008	24.171	842.469	657.554
311.022	24.559	841.515	658.182
312.037	24.156	841.250	656.433
313.052	23.995	840.938	655.538
314.066	23.900	840.443	654.744
315.081	23.768	838.374	652.590
316.095	23.753	838.404	652.501
317.110	23.838	837.826	652.306
318.125	23.871	837.882	652.412
319.139	23.358	837.829	650.430
320.154	23.502	835.552	649.132
321.168	23.205	836.062	648.380
322.183	23.093	835.888	647.781
323.197	23.334	834.556	647.569
324.212	23.627	833.601	647.844
325.227	24.005	832.845	648.576
326.241	23.523	833.074	646.940
327.256	23.727	832.030	646.815
328.270	23.507	831.611	645.631
329.285	23.552	831.506	645.657
330.300	23.656	830.492	645.190
331.314	22.991	830.958	643.074
332.329	23.581	829.534	644.057
333.343	23.784	829.483	644.698
334.358	24.319	828.932	646.152
335.373	24.192	828.752	645.493
336.387	24.053	829.061	645.173
337.402	24.335	827.325	644.787
338.416	24.391	827.127	644.775
339.431	24.420	826.927	644.669
340.446	24.950	826.451	646.155
341.460	25.146	825.771	646.272
342.475	24.814	825.191	644.564
343.489	25.150	824.403	645.102
344.504	24.980	824.115	644.207
345.519	25.003	823.412	643.682
346.533	25.267	823.962	645.006
347.548	25.313	822.873	644.259
348.562	24.943	822.190	642.340
349.577	24.730	820.836	640.466
350.592	24.533	821.032	639.856
351.606	23.540	821.262	636.418
352.621	23.885	818.728	635.633
353.635	24.360	818.867	637.380
354.650	23.885	819.458	636.086
355.665	24.186	817.866	635.867
356.679	23.954	817.157	634.433
357.694	23.958	817.775	634.871
358.708	24.800	816.450	636.783
359.723	24.455	816.115	635.240
360.738	24.091	815.961	633.768
361.752	24.340	814.460	633.430
362.767	24.435	814.295	633.582
363.781	24.781	814.443	634.871
364.796	24.933	814.221	635.180
365.810	24.758	814.810	634.961
366.825	25.111	814.024	635.544
367.840	25.453	813.351	636.175
368.854	25.245	812.455	634.680
369.869	24.883	812.003	632.994
370.883	24.581	811.943	631.823
371.898	24.448	811.334	630.822
372.913	24.988	809.896	631.553
373.927	24.815	810.607	631.442
374.942	25.022	808.997	630.861
375.956	24.821	808.523	629.727
376.971	25.130	808.049	630.389
377.986	25.376	807.356	630.655
379.000	25.243	807.719	630.417
380.015	25.262	806.809	629.717
381.029	25.292	805.941	629.091
382.044	25.218	804.826	627.904
383.059	25.421	804.871	628.595
384.073	25.020	805.513	627.634
385.088	25.198	804.201	627.180
386.102	25.325	802.811	626.483
387.117	24.709	802.362	623.930
388.132	24.651	801.848	623.271
389.146	24.244	801.923	621.857
390.161	24.248	801.470	621.464
391.175	24.591	800.574	621.909
392.190	25.153	799.946	623.318
393.205	24.842	800.673	622.747
394.219	24.913	799.199	621.794
395.234	24.117	798.498	618.430
396.248	24.047	798.426	618.076
397.263	24.213	797.834	618.139
398.278	24.352	797.180	618.058
399.292	24.103	796.477	616.599
400.307	24.193	795.174	615.844
401.321	24.154	795.239	615.706
402.336	24.037	795.487	615.440
403.350	24.586	794.453	616.481
404.365	24.743	795.185	617.537
405.380	24.904	794.711	617.667
406.394	25.203	795.060	618.919
407.409	26.044	792.815	620.006
408.423	25.724	793.017	619.007
409.438	25.638	793.360	618.925
410.453	25.689	793.112	618.852
411.467	25.916	791.703	618.480
412.482	25.995	791.030	618.169
413.496	25.382	791.957	616.734
414.511	25.480	791.098	616.346
415.526	25.569	791.063	616.571
416.540	25.454	791.135	616.177
417.555	25.468	789.825	615.150
418.569	25.384	789.329	614.422
419.584	25.645	788.774	614.827
420.599	25.445	788.573	613.934
421.613	161.684	1369.604	1794.582
422.628	140.014	1454.260	1794.644
