DTS Sentinel unit serial number:	SN413079Multiplexer serial number:	ORYXHardware model number:	OX4-SRSoftware version number:	ORYX F/W v4.00 Oryx Data Collector v3.7.2.0data status	okinstallation	princeton_trtdifferential loss correction	single-endedforward channel	channel 3reverse channel	N/Adate	2019/09/15time	10:04:35forward acquisition time	60.00reverse acquisition time	0.00gamma	496.2192k internal	0.2307k external	0.2307temperature offset calibration	0.9973default loss term (dB/km)	0.3790temperature slope calibration	1.0000multiplexer offset coefficient	1.0000multiplexer slope coefficient	1.0000fibre end	0.00T internal ref (°C)	34.16T ext. ref 1 (°C)	5.01T ext. ref 2 (°C)	30.01length (m)	temperature (°C)	Stokes	anti-Stokes-747.200	-44.766	-0.138	-0.070
-746.185	210.854	0.043	0.069
-745.171	800.000	0.054	-0.156
-744.156	-200.000	-0.015	0.099
-743.142	-200.000	-0.009	-0.231
-742.127	-94.935	-0.033	-0.009
-741.112	-0.732	-0.130	0.094
-740.098	20.260	-0.095	-0.078
-739.083	470.297	0.141	-0.323
-738.069	-200.000	0.038	0.000
-737.054	-65.717	0.076	-0.031
-736.039	594.193	0.106	0.267
-735.025	184.602	-0.217	0.327
-734.010	411.188	-0.140	-0.301
-732.996	48.891	0.204	-0.194
-731.981	312.268	-0.025	-0.048
-730.966	627.622	0.084	-0.216
-729.952	-17.438	0.114	0.073
-728.937	-33.770	-0.212	-0.119
-727.923	311.406	-0.068	-0.130
-726.908	-200.000	-0.013	0.245
-725.894	15.255	0.278	0.222
-724.879	-178.376	-0.369	0.009
-723.864	-64.455	-0.174	-0.072
-722.850	-200.000	-0.022	0.174
-721.835	-76.957	0.218	-0.077
-720.821	-200.000	0.003	0.311
-719.806	50.343	-0.236	-0.227
-718.791	154.043	-0.047	-0.066
-717.777	-151.460	-0.380	0.029
-716.762	-104.325	0.033	-0.008
-715.748	-28.811	-0.228	0.133
-714.733	246.830	0.064	0.109
-713.718	-164.960	0.265	0.012
-712.704	129.646	-0.289	0.375
-711.689	367.881	-0.102	0.208
-710.675	157.210	-0.138	-0.193
-709.660	-128.556	-0.109	0.016
-708.645	360.325	0.165	-0.335
-707.631	-30.863	0.045	0.026
-706.616	-161.397	0.093	0.005
-705.602	-105.514	0.232	0.054
-704.587	-107.097	-0.312	-0.070
-703.572	133.489	-0.099	0.130
-702.558	22.362	-0.127	-0.105
-701.543	-74.634	-0.233	-0.085
-700.529	430.375	-0.057	-0.126
-699.514	-146.886	0.053	-0.005
-698.499	-91.105	0.370	-0.108
-697.485	-122.463	-0.125	-0.021
-696.470	-114.661	-0.174	0.034
-695.456	-200.000	0.003	0.177
-694.441	5.845	0.126	-0.095
-693.426	20.301	-0.081	0.067
-692.412	-39.144	-0.194	0.104
-691.397	-61.526	0.105	0.045
-690.383	-89.413	-0.313	0.093
-689.368	695.352	0.065	0.173
-688.354	-89.757	-0.024	-0.007
-687.339	46.124	-0.110	0.103
-686.324	-7.992	-0.333	-0.228
-685.310	287.446	-0.144	-0.265
-684.295	-70.575	0.081	0.031
-683.281	357.494	0.080	-0.162
-682.266	258.731	0.187	0.327
-681.251	111.346	0.272	-0.332
-680.237	-200.000	-0.017	-0.119
-679.222	-200.000	-0.005	-0.219
-678.208	-200.000	-0.079	-0.441
-677.193	-13.025	-0.170	-0.112
-676.178	-29.751	0.311	0.180
-675.164	-87.798	-0.163	0.050
-674.149	210.241	-0.197	-0.313
-673.135	-200.000	0.037	-0.292
-672.120	648.204	0.113	0.292
-671.105	108.854	0.082	0.099
-670.091	-200.000	0.021	0.299
-669.076	800.000	0.040	-0.157
-668.062	88.047	0.218	-0.245
-667.047	449.596	0.106	-0.236
-666.032	-145.881	-0.376	-0.034
-665.018	-200.000	-0.004	-0.050
-664.003	84.919	0.141	-0.157
-662.989	-10.761	0.428	-0.287
-661.974	62.301	-0.071	-0.072
-660.959	-137.160	-0.071	0.008
-659.945	-96.264	0.304	0.082
-658.930	-132.072	-0.141	-0.019
-657.916	-99.290	-0.340	-0.087
-656.901	65.906	-0.104	0.107
-655.886	-39.257	0.302	0.161
-654.872	-200.000	-0.088	-0.434
-653.857	149.832	0.166	0.228
-652.843	190.517	-0.185	0.281
-651.828	241.792	0.181	-0.306
-650.814	-141.348	-0.107	-0.011
-649.799	800.000	0.097	-0.351
-648.784	237.428	-0.063	-0.105
-647.770	-20.594	-0.098	-0.061
-646.755	-200.000	0.002	-0.247
-645.741	800.000	-0.060	-0.169
-644.726	-200.000	0.017	-0.226
-643.711	28.975	-0.295	-0.254
-642.697	402.917	0.025	0.053
-641.682	-200.000	0.006	0.058
-640.668	-200.000	-0.043	-0.266
-639.653	800.000	-0.045	-0.173
-638.638	800.000	0.028	0.109
-637.624	52.622	-0.147	0.143
-636.609	-82.700	0.053	-0.018
-635.595	259.705	-0.096	0.168
-634.580	800.000	0.100	-0.417
-633.565	35.727	0.147	0.131
-632.551	-156.829	0.226	0.014
-631.536	9.455	-0.319	-0.245
-630.522	56.912	0.175	0.173
-629.507	-200.000	0.009	-0.133
-628.492	-14.759	0.139	-0.091
-627.478	800.000	-0.067	-0.195
-626.463	-56.510	-0.137	0.062
-625.449	-200.000	0.023	-0.149
-624.434	800.000	-0.098	-0.375
-623.419	-79.819	0.023	0.008
-622.405	-200.000	-0.023	-0.220
-621.390	242.237	-0.053	0.090
-620.376	-200.000	0.048	0.220
-619.361	-200.000	-0.014	0.116
-618.346	15.181	-0.277	0.220
-617.332	-155.942	-0.146	-0.009
-616.317	-115.033	0.148	-0.028
-615.303	-93.219	-0.207	0.058
-614.288	243.186	-0.124	0.210
-613.273	152.156	-0.036	-0.050
-612.259	800.000	0.051	0.160
-611.244	-63.965	-0.074	0.031
-610.230	49.380	-0.128	0.122
-609.215	-200.000	-0.021	-0.153
-608.201	-200.000	-0.025	0.113
-607.186	800.000	0.060	-0.232
-606.171	46.734	-0.310	0.291
-605.157	800.000	-0.105	0.309
-604.142	203.782	0.230	0.360
-603.128	367.956	0.024	0.049
-602.113	800.000	-0.023	-0.064
-601.098	-92.631	0.459	-0.130
-600.084	37.709	0.203	-0.182
-599.069	780.688	0.068	0.187
-598.055	82.646	-0.136	0.150
-597.040	168.521	-0.125	0.180
-596.025	-170.806	0.098	-0.003
-595.011	135.341	0.261	-0.343
-593.996	800.000	0.081	-0.325
-592.982	128.033	0.125	0.161
-591.967	-22.724	0.326	-0.199
-590.952	-200.000	-0.009	-0.173
-589.938	-127.612	0.102	-0.015
-588.923	-135.396	-0.112	-0.014
-587.909	-200.000	0.018	0.135
-586.894	188.494	-0.212	0.321
-585.879	-4.456	0.274	0.191
-584.865	104.018	0.152	-0.181
-583.850	-45.706	0.219	0.109
-582.836	800.000	-0.052	0.151
-581.821	-103.046	-0.151	0.036
-580.806	85.233	0.117	0.130
-579.792	36.391	-0.259	-0.231
-578.777	800.000	0.021	-0.062
-577.763	83.212	-0.222	-0.244
-576.748	173.722	0.137	0.200
-575.733	-123.052	-0.211	-0.034
-574.719	68.932	-0.109	-0.113
-573.704	800.000	0.063	0.205
-572.690	17.139	-0.119	-0.095
-571.675	-122.388	0.325	-0.054
-570.661	-80.665	-0.023	0.008
-569.646	226.614	-0.268	0.439
-568.631	-87.456	0.225	0.069
-567.617	11.024	0.165	-0.127
-566.602	-200.000	0.023	-0.113
-565.588	-76.656	-0.220	0.078
-564.573	-200.000	-0.004	0.339
-563.558	3.927	-0.243	-0.179
-562.544	-108.729	-0.045	-0.010
-561.529	-200.000	0.034	0.219
-560.515	248.762	-0.113	0.193
-559.500	-109.942	0.219	0.046
-558.485	-15.201	0.088	-0.057
-557.471	800.000	0.069	0.202
-556.456	-200.000	-0.038	-0.254
-555.442	-200.000	0.024	0.358
-554.427	33.882	-0.144	0.126
-553.412	-200.000	0.014	0.223
-552.398	276.927	-0.119	-0.213
-551.383	244.855	0.161	-0.274
-550.369	147.917	-0.048	0.066
-549.354	-97.754	0.432	0.113
-548.339	800.000	0.034	0.107
-547.325	186.853	-0.130	0.195
-546.310	-187.397	0.154	-0.002
-545.296	5.099	-0.112	-0.083
-544.281	-200.000	0.020	0.111
-543.266	-200.000	0.052	-0.277
-542.252	-2.611	0.154	-0.108
-541.237	-85.698	0.299	-0.094
-540.223	-200.000	0.005	-0.079
-539.208	-2.841	-0.129	0.091
-538.193	-161.059	0.253	0.013
-537.179	583.014	-0.066	-0.163
-536.164	800.000	0.070	-0.266
-535.150	362.108	0.023	0.046
-534.135	68.466	0.063	0.066
-533.121	432.801	-0.132	0.289
-532.106	-89.119	-0.173	0.052
-531.091	-18.017	0.058	-0.037
-530.077	60.158	0.066	-0.065
-529.062	35.808	-0.296	0.263
-528.048	763.807	-0.101	-0.278
-527.033	-95.254	-0.315	-0.085
-526.018	-59.125	-0.241	0.105
-525.004	-14.670	-0.023	0.015
-523.989	800.000	-0.052	0.208
-522.975	-8.483	0.099	0.067
-521.960	-200.000	0.032	-0.179
-520.945	173.058	0.104	-0.150
-519.931	-181.649	-0.144	0.003
-518.916	284.236	0.088	-0.160
-517.902	-145.057	-0.476	-0.044
-516.887	-94.147	0.257	0.071
-515.872	-200.000	0.011	-0.070
-514.858	-83.486	-0.216	-0.070
-513.843	-100.553	0.284	-0.071
-512.829	244.486	-0.085	0.144
-511.814	36.892	-0.131	-0.117
-510.799	-118.790	0.185	0.033
-509.785	745.215	-0.109	0.297
-508.770	-89.421	-0.269	-0.080
-507.756	-200.000	0.009	-0.274
-506.741	-200.000	0.034	0.412
-505.726	-67.027	-0.353	0.140
-504.712	-135.104	0.168	-0.020
-503.697	-56.751	0.104	-0.046
-502.683	-155.979	0.274	0.018
-501.668	106.241	-0.111	-0.132
-500.653	-200.000	0.016	0.192
-499.639	42.679	0.228	0.209
-498.624	800.000	-0.066	0.219
-497.610	378.567	-0.218	-0.450
-496.595	139.049	-0.197	-0.261
-495.581	-13.889	-0.157	-0.102
-494.566	800.000	0.112	-0.322
-493.551	800.000	0.113	0.316
-492.537	-176.181	0.264	-0.007
-491.522	170.349	0.076	-0.109
-490.508	-62.248	0.453	0.190
-489.493	88.227	-0.131	0.146
-488.478	800.000	-0.063	-0.208
-487.464	237.448	-0.095	0.158
-486.449	12.067	-0.200	0.155
-485.435	340.110	0.138	0.272
-484.420	186.420	0.163	-0.244
-483.405	50.919	-0.236	0.225
-482.391	149.223	-0.110	-0.150
-481.376	-200.000	-0.024	-0.437
-480.362	298.995	-0.113	-0.209
-479.347	800.000	-0.060	-0.197
-478.332	-49.905	-0.445	-0.212
-477.318	-116.417	-0.095	-0.018
-476.303	17.817	0.189	-0.151
-475.289	-90.644	-0.036	-0.011
-474.274	-200.000	0.002	-0.039
-473.259	61.013	0.053	0.053
-472.245	-127.239	-0.216	0.032
-471.230	-10.247	0.184	-0.123
-470.216	-200.000	-0.013	-0.348
-469.201	52.575	-0.190	-0.182
-468.186	-149.112	0.281	0.023
-467.172	558.857	-0.116	-0.281
-466.157	497.093	-0.027	0.063
-465.143	30.965	-0.086	0.074
-464.128	-82.179	0.215	-0.071
-463.113	574.186	0.194	0.476
-462.099	800.000	-0.049	-0.137
-461.084	45.641	0.064	0.059
-460.070	436.869	0.156	0.341
-459.055	-200.000	0.006	-0.068
-458.040	800.000	-0.066	0.276
-457.026	-109.852	0.524	-0.111
-456.011	-149.073	-0.307	-0.025
-454.997	-77.995	0.201	0.070
-453.982	-200.000	0.057	-0.393
-452.968	70.144	0.253	-0.263
-451.953	307.656	-0.227	0.426
-450.938	666.279	-0.069	0.179
-449.924	-21.154	-0.157	0.096
-448.909	-9.772	-0.282	0.189
-447.895	-74.131	0.137	-0.050
-446.880	-44.802	-0.039	-0.020
-445.865	-87.393	-0.135	0.041
-444.851	-79.470	-0.396	-0.134
-443.836	-125.670	-0.381	-0.058
-442.822	646.907	-0.037	0.094
-441.807	-200.000	-0.102	-0.551
-440.792	151.345	0.055	-0.075
-439.778	514.780	-0.073	0.171
-438.763	-200.000	0.015	-0.333
-437.749	-200.000	-0.010	0.077
-436.734	-200.000	-0.011	0.069
-435.719	481.079	0.007	-0.015
-434.705	163.837	-0.053	0.075
-433.690	-124.932	0.119	0.018
-432.676	496.673	-0.124	-0.285
-431.661	445.034	-0.023	0.050
-430.646	-200.000	-0.007	-0.091
-429.632	-61.273	-0.012	-0.005
-428.617	102.618	0.252	0.297
-427.603	204.442	0.211	-0.328
-426.588	-60.820	-0.226	0.096
-425.573	-200.000	0.179	0.000
-424.559	2.292	0.301	0.219
-423.544	153.793	-0.126	0.173
-422.530	-200.000	0.032	-0.246
-421.515	470.224	-0.088	0.199
-420.500	-64.716	0.524	0.213
-419.486	35.394	-0.206	0.182
-418.471	-68.109	0.267	0.105
-417.457	32.785	0.136	-0.118
-416.442	93.426	-0.170	0.193
-415.428	-136.269	0.353	-0.041
-414.413	-200.000	-0.013	0.154
-413.398	-200.000	-0.045	0.289
-412.384	53.005	0.275	-0.264
-411.369	189.010	-0.096	0.144
-410.355	-1.811	-0.271	0.191
-409.340	-127.854	0.084	0.012
-408.325	-127.804	-0.555	0.080
-407.311	289.485	0.107	0.194
-406.296	-200.000	0.037	0.341
-405.282	-12.919	0.194	0.127
-404.267	800.000	0.065	-0.208
-403.252	-105.526	0.132	-0.030
-402.238	36.502	0.134	0.119
-401.223	87.077	-0.089	-0.099
-400.209	-200.000	-0.044	-0.318
-399.194	-44.500	-0.049	0.025
-398.179	117.698	0.118	0.146
-397.165	-39.331	-0.201	-0.106
-396.150	561.668	-0.068	-0.165
-395.136	-200.000	0.011	0.186
-394.121	459.787	0.073	-0.164
-393.106	800.000	0.021	-0.060
-392.092	-86.721	0.197	0.061
-391.077	-200.000	0.022	-0.290
-390.063	42.272	0.140	0.127
-389.048	-123.224	0.361	0.058
-388.033	-79.372	-0.252	-0.086
-387.019	-132.671	-0.307	0.039
-386.004	-200.000	-0.001	-0.212
-384.990	32.510	-0.119	-0.103
-383.975	30.776	0.250	-0.214
-382.960	-36.470	0.082	-0.044
-381.946	-18.164	0.204	0.128
-380.931	-74.297	-0.365	0.132
-379.917	800.000	0.055	-0.225
-378.902	-30.469	-0.161	0.091
-377.888	-59.523	-0.239	-0.103
-376.873	-200.000	-0.021	0.254
-375.858	47.171	0.200	-0.186
-374.844	-87.338	0.192	-0.058
-373.829	70.875	-0.273	-0.283
-372.815	136.549	0.102	0.134
-371.800	-13.172	-0.059	-0.039
-370.785	-119.493	0.052	-0.009
-369.771	144.951	0.267	0.358
-368.756	102.662	-0.125	0.147
-367.742	-175.636	-0.264	-0.007
-366.727	-200.000	0.009	0.080
-365.712	304.012	0.070	-0.130
-364.698	-109.474	0.057	0.012
-363.683	800.000	0.100	-0.319
-362.669	9.699	0.073	-0.056
-361.654	-105.254	0.380	0.087
-360.639	-133.061	-0.208	0.026
-359.625	-15.244	-0.279	0.179
-358.610	-24.479	0.073	-0.043
-357.596	-200.000	-0.006	-0.201
-356.581	800.000	-0.064	0.246
-355.566	-3.981	-0.211	-0.146
-354.552	420.283	0.158	-0.339
-353.537	11.040	0.168	-0.129
-352.523	43.340	-0.372	-0.340
-351.508	81.304	0.119	-0.129
-350.493	6.962	-0.231	-0.172
-349.479	800.000	0.041	-0.165
-348.464	-200.000	0.021	0.101
-347.450	-71.768	-0.211	0.079
-346.435	-200.000	-0.045	-0.243
-345.420	312.472	0.037	0.070
-344.406	-200.000	0.021	-0.483
-343.391	-200.000	0.431	0.000
-342.377	-176.598	0.104	0.003
-341.362	-33.209	0.095	-0.053
-340.348	-141.243	-0.147	0.015
-339.333	800.000	-0.091	-0.351
-338.318	-17.355	-0.116	-0.073
-337.304	5.338	0.232	0.171
-336.289	-158.485	-0.159	-0.009
-335.275	-125.664	0.182	-0.028
-334.260	-155.203	-0.166	-0.011
-333.245	-200.000	0.023	0.365
-332.231	-186.670	-0.126	-0.002
-331.216	-200.000	0.025	0.176
-330.202	3.206	0.241	-0.175
-329.187	-200.000	-0.007	0.372
-328.172	-60.902	0.254	0.107
-327.158	415.195	0.237	0.505
-326.143	420.264	-0.075	-0.161
-325.129	222.686	0.072	0.117
-324.114	135.820	-0.042	-0.054
-323.099	200.704	0.156	0.240
-322.085	-200.000	-0.002	-0.134
-321.070	87.274	0.162	-0.179
-320.056	43.463	-0.139	-0.127
-319.041	-127.718	0.094	-0.014
-318.026	55.178	0.307	0.297
-317.012	-22.709	-0.198	0.119
-315.997	-84.220	0.196	-0.062
-314.983	800.000	-0.046	-0.184
-313.968	396.721	0.139	0.289
-312.953	-200.000	0.012	0.053
-311.939	-127.573	-0.390	0.057
-310.924	-34.814	0.089	0.049
-309.910	-98.690	0.348	-0.089
-308.895	-131.406	0.085	0.011
-307.880	205.786	0.112	-0.174
-306.866	-44.511	0.344	0.172
-305.851	-91.619	0.155	-0.044
-304.837	-117.711	-0.255	0.046
-303.822	-35.935	-0.074	-0.040
-302.807	-140.794	0.200	-0.021
-301.793	-146.233	-0.133	0.012
-300.778	-200.000	0.008	-0.199
-299.764	-20.823	-0.116	0.071
-298.749	-26.830	0.258	0.151
-297.735	800.000	0.054	-0.190
-296.720	258.181	0.061	0.105
-295.705	0.121	-0.155	0.110
-294.691	-4.857	-0.256	-0.176
-293.676	421.677	0.039	-0.084
-292.662	-40.948	0.169	-0.088
-291.647	-85.474	0.178	0.055
-290.632	-50.339	-0.260	-0.123
-289.618	-4.284	0.140	0.097
-288.603	181.709	-0.080	-0.118
-287.589	6.407	-0.223	-0.166
-286.574	-200.000	0.050	-0.300
-285.559	-200.000	0.043	0.465
-284.545	-140.423	-0.220	-0.023
-283.530	338.378	0.051	-0.099
-282.516	800.000	0.066	0.192
-281.501	-31.572	-0.309	0.174
-280.486	98.028	0.162	0.186
-279.472	147.057	-0.132	-0.177
-278.457	-16.991	-0.213	-0.134
-277.443	-162.062	0.077	-0.004
-276.428	83.007	0.037	-0.041
-275.413	-65.480	0.074	0.030
-274.399	-60.258	-0.050	-0.021
-273.384	-120.248	-0.329	-0.056
-272.370	-112.522	0.141	-0.028
-271.355	291.262	0.110	-0.200
-270.340	195.178	0.049	0.074
-269.326	-156.553	0.395	-0.024
-268.311	800.000	0.042	0.167
-267.297	-51.442	-0.156	0.073
-266.282	-200.000	-0.025	0.117
-265.267	800.000	0.054	-0.155
-264.253	-135.381	0.370	-0.044
-263.238	11.120	-0.101	0.077
-262.224	296.139	-0.032	-0.058
-261.209	550.384	-0.134	-0.320
-260.195	800.000	0.168	-0.628
-259.180	-63.694	0.421	0.172
-258.165	256.375	0.158	0.271
-257.151	800.000	0.127	0.490
-256.136	-61.903	0.056	0.023
-255.122	-200.000	-0.021	-0.126
-254.107	70.402	0.199	0.205
-253.092	-115.830	0.073	0.014
-252.078	800.000	0.109	0.336
-251.063	-166.306	0.201	-0.008
-250.049	421.258	-0.093	0.199
-249.034	800.000	0.044	-0.163
-248.019	-74.255	-0.356	0.128
-247.005	-200.000	-0.082	0.371
-245.990	226.033	-0.080	0.130
-244.976	-200.000	0.000	0.197
-243.961	800.000	0.064	0.270
-242.946	-138.205	0.318	-0.035
-241.932	129.654	0.095	0.121
-240.917	253.242	-0.110	-0.188
-239.903	-142.014	-0.118	-0.012
-238.888	216.201	0.153	0.243
-237.873	-200.000	0.025	-0.114
-236.859	131.025	-0.130	0.166
-235.844	68.571	-0.316	0.323
-234.830	775.187	0.055	-0.149
-233.815	50.606	0.084	-0.080
-232.800	-200.000	-0.002	0.062
-231.786	-162.645	-0.179	-0.009
-230.771	334.142	-0.130	-0.251
-229.757	800.000	-0.078	0.219
-228.742	3.868	0.218	-0.159
-227.727	-11.737	0.052	0.034
-226.713	-88.670	-0.079	-0.023
-225.698	334.289	-0.208	-0.401
-224.684	206.384	-0.144	-0.223
-223.669	-64.065	-0.019	-0.008
-222.655	-122.942	0.337	-0.054
-221.640	-81.018	-0.174	-0.057
-220.625	-65.932	-0.129	-0.051
-219.611	-79.253	-0.254	0.086
-218.596	-79.362	-0.443	-0.149
-217.582	800.000	0.057	-0.191
-216.567	293.544	0.096	-0.175
-215.552	-102.874	-0.137	-0.033
-214.538	40.336	-0.207	0.185
-213.523	-139.100	-0.095	-0.010
-212.509	-167.391	0.130	0.005
-211.494	82.690	-0.229	0.248
-210.479	582.734	-0.077	-0.188
-209.465	800.000	0.070	0.229
-208.450	-4.563	0.152	0.105
-207.436	800.000	-0.040	0.163
-206.421	800.000	0.007	0.023
-205.406	312.511	-0.025	0.047
-204.392	358.591	-0.137	-0.272
-203.377	-123.526	0.138	-0.022
-202.363	-200.000	-0.019	0.189
-201.348	273.581	0.162	0.285
-200.333	323.075	0.167	0.316
-199.319	-88.434	-0.305	-0.091
-198.304	595.847	-0.043	-0.105
-197.290	-200.000	-0.001	-0.059
-196.275	-27.679	-0.420	0.243
-195.260	2.994	-0.066	0.047
-194.246	34.270	0.174	0.151
-193.231	-200.000	0.007	0.080
-192.217	-15.659	0.093	-0.059
-191.202	-127.040	0.405	0.059
-190.187	8.578	0.239	-0.179
-189.173	123.288	0.070	-0.087
-188.158	-45.601	-0.281	-0.138
-187.144	-133.231	-0.234	-0.029
-186.129	145.804	0.090	0.120
-185.114	-58.506	-0.206	0.089
-184.100	212.630	-0.214	0.335
-183.085	800.000	0.071	-0.252
-182.071	-128.289	-0.130	-0.018
-181.056	-200.000	0.209	0.001
-180.042	-24.656	0.112	0.066
-179.027	35.605	0.146	0.128
-178.012	-25.380	0.135	-0.080
-176.998	-72.280	-0.330	0.122
-175.983	12.760	-0.294	-0.226
-174.969	27.619	-0.034	0.029
-173.954	22.758	-0.110	0.090
-172.939	80.314	-0.041	0.044
-171.925	328.757	-0.072	0.138
-170.910	-6.207	-0.151	-0.102
-169.896	-63.476	0.338	-0.138
-168.881	340.950	0.202	-0.393
-167.866	-200.000	0.015	0.224
-166.852	163.029	-0.150	-0.210
-165.837	-200.000	0.068	0.296
-164.823	26.266	0.179	0.148
-163.808	-118.545	-0.079	-0.014
-162.793	222.554	0.146	-0.234
-161.779	800.000	0.089	-0.304
-160.764	428.165	-0.052	-0.111
-159.750	64.776	-0.122	-0.122
-158.735	102.582	0.044	-0.052
-157.720	-60.857	-0.067	0.028
-156.706	-74.248	-0.175	-0.063
-155.691	14.809	0.047	-0.037
-154.677	469.412	0.110	0.244
-153.662	-200.000	0.002	0.019
-152.647	279.670	-0.184	0.326
-151.633	268.429	-0.104	0.181
-150.618	-200.000	0.003	-0.054
-149.604	-71.822	0.202	-0.075
-148.589	-200.000	-0.037	-0.249
-147.574	-146.675	0.043	0.004
-146.560	-18.294	-0.071	0.044
-145.545	800.000	-0.039	0.108
-144.531	102.517	-0.198	-0.230
-143.516	190.811	-0.181	0.271
-142.502	38.567	0.232	0.205
-141.487	-43.277	-0.337	0.169
-140.472	-200.000	-0.064	0.371
-139.458	404.455	-0.043	-0.089
-138.443	-72.919	-0.059	-0.022
-137.429	800.000	-0.066	0.233
-136.414	800.000	-0.026	0.090
-135.399	451.019	-0.076	-0.166
-134.385	130.318	-0.248	0.315
-133.370	800.000	-0.105	0.314
-132.356	800.000	0.081	0.308
-131.341	800.000	0.065	-0.197
-130.326	-16.716	0.406	-0.255
-129.312	-56.818	-0.455	0.200
-128.297	800.000	-0.025	0.073
-127.283	-25.879	0.204	-0.119
-126.268	271.477	-0.116	0.203
-125.253	-115.723	-0.185	-0.034
-124.239	33.503	0.115	0.099
-123.224	285.409	-0.078	0.139
-122.210	-200.000	0.044	-0.200
-121.195	-0.055	0.248	-0.175
-120.180	220.239	-0.087	-0.138
-119.166	148.051	0.062	-0.083
-118.151	-93.026	-0.189	0.052
-117.137	-43.896	-0.137	-0.069
-116.122	-189.722	-0.132	-0.001
-115.107	178.820	-0.106	-0.153
-114.093	397.599	0.098	0.203
-113.078	-84.361	-0.320	-0.100
-112.064	-62.878	0.350	0.144
-111.049	-105.370	0.364	-0.082
-110.034	-200.000	0.001	-0.110
-109.020	28.365	-0.165	0.138
-108.005	-88.188	0.027	0.008
-106.991	-134.257	0.236	-0.029
-105.976	615.758	0.138	0.344
-104.962	-200.000	0.010	-0.097
-103.947	164.586	0.183	0.256
-102.932	12.337	0.070	-0.054
-101.918	263.046	-0.165	-0.285
-100.903	800.000	-0.051	0.170
-99.889	-15.939	-0.186	-0.117
-98.874	42.794	0.049	-0.045
-97.859	-200.000	-0.052	0.249
-96.845	-200.000	-0.023	0.418
-95.830	409.387	0.109	-0.229
-94.816	-200.000	0.007	0.171
-93.801	4.093	0.083	0.061
-92.786	-26.034	-0.051	-0.030
-91.772	-91.531	0.357	0.101
-90.757	509.986	-0.061	-0.140
-89.743	213.394	0.077	0.120
-88.728	24.499	0.040	-0.032
-87.713	800.000	0.041	0.134
-86.699	-117.610	-0.231	-0.041
-85.684	68.944	0.146	-0.149
-84.670	74.725	0.062	-0.065
-83.655	5.450	0.065	0.047
-82.640	28.678	0.397	0.333
-81.626	175.056	-0.229	0.329
-80.611	-200.000	-0.034	0.196
-79.597	800.000	-0.056	-0.195
-78.582	209.460	0.069	-0.107
-77.567	473.754	0.031	-0.070
-76.553	99.633	-0.054	0.062
-75.538	-21.365	0.056	-0.034
-74.524	-200.000	-0.001	-0.099
-73.509	361.906	-0.078	0.156
-72.494	800.000	0.048	0.184
-71.480	-88.893	0.196	0.058
-70.465	193.104	0.039	0.058
-69.451	-143.569	0.329	-0.031
-68.436	-58.371	0.172	-0.074
-67.422	-2.312	-0.061	-0.042
-66.407	156.486	0.318	-0.434
-65.392	59.654	-0.079	-0.077
-64.378	-200.000	0.004	-0.191
-63.363	327.584	-0.118	0.224
-62.349	800.000	0.032	0.099
-61.334	131.578	-0.657	-0.836
-60.319	562.094	0.141	0.336
-59.305	-200.000	-0.222	-1.064
-58.290	270.649	0.481	0.838
-57.276	685.401	0.559	1.446
-56.261	-200.000	97.405	572.748
-55.246	620.553	1405.871	3498.926
-54.232	185.004	2614.289	3837.831
-53.217	118.778	2206.442	2697.277
-52.203	44.557	1737.825	1580.400
-51.188	37.268	1549.586	1358.408
-50.173	34.906	1522.185	1318.081
-49.159	53.090	1572.873	1489.853
-48.144	56.459	1591.820	1531.365
-47.130	37.669	1546.720	1358.483
-46.115	34.467	1530.920	1322.394
-45.100	34.211	1528.515	1318.493
-44.086	34.222	1526.312	1316.614
-43.071	34.121	1524.427	1314.240
-42.057	34.021	1523.742	1312.905
-41.042	34.148	1521.477	1311.778
-40.027	34.145	1520.299	1310.690
-39.013	34.094	1518.945	1309.115
-37.998	34.211	1517.371	1308.514
-36.984	34.221	1516.204	1307.526
-35.969	34.118	1514.845	1305.593
-34.954	34.164	1513.265	1304.497
-33.940	34.100	1512.547	1303.388
-32.925	34.113	1511.124	1302.196
-31.911	34.128	1509.499	1300.847
-30.896	34.136	1508.607	1300.084
-29.881	34.294	1506.739	1299.497
-28.867	34.174	1505.392	1297.468
-27.852	34.134	1504.218	1296.134
-26.838	34.162	1503.140	1295.339
-25.823	34.264	1501.220	1294.331
-24.809	34.243	1499.532	1292.680
-23.794	34.223	1498.146	1291.301
-22.779	34.242	1496.853	1290.258
-21.765	34.258	1495.645	1289.280
-20.750	34.283	1494.278	1288.218
-19.736	34.208	1493.710	1287.168
-18.721	34.228	1492.284	1286.024
-17.706	34.151	1491.537	1284.812
-16.692	34.138	1490.716	1283.966
-15.677	34.036	1489.830	1282.460
-14.663	34.153	1488.421	1281.984
-13.648	34.082	1487.810	1280.928
-12.633	34.157	1486.942	1280.639
-11.619	34.121	1485.876	1279.425
-10.604	34.012	1485.073	1277.955
-9.590	34.144	1483.485	1277.421
-8.575	34.108	1483.249	1276.923
-7.560	34.181	1481.807	1276.121
-6.546	34.154	1481.655	1275.760
-5.531	34.116	1480.563	1274.513
-4.517	34.022	1480.012	1273.362
-3.502	34.168	1478.076	1272.618
-2.487	34.080	1477.705	1271.660
-1.473	34.023	1476.875	1270.517
-0.458	34.165	1475.088	1269.875
0.556	32.917	1465.997	1259.093
1.571	30.010	1439.701	1217.326
2.586	26.526	1376.594	1141.925
3.600	24.582	1293.173	1061.097
4.615	23.185	1247.000	1015.111
5.629	20.322	1190.239	953.120
6.644	12.334	1105.052	843.940
7.659	6.106	1063.368	781.158
8.673	5.109	1057.903	772.143
9.688	5.078	1054.935	769.755
10.702	4.951	1053.071	767.699
11.717	4.912	1051.432	766.246
12.731	7.467	1054.455	780.970
13.746	15.210	1065.290	827.285
14.761	19.612	1070.043	852.683
15.775	18.661	1067.789	846.126
16.790	17.478	1065.215	838.191
17.804	16.342	1062.795	830.629
18.819	15.373	1061.388	824.693
19.834	14.971	1060.061	821.614
20.848	14.602	1059.189	819.057
21.863	14.382	1058.336	817.243
22.877	14.251	1057.262	815.699
23.892	14.045	1056.560	814.076
24.907	14.084	1055.563	813.430
25.921	13.988	1055.278	812.668
26.936	13.985	1054.407	811.912
27.950	14.131	1052.716	811.250
28.965	14.137	1051.438	810.223
29.980	14.143	1050.639	809.562
30.994	14.278	1049.445	809.226
32.009	14.372	1048.442	808.838
33.023	14.347	1047.569	807.974
34.038	14.229	1047.407	807.206
35.053	14.296	1046.120	806.463
36.067	14.125	1045.347	804.972
37.082	14.104	1044.168	803.888
38.096	14.252	1043.283	803.852
39.111	14.181	1043.076	803.280
40.126	14.292	1041.907	802.842
41.140	14.143	1040.719	801.138
42.155	14.116	1039.170	799.743
43.169	13.929	1038.685	798.402
44.184	13.931	1037.636	797.537
45.199	13.898	1036.524	796.451
46.213	13.837	1035.462	795.274
47.228	14.051	1034.576	795.546
48.242	14.048	1033.309	794.488
49.257	14.117	1032.816	794.366
50.271	14.074	1031.641	793.190
51.286	14.096	1030.847	792.614
52.301	14.213	1029.896	792.369
53.315	14.211	1029.029	791.620
54.330	14.110	1028.341	790.544
55.344	14.010	1027.330	789.219
56.359	13.933	1026.428	788.094
57.374	14.054	1025.488	787.873
58.388	14.006	1024.464	786.789
59.403	13.989	1023.360	785.791
60.417	13.943	1022.833	785.101
61.432	13.974	1022.545	784.958
62.447	13.970	1021.408	783.994
63.461	13.808	1020.909	782.781
64.476	13.830	1019.771	781.939
65.490	13.799	1019.037	781.161
66.505	13.726	1018.267	780.159
67.520	13.775	1017.365	779.628
68.534	13.915	1016.645	779.666
69.549	13.891	1015.991	778.986
70.563	13.973	1015.099	778.614
71.578	13.862	1014.532	777.593
72.593	13.856	1013.579	776.765
73.607	13.838	1012.261	775.602
74.622	13.823	1011.236	774.679
75.636	13.907	1010.258	774.253
76.651	13.665	1010.137	772.962
77.666	13.782	1009.121	772.664
78.680	13.679	1008.602	771.717
79.695	13.776	1007.987	771.629
80.709	13.813	1007.601	771.437
81.724	13.833	1006.695	770.766
82.739	13.962	1005.332	770.256
83.753	13.998	1004.827	769.965
84.768	14.021	1004.217	769.538
85.782	14.128	1003.598	769.487
86.797	14.159	1003.020	769.121
87.812	14.212	1002.285	768.734
88.826	14.099	1001.279	767.373
89.841	14.032	1000.765	766.604
90.855	14.064	999.917	766.035
91.870	14.276	998.789	766.074
92.884	14.181	998.551	765.390
93.899	14.161	997.601	764.500
94.914	14.317	996.851	764.577
95.928	14.290	996.356	764.004
96.943	14.330	995.512	763.475
97.957	14.139	995.092	762.209
98.972	14.211	993.876	761.539
99.987	14.225	993.070	760.916
101.001	14.279	992.236	760.457
102.016	14.269	991.542	759.812
103.030	14.156	990.740	758.616
104.045	14.119	989.766	757.633
105.060	14.252	988.368	757.100
106.074	14.170	987.228	755.790
107.089	14.053	986.802	754.863
108.103	13.968	985.864	753.694
109.118	13.923	984.759	752.581
110.133	13.880	984.045	751.774
111.147	13.986	982.889	751.302
112.162	13.950	982.523	750.795
113.176	13.922	981.567	749.872
114.191	14.063	980.666	749.755
115.206	14.075	979.526	748.870
116.220	13.901	979.028	747.637
117.235	14.061	978.096	747.579
118.249	13.999	977.144	746.507
119.264	14.005	976.427	745.920
120.279	13.903	975.806	744.924
121.293	13.946	974.833	744.308
122.308	13.948	974.007	743.621
123.322	13.880	972.940	742.435
124.337	13.926	972.051	741.895
125.352	13.994	970.612	741.034
126.366	13.880	969.909	739.923
127.381	13.941	968.515	739.069
128.395	13.898	967.824	738.284
129.410	13.807	967.387	737.480
130.424	13.950	966.196	737.140
131.439	14.016	965.229	736.629
132.454	14.042	964.525	736.145
133.468	13.959	964.015	735.324
134.483	14.017	963.297	734.967
135.497	14.030	962.739	734.532
136.512	13.992	961.982	733.722
137.527	14.064	961.261	733.424
138.541	14.111	960.304	732.837
139.556	13.981	959.976	731.951
140.570	14.082	959.073	731.639
141.585	14.107	958.253	731.061
142.600	14.224	957.693	731.081
143.614	14.229	956.800	730.356
144.629	14.277	955.931	729.842
145.643	14.376	955.291	729.722
146.658	14.273	954.884	728.893
147.673	14.297	953.091	727.566
148.687	14.204	952.077	726.324
149.702	14.109	951.545	725.436
150.716	14.031	950.845	724.498
151.731	14.130	949.905	724.153
152.746	14.018	949.545	723.325
153.760	14.164	948.384	723.013
154.775	14.269	947.608	722.810
155.789	14.249	947.046	722.233
156.804	14.393	945.928	721.941
157.819	14.358	945.229	721.191
158.833	14.288	944.837	720.524
159.848	14.301	944.551	720.301
160.862	14.315	943.790	719.718
161.877	14.355	942.999	719.223
162.892	14.197	942.086	717.781
163.906	14.167	941.229	716.935
164.921	14.276	940.209	716.563
165.935	14.254	939.153	715.602
166.950	14.292	938.440	715.157
167.964	14.293	937.695	714.531
168.979	14.387	936.531	713.983
169.994	14.318	935.637	712.942
171.008	14.431	934.596	712.571
172.023	14.445	933.973	712.091
173.037	14.364	933.504	711.325
174.052	14.440	932.836	711.078
175.067	14.342	932.399	710.264
176.081	14.241	931.705	709.241
177.096	14.202	930.749	708.283
178.110	14.254	929.858	707.766
179.125	14.333	928.770	707.208
180.140	14.392	927.753	706.623
181.154	14.271	927.353	705.744
182.169	14.391	927.076	705.980
183.183	14.461	926.366	705.670
184.198	14.525	925.640	705.328
185.213	14.558	924.975	704.896
186.227	14.494	924.544	704.237
187.242	14.508	923.804	703.668
188.256	14.515	923.588	703.470
189.271	14.597	922.389	702.841
190.286	14.716	921.478	702.586
191.300	14.470	920.754	700.938
192.315	14.195	920.577	699.587
193.329	14.247	919.264	698.743
194.344	14.193	918.869	698.155
195.359	14.357	918.343	698.382
196.373	14.431	917.829	698.239
197.388	14.467	917.223	697.864
198.402	14.680	916.612	698.229
199.417	14.747	916.492	698.355
200.432	14.958	915.764	698.624
201.446	14.912	915.604	698.245
202.461	14.956	914.911	697.839
203.475	14.955	914.533	697.484
204.490	14.840	913.375	696.063
205.504	14.779	912.877	695.366
206.519	14.816	912.018	694.804
207.534	14.855	911.052	694.171
208.548	14.692	910.639	693.115
209.563	14.801	909.953	692.987
210.577	14.772	909.425	692.403
211.592	14.849	908.636	692.059
212.607	14.838	907.970	691.444
213.621	14.872	908.085	691.611
214.636	14.988	906.792	691.046
215.650	14.888	906.120	690.057
216.665	14.967	905.602	689.928
217.680	14.883	905.613	689.530
218.694	15.026	904.709	689.370
219.709	15.059	904.589	689.352
220.723	15.008	903.696	688.403
221.738	15.042	902.821	687.816
222.753	15.078	902.222	687.445
223.767	15.033	901.340	686.526
224.782	15.082	900.206	685.806
225.796	15.199	899.557	685.726
226.811	15.169	899.368	685.398
227.826	15.223	898.580	684.957
228.840	15.016	898.069	683.665
229.855	15.131	897.088	683.325
230.869	15.023	896.848	682.641
231.884	15.063	896.165	682.225
232.899	15.089	895.162	681.507
233.913	14.988	894.428	680.475
234.928	15.019	893.888	680.130
235.942	14.981	893.366	679.520
236.957	15.069	892.300	679.008
237.972	14.916	891.876	678.003
238.986	14.979	890.841	677.410
240.001	15.068	890.365	677.348
241.015	15.212	889.794	677.436
242.030	15.163	888.609	676.276
243.045	15.132	888.594	676.082
244.059	15.147	888.174	675.761
245.074	15.127	887.433	675.057
246.088	15.147	886.748	674.557
247.103	15.366	885.937	674.760
248.117	15.260	885.891	674.239
249.132	15.330	885.307	674.019
250.147	15.435	884.634	673.870
251.161	15.536	883.911	673.661
252.176	15.700	883.230	673.741
253.190	15.620	882.503	672.807
254.205	15.621	882.121	672.460
255.220	15.707	881.658	672.390
256.234	15.815	880.433	671.831
257.249	15.640	880.056	670.784
258.263	15.728	879.821	670.895
259.278	15.754	878.966	670.289
260.293	15.805	878.062	669.743
261.307	15.567	877.915	668.624
262.322	15.717	877.384	668.756
263.336	15.979	876.459	669.032
264.351	15.885	876.215	668.413
265.366	15.939	875.374	667.929
266.380	15.907	874.894	667.378
267.395	15.780	874.344	666.394
268.409	15.755	873.490	665.586
269.424	15.858	872.272	665.007
270.439	15.816	872.058	664.616
271.453	15.942	870.834	664.125
272.468	15.884	870.179	663.335
273.482	15.718	869.789	662.328
274.497	15.792	869.203	662.114
275.512	15.984	868.156	662.012
276.526	15.811	867.576	660.831
277.541	15.843	867.303	660.689
278.555	15.818	866.500	659.921
279.570	15.808	866.158	659.564
280.585	15.949	865.542	659.588
281.599	16.101	864.830	659.583
282.614	15.943	864.250	658.465
283.628	15.917	863.869	658.014
284.643	15.919	862.989	657.292
285.657	16.056	862.470	657.374
286.672	15.999	862.088	656.804
287.687	15.963	861.839	656.414
288.701	16.017	861.120	656.018
289.716	16.074	860.423	655.654
290.730	16.074	859.910	655.204
291.745	16.194	859.091	654.988
292.760	16.176	858.665	654.533
293.774	16.119	858.182	653.887
294.789	16.180	857.470	653.522
295.803	16.243	857.089	653.417
296.818	16.168	855.995	652.237
297.833	16.128	855.531	651.673
298.847	16.214	854.741	651.345
299.862	16.065	854.418	650.464
300.876	16.163	853.906	650.396
301.891	16.284	852.959	650.081
302.906	16.216	852.294	649.258
303.920	16.340	851.673	649.203
304.935	16.472	851.031	649.163
305.949	16.579	850.268	648.936
306.964	16.475	849.994	648.268
307.979	16.454	849.445	647.713
308.993	16.351	848.815	646.780
310.008	16.501	848.133	646.776
311.022	16.472	847.626	646.221
312.037	16.591	847.085	646.207
313.052	16.295	846.924	644.896
314.066	16.276	846.105	644.143
315.081	16.340	845.184	643.628
316.095	16.401	844.414	643.219
317.110	16.352	844.061	642.705
318.125	16.398	843.761	642.597
319.139	16.446	843.158	642.263
320.154	16.540	842.651	642.175
321.168	16.387	842.049	641.082
322.183	16.504	841.571	641.101
323.197	16.535	841.162	640.853
324.212	16.506	840.594	640.251
325.227	16.426	840.312	639.679
326.241	16.419	839.597	639.050
327.256	16.567	838.980	639.085
328.270	16.500	838.413	638.341
329.285	16.483	837.935	637.857
330.300	16.515	837.146	637.323
331.314	16.548	836.762	637.099
332.329	16.535	836.080	636.474
333.343	16.653	835.021	636.052
334.358	16.670	834.814	635.902
335.373	16.579	834.550	635.303
336.387	16.732	833.744	635.208
337.402	16.758	833.188	634.828
338.416	16.684	832.359	633.862
339.431	16.767	832.204	633.999
340.446	16.954	831.598	634.180
341.460	16.909	831.165	633.627
342.475	16.720	830.743	632.540
343.489	17.051	829.778	632.984
344.504	17.010	829.493	632.560
345.519	16.949	829.240	632.083
346.533	17.032	828.237	631.572
347.548	17.014	828.217	631.433
348.562	17.055	827.113	630.688
349.577	16.954	826.852	630.058
350.592	16.874	826.321	629.301
351.606	16.853	825.995	628.920
352.621	16.872	825.372	628.458
353.635	16.775	825.135	627.865
354.650	16.931	824.625	627.998
355.665	16.927	824.367	627.732
356.679	17.064	823.941	627.857
357.694	17.013	823.265	627.097
358.708	16.997	822.801	626.632
359.723	16.889	822.332	625.820
360.738	16.941	821.658	625.441
361.752	17.097	820.887	625.374
362.767	17.140	820.472	625.163
363.781	17.165	820.213	625.003
364.796	17.109	819.905	624.506
365.810	17.237	819.684	624.752
366.825	17.307	818.769	624.256
367.840	17.399	818.413	624.268
368.854	17.327	818.128	623.732
369.869	17.328	817.404	623.128
370.883	17.453	816.794	623.065
371.898	17.201	816.442	621.819
372.913	17.499	815.537	622.165
373.927	17.414	815.125	621.483
374.942	17.401	814.230	620.700
375.956	17.306	814.123	620.216
376.971	17.485	813.532	620.363
377.986	17.472	813.011	619.864
379.000	17.550	812.409	619.635
380.015	17.511	812.195	619.274
381.029	17.545	811.552	618.853
382.044	17.541	810.804	618.212
383.059	17.597	810.322	617.993
384.073	17.486	809.936	617.244
385.088	17.582	809.366	617.102
386.102	17.497	808.801	616.308
387.117	17.389	808.465	615.609
388.132	17.583	807.390	615.434
389.146	17.613	807.121	615.284
390.161	17.537	806.835	614.739
391.175	17.601	806.746	614.846
392.190	17.613	806.158	614.386
393.205	17.696	805.455	614.097
394.219	17.636	805.210	613.639
395.234	17.481	804.993	612.859
396.248	17.504	804.486	612.504
397.263	17.615	803.547	612.134
398.278	17.580	803.178	611.670
399.292	17.337	803.259	610.805
400.307	17.528	802.502	610.861
401.321	17.549	801.983	610.488
402.336	17.612	801.925	610.617
403.350	17.485	801.382	609.694
404.365	17.600	800.743	609.564
405.380	17.688	800.383	609.552
406.394	17.695	799.805	609.082
407.409	17.834	799.268	609.116
408.423	17.860	798.971	608.928
409.438	17.943	798.491	608.803
410.453	17.987	798.022	608.550
411.467	17.941	797.564	607.984
412.482	17.948	797.198	607.674
413.496	18.117	796.798	607.917
414.511	18.143	796.459	607.699
415.526	18.149	796.001	607.315
416.540	17.999	796.091	606.799
417.555	18.009	795.430	606.277
418.569	18.124	794.681	606.059
419.584	18.118	794.168	605.594
420.599	18.023	793.954	605.040
421.613	153.129	1369.056	1790.399
422.628	132.481	1452.847	1790.506
