DTS Sentinel unit serial number:	SN413079Multiplexer serial number:	ORYXHardware model number:	OX4-SRSoftware version number:	ORYX F/W v4.00 Oryx Data Collector v3.7.2.0data status	okinstallation	princeton_trtdifferential loss correction	single-endedforward channel	channel 3reverse channel	N/Adate	2019/09/13time	03:32:35forward acquisition time	60.00reverse acquisition time	0.00gamma	496.2192k internal	0.2335k external	0.2335temperature offset calibration	1.0138default loss term (dB/km)	0.3790temperature slope calibration	1.0000multiplexer offset coefficient	1.0000multiplexer slope coefficient	1.0000fibre end	0.00T internal ref (°C)	27.30T ext. ref 1 (°C)	4.07T ext. ref 2 (°C)	21.74length (m)	temperature (°C)	Stokes	anti-Stokes-747.200	21.285	-0.219	0.178
-746.185	44.451	-0.289	0.267
-745.171	-186.898	-0.214	0.003
-744.156	292.804	-0.235	0.431
-743.142	-147.976	0.197	-0.016
-742.127	-66.725	-0.215	-0.086
-741.112	-76.984	0.218	-0.077
-740.098	125.956	0.052	0.065
-739.083	-200.000	0.017	-0.144
-738.069	-45.580	0.309	0.153
-737.054	-90.459	-0.131	0.038
-736.039	800.000	0.050	-0.183
-735.025	-41.870	-0.105	-0.054
-734.010	145.433	-0.117	-0.157
-732.996	-108.540	0.075	0.016
-731.981	445.239	0.079	0.175
-730.966	-61.339	-0.168	0.071
-729.952	-72.434	0.194	0.072
-728.937	800.000	0.040	0.119
-727.923	-31.198	-0.176	0.100
-726.908	-24.869	-0.173	0.103
-725.894	-200.000	-0.079	0.369
-724.879	-104.076	0.308	0.072
-723.864	-187.604	0.276	-0.004
-722.850	-105.237	-0.122	-0.028
-721.835	46.394	-0.341	-0.317
-720.821	509.384	-0.037	0.085
-719.806	583.121	-0.057	-0.140
-718.791	-136.517	-0.395	-0.046
-717.777	-200.000	-0.041	-0.211
-716.762	432.716	0.106	-0.231
-715.748	97.108	0.108	-0.124
-714.733	27.717	0.035	-0.030
-713.718	58.132	-0.124	0.122
-712.704	-200.000	-0.033	-0.190
-711.689	-94.365	0.302	-0.083
-710.675	172.718	-0.142	-0.206
-709.660	-33.228	0.131	-0.073
-708.645	-142.972	0.254	0.025
-707.631	-60.175	-0.151	0.064
-706.616	-58.457	-0.180	-0.079
-705.602	-86.991	-0.307	-0.094
-704.587	-20.115	0.110	-0.068
-703.572	-65.225	-0.379	-0.153
-702.558	-42.358	0.365	0.187
-701.543	-44.391	-0.239	-0.120
-700.529	72.238	-0.171	0.179
-699.514	800.000	-0.056	-0.168
-698.499	62.393	0.228	-0.229
-697.485	400.554	-0.029	-0.061
-696.470	29.768	-0.259	-0.221
-695.456	-3.291	-0.192	0.134
-694.441	-15.191	-0.230	-0.148
-693.426	-87.503	0.310	-0.094
-692.412	-25.369	0.274	-0.162
-691.397	-82.580	0.518	-0.168
-690.383	-200.000	-0.032	0.162
-689.368	-200.000	0.040	-0.225
-688.354	-32.533	0.200	-0.112
-687.339	-200.000	-0.131	-0.609
-686.324	45.841	-0.205	-0.190
-685.310	120.911	-0.097	-0.121
-684.295	430.534	0.123	-0.267
-683.281	-148.901	-0.347	0.028
-682.266	138.908	-0.060	-0.079
-681.251	12.580	-0.132	-0.102
-680.237	-200.000	0.018	-0.100
-679.222	456.013	-0.136	0.303
-678.208	-153.812	-0.098	0.007
-677.193	-200.000	0.011	-0.181
-676.178	17.654	-0.210	-0.167
-675.164	120.581	0.038	-0.047
-674.149	-97.670	-0.112	0.029
-673.135	-200.000	-0.056	-0.442
-672.120	148.172	-0.120	-0.163
-671.105	-40.373	-0.115	-0.060
-670.091	-141.473	-0.351	-0.036
-669.076	-200.000	-0.037	0.351
-668.062	-90.575	0.236	0.068
-667.047	575.162	0.173	0.424
-666.032	800.000	0.036	-0.145
-665.018	318.271	-0.102	0.194
-664.003	-108.486	-0.369	0.079
-662.989	-155.517	0.250	-0.016
-661.974	-134.638	0.366	-0.045
-660.959	-193.641	0.231	0.002
-659.945	203.417	0.069	-0.106
-658.930	4.185	-0.019	0.014
-657.916	-65.131	0.293	-0.118
-656.901	14.395	-0.242	-0.189
-655.886	800.000	-0.073	-0.266
-654.872	-31.093	-0.149	-0.084
-653.857	-57.867	0.134	-0.059
-652.843	-200.000	0.018	-0.288
-651.828	-29.430	0.071	0.041
-650.814	-79.497	0.271	0.092
-649.799	-88.593	-0.176	0.052
-648.784	-84.138	0.103	-0.033
-647.770	98.269	-0.298	0.343
-646.755	0.971	0.090	0.064
-645.741	-200.000	-0.009	-0.055
-644.726	-115.649	0.177	0.033
-643.711	800.000	0.018	-0.056
-642.697	-32.709	-0.139	0.077
-641.682	-200.000	0.029	-0.142
-640.668	131.656	-0.081	0.105
-639.653	342.890	0.047	0.092
-638.638	437.044	-0.109	0.237
-637.624	-128.252	-0.318	0.045
-636.609	348.749	0.190	0.375
-635.595	338.177	0.041	0.081
-634.580	-180.781	-0.177	0.004
-633.565	338.811	0.043	0.083
-632.551	1.421	-0.307	-0.221
-631.536	-75.618	0.161	-0.057
-630.522	206.314	-0.203	0.316
-629.507	-187.791	0.092	0.001
-628.492	75.388	-0.194	-0.205
-627.478	199.302	0.054	-0.083
-626.463	1.648	0.233	-0.167
-625.449	-93.684	0.026	0.007
-624.434	-147.645	0.214	0.018
-623.419	-200.000	-0.001	-0.252
-622.405	-160.179	-0.045	0.002
-621.390	-124.336	-0.161	-0.025
-620.376	441.891	0.035	0.077
-619.361	220.939	-0.130	-0.209
-618.346	111.002	-0.156	-0.188
-617.332	-200.000	0.070	-0.308
-616.317	800.000	-0.091	0.332
-615.303	-70.370	0.445	-0.169
-614.288	-49.169	-0.318	-0.152
-613.273	26.397	-0.140	0.117
-612.259	800.000	0.171	-0.484
-611.244	65.874	0.096	0.097
-610.230	60.639	-0.146	-0.145
-609.215	-200.000	0.020	-0.156
-608.201	-61.173	0.206	-0.087
-607.186	763.032	-0.026	0.071
-606.171	-40.308	0.235	-0.122
-605.157	-113.581	-0.059	-0.012
-604.142	-200.000	0.022	0.162
-603.128	-80.269	-0.053	0.018
-602.113	11.185	-0.196	0.150
-601.098	-200.000	0.022	-0.171
-600.084	66.638	-0.232	-0.236
-599.069	-98.893	0.322	0.082
-598.055	-19.675	-0.321	-0.198
-597.040	800.000	0.059	-0.191
-596.025	-95.005	-0.318	-0.086
-595.011	800.000	-0.024	0.068
-593.996	-10.479	-0.310	0.205
-592.982	2.067	0.111	-0.080
-591.967	-122.580	-0.403	-0.065
-590.952	49.491	0.189	0.178
-589.938	800.000	-0.063	-0.206
-588.923	-200.000	0.061	-0.339
-587.909	-200.000	0.061	-0.380
-586.894	8.567	-0.189	-0.142
-585.879	800.000	0.054	0.198
-584.865	-40.515	-0.191	-0.099
-583.850	648.512	-0.064	-0.164
-582.836	462.913	0.127	-0.284
-581.821	175.402	-0.035	-0.051
-580.806	-200.000	-0.029	0.136
-579.792	76.805	0.148	0.157
-578.777	224.899	0.147	-0.237
-577.763	-111.637	0.353	0.071
-576.748	-132.753	0.311	0.040
-575.733	800.000	0.022	0.079
-574.719	76.445	0.220	-0.232
-573.704	108.773	0.090	-0.107
-572.690	-200.000	0.020	0.236
-571.675	800.000	-0.052	-0.145
-570.661	189.457	0.213	-0.318
-569.646	-200.000	-0.002	-0.061
-568.631	339.724	-0.232	0.452
-567.617	360.242	0.073	0.147
-566.602	359.254	0.263	-0.525
-565.588	-52.525	0.069	0.032
-564.573	-200.000	-0.014	-0.116
-563.558	608.122	0.129	-0.322
-562.544	-68.104	-0.211	0.082
-561.529	350.683	0.106	0.210
-560.515	365.091	0.015	-0.031
-559.500	800.000	0.022	-0.065
-558.485	-157.324	0.226	-0.014
-557.471	-56.619	0.105	-0.046
-556.456	-191.228	0.274	-0.003
-555.442	-171.103	-0.183	-0.006
-554.427	-200.000	0.068	0.559
-553.412	158.684	-0.148	0.205
-552.398	-96.848	-0.281	-0.074
-551.383	-65.009	0.151	-0.061
-550.369	-200.000	-0.017	0.106
-549.354	-54.731	0.253	0.114
-548.339	147.028	-0.116	-0.156
-547.325	115.479	0.094	0.115
-546.310	-200.000	0.039	0.182
-545.296	-0.861	0.199	-0.141
-544.281	185.051	-0.196	0.290
-543.266	-140.121	-0.365	0.038
-542.252	42.024	-0.230	0.208
-541.237	-200.000	-0.014	-0.066
-540.223	800.000	-0.029	-0.080
-539.208	-58.317	-0.221	-0.096
-538.193	92.397	-0.169	0.190
-537.179	-23.785	0.356	0.212
-536.164	48.565	-0.151	0.141
-535.150	-3.204	-0.190	-0.132
-534.135	114.018	-0.161	-0.195
-533.121	-200.000	0.007	0.317
-532.106	-200.000	-0.044	-0.220
-531.091	-200.000	0.036	0.218
-530.077	-75.768	-0.126	0.044
-529.062	800.000	0.091	0.315
-528.048	298.863	-0.157	0.288
-527.033	336.911	0.173	0.335
-526.018	800.000	-0.055	0.231
-525.004	122.566	0.135	-0.169
-523.989	452.438	-0.093	-0.205
-522.975	423.637	-0.096	0.205
-521.960	-66.448	-0.507	-0.200
-520.945	154.606	0.156	0.214
-519.931	800.000	0.048	-0.174
-518.916	-200.000	-0.030	0.423
-517.902	-117.465	-0.159	-0.029
-516.887	46.572	-0.180	0.167
-515.872	179.983	-0.254	0.371
-514.858	-63.693	-0.259	0.106
-513.843	22.862	0.333	0.272
-512.829	-108.718	-0.076	-0.016
-511.814	13.895	-0.094	-0.073
-510.799	-151.593	0.372	0.027
-509.785	-200.000	-0.049	0.289
-508.770	-200.000	-0.011	0.209
-507.756	103.203	-0.235	0.275
-506.741	-126.212	0.119	0.018
-505.726	64.709	-0.273	0.274
-504.712	-200.000	-0.044	-0.249
-503.697	27.394	-0.179	0.149
-502.683	188.830	0.064	0.095
-501.668	-95.733	-0.028	0.007
-500.653	614.323	0.080	-0.199
-499.639	120.766	0.198	0.244
-498.624	97.974	0.159	-0.182
-497.610	-2.501	-0.292	0.204
-496.595	-59.017	0.318	-0.137
-495.581	40.991	-0.233	0.209
-494.566	800.000	-0.079	0.290
-493.551	532.899	-0.055	-0.131
-492.537	701.916	-0.119	-0.312
-491.522	-200.000	0.005	0.138
-490.508	800.000	0.148	-0.453
-489.493	800.000	0.079	-0.255
-488.478	59.262	-0.244	-0.239
-487.464	-57.312	0.354	-0.155
-486.449	558.554	0.116	0.279
-485.435	67.507	-0.022	-0.023
-484.420	-84.521	0.227	0.071
-483.405	-200.000	-0.055	-0.293
-482.391	800.000	0.055	0.167
-481.376	9.074	-0.104	-0.078
-480.362	241.738	-0.131	-0.218
-479.347	59.086	0.115	-0.112
-478.332	-200.000	-0.031	-0.380
-477.318	-164.909	0.161	0.007
-476.303	-77.411	-0.079	-0.027
-475.289	-200.000	-0.022	-0.169
-474.274	-106.703	-0.255	0.056
-473.259	128.351	0.182	0.230
-472.245	235.276	0.195	-0.321
-471.230	-200.000	-0.007	-0.047
-470.216	-37.249	0.190	0.101
-469.201	-200.000	-0.024	-0.195
-468.186	-200.000	0.009	-0.427
-467.172	-81.233	-0.154	0.051
-466.157	-55.019	-0.139	-0.062
-465.143	27.984	-0.121	-0.101
-464.128	326.894	0.141	-0.269
-463.113	-87.084	-0.143	-0.043
-462.099	512.683	0.063	0.147
-461.084	261.843	0.128	0.220
-460.070	-118.142	-0.368	0.065
-459.055	-200.000	-0.021	-0.140
-458.040	800.000	0.048	0.197
-457.026	-200.000	-0.016	0.223
-456.011	24.112	0.159	0.130
-454.997	-139.996	0.133	0.014
-453.982	307.756	0.100	0.185
-452.968	365.285	-0.148	-0.297
-451.953	95.772	-0.088	0.099
-450.938	-119.454	-0.106	-0.018
-449.924	-200.000	0.055	-0.570
-448.909	-124.314	0.097	-0.015
-447.895	-68.965	-0.126	0.048
-446.880	137.339	-0.092	0.120
-445.865	800.000	-0.061	0.243
-444.851	-2.852	-0.190	-0.132
-443.836	-200.000	0.022	-0.105
-442.822	227.927	-0.220	-0.355
-441.807	-200.000	-0.036	-0.296
-440.792	59.728	0.194	0.190
-439.778	-136.744	-0.115	0.013
-438.763	-1.568	-0.199	0.139
-437.749	-91.890	-0.283	0.080
-436.734	-200.000	-0.046	-0.266
-435.719	-200.000	0.009	0.091
-434.705	-122.410	-0.343	-0.056
-433.690	-49.558	0.207	0.098
-432.676	61.343	0.107	-0.105
-431.661	-96.801	-0.095	-0.025
-430.646	136.215	0.066	0.085
-429.632	86.404	-0.078	0.085
-428.617	263.215	0.211	0.364
-427.603	-162.230	-0.399	0.020
-426.588	-146.528	-0.291	0.025
-425.573	3.006	-0.184	0.132
-424.559	-69.531	0.047	0.018
-423.544	29.327	0.198	0.167
-422.530	-1.644	0.181	-0.127
-421.515	555.072	-0.072	0.172
-420.500	26.472	0.036	-0.030
-419.486	-60.635	-0.131	0.055
-418.471	297.150	0.100	0.182
-417.457	800.000	-0.050	-0.147
-416.442	186.963	0.112	-0.165
-415.428	-46.484	-0.100	-0.049
-414.413	-200.000	-0.024	-0.330
-413.398	-74.726	0.306	0.109
-412.384	800.000	-0.109	0.344
-411.369	132.890	0.133	0.170
-410.355	-102.825	0.314	-0.074
-409.340	77.576	-0.214	-0.226
-408.325	-139.847	-0.041	0.004
-407.311	-200.000	-0.012	0.052
-406.296	800.000	-0.093	-0.346
-405.282	51.634	-0.043	-0.040
-404.267	-25.216	0.267	0.157
-403.252	800.000	-0.067	-0.241
-402.238	800.000	0.106	0.292
-401.223	800.000	-0.088	-0.259
-400.209	32.081	-0.080	-0.069
-399.194	568.655	-0.049	0.117
-398.179	796.528	0.057	0.154
-397.165	-137.425	-0.200	0.022
-396.150	-162.092	-0.333	-0.017
-395.136	80.844	0.057	0.061
-394.121	-133.332	-0.366	-0.046
-393.106	-111.019	-0.089	-0.018
-392.092	218.418	-0.078	-0.123
-391.077	141.653	0.103	-0.135
-390.063	800.000	0.017	0.051
-389.048	209.799	-0.110	0.171
-388.033	294.247	-0.131	0.237
-387.019	-74.554	0.040	0.014
-386.004	-131.107	0.030	-0.004
-384.990	355.233	-0.151	-0.298
-383.975	351.643	0.102	-0.199
-382.960	800.000	0.103	-0.391
-381.946	51.372	-0.313	-0.294
-380.931	-47.821	0.119	0.057
-379.917	800.000	0.029	0.107
-378.902	-200.000	-0.013	0.527
-377.888	-200.000	0.036	0.217
-376.873	-156.596	-0.330	-0.020
-375.858	-64.051	-0.180	0.073
-374.844	188.835	0.058	0.086
-373.829	-43.429	-0.155	0.078
-372.815	-48.356	0.141	-0.067
-371.800	800.000	-0.038	0.156
-370.785	136.322	-0.098	-0.126
-369.771	299.890	-0.094	-0.172
-368.756	-84.022	-0.343	0.108
-367.742	255.411	-0.059	-0.101
-366.727	-6.573	0.111	0.075
-365.712	302.740	-0.126	0.231
-364.698	84.782	0.141	-0.153
-363.683	800.000	-0.028	0.082
-362.669	28.265	-0.147	-0.123
-361.654	-91.836	-0.138	0.039
-360.639	709.061	-0.031	-0.082
-359.625	-180.536	-0.457	-0.009
-358.610	-183.667	0.143	0.002
-357.596	22.048	0.124	0.100
-356.581	-200.000	0.033	-0.216
-355.566	-200.000	0.087	0.417
-354.552	275.004	0.087	-0.152
-353.537	-107.241	0.190	0.041
-352.523	411.770	-0.061	-0.128
-351.508	-0.610	0.131	-0.092
-350.493	82.335	-0.045	0.048
-349.479	38.451	-0.280	-0.247
-348.464	-81.385	-0.325	0.106
-347.450	210.046	-0.220	0.341
-346.435	-155.165	-0.224	0.014
-345.420	-58.141	-0.276	0.119
-344.406	-146.013	0.313	0.027
-343.391	-72.248	-0.025	0.009
-342.377	369.268	0.060	0.119
-341.362	6.298	-0.093	-0.068
-340.348	154.836	-0.125	-0.169
-339.333	-27.729	0.239	-0.137
-338.318	23.110	0.395	0.320
-337.304	-196.789	0.133	-0.001
-336.289	-200.000	0.006	-0.050
-335.275	279.621	-0.025	-0.045
-334.260	-200.000	-0.000	0.325
-333.245	764.941	0.065	0.176
-332.231	-69.886	0.305	0.115
-331.216	-152.816	-0.600	0.042
-330.202	800.000	0.058	0.159
-329.187	425.684	0.024	-0.051
-328.172	-48.007	0.244	0.117
-327.158	81.053	0.127	-0.136
-326.143	161.436	-0.072	0.100
-325.129	64.723	0.224	0.223
-324.114	-55.048	-0.362	-0.161
-323.099	-21.153	-0.171	-0.104
-322.085	96.844	-0.132	-0.149
-321.070	43.726	0.093	-0.084
-320.056	800.000	-0.053	-0.153
-319.041	-7.059	0.211	-0.142
-318.026	7.434	-0.250	-0.184
-317.012	-19.201	0.060	0.037
-315.997	46.604	-0.093	0.085
-314.983	343.475	0.078	0.152
-313.968	800.000	-0.073	-0.274
-312.953	-18.525	0.068	-0.042
-311.939	-110.106	0.154	-0.032
-310.924	-200.000	-0.036	0.210
-309.910	-144.844	-0.211	-0.019
-308.895	-186.530	0.199	-0.003
-307.880	800.000	0.098	0.354
-306.866	800.000	0.114	-0.433
-305.851	-3.263	-0.134	0.092
-304.837	-200.000	0.016	0.112
-303.822	-30.993	-0.177	0.099
-302.807	-115.236	0.012	-0.002
-301.793	800.000	0.075	-0.235
-300.778	379.864	-0.093	-0.187
-299.764	18.539	-0.078	0.061
-298.749	-131.854	0.338	0.044
-297.735	-200.000	0.040	-0.398
-296.720	-107.561	0.114	-0.025
-295.705	694.166	-0.126	0.326
-294.691	-200.000	-0.003	0.138
-293.676	342.334	0.249	-0.481
-292.662	66.685	0.194	0.195
-291.647	-77.528	0.216	0.074
-290.632	-200.000	0.078	-0.413
-289.618	-45.413	0.108	-0.053
-288.603	-125.068	-0.218	0.033
-287.589	-158.059	0.172	0.010
-286.574	27.325	0.100	-0.083
-285.559	181.927	0.144	-0.210
-284.545	-29.452	0.192	0.109
-283.530	24.074	0.046	0.037
-282.516	156.925	0.077	-0.105
-281.501	40.269	-0.137	-0.121
-280.486	-80.148	0.389	-0.128
-279.472	-41.212	0.322	-0.164
-278.457	103.981	-0.088	-0.102
-277.443	-183.567	0.282	0.005
-276.428	-26.045	0.204	0.119
-275.413	214.345	0.136	-0.212
-274.399	-30.812	0.257	-0.144
-273.384	800.000	-0.080	0.331
-272.370	475.749	-0.122	-0.272
-271.355	17.274	0.152	-0.119
-270.340	-134.889	-0.348	0.042
-269.326	800.000	-0.060	0.176
-268.311	-152.510	-0.372	0.026
-267.297	40.588	-0.295	0.262
-266.282	176.910	-0.090	-0.129
-265.267	-178.631	-0.270	0.006
-264.253	275.340	0.132	0.231
-263.238	52.870	0.053	0.050
-262.224	669.625	-0.118	-0.301
-261.209	276.034	-0.108	0.188
-260.195	-200.000	0.035	0.307
-259.180	260.840	-0.104	-0.178
-258.165	-58.837	0.386	-0.165
-257.151	-200.000	0.018	0.218
-256.136	43.549	-0.173	-0.156
-255.122	-92.170	0.513	0.143
-254.107	121.653	-0.083	0.102
-253.092	-68.181	0.317	0.122
-252.078	800.000	-0.123	0.339
-251.063	258.619	0.054	0.092
-250.049	-78.283	-0.167	-0.057
-249.034	-114.316	0.125	0.024
-248.019	-200.000	0.018	-0.127
-247.005	-95.961	0.183	-0.048
-245.990	-200.000	0.003	-0.070
-244.976	-47.336	-0.123	-0.059
-243.961	57.974	0.136	0.131
-242.946	-32.946	0.243	0.133
-241.932	95.752	-0.085	-0.096
-240.917	800.000	0.042	0.166
-239.903	-21.034	0.272	-0.164
-238.888	800.000	-0.054	-0.190
-237.873	304.954	0.051	-0.094
-236.859	110.221	0.160	0.190
-235.844	-72.935	0.133	0.048
-234.830	-31.893	-0.025	0.014
-233.815	516.183	0.087	0.200
-232.800	550.571	0.120	-0.283
-231.786	249.968	0.055	0.093
-230.771	-165.424	0.128	0.006
-229.757	-200.000	0.015	0.206
-228.742	-140.975	0.256	0.026
-227.727	-200.000	-0.040	0.353
-226.713	44.519	-0.149	-0.135
-225.698	-11.137	-0.027	0.018
-224.684	-163.034	-0.242	-0.012
-223.669	-158.119	-0.272	-0.016
-222.655	-67.112	-0.204	0.079
-221.640	125.853	0.141	-0.175
-220.625	199.168	0.072	0.109
-219.611	-96.953	0.028	0.007
-218.596	76.915	-0.152	0.159
-217.582	220.214	-0.061	0.096
-216.567	-42.112	0.252	0.127
-215.552	90.988	-0.081	-0.089
-214.538	-140.955	0.313	0.032
-213.523	-81.468	0.047	0.015
-212.509	151.276	0.087	0.117
-211.494	-66.549	-0.069	0.027
-210.479	-46.998	0.279	0.134
-209.465	-23.849	0.225	0.132
-208.450	800.000	-0.075	-0.265
-207.436	-90.566	0.214	-0.061
-206.421	24.338	0.130	-0.106
-205.406	-53.507	0.321	0.144
-204.392	-5.757	-0.023	0.016
-203.377	-127.886	0.534	0.076
-202.363	-114.415	-0.328	-0.062
-201.348	114.057	-0.110	-0.131
-200.333	165.711	0.082	0.114
-199.319	85.810	-0.125	0.135
-198.304	247.277	0.214	0.355
-197.290	112.916	0.196	0.233
-196.275	-200.000	0.002	0.021
-195.260	-200.000	-0.007	-0.096
-194.246	-178.546	-0.100	0.002
-193.231	53.325	-0.156	0.147
-192.217	-200.000	0.034	0.149
-191.202	-20.252	0.269	0.163
-190.187	-119.534	0.166	0.028
-189.173	-200.000	-0.034	0.459
-188.158	-20.071	0.244	0.148
-187.144	242.050	0.035	0.057
-186.129	124.532	-0.119	0.147
-185.114	-200.000	0.014	-0.189
-184.100	800.000	0.069	-0.216
-183.085	800.000	0.034	-0.095
-182.071	612.806	-0.077	-0.189
-181.056	-108.363	0.328	-0.070
-180.042	118.220	0.135	-0.163
-179.027	97.068	0.107	-0.120
-178.012	800.000	-0.122	0.333
-176.998	-2.219	0.118	-0.081
-175.983	-45.674	0.305	-0.148
-174.969	800.000	0.057	-0.234
-173.954	467.469	-0.096	0.211
-172.939	-200.000	0.020	-0.267
-171.925	-200.000	0.013	-0.085
-170.910	91.875	-0.114	-0.127
-169.896	-200.000	-0.035	-0.334
-168.881	71.012	-0.162	0.165
-167.866	95.455	0.056	0.063
-166.852	-135.308	0.413	0.049
-165.837	30.081	-0.156	0.130
-164.823	77.726	0.194	-0.203
-163.808	-200.000	-0.018	0.277
-162.793	-200.000	-0.017	-0.076
-161.779	-200.000	-0.034	-0.176
-160.764	-53.910	0.031	-0.014
-159.750	65.813	-0.241	-0.240
-158.735	-200.000	-0.030	-0.148
-157.720	-75.977	-0.235	0.082
-156.706	287.036	0.117	-0.207
-155.691	120.765	0.012	0.015
-154.677	-161.861	0.129	0.006
-153.662	-120.435	-0.334	0.056
-152.647	800.000	0.016	-0.062
-151.633	-200.000	0.119	-0.556
-150.618	-200.000	-0.028	-0.217
-149.604	52.249	-0.057	-0.053
-148.589	-97.542	0.105	-0.027
-147.574	-79.360	0.376	0.125
-146.560	800.000	0.171	0.571
-145.545	-6.912	0.233	0.155
-144.531	72.907	-0.087	0.089
-143.516	-200.000	0.065	0.298
-142.502	800.000	0.049	-0.152
-141.487	-139.058	-0.030	0.003
-140.472	139.097	-0.224	-0.289
-139.458	191.081	-0.129	0.191
-138.443	-200.000	-0.024	-0.117
-137.429	-35.923	-0.355	0.188
-136.414	-42.295	-0.127	0.064
-135.399	375.253	-0.147	0.293
-134.385	-67.482	0.206	-0.079
-133.370	-82.620	-0.413	-0.131
-132.356	-143.166	0.186	0.018
-131.341	-178.927	-0.370	0.008
-130.326	800.000	0.078	0.290
-129.312	86.184	-0.150	0.162
-128.297	800.000	0.063	0.259
-127.283	120.612	0.077	0.094
-126.268	311.541	0.071	0.130
-125.253	607.824	-0.066	0.162
-124.239	33.203	0.219	-0.187
-123.224	-104.564	-0.258	-0.058
-122.210	308.844	0.134	-0.246
-121.195	-34.391	-0.101	-0.054
-120.180	84.700	0.150	-0.161
-119.166	-116.617	-0.132	0.024
-118.151	-200.000	-0.067	0.337
-117.137	190.258	-0.111	-0.163
-116.122	-159.496	-0.131	0.007
-115.107	181.080	-0.094	0.135
-114.093	-131.161	-0.151	0.020
-113.078	800.000	-0.076	0.255
-112.064	456.108	0.120	-0.260
-111.049	345.490	-0.100	0.193
-110.034	667.116	0.108	0.274
-109.020	-56.975	0.160	-0.069
-108.005	-1.703	0.207	-0.143
-106.991	6.040	0.295	0.214
-105.976	-5.046	-0.159	0.107
-104.962	109.997	-0.064	-0.075
-103.947	800.000	-0.056	0.172
-102.932	182.080	0.161	-0.233
-101.918	-49.038	-0.244	-0.114
-100.903	-83.283	-0.230	-0.072
-99.889	494.663	-0.148	0.334
-98.874	-62.071	-0.410	0.168
-97.859	9.977	-0.167	-0.125
-96.845	-200.000	0.001	-0.041
-95.830	239.111	0.275	0.448
-94.816	110.112	0.311	0.366
-93.801	-188.176	0.073	0.001
-92.786	-200.000	0.287	-0.001
-91.772	189.114	-0.055	0.080
-90.757	-200.000	-0.014	-0.155
-89.743	185.521	0.084	0.122
-88.728	111.948	-0.151	-0.178
-87.713	-97.244	-0.182	0.047
-86.699	12.067	-0.197	-0.148
-85.684	-66.220	0.203	0.079
-84.670	-128.787	-0.113	-0.016
-83.655	65.358	0.208	0.206
-82.640	305.913	-0.062	0.112
-81.626	215.845	0.097	0.151
-80.611	63.656	0.267	0.263
-79.597	-190.545	-0.340	0.004
-78.582	554.944	0.106	0.250
-77.567	271.894	0.137	0.237
-76.553	-200.000	-0.022	0.345
-75.538	800.000	-0.160	0.469
-74.524	-17.432	-0.163	-0.101
-73.509	-29.138	-0.060	0.034
-72.494	194.016	-0.213	-0.315
-71.480	800.000	-0.120	0.327
-70.465	11.663	0.070	0.053
-69.451	168.128	-0.372	0.518
-68.436	-142.241	0.099	0.010
-67.422	657.526	-0.091	-0.228
-66.407	-104.786	0.220	-0.049
-65.392	57.499	-0.191	-0.182
-64.378	54.204	0.155	-0.146
-63.363	-27.186	-0.133	-0.076
-62.349	-200.000	-0.072	0.323
-61.334	7.621	-0.913	-0.669
-60.319	-33.137	0.696	0.377
-59.305	486.348	-0.581	-1.297
-58.290	546.066	0.552	1.292
-57.276	216.955	0.618	0.962
-56.261	-200.000	115.274	666.447
-55.246	543.903	1529.432	3570.794
-54.232	178.121	2694.170	3844.591
-53.217	109.358	2172.506	2544.016
-52.203	37.955	1697.697	1476.024
-51.188	30.474	1515.787	1267.026
-50.173	28.257	1491.450	1231.738
-49.159	53.070	1550.465	1451.241
-48.144	51.218	1565.456	1452.539
-47.130	30.648	1521.394	1272.704
-46.115	27.648	1506.101	1239.505
-45.100	27.304	1503.040	1234.597
-44.086	27.238	1501.182	1232.575
-43.071	27.199	1499.336	1230.751
-42.057	27.243	1497.501	1229.491
-41.042	27.255	1496.301	1228.541
-40.027	27.271	1495.034	1227.559
-39.013	27.231	1493.021	1225.588
-37.998	27.250	1492.080	1224.892
-36.984	27.196	1491.172	1223.738
-35.969	27.261	1489.387	1222.662
-34.954	27.272	1487.870	1221.439
-33.940	27.290	1486.598	1220.465
-32.925	27.359	1485.258	1219.778
-31.911	27.317	1483.958	1218.386
-30.896	27.235	1483.074	1217.063
-29.881	27.286	1481.482	1216.048
-28.867	27.354	1479.937	1215.183
-27.852	27.251	1479.762	1214.304
-26.838	27.380	1477.831	1213.530
-25.823	27.265	1476.534	1211.653
-24.809	27.361	1474.452	1210.533
-23.794	27.289	1473.127	1208.922
-22.779	27.422	1471.387	1208.327
-21.765	27.343	1471.022	1207.454
-20.750	27.383	1469.895	1206.751
-19.736	27.305	1469.120	1205.546
-18.721	27.316	1467.919	1204.590
-17.706	27.265	1466.763	1203.251
-16.692	27.387	1465.427	1202.917
-15.677	27.337	1464.267	1201.584
-14.663	27.384	1463.444	1201.170
-13.648	27.383	1462.454	1200.303
-12.633	27.262	1461.890	1198.996
-11.619	27.289	1461.295	1198.638
-10.604	27.275	1460.628	1197.953
-9.590	27.250	1458.914	1196.332
-8.575	27.222	1458.499	1195.765
-7.560	27.338	1457.254	1195.456
-6.546	27.256	1456.285	1194.079
-5.531	27.310	1455.611	1193.830
-4.517	27.240	1454.870	1192.716
-3.502	27.244	1453.810	1191.827
-2.487	27.285	1453.181	1191.530
-1.473	27.207	1451.784	1189.832
-0.458	27.235	1450.708	1189.080
0.556	28.985	1440.512	1177.664
1.571	25.766	1416.126	1137.327
2.586	22.208	1358.233	1069.143
3.600	20.407	1277.263	995.012
4.615	19.070	1231.112	951.581
5.629	16.792	1174.702	895.871
6.644	10.201	1092.769	800.787
7.659	4.936	1055.614	748.267
8.673	4.209	1050.464	741.073
9.688	4.128	1046.878	738.094
10.702	3.973	1045.309	736.186
11.717	3.991	1043.227	734.738
12.731	6.394	1045.481	747.680
13.746	13.716	1055.512	789.772
14.761	20.472	1064.037	828.405
15.775	22.573	1066.127	839.981
16.790	22.187	1064.779	837.008
17.804	21.340	1063.205	831.672
18.819	20.496	1061.464	826.225
19.834	20.279	1059.623	823.689
20.848	20.079	1059.442	822.526
21.863	20.236	1059.012	822.864
22.877	19.968	1058.459	821.089
23.892	19.837	1057.635	819.758
24.907	19.684	1056.914	818.402
25.921	19.708	1056.002	817.736
26.936	19.641	1055.137	816.678
27.950	19.668	1053.758	815.665
28.965	19.580	1053.242	814.779
29.980	19.729	1051.875	814.351
30.994	19.870	1050.865	814.162
32.009	20.062	1050.178	814.458
33.023	20.248	1048.971	814.324
34.038	20.127	1048.393	813.233
35.053	20.061	1047.532	812.188
36.067	19.779	1046.239	809.790
37.082	19.757	1045.725	809.218
38.096	19.765	1045.036	808.651
39.111	19.859	1044.322	808.465
40.126	20.123	1043.164	808.729
41.140	19.809	1042.629	806.781
42.155	19.592	1040.558	804.094
43.169	19.394	1039.580	802.347
44.184	19.233	1038.716	800.862
45.199	19.100	1037.652	799.354
46.213	19.295	1036.776	799.512
47.228	19.385	1035.807	799.111
48.242	19.621	1035.518	799.912
49.257	19.827	1034.853	800.278
50.271	19.792	1033.456	798.967
51.286	19.828	1033.017	798.724
52.301	19.950	1032.610	798.902
53.315	19.793	1031.883	797.544
54.330	19.814	1030.651	796.618
55.344	19.517	1030.034	794.701
56.359	19.573	1028.239	793.504
57.374	19.536	1027.732	792.874
58.388	19.575	1026.544	792.063
59.403	19.303	1026.385	790.624
60.417	19.296	1025.102	789.532
61.432	19.266	1024.784	789.084
62.447	19.285	1023.901	788.420
63.461	19.084	1023.366	787.020
64.476	19.207	1021.763	786.277
65.490	19.100	1020.885	785.046
66.505	18.907	1020.495	783.796
67.520	19.037	1019.234	783.351
68.534	18.976	1019.182	782.961
69.549	19.052	1018.391	782.630
70.563	19.105	1017.096	781.808
71.578	18.998	1016.323	780.659
72.593	18.782	1015.509	778.983
73.607	18.536	1014.640	777.134
74.622	18.674	1013.529	776.840
75.636	18.668	1012.706	776.115
76.651	18.931	1011.422	776.248
77.666	18.880	1011.111	775.711
78.680	18.899	1010.313	775.114
79.695	18.955	1010.022	775.074
80.709	18.985	1009.162	774.481
81.724	19.163	1008.537	774.737
82.739	19.224	1008.147	774.641
83.753	19.303	1007.283	774.264
84.768	19.647	1006.765	775.342
85.782	19.886	1006.694	776.288
86.797	20.208	1005.951	777.091
87.812	20.129	1005.457	776.286
88.826	19.990	1003.956	774.437
89.841	19.889	1003.071	773.237
90.855	19.953	1002.789	773.237
91.870	20.151	1001.783	773.276
92.884	20.057	1001.560	772.617
93.899	20.151	1000.173	771.894
94.914	20.078	999.243	770.783
95.928	20.172	998.817	770.804
96.943	20.212	998.051	770.323
97.957	20.014	997.507	768.958
98.972	20.075	995.893	767.914
99.987	19.897	995.573	766.810
101.001	20.123	994.843	767.182
102.016	20.101	993.712	766.144
103.030	19.904	992.794	764.501
104.045	19.950	992.331	764.276
105.060	20.136	991.132	764.109
106.074	19.992	990.360	762.809
107.089	19.566	988.785	759.654
108.103	19.326	987.711	757.709
109.118	19.132	987.043	756.276
110.133	19.106	985.997	755.296
111.147	19.181	984.848	754.677
112.162	19.051	984.055	753.434
113.176	19.201	983.217	753.380
114.191	19.254	982.919	753.316
115.206	19.295	981.898	752.650
116.220	19.306	981.473	752.302
117.235	19.125	980.238	750.500
118.249	19.171	979.264	749.888
119.264	19.178	978.304	749.118
120.279	19.110	977.096	747.831
121.293	18.938	977.232	747.122
122.308	18.857	976.333	746.017
123.322	18.794	975.229	744.836
124.337	18.626	974.137	743.204
125.352	18.681	973.038	742.539
126.366	18.826	972.028	742.331
127.381	18.818	970.889	741.360
128.395	18.748	969.968	740.290
129.410	18.875	968.813	739.890
130.424	18.842	968.334	739.315
131.439	18.942	967.508	739.050
132.454	18.970	967.252	738.911
133.468	19.056	966.569	738.690
134.483	19.274	965.729	738.920
135.497	19.221	965.327	738.319
136.512	19.387	963.754	737.760
137.527	19.344	963.746	737.507
138.541	19.190	963.154	736.329
139.556	19.415	961.874	736.245
140.570	19.305	961.787	735.645
141.585	19.577	960.625	735.849
142.600	19.734	960.540	736.388
143.614	19.858	959.330	735.922
144.629	19.801	959.389	735.662
145.643	19.926	958.698	735.597
146.658	19.939	957.553	734.709
147.673	19.657	956.180	732.397
148.687	19.568	955.244	731.238
149.702	19.528	953.674	729.800
150.716	19.285	953.102	728.271
151.731	19.379	951.707	727.540
152.746	19.381	951.052	726.980
153.760	19.449	950.785	726.998
154.775	19.505	949.974	726.550
155.789	19.651	949.141	726.466
156.804	19.528	949.082	725.838
157.819	19.732	947.823	725.668
158.833	19.663	947.432	725.011
159.848	19.817	947.123	725.356
160.862	20.020	946.522	725.684
161.877	20.023	945.402	724.774
162.892	19.578	944.248	721.965
163.906	19.450	942.833	720.284
164.921	19.457	941.853	719.503
165.935	19.258	941.369	718.241
166.950	19.236	940.507	717.426
167.964	19.439	939.572	717.493
168.979	19.443	938.776	716.840
169.994	19.608	937.232	716.282
171.008	19.412	936.535	714.871
172.023	19.453	936.070	714.625
173.037	19.673	935.677	715.171
174.052	19.893	934.810	715.354
175.067	19.950	933.760	714.726
176.081	19.465	933.162	712.201
177.096	19.172	931.714	709.827
178.110	19.224	930.657	709.173
179.125	19.210	930.359	708.827
180.140	19.372	929.119	708.483
181.154	19.429	929.325	708.813
182.169	19.666	928.500	709.092
183.183	19.778	927.775	708.934
184.198	19.863	927.303	708.859
185.213	19.869	926.666	708.333
186.227	19.744	926.492	707.630
187.242	19.895	925.922	707.748
188.256	19.966	924.960	707.241
189.271	19.991	924.421	706.868
190.286	20.227	923.834	707.318
191.300	19.866	922.698	704.913
192.315	19.419	921.554	702.161
193.329	19.151	920.604	700.284
194.344	19.071	919.990	699.428
195.359	19.229	919.865	699.916
196.373	19.422	919.182	700.118
197.388	19.654	918.570	700.530
198.402	19.806	918.604	701.108
199.417	20.085	918.146	701.829
200.432	20.313	917.603	702.274
201.446	20.425	917.271	702.408
202.461	20.497	917.210	702.594
203.475	20.497	916.931	702.316
204.490	20.455	915.793	701.213
205.504	20.195	914.689	699.258
206.519	20.006	913.692	697.674
207.534	19.972	912.827	696.812
208.548	19.872	912.144	695.827
209.563	19.882	911.872	695.598
210.577	19.962	910.922	695.136
211.592	20.091	910.393	695.188
212.607	20.104	910.304	695.108
213.621	20.439	909.927	696.101
214.636	20.206	909.308	694.634
215.650	20.231	908.200	693.827
216.665	20.253	907.888	693.615
217.680	20.303	907.455	693.424
218.694	20.388	906.840	693.230
219.709	20.437	906.754	693.299
220.723	20.462	905.872	692.663
221.738	20.297	904.728	691.070
222.753	20.276	903.762	690.189
223.767	20.247	903.646	689.922
224.782	20.419	902.721	689.839
225.796	20.639	901.952	690.064
226.811	20.585	901.516	689.453
227.826	20.526	900.771	688.589
228.840	20.217	899.898	686.636
229.855	20.356	898.898	686.362
230.869	20.202	898.712	685.552
231.884	20.082	897.879	684.381
232.899	20.117	897.191	683.934
233.913	20.094	896.358	683.148
234.928	19.891	895.655	681.754
235.942	19.888	895.071	681.237
236.957	19.872	894.012	680.306
237.972	19.688	893.810	679.369
238.986	19.848	893.026	679.343
240.001	19.884	892.459	678.993
241.015	19.831	892.114	678.462
242.030	19.916	891.457	678.237
243.045	20.163	890.300	678.260
244.059	20.141	890.290	678.108
245.074	20.365	889.594	678.392
246.088	20.323	888.827	677.586
247.103	20.422	888.438	677.613
248.117	20.514	888.196	677.730
249.132	20.664	888.095	678.176
250.147	20.852	887.662	678.516
251.161	21.250	887.172	679.633
252.176	21.142	886.833	678.891
253.190	21.340	886.106	679.044
254.205	21.414	885.754	679.003
255.220	21.443	884.985	678.464
256.234	21.235	884.244	677.032
257.249	21.465	883.223	677.080
258.263	21.138	883.008	675.589
259.278	21.245	882.426	675.497
260.293	21.216	881.884	674.912
261.307	21.296	881.207	674.641
262.322	21.481	880.941	675.091
263.336	21.544	879.945	674.513
264.351	21.473	879.733	674.016
265.366	21.457	879.232	673.512
266.380	21.415	878.395	672.650
267.395	21.500	877.715	672.396
268.409	21.332	876.909	671.072
269.424	21.335	875.867	670.231
270.439	21.173	875.367	669.167
271.453	21.161	874.775	668.610
272.468	20.936	874.010	667.103
273.482	20.978	873.289	666.653
274.497	21.143	872.505	666.629
275.512	21.065	871.994	665.882
276.526	20.931	871.188	664.694
277.541	21.049	870.801	664.793
278.555	21.015	870.353	664.261
279.570	21.285	869.895	664.878
280.585	21.529	869.165	665.192
281.599	21.533	869.068	665.072
282.614	21.372	868.367	663.866
283.628	21.263	867.109	662.433
284.643	21.079	866.637	661.318
285.657	21.034	866.379	660.891
286.672	21.174	865.569	660.743
287.687	21.225	865.254	660.637
288.701	21.216	864.732	660.147
289.716	21.226	864.085	659.633
290.730	21.272	863.373	659.204
291.745	21.238	862.841	658.610
292.760	21.352	862.281	658.554
293.774	21.387	861.920	658.354
294.789	21.617	861.560	658.885
295.803	21.586	861.023	658.299
296.818	21.451	859.849	656.837
297.833	21.182	859.387	655.416
298.847	21.177	858.450	654.625
299.862	21.448	857.917	655.177
300.876	21.204	857.546	653.920
301.891	21.275	857.182	653.850
302.906	21.538	856.625	654.353
303.920	21.759	855.768	654.464
304.935	22.013	855.097	654.840
305.949	21.979	855.498	654.963
306.964	21.788	854.631	653.530
307.979	21.694	853.326	652.123
308.993	21.661	852.952	651.656
310.008	21.843	852.283	651.764
311.022	21.853	852.016	651.542
312.037	21.838	851.188	650.793
313.052	21.537	850.632	649.195
314.066	21.589	849.558	648.511
315.081	21.181	849.029	646.537
316.095	21.248	848.357	646.216
317.110	21.181	848.190	645.784
318.125	21.234	847.433	645.347
319.139	21.311	847.044	645.279
320.154	21.297	846.164	644.499
321.168	21.245	845.928	644.072
322.183	21.304	845.360	643.798
323.197	21.348	844.901	643.553
324.212	21.291	844.468	642.959
325.227	21.368	844.182	642.966
326.241	21.312	843.624	642.278
327.256	21.296	843.001	641.689
328.270	21.333	842.038	641.034
329.285	21.290	841.312	640.269
330.300	21.298	840.919	639.943
331.314	21.272	840.300	639.318
332.329	21.260	839.861	638.884
333.343	21.451	839.223	639.042
334.358	21.774	838.457	639.578
335.373	21.783	838.404	639.514
336.387	21.748	837.642	638.750
337.402	21.787	837.365	638.625
338.416	21.876	837.017	638.625
339.431	22.062	836.291	638.692
340.446	22.216	835.974	638.951
341.460	22.255	835.677	638.813
342.475	22.350	835.247	638.770
343.489	22.269	834.676	637.983
344.504	22.496	834.037	638.262
345.519	22.416	834.102	637.965
346.533	22.659	833.172	638.075
347.548	22.457	833.084	637.222
348.562	22.103	832.043	635.088
349.577	22.020	830.927	633.881
350.592	21.848	830.244	632.685
351.606	21.758	829.596	631.810
352.621	21.704	829.249	631.296
353.635	21.594	829.177	630.788
354.650	21.819	828.288	630.865
355.665	21.842	827.911	630.608
356.679	21.941	827.519	630.606
357.694	22.249	827.061	631.310
358.708	22.008	827.006	630.344
359.723	22.058	826.021	629.718
360.738	21.978	825.363	628.874
361.752	22.024	825.335	628.961
362.767	21.849	824.962	627.994
363.781	22.169	824.806	628.965
364.796	22.488	824.435	629.769
365.810	22.504	823.711	629.219
366.825	22.643	823.335	629.369
367.840	22.805	823.383	629.931
368.854	22.704	823.163	629.343
369.869	22.653	822.250	628.411
370.883	22.419	821.578	627.006
371.898	22.496	821.049	626.821
372.913	22.727	820.225	626.957
373.927	22.716	819.944	626.651
374.942	22.553	819.039	625.325
375.956	22.582	818.221	624.747
376.971	22.623	817.854	624.556
377.986	22.781	817.496	624.786
379.000	22.889	816.925	624.677
380.015	22.915	816.755	624.585
381.029	22.923	815.768	623.803
382.044	22.887	815.243	623.217
383.059	22.889	814.930	622.932
384.073	22.918	814.084	622.331
385.088	22.881	813.474	621.680
386.102	22.555	812.427	619.678
387.117	22.351	812.300	618.811
388.132	22.248	811.718	617.950
389.146	22.445	810.931	617.986
390.161	22.371	810.803	617.576
391.175	22.816	810.261	618.669
392.190	23.002	810.187	619.207
393.205	22.693	810.002	617.932
394.219	22.507	809.239	616.641
395.234	22.544	808.509	616.159
396.248	22.349	807.686	614.796
397.263	22.341	807.114	614.281
398.278	21.949	807.314	613.009
399.292	22.088	806.297	612.667
400.307	22.001	805.922	612.025
401.321	22.185	805.053	611.950
402.336	22.017	805.095	611.343
403.350	22.299	804.539	611.849
404.365	22.420	804.737	612.366
405.380	22.515	804.242	612.264
406.394	22.853	804.009	613.206
407.409	23.032	803.609	613.470
408.423	23.144	803.066	613.388
409.438	23.134	802.737	613.048
410.453	23.104	802.083	612.391
411.467	23.261	801.967	612.792
412.482	23.361	801.755	612.922
413.496	23.359	800.932	612.232
414.511	23.585	800.631	612.729
415.526	23.434	800.308	611.906
416.540	23.402	799.801	611.352
417.555	23.204	799.472	610.364
418.569	23.198	798.857	609.820
419.584	23.214	798.557	609.593
420.599	23.300	797.719	609.195
421.613	164.742	1371.427	1798.256
422.628	143.057	1455.025	1798.330
