DTS Sentinel unit serial number:	SN413079Multiplexer serial number:	ORYXHardware model number:	OX4-SRSoftware version number:	ORYX F/W v4.00 Oryx Data Collector v3.7.2.0data status	okinstallation	princeton_trtdifferential loss correction	single-endedforward channel	channel 3reverse channel	N/Adate	2019/09/12time	08:26:11forward acquisition time	60.00reverse acquisition time	0.00gamma	496.2192k internal	0.2311k external	0.2311temperature offset calibration	1.0031default loss term (dB/km)	0.3790temperature slope calibration	1.0000multiplexer offset coefficient	1.0000multiplexer slope coefficient	1.0000fibre end	0.00T internal ref (°C)	33.56T ext. ref 1 (°C)	1.71T ext. ref 2 (°C)	29.60length (m)	temperature (°C)	Stokes	anti-Stokes-747.200	800.000	0.053	-0.203
-746.185	-38.301	0.345	0.185
-745.171	-200.000	-0.015	0.095
-744.156	-200.000	-0.000	0.423
-743.142	283.465	-0.113	-0.207
-742.127	88.683	-0.134	0.151
-741.112	800.000	0.032	0.097
-740.098	800.000	0.107	0.323
-739.083	163.684	0.143	0.205
-738.069	163.393	-0.113	0.161
-737.054	-42.909	-0.331	0.171
-736.039	-3.169	-0.188	0.133
-735.025	-106.490	0.064	-0.015
-734.010	-38.431	-0.222	0.119
-732.996	-200.000	-0.009	0.077
-731.981	-200.000	0.064	0.289
-730.966	-40.912	-0.107	-0.056
-729.952	-188.087	-0.350	-0.005
-728.937	-93.419	-0.096	-0.027
-727.923	-200.000	-0.015	-0.280
-726.908	-75.845	-0.224	-0.081
-725.894	390.465	0.167	0.351
-724.879	-43.642	-0.350	0.179
-723.864	309.057	-0.109	-0.206
-722.850	-45.678	0.281	-0.141
-721.835	-200.000	0.005	-0.136
-720.821	26.140	-0.151	-0.128
-719.806	5.188	-0.119	0.089
-718.791	-92.162	0.160	0.046
-717.777	-41.761	-0.248	-0.129
-716.762	51.033	-0.079	-0.076
-715.748	-41.934	0.285	-0.148
-714.733	-173.299	0.252	-0.008
-713.718	-17.960	0.241	0.153
-712.704	25.941	0.177	0.149
-711.689	-47.731	-0.059	0.029
-710.675	-10.765	-0.271	0.181
-709.660	70.400	0.028	-0.030
-708.645	-103.436	-0.231	0.055
-707.631	311.817	0.067	-0.127
-706.616	-200.000	-0.043	-0.454
-705.602	-80.329	-0.218	-0.074
-704.587	-115.004	0.190	0.037
-703.572	-97.568	-0.064	-0.017
-702.558	800.000	-0.009	0.041
-701.543	-200.000	0.000	-0.185
-700.529	288.319	-0.015	0.028
-699.514	800.000	0.034	-0.108
-698.499	278.047	0.059	0.107
-697.485	-133.282	-0.331	0.042
-696.470	58.174	0.233	0.231
-695.456	453.453	0.126	0.282
-694.441	651.167	0.118	0.306
-693.426	161.239	0.055	-0.078
-692.412	-118.166	0.097	0.017
-691.397	-140.143	-0.078	-0.008
-690.383	-67.233	-0.080	0.032
-689.368	-186.285	-0.179	-0.003
-688.354	800.000	-0.055	-0.202
-687.339	-200.000	-0.020	-0.321
-686.324	-105.590	-0.160	0.037
-685.310	-188.434	-0.230	-0.003
-684.295	-127.430	-0.295	0.043
-683.281	6.205	-0.301	0.226
-682.266	-40.351	-0.280	-0.147
-681.251	-110.892	-0.276	0.058
-680.237	333.612	-0.049	0.095
-679.222	88.528	0.196	-0.220
-678.208	114.160	-0.040	0.049
-677.193	-130.533	-0.119	0.016
-676.178	-157.682	-0.274	-0.017
-675.164	175.633	-0.062	-0.091
-674.149	-107.307	-0.268	0.060
-673.135	-200.000	0.050	0.275
-672.120	-62.454	-0.245	-0.103
-671.105	367.214	0.084	-0.171
-670.091	718.066	0.107	-0.289
-669.076	135.019	0.217	0.285
-668.062	-108.514	0.261	-0.057
-667.047	544.239	0.055	0.134
-666.032	-77.158	0.262	0.092
-665.018	77.927	-0.233	0.252
-664.003	70.057	-0.225	-0.235
-662.989	138.590	0.164	-0.217
-661.974	-2.450	-0.304	0.216
-660.959	-50.721	0.076	-0.036
-659.945	134.064	0.311	-0.407
-658.930	-82.859	-0.153	0.050
-657.916	113.497	-0.167	-0.205
-656.901	409.561	-0.120	0.257
-655.886	-160.089	0.241	-0.013
-654.872	202.380	-0.166	-0.258
-653.857	-101.068	0.454	-0.113
-652.843	-200.000	0.018	0.198
-651.828	-161.598	-0.173	-0.009
-650.814	-104.264	-0.198	-0.046
-649.799	-200.000	-0.002	0.232
-648.784	800.000	0.108	-0.452
-647.770	-200.000	0.033	-0.298
-646.755	-138.378	0.296	-0.033
-645.741	800.000	0.035	-0.112
-644.726	45.553	0.128	0.120
-643.711	-200.000	0.031	-0.400
-642.697	120.452	-0.110	-0.139
-641.682	-118.889	0.297	-0.053
-640.668	-83.616	-0.127	-0.041
-639.653	54.232	-0.080	0.078
-638.638	-200.000	0.020	0.116
-637.624	28.204	-0.090	-0.077
-636.609	-41.793	-0.148	-0.077
-635.595	-200.000	0.027	-0.131
-634.580	618.945	-0.054	0.138
-633.565	-31.977	0.170	-0.096
-632.551	800.000	0.069	0.217
-631.536	800.000	-0.079	-0.264
-630.522	288.695	0.106	-0.195
-629.507	-52.638	-0.463	-0.216
-628.492	-25.054	0.108	0.065
-627.478	800.000	-0.147	-0.504
-626.463	-5.542	0.149	-0.103
-625.449	-60.938	0.307	0.131
-624.434	800.000	0.034	-0.106
-623.419	-132.826	-0.101	0.013
-622.405	-165.486	-0.120	-0.005
-621.390	800.000	0.053	0.221
-620.376	-194.361	0.224	0.002
-619.361	-142.816	0.263	0.026
-618.346	1.955	0.077	-0.056
-617.332	256.911	0.240	0.416
-616.317	-200.000	0.018	-0.253
-615.303	1.030	-0.032	0.023
-614.288	-37.169	-0.092	0.050
-613.273	280.580	-0.068	0.122
-612.259	152.013	-0.163	0.224
-611.244	496.525	0.054	0.125
-610.230	90.201	0.046	0.052
-609.215	419.620	0.092	-0.198
-608.201	-70.771	-0.161	-0.061
-607.186	-31.824	0.187	-0.106
-606.171	800.000	-0.061	0.241
-605.157	745.420	0.076	0.205
-604.142	761.830	0.046	0.127
-603.128	-38.469	-0.203	-0.108
-602.113	124.517	-0.187	0.237
-601.098	800.000	-0.086	-0.304
-600.084	-108.507	-0.436	-0.095
-599.069	51.984	0.059	0.056
-598.055	-69.459	-0.148	-0.057
-597.040	-130.343	0.132	-0.018
-596.025	717.630	-0.087	0.232
-595.011	455.118	0.062	-0.140
-593.996	693.227	0.063	-0.167
-592.982	-143.788	0.383	0.037
-591.967	800.000	0.071	0.213
-590.952	40.212	0.060	-0.054
-589.938	-75.211	-0.231	0.083
-588.923	800.000	-0.086	-0.316
-587.909	9.881	0.128	-0.098
-586.894	800.000	0.091	-0.283
-585.879	800.000	-0.048	0.140
-584.865	-124.180	-0.170	-0.027
-583.850	118.684	-0.032	0.040
-582.836	-39.987	0.307	0.162
-581.821	-9.003	0.038	0.026
-580.806	-66.844	0.085	-0.034
-579.792	-64.544	0.166	-0.068
-578.777	-120.634	-0.305	0.052
-577.763	-81.627	-0.378	0.125
-576.748	-124.578	-0.179	0.028
-575.733	-122.110	0.279	0.046
-574.719	229.816	-0.112	0.185
-573.704	-143.159	0.303	-0.029
-572.690	-79.809	0.214	0.073
-571.675	-8.739	-0.540	0.365
-570.661	91.817	0.112	0.127
-569.646	-112.151	0.320	-0.065
-568.631	-200.000	0.038	-0.248
-567.617	-81.448	-0.344	-0.114
-566.602	-172.864	-0.069	0.002
-565.588	-84.346	0.081	0.026
-564.573	-200.000	-0.038	0.408
-563.558	-116.812	0.235	0.043
-562.544	-161.823	-0.117	-0.006
-561.529	55.783	0.079	0.077
-560.515	584.612	-0.055	-0.136
-559.500	102.618	0.271	0.319
-558.485	-200.000	0.016	0.166
-557.471	-130.010	0.137	0.019
-556.456	-73.026	-0.051	0.019
-555.442	215.569	0.016	-0.026
-554.427	460.656	0.036	-0.081
-553.412	23.151	0.076	0.063
-552.398	0.499	-0.335	0.241
-551.383	-200.000	-0.021	0.165
-550.369	-200.000	-0.014	-0.189
-549.354	-34.098	0.210	0.116
-548.339	601.021	0.073	0.183
-547.325	800.000	-0.089	0.286
-546.310	-64.902	-0.377	0.153
-545.296	115.971	0.152	-0.187
-544.281	51.376	-0.172	-0.165
-543.266	-200.000	-0.050	-0.304
-542.252	166.398	-0.065	-0.093
-541.237	222.048	0.109	0.176
-540.223	-142.270	0.078	-0.008
-539.208	63.555	0.477	-0.482
-538.193	-4.033	-0.184	0.128
-537.179	-65.678	-0.191	-0.077
-536.164	402.478	0.148	0.312
-535.150	-132.514	-0.299	-0.039
-534.135	238.601	0.084	0.141
-533.121	-108.340	-0.124	-0.027
-532.106	-200.000	0.013	0.115
-531.091	29.859	0.225	0.193
-530.077	-89.478	-0.097	-0.029
-529.062	-6.875	0.184	-0.126
-528.048	-125.055	0.110	0.017
-527.033	136.386	0.136	-0.178
-526.018	-200.000	-0.017	-0.173
-525.004	-200.000	-0.058	-0.350
-523.989	-36.310	-0.297	-0.161
-522.975	-200.000	0.021	-0.197
-521.960	121.054	-0.218	0.274
-520.945	-200.000	-0.001	-0.156
-519.931	800.000	-0.086	-0.272
-518.916	-200.000	-0.041	0.370
-517.902	70.974	0.268	-0.279
-516.887	-188.798	-0.197	0.002
-515.872	-141.497	0.215	0.022
-514.858	-124.527	-0.140	-0.022
-513.843	-16.644	-0.308	0.196
-512.829	76.612	-0.045	-0.048
-511.814	46.571	-0.104	-0.097
-510.799	-35.960	-0.268	-0.146
-509.785	-87.156	0.148	0.045
-508.770	311.542	0.170	0.321
-507.756	-55.549	0.185	0.084
-506.741	263.491	-0.194	0.340
-505.726	-200.000	-0.042	-0.266
-504.712	-129.013	0.213	-0.030
-503.697	28.823	0.049	0.042
-502.683	-200.000	-0.006	-0.048
-501.668	29.683	-0.123	0.105
-500.653	-200.000	-0.012	-0.057
-499.639	239.632	0.098	-0.165
-498.624	38.646	-0.076	-0.068
-497.610	-71.534	-0.263	-0.099
-496.595	-200.000	0.009	-0.053
-495.581	800.000	-0.035	0.145
-494.566	61.355	0.049	0.049
-493.551	-101.558	-0.306	0.075
-492.537	-33.402	0.070	-0.039
-491.522	59.438	-0.290	0.287
-490.508	148.627	-0.267	0.362
-489.493	-138.471	0.176	-0.019
-488.478	-140.840	0.353	0.037
-487.464	402.318	0.100	0.212
-486.449	63.015	-0.239	0.241
-485.435	361.145	0.096	-0.193
-484.420	39.094	-0.044	0.039
-483.405	-147.471	0.343	0.029
-482.391	-50.576	0.133	-0.063
-481.376	290.752	-0.197	0.359
-480.362	48.984	0.158	0.149
-479.347	-188.273	0.110	-0.001
-478.332	-108.359	-0.222	-0.048
-477.318	-130.389	-0.174	-0.024
-476.303	86.663	0.038	-0.043
-475.289	600.151	-0.094	0.236
-474.274	625.156	-0.058	0.146
-473.259	108.093	0.175	0.209
-472.245	-200.000	0.002	-0.526
-471.230	-46.607	0.335	-0.165
-470.216	-70.191	0.092	-0.035
-469.201	-200.000	-0.051	-0.283
-468.186	176.180	0.055	0.081
-467.172	-129.764	-0.155	0.021
-466.157	-155.287	0.299	-0.020
-465.143	-200.000	-0.020	0.185
-464.128	79.963	-0.082	0.089
-463.113	304.749	0.097	-0.181
-462.099	-48.832	-0.039	0.019
-461.084	-78.444	-0.362	0.124
-460.070	579.036	-0.084	-0.206
-459.055	284.244	0.179	0.323
-458.040	21.424	0.065	-0.053
-457.026	129.512	0.057	0.073
-456.011	-114.418	-0.308	0.060
-454.997	151.852	-0.159	0.218
-453.982	65.107	0.092	0.093
-452.968	206.676	0.191	0.298
-451.953	663.823	-0.180	0.467
-450.938	280.997	-0.079	0.142
-449.924	800.000	-0.013	-0.056
-448.909	113.764	0.182	-0.221
-447.895	-93.912	0.237	0.065
-446.880	4.674	0.222	-0.163
-445.865	378.398	-0.124	-0.255
-444.851	-4.626	0.145	0.100
-443.836	88.192	-0.139	-0.155
-442.822	575.351	-0.110	-0.270
-441.807	-66.636	-0.274	-0.109
-440.792	92.657	-0.212	-0.240
-439.778	295.063	-0.107	-0.197
-438.763	-200.000	-0.007	-0.092
-437.749	37.855	0.093	0.083
-436.734	-200.000	0.003	0.110
-435.719	181.701	-0.114	-0.168
-434.705	227.095	-0.140	-0.228
-433.690	-200.000	0.042	0.442
-432.676	-200.000	0.022	-0.148
-431.661	-131.619	0.051	0.007
-430.646	305.549	-0.177	0.330
-429.632	-52.722	-0.044	-0.020
-428.617	161.873	0.185	0.260
-427.603	-95.010	-0.194	0.053
-426.588	289.440	-0.049	-0.089
-425.573	121.603	-0.160	0.200
-424.559	-167.526	0.087	-0.003
-423.544	-185.328	0.512	0.008
-422.530	67.195	-0.259	0.265
-421.515	-34.740	-0.166	0.091
-420.500	-58.609	-0.268	0.116
-419.486	-200.000	-0.018	0.138
-418.471	38.334	-0.095	-0.085
-417.457	-95.965	-0.091	-0.024
-416.442	-200.000	-0.043	0.387
-415.428	-134.872	0.127	0.015
-414.413	103.480	-0.183	0.216
-413.398	84.795	-0.142	-0.156
-412.384	45.016	-0.142	-0.131
-411.369	-54.400	0.203	0.092
-410.355	4.954	-0.143	-0.105
-409.340	48.148	-0.120	0.112
-408.325	68.951	-0.047	-0.049
-407.311	-41.819	0.070	0.036
-406.296	-20.722	0.138	0.085
-405.282	17.738	-0.233	0.186
-404.267	-127.985	0.297	-0.043
-403.252	800.000	-0.088	-0.297
-402.238	-200.000	-0.031	-0.219
-401.223	64.792	-0.242	-0.244
-400.209	-200.000	0.009	-0.410
-399.194	-200.000	0.067	-0.470
-398.179	212.429	0.070	0.110
-397.165	38.153	-0.235	-0.210
-396.150	-54.242	-0.028	0.013
-395.136	-61.125	-0.253	-0.107
-394.121	-200.000	0.001	-0.213
-393.106	-66.486	-0.423	-0.168
-392.092	-200.000	0.040	0.270
-391.077	800.000	0.160	-0.492
-390.063	420.019	-0.234	0.502
-389.048	572.034	0.040	-0.099
-388.033	-65.796	0.261	-0.105
-387.019	72.611	0.111	-0.116
-386.004	526.204	0.161	-0.380
-384.990	63.873	0.118	0.119
-383.975	-143.066	-0.119	0.011
-382.960	800.000	-0.043	0.119
-381.946	457.508	0.101	-0.225
-380.931	62.595	0.092	-0.092
-379.917	800.000	0.063	-0.200
-378.902	35.677	0.240	-0.211
-377.888	-104.253	-0.042	-0.010
-376.873	130.900	0.140	-0.180
-375.858	-148.543	0.364	0.030
-374.844	42.417	-0.096	-0.088
-373.829	-200.000	0.093	-0.408
-372.815	81.178	-0.109	-0.118
-371.800	-200.000	0.037	-0.173
-370.785	-66.012	0.081	-0.032
-369.771	-200.000	0.038	0.207
-368.756	695.225	-0.062	0.164
-367.742	-200.000	-0.022	-0.262
-366.727	58.474	-0.189	-0.185
-365.712	29.586	0.241	0.205
-364.698	294.817	-0.118	0.217
-363.683	-53.578	0.073	-0.033
-362.669	-53.787	-0.383	-0.175
-361.654	-69.050	0.324	-0.125
-360.639	-200.000	0.019	0.161
-359.625	536.152	-0.092	0.218
-358.610	51.390	-0.124	0.117
-357.596	-57.743	0.343	0.150
-356.581	-200.000	0.008	0.255
-355.566	-46.868	0.223	0.109
-354.552	39.931	0.075	-0.068
-353.537	-81.465	-0.188	0.062
-352.523	678.602	0.180	0.468
-351.508	23.242	0.150	0.123
-350.493	23.130	-0.142	0.117
-349.479	800.000	-0.034	-0.146
-348.464	-99.929	-0.404	0.101
-347.450	-200.000	0.043	-0.308
-346.435	-160.042	-0.157	-0.009
-345.420	-126.240	0.213	0.032
-344.406	-67.765	0.035	0.014
-343.391	800.000	-0.066	-0.236
-342.377	-99.184	0.326	-0.082
-341.362	-3.951	-0.267	-0.185
-340.348	-200.000	0.025	-0.241
-339.333	-21.053	0.015	-0.009
-338.318	-200.000	-0.014	0.318
-337.304	44.285	0.338	-0.310
-336.289	-200.000	-0.001	-0.245
-335.275	-25.207	0.285	-0.169
-334.260	-126.303	-0.150	-0.022
-333.245	221.861	-0.144	0.232
-332.231	36.911	0.048	-0.043
-331.216	139.550	-0.293	0.385
-330.202	55.192	-0.226	-0.218
-329.187	-1.138	0.123	-0.087
-328.172	-63.706	0.381	-0.156
-327.158	-157.030	-0.330	0.020
-326.143	-34.527	0.267	-0.146
-325.129	117.157	0.174	0.214
-324.114	732.425	-0.055	0.148
-323.099	-200.000	0.043	-0.189
-322.085	-200.000	0.056	-0.251
-321.070	249.704	-0.240	-0.407
-320.056	453.848	-0.046	0.102
-319.041	800.000	0.006	-0.024
-318.026	-47.582	0.591	0.287
-317.012	13.566	-0.219	0.170
-315.997	263.165	0.183	0.318
-314.983	-4.588	0.177	0.122
-313.968	-159.365	0.152	0.008
-312.953	-76.438	-0.298	-0.105
-311.939	-104.935	0.084	-0.019
-310.924	-54.710	-0.117	-0.053
-309.910	-200.000	0.005	-0.027
-308.895	66.255	0.097	0.098
-307.880	91.831	-0.016	-0.018
-306.866	146.398	-0.125	0.167
-305.851	232.276	-0.086	-0.140
-304.837	-1.767	-0.226	0.159
-303.822	252.586	0.114	0.193
-302.807	96.585	-0.137	0.157
-301.793	251.479	-0.183	0.310
-300.778	800.000	0.051	-0.161
-299.764	-200.000	-0.002	-0.093
-298.749	800.000	-0.036	0.138
-297.735	-12.029	0.146	-0.096
-296.720	64.982	0.113	-0.114
-295.705	-110.559	0.235	0.049
-294.691	134.405	-0.080	0.104
-293.676	-200.000	0.045	0.327
-292.662	-0.294	0.252	0.179
-291.647	-200.000	-0.016	-0.176
-290.632	453.347	0.056	-0.123
-289.618	-1.675	0.170	0.119
-288.603	120.814	0.055	0.068
-287.589	-42.601	-0.050	0.026
-286.574	-127.004	-0.339	0.050
-285.559	-200.000	0.029	-0.319
-284.545	-32.502	-0.376	-0.209
-283.530	-144.062	0.088	-0.008
-282.516	-85.595	0.127	0.039
-281.501	225.032	0.108	-0.174
-280.486	-200.000	-0.005	-0.023
-279.472	800.000	-0.044	0.159
-278.457	-145.872	0.326	-0.029
-277.443	143.080	0.182	0.242
-276.428	-200.000	0.010	-0.199
-275.413	-54.970	0.199	-0.089
-274.399	3.647	-0.177	-0.129
-273.384	98.304	-0.173	0.199
-272.370	-9.742	0.314	0.208
-271.355	-112.289	0.210	-0.042
-270.340	141.102	0.105	-0.138
-269.326	-80.274	-0.179	0.060
-268.311	-120.864	0.220	0.037
-267.297	800.000	-0.037	0.162
-266.282	-81.451	-0.151	0.050
-265.267	-133.806	-0.201	0.025
-264.253	800.000	0.109	-0.301
-263.238	29.030	-0.200	-0.169
-262.224	-200.000	0.095	-0.463
-261.209	-200.000	-0.049	-0.259
-260.195	-86.611	0.301	-0.092
-259.180	145.941	0.107	-0.142
-258.165	278.626	-0.102	-0.181
-257.151	-127.227	-0.338	0.049
-256.136	81.316	-0.118	0.127
-255.122	122.125	-0.129	-0.161
-254.107	-66.944	-0.024	0.010
-253.092	278.774	-0.085	-0.150
-252.078	800.000	-0.034	0.100
-251.063	-200.000	0.006	0.192
-250.049	-5.312	-0.183	0.125
-249.034	-150.467	0.362	-0.028
-248.019	-179.904	-0.171	0.004
-247.005	-26.500	-0.365	-0.213
-245.990	275.774	-0.119	-0.209
-244.976	294.321	-0.079	0.144
-243.961	336.711	-0.057	0.110
-242.946	-200.000	-0.016	-0.225
-241.932	-56.150	-0.292	0.129
-240.917	-143.076	0.067	-0.006
-239.903	495.715	0.073	0.166
-238.888	-10.005	0.329	-0.218
-237.873	-147.381	-0.226	-0.019
-236.859	18.402	0.127	0.101
-235.844	221.073	0.151	0.241
-234.830	800.000	-0.071	0.279
-233.815	-30.879	-0.285	0.160
-232.800	800.000	0.021	0.062
-231.786	232.118	-0.063	-0.103
-230.771	-128.527	-0.221	0.031
-229.757	-86.764	0.298	-0.091
-228.742	-155.644	0.043	-0.003
-227.727	42.207	-0.030	0.027
-226.713	62.977	0.138	-0.137
-225.698	800.000	-0.030	-0.088
-224.684	800.000	0.020	-0.069
-223.669	-200.000	0.061	0.278
-222.655	-77.078	0.353	-0.122
-221.640	-71.967	-0.274	0.101
-220.625	-11.670	-0.135	0.088
-219.611	-83.910	-0.145	0.046
-218.596	-146.987	0.393	0.034
-217.582	11.235	0.197	-0.150
-216.567	205.201	-0.167	-0.259
-215.552	800.000	0.060	0.254
-214.538	-200.000	-0.040	0.250
-213.523	-108.211	-0.342	0.074
-212.509	-200.000	0.021	-0.111
-211.494	-200.000	-0.091	-0.000
-210.479	24.473	-0.112	-0.092
-209.465	11.294	0.157	0.120
-208.450	-75.386	0.136	-0.048
-207.436	-51.538	0.239	0.111
-206.421	-200.000	0.000	-0.388
-205.406	-181.506	0.088	0.002
-204.392	800.000	0.055	0.154
-203.377	-114.304	0.041	-0.008
-202.363	800.000	0.022	0.096
-201.348	119.762	0.206	0.253
-200.333	800.000	0.047	0.154
-199.319	16.544	-0.087	0.069
-198.304	-142.698	-0.444	0.043
-197.290	800.000	-0.110	-0.353
-196.275	520.732	0.060	-0.139
-195.260	-76.227	-0.106	0.037
-194.246	-157.110	-0.070	-0.004
-193.231	32.459	0.020	-0.017
-192.217	-128.933	0.316	-0.044
-191.202	800.000	0.030	0.090
-190.187	-179.129	-0.162	0.004
-189.173	800.000	0.062	-0.181
-188.158	-200.000	-0.005	-0.115
-187.144	-200.000	0.033	0.174
-186.129	551.026	0.185	0.442
-185.114	-2.673	0.126	0.088
-184.100	-146.749	-0.165	0.014
-183.085	-127.822	0.164	0.024
-182.071	-43.669	-0.263	-0.132
-181.056	-74.499	0.408	-0.146
-180.042	182.056	0.114	-0.166
-179.027	472.910	-0.128	-0.287
-178.012	-77.753	-0.213	-0.073
-176.998	-118.311	-0.311	0.055
-175.983	17.475	-0.103	-0.081
-174.969	1.271	0.266	0.190
-173.954	-200.000	0.017	0.311
-172.939	14.649	0.336	0.261
-171.925	117.046	-0.056	-0.068
-170.910	-78.130	0.102	0.035
-169.896	254.905	0.183	-0.310
-168.881	800.000	-0.048	0.163
-167.866	-100.291	-0.272	-0.067
-166.852	441.531	0.072	0.157
-165.837	19.195	0.285	0.227
-164.823	800.000	0.052	0.210
-163.808	-200.000	0.007	0.230
-162.793	-56.572	-0.302	-0.133
-161.779	85.545	0.151	0.165
-160.764	-32.448	0.092	-0.051
-159.750	162.217	0.124	0.173
-158.735	-136.796	0.033	-0.004
-157.720	800.000	-0.162	0.555
-156.706	545.663	-0.074	-0.175
-155.691	-200.000	0.022	-0.124
-154.677	-137.064	-0.364	-0.041
-153.662	708.843	0.096	-0.251
-152.647	437.893	-0.115	-0.249
-151.633	240.454	0.053	-0.087
-150.618	-200.000	0.020	0.128
-149.604	23.903	0.044	0.036
-148.589	-150.220	0.113	-0.009
-147.574	-200.000	-0.003	-0.195
-146.560	-200.000	-0.052	-0.263
-145.545	-45.346	-0.228	0.112
-144.531	250.113	0.068	0.114
-143.516	800.000	-0.022	-0.092
-142.502	-200.000	0.031	-0.185
-141.487	13.125	-0.085	0.065
-140.472	-14.847	0.372	0.237
-139.458	-67.069	0.078	-0.030
-138.443	78.726	-0.085	0.090
-137.429	-84.345	-0.144	-0.045
-136.414	-33.326	-0.310	0.170
-135.399	-61.777	-0.076	0.031
-134.385	33.843	-0.092	-0.080
-133.370	-137.080	0.301	-0.034
-132.356	110.328	0.204	0.243
-131.341	-200.000	0.012	0.056
-130.326	423.716	0.226	0.482
-129.312	800.000	0.064	-0.183
-128.297	-30.388	0.310	0.174
-127.283	-38.061	0.300	-0.158
-126.268	118.273	-0.030	0.036
-125.253	495.073	-0.038	-0.087
-124.239	-154.189	-0.081	-0.005
-123.224	-57.092	0.290	0.127
-122.210	290.148	-0.171	0.307
-121.195	175.196	0.092	-0.132
-120.180	800.000	0.046	-0.192
-119.166	-200.000	-0.094	0.506
-118.151	85.256	-0.159	-0.173
-117.137	-136.972	-0.267	0.030
-116.122	309.276	0.057	0.105
-115.107	-99.273	0.175	-0.044
-114.093	61.640	0.250	0.247
-113.078	800.000	0.038	0.150
-112.064	449.982	-0.100	-0.218
-111.049	121.779	-0.091	0.112
-110.034	-47.417	0.084	-0.041
-109.020	-200.000	-0.022	0.279
-108.005	286.642	0.168	0.300
-106.991	72.469	0.165	0.170
-105.976	639.844	-0.006	0.014
-104.962	-69.755	0.365	0.138
-103.947	217.464	-0.214	0.338
-102.932	-135.775	-0.245	-0.029
-101.918	-200.000	-0.031	-0.312
-100.903	70.766	0.163	-0.167
-99.889	800.000	0.102	-0.386
-98.874	367.137	0.173	-0.346
-97.859	97.794	0.078	-0.089
-96.845	-200.000	-0.009	0.341
-95.830	800.000	-0.039	0.157
-94.816	15.510	0.154	-0.120
-93.801	-131.839	-0.336	0.044
-92.786	-200.000	-0.005	0.343
-91.772	27.243	-0.164	0.136
-90.757	107.041	0.107	0.126
-89.743	-34.540	-0.142	0.077
-88.728	-61.311	0.131	0.055
-87.713	-200.000	0.010	0.192
-86.699	800.000	-0.025	0.072
-85.684	595.689	0.051	-0.124
-84.670	150.509	-0.046	-0.062
-83.655	69.298	-0.138	0.141
-82.640	-136.736	-0.384	0.044
-81.626	649.513	0.155	-0.392
-80.611	170.802	-0.194	0.275
-79.597	-112.467	0.193	0.038
-78.582	-200.000	0.029	0.285
-77.567	256.020	0.009	0.015
-76.553	-200.000	0.023	-0.163
-75.538	-200.000	-0.009	-0.087
-74.524	-0.804	-0.224	-0.157
-73.509	55.550	-0.096	0.092
-72.494	-200.000	-0.009	0.377
-71.480	106.410	0.187	-0.219
-70.465	173.316	0.212	0.302
-69.451	162.134	-0.142	0.196
-68.436	-125.071	-0.122	-0.018
-67.422	-43.207	0.189	0.095
-66.407	-77.930	0.146	-0.050
-65.392	112.227	-0.169	-0.202
-64.378	-70.904	-0.140	0.052
-63.363	262.014	-0.101	-0.174
-62.349	86.144	-0.057	0.062
-61.334	401.227	-0.559	-1.159
-60.319	109.401	0.371	0.439
-59.305	316.170	-0.501	-0.935
-58.290	653.398	0.373	0.945
-57.276	423.432	0.592	1.256
-56.261	-200.000	98.577	590.589
-55.246	529.326	1416.701	3304.645
-54.232	148.857	2618.934	3498.133
-53.217	111.387	2195.146	2614.558
-52.203	43.818	1727.606	1562.766
-51.188	36.734	1540.018	1344.049
-50.173	34.241	1513.594	1303.891
-49.159	53.948	1564.501	1485.353
-48.144	56.796	1583.437	1523.082
-47.130	36.977	1539.251	1344.854
-46.115	33.864	1523.056	1309.235
-45.100	33.728	1519.634	1305.311
-44.086	33.616	1518.346	1303.379
-43.071	33.600	1516.112	1301.300
-42.057	33.449	1514.901	1299.175
-41.042	33.646	1512.909	1298.765
-40.027	33.687	1511.355	1297.657
-39.013	33.572	1510.068	1295.719
-37.998	33.421	1509.450	1294.104
-36.984	33.497	1508.393	1293.662
-35.969	33.555	1506.623	1292.488
-34.954	33.524	1505.001	1290.834
-33.940	33.583	1503.422	1289.834
-32.925	33.675	1502.382	1289.512
-31.911	33.654	1501.426	1288.501
-30.896	33.552	1500.216	1286.718
-29.881	33.578	1499.348	1286.099
-28.867	33.694	1497.504	1285.253
-27.852	33.574	1496.179	1283.254
-26.838	33.610	1494.575	1282.071
-25.823	33.527	1493.405	1280.450
-24.809	33.703	1491.052	1279.574
-23.794	33.522	1490.230	1277.593
-22.779	33.590	1488.783	1276.759
-21.765	33.594	1487.381	1275.535
-20.750	33.679	1485.932	1274.813
-19.736	33.533	1485.711	1273.593
-18.721	33.554	1484.363	1272.526
-17.706	33.646	1483.013	1271.935
-16.692	33.656	1481.990	1271.074
-15.677	33.588	1481.240	1269.925
-14.663	33.524	1480.335	1268.674
-13.648	33.560	1479.131	1267.830
-12.633	33.585	1478.122	1267.086
-11.619	33.484	1477.553	1265.871
-10.604	33.471	1476.979	1265.242
-9.590	33.576	1475.419	1264.555
-8.575	33.559	1474.972	1264.006
-7.560	33.582	1473.991	1263.274
-6.546	33.455	1473.458	1261.919
-5.531	33.479	1472.319	1261.053
-4.517	33.456	1471.496	1260.144
-3.502	33.422	1470.607	1259.105
-2.487	33.524	1469.540	1258.819
-1.473	33.490	1468.450	1257.613
-0.458	33.500	1467.104	1256.471
0.556	33.623	1457.992	1247.430
1.571	30.886	1432.585	1207.868
2.586	27.746	1374.381	1139.126
3.600	26.169	1294.581	1063.610
4.615	24.635	1248.920	1017.274
5.629	20.780	1189.774	948.065
6.644	10.555	1100.934	825.416
7.659	2.919	1058.289	755.904
8.673	1.901	1052.770	746.911
9.688	1.766	1049.645	743.965
10.702	1.636	1048.318	742.329
11.717	1.547	1045.865	740.092
12.731	4.739	1050.058	758.570
13.746	14.669	1064.694	817.946
14.761	22.932	1075.249	866.697
15.775	24.859	1076.989	877.478
16.790	25.216	1076.416	878.684
17.804	24.896	1075.747	876.491
18.819	24.709	1074.763	874.701
19.834	24.884	1073.879	874.759
20.848	25.063	1073.825	875.508
21.863	25.089	1073.779	875.522
22.877	25.104	1073.406	875.216
23.892	25.051	1072.409	874.066
24.907	24.950	1071.573	872.813
25.921	24.871	1071.025	871.907
26.936	24.996	1070.157	871.730
27.950	24.949	1068.695	870.236
28.965	24.928	1068.008	869.495
29.980	24.778	1066.226	867.242
30.994	24.879	1065.350	866.943
32.009	24.991	1064.652	866.838
33.023	25.181	1063.628	866.845
34.038	24.889	1062.470	864.415
35.053	24.962	1062.014	864.321
36.067	25.107	1061.340	864.396
37.082	25.070	1060.592	863.528
38.096	24.949	1060.183	862.536
39.111	25.161	1059.307	862.772
40.126	25.369	1058.531	863.062
41.140	25.177	1057.380	861.125
42.155	24.946	1055.682	858.560
43.169	24.517	1054.850	855.752
44.184	24.596	1053.470	854.935
45.199	24.734	1052.410	854.656
46.213	24.524	1051.799	853.083
47.228	24.644	1050.839	852.802
48.242	24.760	1050.250	852.798
49.257	24.973	1049.362	853.017
50.271	24.820	1049.024	851.940
51.286	25.012	1047.703	851.702
52.301	25.006	1047.222	851.209
53.315	25.046	1046.579	850.800
54.330	25.105	1046.031	850.561
55.344	24.959	1045.211	849.129
56.359	25.073	1044.031	848.630
57.374	25.079	1043.265	847.963
58.388	24.766	1042.151	845.501
59.403	24.780	1041.650	845.087
60.417	24.752	1041.083	844.422
61.432	24.557	1040.266	842.762
62.447	24.584	1039.777	842.421
63.461	24.751	1039.265	842.718
64.476	24.677	1038.521	841.693
65.490	24.841	1037.272	841.378
66.505	24.798	1035.751	839.863
67.520	24.510	1035.686	838.385
68.534	24.809	1034.467	838.727
69.549	24.613	1033.902	837.280
70.563	24.415	1032.415	835.071
71.578	24.302	1031.809	833.979
72.593	24.321	1031.211	833.513
73.607	24.292	1029.441	831.873
74.622	24.097	1029.218	830.710
75.636	24.492	1028.204	831.655
76.651	24.655	1027.833	832.043
77.666	24.621	1026.488	830.721
78.680	24.245	1026.327	828.771
79.695	24.392	1025.732	828.901
80.709	24.440	1025.307	828.704
81.724	24.455	1024.450	828.009
82.739	24.607	1023.109	827.556
83.753	24.614	1022.302	826.862
84.768	24.832	1021.891	827.463
85.782	25.271	1021.453	829.064
86.797	25.321	1020.856	828.740
87.812	25.273	1019.737	827.538
88.826	25.128	1018.732	825.977
89.841	25.157	1018.135	825.554
90.855	25.300	1016.948	825.176
91.870	25.233	1016.657	824.561
92.884	25.332	1015.407	823.929
93.899	25.081	1014.566	822.021
94.914	25.075	1013.763	821.272
95.928	25.135	1013.207	821.021
96.943	25.224	1012.120	820.476
97.957	24.922	1010.860	818.004
98.972	24.694	1010.159	816.320
99.987	24.638	1008.657	814.781
101.001	24.598	1008.323	814.258
102.016	24.987	1007.664	815.422
103.030	24.968	1006.962	814.697
104.045	24.897	1005.628	813.224
105.060	24.817	1004.309	811.723
106.074	24.568	1003.361	809.755
107.089	24.545	1002.791	809.118
108.103	24.893	1002.428	810.329
109.118	25.003	1001.519	810.022
110.133	24.679	1000.430	807.604
111.147	24.785	999.423	807.200
112.162	24.643	998.265	805.550
113.176	24.318	997.674	803.541
114.191	24.505	997.289	804.001
115.206	24.671	995.934	803.583
116.220	24.373	994.663	801.151
117.235	24.203	993.374	799.278
118.249	24.436	992.902	799.871
119.264	24.426	992.246	799.228
120.279	24.351	991.532	798.248
121.293	24.306	990.814	797.396
122.308	24.329	990.308	797.022
123.322	24.443	989.058	796.453
124.337	24.333	988.260	795.247
125.352	24.289	986.865	793.860
126.366	23.990	985.253	791.163
127.381	23.486	983.767	787.663
128.395	24.069	983.695	790.125
129.410	24.684	983.720	792.804
130.424	24.952	982.869	793.234
131.439	24.889	981.991	792.176
132.454	24.964	980.619	791.333
133.468	24.727	980.331	789.981
134.483	24.859	979.534	789.851
135.497	24.874	978.712	789.188
136.512	25.118	977.996	789.614
137.527	25.191	977.445	789.420
138.541	25.146	976.821	788.649
139.556	25.096	976.107	787.783
140.570	25.168	975.238	787.329
141.585	25.233	973.984	786.528
142.600	25.289	973.657	786.441
143.614	25.109	972.919	784.990
144.629	25.412	971.788	785.333
145.643	25.495	971.216	785.164
146.658	25.523	969.858	784.115
147.673	25.285	968.802	782.156
148.687	25.030	967.883	780.233
149.702	24.914	966.921	778.886
150.716	24.907	965.786	777.871
151.731	24.917	964.904	777.135
152.746	25.052	964.221	777.104
153.760	25.228	963.581	777.283
154.775	25.265	963.103	776.989
155.789	25.334	962.062	776.378
156.804	25.221	961.290	775.199
157.819	25.255	960.066	774.289
158.833	25.304	959.276	773.793
159.848	25.361	958.493	773.341
160.862	25.449	957.806	773.095
161.877	25.333	956.723	771.654
162.892	25.168	955.789	770.126
163.906	25.343	954.798	770.008
164.921	25.181	954.553	769.049
165.935	25.107	953.353	767.697
166.950	25.246	951.962	767.103
167.964	25.200	951.526	766.485
168.979	25.410	949.994	766.081
169.994	25.096	949.192	764.028
171.008	25.056	948.348	763.111
172.023	25.190	947.707	763.098
173.037	25.352	947.193	763.305
174.052	25.091	945.892	761.080
175.067	24.975	944.775	759.622
176.081	24.951	943.805	758.674
177.096	25.078	943.024	758.517
178.110	25.040	942.126	757.566
179.125	24.903	941.229	756.201
180.140	24.647	940.074	754.123
181.154	24.631	939.202	753.290
182.169	24.691	939.283	753.540
183.183	25.043	938.836	754.599
184.198	25.179	938.650	754.957
185.213	25.073	937.992	753.915
186.227	25.149	937.007	753.374
187.242	25.233	936.700	753.413
188.256	25.326	935.764	752.987
189.271	25.198	935.297	752.006
190.286	25.303	934.434	751.683
191.300	25.224	933.704	750.702
192.315	24.597	932.166	746.777
193.329	23.878	930.211	742.147
194.344	23.363	929.566	739.419
195.359	24.044	929.730	742.323
196.373	24.904	930.096	746.136
197.388	25.149	929.858	746.899
198.402	25.045	929.328	745.974
199.417	25.133	928.618	745.703
200.432	25.166	928.175	745.421
201.446	25.229	927.366	744.966
202.461	24.829	926.297	742.380
203.475	24.762	926.296	742.036
204.490	24.354	924.872	739.140
205.504	23.231	922.380	732.439
206.519	23.656	922.449	734.190
207.534	24.596	923.147	738.566
208.548	24.631	922.171	737.864
209.563	25.100	921.915	739.528
210.577	25.143	921.339	739.181
211.592	24.898	920.232	737.217
212.607	25.249	920.541	738.845
213.621	25.496	919.781	739.186
214.636	25.264	919.442	737.894
215.650	25.423	918.490	737.718
216.665	25.262	917.983	736.584
217.680	25.394	917.517	736.686
218.694	25.438	917.167	736.521
219.709	25.090	916.164	734.224
220.723	24.728	915.116	731.839
221.738	24.912	914.520	732.049
222.753	25.250	914.183	733.097
223.767	25.143	913.301	731.888
224.782	25.175	913.104	731.795
225.796	25.274	912.593	731.726
226.811	25.411	912.081	731.810
227.826	25.075	910.433	729.057
228.840	24.353	909.262	725.119
229.855	24.242	908.407	723.924
230.869	24.373	908.150	724.186
231.884	24.149	907.363	722.584
232.899	24.199	906.580	722.101
233.913	24.899	907.360	725.495
234.928	25.081	906.407	725.408
235.942	24.966	906.074	724.609
236.957	25.043	905.053	724.040
237.972	24.715	904.474	722.190
238.986	24.594	903.780	721.080
240.001	24.745	903.066	721.057
241.015	24.814	902.199	720.578
242.030	24.878	901.589	720.284
243.045	25.120	901.444	721.079
244.059	25.137	900.878	720.631
245.074	25.232	900.324	720.508
246.088	25.266	899.382	719.826
247.103	24.957	898.247	717.615
248.117	24.815	898.218	716.961
249.132	25.422	897.800	718.991
250.147	25.848	898.156	720.920
251.161	25.888	897.045	720.124
252.176	26.016	896.905	720.457
253.190	26.071	896.275	720.108
254.205	26.096	895.860	719.811
255.220	26.200	895.732	720.061
256.234	26.161	895.243	719.445
257.249	26.156	894.295	718.602
258.263	25.941	893.677	717.187
259.278	25.925	892.791	716.349
260.293	25.925	892.740	716.242
261.307	26.163	891.861	716.420
262.322	26.028	891.195	715.285
263.336	26.004	890.397	714.485
264.351	25.509	888.964	711.314
265.366	24.326	887.118	705.101
266.380	24.040	886.336	703.286
267.395	24.869	886.646	706.746
268.409	25.544	887.350	709.912
269.424	25.456	886.376	708.723
270.439	25.657	885.718	708.927
271.453	25.823	885.158	709.069
272.468	25.866	884.806	708.891
273.482	26.011	884.641	709.269
274.497	26.202	884.301	709.681
275.512	25.797	883.071	707.044
276.526	25.414	881.503	704.226
277.541	25.473	881.752	704.591
278.555	25.848	880.879	705.299
279.570	25.742	880.045	704.154
280.585	25.610	879.386	703.048
281.599	25.542	879.217	702.586
282.614	25.775	878.734	703.048
283.628	25.268	877.482	700.007
284.643	24.897	876.821	697.971
285.657	25.272	876.812	699.365
286.672	25.327	875.770	698.686
287.687	24.804	875.033	696.004
288.701	25.114	875.001	697.120
289.716	25.449	874.682	698.107
290.730	25.232	873.828	696.523
291.745	25.051	872.742	694.891
292.760	24.926	871.805	693.600
293.774	24.818	871.333	692.745
294.789	25.793	871.917	696.923
295.803	26.224	871.764	698.406
296.818	26.297	871.507	698.420
297.833	26.311	871.254	698.213
298.847	26.265	869.505	696.571
299.862	25.812	868.872	694.255
300.876	25.953	868.389	694.353
301.891	26.283	868.073	695.307
302.906	26.272	867.786	694.975
303.920	26.102	866.496	693.225
304.935	25.824	866.032	691.726
305.949	26.272	865.539	692.989
306.964	26.570	864.690	693.390
307.979	26.189	864.070	691.373
308.993	26.135	864.132	691.154
310.008	26.346	863.986	691.786
311.022	26.550	863.404	692.038
312.037	26.352	862.740	690.687
313.052	26.187	861.764	689.216
314.066	25.974	861.348	688.010
315.081	25.308	859.729	684.120
316.095	24.597	858.502	680.374
317.110	25.074	858.463	682.098
318.125	25.801	859.062	685.283
319.139	25.442	857.852	682.894
320.154	24.286	856.395	677.284
321.168	23.871	855.231	674.729
322.183	24.556	855.190	677.236
323.197	25.444	855.803	681.026
324.212	25.769	855.540	681.988
325.227	26.064	855.182	682.760
326.241	26.093	854.994	682.661
327.256	26.001	854.356	681.742
328.270	25.907	853.706	680.806
329.285	25.795	852.717	679.534
330.300	25.755	851.781	678.580
331.314	25.353	851.560	676.829
332.329	25.604	850.619	676.964
333.343	25.865	850.375	677.693
334.358	26.239	850.251	678.942
335.373	26.253	849.551	678.372
336.387	26.264	848.825	677.777
337.402	26.583	848.193	678.407
338.416	26.675	848.054	678.579
339.431	26.588	847.421	677.687
340.446	26.608	847.138	677.476
341.460	26.830	846.829	678.000
342.475	26.884	846.046	677.513
343.489	26.556	845.713	675.962
344.504	26.500	845.055	675.169
345.519	26.820	844.870	676.153
346.533	27.075	844.221	676.526
347.548	27.115	843.754	676.238
348.562	27.163	843.132	675.859
349.577	27.059	842.908	675.232
350.592	27.028	841.997	674.330
351.606	26.950	841.665	673.712
352.621	27.045	840.928	673.415
353.635	26.899	840.602	672.555
354.650	26.805	839.912	671.596
355.665	26.555	838.913	669.811
356.679	25.343	837.393	664.059
357.694	25.277	836.666	663.181
358.708	26.138	836.726	666.349
359.723	26.061	836.301	665.668
360.738	26.123	836.323	665.855
361.752	26.476	836.047	666.878
362.767	26.678	835.406	667.053
363.781	26.896	835.843	668.143
364.796	27.113	835.391	668.522
365.810	27.401	834.892	669.123
366.825	27.441	834.764	669.107
367.840	27.379	834.500	668.608
368.854	27.174	834.008	667.404
369.869	26.807	832.919	665.127
370.883	26.513	832.026	663.278
371.898	26.638	831.535	663.284
372.913	26.658	830.722	662.652
373.927	26.699	830.282	662.391
374.942	26.848	829.812	662.502
375.956	27.010	829.080	662.449
376.971	26.988	828.659	661.975
377.986	27.255	828.130	662.468
379.000	27.197	828.079	662.155
380.015	27.363	827.237	662.028
381.029	27.179	826.600	660.789
382.044	27.223	825.801	660.251
383.059	27.306	825.520	660.273
384.073	27.248	825.291	659.821
385.088	27.341	824.543	659.500
386.102	27.367	824.023	659.121
387.117	27.102	823.188	657.436
388.132	26.857	822.722	656.117
389.146	26.814	822.012	655.338
390.161	26.349	820.682	652.544
391.175	26.372	820.528	652.444
392.190	27.007	820.540	654.688
393.205	26.990	819.852	654.020
394.219	26.002	818.573	649.387
395.234	24.421	816.236	641.791
396.248	23.568	814.940	637.652
397.263	24.601	815.919	642.076
398.278	26.499	817.234	649.880
399.292	27.017	817.295	651.731
400.307	26.651	816.693	649.881
401.321	26.476	816.076	648.702
402.336	26.688	815.561	648.998
403.350	26.815	815.819	649.598
404.365	27.286	815.802	651.216
405.380	27.635	815.499	652.164
406.394	27.820	815.406	652.694
407.409	28.128	814.686	653.158
408.423	28.025	814.476	652.567
409.438	27.954	813.540	651.504
410.453	27.894	813.386	651.109
411.467	28.081	812.743	651.204
412.482	28.029	812.029	650.387
413.496	27.900	811.901	649.769
414.511	28.082	811.388	649.950
415.526	27.999	810.825	649.145
416.540	28.141	810.494	649.329
417.555	27.992	810.105	648.429
418.569	27.659	809.397	646.624
419.584	27.553	809.017	645.889
420.599	27.741	808.354	645.968
421.613	107.488	1284.616	1450.103
422.628	92.771	1354.020	1450.248
