DTS Sentinel unit serial number:	SN413079Multiplexer serial number:	ORYXHardware model number:	OX4-SRSoftware version number:	ORYX F/W v4.00 Oryx Data Collector v3.7.2.0data status	okinstallation	princeton_trtdifferential loss correction	single-endedforward channel	channel 3reverse channel	N/Adate	2019/09/14time	09:44:35forward acquisition time	60.00reverse acquisition time	0.00gamma	496.2192k internal	0.2317k external	0.2317temperature offset calibration	1.0054default loss term (dB/km)	0.3790temperature slope calibration	1.0000multiplexer offset coefficient	1.0000multiplexer slope coefficient	1.0000fibre end	0.00T internal ref (°C)	32.19T ext. ref 1 (°C)	3.92T ext. ref 2 (°C)	30.39length (m)	temperature (°C)	Stokes	anti-Stokes-747.200	-18.172	-0.207	0.131
-746.185	368.458	-0.189	0.387
-745.171	23.090	0.259	0.215
-744.156	55.740	-0.123	-0.121
-743.142	-200.000	0.025	-0.315
-742.127	-128.637	-0.356	-0.051
-741.112	-200.000	-0.037	-0.178
-740.098	3.020	0.084	-0.061
-739.083	-68.329	0.316	-0.124
-738.069	-100.047	0.251	-0.063
-737.054	235.140	0.112	-0.187
-736.039	800.000	0.038	-0.140
-735.025	-180.048	0.226	0.005
-734.010	-200.000	-0.051	-0.299
-732.996	-85.950	0.152	0.047
-731.981	443.923	-0.168	0.374
-730.966	-200.000	0.031	-0.356
-729.952	127.719	-0.222	0.285
-728.937	-190.361	-0.304	0.003
-727.923	-136.265	0.378	-0.045
-726.908	-103.141	0.166	0.040
-725.894	-117.393	-0.407	0.075
-724.879	337.509	-0.069	0.135
-723.864	130.330	0.249	-0.323
-722.850	555.001	-0.090	0.220
-721.835	203.875	-0.129	0.201
-720.821	5.920	-0.088	-0.066
-719.806	-122.765	-0.527	0.086
-718.791	113.282	-0.171	-0.209
-717.777	-18.158	-0.408	-0.259
-716.762	-38.930	0.237	-0.126
-715.748	-35.013	0.503	0.277
-714.733	204.989	-0.027	-0.043
-713.718	-114.626	-0.258	0.050
-712.704	-169.500	-0.070	-0.003
-711.689	554.629	0.056	0.137
-710.675	50.363	0.347	0.332
-709.660	388.792	-0.018	0.038
-708.645	-127.976	-0.332	0.048
-707.631	-83.895	0.351	-0.113
-706.616	-127.818	-0.076	-0.011
-705.602	-74.289	0.253	-0.093
-704.587	-200.000	0.021	0.145
-703.572	247.967	0.108	-0.185
-702.558	228.343	-0.131	0.215
-701.543	-200.000	-0.059	-0.491
-700.529	26.849	0.232	-0.196
-699.514	-91.622	0.240	-0.069
-698.499	-21.932	0.087	0.054
-697.485	-55.955	0.315	0.142
-696.470	-98.451	-0.260	-0.067
-695.456	-200.000	0.013	0.159
-694.441	184.882	0.103	0.155
-693.426	-32.247	0.226	-0.127
-692.412	-114.927	0.123	0.024
-691.397	-200.000	0.023	0.111
-690.383	83.431	-0.193	-0.213
-689.368	-200.000	-0.003	-0.316
-688.354	-150.400	-0.337	-0.026
-687.339	16.283	-0.083	-0.066
-686.324	-200.000	0.005	0.337
-685.310	-200.000	-0.003	0.140
-684.295	2.699	-0.106	0.078
-683.281	23.932	-0.205	0.170
-682.266	-106.135	-0.231	0.052
-681.251	195.218	0.112	0.171
-680.237	51.517	-0.208	0.200
-679.222	-170.861	-0.051	-0.002
-678.208	-200.000	0.079	0.433
-677.193	-7.471	0.315	-0.215
-676.178	-55.246	-0.160	-0.072
-675.164	800.000	0.060	-0.170
-674.149	7.713	-0.082	-0.062
-673.135	287.863	-0.109	0.200
-672.120	-76.525	-0.445	-0.158
-671.105	595.272	-0.122	0.305
-670.091	252.923	-0.215	-0.370
-669.076	283.478	-0.066	-0.120
-668.062	34.184	-0.396	-0.348
-667.047	-200.000	-0.017	-0.189
-666.032	-200.000	0.012	0.217
-665.018	122.451	0.207	-0.261
-664.003	-30.468	-0.345	-0.198
-662.989	207.445	0.092	-0.145
-661.974	374.364	0.135	-0.278
-660.959	91.530	0.089	0.101
-659.945	-43.073	0.106	-0.054
-658.930	-120.546	-0.134	0.023
-657.916	145.567	-0.094	-0.127
-656.901	145.618	0.215	0.291
-655.886	-200.000	0.016	-0.103
-654.872	-200.000	-0.071	-0.406
-653.857	-200.000	0.049	-0.264
-652.843	800.000	0.017	-0.051
-651.828	329.074	0.016	0.031
-650.814	34.689	-0.222	0.195
-649.799	523.309	-0.040	-0.095
-648.784	142.562	-0.091	0.122
-647.770	-31.719	-0.286	-0.162
-646.755	-68.097	-0.154	0.061
-645.741	-200.000	-0.010	0.066
-644.726	-125.868	-0.252	-0.038
-643.711	178.647	-0.163	-0.240
-642.697	800.000	-0.032	0.137
-641.682	-200.000	0.015	0.415
-640.668	343.977	0.204	0.404
-639.653	23.673	-0.162	-0.135
-638.638	-200.000	-0.007	-0.108
-637.624	-103.445	0.240	-0.057
-636.609	-113.661	0.158	0.031
-635.595	-120.919	-0.382	0.065
-634.580	209.106	-0.026	-0.041
-633.565	481.162	0.016	0.036
-632.551	-94.497	-0.337	-0.092
-631.536	94.619	-0.159	0.183
-630.522	800.000	-0.073	-0.277
-629.507	61.355	-0.253	-0.253
-628.492	423.613	0.096	-0.208
-627.478	-173.851	0.083	0.002
-626.463	-77.113	0.231	-0.081
-625.449	-134.235	-0.150	0.019
-624.434	367.379	0.121	-0.247
-623.419	-25.881	-0.393	-0.233
-622.405	-60.986	0.401	-0.171
-621.390	96.404	0.117	-0.135
-620.376	-144.544	0.228	-0.021
-619.361	-156.650	-0.155	-0.010
-618.346	-80.440	-0.170	0.057
-617.332	-78.666	-0.191	-0.066
-616.317	800.000	0.054	-0.154
-615.303	-200.000	-0.004	0.133
-614.288	800.000	-0.097	0.347
-613.273	-200.000	-0.011	0.332
-612.259	-200.000	-0.002	0.237
-611.244	-138.685	-0.032	0.004
-610.230	126.913	-0.142	-0.182
-609.215	95.446	-0.109	-0.126
-608.201	-104.434	-0.269	-0.063
-607.186	-149.451	0.126	0.010
-606.171	-44.291	-0.273	-0.138
-605.157	-121.993	-0.132	0.022
-604.142	118.556	-0.228	-0.283
-603.128	561.364	-0.072	-0.174
-602.113	-153.757	-0.307	0.021
-601.098	32.617	-0.089	-0.078
-600.084	-108.225	-0.234	-0.051
-599.069	95.244	0.200	0.230
-598.055	-4.105	-0.150	-0.105
-597.040	-82.485	0.311	-0.102
-596.025	-101.761	-0.126	-0.031
-595.011	345.261	-0.053	0.105
-593.996	-91.546	0.111	0.032
-592.982	200.927	-0.126	0.196
-591.967	-200.000	-0.072	-0.402
-590.952	-47.929	-0.128	-0.062
-589.938	800.000	0.142	-0.575
-588.923	800.000	0.113	0.366
-587.909	-78.706	-0.073	-0.025
-586.894	-200.000	0.006	0.128
-585.879	-181.646	-0.251	-0.005
-584.865	83.799	-0.069	-0.075
-583.850	-73.162	0.124	-0.046
-582.836	-94.407	-0.086	0.024
-581.821	800.000	-0.043	-0.157
-580.806	800.000	0.040	0.127
-579.792	-32.490	-0.243	-0.137
-578.777	-34.616	-0.069	-0.038
-577.763	120.992	-0.272	-0.341
-576.748	800.000	-0.036	-0.126
-575.733	-128.739	-0.442	0.063
-574.719	413.027	-0.146	-0.313
-573.704	127.989	0.144	-0.184
-572.690	-200.000	0.026	-0.123
-571.675	275.455	0.051	0.091
-570.661	800.000	0.044	-0.172
-569.646	-52.786	0.037	0.017
-568.631	-57.215	-0.211	-0.094
-567.617	-200.000	0.055	-0.300
-566.602	-26.519	-0.188	0.111
-565.588	800.000	-0.028	-0.114
-564.573	-98.648	0.331	0.085
-563.558	-96.321	-0.261	-0.069
-562.544	143.226	-0.090	-0.121
-561.529	-67.692	0.096	0.038
-560.515	800.000	-0.008	0.033
-559.500	-78.566	-0.131	0.045
-558.485	144.899	0.152	-0.204
-557.471	37.308	0.082	0.073
-556.456	133.675	0.180	-0.235
-555.442	-200.000	-0.013	-0.217
-554.427	95.390	0.017	0.019
-553.412	-89.846	0.109	-0.032
-552.398	800.000	0.073	0.275
-551.383	42.596	0.163	0.149
-550.369	-61.270	-0.147	-0.062
-549.354	468.462	-0.052	-0.118
-548.339	-23.823	0.283	0.170
-547.325	-171.440	-0.133	0.004
-546.310	-99.263	-0.257	0.065
-545.296	-59.067	-0.178	0.077
-544.281	-200.000	-0.001	0.088
-543.266	-200.000	0.019	0.136
-542.252	187.594	-0.130	-0.195
-541.237	800.000	0.049	-0.167
-540.223	335.616	0.118	0.230
-539.208	-111.727	-0.112	0.023
-538.193	100.744	-0.053	-0.061
-537.179	-10.171	-0.124	0.083
-536.164	157.976	0.037	-0.051
-535.150	800.000	-0.115	0.435
-534.135	658.341	-0.089	0.230
-533.121	-170.223	0.226	-0.008
-532.106	133.379	-0.183	-0.237
-531.091	800.000	0.085	-0.244
-530.077	-103.781	0.127	0.030
-529.062	-200.000	-0.276	0.000
-528.048	223.366	0.094	-0.151
-527.033	614.657	0.036	-0.092
-526.018	-200.000	0.007	-0.243
-525.004	-137.874	0.177	0.020
-523.989	-107.440	-0.071	0.016
-522.975	-14.369	0.154	0.099
-521.960	-71.446	0.370	0.139
-520.945	28.265	-0.086	-0.073
-519.931	543.930	-0.043	-0.103
-518.916	504.658	0.077	0.178
-517.902	-76.760	-0.107	0.038
-516.887	635.315	0.116	0.296
-515.872	62.248	0.262	0.262
-514.858	318.745	-0.087	0.165
-513.843	17.239	0.131	0.105
-512.829	309.347	-0.063	0.118
-511.814	39.678	-0.081	-0.073
-510.799	3.354	-0.174	0.127
-509.785	7.241	0.243	0.182
-508.770	-152.244	-0.107	0.008
-507.756	-64.327	-0.087	0.036
-506.741	59.582	-0.087	0.086
-505.726	6.297	-0.047	0.035
-504.712	-155.722	0.393	-0.025
-503.697	-44.588	-0.154	-0.077
-502.683	-71.817	-0.091	0.034
-501.668	-92.951	0.147	0.041
-500.653	181.115	-0.077	0.113
-499.639	-131.039	0.355	-0.048
-498.624	-109.740	-0.365	0.077
-497.610	800.000	-0.015	-0.054
-496.595	-167.875	-0.086	-0.003
-495.581	-200.000	0.019	-0.272
-494.566	397.650	-0.055	-0.116
-493.551	119.246	-0.320	0.397
-492.537	176.787	-0.101	0.147
-491.522	-159.351	0.144	-0.008
-490.508	-111.503	0.081	-0.016
-489.493	800.000	-0.014	-0.050
-488.478	-129.843	-0.280	-0.039
-487.464	-60.373	-0.111	0.047
-486.449	-200.000	-0.045	0.496
-485.435	-83.003	-0.198	-0.064
-484.420	185.808	-0.014	0.020
-483.405	-200.000	-0.007	-0.102
-482.391	-111.269	0.283	-0.058
-481.376	0.629	-0.373	-0.267
-480.362	321.107	0.135	-0.258
-479.347	208.675	-0.351	-0.551
-478.332	-77.939	0.173	-0.060
-477.318	-200.000	-0.013	-0.139
-476.303	800.000	-0.080	-0.290
-475.289	-114.578	-0.140	0.027
-474.274	243.269	0.056	-0.094
-473.259	-200.000	0.025	0.166
-472.245	-200.000	0.026	-0.148
-471.230	800.000	0.077	-0.335
-470.216	304.088	-0.097	-0.180
-469.201	-160.492	-0.319	-0.017
-468.186	-27.081	-0.139	-0.081
-467.172	-51.679	-0.152	0.071
-466.157	-200.000	-0.021	-0.248
-465.143	-25.434	-0.214	0.127
-464.128	235.946	0.049	0.081
-463.113	-49.899	0.113	-0.053
-462.099	265.245	0.131	-0.229
-461.084	3.438	-0.282	0.206
-460.070	-106.723	-0.186	-0.041
-459.055	-200.000	0.034	0.169
-458.040	489.915	0.036	0.083
-457.026	-18.831	0.152	-0.095
-456.011	-108.908	-0.147	0.031
-454.997	-60.873	0.221	-0.094
-453.982	-29.447	-0.283	0.162
-452.968	-65.874	0.322	-0.129
-451.953	243.392	0.222	-0.373
-450.938	-130.041	-0.219	0.030
-449.924	-200.000	-0.021	0.116
-448.909	251.534	-0.176	0.299
-447.895	-200.000	0.035	-0.261
-446.880	-106.581	0.113	0.025
-445.865	-160.593	-0.103	0.006
-444.851	-48.955	0.291	0.140
-443.836	-78.018	-0.135	-0.047
-442.822	800.000	-0.104	0.354
-441.807	800.000	-0.052	-0.155
-440.792	-30.235	0.393	-0.223
-439.778	348.618	0.159	0.314
-438.763	-199.136	-0.423	-0.002
-437.749	-135.743	-0.103	-0.012
-436.734	-121.098	-0.191	-0.032
-435.719	-38.534	0.297	-0.157
-434.705	-141.322	-0.144	0.015
-433.690	-49.136	-0.181	-0.086
-432.676	-12.815	-0.236	-0.154
-431.661	-65.857	-0.289	-0.115
-430.646	-200.000	-0.006	0.090
-429.632	11.994	-0.178	-0.137
-428.617	-173.153	-0.195	-0.006
-427.603	34.310	0.261	0.228
-426.588	-200.000	0.031	0.261
-425.573	97.806	-0.054	-0.062
-424.559	-40.183	0.191	0.100
-423.544	634.498	-0.114	0.288
-422.530	-24.435	-0.266	0.158
-421.515	-128.230	-0.258	0.037
-420.500	-36.661	0.165	0.089
-419.486	-152.984	0.343	-0.024
-418.471	-40.822	0.113	-0.058
-417.457	-200.000	-0.019	-0.086
-416.442	332.522	-0.039	0.075
-415.428	157.754	-0.132	-0.183
-414.413	800.000	0.047	-0.171
-413.398	39.869	0.313	-0.281
-412.384	-137.517	0.309	-0.035
-411.369	800.000	0.096	0.321
-410.355	130.620	0.105	0.134
-409.340	56.880	-0.114	0.111
-408.325	800.000	0.054	0.196
-407.311	-200.000	-0.017	-0.239
-406.296	100.585	0.096	-0.112
-405.282	118.976	-0.051	0.063
-404.267	-200.000	-0.032	-0.153
-403.252	-151.135	0.178	0.013
-402.238	126.227	0.093	0.118
-401.223	-200.000	-0.015	0.148
-400.209	-200.000	-0.019	0.150
-399.194	-165.965	0.274	-0.012
-398.179	62.998	0.212	-0.212
-397.165	-65.407	0.080	0.032
-396.150	800.000	-0.143	-0.490
-395.136	393.466	0.009	0.019
-394.121	83.998	0.143	0.156
-393.106	-200.000	-0.021	-0.100
-392.092	800.000	-0.056	-0.209
-391.077	800.000	-0.076	-0.209
-390.063	365.082	0.090	0.180
-389.048	-12.176	0.161	0.105
-388.033	-1.352	-0.137	0.097
-387.019	-2.585	0.144	-0.101
-386.004	81.534	-0.069	-0.075
-384.990	171.539	0.058	-0.083
-383.975	60.274	0.077	0.076
-382.960	93.453	0.176	-0.199
-381.946	236.524	-0.057	-0.095
-380.931	140.455	-0.127	-0.167
-379.917	687.101	-0.052	-0.135
-378.902	-169.566	0.187	-0.007
-377.888	800.000	0.038	-0.111
-376.873	239.585	0.017	0.029
-375.858	-42.078	0.273	0.139
-374.844	-140.919	0.055	0.006
-373.829	227.041	-0.200	-0.325
-372.815	289.269	0.142	-0.257
-371.800	-136.066	0.631	0.074
-370.785	380.522	0.085	-0.174
-369.771	-64.623	-0.153	-0.062
-368.756	-200.000	-0.047	-0.251
-367.742	-37.846	-0.113	-0.060
-366.727	360.487	0.205	0.409
-365.712	169.338	-0.035	-0.051
-364.698	-86.240	-0.129	0.040
-363.683	390.588	0.045	-0.093
-362.669	-42.788	0.195	0.099
-361.654	216.604	0.106	0.168
-360.639	-1.671	-0.173	0.121
-359.625	156.993	0.212	-0.292
-358.610	800.000	0.162	-0.544
-357.596	189.456	0.082	-0.123
-356.581	-142.750	-0.417	-0.041
-355.566	471.635	0.045	0.102
-354.552	354.110	0.126	0.249
-353.537	119.083	-0.158	0.195
-352.523	-52.104	-0.130	0.060
-351.508	800.000	0.119	-0.457
-350.493	-200.000	-0.045	0.234
-349.479	-123.231	-0.086	0.014
-348.464	800.000	0.047	0.184
-347.450	217.412	0.138	-0.219
-346.435	-200.000	0.002	-0.060
-345.420	24.752	0.099	0.082
-344.406	-50.290	0.077	-0.036
-343.391	28.637	0.170	-0.143
-342.377	20.003	0.079	-0.064
-341.362	800.000	0.038	0.107
-340.348	-126.792	-0.157	-0.023
-339.333	20.433	0.271	0.218
-338.318	-200.000	0.008	-0.217
-337.304	74.055	-0.153	-0.161
-336.289	235.149	0.060	-0.099
-335.275	-189.071	-0.240	-0.003
-334.260	-200.000	-0.044	0.231
-333.245	-200.000	-0.026	0.257
-332.231	-62.535	0.279	0.116
-331.216	-37.090	0.358	-0.191
-330.202	-102.589	-0.077	0.018
-329.187	-48.632	0.146	0.070
-328.172	95.836	-0.200	-0.228
-327.158	-200.000	0.009	-0.078
-326.143	397.870	-0.089	-0.186
-325.129	9.390	0.021	-0.016
-324.114	-118.037	0.182	-0.032
-323.099	119.178	0.065	0.080
-322.085	276.745	0.143	0.253
-321.070	-200.000	0.021	0.116
-320.056	-200.000	0.079	0.360
-319.041	800.000	0.106	0.374
-318.026	-119.503	-0.094	-0.016
-317.012	-166.417	-0.244	0.010
-315.997	-59.870	-0.139	0.059
-314.983	13.517	0.179	0.138
-313.968	800.000	-0.068	0.271
-312.953	214.044	0.110	-0.173
-311.939	-138.160	0.040	0.004
-310.924	-28.103	0.120	0.069
-309.910	573.843	-0.112	-0.273
-308.895	-90.437	-0.236	-0.068
-307.880	-200.000	0.074	0.000
-306.866	2.728	-0.288	0.208
-305.851	-200.000	0.015	0.166
-304.837	-159.225	0.164	0.009
-303.822	800.000	0.131	0.402
-302.807	-89.067	0.229	-0.067
-301.793	-33.341	-0.495	0.273
-300.778	626.501	0.089	0.223
-299.764	-62.785	0.471	-0.194
-298.749	800.000	0.098	0.294
-297.735	-200.000	-0.014	0.182
-296.720	-17.514	-0.363	0.227
-295.705	800.000	0.120	-0.389
-294.691	-128.795	0.395	-0.055
-293.676	-106.071	-0.118	-0.026
-292.662	127.906	-0.200	0.253
-291.647	155.451	0.077	-0.105
-290.632	-176.567	0.323	0.008
-289.618	8.081	-0.124	0.093
-288.603	-40.761	-0.383	0.197
-287.589	-89.254	-0.255	0.075
-286.574	-30.117	0.305	-0.172
-285.559	128.717	0.112	-0.142
-284.545	664.777	0.187	0.481
-283.530	-123.382	-0.239	-0.038
-282.516	-63.570	0.224	-0.092
-281.501	16.464	0.105	0.083
-280.486	-149.528	0.576	-0.045
-279.472	800.000	-0.069	0.200
-278.457	195.346	0.113	0.171
-277.443	-200.000	0.012	0.057
-276.428	-114.550	0.014	-0.003
-275.413	195.603	-0.057	-0.086
-274.399	-117.600	-0.051	-0.009
-273.384	77.033	-0.161	0.170
-272.370	72.144	0.164	0.170
-271.355	-186.530	-0.282	-0.004
-270.340	-114.098	0.168	-0.032
-269.326	229.703	0.095	0.154
-268.311	-54.872	0.169	-0.076
-267.297	-144.126	0.241	-0.022
-266.282	-200.000	-0.024	0.178
-265.267	-200.000	-0.004	-0.127
-264.253	688.282	0.162	-0.421
-263.238	3.310	-0.348	-0.252
-262.224	-5.407	-0.368	-0.251
-261.209	211.240	-0.129	0.201
-260.195	14.625	-0.236	-0.183
-259.180	-91.437	0.411	-0.117
-258.165	132.209	-0.237	0.304
-257.151	-200.000	0.082	0.587
-256.136	-65.205	-0.250	-0.100
-255.122	-81.636	-0.201	0.066
-254.107	17.298	-0.185	-0.146
-253.092	97.699	0.202	-0.231
-252.078	-12.693	-0.108	0.070
-251.063	638.036	-0.062	0.156
-250.049	-200.000	-0.051	-0.266
-249.034	-81.204	-0.075	0.025
-248.019	80.113	0.292	0.311
-247.005	-200.000	0.040	0.211
-245.990	800.000	0.077	-0.256
-244.976	-22.117	0.096	0.058
-243.961	-111.612	-0.046	0.009
-242.946	112.429	0.257	-0.309
-241.932	-200.000	0.043	-0.240
-240.917	800.000	0.056	0.210
-239.903	132.971	-0.114	0.146
-238.888	267.258	0.121	0.210
-237.873	331.524	0.075	0.144
-236.859	222.496	-0.225	0.360
-235.844	-200.000	-0.052	0.348
-234.830	-96.506	0.206	0.054
-233.815	-200.000	-0.043	0.257
-232.800	109.810	0.354	-0.421
-231.786	11.534	-0.076	-0.058
-230.771	-49.371	0.190	-0.090
-229.757	-109.437	0.122	-0.026
-228.742	114.917	-0.199	0.240
-227.727	172.584	0.147	-0.211
-226.713	126.559	0.177	0.223
-225.698	10.729	-0.031	0.024
-224.684	768.803	-0.045	-0.122
-223.669	-136.870	-0.154	-0.018
-222.655	-85.600	0.330	0.102
-221.640	-132.738	-0.244	-0.031
-220.625	339.725	-0.162	-0.314
-219.611	330.766	-0.129	0.247
-218.596	-91.898	0.221	-0.062
-217.582	-144.210	0.137	-0.013
-216.567	85.239	0.126	-0.138
-215.552	152.215	0.245	-0.332
-214.538	-200.000	0.042	0.222
-213.523	598.428	-0.095	-0.232
-212.509	254.242	-0.045	-0.077
-211.494	-37.653	-0.255	0.135
-210.479	256.903	-0.129	0.219
-209.465	800.000	0.021	0.089
-208.450	-26.781	0.103	0.060
-207.436	-154.294	-0.170	0.011
-206.421	-122.728	0.134	0.022
-205.406	709.987	-0.016	0.042
-204.392	51.982	0.217	0.205
-203.377	-200.000	0.010	-0.139
-202.363	-200.000	-0.011	0.167
-201.348	19.016	0.196	0.156
-200.333	-159.745	0.106	-0.006
-199.319	229.764	-0.195	-0.317
-198.304	-200.000	0.002	0.014
-197.290	-42.367	0.097	-0.049
-196.275	-81.859	-0.177	-0.057
-195.260	48.555	0.106	-0.098
-194.246	52.467	0.137	-0.129
-193.231	114.743	-0.208	-0.251
-192.217	-200.000	-0.001	-0.148
-191.202	46.954	0.156	-0.144
-190.187	575.852	-0.036	0.087
-189.173	-30.115	0.262	-0.148
-188.158	-116.054	0.117	-0.022
-187.144	800.000	0.041	0.121
-186.129	412.188	-0.081	-0.171
-185.114	76.539	-0.100	0.105
-184.100	-200.000	0.092	0.629
-183.085	259.530	-0.181	-0.310
-182.071	123.963	0.103	-0.128
-181.056	-78.158	-0.136	-0.046
-180.042	800.000	0.091	-0.288
-179.027	189.056	0.083	0.123
-178.012	-200.000	-0.008	0.141
-176.998	-101.379	0.151	-0.036
-175.983	-147.759	-0.154	0.013
-174.969	51.797	0.240	0.226
-173.954	71.918	-0.177	0.182
-172.939	800.000	-0.049	-0.188
-171.925	-165.079	0.371	-0.016
-170.910	-40.721	0.327	0.168
-169.896	234.601	0.223	0.364
-168.881	-200.000	0.073	0.365
-167.866	36.101	0.278	0.243
-166.852	-200.000	-0.017	0.214
-165.837	-165.406	0.126	-0.005
-164.823	375.619	-0.108	-0.217
-163.808	800.000	0.030	-0.128
-162.793	800.000	0.029	0.089
-161.779	-200.000	-0.079	0.458
-160.764	257.030	-0.032	0.055
-159.750	176.766	-0.098	-0.141
-158.735	27.526	-0.312	-0.260
-157.720	-73.472	0.212	0.077
-156.706	164.590	-0.042	0.058
-155.691	777.389	-0.033	-0.090
-154.677	65.720	-0.222	0.222
-153.662	-200.000	0.088	0.417
-152.647	-178.286	0.344	0.008
-151.633	-16.593	0.055	0.035
-150.618	190.671	-0.105	-0.156
-149.604	65.851	0.129	0.129
-148.589	-195.749	0.194	-0.001
-147.574	-122.890	-0.176	-0.028
-146.560	-88.880	-0.187	-0.055
-145.545	77.612	-0.309	0.326
-144.531	192.615	0.099	0.148
-143.516	-5.619	-0.151	-0.102
-142.502	800.000	0.115	0.344
-141.487	111.234	-0.210	0.250
-140.472	800.000	-0.081	-0.304
-139.458	36.745	-0.010	0.008
-138.443	-200.000	0.019	-0.195
-137.429	473.371	0.147	0.328
-136.414	-200.000	0.057	0.372
-135.399	-69.403	-0.266	0.101
-134.385	-90.778	-0.214	0.061
-133.370	-42.777	0.347	-0.175
-132.356	241.034	0.221	-0.364
-131.341	-20.694	-0.108	0.065
-130.326	167.033	-0.090	-0.127
-129.312	37.454	-0.088	-0.077
-128.297	50.328	-0.022	-0.020
-127.283	-34.621	0.034	0.018
-126.268	-116.098	-0.024	-0.005
-125.253	82.523	-0.050	-0.053
-124.239	209.964	0.086	0.133
-123.224	11.018	-0.191	0.144
-122.210	-93.014	0.646	-0.178
-121.195	31.183	0.206	0.175
-120.180	-200.000	-0.014	-0.081
-119.166	-143.157	-0.204	0.019
-118.151	-58.286	-0.264	-0.114
-117.137	421.134	0.198	0.419
-116.122	-126.257	-0.358	-0.053
-115.107	131.097	-0.066	0.083
-114.093	-70.222	-0.360	-0.135
-113.078	-139.550	0.258	0.027
-112.064	-134.615	0.347	-0.042
-111.049	800.000	-0.043	0.163
-110.034	81.680	0.248	-0.265
-109.020	205.411	0.076	0.117
-108.005	-95.241	0.108	0.029
-106.991	-120.514	0.390	0.065
-105.976	-26.644	-0.566	0.327
-104.962	46.012	-0.111	-0.102
-103.947	466.236	-0.047	-0.103
-102.932	-124.848	0.220	0.034
-101.918	-110.253	-0.082	-0.017
-100.903	-50.408	0.191	-0.089
-99.889	-52.021	0.321	0.147
-98.874	-77.953	-0.329	-0.112
-97.859	42.388	-0.054	0.048
-96.845	-149.877	-0.146	-0.011
-95.830	-200.000	-0.096	0.449
-94.816	-33.067	0.252	0.138
-93.801	72.755	-0.053	0.054
-92.786	617.956	0.044	0.109
-91.772	-62.309	0.400	0.164
-90.757	-30.039	-0.285	0.160
-89.743	-87.165	-0.236	0.071
-88.728	-200.000	0.295	0.001
-87.713	-53.827	-0.016	0.007
-86.699	-200.000	0.042	-0.277
-85.684	-200.000	0.014	0.088
-84.670	-48.688	0.098	0.046
-83.655	-200.000	-0.028	0.181
-82.640	643.252	0.143	0.359
-81.626	398.868	-0.065	0.134
-80.611	-200.000	0.020	0.511
-79.597	-142.403	-0.098	-0.010
-78.582	363.499	0.020	-0.040
-77.567	-103.585	0.221	0.051
-76.553	16.802	0.083	-0.065
-75.538	-59.042	-0.197	0.084
-74.524	-61.765	0.243	-0.100
-73.509	-25.448	0.088	-0.051
-72.494	238.273	0.117	-0.192
-71.480	-200.000	0.046	-0.327
-70.465	78.578	-0.043	-0.045
-69.451	-200.000	0.004	-0.063
-68.436	439.988	0.082	-0.177
-67.422	-89.453	-0.293	-0.085
-66.407	252.247	-0.094	-0.158
-65.392	32.171	0.233	0.198
-64.378	-200.000	-0.065	-0.332
-63.363	-12.481	-0.171	0.110
-62.349	-85.269	-0.302	0.093
-61.334	-12.018	-0.899	-0.581
-60.319	-38.225	0.368	0.192
-59.305	421.440	-0.394	-0.834
-58.290	51.474	0.963	0.902
-57.276	800.000	0.472	1.330
-56.261	-200.000	97.255	584.551
-55.246	591.762	1434.515	3490.524
-54.232	183.342	2635.383	3837.837
-53.217	117.390	2212.223	2681.206
-52.203	42.968	1740.490	1564.032
-51.188	35.420	1550.572	1340.829
-50.173	33.024	1523.587	1300.968
-49.159	53.120	1572.597	1483.716
-48.144	54.379	1589.995	1508.871
-47.130	35.731	1549.423	1341.795
-46.115	32.490	1534.416	1306.302
-45.100	32.326	1531.616	1302.729
-44.086	32.320	1529.502	1300.838
-43.071	32.238	1527.625	1298.619
-42.057	32.197	1526.232	1297.106
-41.042	32.252	1524.560	1296.008
-40.027	32.256	1523.152	1294.790
-39.013	32.193	1521.428	1292.837
-37.998	32.148	1520.606	1291.776
-36.984	32.215	1519.214	1291.007
-35.969	32.233	1517.999	1290.048
-34.954	32.212	1516.593	1288.657
-33.940	32.287	1514.872	1287.655
-32.925	32.269	1513.345	1286.181
-31.911	32.209	1512.335	1284.865
-30.896	32.246	1510.884	1283.830
-29.881	32.249	1509.540	1282.660
-28.867	32.254	1508.264	1281.561
-27.852	32.177	1506.891	1279.820
-26.838	32.287	1504.683	1278.637
-25.823	32.238	1503.884	1277.577
-24.809	32.253	1502.055	1276.076
-23.794	32.153	1500.455	1273.985
-22.779	32.271	1498.973	1273.480
-21.765	32.215	1498.470	1272.616
-20.750	32.272	1496.930	1271.646
-19.736	32.288	1495.546	1270.528
-18.721	32.133	1495.005	1268.970
-17.706	32.203	1493.430	1268.057
-16.692	32.048	1493.037	1266.628
-15.677	32.181	1491.482	1266.153
-14.663	32.242	1490.187	1265.418
-13.648	32.162	1489.730	1264.436
-12.633	32.091	1488.965	1263.263
-11.619	32.101	1487.724	1262.229
-10.604	32.247	1486.672	1262.266
-9.590	32.050	1486.364	1260.629
-8.575	32.185	1484.576	1259.969
-7.560	32.083	1483.855	1258.624
-6.546	32.112	1483.159	1258.173
-5.531	32.091	1482.282	1257.242
-4.517	32.132	1481.389	1256.705
-3.502	32.108	1480.268	1255.551
-2.487	32.257	1478.874	1255.309
-1.473	32.126	1477.896	1253.557
-0.458	32.047	1477.232	1252.414
0.556	32.721	1468.270	1244.395
1.571	30.689	1442.719	1209.440
2.586	27.763	1382.262	1140.398
3.600	26.152	1299.488	1062.543
4.615	24.250	1253.295	1013.872
5.629	20.294	1194.366	944.629
6.644	11.482	1107.213	830.956
7.659	4.948	1066.121	767.939
8.673	3.904	1060.463	758.678
9.688	3.907	1057.663	756.620
10.702	3.897	1056.120	755.404
11.717	3.972	1053.914	754.122
12.731	6.377	1056.835	767.883
13.746	14.541	1068.625	816.494
14.761	20.029	1075.266	848.453
15.775	19.909	1073.902	846.718
16.790	19.154	1071.913	841.387
17.804	18.251	1069.272	834.834
18.819	17.186	1067.625	828.284
19.834	16.775	1066.213	825.117
20.848	16.528	1065.387	823.200
21.863	16.330	1064.896	821.787
22.877	16.085	1064.188	819.975
23.892	15.877	1063.539	818.388
24.907	15.977	1062.385	817.914
25.921	15.879	1061.385	816.598
26.936	15.897	1060.823	816.182
27.950	15.946	1060.009	815.718
28.965	15.864	1058.760	814.289
29.980	15.977	1057.894	814.098
30.994	16.057	1056.195	813.103
32.009	16.064	1055.912	812.848
33.023	16.266	1054.780	812.878
34.038	16.157	1053.956	811.644
35.053	16.207	1053.146	811.190
36.067	16.085	1051.951	809.614
37.082	15.956	1051.102	808.269
38.096	16.004	1050.737	808.147
39.111	16.048	1050.021	807.734
40.126	16.125	1049.184	807.390
41.140	16.006	1048.101	805.915
42.155	15.754	1047.110	803.878
43.169	15.695	1045.970	802.648
44.184	15.774	1044.296	801.670
45.199	15.748	1043.528	800.885
46.213	15.859	1042.536	800.580
47.228	15.863	1041.380	799.641
48.242	15.925	1040.532	799.213
49.257	16.112	1039.969	799.596
50.271	16.025	1038.913	798.302
51.286	16.033	1037.978	797.552
52.301	16.012	1037.198	796.781
53.315	15.951	1036.532	795.913
54.330	15.993	1035.531	795.270
55.344	15.858	1034.807	794.008
56.359	15.856	1033.820	793.173
57.374	15.791	1032.985	792.156
58.388	15.843	1032.250	791.765
59.403	15.742	1030.987	790.252
60.417	15.718	1030.439	789.650
61.432	15.681	1029.865	788.966
62.447	15.678	1029.465	788.578
63.461	15.806	1028.029	788.007
64.476	15.624	1026.967	786.273
65.490	15.508	1026.529	785.324
66.505	15.625	1025.143	784.738
67.520	15.678	1024.424	784.370
68.534	15.628	1023.762	783.559
69.549	15.623	1023.388	783.178
70.563	15.714	1022.531	782.879
71.578	15.763	1021.376	782.150
72.593	15.601	1020.466	780.635
73.607	15.551	1019.616	779.683
74.622	15.487	1019.090	778.915
75.636	15.386	1018.210	777.702
76.651	15.574	1016.972	777.561
77.666	15.526	1016.364	776.806
78.680	15.458	1015.820	776.004
79.695	15.513	1015.269	775.769
80.709	15.652	1014.571	775.808
81.724	15.584	1013.893	774.911
82.739	15.746	1012.898	774.827
83.753	15.721	1012.242	774.142
84.768	15.938	1011.427	774.449
85.782	16.073	1010.869	774.569
86.797	16.163	1009.952	774.213
87.812	16.155	1009.274	773.589
88.826	16.024	1008.153	772.062
89.841	15.913	1007.606	771.066
90.855	15.971	1006.870	770.699
91.870	16.150	1005.623	770.495
92.884	16.187	1005.305	770.354
93.899	16.111	1004.293	769.161
94.914	16.028	1004.140	768.598
95.928	16.144	1003.117	768.276
96.943	16.190	1002.300	767.789
97.957	16.135	1001.180	766.615
98.972	16.107	1000.512	765.908
99.987	16.042	999.925	765.097
101.001	16.182	998.725	764.744
102.016	16.137	998.057	763.963
103.030	16.120	997.462	763.360
104.045	16.135	996.286	762.460
105.060	16.033	995.442	761.290
106.074	16.089	994.317	760.613
107.089	15.896	993.408	758.979
108.103	15.786	992.369	757.627
109.118	15.811	991.661	757.129
110.133	15.737	990.421	755.781
111.147	15.747	989.495	755.052
112.162	15.653	989.088	754.255
113.176	15.678	988.245	753.659
114.191	15.705	987.253	752.956
115.206	15.739	986.697	752.614
116.220	15.826	985.890	752.323
117.235	15.906	984.671	751.683
118.249	15.761	984.196	750.609
119.264	15.916	982.835	750.196
120.279	15.727	982.028	748.671
121.293	15.643	981.368	747.728
122.308	15.707	980.636	747.388
123.322	15.666	979.667	746.401
124.337	15.671	978.860	745.742
125.352	15.410	978.085	743.928
126.366	15.580	976.477	743.391
127.381	15.564	975.677	742.648
128.395	15.699	974.007	741.907
129.410	15.592	973.475	740.962
130.424	15.663	972.681	740.606
131.439	15.562	972.355	739.849
132.454	15.769	971.616	740.132
133.468	15.848	970.723	739.733
134.483	15.784	970.431	739.164
135.497	15.999	968.701	738.721
136.512	15.823	968.568	737.785
137.527	15.873	968.134	737.608
138.541	15.632	967.615	736.092
139.556	15.830	966.703	736.198
140.570	15.844	965.646	735.390
141.585	15.893	965.141	735.152
142.600	15.959	964.522	734.906
143.614	16.148	963.536	734.914
144.629	16.169	962.706	734.306
145.643	16.155	961.859	733.535
146.658	16.174	961.201	733.050
147.673	16.062	959.989	731.573
148.687	16.006	959.062	730.559
149.702	15.867	958.328	729.336
150.716	15.800	957.685	728.490
151.731	15.835	956.518	727.689
152.746	15.868	955.720	727.160
153.760	15.914	955.026	726.769
154.775	15.903	954.456	726.222
155.789	16.062	953.750	726.308
156.804	16.117	952.725	725.699
157.819	15.956	952.188	724.533
158.833	15.879	951.929	723.940
159.848	16.253	951.080	724.835
160.862	16.132	950.803	724.041
161.877	16.169	949.569	723.195
162.892	16.010	948.731	721.815
163.906	16.053	947.412	720.930
164.921	15.891	946.576	719.536
165.935	15.956	945.949	719.273
166.950	15.940	944.851	718.307
167.964	16.010	943.766	717.719
168.979	16.058	943.121	717.368
169.994	16.084	941.886	716.477
171.008	16.001	941.289	715.606
172.023	16.036	940.624	715.187
173.037	16.203	939.683	715.113
174.052	16.268	938.913	714.739
175.067	16.086	938.886	713.885
176.081	16.069	937.723	712.866
177.096	15.993	937.033	711.960
178.110	16.052	935.888	711.274
179.125	16.061	935.132	710.677
180.140	16.167	934.224	710.370
181.154	16.041	933.333	709.098
182.169	16.322	932.999	709.965
183.183	16.288	932.786	709.597
184.198	16.429	931.634	709.249
185.213	16.234	931.528	708.287
186.227	16.328	930.697	707.985
187.242	16.372	930.174	707.711
188.256	16.493	928.960	707.227
189.271	16.466	929.126	707.180
190.286	16.534	928.238	706.728
191.300	16.254	927.638	705.038
192.315	16.015	926.584	703.178
193.329	15.893	925.509	701.791
194.344	15.796	925.140	701.046
195.359	16.124	924.291	701.702
196.373	16.053	923.980	701.110
197.388	16.261	923.534	701.575
198.402	16.320	923.296	701.576
199.417	16.610	922.476	702.093
200.432	16.576	922.059	701.574
201.446	16.729	921.865	701.997
202.461	16.831	921.385	701.994
203.475	16.893	920.836	701.771
204.490	16.666	920.225	700.305
205.504	16.568	919.148	699.017
206.519	16.458	918.997	698.385
207.534	16.509	917.577	697.456
208.548	16.433	916.939	696.594
209.563	16.467	916.139	696.065
210.577	16.594	915.193	695.808
211.592	16.472	915.205	695.254
212.607	16.754	914.548	695.850
213.621	16.677	914.216	695.223
214.636	16.765	913.031	694.619
215.650	16.635	912.584	693.684
216.665	16.635	911.996	693.179
217.680	16.797	911.937	693.734
218.694	16.763	911.319	693.066
219.709	16.959	910.525	693.198
220.723	17.081	909.354	692.745
221.738	16.821	908.773	691.181
222.753	16.876	908.231	690.932
223.767	16.836	907.468	690.128
224.782	16.693	907.022	689.146
225.796	16.926	906.386	689.550
226.811	16.937	905.373	688.760
227.826	16.976	904.761	688.391
228.840	17.011	903.832	687.768
229.855	16.679	903.580	686.168
230.869	16.821	902.837	686.121
231.884	16.902	902.182	685.889
232.899	16.764	901.602	684.827
233.913	16.669	900.783	683.761
234.928	16.912	899.538	683.737
235.942	16.664	899.515	682.658
236.957	16.554	898.814	681.621
237.972	16.548	898.079	680.981
238.986	16.789	896.912	681.006
240.001	16.678	896.654	680.305
241.015	16.709	895.946	679.830
242.030	16.806	894.945	679.400
243.045	16.863	894.215	679.014
244.059	16.874	893.976	678.815
245.074	16.964	893.326	678.622
246.088	16.952	892.778	678.097
247.103	17.081	891.950	677.924
248.117	17.059	891.569	677.488
249.132	17.209	890.769	677.417
250.147	17.212	890.726	677.338
251.161	17.557	889.749	677.906
252.176	17.342	889.347	676.686
253.190	17.356	888.705	676.194
254.205	17.513	888.141	676.326
255.220	17.644	887.375	676.205
256.234	17.641	886.658	675.587
257.249	17.568	885.766	674.559
258.263	17.450	885.417	673.765
259.278	17.530	884.894	673.624
260.293	17.545	884.616	673.412
261.307	17.695	883.894	673.395
262.322	17.638	883.420	672.750
263.336	17.667	882.937	672.435
264.351	17.671	882.281	671.895
265.366	17.745	881.532	671.553
266.380	17.682	880.841	670.722
267.395	17.748	880.145	670.389
268.409	17.658	879.614	669.575
269.424	17.713	878.316	668.744
270.439	17.775	877.728	668.476
271.453	17.753	876.635	667.501
272.468	17.600	876.265	666.562
273.482	17.560	875.593	665.836
274.497	17.659	875.104	665.792
275.512	17.668	874.357	665.201
276.526	17.548	873.531	664.043
277.541	17.550	873.168	663.717
278.555	17.513	872.926	663.330
279.570	17.660	872.164	663.266
280.585	17.831	871.651	663.479
281.599	17.863	870.864	662.946
282.614	17.842	870.470	662.508
283.628	17.742	869.804	661.552
284.643	17.725	869.172	660.949
285.657	17.772	868.934	660.891
286.672	17.783	868.305	660.396
287.687	17.820	867.562	659.917
288.701	17.825	867.361	659.725
289.716	17.763	866.743	658.955
290.730	17.760	866.028	658.342
291.745	17.864	865.085	657.968
292.760	17.983	864.701	658.078
293.774	17.994	863.820	657.391
294.789	17.933	863.880	657.142
295.803	18.016	863.105	656.813
296.818	18.057	862.017	656.086
297.833	17.782	861.470	654.556
298.847	17.848	861.315	654.634
299.862	17.860	860.314	653.863
300.876	17.873	859.531	653.257
301.891	18.049	859.059	653.517
302.906	18.032	858.588	653.032
303.920	18.125	858.011	652.891
304.935	18.157	857.600	652.645
305.949	18.363	856.670	652.665
306.964	18.306	856.036	651.907
307.979	18.192	855.599	651.080
308.993	18.251	854.901	650.716
310.008	18.351	854.464	650.708
311.022	18.222	854.063	649.854
312.037	18.371	852.978	649.536
313.052	18.278	852.626	648.858
314.066	18.009	852.302	647.536
315.081	18.089	851.590	647.241
316.095	17.933	851.008	646.148
317.110	18.025	850.578	646.111
318.125	18.076	849.583	645.493
319.139	18.013	849.460	645.103
320.154	17.940	848.817	644.283
321.168	18.030	848.182	644.086
322.183	18.197	847.390	644.056
323.197	18.035	847.195	643.241
324.212	18.292	846.508	643.629
325.227	18.272	846.158	643.228
326.241	18.335	845.536	642.935
327.256	18.246	844.888	642.052
328.270	18.116	844.666	641.340
329.285	18.188	843.562	640.715
330.300	18.175	843.009	640.188
331.314	18.199	842.274	639.663
332.329	18.287	841.914	639.663
333.343	18.228	841.475	639.050
334.358	18.326	841.093	639.071
335.373	18.380	840.613	638.850
336.387	18.459	839.814	638.483
337.402	18.381	839.429	637.841
338.416	18.443	838.803	637.540
339.431	18.456	838.740	637.484
340.446	18.645	837.817	637.430
341.460	18.772	836.698	636.991
342.475	18.670	836.942	636.743
343.489	18.735	836.531	636.615
344.504	18.939	835.296	636.376
345.519	18.837	834.933	635.664
346.533	18.920	834.331	635.458
347.548	18.941	833.692	634.992
348.562	18.831	833.099	634.075
349.577	18.683	833.071	633.453
350.592	18.461	832.493	632.141
351.606	18.592	831.572	631.865
352.621	18.518	831.305	631.336
353.635	18.637	830.728	631.278
354.650	18.557	830.576	630.815
355.665	18.620	830.138	630.658
356.679	18.855	829.498	630.979
357.694	18.743	829.199	630.282
358.708	18.799	828.492	629.896
359.723	18.799	828.135	629.569
360.738	18.799	827.706	629.185
361.752	18.792	827.068	628.622
362.767	18.760	826.854	628.285
363.781	18.902	826.575	628.535
364.796	18.861	826.233	628.071
365.810	18.949	825.413	627.715
366.825	19.067	825.148	627.888
367.840	19.139	825.236	628.162
368.854	19.316	824.151	627.924
369.869	19.099	823.754	626.775
370.883	19.134	823.114	626.362
371.898	19.222	822.333	626.033
372.913	19.134	821.583	625.084
373.927	19.152	821.626	625.129
374.942	19.203	820.623	624.496
375.956	19.242	819.935	624.058
376.971	19.279	819.239	623.607
377.986	19.222	818.847	623.046
379.000	19.306	818.849	623.296
380.015	19.491	818.121	623.357
381.029	19.499	817.591	622.925
382.044	19.301	817.214	621.870
383.059	19.435	816.564	621.801
384.073	19.333	816.029	620.971
385.088	19.348	815.567	620.618
386.102	19.434	814.317	619.923
387.117	19.236	813.965	618.889
388.132	19.168	813.822	618.480
389.146	19.268	813.277	618.372
390.161	19.205	812.909	617.809
391.175	19.434	812.571	618.319
392.190	19.508	811.679	617.852
393.205	19.453	811.878	617.751
394.219	19.353	811.224	616.841
395.234	19.305	810.717	616.229
396.248	19.343	810.283	615.981
397.263	19.172	810.040	615.132
398.278	19.123	809.265	614.312
399.292	19.190	808.718	614.083
400.307	18.999	808.566	613.230
401.321	19.067	808.288	613.207
402.336	19.232	807.575	613.200
403.350	19.260	807.245	612.997
404.365	19.302	806.628	612.621
405.380	19.479	805.878	612.629
406.394	19.532	805.626	612.569
407.409	19.710	804.985	612.660
408.423	19.688	805.235	612.717
409.438	19.773	804.249	612.212
410.453	19.817	803.719	611.912
411.467	19.726	803.707	611.526
412.482	19.832	803.399	611.613
413.496	19.852	802.601	611.022
414.511	19.965	802.260	611.107
415.526	19.877	802.098	610.620
416.540	19.843	801.595	610.063
417.555	19.860	801.188	609.756
418.569	19.848	800.869	609.419
419.584	19.965	800.235	609.296
420.599	19.816	799.800	608.384
421.613	157.460	1369.912	1790.541
422.628	136.578	1452.997	1790.653
