DTS Sentinel unit serial number:	SN413079Multiplexer serial number:	ORYXHardware model number:	OX4-SRSoftware version number:	ORYX F/W v4.00 Oryx Data Collector v3.7.2.0data status	okinstallation	princeton_trtdifferential loss correction	single-endedforward channel	channel 3reverse channel	N/Adate	2019/09/18time	20:48:34forward acquisition time	60.00reverse acquisition time	0.00gamma	496.2192k internal	0.2342k external	0.2342temperature offset calibration	1.0008default loss term (dB/km)	0.3790temperature slope calibration	1.0000multiplexer offset coefficient	1.0000multiplexer slope coefficient	1.0000fibre end	0.00T internal ref (°C)	27.17T ext. ref 1 (°C)	1.04T ext. ref 2 (°C)	18.48length (m)	temperature (°C)	Stokes	anti-Stokes-747.200	158.031	0.168	-0.233
-746.185	389.364	-0.089	-0.185
-745.171	462.232	0.071	-0.159
-744.156	147.073	-0.153	-0.207
-743.142	413.349	0.257	0.547
-742.127	592.282	-0.098	0.242
-741.112	-21.408	0.373	-0.228
-740.098	207.285	0.111	0.173
-739.083	-183.306	0.366	-0.006
-738.069	437.680	-0.131	0.286
-737.054	32.638	-0.211	0.183
-736.039	-168.331	-0.308	-0.012
-735.025	32.823	-0.028	0.024
-734.010	-112.618	-0.130	0.026
-732.996	-172.218	0.262	0.008
-731.981	800.000	-0.042	0.125
-730.966	-200.000	0.041	-0.370
-729.952	-200.000	0.017	0.102
-728.937	41.694	-0.084	-0.076
-727.923	31.798	-0.211	-0.182
-726.908	-16.365	-0.210	-0.133
-725.894	630.905	-0.102	-0.258
-724.879	467.925	-0.128	0.288
-723.864	800.000	0.042	0.116
-722.850	-200.000	-0.010	-0.389
-721.835	-114.610	0.245	0.047
-720.821	-32.892	-0.028	-0.015
-719.806	733.127	-0.138	-0.370
-718.791	251.772	-0.070	0.119
-717.777	176.492	-0.250	0.364
-716.762	-40.097	-0.155	-0.081
-715.748	211.681	0.184	0.290
-714.733	16.079	-0.157	-0.123
-713.718	-20.702	-0.097	-0.060
-712.704	-59.693	0.235	0.101
-711.689	-200.000	-0.032	-0.156
-710.675	155.841	-0.071	-0.098
-709.660	-78.832	0.256	-0.087
-708.645	138.894	-0.078	-0.103
-707.631	800.000	-0.053	-0.220
-706.616	476.588	-0.139	-0.314
-705.602	96.950	-0.147	0.168
-704.587	562.663	-0.103	-0.249
-703.572	48.611	0.146	-0.137
-702.558	-120.632	0.259	0.044
-701.543	546.744	-0.043	0.104
-700.529	190.076	0.060	0.090
-699.514	800.000	0.032	0.098
-698.499	116.656	-0.063	-0.077
-697.485	-200.000	-0.015	0.192
-696.470	181.686	-0.071	-0.105
-695.456	-114.859	-0.266	0.051
-694.441	51.077	0.131	-0.124
-693.426	800.000	0.034	0.121
-692.412	120.599	-0.173	-0.215
-691.397	800.000	0.043	-0.127
-690.383	52.812	0.274	-0.262
-689.368	-18.812	0.111	-0.069
-688.354	-56.874	-0.183	-0.081
-687.339	155.638	-0.065	-0.089
-686.324	-15.757	0.085	-0.054
-685.310	-200.000	0.005	0.030
-684.295	194.841	-0.070	0.107
-683.281	34.489	-0.112	0.098
-682.266	348.868	0.085	-0.168
-681.251	-200.000	0.006	0.032
-680.237	-200.000	0.002	0.259
-679.222	-67.668	0.190	-0.074
-678.208	23.133	0.101	-0.082
-677.193	337.977	-0.206	-0.401
-676.178	28.024	-0.356	-0.300
-675.164	93.442	-0.071	-0.080
-674.149	-8.871	-0.146	0.098
-673.135	800.000	0.102	-0.310
-672.120	53.043	-0.217	-0.207
-671.105	336.980	0.114	-0.220
-670.091	-39.742	-0.201	0.105
-669.076	9.839	0.254	-0.192
-668.062	-95.611	-0.113	-0.030
-667.047	-45.649	-0.250	0.124
-666.032	1.245	-0.060	-0.043
-665.018	-200.000	0.004	0.148
-664.003	4.281	0.062	-0.045
-662.989	800.000	0.059	0.238
-661.974	373.595	-0.095	-0.193
-660.959	-200.000	0.001	0.180
-659.945	-200.000	-0.009	0.224
-658.930	-200.000	-0.009	-0.206
-657.916	-131.837	0.167	0.022
-656.901	23.371	0.149	0.122
-655.886	800.000	0.043	-0.168
-654.872	40.070	-0.263	-0.236
-653.857	-176.991	0.200	0.005
-652.843	95.008	0.337	-0.383
-651.828	15.949	-0.297	-0.234
-650.814	215.271	-0.118	0.188
-649.799	-200.000	-0.009	0.157
-648.784	210.960	0.059	-0.092
-647.770	-26.875	-0.099	0.058
-646.755	-95.048	-0.168	0.045
-645.741	-21.898	-0.261	-0.158
-644.726	-200.000	-0.014	0.186
-643.711	800.000	0.072	-0.204
-642.697	11.212	0.149	-0.114
-641.682	-35.069	-0.069	-0.038
-640.668	10.734	0.086	0.065
-639.653	-15.974	-0.180	-0.115
-638.638	-55.203	0.069	0.031
-637.624	544.486	-0.084	0.200
-636.609	-63.251	0.181	-0.074
-635.595	181.071	-0.277	-0.406
-634.580	-183.903	-0.054	-0.001
-633.565	22.164	-0.232	0.189
-632.551	85.971	0.358	0.393
-631.536	147.950	0.297	0.399
-630.522	313.381	0.055	0.102
-629.507	-98.393	0.254	0.065
-628.492	231.181	-0.330	-0.539
-627.478	-187.089	-0.176	-0.002
-626.463	-200.000	0.015	0.232
-625.449	800.000	0.066	0.260
-624.434	108.732	0.077	-0.092
-623.419	106.761	-0.149	-0.176
-622.405	144.132	-0.190	-0.253
-621.390	-27.837	0.213	0.123
-620.376	-152.840	0.145	-0.010
-619.361	-200.000	0.010	-0.343
-618.346	171.162	-0.106	-0.151
-617.332	382.546	0.115	-0.235
-616.317	800.000	-0.093	0.313
-615.303	278.564	-0.140	-0.249
-614.288	-100.313	0.035	0.009
-613.273	-166.648	-0.157	0.006
-612.259	78.871	0.157	-0.167
-611.244	-39.510	0.058	-0.030
-610.230	59.375	-0.098	0.096
-609.215	149.751	0.086	-0.116
-608.201	-37.994	0.278	-0.147
-607.186	-135.122	-0.221	0.027
-606.171	76.668	-0.209	0.221
-605.157	11.116	0.075	-0.057
-604.142	-10.863	-0.055	-0.037
-603.128	19.433	-0.147	-0.117
-602.113	70.818	-0.105	-0.108
-601.098	-105.060	-0.106	-0.024
-600.084	-51.373	-0.128	0.060
-599.069	118.940	0.152	-0.187
-598.055	-200.000	0.019	0.375
-597.040	-200.000	-0.018	0.091
-596.025	-91.618	-0.402	0.114
-595.011	-135.424	-0.282	0.033
-593.996	55.255	-0.027	-0.026
-592.982	20.271	-0.090	-0.073
-591.967	-76.994	-0.303	-0.105
-590.952	-18.758	0.116	-0.072
-589.938	-57.884	-0.065	-0.028
-588.923	396.147	-0.052	0.108
-587.909	9.160	0.310	-0.233
-586.894	210.580	0.156	0.244
-585.879	-63.049	0.412	0.169
-584.865	13.750	0.084	0.065
-583.850	-133.995	-0.064	-0.008
-582.836	24.432	-0.049	0.041
-581.821	-200.000	-0.061	-0.323
-580.806	800.000	0.013	-0.043
-579.792	363.418	0.042	0.085
-578.777	-46.588	0.175	0.086
-577.763	21.157	-0.152	0.123
-576.748	-46.393	-0.252	-0.123
-575.733	-135.482	0.338	-0.040
-574.719	-200.000	0.003	-0.077
-573.704	27.206	0.285	-0.238
-572.690	-140.480	-0.203	0.021
-571.675	-200.000	-0.041	0.200
-570.661	13.527	-0.222	-0.171
-569.646	800.000	0.038	0.141
-568.631	454.200	-0.052	-0.116
-567.617	-200.000	0.014	-0.104
-566.602	-122.501	-0.457	-0.074
-565.588	96.218	0.193	-0.219
-564.573	342.026	-0.224	-0.437
-563.558	-43.859	0.051	-0.026
-562.544	-200.000	-0.002	0.112
-561.529	53.301	-0.195	-0.186
-560.515	-177.789	0.292	-0.007
-559.500	264.035	0.076	0.131
-558.485	88.923	-0.284	0.315
-557.471	-200.000	-0.021	0.177
-556.456	169.818	0.111	0.158
-555.442	111.265	0.101	0.121
-554.427	21.679	-0.157	-0.127
-553.412	556.360	0.064	0.154
-552.398	-14.782	0.151	-0.096
-551.383	539.434	0.109	-0.258
-550.369	800.000	0.046	-0.148
-549.354	800.000	-0.042	-0.174
-548.339	-200.000	-0.041	-0.266
-547.325	-6.830	0.101	-0.068
-546.310	139.725	-0.161	-0.211
-545.296	-9.465	-0.350	-0.232
-544.281	126.137	0.070	-0.088
-543.266	-77.809	-0.449	-0.154
-542.252	167.200	0.054	0.077
-541.237	-75.344	-0.239	-0.085
-540.223	95.646	0.322	0.365
-539.208	-200.000	-0.017	-0.086
-538.193	-167.715	-0.219	-0.009
-537.179	-75.228	0.267	0.095
-536.164	-139.181	-0.372	0.040
-535.150	457.509	0.092	0.202
-534.135	552.323	0.050	0.119
-533.121	-200.000	0.010	-0.220
-532.106	659.584	-0.054	0.138
-531.091	-22.107	-0.485	0.292
-530.077	800.000	0.053	0.228
-529.062	-13.209	-0.125	-0.081
-528.048	2.531	-0.199	0.143
-527.033	10.403	0.077	-0.058
-526.018	-106.935	-0.249	-0.055
-525.004	800.000	0.030	-0.124
-523.989	356.957	0.082	-0.163
-522.975	148.825	-0.097	0.130
-521.960	-33.464	0.338	-0.185
-520.945	228.793	0.063	-0.102
-519.931	-145.972	-0.360	-0.032
-518.916	-200.000	0.051	0.230
-517.902	143.525	-0.155	0.205
-516.887	800.000	0.058	-0.174
-515.872	-175.578	-0.216	-0.006
-514.858	30.688	0.164	-0.140
-513.843	89.550	0.093	-0.103
-512.829	-11.607	0.206	0.135
-511.814	755.819	0.046	0.124
-510.799	121.309	0.162	0.200
-509.785	-36.827	0.103	0.055
-508.770	114.119	0.095	0.115
-507.756	785.266	-0.048	-0.130
-506.741	320.996	0.051	0.096
-505.726	-111.102	0.171	0.035
-504.712	-200.000	0.006	-0.130
-503.697	-52.136	-0.099	0.046
-502.683	-200.000	-0.023	-0.248
-501.668	7.190	0.203	0.150
-500.653	-111.061	-0.284	-0.058
-499.639	611.141	0.088	0.219
-498.624	21.368	0.142	0.115
-497.610	-200.000	-0.025	-0.110
-496.595	280.530	0.169	-0.300
-495.581	66.714	-0.146	0.148
-494.566	-79.240	0.162	0.054
-493.551	-113.645	-0.152	0.029
-492.537	-48.454	0.086	0.041
-491.522	-35.880	0.271	0.146
-490.508	-3.345	-0.224	0.155
-489.493	-53.477	0.180	0.082
-488.478	33.254	-0.102	-0.088
-487.464	393.236	-0.232	-0.478
-486.449	-168.826	0.302	-0.011
-485.435	230.465	-0.141	0.229
-484.420	800.000	-0.027	-0.115
-483.405	397.512	-0.108	-0.223
-482.391	68.724	0.027	-0.027
-481.376	-96.295	-0.215	-0.057
-480.362	0.676	0.281	-0.200
-479.347	-32.031	0.213	-0.118
-478.332	-157.926	-0.258	0.015
-477.318	-82.943	0.148	-0.047
-476.303	-200.000	0.005	0.200
-475.289	-59.399	0.141	-0.060
-474.274	612.691	-0.003	-0.008
-473.259	-110.334	0.140	-0.029
-472.245	-138.615	-0.294	-0.032
-471.230	226.662	0.226	-0.364
-470.216	259.259	0.052	0.088
-469.201	129.429	0.093	-0.118
-468.186	-86.127	0.162	-0.050
-467.172	100.034	-0.140	0.161
-466.157	123.419	-0.331	0.411
-465.143	-78.405	-0.061	0.021
-464.128	126.036	-0.209	-0.261
-463.113	-200.000	0.041	-0.291
-462.099	-170.325	-0.205	-0.007
-461.084	-92.243	0.269	-0.075
-460.070	-176.655	-0.170	-0.004
-459.055	-22.781	-0.284	0.170
-458.040	-84.273	0.107	-0.034
-457.026	-101.283	-0.299	-0.072
-456.011	373.493	0.126	-0.254
-454.997	309.423	0.116	0.216
-453.982	349.640	-0.088	0.172
-452.968	-200.000	-0.078	0.558
-451.953	62.397	0.209	-0.206
-450.938	80.964	-0.188	-0.200
-449.924	-18.173	0.137	0.085
-448.909	-1.874	0.113	0.078
-447.895	-200.000	-0.021	-0.092
-446.880	41.280	-0.028	-0.025
-445.865	-132.140	-0.117	-0.015
-444.851	485.279	-0.053	-0.121
-443.836	-127.266	-0.291	-0.042
-442.822	800.000	-0.047	0.179
-441.807	-99.125	0.110	0.028
-440.792	-149.660	0.203	0.016
-439.778	6.379	0.259	-0.191
-438.763	-103.290	-0.146	-0.034
-437.749	321.956	0.172	-0.323
-436.734	59.650	0.181	-0.177
-435.719	659.605	0.058	-0.147
-434.705	-95.125	-0.121	0.032
-433.690	18.507	-0.143	0.113
-432.676	-0.586	-0.324	0.228
-431.661	-200.000	0.015	0.152
-430.646	-87.125	-0.235	-0.071
-429.632	576.338	0.017	-0.042
-428.617	187.536	0.064	-0.094
-427.603	-200.000	-0.012	-0.163
-426.588	-1.356	-0.149	-0.104
-425.573	90.848	0.171	-0.189
-424.559	-200.000	0.024	-0.136
-423.544	312.364	0.060	-0.111
-422.530	222.000	0.091	0.145
-421.515	-117.655	0.136	0.024
-420.500	-57.545	0.133	0.058
-419.486	197.081	0.195	0.294
-418.471	-88.228	-0.275	-0.081
-417.457	800.000	-0.036	-0.129
-416.442	-90.278	-0.165	-0.047
-415.428	-200.000	-0.018	0.214
-414.413	131.420	-0.047	-0.060
-413.398	800.000	-0.056	-0.240
-412.384	-27.264	-0.157	0.090
-411.369	100.078	-0.096	0.110
-410.355	61.277	0.051	-0.050
-409.340	259.724	-0.103	0.175
-408.325	-120.672	0.206	0.034
-407.311	-200.000	-0.075	-0.444
-406.296	-67.160	0.183	-0.071
-405.282	12.894	0.241	-0.184
-404.267	-45.739	-0.181	0.089
-403.252	-105.611	-0.326	0.073
-402.238	-70.308	0.306	0.115
-401.223	-162.616	-0.283	0.014
-400.209	-200.000	0.005	-0.068
-399.194	130.850	0.104	-0.132
-398.179	-200.000	0.018	0.177
-397.165	706.541	-0.109	0.284
-396.150	-119.038	-0.264	-0.046
-395.136	800.000	0.056	0.154
-394.121	-200.000	-0.011	-0.075
-393.106	-156.396	0.094	-0.006
-392.092	-200.000	-0.005	0.034
-391.077	86.954	0.174	0.190
-390.063	-200.000	-0.011	-0.106
-389.048	59.079	0.220	-0.214
-388.033	800.000	0.046	-0.127
-387.019	-143.417	0.113	-0.011
-386.004	-183.361	0.076	0.001
-384.990	-98.196	-0.034	0.009
-383.975	-32.885	-0.157	-0.086
-382.960	-200.000	0.001	0.351
-381.946	44.071	-0.243	-0.220
-380.931	800.000	-0.082	0.231
-379.917	-137.024	0.138	-0.016
-378.902	114.381	-0.060	-0.072
-377.888	800.000	-0.020	0.080
-376.873	-74.078	-0.174	0.062
-375.858	547.516	-0.048	-0.114
-374.844	-165.445	0.230	0.010
-373.829	11.998	0.389	0.295
-372.815	-44.289	0.220	-0.109
-371.800	-81.428	-0.079	0.026
-370.785	139.140	0.065	0.084
-369.771	-32.822	-0.279	-0.153
-368.756	80.553	0.152	0.162
-367.742	-79.736	-0.126	0.042
-366.727	-159.904	-0.406	0.022
-365.712	-200.000	0.039	-0.227
-364.698	581.177	0.207	-0.500
-363.683	468.525	-0.028	-0.061
-362.669	-9.914	0.284	0.187
-361.654	-153.776	0.270	-0.018
-360.639	-200.000	-0.022	0.183
-359.625	-111.645	-0.216	0.043
-358.610	-148.458	0.129	-0.010
-357.596	-200.000	0.012	0.333
-356.581	770.851	-0.167	-0.450
-355.566	-30.024	0.175	0.098
-354.552	-154.530	0.285	0.019
-353.537	-200.000	0.010	-0.056
-352.523	-47.217	-0.342	0.164
-351.508	-125.441	-0.280	-0.042
-350.493	-200.000	-0.019	-0.270
-349.479	82.607	-0.076	-0.082
-348.464	-10.816	-0.220	0.144
-347.450	-83.601	-0.139	-0.044
-346.435	582.211	-0.130	-0.315
-345.420	196.046	0.117	0.176
-344.406	457.354	0.086	0.189
-343.391	-15.319	0.300	-0.189
-342.377	-200.000	0.003	-0.039
-341.362	800.000	0.076	0.221
-340.348	-184.532	0.073	0.001
-339.333	105.770	-0.178	0.207
-338.318	-145.146	-0.225	0.020
-337.304	-175.625	-0.051	-0.001
-336.289	-200.000	0.013	0.168
-335.275	635.387	-0.068	0.171
-334.260	532.471	0.087	-0.204
-333.245	-24.051	0.024	0.014
-332.231	35.115	0.231	0.200
-331.216	-68.437	0.357	0.137
-330.202	174.875	0.205	0.292
-329.187	-200.000	0.073	-0.462
-328.172	218.864	-0.188	0.296
-327.158	131.824	-0.149	0.189
-326.143	-200.000	0.004	-0.135
-325.129	800.000	-0.093	0.390
-324.114	-127.006	0.046	0.007
-323.099	-200.000	-0.032	0.148
-322.085	183.049	-0.161	-0.234
-321.070	-121.298	0.296	-0.049
-320.056	-71.012	-0.060	0.022
-319.041	-200.000	0.001	-0.066
-318.026	-160.528	-0.315	0.017
-317.012	-70.784	0.221	-0.082
-315.997	-94.104	0.246	-0.066
-314.983	-53.537	-0.288	-0.130
-313.968	-200.000	-0.156	0.001
-312.953	-200.000	0.011	0.191
-311.939	41.226	0.193	-0.172
-310.924	32.690	0.076	0.064
-309.910	-200.000	0.054	0.330
-308.895	-34.870	-0.199	0.107
-307.880	-200.000	-0.063	-0.418
-306.866	-11.116	-0.085	0.055
-305.851	-162.083	-0.237	-0.012
-304.837	-200.000	-0.057	-0.366
-303.822	299.871	-0.198	0.360
-302.807	-31.907	-0.157	0.087
-301.793	378.640	-0.156	-0.313
-300.778	800.000	0.047	0.136
-299.764	152.475	-0.145	0.195
-298.749	-6.211	-0.046	0.031
-297.735	800.000	-0.084	0.253
-296.720	424.722	-0.071	0.150
-295.705	540.098	0.096	0.224
-294.691	501.016	0.151	-0.343
-293.676	-158.368	-0.156	-0.009
-292.662	-96.854	-0.246	0.064
-291.647	-50.226	0.155	0.072
-290.632	638.725	0.159	-0.397
-289.618	56.791	0.276	0.265
-288.603	-200.000	-0.025	-0.174
-287.589	-92.927	-0.256	0.070
-286.574	-34.717	0.075	0.040
-285.559	-200.000	-0.077	-0.464
-284.545	-200.000	0.001	-0.028
-283.530	24.962	-0.278	-0.226
-282.516	92.679	0.019	-0.021
-281.501	-65.549	-0.112	0.044
-280.486	132.470	-0.034	0.044
-279.472	-200.000	-0.035	0.425
-278.457	-158.539	-0.154	0.009
-277.443	-163.824	-0.264	0.012
-276.428	-200.000	-0.053	-0.263
-275.413	-9.683	0.101	0.066
-274.399	15.424	0.333	-0.257
-273.384	-97.256	0.276	0.071
-272.370	800.000	0.053	-0.148
-271.355	-105.609	-0.249	-0.055
-270.340	-47.869	0.204	-0.097
-269.326	-190.814	-0.344	-0.004
-268.311	800.000	-0.059	0.226
-267.297	309.438	0.126	0.232
-266.282	-119.451	0.165	0.028
-265.267	-121.858	0.187	0.030
-264.253	-140.367	0.260	0.027
-263.238	-166.044	0.276	0.012
-262.224	-200.000	-0.080	0.523
-261.209	800.000	-0.058	-0.237
-260.195	395.805	-0.022	0.044
-259.180	161.105	0.041	-0.057
-258.165	-23.512	0.310	-0.183
-257.151	-150.581	-0.221	0.017
-256.136	-112.383	0.107	0.021
-255.122	-200.000	0.003	-0.060
-254.107	-113.521	0.190	0.036
-253.092	71.615	0.085	0.087
-252.078	-16.076	0.095	-0.059
-251.063	-51.610	0.088	-0.041
-250.049	95.895	-0.178	0.199
-249.034	23.356	0.223	0.180
-248.019	-10.330	-0.041	-0.027
-247.005	-72.604	-0.076	0.027
-245.990	44.246	0.346	-0.311
-244.976	27.705	-0.230	0.190
-243.961	75.259	0.039	0.041
-242.946	-200.000	-0.010	0.074
-241.932	4.152	0.145	-0.104
-240.917	-200.000	-0.003	-0.086
-239.903	-152.406	0.069	0.005
-238.888	-126.280	-0.349	0.051
-237.873	720.619	-0.019	-0.049
-236.859	-200.000	-0.039	-0.409
-235.844	199.350	0.155	0.234
-234.830	211.488	0.130	-0.201
-233.815	-200.000	0.008	-0.169
-232.800	68.457	0.278	0.280
-231.786	45.818	-0.082	0.074
-230.771	800.000	0.063	-0.229
-229.757	-70.348	0.274	0.102
-228.742	-200.000	-0.056	-0.384
-227.727	189.138	-0.086	-0.126
-226.713	2.102	-0.290	-0.205
-225.698	-115.974	-0.257	-0.047
-224.684	-117.150	0.181	-0.032
-223.669	800.000	0.018	-0.070
-222.655	302.214	0.055	-0.100
-221.640	137.938	0.138	0.178
-220.625	26.164	-0.198	-0.163
-219.611	-129.363	0.262	-0.036
-218.596	-200.000	0.067	-0.378
-217.582	-200.000	-0.016	0.242
-216.567	-143.788	0.178	-0.016
-215.552	-135.468	0.078	-0.009
-214.538	800.000	-0.023	-0.094
-213.523	-92.924	0.509	0.140
-212.509	-200.000	0.019	0.093
-211.494	743.094	0.044	-0.115
-210.479	-200.000	0.026	0.272
-209.465	-17.027	0.321	0.199
-208.450	46.263	0.195	0.178
-207.436	-161.829	0.059	0.003
-206.421	-200.000	0.013	0.130
-205.406	-200.000	0.020	0.241
-204.392	209.770	0.108	0.166
-203.377	-46.169	0.162	0.078
-202.363	14.009	-0.133	0.102
-201.348	-25.204	-0.084	0.049
-200.333	117.132	0.246	-0.296
-199.319	101.426	0.054	0.061
-198.304	30.082	-0.171	0.143
-197.290	76.259	-0.169	-0.176
-196.275	18.281	-0.142	-0.111
-195.260	-132.491	-0.146	-0.018
-194.246	800.000	-0.034	-0.097
-193.231	453.410	0.119	0.259
-192.217	43.391	0.296	0.265
-191.202	-200.000	-0.187	-0.001
-190.187	-62.740	0.313	-0.127
-189.173	-40.630	0.173	-0.088
-188.158	-32.051	0.127	0.070
-187.144	50.346	-0.064	0.059
-186.129	800.000	0.031	-0.111
-185.114	-65.033	0.045	0.018
-184.100	-200.000	-0.135	0.585
-183.085	-61.618	0.297	0.122
-182.071	90.391	-0.085	-0.093
-181.056	-158.758	0.407	0.023
-180.042	-125.299	-0.274	-0.041
-179.027	9.773	-0.179	0.133
-178.012	-200.000	0.004	0.231
-176.998	17.069	0.173	-0.134
-175.983	447.012	-0.053	-0.114
-174.969	-25.156	0.204	0.119
-173.954	369.909	0.165	0.327
-172.939	465.559	0.144	0.315
-171.925	-106.011	-0.075	0.016
-170.910	147.583	0.119	0.157
-169.896	-9.877	0.159	-0.104
-168.881	-200.000	0.054	-0.355
-167.866	56.053	0.050	-0.048
-166.852	153.171	0.064	0.086
-165.837	800.000	-0.014	-0.061
-164.823	127.314	-0.018	-0.022
-163.808	-200.000	-0.016	0.132
-162.793	507.819	-0.056	0.128
-161.779	-8.073	0.047	-0.031
-160.764	647.700	-0.092	-0.230
-159.750	-65.245	-0.263	0.104
-158.735	45.837	-0.159	-0.144
-157.720	308.117	-0.184	0.336
-156.706	43.515	-0.169	0.151
-155.691	800.000	-0.089	0.271
-154.677	190.128	0.035	0.051
-153.662	-126.857	0.333	0.048
-152.647	-119.298	-0.086	0.015
-151.633	91.907	0.078	-0.086
-150.618	-77.499	0.165	-0.056
-149.604	327.078	-0.100	0.188
-148.589	5.801	0.229	-0.166
-147.574	-200.000	0.013	0.275
-146.560	-35.601	0.229	0.122
-145.545	-200.000	0.013	0.069
-144.531	-200.000	-0.045	-0.290
-143.516	79.301	-0.124	0.130
-142.502	-159.736	0.189	0.010
-141.487	800.000	0.050	0.203
-140.472	117.776	0.150	-0.181
-139.458	31.533	0.257	-0.216
-138.443	357.594	-0.142	0.277
-137.429	800.000	-0.050	0.156
-136.414	158.999	0.094	0.128
-135.399	-60.148	0.182	-0.076
-134.385	396.408	-0.077	-0.157
-133.370	-175.238	0.204	-0.006
-132.356	96.600	-0.284	0.318
-131.341	800.000	-0.035	-0.122
-130.326	170.053	-0.123	-0.172
-129.312	54.521	0.172	-0.162
-128.297	432.340	0.079	0.168
-127.283	800.000	0.099	-0.377
-126.268	-14.182	0.018	-0.011
-125.253	-15.948	-0.149	-0.093
-124.239	-141.771	0.138	-0.014
-123.224	800.000	0.055	-0.198
-122.210	-109.998	-0.281	-0.058
-121.195	800.000	-0.021	-0.059
-120.180	800.000	0.052	0.175
-119.166	-77.501	-0.267	0.091
-118.151	-127.023	-0.385	0.055
-117.137	-116.816	0.077	-0.014
-116.122	54.896	0.208	0.196
-115.107	800.000	-0.152	0.526
-114.093	78.609	0.109	-0.114
-113.078	90.789	0.150	-0.164
-112.064	-200.000	0.026	0.480
-111.049	126.145	-0.068	0.084
-110.034	-33.726	-0.101	-0.054
-109.020	2.786	0.053	-0.038
-108.005	363.059	0.172	0.338
-106.991	-88.944	-0.199	-0.058
-105.976	-115.955	0.260	0.047
-104.962	-200.000	-0.013	-0.093
-103.947	-166.964	0.409	-0.016
-102.932	374.258	-0.025	-0.049
-101.918	5.876	0.154	0.111
-100.903	48.060	-0.088	-0.081
-99.889	-72.395	0.230	-0.083
-98.874	800.000	0.030	0.120
-97.859	-200.000	0.009	-0.144
-96.845	591.534	-0.085	-0.205
-95.830	16.919	0.279	-0.216
-94.816	-16.936	0.185	-0.114
-93.801	-200.000	-0.048	-0.216
-92.786	91.895	0.137	0.150
-91.772	10.050	0.196	0.145
-90.757	528.578	-0.119	0.273
-89.743	-200.000	0.031	-0.241
-88.728	270.165	0.092	-0.158
-87.713	635.273	0.087	0.214
-86.699	191.695	-0.223	0.328
-85.684	-67.232	-0.181	-0.069
-84.670	558.982	-0.027	-0.064
-83.655	800.000	-0.030	-0.085
-82.640	800.000	-0.048	-0.199
-81.626	-200.000	-0.052	-0.275
-80.611	49.704	0.165	-0.152
-79.597	-173.452	0.251	0.007
-78.582	233.892	0.061	-0.097
-77.567	210.340	0.029	0.045
-76.553	-35.753	-0.226	-0.119
-75.538	-102.920	-0.206	0.048
-74.524	-48.250	0.269	-0.127
-73.509	133.017	0.142	0.179
-72.494	373.427	0.076	0.150
-71.480	-177.680	-0.259	-0.006
-70.465	-66.332	-0.128	0.050
-69.451	227.024	0.126	0.199
-68.436	-74.427	0.058	0.020
-67.422	14.550	0.055	0.042
-66.407	206.252	0.084	-0.128
-65.392	-148.648	0.191	-0.015
-64.378	35.906	0.142	-0.122
-63.363	-130.300	0.348	-0.046
-62.349	800.000	0.125	0.374
-61.334	43.826	-1.102	-0.984
-60.319	147.881	0.523	0.688
-59.305	800.000	-0.429	-1.266
-58.290	289.901	0.821	1.453
-57.276	289.089	1.006	1.779
-56.261	-200.000	113.688	631.894
-55.246	460.547	1485.967	3227.535
-54.232	153.099	2647.415	3530.254
-53.217	98.449	2151.019	2416.885
-52.203	37.150	1680.304	1450.162
-51.188	30.354	1497.063	1246.523
-50.173	28.121	1472.457	1211.223
-49.159	48.985	1533.860	1403.715
-48.144	48.116	1548.738	1411.380
-47.130	30.279	1503.763	1251.401
-46.115	27.381	1487.586	1218.517
-45.100	27.235	1484.551	1215.011
-44.086	27.121	1482.746	1212.724
-43.071	27.202	1480.655	1211.504
-42.057	27.076	1479.274	1209.486
-41.042	27.091	1478.101	1208.580
-40.027	27.067	1476.707	1207.230
-39.013	27.203	1474.523	1206.301
-37.998	27.075	1473.930	1204.919
-36.984	27.216	1472.450	1204.593
-35.969	27.082	1471.364	1202.773
-34.954	27.118	1470.319	1202.110
-33.940	27.161	1469.113	1201.357
-32.925	27.136	1467.099	1199.496
-31.911	27.197	1465.953	1198.918
-30.896	27.192	1464.668	1197.789
-29.881	27.230	1463.530	1197.061
-28.867	27.246	1462.057	1195.908
-27.852	27.250	1460.836	1194.893
-26.838	27.205	1459.343	1193.326
-25.823	27.212	1458.360	1192.525
-24.809	27.223	1456.379	1190.928
-23.794	27.213	1454.857	1189.572
-22.779	27.080	1454.381	1188.264
-21.765	27.189	1452.671	1187.530
-20.750	27.259	1451.863	1187.281
-19.736	27.193	1450.934	1186.041
-18.721	27.261	1450.087	1185.744
-17.706	27.161	1448.775	1183.979
-16.692	27.272	1447.036	1183.227
-15.677	27.281	1446.461	1182.773
-14.663	27.171	1445.708	1181.392
-13.648	27.147	1444.627	1180.305
-12.633	27.214	1443.883	1180.086
-11.619	27.157	1442.841	1178.817
-10.604	27.095	1442.397	1178.007
-9.590	27.111	1441.118	1177.021
-8.575	27.179	1440.599	1176.988
-7.560	27.104	1439.834	1175.833
-6.546	27.116	1438.969	1175.156
-5.531	27.122	1438.216	1174.537
-4.517	27.119	1436.881	1173.381
-3.502	27.145	1435.716	1172.547
-2.487	27.230	1434.357	1171.937
-1.473	27.089	1434.065	1170.743
-0.458	27.077	1432.351	1169.224
0.556	26.221	1421.499	1155.654
1.571	22.107	1395.642	1108.626
2.586	17.531	1333.125	1031.224
3.600	15.426	1250.723	955.430
4.615	14.213	1206.648	915.011
5.629	12.420	1151.963	864.048
6.644	6.810	1072.521	776.862
7.659	1.887	1036.202	727.055
8.673	1.119	1030.495	719.343
9.688	0.917	1027.840	716.466
10.702	1.097	1026.099	716.040
11.717	1.048	1024.169	714.399
12.731	2.791	1024.966	723.111
13.746	8.869	1032.709	757.296
14.761	15.219	1040.769	793.289
15.775	17.538	1043.197	806.058
16.790	17.241	1041.998	803.659
17.804	16.484	1039.480	798.070
18.819	15.482	1037.884	792.051
19.834	15.007	1036.628	788.786
20.848	14.834	1035.596	787.115
21.863	14.613	1034.941	785.507
22.877	14.202	1034.462	783.139
23.892	14.146	1033.365	781.977
24.907	14.036	1032.062	780.404
25.921	14.007	1031.871	780.055
26.936	14.079	1031.004	779.670
27.950	13.978	1030.454	778.709
28.965	14.037	1029.650	778.313
29.980	14.146	1029.049	778.296
30.994	14.048	1027.973	776.956
32.009	14.288	1027.230	777.449
33.023	14.249	1026.844	776.906
34.038	14.273	1025.799	776.155
35.053	14.157	1024.987	774.932
36.067	14.178	1023.836	774.092
37.082	14.231	1023.037	773.665
38.096	14.170	1022.626	773.005
39.111	14.302	1021.438	772.651
40.126	14.276	1020.487	771.741
41.140	14.138	1019.531	770.312
42.155	13.977	1019.123	769.190
43.169	14.079	1017.881	768.654
44.184	13.968	1016.976	767.392
45.199	14.033	1015.300	766.358
46.213	14.010	1014.588	765.645
47.228	13.960	1013.913	764.839
48.242	14.128	1012.912	764.789
49.257	14.239	1011.433	764.115
50.271	14.212	1010.878	763.504
51.286	14.169	1009.987	762.566
52.301	14.154	1009.099	761.759
53.315	14.187	1008.544	761.424
54.330	14.198	1007.557	760.662
55.344	13.975	1006.980	759.141
56.359	14.025	1005.849	758.449
57.374	14.152	1004.507	757.948
58.388	14.007	1004.221	757.005
59.403	14.008	1003.247	756.207
60.417	13.953	1002.460	755.297
61.432	13.973	1002.029	754.996
62.447	14.012	1001.565	754.759
63.461	13.914	1000.735	753.622
64.476	14.130	998.991	753.220
65.490	14.011	998.596	752.316
66.505	13.891	997.652	750.998
67.520	14.107	996.876	751.323
68.534	14.043	996.266	750.508
69.549	14.016	995.796	749.965
70.563	14.118	994.503	749.384
71.578	14.025	994.466	748.871
72.593	13.950	993.372	747.642
73.607	13.997	992.143	746.862
74.622	13.978	991.426	746.174
75.636	14.005	990.420	745.471
76.651	13.986	989.931	744.949
77.666	13.986	989.046	744.218
78.680	13.948	988.154	743.311
79.695	13.973	988.175	743.375
80.709	13.899	987.631	742.569
81.724	14.024	986.611	742.293
82.739	13.975	986.050	741.588
83.753	14.004	985.543	741.271
84.768	14.137	983.676	740.392
85.782	14.118	983.774	740.318
86.797	14.226	982.381	739.684
87.812	14.137	981.709	738.718
88.826	14.066	981.267	738.004
89.841	14.101	980.154	737.255
90.855	14.086	979.570	736.686
91.870	14.258	978.380	736.487
92.884	14.215	977.976	735.924
93.899	14.327	977.266	735.822
94.914	14.287	976.469	734.981
95.928	14.305	975.444	734.221
96.943	14.246	975.179	733.700
97.957	14.259	974.372	733.081
98.972	14.271	973.258	732.233
99.987	14.205	973.025	731.701
101.001	14.229	972.184	731.109
102.016	14.301	970.995	730.466
103.030	14.223	970.245	729.496
104.045	14.190	969.445	728.687
105.060	14.186	968.734	728.069
106.074	14.257	967.356	727.282
107.089	14.282	966.607	726.760
108.103	14.256	965.547	725.786
109.118	14.209	964.689	724.873
110.133	14.052	964.509	723.989
111.147	14.101	963.490	723.376
112.162	14.256	962.187	723.005
113.176	14.274	961.695	722.651
114.191	14.289	960.701	721.903
115.206	14.327	959.328	720.972
116.220	14.160	958.935	719.891
117.235	14.244	957.787	719.328
118.249	14.220	957.514	718.957
119.264	14.210	956.546	718.123
120.279	14.168	955.472	717.070
121.293	14.201	955.005	716.801
122.308	14.163	954.069	715.871
123.322	14.228	953.145	715.395
124.337	14.229	951.969	714.454
125.352	14.122	951.159	713.324
126.366	14.281	949.692	712.840
127.381	14.140	948.954	711.619
128.395	14.176	948.428	711.317
129.410	14.207	947.615	710.774
130.424	14.239	946.212	709.796
131.439	14.098	945.451	708.562
132.454	14.196	944.488	708.197
133.468	14.285	943.955	708.109
134.483	14.054	943.636	706.829
135.497	14.240	942.880	706.989
136.512	14.049	941.828	705.328
137.527	14.181	941.243	705.386
138.541	14.357	939.715	704.921
139.556	14.140	939.708	703.939
140.570	14.253	938.729	703.618
141.585	14.252	938.143	703.115
142.600	14.303	937.298	702.632
143.614	14.267	936.633	701.922
144.629	14.287	935.805	701.325
145.643	14.444	935.154	701.432
146.658	14.345	933.976	700.074
147.673	14.359	933.736	699.888
148.687	14.203	932.757	698.437
149.702	14.338	931.818	698.240
150.716	14.122	931.112	696.744
151.731	14.220	930.163	696.381
152.746	14.233	929.493	695.874
153.760	14.308	928.702	695.531
154.775	14.407	928.038	695.387
155.789	14.343	927.824	694.897
156.804	14.440	926.381	694.160
157.819	14.482	925.948	693.949
158.833	14.422	925.614	693.388
159.848	14.544	924.783	693.211
160.862	14.485	924.051	692.357
161.877	14.512	923.122	691.710
162.892	14.406	922.407	690.673
163.906	14.352	921.976	690.068
164.921	14.411	920.882	689.432
165.935	14.440	919.769	688.657
166.950	14.407	918.717	687.671
167.964	14.493	917.619	687.143
168.979	14.512	916.852	686.588
169.994	14.445	916.383	685.898
171.008	14.335	915.729	684.895
172.023	14.505	914.892	684.907
173.037	14.621	913.686	684.419
174.052	14.549	912.905	683.481
175.067	14.706	912.603	683.837
176.081	14.534	911.830	682.491
177.096	14.552	910.591	681.580
178.110	14.580	909.882	681.101
179.125	14.593	909.392	680.728
180.140	14.652	908.357	680.136
181.154	14.668	907.963	679.844
182.169	14.640	907.806	679.551
183.183	14.675	906.733	678.829
184.198	14.619	906.188	678.136
185.213	14.637	905.385	677.548
186.227	14.757	904.663	677.432
187.242	14.653	904.383	676.740
188.256	14.777	903.729	676.695
189.271	14.934	902.619	676.439
190.286	14.812	902.179	675.557
191.300	14.790	901.435	674.852
192.315	14.738	900.847	674.142
193.329	14.560	900.527	673.124
194.344	14.606	899.752	672.669
195.359	14.706	898.978	672.436
196.373	14.701	898.253	671.814
197.388	14.823	898.061	672.101
198.402	14.795	897.712	671.669
199.417	14.903	896.868	671.410
200.432	14.949	896.487	671.250
201.446	15.021	896.290	671.330
202.461	15.044	895.548	670.810
203.475	15.114	895.077	670.677
204.490	14.964	894.478	669.569
205.504	14.968	893.880	669.076
206.519	14.995	892.852	668.358
207.534	14.994	892.249	667.843
208.548	15.123	891.265	667.563
209.563	15.102	890.954	667.187
210.577	15.007	890.360	666.303
211.592	15.004	889.681	665.725
212.607	15.087	889.078	665.542
213.621	15.065	888.393	664.884
214.636	15.236	887.537	664.863
215.650	15.124	886.915	663.897
216.665	15.019	887.235	663.661
217.680	15.058	886.514	663.218
218.694	15.161	885.879	663.092
219.709	15.296	885.035	662.933
220.723	15.229	884.396	662.131
221.738	15.224	883.922	661.699
222.753	15.046	883.266	660.448
223.767	15.253	882.612	660.716
224.782	15.272	881.304	659.752
225.796	15.275	881.331	659.725
226.811	15.437	880.405	659.610
227.826	15.459	879.448	658.922
228.840	15.279	879.092	657.892
229.855	15.247	878.731	657.437
230.869	15.398	877.364	656.949
231.884	15.240	877.139	656.103
232.899	15.372	876.293	655.926
233.913	15.530	875.074	655.572
234.928	15.382	874.450	654.470
235.942	15.358	874.356	654.249
236.957	15.289	873.761	653.479
237.972	15.404	873.018	653.313
238.986	15.489	872.431	653.145
240.001	15.386	871.966	652.338
241.015	15.352	871.361	651.695
242.030	15.462	870.503	651.423
243.045	15.457	869.690	650.738
244.059	15.387	869.605	650.347
245.074	15.431	868.985	649.995
246.088	15.505	868.032	649.510
247.103	15.591	867.165	649.138
248.117	15.649	866.647	648.916
249.132	15.687	866.162	648.641
250.147	15.576	865.825	647.903
251.161	15.768	864.804	647.823
252.176	15.737	864.007	647.050
253.190	15.800	863.664	646.977
254.205	15.812	862.910	646.400
255.220	15.794	862.942	646.298
256.234	15.718	861.694	645.016
257.249	16.019	861.144	645.700
258.263	15.936	861.021	645.231
259.278	15.785	860.453	644.171
260.293	15.942	859.862	644.272
261.307	16.058	859.101	644.090
262.322	15.950	858.769	643.371
263.336	16.046	858.278	643.312
264.351	16.003	857.484	642.495
265.366	16.101	856.551	642.113
266.380	15.986	856.288	641.420
267.395	15.961	855.957	641.022
268.409	15.999	855.096	640.464
269.424	16.121	854.033	640.074
270.439	16.151	853.232	639.531
271.453	16.066	852.623	638.696
272.468	15.910	852.226	637.753
273.482	16.177	851.202	637.938
274.497	16.054	850.836	637.143
275.512	16.119	850.044	636.741
276.526	16.103	849.316	636.078
277.541	16.145	848.742	635.749
278.555	16.190	848.470	635.658
279.570	16.140	848.197	635.211
280.585	16.148	847.415	634.597
281.599	16.233	846.705	634.329
282.614	16.246	846.049	633.830
283.628	16.246	845.462	633.334
284.643	16.284	844.890	632.994
285.657	16.288	844.637	632.764
286.672	16.194	844.202	632.029
287.687	16.201	843.883	631.760
288.701	16.342	842.954	631.537
289.716	16.262	842.614	630.925
290.730	16.215	842.002	630.237
291.745	16.473	841.061	630.440
292.760	16.404	840.582	629.766
293.774	16.408	839.751	629.102
294.789	16.462	839.301	628.912
295.803	16.387	838.726	628.146
296.818	16.443	837.812	627.614
297.833	16.662	837.080	627.823
298.847	16.401	836.930	626.687
299.862	16.549	836.093	626.554
300.876	16.585	835.170	625.940
301.891	16.528	834.710	625.326
302.906	16.528	834.421	625.058
303.920	16.628	833.630	624.776
304.935	16.568	832.946	623.987
305.949	16.626	832.668	623.938
306.964	16.617	831.932	623.299
307.979	16.748	831.504	623.405
308.993	16.731	830.593	622.605
310.008	16.740	830.419	622.453
311.022	16.729	829.848	621.928
312.037	16.833	829.153	621.734
313.052	16.756	828.959	621.251
314.066	16.760	828.211	620.650
315.081	16.687	827.686	619.934
316.095	16.776	826.797	619.539
317.110	16.769	826.427	619.183
318.125	16.784	826.107	618.943
319.139	16.899	825.315	618.713
320.154	16.867	824.835	618.183
321.168	16.707	824.309	617.150
322.183	16.745	824.045	617.038
323.197	16.904	823.282	616.990
324.212	16.961	822.498	616.553
325.227	16.918	822.207	616.125
326.241	16.921	821.359	615.448
327.256	16.778	821.227	614.774
328.270	16.869	820.691	614.650
329.285	16.880	820.151	614.230
330.300	17.010	819.453	614.122
331.314	16.908	819.153	613.477
332.329	16.807	818.458	612.536
333.343	17.082	817.541	612.789
334.358	16.837	817.520	611.831
335.373	16.911	817.260	611.853
336.387	17.024	816.130	611.360
337.402	17.002	815.508	610.759
338.416	17.116	815.399	611.035
339.431	17.122	814.560	610.374
340.446	17.126	814.189	610.055
341.460	17.127	813.253	609.304
342.475	17.347	812.567	609.522
343.489	17.241	812.538	609.067
344.504	17.237	811.863	608.493
345.519	17.235	811.359	608.056
346.533	17.188	811.219	607.729
347.548	17.297	810.578	607.585
348.562	17.326	810.009	607.209
349.577	17.322	809.317	606.622
350.592	17.357	809.023	606.473
351.606	17.402	808.083	605.875
352.621	17.428	807.631	605.572
353.635	17.194	807.684	604.728
354.650	17.244	807.283	604.551
355.665	17.436	806.081	604.279
356.679	17.260	806.187	603.680
357.694	17.314	805.656	603.420
358.708	17.445	805.138	603.443
359.723	17.356	804.407	602.527
360.738	17.428	803.798	602.274
361.752	17.350	803.676	601.854
362.767	17.511	803.201	602.012
363.781	17.404	803.002	601.433
364.796	17.503	802.124	601.069
365.810	17.485	801.546	600.522
366.825	17.543	801.495	600.635
367.840	17.620	801.455	600.824
368.854	17.646	800.668	600.272
369.869	17.560	800.361	599.684
370.883	17.619	799.636	599.297
371.898	17.739	798.999	599.187
372.913	17.798	798.183	598.731
373.927	17.599	798.118	597.929
374.942	17.750	797.463	597.915
375.956	17.678	796.743	597.071
376.971	17.856	795.892	597.001
377.986	17.824	795.609	596.624
379.000	17.811	794.904	595.997
380.015	17.994	794.233	596.083
381.029	17.883	794.012	595.476
382.044	17.772	793.666	594.775
383.059	17.965	793.176	595.028
384.073	17.869	792.716	594.299
385.088	17.965	792.037	594.067
386.102	17.905	791.470	593.383
387.117	17.747	791.125	592.523
388.132	17.793	790.740	592.341
389.146	17.847	790.312	592.155
390.161	17.861	790.039	591.947
391.175	17.977	789.709	592.051
392.190	17.966	789.466	591.777
393.205	18.007	788.681	591.280
394.219	17.997	788.003	590.684
395.234	17.810	787.787	589.823
396.248	17.949	787.106	589.741
397.263	17.952	787.052	589.658
398.278	17.917	786.614	589.158
399.292	17.875	786.067	588.552
400.307	17.815	785.394	587.788
401.321	18.109	784.985	588.443
402.336	18.082	784.226	587.728
403.350	18.066	784.330	587.699
404.365	17.968	783.948	587.022
405.380	17.976	783.746	586.849
406.394	18.179	783.077	586.993
407.409	18.334	782.417	586.975
408.423	18.262	781.851	586.253
409.438	18.239	781.652	585.974
410.453	18.323	780.902	585.647
411.467	18.436	780.410	585.611
412.482	18.460	779.598	585.032
413.496	18.271	779.523	584.281
414.511	18.400	779.493	584.648
415.526	18.471	779.242	584.647
416.540	18.466	778.462	583.996
417.555	18.474	777.944	583.581
418.569	18.475	777.887	583.489
419.584	18.424	776.946	582.559
420.599	18.433	776.935	582.531
421.613	115.346	1294.183	1483.410
422.628	98.907	1369.505	1483.478
