DTS Sentinel unit serial number:	SN413079Multiplexer serial number:	ORYXHardware model number:	OX4-SRSoftware version number:	ORYX F/W v4.00 Oryx Data Collector v3.7.2.0data status	okinstallation	princeton_trtdifferential loss correction	single-endedforward channel	channel 3reverse channel	N/Adate	2019/09/13time	10:28:35forward acquisition time	60.00reverse acquisition time	0.00gamma	496.2192k internal	0.2321k external	0.2321temperature offset calibration	1.0139default loss term (dB/km)	0.3790temperature slope calibration	1.0000multiplexer offset coefficient	1.0000multiplexer slope coefficient	1.0000fibre end	0.00T internal ref (°C)	31.09T ext. ref 1 (°C)	4.55T ext. ref 2 (°C)	28.10length (m)	temperature (°C)	Stokes	anti-Stokes-747.200	324.027	0.090	-0.174
-746.185	349.992	0.044	-0.089
-745.171	47.390	-0.445	-0.419
-744.156	700.914	0.074	-0.196
-743.142	66.125	-0.118	-0.121
-742.127	115.792	0.325	0.402
-741.112	125.351	0.205	0.261
-740.098	-149.160	-0.102	-0.008
-739.083	173.026	0.031	-0.045
-738.069	-200.000	-0.000	0.357
-737.054	101.373	-0.070	0.082
-736.039	800.000	-0.026	0.110
-735.025	800.000	0.037	-0.114
-734.010	249.705	-0.091	0.156
-732.996	-200.000	0.001	0.125
-731.981	552.204	-0.070	0.170
-730.966	75.263	0.065	-0.069
-729.952	-200.000	0.061	-0.341
-728.937	105.427	-0.129	-0.154
-727.923	-200.000	0.004	0.170
-726.908	-200.000	0.047	-0.269
-725.894	-30.121	0.140	0.080
-724.879	800.000	-0.038	-0.119
-723.864	-194.911	-0.199	0.002
-722.850	-66.697	0.258	0.103
-721.835	-143.879	-0.529	0.050
-720.821	-83.468	-0.287	0.093
-719.806	-27.466	-0.253	-0.148
-718.791	800.000	-0.029	0.101
-717.777	65.839	0.093	0.096
-716.762	-200.000	-0.021	0.259
-715.748	118.722	-0.271	-0.338
-714.733	-200.000	0.064	-0.293
-713.718	-9.711	-0.237	-0.159
-712.704	654.430	-0.055	0.142
-711.689	-127.707	0.099	-0.014
-710.675	-40.143	0.373	-0.196
-709.660	-168.407	-0.259	-0.010
-708.645	-56.820	0.165	0.073
-707.631	-120.609	-0.222	0.038
-706.616	17.511	0.152	-0.122
-705.602	174.649	0.144	-0.211
-704.587	-130.914	-0.060	-0.008
-703.572	509.936	-0.062	-0.147
-702.558	-27.930	0.108	0.063
-701.543	-200.000	0.003	0.151
-700.529	-25.881	-0.168	-0.100
-699.514	-122.962	0.197	0.032
-698.499	800.000	0.034	-0.100
-697.485	298.285	0.057	-0.106
-696.470	164.052	-0.144	0.204
-695.456	132.231	0.090	-0.116
-694.441	-89.112	-0.200	0.060
-693.426	56.992	0.248	-0.244
-692.412	-149.529	-0.295	0.024
-691.397	407.516	0.041	-0.087
-690.383	82.965	-0.131	-0.143
-689.368	14.307	-0.377	0.296
-688.354	98.364	-0.096	-0.111
-687.339	-200.000	0.033	0.199
-686.324	372.469	-0.033	0.068
-685.310	342.646	-0.114	-0.225
-684.295	336.175	-0.252	0.492
-683.281	-10.437	-0.126	-0.084
-682.266	-126.192	-0.096	-0.015
-681.251	72.289	0.126	-0.133
-680.237	43.749	-0.310	-0.287
-679.222	800.000	-0.139	-0.409
-678.208	-79.274	0.145	0.050
-677.193	127.369	-0.159	-0.203
-676.178	-88.491	-0.358	-0.108
-675.164	497.061	-0.127	0.294
-674.149	-18.734	-0.214	-0.134
-673.135	-200.000	0.052	0.349
-672.120	-70.478	-0.083	0.032
-671.105	-109.621	-0.026	0.006
-670.091	-117.991	-0.331	0.060
-669.076	800.000	-0.101	-0.296
-668.062	43.882	0.147	-0.136
-667.047	800.000	-0.058	-0.227
-666.032	-139.514	0.025	-0.003
-665.018	385.872	-0.133	-0.276
-664.003	-200.000	0.118	-0.556
-662.989	13.667	0.166	-0.130
-661.974	-200.000	-0.067	-0.353
-660.959	-150.783	-0.144	-0.011
-659.945	-70.412	0.325	0.124
-658.930	64.550	-0.212	0.216
-657.916	-157.063	0.278	0.017
-656.901	172.963	-0.167	-0.242
-655.886	-200.000	0.031	0.321
-654.872	-76.819	-0.203	-0.071
-653.857	-200.000	0.006	-0.172
-652.843	800.000	-0.052	-0.160
-651.828	-200.000	0.007	-0.175
-650.814	3.402	-0.177	-0.130
-649.799	-42.385	0.321	-0.165
-648.784	51.898	-0.050	0.048
-647.770	32.309	0.093	0.081
-646.755	-200.000	-0.068	-0.403
-645.741	-144.362	0.456	-0.043
-644.726	-200.000	0.022	0.176
-643.711	752.714	0.225	-0.613
-642.697	72.312	-0.137	-0.144
-641.682	249.198	0.189	-0.322
-640.668	-140.953	-0.257	0.027
-639.653	31.249	-0.170	-0.147
-638.638	-200.000	0.002	-0.023
-637.624	238.015	-0.078	0.130
-636.609	-167.151	-0.064	-0.003
-635.595	3.171	0.017	-0.012
-634.580	-200.000	-0.029	-0.375
-633.565	674.283	0.133	-0.348
-632.551	-118.534	0.288	-0.051
-631.536	-6.625	0.247	-0.169
-630.522	-33.212	0.392	-0.219
-629.507	-145.750	-0.354	0.032
-628.492	-200.000	-0.033	0.167
-627.478	168.019	0.042	-0.061
-626.463	-144.808	0.219	-0.020
-625.449	60.414	0.156	-0.155
-624.434	-33.420	-0.170	-0.094
-623.419	619.005	0.092	0.232
-622.405	-16.157	0.437	0.279
-621.390	800.000	0.035	0.152
-620.376	-200.000	0.028	0.193
-619.361	-79.571	-0.114	0.039
-618.346	-163.447	0.370	0.018
-617.332	-8.192	0.065	0.044
-616.317	-55.274	0.126	-0.057
-615.303	-147.940	0.306	-0.026
-614.288	-118.338	0.291	0.052
-613.273	-84.069	-0.331	-0.106
-612.259	-33.144	0.249	-0.139
-611.244	181.895	0.104	0.154
-610.230	-200.000	-0.024	-0.355
-609.215	-153.159	0.229	0.016
-608.201	-85.791	-0.073	0.023
-607.186	-27.768	0.344	-0.201
-606.171	-72.415	0.394	-0.147
-605.157	-200.000	-0.008	-0.162
-604.142	317.259	0.055	0.104
-603.128	-171.968	-0.195	0.006
-602.113	642.027	0.135	-0.346
-601.098	181.519	-0.217	-0.320
-600.084	421.431	0.142	-0.307
-599.069	-200.000	0.021	-0.190
-598.055	3.922	0.076	-0.056
-597.040	-60.698	-0.216	-0.092
-596.025	-63.014	0.273	-0.113
-595.011	-165.117	-0.356	0.016
-593.996	31.513	0.051	-0.044
-592.982	45.937	-0.212	0.197
-591.967	-81.027	-0.140	0.046
-590.952	89.870	0.052	0.058
-589.938	168.789	-0.213	-0.305
-588.923	170.680	-0.121	-0.174
-587.909	-68.422	0.182	0.071
-586.894	425.799	-0.023	0.051
-585.879	96.550	-0.103	-0.119
-584.865	417.419	0.028	0.059
-583.850	-107.354	0.255	0.056
-582.836	-149.077	0.055	-0.004
-581.821	-200.000	0.010	0.083
-580.806	800.000	-0.069	0.232
-579.792	-200.000	-0.052	-0.451
-578.777	-44.053	-0.124	0.063
-577.763	-200.000	-0.028	-0.214
-576.748	-44.299	0.128	0.064
-575.733	-140.837	0.224	0.023
-574.719	-200.000	0.258	-0.001
-573.704	-7.584	-0.352	0.239
-572.690	-200.000	0.008	0.037
-571.675	-200.000	-0.016	-0.261
-570.661	-200.000	-0.024	-0.246
-569.646	84.496	0.218	0.240
-568.631	-63.727	0.165	-0.068
-567.617	-136.422	-0.376	-0.044
-566.602	-38.998	-0.308	-0.163
-565.588	-96.276	0.110	0.029
-564.573	238.949	-0.147	0.246
-563.558	-200.000	-0.032	-0.313
-562.544	134.368	-0.086	-0.112
-561.529	-200.000	0.029	0.277
-560.515	-51.088	0.369	-0.174
-559.500	-200.000	0.025	-0.205
-558.485	-101.987	-0.145	0.035
-557.471	800.000	0.039	-0.142
-556.456	-132.949	-0.114	0.015
-555.442	800.000	0.054	0.210
-554.427	-35.128	0.328	-0.179
-553.412	-90.308	-0.095	-0.028
-552.398	-26.668	-0.251	-0.147
-551.383	-84.651	-0.225	0.071
-550.369	-119.369	-0.213	-0.037
-549.354	-37.813	-0.130	-0.069
-548.339	-31.977	-0.326	0.183
-547.325	-200.000	0.026	-0.158
-546.310	21.423	0.109	0.089
-545.296	4.760	-0.168	0.124
-544.281	61.969	0.124	-0.124
-543.266	525.897	-0.060	0.142
-542.252	800.000	-0.017	-0.050
-541.237	-171.775	0.110	0.004
-540.223	44.091	0.210	0.194
-539.208	431.270	-0.101	0.219
-538.193	800.000	-0.036	0.144
-537.179	-200.000	-0.001	0.389
-536.164	11.273	0.125	-0.096
-535.150	-91.994	-0.131	0.037
-534.135	97.631	0.279	0.322
-533.121	191.951	0.238	0.359
-532.106	40.453	-0.101	-0.091
-531.091	14.881	-0.383	-0.300
-530.077	49.546	0.338	0.319
-529.062	-106.737	-0.327	-0.073
-528.048	150.755	0.054	-0.073
-527.033	-133.601	-0.284	-0.036
-526.018	-18.766	0.247	0.154
-525.004	-130.650	-0.106	-0.014
-523.989	228.097	0.095	0.154
-522.975	-200.000	0.044	0.203
-521.960	203.851	-0.118	-0.183
-520.945	800.000	-0.050	-0.211
-519.931	76.787	0.192	-0.204
-518.916	-200.000	0.064	-0.379
-517.902	800.000	-0.017	-0.046
-516.887	-200.000	-0.022	0.241
-515.872	94.459	-0.169	0.192
-514.858	19.398	0.190	-0.153
-513.843	-22.295	0.065	0.039
-512.829	800.000	0.086	0.242
-511.814	-39.293	-0.307	-0.161
-510.799	-133.217	-0.292	0.037
-509.785	100.060	0.083	-0.096
-508.770	66.474	0.280	-0.285
-507.756	-200.000	0.019	-0.330
-506.741	-200.000	-0.038	0.179
-505.726	-134.702	-0.421	0.051
-504.712	-3.314	-0.247	0.172
-503.697	-200.000	-0.002	0.016
-502.683	-200.000	0.009	0.076
-501.668	-69.951	-0.117	-0.045
-500.653	-128.523	0.268	-0.038
-499.639	-200.000	-0.018	0.159
-498.624	17.215	-0.084	-0.067
-497.610	-44.956	-0.124	-0.062
-496.595	-52.408	-0.327	0.152
-495.581	-142.580	-0.194	-0.019
-494.566	-109.176	-0.084	0.018
-493.551	31.930	-0.112	-0.097
-492.537	-130.324	-0.177	-0.024
-491.522	49.788	0.231	-0.218
-490.508	-127.136	-0.248	-0.036
-489.493	-200.000	0.012	-0.219
-488.478	-166.897	-0.355	0.015
-487.464	86.781	-0.110	-0.121
-486.449	-200.000	0.009	-0.241
-485.435	-200.000	-0.014	0.073
-484.420	65.522	0.080	-0.081
-483.405	3.340	0.263	-0.192
-482.391	477.490	-0.147	-0.333
-481.376	-200.000	-0.011	-0.166
-480.362	800.000	-0.074	0.287
-479.347	-143.769	-0.332	0.031
-478.332	800.000	-0.102	0.438
-477.318	-89.964	0.423	-0.124
-476.303	-200.000	-0.076	-0.354
-475.289	-64.095	0.205	-0.083
-474.274	-80.928	0.139	-0.046
-473.259	-200.000	0.200	-0.000
-472.245	450.212	-0.170	0.375
-471.230	-120.462	-0.116	0.020
-470.216	-200.000	-0.017	0.078
-469.201	-200.000	0.006	-0.338
-468.186	-76.310	-0.383	0.135
-467.172	102.145	0.091	0.106
-466.157	-92.315	-0.163	-0.046
-465.143	-79.820	-0.058	-0.019
-464.128	384.344	-0.075	-0.154
-463.113	-71.301	-0.145	-0.054
-462.099	800.000	0.077	0.256
-461.084	-55.747	-0.334	-0.149
-460.070	41.642	-0.114	-0.103
-459.055	-15.372	0.052	0.033
-458.040	115.021	0.146	0.178
-457.026	-154.376	-0.126	-0.008
-456.011	-113.277	0.139	0.027
-454.997	-200.000	0.002	0.080
-453.982	-200.000	0.034	-0.211
-452.968	295.855	-0.130	-0.239
-451.953	422.212	-0.043	-0.092
-450.938	5.262	0.148	0.109
-449.924	-79.326	0.137	-0.046
-448.909	112.117	-0.103	-0.124
-447.895	-96.460	-0.261	0.069
-446.880	-129.323	-0.140	0.019
-445.865	-65.119	-0.287	0.116
-444.851	-125.591	-0.410	0.062
-443.836	-37.809	0.084	-0.044
-442.822	50.228	0.305	-0.288
-441.807	23.286	-0.150	-0.123
-440.792	-48.717	-0.325	-0.156
-439.778	309.693	-0.092	-0.172
-438.763	-55.992	-0.101	0.045
-437.749	181.927	0.078	0.115
-436.734	86.207	-0.085	-0.094
-435.719	-34.908	0.315	0.171
-434.705	117.669	-0.084	-0.104
-433.690	-120.347	-0.163	0.028
-432.676	63.412	-0.245	-0.245
-431.661	-63.002	-0.308	-0.127
-430.646	800.000	0.099	0.353
-429.632	-200.000	0.048	-0.249
-428.617	-111.097	0.100	-0.020
-427.603	800.000	0.022	0.081
-426.588	800.000	-0.074	-0.207
-425.573	800.000	-0.040	-0.134
-424.559	36.773	0.257	-0.227
-423.544	-128.862	-0.162	0.023
-422.530	75.194	-0.103	-0.109
-421.515	-200.000	-0.010	0.471
-420.500	-119.087	0.223	0.039
-419.486	116.512	-0.156	-0.191
-418.471	684.205	-0.076	-0.198
-417.457	-200.000	-0.018	-0.129
-416.442	-43.411	-0.233	0.118
-415.428	-117.968	0.183	-0.033
-414.413	-114.208	-0.217	0.042
-413.398	800.000	0.116	0.475
-412.384	707.689	-0.108	-0.284
-411.369	318.844	0.008	0.015
-410.355	484.662	0.064	0.144
-409.340	291.768	0.154	-0.281
-408.325	386.525	0.149	0.306
-407.311	36.704	0.397	-0.350
-406.296	0.114	0.123	-0.087
-405.282	19.220	-0.227	-0.182
-404.267	-85.601	-0.118	-0.036
-403.252	-67.151	-0.295	0.116
-402.238	86.055	0.099	0.109
-401.223	96.163	-0.055	0.063
-400.209	17.913	-0.212	0.168
-399.194	423.426	0.032	0.069
-398.179	49.386	-0.107	-0.100
-397.165	-12.450	0.224	0.146
-396.150	-39.367	-0.072	0.038
-395.136	-26.021	0.076	0.045
-394.121	253.249	-0.064	-0.108
-393.106	-39.663	-0.129	0.067
-392.092	800.000	-0.087	0.329
-391.077	800.000	-0.116	-0.332
-390.063	250.405	0.182	0.309
-389.048	144.883	-0.268	0.358
-388.033	-200.000	0.009	0.245
-387.019	-200.000	-0.011	-0.179
-386.004	119.509	-0.328	0.405
-384.990	-63.449	0.153	0.063
-383.975	-72.466	-0.098	0.036
-382.960	121.415	-0.130	0.161
-381.946	800.000	0.106	0.311
-380.931	21.400	0.340	0.275
-379.917	23.569	-0.112	0.092
-378.902	-200.000	-0.269	-0.001
-377.888	-115.334	-0.154	0.029
-376.873	-146.528	0.124	-0.011
-375.858	-200.000	-0.010	0.244
-374.844	-85.845	0.202	-0.062
-373.829	121.852	-0.167	-0.208
-372.815	-149.546	0.302	0.024
-371.800	95.785	0.152	-0.173
-370.785	-18.229	0.191	-0.119
-369.771	-44.149	-0.221	-0.110
-368.756	683.663	-0.130	-0.339
-367.742	123.383	-0.041	-0.051
-366.727	10.371	-0.170	-0.129
-365.712	213.937	-0.067	0.106
-364.698	621.114	-0.091	0.228
-363.683	-200.000	0.060	-0.285
-362.669	68.830	-0.280	-0.286
-361.654	206.854	0.109	-0.169
-360.639	-38.834	-0.137	-0.072
-359.625	-9.911	0.258	-0.171
-358.610	-61.408	-0.353	0.148
-357.596	-156.101	0.269	-0.017
-356.581	-200.000	-0.013	0.127
-355.566	268.323	0.075	0.130
-354.552	-200.000	-0.000	0.266
-353.537	-39.285	0.327	0.171
-352.523	-92.138	0.243	-0.068
-351.508	560.600	-0.086	-0.208
-350.493	-172.151	-0.442	0.014
-349.479	170.515	0.175	0.250
-348.464	-200.000	0.013	-0.277
-347.450	111.060	0.027	-0.033
-346.435	-113.389	0.489	0.095
-345.420	-167.992	0.107	-0.004
-344.406	776.033	0.110	-0.298
-343.391	289.404	-0.103	0.186
-342.377	-4.011	0.144	-0.099
-341.362	58.517	0.186	0.181
-340.348	-27.971	-0.305	0.176
-339.333	-12.096	-0.039	-0.025
-338.318	385.373	0.150	-0.308
-337.304	167.786	0.221	-0.313
-336.289	-200.000	0.000	0.058
-335.275	-36.597	0.256	0.137
-334.260	289.872	-0.110	0.198
-333.245	239.633	0.088	0.145
-332.231	386.880	0.198	0.407
-331.216	-200.000	0.035	0.257
-330.202	-82.952	0.143	0.046
-329.187	11.240	-0.285	0.217
-328.172	-145.498	0.158	0.014
-327.158	-88.341	-0.272	0.081
-326.143	-25.682	-0.204	-0.119
-325.129	-200.000	0.016	0.136
-324.114	-200.000	-0.002	0.205
-323.099	314.642	-0.154	-0.288
-322.085	-156.259	0.429	-0.027
-321.070	800.000	0.081	-0.335
-320.056	-16.865	-0.099	-0.062
-319.041	-132.558	0.239	-0.031
-318.026	223.561	0.198	-0.317
-317.012	316.421	0.047	0.088
-315.997	756.360	-0.054	0.145
-314.983	10.195	0.256	-0.193
-313.968	7.174	-0.213	0.158
-312.953	800.000	-0.071	0.277
-311.939	-200.000	-0.126	0.603
-310.924	192.528	-0.193	0.289
-309.910	18.379	-0.221	0.176
-308.895	159.030	0.130	-0.179
-307.880	-129.682	0.190	0.026
-306.866	567.274	0.126	0.304
-305.851	800.000	-0.033	-0.105
-304.837	-49.118	-0.127	0.061
-303.822	339.077	0.117	0.226
-302.807	110.564	0.060	-0.072
-301.793	156.634	0.029	-0.040
-300.778	-200.000	-0.036	0.402
-299.764	-103.953	0.293	-0.068
-298.749	-88.503	-0.231	-0.068
-297.735	-200.000	-0.082	-0.422
-296.720	-28.247	-0.214	-0.123
-295.705	-200.000	0.017	0.148
-294.691	132.722	0.078	0.100
-293.676	-59.956	-0.264	-0.112
-292.662	119.095	0.014	0.017
-291.647	-87.004	0.249	-0.075
-290.632	7.845	-0.137	0.102
-289.618	66.328	0.220	0.222
-288.603	-115.865	0.269	0.050
-287.589	225.417	0.149	-0.239
-286.574	257.417	-0.139	0.237
-285.559	-6.850	-0.344	-0.232
-284.545	62.884	-0.079	-0.079
-283.530	-87.381	-0.251	-0.075
-282.516	-21.385	0.139	-0.084
-281.501	-72.962	-0.035	-0.013
-280.486	-128.985	-0.148	0.021
-279.472	-129.310	0.290	0.040
-278.457	55.349	0.162	0.155
-277.443	237.931	-0.076	0.125
-276.428	229.071	-0.098	0.159
-275.413	-11.711	0.177	0.115
-274.399	-48.355	0.148	0.071
-273.384	-164.151	0.205	0.009
-272.370	-69.267	0.016	0.006
-271.355	-200.000	-0.003	-0.148
-270.340	-200.000	-0.016	-0.083
-269.326	-200.000	-0.037	-0.274
-268.311	96.733	-0.198	-0.225
-267.297	800.000	-0.049	-0.180
-266.282	21.065	-0.228	0.184
-265.267	471.429	-0.061	-0.137
-264.253	422.901	-0.079	-0.169
-263.238	-200.000	0.006	0.204
-262.224	-103.365	-0.148	0.035
-261.209	39.771	-0.101	0.090
-260.195	144.276	-0.158	-0.210
-259.180	-75.778	0.315	-0.111
-258.165	-200.000	-0.016	0.178
-257.151	-64.422	0.306	0.123
-256.136	152.249	-0.046	0.063
-255.122	40.980	-0.137	-0.123
-254.107	-5.260	-0.159	0.108
-253.092	105.112	-0.118	-0.138
-252.078	-3.241	0.243	-0.168
-251.063	62.624	0.133	-0.132
-250.049	-94.992	0.283	-0.076
-249.034	-200.000	0.028	0.262
-248.019	12.196	0.301	0.230
-247.005	-187.170	0.115	0.002
-245.990	-158.754	0.172	0.010
-244.976	-46.149	0.351	0.171
-243.961	-52.761	0.171	-0.078
-242.946	220.459	0.079	0.126
-241.932	128.731	0.201	0.254
-240.917	766.814	-0.069	-0.186
-239.903	-200.000	0.007	0.336
-238.888	259.743	0.110	0.189
-237.873	25.037	-0.131	-0.108
-236.859	-127.177	0.081	-0.012
-235.844	-60.573	0.096	-0.040
-234.830	800.000	-0.073	-0.213
-233.815	49.592	-0.331	-0.308
-232.800	-109.582	0.308	-0.064
-231.786	-200.000	-0.002	0.121
-230.771	-138.244	0.201	0.022
-229.757	800.000	0.016	-0.063
-228.742	-200.000	-0.022	0.126
-227.727	-200.000	0.049	-0.258
-226.713	-200.000	-0.030	0.194
-225.698	-89.721	0.423	0.123
-224.684	-102.268	-0.456	0.108
-223.669	38.495	0.050	-0.044
-222.655	152.431	-0.084	0.114
-221.640	91.735	0.063	-0.071
-220.625	-95.359	0.172	0.046
-219.611	800.000	-0.064	0.194
-218.596	669.128	0.142	0.365
-217.582	800.000	-0.026	0.101
-216.567	20.852	0.230	-0.184
-215.552	19.246	-0.114	-0.090
-214.538	800.000	-0.032	0.139
-213.523	149.067	0.071	-0.095
-212.509	35.555	0.090	0.078
-211.494	256.765	-0.151	0.258
-210.479	800.000	-0.072	-0.198
-209.465	402.397	0.102	-0.211
-208.450	675.454	0.092	-0.235
-207.436	-65.750	0.216	-0.085
-206.421	-50.627	-0.346	-0.161
-205.406	-200.000	-0.003	0.091
-204.392	277.706	-0.162	-0.285
-203.377	-200.000	0.023	0.118
-202.363	-147.856	-0.134	-0.011
-201.348	-200.000	0.063	-0.279
-200.333	800.000	-0.026	0.108
-199.319	424.653	-0.102	-0.218
-198.304	-200.000	-0.034	-0.183
-197.290	212.855	-0.060	-0.093
-196.275	-105.602	0.267	0.060
-195.260	134.219	-0.298	0.382
-194.246	-111.702	0.344	0.069
-193.231	-74.470	0.178	-0.063
-192.217	-200.000	-0.066	-0.299
-191.202	56.490	0.231	0.222
-190.187	-200.000	-0.020	0.090
-189.173	534.542	-0.077	0.180
-188.158	-200.000	-0.011	0.130
-187.144	174.272	-0.228	0.327
-186.129	-200.000	0.011	0.052
-185.114	68.752	-0.124	-0.126
-184.100	-130.607	0.261	0.035
-183.085	2.447	0.109	0.078
-182.071	-124.783	-0.187	0.029
-181.056	-33.482	0.157	0.086
-180.042	289.611	0.164	-0.294
-179.027	-200.000	-0.067	0.315
-178.012	605.270	-0.193	0.476
-176.998	-8.881	0.327	0.216
-175.983	-153.208	0.286	0.020
-174.969	-129.431	-0.278	-0.038
-173.954	-110.371	0.145	0.030
-172.939	-10.203	0.130	-0.085
-171.925	-200.000	0.028	0.172
-170.910	-200.000	0.084	0.384
-169.896	322.070	-0.160	0.301
-168.881	444.999	0.143	-0.311
-167.866	-85.987	-0.243	0.074
-166.852	-71.998	-0.255	0.094
-165.837	393.183	-0.193	0.397
-164.823	-200.000	-0.044	0.338
-163.808	-200.000	-0.002	0.145
-162.793	-27.911	-0.086	0.049
-161.779	800.000	-0.080	0.219
-160.764	-0.819	-0.132	0.093
-159.750	-30.399	-0.098	-0.055
-158.735	-200.000	0.045	-0.344
-157.720	7.776	0.103	0.076
-156.706	-200.000	0.025	0.272
-155.691	-54.865	-0.325	0.145
-154.677	345.391	-0.018	0.034
-153.662	800.000	-0.055	-0.225
-152.647	-94.866	-0.312	-0.083
-151.633	-200.000	-0.027	0.152
-150.618	-67.821	0.205	-0.079
-149.604	-200.000	0.031	0.211
-148.589	645.835	-0.153	0.386
-147.574	800.000	0.133	-0.380
-146.560	-67.997	-0.582	0.224
-145.545	-200.000	0.064	0.319
-144.531	431.460	-0.103	0.221
-143.516	166.292	0.140	0.196
-142.502	-105.324	-0.188	-0.042
-141.487	-6.863	0.152	-0.102
-140.472	428.694	-0.076	-0.162
-139.458	-91.932	0.079	0.022
-138.443	-94.780	0.150	-0.040
-137.429	132.793	0.160	0.204
-136.414	-67.263	0.206	0.080
-135.399	800.000	0.122	-0.408
-134.385	800.000	-0.040	0.114
-133.370	117.233	0.253	0.306
-132.356	620.603	0.061	-0.151
-131.341	312.792	-0.128	-0.237
-130.326	-159.889	-0.063	0.003
-129.312	224.871	0.160	-0.256
-128.297	64.921	-0.059	-0.059
-127.283	246.289	-0.257	-0.427
-126.268	188.284	0.212	-0.313
-125.253	-59.865	0.211	-0.089
-124.239	19.110	0.094	-0.074
-123.224	-144.770	-0.263	-0.024
-122.210	259.178	0.037	-0.062
-121.195	-192.716	-0.157	-0.001
-120.180	800.000	0.049	-0.158
-119.166	104.845	-0.148	-0.172
-118.151	-16.194	-0.177	-0.111
-117.137	-67.058	-0.132	-0.051
-116.122	-187.273	0.210	0.003
-115.107	-48.219	-0.124	-0.059
-114.093	-2.613	0.137	-0.095
-113.078	-154.817	0.203	0.013
-112.064	139.241	-0.245	0.318
-111.049	-200.000	0.029	0.194
-110.034	-139.856	0.165	-0.017
-109.020	-118.341	-0.090	-0.016
-108.005	-24.376	-0.193	0.113
-106.991	124.758	0.069	0.086
-105.976	278.871	0.110	0.194
-104.962	800.000	-0.085	0.243
-103.947	712.250	-0.119	-0.310
-102.932	-200.000	-0.013	0.182
-101.918	-88.704	-0.201	0.059
-100.903	-126.795	0.253	0.037
-99.889	-7.586	0.317	0.211
-98.874	-157.905	0.205	-0.012
-97.859	-30.467	0.254	-0.142
-96.845	800.000	0.113	-0.442
-95.830	-200.000	-0.037	-0.244
-94.816	-82.081	0.140	0.045
-93.801	-200.000	0.022	-0.216
-92.786	800.000	0.038	-0.135
-91.772	-148.839	0.335	0.027
-90.757	34.997	0.042	-0.036
-89.743	800.000	0.221	-0.628
-88.728	-200.000	0.008	0.176
-87.713	1.835	-0.170	-0.121
-86.699	35.667	0.102	-0.088
-85.684	54.956	-0.287	0.273
-84.670	-16.917	0.254	-0.158
-83.655	-200.000	0.015	-0.192
-82.640	36.676	-0.198	-0.172
-81.626	15.214	0.121	-0.093
-80.611	-35.973	-0.423	0.225
-79.597	-98.968	-0.121	-0.030
-78.582	34.867	-0.181	-0.156
-77.567	26.301	0.215	-0.176
-76.553	800.000	0.075	0.311
-75.538	201.794	-0.200	0.303
-74.524	-109.835	0.125	-0.026
-73.509	200.104	0.086	0.129
-72.494	-200.000	0.047	0.281
-71.480	-185.718	-0.462	-0.007
-70.465	6.180	0.244	-0.178
-69.451	800.000	-0.138	-0.401
-68.436	-17.451	-0.064	-0.040
-67.422	-111.819	0.164	-0.033
-66.407	-116.362	-0.018	0.003
-65.392	-47.886	0.256	-0.122
-64.378	-157.322	-0.383	0.023
-63.363	404.853	0.050	0.104
-62.349	-106.696	0.174	-0.038
-61.334	117.352	-0.815	-0.986
-60.319	315.018	0.385	0.714
-59.305	662.823	-0.303	-0.768
-58.290	82.165	0.994	1.061
-57.276	409.112	0.723	1.506
-56.261	-200.000	96.850	595.589
-55.246	613.292	1399.865	3447.643
-54.232	190.643	2599.081	3843.200
-53.217	118.897	2185.330	2656.679
-52.203	42.203	1719.463	1536.431
-51.188	34.313	1530.137	1313.094
-50.173	31.908	1503.454	1273.830
-49.159	52.345	1553.028	1457.271
-48.144	53.553	1570.085	1481.545
-47.130	34.625	1530.165	1315.060
-46.115	31.469	1514.893	1280.313
-45.100	31.147	1512.184	1275.775
-44.086	31.280	1509.784	1274.604
-43.071	31.154	1507.802	1272.025
-42.057	31.152	1506.095	1270.521
-41.042	31.115	1505.413	1269.645
-40.027	31.117	1503.852	1268.287
-39.013	31.099	1502.056	1266.599
-37.998	31.122	1500.357	1265.277
-36.984	31.047	1499.071	1263.632
-35.969	31.051	1498.118	1262.808
-34.954	31.061	1497.057	1261.929
-33.940	30.959	1495.779	1260.115
-32.925	31.081	1494.259	1259.608
-31.911	31.109	1492.931	1258.623
-30.896	31.181	1491.053	1257.480
-29.881	31.180	1489.725	1256.304
-28.867	31.227	1488.583	1255.607
-27.852	31.214	1487.325	1254.403
-26.838	31.179	1485.634	1252.695
-25.823	31.197	1484.444	1251.760
-24.809	31.169	1482.302	1249.716
-23.794	31.215	1480.997	1248.877
-22.779	31.028	1480.425	1247.097
-21.765	31.148	1478.732	1246.422
-20.750	31.216	1477.303	1245.623
-19.736	31.066	1476.899	1244.232
-18.721	31.116	1475.529	1243.356
-17.706	31.033	1474.363	1241.776
-16.692	31.085	1473.184	1241.078
-15.677	31.103	1471.920	1240.082
-14.663	31.103	1471.022	1239.280
-13.648	30.972	1470.216	1237.677
-12.633	30.975	1469.365	1236.933
-11.619	31.116	1468.231	1236.864
-10.604	31.102	1467.467	1236.083
-9.590	31.031	1466.854	1235.042
-8.575	31.037	1465.949	1234.276
-7.560	31.122	1464.988	1233.978
-6.546	31.080	1464.120	1232.920
-5.531	30.995	1463.326	1231.642
-4.517	30.982	1462.792	1231.054
-3.502	31.072	1461.279	1230.325
-2.487	31.088	1460.340	1229.593
-1.473	30.957	1459.572	1228.036
-0.458	31.019	1458.030	1227.098
0.556	33.064	1448.988	1217.740
1.571	30.195	1422.830	1177.465
2.586	26.521	1361.876	1104.546
3.600	24.801	1279.203	1027.535
4.615	22.895	1233.199	979.930
5.629	19.418	1175.961	915.934
6.644	11.662	1091.966	812.048
7.659	5.599	1052.441	753.486
8.673	4.766	1047.025	745.556
9.688	4.532	1043.762	742.049
10.702	4.457	1041.937	740.327
11.717	4.464	1040.411	739.213
12.731	7.263	1043.172	754.448
13.746	15.364	1054.363	801.319
14.761	21.219	1061.251	834.548
15.775	22.157	1061.875	839.444
16.790	21.661	1059.923	835.462
17.804	20.678	1057.811	829.044
18.819	19.874	1056.389	824.027
19.834	19.395	1054.762	820.410
20.848	19.198	1054.250	819.001
21.863	19.192	1053.548	818.354
22.877	18.966	1052.989	816.775
23.892	18.775	1052.164	815.154
24.907	18.740	1051.132	814.118
25.921	18.723	1050.692	813.625
26.936	18.715	1049.593	812.662
27.950	18.694	1048.787	811.868
28.965	18.802	1047.668	811.442
29.980	18.784	1046.740	810.564
30.994	19.058	1045.443	810.781
32.009	19.061	1044.918	810.316
33.023	19.129	1044.208	810.012
34.038	19.040	1043.307	808.826
35.053	19.008	1042.648	808.092
36.067	18.776	1041.601	806.118
37.082	18.733	1040.597	805.067
38.096	18.856	1039.795	804.955
39.111	18.979	1039.082	804.908
40.126	19.130	1037.979	804.685
41.140	18.896	1037.103	802.846
42.155	18.671	1035.844	800.749
43.169	18.313	1035.029	798.377
44.184	18.253	1033.617	796.938
45.199	18.232	1032.653	796.028
46.213	18.292	1031.484	795.333
47.228	18.438	1030.575	795.240
48.242	18.725	1029.835	795.929
49.257	18.814	1029.488	796.007
50.271	18.952	1027.797	795.266
51.286	18.856	1027.250	794.327
52.301	19.013	1026.485	794.389
53.315	18.840	1026.109	793.231
54.330	18.680	1025.146	791.680
55.344	18.643	1023.873	790.455
56.359	18.471	1023.011	788.927
57.374	18.520	1022.179	788.441
58.388	18.527	1021.117	787.583
59.403	18.457	1020.084	786.399
60.417	18.396	1019.293	785.439
61.432	18.477	1018.657	785.252
62.447	18.302	1018.365	784.154
63.461	18.278	1017.031	782.946
64.476	18.215	1016.320	782.044
65.490	18.110	1015.127	780.579
66.505	18.168	1014.453	780.253
67.520	18.157	1013.867	779.685
68.534	18.193	1013.326	779.363
69.549	18.201	1012.417	778.631
70.563	18.086	1012.078	777.777
71.578	18.152	1010.705	776.953
72.593	18.056	1009.823	775.771
73.607	17.900	1008.721	774.149
74.622	17.844	1007.985	773.260
75.636	18.051	1006.714	773.155
76.651	18.023	1006.262	772.612
77.666	18.047	1005.592	772.136
78.680	18.036	1004.995	771.564
79.695	18.103	1004.251	771.226
80.709	18.131	1003.643	770.817
81.724	18.202	1003.122	770.669
82.739	18.388	1002.682	771.098
83.753	18.391	1001.482	770.123
84.768	18.630	1001.045	770.791
85.782	18.975	1000.410	771.782
86.797	19.230	999.698	772.308
87.812	19.000	999.295	770.896
88.826	18.856	998.507	769.576
89.841	18.854	997.282	768.554
90.855	18.934	996.753	768.436
91.870	19.073	995.869	768.307
92.884	19.170	995.501	768.390
93.899	19.080	994.644	767.258
94.914	18.974	993.723	766.009
95.928	19.090	992.892	765.815
96.943	19.161	992.023	765.395
97.957	19.010	991.640	764.358
98.972	18.910	990.970	763.330
99.987	18.895	989.818	762.312
101.001	19.081	989.107	762.520
102.016	18.957	988.335	761.308
103.030	18.942	987.242	760.334
104.045	19.019	986.111	759.736
105.060	18.938	985.589	758.906
106.074	18.764	984.849	757.505
107.089	18.674	983.415	755.937
108.103	18.476	982.441	754.248
109.118	18.222	981.308	752.197
110.133	18.202	980.909	751.734
111.147	18.154	980.027	750.784
112.162	18.204	978.666	749.891
113.176	18.340	977.770	749.736
114.191	18.280	977.324	749.065
115.206	18.524	976.421	749.371
116.220	18.481	975.654	748.532
117.235	18.304	975.270	747.396
118.249	18.292	974.302	746.538
119.264	18.242	973.456	745.605
120.279	18.200	972.771	744.831
121.293	18.215	971.474	743.840
122.308	18.075	971.033	742.825
123.322	17.991	970.173	741.738
124.337	18.039	969.106	741.061
125.352	17.984	967.373	739.436
126.366	17.945	966.343	738.414
127.381	17.883	965.572	737.492
128.395	17.854	964.821	736.726
129.410	18.081	963.863	736.910
130.424	18.103	962.866	736.176
131.439	18.124	962.620	736.013
132.454	18.312	961.373	735.802
133.468	18.457	960.708	735.853
134.483	18.539	960.176	735.733
135.497	18.351	959.759	734.542
136.512	18.325	959.049	733.820
137.527	18.460	958.058	733.576
138.541	18.411	957.090	732.562
139.556	18.481	956.998	732.723
140.570	18.464	955.860	731.714
141.585	18.636	955.164	731.849
142.600	18.911	954.488	732.438
143.614	18.680	954.209	731.178
144.629	18.784	953.604	731.093
145.643	18.986	952.798	731.266
146.658	18.930	951.643	730.078
147.673	18.789	950.533	728.567
148.687	18.716	949.297	727.244
149.702	18.463	948.842	725.760
150.716	18.341	947.750	724.344
151.731	18.334	946.812	723.535
152.746	18.365	946.116	723.068
153.760	18.524	945.558	723.249
154.775	18.445	944.909	722.357
155.789	18.616	944.033	722.344
156.804	18.598	943.327	721.664
157.819	18.655	942.853	721.475
158.833	18.703	942.052	721.000
159.848	18.868	941.396	721.129
160.862	19.049	941.045	721.555
161.877	18.981	940.431	720.734
162.892	18.585	939.222	718.085
163.906	18.429	938.289	716.657
164.921	18.418	937.386	715.858
165.935	18.426	936.102	714.849
166.950	18.435	935.431	714.310
167.964	18.583	934.197	713.921
168.979	18.662	933.538	713.681
169.994	18.397	932.643	711.834
171.008	18.469	931.435	711.147
172.023	18.470	930.690	710.517
173.037	18.853	929.851	711.400
174.052	18.943	929.553	711.484
175.067	18.832	928.725	710.329
176.081	18.690	927.713	708.903
177.096	18.319	927.086	706.831
178.110	18.347	926.234	706.233
179.125	18.507	925.358	706.164
180.140	18.477	924.776	705.531
181.154	18.502	924.268	705.185
182.169	18.702	923.805	705.594
183.183	18.771	922.950	705.160
184.198	18.991	922.590	705.727
185.213	18.974	921.579	704.820
186.227	18.924	921.120	704.201
187.242	18.931	920.842	703.956
188.256	19.048	920.198	703.880
189.271	19.155	919.475	703.703
190.286	19.231	918.678	703.341
191.300	18.928	917.969	701.499
192.315	18.594	916.534	698.978
193.329	18.307	915.769	697.167
194.344	18.257	915.359	696.587
195.359	18.529	914.750	697.169
196.373	18.698	914.402	697.529
197.388	18.712	913.978	697.200
198.402	18.917	913.316	697.464
199.417	19.192	913.178	698.415
200.432	19.209	912.815	698.144
201.446	19.312	912.513	698.268
202.461	19.432	912.170	698.431
203.475	19.587	911.593	698.551
204.490	19.575	910.912	697.923
205.504	19.203	909.876	695.565
206.519	19.155	909.073	694.694
207.534	18.985	908.162	693.252
208.548	19.030	907.583	692.931
209.563	18.906	906.859	691.815
210.577	19.006	906.248	691.690
211.592	19.057	905.471	691.244
212.607	19.305	905.376	692.103
213.621	19.271	904.954	691.584
214.636	19.436	903.766	691.276
215.650	19.247	903.109	689.957
216.665	19.310	902.482	689.669
217.680	19.314	902.409	689.568
218.694	19.526	901.965	690.015
219.709	19.544	901.279	689.500
220.723	19.461	900.929	688.841
221.738	19.379	900.316	687.983
222.753	19.375	899.418	687.220
223.767	19.258	898.940	686.326
224.782	19.594	897.497	686.500
225.796	19.532	897.262	686.016
226.811	19.577	897.059	685.979
227.826	19.660	895.823	685.301
228.840	19.538	895.159	684.249
229.855	19.392	894.389	683.023
230.869	19.320	894.233	682.558
231.884	19.366	893.097	681.810
232.899	19.199	892.596	680.710
233.913	19.129	891.722	679.705
234.928	19.108	891.267	679.217
235.942	19.184	890.117	678.579
236.957	19.011	889.451	677.330
237.972	19.075	888.877	677.085
238.986	19.221	888.259	677.127
240.001	19.154	887.471	676.203
241.015	19.166	887.128	675.932
242.030	19.239	886.313	675.534
243.045	19.335	885.670	675.362
244.059	19.203	885.630	674.756
245.074	19.345	884.756	674.585
246.088	19.428	883.932	674.223
247.103	19.551	883.782	674.527
248.117	19.576	883.330	674.220
249.132	19.800	882.793	674.625
250.147	20.010	882.262	674.978
251.161	20.105	882.018	675.100
252.176	20.355	881.255	675.430
253.190	20.215	880.931	674.578
254.205	20.338	880.239	674.468
255.220	20.509	879.484	674.491
256.234	20.308	878.813	673.138
257.249	20.367	878.224	672.855
258.263	20.085	878.125	671.629
259.278	20.202	877.358	671.434
260.293	20.287	876.759	671.247
261.307	20.471	875.819	671.177
262.322	20.521	875.394	670.985
263.336	20.498	874.764	670.355
264.351	20.448	874.501	669.899
265.366	20.483	873.786	669.428
266.380	20.586	872.904	669.089
267.395	20.400	872.278	667.835
268.409	20.410	871.354	667.107
269.424	20.289	870.714	666.096
270.439	20.384	869.874	665.758
271.453	20.222	869.616	664.880
272.468	20.192	868.459	663.822
273.482	20.206	867.823	663.329
274.497	20.147	867.433	662.749
275.512	20.236	866.787	662.535
276.526	20.157	865.915	661.507
277.541	20.197	865.171	661.036
278.555	20.179	864.914	660.713
279.570	20.383	864.827	661.362
280.585	20.505	864.263	661.337
281.599	20.527	863.666	660.907
282.614	20.463	862.679	659.848
283.628	20.203	862.411	658.599
284.643	20.230	861.330	657.816
285.657	20.286	860.750	657.527
286.672	20.447	860.274	657.717
287.687	20.259	860.019	656.753
288.701	20.267	859.789	656.549
289.716	20.388	858.888	656.257
290.730	20.506	858.327	656.220
291.745	20.562	857.344	655.620
292.760	20.390	856.995	654.645
293.774	20.548	856.576	654.865
294.789	20.587	856.042	654.545
295.803	20.664	855.567	654.413
296.818	20.384	854.966	652.842
297.833	20.312	854.145	651.889
298.847	20.346	853.708	651.624
299.862	20.424	852.711	651.096
300.876	20.451	852.290	650.819
301.891	20.489	851.879	650.591
302.906	20.769	851.412	651.226
303.920	20.775	850.678	650.629
304.935	20.966	849.880	650.673
305.949	21.080	849.561	650.796
306.964	21.081	848.640	650.036
307.979	20.799	848.048	648.477
308.993	20.795	847.644	648.095
310.008	20.805	847.545	647.997
311.022	20.882	846.828	647.678
312.037	20.955	845.863	647.154
313.052	20.761	845.236	645.898
314.066	20.418	845.232	644.565
315.081	20.493	843.802	643.696
316.095	20.574	843.125	643.424
317.110	20.551	842.758	643.002
318.125	20.438	842.539	642.356
319.139	20.330	841.797	641.335
320.154	20.521	841.353	641.648
321.168	20.380	841.039	640.830
322.183	20.469	840.710	640.853
323.197	20.621	839.980	640.799
324.212	20.706	839.324	640.552
325.227	20.505	838.954	639.474
326.241	20.602	838.217	639.215
327.256	20.591	837.711	638.732
328.270	20.604	836.737	637.980
329.285	20.564	836.401	637.521
330.300	20.513	836.042	637.003
331.314	20.431	835.384	636.145
332.329	20.622	834.721	636.282
333.343	20.702	834.298	636.197
334.358	20.917	833.913	636.632
335.373	20.946	833.196	636.134
336.387	20.999	832.642	635.849
337.402	20.964	832.134	635.275
338.416	21.129	831.884	635.631
339.431	20.973	831.633	634.816
340.446	21.257	830.693	635.072
341.460	21.349	830.378	635.111
342.475	21.463	829.663	634.920
343.489	21.583	829.031	634.817
344.504	21.425	828.875	634.067
345.519	21.700	828.111	634.425
346.533	21.488	828.147	633.628
347.548	21.448	827.811	633.168
348.562	21.289	827.157	632.037
349.577	21.181	825.476	630.307
350.592	21.082	825.316	629.772
351.606	20.939	825.081	629.023
352.621	20.926	824.052	628.134
353.635	20.939	823.956	628.051
354.650	21.098	823.315	628.080
355.665	21.089	823.059	627.798
356.679	21.255	822.405	627.841
357.694	21.213	822.148	627.436
358.708	21.313	821.426	627.188
359.723	21.252	821.185	626.731
360.738	21.126	820.368	625.600
361.752	21.314	819.822	625.801
362.767	21.328	819.297	625.395
363.781	21.448	819.295	625.769
364.796	21.644	819.256	626.386
365.810	21.561	818.703	625.610
366.825	21.876	818.139	626.247
367.840	21.945	817.936	626.282
368.854	21.905	817.085	625.433
369.869	21.583	816.903	624.091
370.883	21.542	816.374	623.485
371.898	21.599	815.391	622.884
372.913	21.747	815.181	623.194
373.927	21.716	814.826	622.758
374.942	21.769	813.912	622.192
375.956	21.715	813.625	621.724
376.971	21.863	812.726	621.507
377.986	21.845	812.557	621.258
379.000	21.983	811.977	621.249
380.015	21.989	811.495	620.846
381.029	22.000	811.010	620.461
382.044	21.868	810.302	619.397
383.059	21.883	809.850	619.052
384.073	22.129	809.240	619.395
385.088	21.951	808.905	618.459
386.102	21.620	807.802	616.394
387.117	21.677	807.284	616.147
388.132	21.584	806.616	615.256
389.146	21.637	806.391	615.216
390.161	21.788	805.791	615.232
391.175	21.932	805.519	615.475
392.190	21.921	805.730	615.544
393.205	21.867	805.136	614.845
394.219	21.786	804.455	613.988
395.234	21.724	803.692	613.133
396.248	21.635	803.097	612.314
397.263	21.672	802.578	611.993
398.278	21.422	802.079	610.688
399.292	21.585	801.502	610.763
400.307	21.393	801.193	609.803
401.321	21.397	800.992	609.610
402.336	21.388	800.466	609.124
403.350	21.529	800.061	609.254
404.365	21.788	799.560	609.720
405.380	21.806	799.445	609.641
406.394	22.061	799.106	610.215
407.409	22.033	798.780	609.815
408.423	22.151	798.191	609.720
409.438	22.214	797.750	609.547
410.453	22.316	797.176	609.409
411.467	22.335	797.380	609.575
412.482	22.440	796.477	609.193
413.496	22.392	796.143	608.720
414.511	22.491	795.956	608.864
415.526	22.580	795.591	608.840
416.540	22.323	795.181	607.584
417.555	22.341	794.499	607.071
418.569	22.395	793.691	606.585
419.584	22.376	793.494	606.316
420.599	22.326	792.855	605.602
421.613	162.745	1368.795	1795.750
422.628	141.143	1452.719	1795.857
