DTS Sentinel unit serial number:	SN413079Multiplexer serial number:	ORYXHardware model number:	OX4-SRSoftware version number:	ORYX F/W v4.00 Oryx Data Collector v3.7.2.0data status	okinstallation	princeton_trtdifferential loss correction	single-endedforward channel	channel 3reverse channel	N/Adate	2019/09/12time	13:38:10forward acquisition time	60.00reverse acquisition time	0.00gamma	496.2192k internal	0.2292k external	0.2292temperature offset calibration	1.0045default loss term (dB/km)	0.3790temperature slope calibration	1.0000multiplexer offset coefficient	1.0000multiplexer slope coefficient	1.0000fibre end	0.00T internal ref (°C)	41.06T ext. ref 1 (°C)	2.15T ext. ref 2 (°C)	35.68length (m)	temperature (°C)	Stokes	anti-Stokes-747.200	205.362	0.082	0.131
-746.185	24.711	0.195	0.165
-745.171	-94.390	0.510	-0.143
-744.156	72.033	-0.140	0.149
-743.142	-200.000	-0.055	-0.351
-742.127	-176.631	-0.241	0.006
-741.112	-200.000	0.004	-0.033
-740.098	94.744	0.193	0.224
-739.083	-63.196	-0.153	0.064
-738.069	-13.411	-0.155	0.103
-737.054	-45.659	0.128	-0.065
-736.039	-4.103	0.176	-0.124
-735.025	63.094	0.221	-0.227
-734.010	693.698	0.035	0.093
-732.996	167.981	-0.049	0.071
-731.981	-135.846	0.559	0.068
-730.966	-200.000	-0.026	-0.184
-729.952	-46.175	-0.169	0.085
-728.937	103.772	-0.204	0.245
-727.923	11.934	-0.223	0.175
-726.908	123.329	0.154	-0.198
-725.894	186.249	-0.041	-0.062
-724.879	250.407	-0.135	0.235
-723.864	800.000	0.036	0.104
-722.850	800.000	-0.063	-0.242
-721.835	800.000	-0.046	-0.163
-720.821	-64.801	0.554	-0.229
-719.806	-140.928	0.094	0.010
-718.791	-60.713	-0.185	0.080
-717.777	-88.343	-0.161	-0.049
-716.762	-98.328	-0.220	0.058
-715.748	-38.951	-0.132	-0.071
-714.733	-200.000	-0.004	0.053
-713.718	800.000	0.143	0.429
-712.704	-141.870	0.263	-0.027
-711.689	583.298	-0.065	0.162
-710.675	213.589	-0.124	-0.200
-709.660	-49.890	-0.134	0.065
-708.645	800.000	-0.092	0.348
-707.631	-200.000	-0.009	0.141
-706.616	63.379	-0.176	0.180
-705.602	-68.121	0.159	-0.063
-704.587	-119.215	0.240	-0.043
-703.572	-119.634	0.367	0.065
-702.558	279.225	0.099	-0.181
-701.543	-150.352	0.186	0.015
-700.529	627.603	0.051	0.131
-699.514	380.778	0.051	0.107
-698.499	800.000	-0.087	0.279
-697.485	800.000	0.051	0.204
-696.470	121.642	0.123	-0.156
-695.456	91.090	0.166	-0.190
-694.441	781.869	-0.125	0.350
-693.426	114.284	0.114	-0.142
-692.412	-200.000	0.002	-0.074
-691.397	39.005	-0.147	-0.134
-690.383	363.748	0.039	-0.079
-689.368	-48.820	-0.138	-0.068
-688.354	800.000	-0.086	0.352
-687.339	254.996	-0.112	-0.196
-686.324	-26.388	0.226	-0.135
-685.310	-56.933	-0.101	0.045
-684.295	-84.980	0.305	-0.098
-683.281	47.801	0.312	0.298
-682.266	93.678	-0.166	-0.192
-681.251	-200.000	-0.036	0.233
-680.237	39.023	-0.055	-0.050
-679.222	800.000	-0.079	0.279
-678.208	-200.000	0.002	0.080
-677.193	29.645	0.224	0.194
-676.178	-200.000	-0.017	-0.112
-675.164	-151.590	0.312	0.024
-674.149	451.202	-0.055	-0.124
-673.135	-133.853	0.337	-0.043
-672.120	-200.000	-0.005	0.081
-671.105	-200.000	-0.018	0.231
-670.091	540.897	-0.129	-0.315
-669.076	88.861	-0.265	-0.301
-668.062	-81.973	-0.350	-0.117
-667.047	-159.451	-0.169	0.010
-666.032	-80.207	0.181	-0.062
-665.018	800.000	-0.030	-0.121
-664.003	-27.717	0.165	-0.098
-662.989	-200.000	0.058	-0.337
-661.974	800.000	-0.034	-0.116
-660.959	304.687	0.053	0.100
-659.945	-84.197	-0.176	-0.057
-658.930	181.271	-0.148	-0.222
-657.916	-200.000	0.004	-0.114
-656.901	-200.000	0.055	-0.320
-655.886	-119.200	-0.209	0.037
-654.872	18.556	0.128	0.104
-653.857	800.000	0.119	0.450
-652.843	195.147	-0.123	-0.190
-651.828	-200.000	-0.028	-0.153
-650.814	96.106	0.130	0.151
-649.799	-200.000	-0.062	0.337
-648.784	-116.285	-0.222	0.042
-647.770	176.901	-0.131	-0.194
-646.755	-59.453	0.112	-0.049
-645.741	-155.784	0.256	0.017
-644.726	-95.502	0.194	0.053
-643.711	800.000	0.062	-0.259
-642.697	-103.984	0.156	-0.037
-641.682	-200.000	-0.005	-0.066
-640.668	-200.000	0.032	0.268
-639.653	800.000	-0.099	-0.316
-638.638	-116.626	-0.345	0.065
-637.624	222.266	0.121	0.198
-636.609	59.284	-0.286	0.287
-635.595	-200.000	-0.003	0.066
-634.580	-200.000	-0.061	-0.276
-633.565	-58.019	-0.021	0.009
-632.551	222.389	-0.085	-0.140
-631.536	-8.539	0.242	-0.166
-630.522	-9.501	-0.137	0.093
-629.507	800.000	0.086	0.291
-628.492	-103.824	-0.392	-0.093
-627.478	-0.791	0.390	-0.282
-626.463	-124.836	0.160	0.025
-625.449	2.204	-0.240	-0.177
-624.434	624.371	0.171	-0.440
-623.419	-180.513	0.264	-0.006
-622.405	103.052	0.122	0.145
-621.390	-200.000	0.002	0.017
-620.376	320.285	0.027	0.052
-619.361	-70.904	0.188	-0.072
-618.346	16.208	-0.232	0.186
-617.332	-102.108	-0.303	-0.074
-616.317	-123.740	-0.127	-0.021
-615.303	800.000	-0.026	0.088
-614.288	800.000	0.071	-0.217
-613.273	-35.724	0.151	0.083
-612.259	-126.809	0.278	-0.042
-611.244	177.626	0.055	0.082
-610.230	-119.032	-0.072	0.013
-609.215	800.000	-0.069	0.204
-608.201	109.871	-0.046	-0.057
-607.186	800.000	0.063	-0.199
-606.171	-93.432	-0.123	-0.035
-605.157	-14.809	-0.161	0.105
-604.142	164.831	0.048	-0.069
-603.128	482.966	-0.017	0.038
-602.113	-28.608	-0.085	-0.050
-601.098	-200.000	-0.040	0.317
-600.084	-200.000	-0.059	0.397
-599.069	-200.000	0.022	0.205
-598.055	800.000	0.112	-0.397
-597.040	-105.609	0.438	0.101
-596.025	154.634	0.158	0.221
-595.011	44.085	-0.220	0.205
-593.996	365.090	-0.090	-0.185
-592.982	643.183	-0.114	0.295
-591.967	380.864	-0.096	-0.201
-590.952	-22.084	0.076	0.047
-589.938	194.683	-0.196	-0.302
-588.923	184.343	-0.150	-0.226
-587.909	93.153	0.254	-0.292
-586.894	110.675	0.078	-0.095
-585.879	-117.155	-0.334	0.062
-584.865	800.000	-0.084	-0.361
-583.850	49.188	0.143	-0.137
-582.836	-62.472	0.178	0.075
-581.821	-19.941	0.161	0.101
-580.806	228.198	-0.210	-0.348
-579.792	-167.997	-0.096	0.004
-578.777	135.025	-0.173	-0.229
-577.763	-200.000	0.022	0.125
-576.748	-62.285	0.104	0.044
-575.733	797.064	-0.018	-0.051
-574.719	-88.452	-0.215	-0.065
-573.704	106.831	-0.026	0.032
-572.690	156.718	-0.193	0.271
-571.675	48.881	0.193	-0.184
-570.661	-200.000	0.004	0.550
-569.646	-200.000	0.014	-0.153
-568.631	-119.353	0.147	0.026
-567.617	-200.000	-0.001	0.117
-566.602	-106.627	-0.205	-0.046
-565.588	-200.000	0.013	-0.182
-564.573	800.000	-0.046	0.135
-563.558	407.231	0.151	-0.325
-562.544	108.405	-0.108	-0.131
-561.529	-200.000	0.042	-0.230
-560.515	63.523	-0.111	-0.113
-559.500	101.704	0.080	-0.094
-558.485	11.124	0.222	0.173
-557.471	-200.000	0.021	-0.175
-556.456	-57.394	0.075	0.034
-555.442	-93.815	0.196	-0.055
-554.427	614.881	-0.048	-0.121
-553.412	-15.767	-0.174	-0.113
-552.398	-50.789	-0.164	0.078
-551.383	195.643	-0.106	-0.164
-550.369	800.000	-0.039	0.141
-549.354	-200.000	-0.032	0.193
-548.339	-200.000	-0.034	0.196
-547.325	60.463	-0.039	0.039
-546.310	327.895	-0.131	-0.255
-545.296	-156.402	-0.431	-0.027
-544.281	-63.761	-0.059	0.025
-543.266	-200.000	0.002	-0.029
-542.252	644.588	0.036	0.093
-541.237	-53.053	-0.301	-0.141
-540.223	-200.000	0.034	0.211
-539.208	64.802	-0.150	-0.154
-538.193	8.252	-0.152	0.116
-537.179	-29.285	0.168	-0.098
-536.164	157.470	-0.071	-0.099
-535.150	-81.118	-0.097	-0.033
-534.135	-18.584	-0.126	-0.080
-533.121	72.158	-0.274	0.290
-532.106	-200.000	0.073	0.416
-531.091	-200.000	0.044	-0.214
-530.077	655.360	-0.114	-0.297
-529.062	-67.768	-0.209	-0.083
-528.048	-52.391	0.146	0.068
-527.033	-67.884	0.160	0.063
-526.018	-85.490	0.042	0.013
-525.004	-5.317	0.262	0.183
-523.989	-71.319	-0.239	-0.091
-522.975	-200.000	0.011	0.121
-521.960	-4.592	0.229	-0.161
-520.945	-175.779	0.160	-0.004
-519.931	8.975	0.148	0.113
-518.916	-92.355	0.323	0.092
-517.902	57.988	0.152	-0.151
-516.887	-90.322	-0.094	0.028
-515.872	393.451	0.073	-0.154
-514.858	-162.372	0.495	-0.025
-513.843	349.436	-0.100	-0.200
-512.829	800.000	-0.039	0.111
-511.814	173.535	-0.096	0.140
-510.799	800.000	-0.043	0.138
-509.785	188.510	0.149	-0.226
-508.770	8.196	0.343	0.261
-507.756	-105.125	-0.161	0.037
-506.741	-200.000	0.040	0.187
-505.726	-113.710	-0.214	0.042
-504.712	103.116	0.325	0.386
-503.697	75.048	-0.155	-0.166
-502.683	800.000	-0.041	-0.181
-501.668	800.000	0.065	-0.251
-500.653	391.809	-0.068	-0.143
-499.639	388.260	0.091	0.190
-498.624	800.000	0.082	-0.321
-497.610	-20.352	0.312	0.195
-496.595	-200.000	0.013	0.159
-495.581	124.221	-0.217	-0.277
-494.566	-200.000	-0.033	-0.237
-493.551	427.894	-0.170	-0.372
-492.537	59.466	-0.237	0.237
-491.522	423.898	-0.019	0.042
-490.508	51.622	0.230	-0.222
-489.493	136.646	0.156	-0.207
-488.478	81.661	-0.080	-0.088
-487.464	69.201	-0.225	-0.234
-486.449	112.317	0.110	-0.135
-485.435	-200.000	0.024	-0.381
-484.420	284.153	-0.108	0.196
-483.405	104.236	0.069	0.082
-482.391	-197.226	0.200	0.001
-481.376	94.364	-0.181	-0.208
-480.362	84.009	0.201	0.222
-479.347	-144.395	0.225	0.021
-478.332	81.564	0.292	-0.320
-477.318	562.313	0.029	-0.072
-476.303	-80.141	-0.204	0.069
-475.289	77.434	0.288	0.311
-474.274	-200.000	-0.015	-0.234
-473.259	-64.071	-0.294	-0.121
-472.245	235.122	-0.097	-0.162
-471.230	-200.000	0.006	-0.295
-470.216	-114.681	0.077	0.015
-469.201	656.788	0.022	-0.058
-468.186	-200.000	0.004	0.091
-467.172	-169.052	0.147	-0.006
-466.157	-200.000	0.028	-0.297
-465.143	-89.838	-0.060	-0.018
-464.128	-109.975	0.256	0.054
-463.113	-102.612	0.351	0.085
-462.099	-119.367	0.133	0.023
-461.084	-200.000	-0.027	-0.163
-460.070	-87.746	-0.178	0.054
-459.055	33.276	-0.210	-0.184
-458.040	-200.000	0.006	-0.279
-457.026	-200.000	0.037	0.235
-456.011	100.541	-0.084	0.099
-454.997	139.890	0.227	-0.303
-453.982	-72.690	0.267	0.099
-452.968	-200.000	0.017	0.157
-451.953	-200.000	0.034	-0.213
-450.938	-69.254	-0.211	-0.082
-449.924	43.434	0.141	-0.130
-448.909	439.190	0.066	-0.146
-447.895	-122.107	-0.116	-0.019
-446.880	-38.403	-0.040	0.022
-445.865	-110.015	0.159	-0.034
-444.851	-62.459	0.428	0.180
-443.836	66.236	-0.062	0.064
-442.822	-153.745	-0.304	0.021
-441.807	21.956	0.290	0.240
-440.792	-44.284	0.208	0.106
-439.778	151.137	-0.032	-0.045
-438.763	31.919	0.075	-0.065
-437.749	800.000	-0.078	-0.265
-436.734	58.866	-0.132	-0.131
-435.719	69.213	0.209	-0.217
-434.705	-200.000	0.022	0.247
-433.690	671.034	0.014	0.036
-432.676	-64.827	-0.247	-0.101
-431.661	-6.547	0.175	0.120
-430.646	-200.000	-0.009	-0.144
-429.632	800.000	-0.074	0.279
-428.617	-50.601	-0.157	0.075
-427.603	800.000	-0.046	0.159
-426.588	648.632	-0.031	0.079
-425.573	-88.273	-0.188	0.057
-424.559	800.000	0.073	0.274
-423.544	800.000	-0.049	0.142
-422.530	103.703	0.213	-0.252
-421.515	320.477	0.142	0.273
-420.500	470.699	-0.081	-0.184
-419.486	8.754	-0.116	-0.088
-418.471	-200.000	0.008	0.294
-417.457	-94.509	-0.097	-0.027
-416.442	-200.000	-0.009	0.217
-415.428	-125.048	0.149	0.023
-414.413	-200.000	0.024	0.242
-413.398	-200.000	-0.009	0.210
-412.384	-167.317	0.122	-0.005
-411.369	-74.353	0.357	-0.130
-410.355	218.224	0.088	-0.141
-409.340	171.654	-0.049	0.070
-408.325	244.194	-0.093	0.158
-407.311	800.000	0.032	-0.113
-406.296	71.899	-0.076	-0.079
-405.282	737.733	-0.065	-0.177
-404.267	-136.987	0.351	-0.041
-403.252	-95.160	0.126	-0.034
-402.238	-46.792	-0.366	-0.181
-401.223	800.000	0.111	0.314
-400.209	800.000	-0.034	-0.105
-399.194	-109.966	-0.344	0.073
-398.179	-11.444	0.284	-0.189
-397.165	-102.364	-0.218	0.053
-396.150	1.102	0.250	-0.181
-395.136	-15.553	-0.053	-0.034
-394.121	-112.025	-0.105	-0.021
-393.106	800.000	-0.121	0.355
-392.092	-21.032	-0.106	0.065
-391.077	166.432	0.197	0.281
-390.063	1.777	0.306	-0.222
-389.048	-126.411	0.286	-0.043
-388.033	114.474	-0.203	0.249
-387.019	800.000	-0.119	0.395
-386.004	333.750	0.078	0.153
-384.990	800.000	-0.057	0.193
-383.975	311.378	0.117	-0.221
-382.960	-95.178	-0.283	0.077
-381.946	216.088	-0.070	0.112
-380.931	32.718	-0.159	0.139
-379.917	66.917	-0.052	0.054
-378.902	69.512	-0.195	0.203
-377.888	-173.908	0.042	-0.001
-376.873	99.533	0.102	0.119
-375.858	-35.331	0.171	0.094
-374.844	240.657	0.055	0.093
-373.829	109.286	-0.104	0.126
-372.815	-200.000	0.020	-0.239
-371.800	141.294	-0.333	-0.445
-370.785	-42.600	0.074	0.038
-369.771	-56.670	-0.172	0.077
-368.756	-108.673	-0.191	0.041
-367.742	119.430	-0.172	-0.214
-366.727	-200.000	-0.038	-0.185
-365.712	113.137	0.105	-0.129
-364.698	133.796	-0.104	0.136
-363.683	-42.191	-0.073	-0.038
-362.669	18.708	-0.289	-0.233
-361.654	800.000	-0.027	0.104
-360.639	800.000	-0.064	0.199
-359.625	-80.300	0.135	-0.045
-358.610	-200.000	-0.033	-0.332
-357.596	21.939	0.178	-0.146
-356.581	-172.176	-0.116	-0.004
-355.566	-74.939	-0.070	-0.025
-354.552	-200.000	0.028	0.283
-353.537	-169.160	-0.272	-0.010
-352.523	800.000	0.021	-0.093
-351.508	-200.000	-0.029	-0.136
-350.493	-200.000	0.041	0.408
-349.479	563.751	0.106	0.259
-348.464	-39.244	0.275	-0.146
-347.450	25.554	0.011	0.009
-346.435	800.000	0.068	0.219
-345.420	83.350	-0.170	0.186
-344.406	-200.000	-0.018	0.131
-343.391	132.178	0.095	-0.123
-342.377	202.823	-0.027	-0.043
-341.362	-200.000	-0.016	-0.259
-340.348	143.187	0.340	-0.455
-339.333	800.000	-0.081	0.288
-338.318	-200.000	0.001	-0.138
-337.304	435.712	-0.090	0.198
-336.289	-153.537	-0.112	0.008
-335.275	411.980	0.137	-0.293
-334.260	-71.757	0.129	0.048
-333.245	-15.739	-0.050	0.032
-332.231	-81.532	-0.096	0.032
-331.216	209.899	0.253	0.400
-330.202	-78.106	-0.130	0.045
-329.187	800.000	0.160	0.505
-328.172	-200.000	-0.027	0.253
-327.158	-105.529	-0.166	0.038
-326.143	34.975	0.143	-0.126
-325.129	403.245	0.067	0.143
-324.114	-171.421	0.158	0.005
-323.099	-200.000	-0.003	0.086
-322.085	-166.512	0.089	-0.004
-321.070	-61.535	-0.321	-0.136
-320.056	8.917	-0.220	-0.167
-319.041	-13.715	0.121	0.079
-318.026	-17.439	-0.386	-0.244
-317.012	212.832	0.119	0.190
-315.997	-28.959	0.367	-0.212
-314.983	224.197	0.223	-0.363
-313.968	772.188	0.130	0.358
-312.953	33.712	-0.143	-0.125
-311.939	-200.000	-0.021	0.149
-310.924	22.252	-0.327	0.269
-309.910	-89.660	-0.146	0.043
-308.895	-200.000	0.010	0.094
-307.880	-99.979	-0.131	-0.033
-306.866	-200.000	-0.061	-0.313
-305.851	-149.247	0.382	-0.031
-304.837	-110.683	-0.082	-0.017
-303.822	-27.510	0.060	0.035
-302.807	800.000	0.066	-0.219
-301.793	800.000	0.026	-0.093
-300.778	-169.507	-0.252	-0.009
-299.764	226.683	-0.059	-0.097
-298.749	-154.853	0.376	-0.025
-297.735	-53.997	-0.109	0.050
-296.720	4.547	-0.265	-0.196
-295.705	73.566	0.036	0.038
-294.691	2.082	-0.113	-0.082
-293.676	-31.098	0.159	0.090
-292.662	-200.000	-0.012	-0.158
-291.647	638.507	0.061	-0.156
-290.632	-31.191	-0.218	-0.124
-289.618	7.623	0.027	-0.021
-288.603	800.000	-0.056	0.162
-287.589	147.944	0.081	0.110
-286.574	-144.522	-0.109	-0.010
-285.559	-57.287	-0.374	0.166
-284.545	18.189	0.250	0.201
-283.530	-200.000	-0.024	0.143
-282.516	-200.000	0.009	-0.090
-281.501	-16.935	0.130	0.083
-280.486	51.601	0.217	0.207
-279.472	97.871	-0.115	-0.133
-278.457	350.166	0.035	0.069
-277.443	-128.904	-0.246	0.035
-276.428	-153.900	0.178	0.012
-275.413	800.000	-0.030	0.105
-274.399	46.509	0.221	0.206
-273.384	210.023	-0.255	0.402
-272.370	-45.631	-0.127	0.063
-271.355	-154.161	-0.288	-0.020
-270.340	-108.712	0.599	0.129
-269.326	-200.000	0.047	0.220
-268.311	-200.000	-0.042	0.385
-267.297	467.149	0.144	0.325
-266.282	198.245	0.108	-0.167
-265.267	-101.421	-0.250	0.061
-264.253	-200.000	-0.008	0.097
-263.238	-27.240	0.153	-0.090
-262.224	-131.500	-0.215	0.029
-261.209	-136.026	0.059	-0.007
-260.195	-200.000	-0.010	0.108
-259.180	-200.000	0.059	-0.386
-258.165	-49.479	-0.117	0.056
-257.151	225.892	-0.157	-0.256
-256.136	85.445	0.049	0.054
-255.122	-200.000	-0.030	0.164
-254.107	-68.336	0.197	0.077
-253.092	800.000	0.008	-0.023
-252.078	323.872	-0.094	0.179
-251.063	475.310	-0.058	0.132
-250.049	59.629	-0.033	-0.033
-249.034	547.097	0.026	0.063
-248.019	-29.217	-0.093	-0.053
-247.005	-68.354	0.281	-0.110
-245.990	518.571	0.109	0.257
-244.976	-5.430	0.153	0.105
-243.961	-40.650	0.315	-0.164
-242.946	22.357	-0.236	-0.194
-241.932	-62.500	0.165	0.069
-240.917	43.546	-0.113	-0.104
-239.903	207.334	0.128	0.200
-238.888	252.118	0.039	0.067
-237.873	-121.205	0.139	0.023
-236.859	-58.086	-0.102	-0.045
-235.844	-33.464	-0.159	-0.088
-234.830	121.500	-0.195	-0.244
-233.815	183.229	-0.088	0.130
-232.800	-86.601	-0.060	-0.018
-231.786	173.387	0.078	-0.113
-230.771	438.216	0.109	-0.239
-229.757	258.401	0.099	-0.171
-228.742	331.949	0.169	-0.328
-227.727	-35.046	-0.230	-0.126
-226.713	800.000	0.035	-0.128
-225.698	-7.603	-0.038	0.026
-224.684	-200.000	0.044	0.000
-223.669	-72.926	-0.145	-0.054
-222.655	-111.997	-0.185	0.037
-221.640	92.081	0.123	0.139
-220.625	638.890	0.074	0.190
-219.611	-0.422	0.272	0.193
-218.596	-33.439	-0.232	-0.129
-217.582	-96.683	0.208	0.055
-216.567	-62.736	0.257	0.107
-215.552	516.302	-0.089	-0.208
-214.538	548.962	0.063	0.152
-213.523	-74.682	0.135	-0.049
-212.509	-200.000	0.025	0.283
-211.494	1.642	-0.215	-0.155
-210.479	15.598	-0.061	0.048
-209.465	185.885	-0.166	0.247
-208.450	-107.040	0.215	-0.048
-207.436	309.739	-0.045	0.084
-206.421	800.000	-0.057	-0.175
-205.406	-200.000	-0.034	-0.171
-204.392	44.001	-0.192	0.176
-203.377	800.000	0.013	-0.038
-202.363	800.000	0.081	-0.326
-201.348	198.999	0.199	-0.306
-200.333	-200.000	-0.053	-0.317
-199.319	-27.258	-0.340	-0.198
-198.304	800.000	-0.027	-0.117
-197.290	100.067	0.108	0.126
-196.275	-57.106	-0.269	0.119
-195.260	600.104	0.008	-0.020
-194.246	109.648	0.148	0.178
-193.231	74.498	-0.094	0.099
-192.217	205.794	0.206	-0.322
-191.202	800.000	-0.063	-0.193
-190.187	92.932	0.078	0.088
-189.173	308.170	-0.154	-0.288
-188.158	-110.057	-0.194	-0.041
-187.144	-26.525	0.091	0.053
-186.129	-130.434	-0.188	0.025
-185.114	-60.228	-0.112	0.048
-184.100	-156.623	-0.072	-0.004
-183.085	41.141	-0.125	0.113
-182.071	-200.000	0.073	0.393
-181.056	-138.612	0.067	-0.007
-180.042	-200.000	0.004	0.345
-179.027	-140.780	0.413	-0.043
-178.012	-200.000	0.028	0.271
-176.998	800.000	-0.046	0.170
-175.983	734.680	0.175	-0.470
-174.969	800.000	0.052	0.224
-173.954	800.000	0.018	0.059
-172.939	74.023	0.095	0.100
-171.925	0.296	0.369	0.264
-170.910	-82.912	-0.255	0.082
-169.896	25.804	0.150	-0.125
-168.881	3.713	-0.194	-0.142
-167.866	-90.151	0.108	-0.031
-166.852	280.395	0.120	-0.215
-165.837	-69.572	-0.241	-0.092
-164.823	-200.000	-0.007	0.281
-163.808	486.851	0.015	-0.034
-162.793	-15.858	-0.569	-0.363
-161.779	85.703	0.177	0.194
-160.764	337.578	0.196	0.380
-159.750	-161.540	-0.190	0.010
-158.735	123.523	0.003	0.004
-157.720	153.576	-0.169	0.232
-156.706	-200.000	-0.051	0.224
-155.691	-156.204	-0.156	-0.010
-154.677	257.779	-0.116	-0.199
-153.662	185.964	-0.150	-0.223
-152.647	-200.000	0.033	0.253
-151.633	-84.631	-0.096	-0.030
-150.618	-40.987	0.147	0.076
-149.604	800.000	-0.026	0.091
-148.589	114.939	-0.205	-0.251
-147.574	800.000	0.093	-0.328
-146.560	800.000	-0.093	-0.284
-145.545	3.628	-0.318	-0.232
-144.531	603.941	0.129	0.320
-143.516	-15.331	-0.268	-0.171
-142.502	120.110	0.072	0.089
-141.487	-200.000	0.465	-0.001
-140.472	25.092	0.173	-0.144
-139.458	-14.166	-0.121	-0.078
-138.443	3.582	0.224	0.163
-137.429	800.000	-0.078	0.297
-136.414	-62.329	-0.134	0.056
-135.399	-89.698	-0.229	0.067
-134.385	21.984	-0.072	-0.059
-133.370	5.978	-0.096	-0.071
-132.356	-78.606	0.232	-0.079
-131.341	-200.000	0.019	0.086
-130.326	-200.000	-0.032	0.259
-129.312	800.000	-0.106	-0.305
-128.297	18.701	-0.206	0.165
-127.283	417.143	-0.039	0.084
-126.268	-97.539	0.245	0.064
-125.253	-29.448	0.200	-0.114
-124.239	-116.325	0.136	0.025
-123.224	-200.000	-0.014	0.077
-122.210	646.607	0.089	0.227
-121.195	-9.704	0.158	-0.105
-120.180	-200.000	0.035	-0.230
-119.166	-14.751	0.103	-0.066
-118.151	-149.955	0.220	0.017
-117.137	477.339	0.123	0.278
-116.122	-38.651	0.197	-0.104
-115.107	-91.815	0.223	0.063
-114.093	-65.931	-0.222	-0.088
-113.078	62.374	0.180	-0.180
-112.064	-57.743	-0.170	-0.075
-111.049	-200.000	-0.065	-0.351
-110.034	800.000	-0.034	-0.103
-109.020	-42.130	-0.092	0.047
-108.005	-109.159	-0.246	0.052
-106.991	-200.000	0.046	0.254
-105.976	245.218	-0.046	0.077
-104.962	-200.000	0.000	-0.133
-103.947	-82.015	-0.351	-0.114
-102.932	337.786	-0.155	-0.301
-101.918	-70.436	0.406	0.154
-100.903	-88.301	0.247	-0.074
-99.889	-16.518	-0.038	0.024
-98.874	800.000	0.069	0.241
-97.859	-176.492	0.227	0.006
-96.845	-114.503	-0.302	0.058
-95.830	8.960	-0.105	0.079
-94.816	577.498	0.075	0.183
-93.801	-123.105	0.028	0.005
-92.786	100.741	-0.201	0.233
-91.772	132.947	0.170	0.219
-90.757	800.000	-0.103	-0.290
-89.743	167.841	0.019	0.027
-88.728	96.834	0.038	-0.043
-87.713	-51.591	0.329	-0.153
-86.699	-200.000	0.033	0.361
-85.684	-16.313	0.423	0.268
-84.670	-39.813	-0.200	0.104
-83.655	117.178	-0.144	0.176
-82.640	195.122	-0.237	-0.360
-81.626	644.650	-0.055	0.140
-80.611	-16.035	0.126	0.080
-79.597	-29.214	-0.118	0.068
-78.582	-200.000	0.031	-0.201
-77.567	-28.074	0.230	-0.133
-76.553	-139.675	0.329	0.035
-75.538	80.879	-0.231	-0.248
-74.524	-200.000	-0.004	-0.104
-73.509	-148.667	0.379	0.031
-72.494	-157.445	-0.175	0.010
-71.480	-48.679	-0.308	-0.148
-70.465	-200.000	0.001	0.024
-69.451	-142.623	-0.136	-0.013
-68.436	105.773	0.073	0.086
-67.422	77.141	0.273	-0.289
-66.407	41.757	0.128	-0.116
-65.392	-96.823	-0.205	-0.054
-64.378	36.035	0.161	0.141
-63.363	-83.991	-0.202	0.064
-62.349	800.000	0.093	0.287
-61.334	25.755	-0.817	-0.678
-60.319	225.396	0.277	0.447
-59.305	-200.000	0.116	-0.663
-58.290	308.358	0.577	1.073
-57.276	800.000	0.474	1.497
-56.261	-200.000	75.683	511.204
-55.246	525.692	1323.652	3105.038
-54.232	146.628	2554.783	3419.972
-53.217	116.895	2244.906	2746.086
-52.203	51.717	1767.233	1674.723
-51.188	44.450	1565.302	1432.355
-50.173	41.781	1535.382	1386.441
-49.159	57.698	1571.744	1530.987
-48.144	63.589	1591.789	1591.671
-47.130	45.003	1555.331	1426.880
-46.115	41.339	1540.851	1388.081
-45.100	41.111	1537.933	1383.810
-44.086	41.043	1536.036	1381.580
-43.071	41.078	1533.487	1379.475
-42.057	40.945	1532.010	1377.172
-41.042	41.018	1530.080	1375.886
-40.027	41.094	1528.344	1374.796
-39.013	41.094	1527.207	1373.716
-37.998	40.946	1526.448	1371.962
-36.984	41.045	1524.808	1371.116
-35.969	41.016	1523.856	1370.006
-34.954	41.032	1522.290	1368.648
-33.940	41.025	1520.200	1366.672
-32.925	41.114	1518.737	1365.913
-31.911	40.975	1517.536	1363.823
-30.896	41.186	1515.883	1363.728
-29.881	41.213	1514.799	1362.885
-28.867	41.207	1513.122	1361.278
-27.852	41.126	1512.187	1359.834
-26.838	41.081	1511.029	1358.425
-25.823	41.082	1509.349	1356.872
-24.809	41.125	1507.417	1355.372
-23.794	41.114	1505.919	1353.898
-22.779	41.159	1504.631	1352.993
-21.765	41.113	1504.226	1352.261
-20.750	41.211	1502.564	1351.380
-19.736	41.066	1502.158	1349.977
-18.721	41.143	1500.442	1348.900
-17.706	41.109	1499.614	1347.871
-16.692	41.060	1498.350	1346.356
-15.677	41.103	1496.879	1345.270
-14.663	40.995	1496.126	1343.810
-13.648	40.990	1495.088	1342.792
-12.633	41.015	1494.395	1342.280
-11.619	40.927	1493.301	1340.651
-10.604	41.016	1492.402	1340.390
-9.590	41.055	1491.501	1339.791
-8.575	41.041	1490.676	1338.907
-7.560	41.030	1490.055	1338.222
-6.546	40.968	1488.987	1336.794
-5.531	40.983	1488.333	1336.250
-4.517	41.072	1486.579	1335.224
-3.502	40.947	1485.957	1333.769
-2.487	40.984	1485.099	1333.198
-1.473	41.048	1484.114	1332.684
-0.458	41.046	1482.778	1331.424
0.556	41.264	1473.115	1320.238
1.571	38.141	1445.463	1274.994
2.586	33.986	1382.178	1193.055
3.600	31.825	1298.031	1107.574
4.615	29.917	1250.063	1055.678
5.629	25.193	1191.853	980.673
6.644	13.366	1099.785	844.800
7.659	3.940	1052.165	761.910
8.673	2.417	1046.214	750.076
9.688	2.205	1043.186	746.800
10.702	1.891	1041.595	744.063
11.717	2.078	1039.737	743.583
12.731	5.470	1044.279	763.335
13.746	16.387	1059.979	828.558
14.761	24.482	1070.278	876.449
15.775	25.534	1070.926	882.066
16.790	25.585	1070.346	881.760
17.804	25.403	1069.418	880.025
18.819	25.317	1068.580	878.838
19.834	25.379	1067.820	878.438
20.848	25.443	1067.233	878.188
21.863	25.527	1067.092	878.410
22.877	25.559	1066.845	878.280
23.892	25.397	1066.068	876.776
24.907	25.318	1065.196	875.592
25.921	25.494	1064.824	876.069
26.936	25.520	1063.794	875.272
27.950	25.480	1062.305	873.776
28.965	25.325	1061.939	872.644
29.980	25.323	1060.202	871.127
30.994	25.189	1059.122	869.515
32.009	25.563	1057.787	870.153
33.023	25.467	1057.584	869.443
34.038	25.380	1056.679	868.199
35.053	25.295	1055.663	866.879
36.067	25.608	1054.858	867.649
37.082	25.371	1054.781	866.367
38.096	25.509	1053.655	866.031
39.111	25.641	1052.975	866.031
40.126	25.756	1052.458	866.081
41.140	25.664	1051.128	864.470
42.155	25.479	1049.254	861.966
43.169	25.159	1048.336	859.601
44.184	24.975	1047.421	857.895
45.199	25.132	1046.654	857.939
46.213	25.141	1045.062	856.600
47.228	25.056	1044.534	855.690
48.242	25.163	1044.154	855.813
49.257	25.408	1043.158	856.087
50.271	25.313	1042.423	854.955
51.286	25.418	1042.006	855.037
52.301	25.593	1040.944	854.923
53.315	25.576	1040.355	854.283
54.330	25.421	1040.157	853.309
55.344	25.351	1039.008	851.960
56.359	25.446	1037.946	851.463
57.374	25.498	1036.871	850.751
58.388	25.360	1035.896	849.226
59.403	25.217	1035.032	847.767
60.417	25.161	1034.955	847.360
61.432	25.006	1033.974	845.754
62.447	25.104	1033.315	845.599
63.461	25.211	1032.647	845.483
64.476	25.227	1032.028	844.975
65.490	25.042	1031.657	843.730
66.505	25.075	1030.094	842.529
67.520	25.014	1029.297	841.518
68.534	25.254	1028.763	842.134
69.549	25.038	1028.182	840.569
70.563	24.847	1026.794	838.465
71.578	24.582	1026.159	836.630
72.593	24.747	1024.921	836.322
73.607	24.520	1023.957	834.400
74.622	24.565	1023.114	833.846
75.636	24.931	1022.327	834.841
76.651	25.060	1022.068	835.154
77.666	24.953	1021.096	833.790
78.680	24.879	1019.605	832.153
79.695	24.843	1019.038	831.452
80.709	24.949	1018.698	831.592
81.724	25.120	1017.955	831.708
82.739	24.950	1017.745	830.672
83.753	24.986	1016.670	829.890
84.768	25.295	1016.316	830.957
85.782	25.722	1015.746	832.393
86.797	25.752	1015.126	831.946
87.812	25.774	1014.036	831.083
88.826	25.553	1013.007	829.146
89.841	25.611	1012.119	828.612
90.855	25.768	1010.903	828.269
91.870	25.689	1010.893	827.822
92.884	25.636	1009.669	826.503
93.899	25.511	1009.092	825.384
94.914	25.491	1007.595	823.994
95.928	25.573	1007.478	824.203
96.943	25.609	1006.740	823.688
97.957	25.365	1005.514	821.497
98.972	25.114	1004.675	819.592
99.987	24.903	1003.609	817.685
101.001	25.101	1002.472	817.593
102.016	25.329	1002.329	818.440
103.030	25.363	1001.625	817.951
104.045	25.403	1000.219	816.913
105.060	25.313	999.016	815.446
106.074	24.956	998.511	813.342
107.089	24.983	997.844	812.851
108.103	25.287	997.409	813.803
109.118	25.413	996.285	813.384
110.133	25.251	994.923	811.467
111.147	25.096	993.870	809.836
112.162	24.965	993.058	808.511
113.176	24.761	991.775	806.473
114.191	25.042	991.086	807.109
115.206	25.116	990.901	807.221
116.220	24.863	989.245	804.661
117.235	24.754	988.386	803.404
118.249	24.783	988.288	803.383
119.264	24.730	987.570	802.491
120.279	24.653	986.244	800.995
121.293	24.713	985.414	800.520
122.308	24.799	985.295	800.739
123.322	24.866	984.241	800.110
124.337	24.776	982.914	798.560
125.352	24.603	982.106	797.062
126.366	24.303	980.423	794.287
127.381	24.016	979.087	791.859
128.395	24.492	978.972	793.812
129.410	25.147	978.576	796.328
130.424	25.321	978.185	796.712
131.439	25.367	976.736	795.666
132.454	25.324	975.901	794.728
133.468	25.238	975.306	793.791
134.483	25.282	974.464	793.230
135.497	25.214	974.195	792.642
136.512	25.430	973.588	793.032
137.527	25.690	972.375	793.118
138.541	25.699	971.250	792.170
139.556	25.558	971.102	791.359
140.570	25.548	970.720	790.933
141.585	25.626	969.702	790.379
142.600	25.749	968.908	790.200
143.614	25.579	968.217	788.818
144.629	25.687	967.346	788.516
145.643	25.896	966.795	788.909
146.658	25.797	965.421	787.284
147.673	25.586	964.510	785.553
148.687	25.556	963.633	784.638
149.702	25.488	962.474	783.329
150.716	25.233	961.804	781.603
151.731	25.185	960.606	780.351
152.746	25.273	959.968	780.146
153.760	25.527	959.410	780.729
154.775	25.661	958.491	780.494
155.789	25.688	957.447	779.688
156.804	25.747	956.568	779.158
157.819	25.636	955.398	777.657
158.833	25.809	954.383	777.510
159.848	25.653	954.467	776.837
160.862	25.889	953.518	777.012
161.877	25.723	952.429	775.342
162.892	25.702	951.387	774.333
163.906	25.689	950.990	773.888
164.921	25.677	949.862	772.851
165.935	25.429	948.840	770.886
166.950	25.627	947.595	770.653
167.964	25.785	946.862	770.665
168.979	25.668	945.661	769.122
169.994	25.698	944.513	768.248
171.008	25.416	943.621	766.248
172.023	25.527	943.390	766.469
173.037	25.761	942.651	766.798
174.052	25.520	941.453	764.731
175.067	25.401	940.808	763.632
176.081	25.348	939.521	762.296
177.096	25.406	938.731	761.831
178.110	25.567	938.019	761.871
179.125	25.213	937.229	759.661
180.140	25.077	936.031	758.046
181.154	24.971	935.317	756.953
182.169	25.182	934.971	757.497
183.183	25.422	934.668	758.198
184.198	25.748	934.208	759.134
185.213	25.661	933.486	758.116
186.227	25.559	932.987	757.211
187.242	25.561	932.701	756.922
188.256	25.710	931.752	756.711
189.271	25.780	930.858	756.210
190.286	25.705	930.572	755.597
191.300	25.487	929.711	753.919
192.315	24.992	928.635	750.902
193.329	24.334	926.555	746.402
194.344	23.833	925.354	743.276
195.359	24.452	925.613	746.005
196.373	25.370	925.829	749.948
197.388	25.584	925.728	750.694
198.402	25.378	925.468	749.556
199.417	25.387	924.812	748.997
200.432	25.612	924.099	749.289
201.446	25.504	923.431	748.232
202.461	25.119	923.035	746.241
203.475	25.146	922.171	745.590
204.490	24.838	920.852	743.179
205.504	23.608	918.809	736.365
206.519	24.059	918.130	737.625
207.534	24.931	918.953	741.835
208.548	24.981	918.351	741.490
209.563	25.473	917.772	742.990
210.577	25.489	917.081	742.432
211.592	25.249	916.729	741.093
212.607	25.615	916.512	742.361
213.621	25.913	915.756	742.910
214.636	25.735	915.335	741.773
215.650	25.707	914.640	741.028
216.665	25.749	913.819	740.468
217.680	25.687	913.657	740.018
218.694	25.717	913.336	739.817
219.709	25.503	912.089	737.863
220.723	25.124	910.939	735.311
221.738	25.332	910.928	736.091
222.753	25.452	910.967	736.550
223.767	25.404	909.867	735.398
224.782	25.406	909.424	734.983
225.796	25.664	908.801	735.469
226.811	25.898	907.945	735.668
227.826	25.452	906.984	733.006
228.840	24.676	905.315	728.430
229.855	24.561	904.519	727.255
230.869	24.964	904.188	728.565
231.884	24.383	903.649	725.706
232.899	24.642	902.482	725.756
233.913	25.338	902.819	728.789
234.928	25.491	902.564	729.137
235.942	25.332	902.245	728.173
236.957	25.412	900.999	727.425
237.972	25.154	900.113	725.601
238.986	24.943	899.648	724.309
240.001	25.223	898.825	724.713
241.015	25.108	898.206	723.685
242.030	25.304	897.551	723.886
243.045	25.406	897.186	723.940
244.059	25.460	897.011	723.949
245.074	25.688	896.361	724.278
246.088	25.711	895.475	723.592
247.103	25.387	894.252	721.237
248.117	25.246	894.400	720.727
249.132	25.872	894.186	723.004
250.147	26.246	893.974	724.267
251.161	26.288	893.329	723.851
252.176	26.318	893.172	723.779
253.190	26.466	892.393	723.677
254.205	26.361	892.289	723.106
255.220	26.667	891.604	723.711
256.234	26.648	891.102	723.165
257.249	26.523	889.978	721.688
258.263	26.356	889.610	720.661
259.278	26.407	889.134	720.415
260.293	26.483	888.701	720.302
261.307	26.513	888.287	720.025
262.322	26.428	887.498	718.984
263.336	26.300	886.725	717.782
264.351	25.914	885.368	715.090
265.366	24.903	883.227	709.294
266.380	24.414	882.470	706.687
267.395	25.130	882.979	709.871
268.409	25.944	882.859	712.932
269.424	25.988	882.482	712.737
270.439	26.028	882.159	712.571
271.453	26.267	881.035	712.543
272.468	26.206	880.835	712.077
273.482	26.220	880.736	711.988
274.497	26.370	880.307	712.170
275.512	26.298	878.922	710.705
276.526	25.716	877.736	707.398
277.541	25.878	877.339	707.650
278.555	26.321	877.147	709.170
279.570	26.161	876.316	707.809
280.585	25.864	875.734	706.112
281.599	26.041	875.157	706.276
282.614	25.966	875.222	705.972
283.628	25.727	873.634	703.698
284.643	25.340	872.898	701.528
285.657	25.733	872.910	703.013
286.672	25.629	872.134	701.919
287.687	25.307	870.988	699.681
288.701	25.410	871.017	700.042
289.716	25.957	870.662	701.827
290.730	25.583	869.697	699.530
291.745	25.424	869.032	698.315
292.760	25.241	867.888	696.624
293.774	25.184	867.351	695.911
294.789	26.150	868.155	700.242
295.803	26.732	868.299	702.556
296.818	26.548	868.119	701.634
297.833	26.913	867.372	702.380
298.847	26.554	866.049	699.859
299.862	26.353	864.864	698.062
300.876	26.459	864.500	698.118
301.891	26.747	864.197	698.923
302.906	26.906	863.851	699.193
303.920	26.455	862.681	696.447
304.935	26.171	862.479	695.130
305.949	26.582	862.050	696.304
306.964	26.787	861.416	696.518
307.979	26.459	860.648	694.578
308.993	26.666	859.692	694.536
310.008	26.782	859.595	694.841
311.022	26.963	859.578	695.462
312.037	26.736	858.906	693.986
313.052	26.450	858.464	692.473
314.066	26.387	857.245	691.186
315.081	25.799	856.141	687.991
316.095	24.761	854.927	682.993
317.110	25.388	855.056	685.430
318.125	26.386	855.237	689.321
319.139	25.996	854.128	686.879
320.154	24.759	852.675	680.944
321.168	24.281	851.358	678.014
322.183	25.025	851.694	681.052
323.197	25.807	852.004	684.212
324.212	26.386	851.636	686.053
325.227	26.496	851.366	686.194
326.241	26.544	850.790	685.852
327.256	26.347	850.613	684.902
328.270	26.460	849.494	684.364
329.285	26.253	849.036	683.155
330.300	26.099	848.328	681.942
331.314	25.726	847.758	680.013
332.329	26.039	847.176	680.669
333.343	26.284	846.924	681.329
334.358	26.593	846.515	682.103
335.373	26.460	846.437	681.481
336.387	26.589	845.665	681.285
337.402	26.803	844.988	681.482
338.416	27.097	844.681	682.278
339.431	27.078	844.066	681.653
340.446	27.090	843.079	680.838
341.460	27.308	843.263	681.746
342.475	27.240	842.646	680.931
343.489	26.887	842.184	679.177
344.504	26.981	841.285	678.742
345.519	27.166	841.037	679.174
346.533	27.519	840.423	679.935
347.548	27.489	840.027	679.444
348.562	27.444	839.636	678.897
349.577	27.261	839.256	677.848
350.592	27.328	838.542	677.463
351.606	27.302	837.909	676.792
352.621	27.263	837.523	676.278
353.635	27.328	836.914	675.968
354.650	27.136	836.495	674.858
355.665	26.820	835.482	672.808
356.679	25.824	833.602	667.545
357.694	25.573	833.448	666.433
358.708	26.323	833.270	669.009
359.723	26.223	833.010	668.370
360.738	26.466	832.688	668.949
361.752	26.947	832.439	670.469
362.767	26.966	832.441	670.480
363.781	27.277	832.456	671.582
364.796	27.654	832.019	672.560
365.810	27.789	831.330	672.441
366.825	27.814	831.128	672.310
367.840	27.991	830.788	672.627
368.854	27.677	830.100	670.857
369.869	27.173	829.378	668.361
370.883	27.146	828.234	667.283
371.898	27.256	828.117	667.532
372.913	27.063	827.271	666.083
373.927	27.209	826.545	665.975
374.942	27.253	825.942	665.591
375.956	27.310	825.569	665.440
376.971	27.455	825.104	665.536
377.986	27.618	824.566	665.638
379.000	27.791	824.216	665.929
380.015	27.694	823.955	665.305
381.029	27.518	822.739	663.622
382.044	27.523	822.331	663.254
383.059	27.724	821.871	663.555
384.073	27.856	821.516	663.690
385.088	27.665	821.241	662.715
386.102	27.736	820.532	662.342
387.117	27.515	819.656	660.776
388.132	27.385	819.107	659.802
389.146	27.316	818.377	658.905
390.161	26.703	817.400	655.842
391.175	26.773	817.060	655.765
392.190	27.460	817.335	658.411
393.205	27.482	816.901	658.086
394.219	26.495	814.719	652.711
395.234	24.770	812.867	644.953
396.248	24.022	811.375	641.022
397.263	25.051	812.373	645.459
398.278	26.826	813.512	652.702
399.292	27.284	813.831	654.552
400.307	26.869	813.346	652.611
401.321	26.952	812.537	652.200
402.336	26.979	812.417	652.145
403.350	27.342	812.297	653.295
404.365	27.817	812.236	654.893
405.380	28.132	812.116	655.867
406.394	28.230	811.932	656.010
407.409	28.498	811.169	656.295
408.423	28.586	810.895	656.332
409.438	28.398	810.094	654.955
410.453	28.306	810.059	654.538
411.467	28.495	809.393	654.617
412.482	28.362	808.750	653.565
413.496	28.362	808.382	653.208
414.511	28.614	807.973	653.717
415.526	28.476	807.976	653.172
416.540	28.426	807.462	652.518
417.555	28.401	806.915	651.932
418.569	28.067	805.974	649.927
419.584	28.028	805.210	649.113
420.599	28.117	805.105	649.289
421.613	94.783	1262.311	1371.906
422.628	81.307	1328.959	1372.028
