DTS Sentinel unit serial number:	SN413079Multiplexer serial number:	ORYXHardware model number:	OX4-SRSoftware version number:	ORYX F/W v4.00 Oryx Data Collector v3.7.2.0data status	okinstallation	princeton_trtdifferential loss correction	single-endedforward channel	channel 3reverse channel	N/Adate	2019/09/12time	22:36:35forward acquisition time	60.00reverse acquisition time	0.00gamma	496.2192k internal	0.2327k external	0.2327temperature offset calibration	1.0129default loss term (dB/km)	0.3790temperature slope calibration	1.0000multiplexer offset coefficient	1.0000multiplexer slope coefficient	1.0000fibre end	0.00T internal ref (°C)	29.62T ext. ref 1 (°C)	3.73T ext. ref 2 (°C)	24.21length (m)	temperature (°C)	Stokes	anti-Stokes-747.200	-108.273	-0.050	0.011
-746.185	601.350	-0.087	-0.219
-745.171	-200.000	-0.030	0.209
-744.156	175.278	0.106	0.155
-743.142	362.765	-0.067	-0.136
-742.127	-200.000	-0.106	0.666
-741.112	-169.706	0.110	0.004
-740.098	-6.547	0.160	0.110
-739.083	54.009	0.236	-0.229
-738.069	145.647	0.233	0.314
-737.054	800.000	0.058	-0.166
-736.039	251.705	-0.092	-0.157
-735.025	-200.000	0.019	-0.146
-734.010	-127.372	-0.131	0.019
-732.996	-104.085	0.161	-0.038
-731.981	-93.442	-0.219	0.061
-730.966	800.000	0.066	-0.216
-729.952	-77.748	-0.139	-0.048
-728.937	-200.000	-0.033	0.187
-727.923	-200.000	0.013	-0.095
-726.908	417.086	-0.013	0.027
-725.894	-2.549	-0.151	0.107
-724.879	-165.451	-0.232	-0.010
-723.864	19.310	0.139	-0.113
-722.850	-200.000	-0.016	0.089
-721.835	-85.291	-0.128	-0.040
-720.821	-21.373	-0.182	0.112
-719.806	-145.119	-0.243	0.022
-718.791	-200.000	0.048	-0.324
-717.777	-200.000	0.067	-0.392
-716.762	-200.000	0.022	-0.211
-715.748	800.000	-0.051	-0.196
-714.733	-89.779	0.234	-0.069
-713.718	800.000	0.133	-0.420
-712.704	381.107	-0.087	-0.179
-711.689	-200.000	0.017	-0.082
-710.675	-1.731	0.252	-0.179
-709.660	224.343	-0.155	-0.252
-708.645	-74.331	-0.331	-0.120
-707.631	244.834	-0.142	-0.240
-706.616	800.000	-0.055	-0.204
-705.602	-16.242	-0.146	0.094
-704.587	-165.575	0.186	0.008
-703.572	800.000	-0.033	-0.133
-702.558	-91.377	0.097	-0.028
-701.543	-171.861	0.060	-0.002
-700.529	438.129	-0.093	0.205
-699.514	-156.846	0.210	0.013
-698.499	-105.466	0.402	0.092
-697.485	668.781	-0.133	0.347
-696.470	800.000	0.060	-0.234
-695.456	-38.357	0.211	-0.112
-694.441	800.000	-0.047	-0.182
-693.426	14.932	0.079	0.063
-692.412	-200.000	0.010	0.271
-691.397	34.013	0.028	-0.024
-690.383	38.989	-0.291	-0.262
-689.368	635.882	-0.168	-0.428
-688.354	-18.319	0.208	0.131
-687.339	397.912	-0.072	0.151
-686.324	242.194	0.085	0.143
-685.310	368.791	-0.069	-0.141
-684.295	305.590	-0.058	0.109
-683.281	-44.395	-0.162	0.081
-682.266	34.224	-0.216	-0.189
-681.251	-76.325	0.428	0.152
-680.237	-17.127	0.250	-0.159
-679.222	-28.109	0.164	0.096
-678.208	-139.523	-0.363	-0.039
-677.193	-149.811	0.394	0.031
-676.178	554.898	0.076	-0.184
-675.164	318.877	-0.191	-0.364
-674.149	-117.789	-0.127	-0.023
-673.135	-46.902	-0.218	0.107
-672.120	-111.110	-0.191	-0.039
-671.105	800.000	0.017	0.053
-670.091	-70.803	-0.362	0.137
-669.076	-200.000	0.103	0.528
-668.062	-101.561	-0.150	-0.037
-667.047	-124.705	0.153	0.024
-666.032	262.904	0.031	-0.055
-665.018	0.255	0.093	-0.067
-664.003	163.030	-0.259	0.366
-662.989	-22.289	-0.167	-0.102
-661.974	-38.870	-0.063	-0.033
-660.959	126.030	0.152	0.193
-659.945	-36.600	0.148	0.080
-658.930	-25.699	0.061	0.036
-657.916	-154.518	-0.124	-0.008
-656.901	142.246	-0.084	0.112
-655.886	800.000	0.080	0.243
-654.872	800.000	0.066	-0.187
-653.857	-67.990	0.188	-0.074
-652.843	361.799	-0.102	-0.205
-651.828	-125.263	-0.132	-0.020
-650.814	-112.191	0.156	-0.031
-649.799	-125.830	-0.391	0.059
-648.784	-200.000	-0.008	0.066
-647.770	5.885	0.096	-0.071
-646.755	9.477	0.053	-0.040
-645.741	-149.708	0.197	-0.016
-644.726	1.986	0.162	0.117
-643.711	212.044	0.093	0.148
-642.697	-125.140	-0.150	-0.023
-641.682	167.986	-0.191	-0.273
-640.668	66.148	-0.224	0.228
-639.653	598.078	0.028	-0.069
-638.638	126.639	-0.304	-0.386
-637.624	-200.000	-0.005	-0.298
-636.609	-83.944	-0.165	0.053
-635.595	-200.000	-0.010	0.072
-634.580	50.186	-0.255	-0.242
-633.565	412.214	0.062	-0.131
-632.551	-31.193	-0.274	0.155
-631.536	3.665	-0.141	-0.104
-630.522	800.000	0.060	-0.232
-629.507	59.737	0.063	-0.062
-628.492	-165.640	-0.185	-0.008
-627.478	200.464	-0.115	0.178
-626.463	-200.000	0.021	-0.169
-625.449	-165.096	-0.010	0.000
-624.434	-200.000	0.037	0.219
-623.419	85.142	-0.109	-0.120
-622.405	349.938	0.088	0.174
-621.390	199.986	-0.064	0.099
-620.376	-16.575	-0.278	0.177
-619.361	-200.000	0.004	-0.590
-618.346	-127.238	-0.541	0.079
-617.332	290.296	-0.224	-0.409
-616.317	-16.199	-0.110	-0.070
-615.303	-82.103	-0.520	0.170
-614.288	164.515	0.156	-0.221
-613.273	9.850	-0.110	-0.084
-612.259	666.901	0.085	0.220
-611.244	9.990	0.293	0.223
-610.230	-200.000	-0.024	-0.148
-609.215	-200.000	-0.050	0.304
-608.201	121.782	-0.294	0.368
-607.186	48.386	-0.114	0.107
-606.171	-37.458	-0.198	0.106
-605.157	-69.795	-0.185	-0.071
-604.142	-200.000	-0.003	0.061
-603.128	-57.581	-0.144	-0.063
-602.113	85.809	-0.326	-0.360
-601.098	-200.000	0.021	-0.152
-600.084	188.641	-0.104	-0.156
-599.069	25.765	0.334	-0.279
-598.055	-111.596	0.420	-0.086
-597.040	-58.884	-0.365	0.158
-596.025	26.731	0.168	-0.141
-595.011	41.888	0.067	-0.061
-593.996	-133.448	0.269	0.034
-592.982	-123.637	-0.493	0.078
-591.967	-200.000	-0.071	-0.365
-590.952	57.468	-0.092	0.090
-589.938	234.134	0.274	-0.452
-588.923	279.339	-0.194	-0.347
-587.909	304.482	-0.033	-0.061
-586.894	-200.000	0.015	0.208
-585.879	-71.427	0.159	0.060
-584.865	-91.435	-0.152	0.043
-583.850	116.837	-0.174	0.213
-582.836	-130.123	-0.092	-0.013
-581.821	-200.000	0.039	0.170
-580.806	200.626	0.148	-0.227
-579.792	-90.233	0.307	-0.089
-578.777	-200.000	-0.040	0.203
-577.763	-139.866	-0.193	0.020
-576.748	-200.000	0.034	-0.210
-575.733	665.801	0.196	-0.507
-574.719	-200.000	-0.069	-0.478
-573.704	-38.281	0.065	0.035
-572.690	-165.870	0.090	-0.004
-571.675	34.102	0.234	0.204
-570.661	-57.395	-0.242	-0.106
-569.646	-146.655	-0.458	-0.040
-568.631	-43.928	0.352	0.177
-567.617	800.000	0.084	-0.240
-566.602	27.010	-0.173	0.145
-565.588	-98.013	0.248	-0.064
-564.573	-200.000	0.010	0.143
-563.558	-200.000	0.057	-0.397
-562.544	146.038	-0.125	-0.168
-561.529	26.854	-0.111	0.093
-560.515	-77.729	-0.089	-0.031
-559.500	-51.918	0.217	-0.101
-558.485	403.036	0.195	-0.411
-557.471	-117.344	0.431	0.078
-556.456	548.808	-0.056	0.134
-555.442	-200.000	-0.024	-0.109
-554.427	-200.000	-0.001	0.062
-553.412	54.573	0.205	0.197
-552.398	370.517	-0.068	0.138
-551.383	-69.708	-0.259	-0.099
-550.369	-10.467	-0.108	0.072
-549.354	114.973	-0.181	0.221
-548.339	256.161	-0.076	-0.130
-547.325	217.197	-0.045	0.072
-546.310	338.295	0.056	0.109
-545.296	34.383	-0.198	0.173
-544.281	-80.754	0.217	-0.072
-543.266	-16.593	0.143	0.091
-542.252	420.793	-0.116	-0.250
-541.237	20.917	-0.056	-0.045
-540.223	66.398	-0.090	0.092
-539.208	9.391	0.166	0.125
-538.193	438.080	-0.068	0.148
-537.179	111.390	0.127	0.153
-536.164	263.291	-0.066	0.114
-535.150	-110.012	-0.388	0.081
-534.135	-67.341	-0.496	0.195
-533.121	-41.688	-0.356	0.183
-532.106	-95.245	-0.194	0.052
-531.091	-200.000	0.010	-0.143
-530.077	-116.603	-0.168	0.031
-529.062	85.372	-0.138	-0.151
-528.048	0.969	-0.183	-0.131
-527.033	-123.861	0.257	-0.041
-526.018	-43.431	-0.204	-0.103
-525.004	-54.946	-0.258	-0.116
-523.989	-56.662	-0.141	-0.062
-522.975	-79.713	0.335	-0.113
-521.960	698.274	0.093	-0.244
-520.945	110.271	-0.141	0.170
-519.931	707.726	-0.094	0.249
-518.916	800.000	0.047	0.135
-517.902	-200.000	0.045	-0.259
-516.887	-15.352	0.144	0.092
-515.872	223.881	0.104	-0.168
-514.858	800.000	-0.057	0.203
-513.843	-200.000	0.035	-0.238
-512.829	-81.780	-0.283	-0.093
-511.814	207.335	0.073	0.114
-510.799	-200.000	-0.003	-0.283
-509.785	-138.954	0.157	0.017
-508.770	-200.000	-0.014	-0.108
-507.756	79.869	0.253	-0.271
-506.741	416.509	0.073	0.156
-505.726	-200.000	0.003	-0.078
-504.712	-16.760	0.095	-0.060
-503.697	-35.824	0.073	-0.039
-502.683	-87.224	0.125	-0.038
-501.668	287.873	-0.089	0.161
-500.653	503.718	0.144	-0.334
-499.639	-200.000	-0.051	-0.311
-498.624	25.723	0.093	0.078
-497.610	168.392	-0.208	0.295
-496.595	-200.000	-0.007	-0.284
-495.581	340.275	0.109	-0.213
-494.566	-98.959	0.408	0.103
-493.551	227.850	-0.155	-0.251
-492.537	800.000	-0.088	0.245
-491.522	10.404	-0.103	-0.078
-490.508	-158.879	0.249	0.014
-489.493	265.815	0.097	-0.168
-488.478	-39.232	-0.034	-0.018
-487.464	209.165	-0.049	0.077
-486.449	-16.560	0.331	-0.209
-485.435	12.736	-0.177	0.137
-484.420	-1.281	-0.177	-0.125
-483.405	800.000	0.054	0.188
-482.391	-200.000	0.000	0.340
-481.376	567.242	0.107	0.258
-480.362	80.186	0.182	0.195
-479.347	-61.743	0.073	0.031
-478.332	-74.247	-0.239	-0.086
-477.318	-98.768	-0.129	0.033
-476.303	389.772	0.131	-0.272
-475.289	-200.000	-0.013	-0.101
-474.274	35.807	-0.149	-0.131
-473.259	163.217	-0.107	-0.151
-472.245	-77.758	-0.140	0.048
-471.230	-200.000	0.024	0.179
-470.216	-56.850	0.367	0.162
-469.201	-105.177	0.109	0.025
-468.186	79.073	-0.174	0.186
-467.172	193.574	-0.033	-0.049
-466.157	-98.122	0.269	-0.069
-465.143	37.576	0.309	0.274
-464.128	-28.339	-0.205	0.118
-463.113	-39.110	0.316	0.166
-462.099	-200.000	0.026	-0.269
-461.084	800.000	0.075	0.214
-460.070	16.900	-0.294	0.232
-459.055	-122.635	0.099	0.016
-458.040	800.000	-0.066	-0.267
-457.026	-10.948	-0.106	-0.070
-456.011	800.000	0.056	0.168
-454.997	123.786	0.219	0.275
-453.982	12.378	0.308	-0.237
-452.968	-200.000	0.003	-0.192
-451.953	103.728	0.180	0.211
-450.938	9.813	0.060	-0.046
-449.924	-88.938	-0.314	0.093
-448.909	-134.448	0.338	0.041
-447.895	289.170	-0.042	0.075
-446.880	-59.721	0.147	-0.063
-445.865	-200.000	-0.013	-0.094
-444.851	14.208	-0.278	-0.216
-443.836	-164.338	-0.322	-0.015
-442.822	-126.515	-0.248	0.037
-441.807	800.000	0.030	-0.123
-440.792	-3.802	-0.167	0.116
-439.778	6.113	-0.262	-0.194
-438.763	800.000	0.003	-0.009
-437.749	-200.000	0.002	-0.188
-436.734	128.267	0.089	-0.112
-435.719	511.283	0.095	0.220
-434.705	-200.000	0.029	0.344
-433.690	13.357	0.183	-0.141
-432.676	-0.698	-0.175	-0.124
-431.661	-96.875	0.408	-0.107
-430.646	-114.041	0.320	0.062
-429.632	-157.026	-0.120	-0.007
-428.617	-200.000	0.002	-0.152
-427.603	158.863	-0.110	0.153
-426.588	19.901	0.181	-0.145
-425.573	800.000	-0.085	0.340
-424.559	565.101	0.023	0.056
-423.544	142.347	0.118	-0.155
-422.530	-23.882	-0.364	0.217
-421.515	52.090	-0.046	0.043
-420.500	431.213	-0.117	0.251
-419.486	800.000	0.014	0.042
-418.471	-200.000	-0.025	-0.288
-417.457	359.997	0.104	-0.207
-416.442	-200.000	0.007	0.099
-415.428	-88.821	0.089	0.026
-414.413	-101.281	-0.267	-0.065
-413.398	-74.416	-0.243	-0.087
-412.384	-3.720	0.218	-0.151
-411.369	556.858	-0.141	0.338
-410.355	-181.737	0.294	0.006
-409.340	800.000	0.150	0.486
-408.325	-200.000	0.009	0.325
-407.311	657.906	-0.099	0.254
-406.296	-41.227	0.248	-0.127
-405.282	-135.900	-0.075	-0.009
-404.267	-150.279	0.145	0.011
-403.252	32.154	0.069	0.059
-402.238	98.575	-0.097	0.111
-401.223	130.337	-0.070	0.090
-400.209	-109.855	-0.315	-0.066
-399.194	-116.012	0.454	0.084
-398.179	-85.967	-0.360	0.111
-397.165	-9.732	-0.110	-0.073
-396.150	-106.277	0.184	-0.041
-395.136	94.043	0.112	-0.126
-394.121	800.000	-0.042	0.177
-393.106	-200.000	0.006	-0.119
-392.092	-88.381	0.157	-0.047
-391.077	-200.000	-0.007	-0.104
-390.063	800.000	0.087	0.298
-389.048	11.188	-0.195	-0.148
-388.033	-99.109	0.174	-0.044
-387.019	-200.000	0.028	0.189
-386.004	-104.822	-0.493	-0.113
-384.990	-20.776	0.381	0.233
-383.975	-101.111	-0.136	0.033
-382.960	418.158	0.186	0.396
-381.946	-160.592	-0.269	-0.014
-380.931	37.197	0.200	0.176
-379.917	584.033	-0.050	0.123
-378.902	800.000	-0.061	0.240
-377.888	-159.053	0.261	-0.015
-376.873	103.499	0.093	-0.108
-375.858	-200.000	0.006	0.039
-374.844	-95.521	-0.100	-0.027
-373.829	266.759	-0.087	0.152
-372.815	41.936	0.122	0.110
-371.800	-17.968	-0.220	-0.137
-370.785	-121.592	-0.215	0.035
-369.771	-200.000	-0.009	-0.184
-368.756	98.850	0.049	0.056
-367.742	78.690	0.128	-0.136
-366.727	543.623	0.106	-0.250
-365.712	-171.421	0.447	0.015
-364.698	-200.000	0.002	-0.179
-363.683	-65.152	-0.224	-0.090
-362.669	-200.000	0.139	-0.000
-361.654	-200.000	-0.048	0.282
-360.639	-200.000	0.029	-0.380
-359.625	-142.330	0.044	-0.004
-358.610	800.000	-0.041	0.151
-357.596	-200.000	0.023	0.156
-356.581	435.056	-0.168	0.363
-355.566	-87.942	-0.070	-0.021
-354.552	-104.795	0.210	0.048
-353.537	262.068	-0.023	0.040
-352.523	151.808	-0.197	0.266
-351.508	471.093	-0.018	0.040
-350.493	664.075	-0.141	0.361
-349.479	35.019	0.191	0.166
-348.464	-17.590	-0.084	-0.052
-347.450	-200.000	0.038	0.194
-346.435	-194.700	-0.120	-0.001
-345.420	-151.329	0.178	0.013
-344.406	448.596	-0.105	-0.229
-343.391	800.000	0.099	-0.352
-342.377	-61.522	-0.327	-0.136
-341.362	-36.088	0.039	-0.021
-340.348	-120.418	-0.218	0.037
-339.333	-200.000	0.019	0.211
-338.318	233.452	0.155	0.253
-337.304	-19.852	0.138	0.085
-336.289	-28.212	0.327	0.188
-335.275	-200.000	0.065	-0.341
-334.260	-18.247	-0.052	-0.032
-333.245	25.022	0.054	0.044
-332.231	-126.251	0.173	0.026
-331.216	-127.458	-0.283	-0.041
-330.202	-89.494	0.221	-0.064
-329.187	224.284	0.099	0.158
-328.172	-125.072	0.174	-0.026
-327.158	84.629	0.083	-0.090
-326.143	-79.798	-0.254	0.085
-325.129	-200.000	-0.017	0.345
-324.114	-200.000	-0.081	0.408
-323.099	255.432	-0.098	-0.166
-322.085	171.061	-0.210	0.299
-321.070	-200.000	0.025	0.132
-320.056	-200.000	0.008	0.222
-319.041	170.426	0.183	0.260
-318.026	-107.058	0.398	0.087
-317.012	102.826	-0.020	-0.024
-315.997	-47.881	-0.190	0.091
-314.983	-200.000	0.034	-0.174
-313.968	78.672	0.112	0.118
-312.953	-174.231	0.391	0.011
-311.939	-200.000	0.012	0.132
-310.924	-43.845	0.204	-0.102
-309.910	172.310	-0.168	-0.239
-308.895	-168.248	0.101	0.004
-307.880	-81.876	-0.231	-0.075
-306.866	800.000	-0.078	0.267
-305.851	-109.107	-0.417	0.088
-304.837	-200.000	0.037	-0.222
-303.822	65.729	0.102	-0.102
-302.807	8.965	0.138	-0.103
-301.793	-134.097	0.195	-0.024
-300.778	800.000	0.070	0.250
-299.764	-143.592	-0.223	0.021
-298.749	800.000	0.091	0.252
-297.735	-200.000	0.030	-0.416
-296.720	800.000	0.047	-0.140
-295.705	-51.428	0.182	-0.084
-294.691	-72.329	0.242	-0.089
-293.676	-46.860	0.047	-0.023
-292.662	-200.000	-0.028	-0.134
-291.647	31.968	-0.236	0.201
-290.632	-71.918	0.227	0.084
-289.618	-136.971	0.269	0.031
-288.603	-200.000	-0.004	0.022
-287.589	-16.199	0.279	0.176
-286.574	-134.606	0.246	0.030
-285.559	-51.811	0.162	0.075
-284.545	45.493	0.206	-0.188
-283.530	322.281	-0.129	0.243
-282.516	22.219	0.172	-0.139
-281.501	-38.201	0.238	0.125
-280.486	147.425	0.089	0.118
-279.472	-23.441	0.222	-0.132
-278.457	800.000	0.118	0.366
-277.443	800.000	0.045	0.129
-276.428	-103.622	-0.069	-0.016
-275.413	-200.000	0.452	0.000
-274.399	800.000	-0.095	-0.306
-273.384	-56.595	-0.089	0.039
-272.370	-200.000	0.009	0.214
-271.355	789.920	-0.007	0.020
-270.340	-138.476	-0.206	-0.022
-269.326	-200.000	-0.012	0.276
-268.311	-123.915	0.245	0.038
-267.297	-51.493	-0.357	-0.165
-266.282	-200.000	-0.010	-0.072
-265.267	11.654	-0.166	-0.126
-264.253	-200.000	-0.016	0.304
-263.238	30.481	0.164	0.139
-262.224	-200.000	0.003	0.067
-261.209	235.008	0.076	0.124
-260.195	-107.125	-0.088	0.019
-259.180	156.019	-0.220	-0.300
-258.165	-129.396	0.146	-0.020
-257.151	395.636	-0.087	0.180
-256.136	-165.406	0.407	-0.018
-255.122	59.051	-0.250	-0.243
-254.107	-200.000	0.005	0.058
-253.092	-200.000	0.006	0.242
-252.078	-7.696	-0.116	0.078
-251.063	-70.620	0.254	-0.095
-250.049	67.681	0.141	0.143
-249.034	-200.000	0.006	0.102
-248.019	-75.188	-0.185	0.066
-247.005	288.361	-0.057	0.102
-245.990	135.775	-0.136	-0.175
-244.976	254.648	0.136	0.230
-243.961	49.548	0.225	0.210
-242.946	-117.608	-0.130	-0.023
-241.932	82.300	-0.086	-0.092
-240.917	-42.728	-0.182	0.092
-239.903	321.200	-0.137	-0.257
-238.888	-200.000	0.034	0.242
-237.873	354.512	-0.050	0.098
-236.859	-200.000	0.043	0.191
-235.844	-200.000	0.022	0.109
-234.830	370.740	-0.048	-0.095
-233.815	-200.000	0.020	-0.201
-232.800	217.045	-0.111	-0.174
-231.786	-150.353	-0.232	0.018
-230.771	-102.556	0.181	0.043
-229.757	-167.816	-0.274	0.011
-228.742	633.911	0.032	-0.080
-227.727	-67.210	-0.494	-0.192
-226.713	-200.000	0.056	0.257
-225.698	53.780	0.026	-0.025
-224.684	-156.399	-0.088	0.005
-223.669	-200.000	0.017	0.339
-222.655	115.146	-0.170	0.205
-221.640	-200.000	0.056	0.370
-220.625	-96.437	0.041	0.011
-219.611	-50.946	0.238	0.111
-218.596	143.834	0.154	-0.202
-217.582	16.819	-0.250	0.195
-216.567	800.000	-0.094	-0.258
-215.552	185.909	0.165	-0.243
-214.538	67.481	-0.257	0.259
-213.523	264.593	-0.152	-0.262
-212.509	135.250	0.252	-0.324
-211.494	-144.385	0.150	-0.014
-210.479	-58.597	0.031	0.013
-209.465	-167.712	-0.201	0.008
-208.450	-101.288	-0.139	-0.033
-207.436	-21.514	-0.155	0.093
-206.421	364.536	-0.015	0.030
-205.406	-76.615	0.178	0.062
-204.392	-89.736	0.574	0.166
-203.377	-52.696	-0.100	0.046
-202.363	429.534	0.061	-0.130
-201.348	800.000	0.017	0.057
-200.333	123.632	0.197	-0.244
-199.319	-121.485	0.419	0.069
-198.304	-142.015	-0.083	-0.008
-197.290	800.000	-0.059	-0.171
-196.275	800.000	-0.069	-0.248
-195.260	1.813	0.161	-0.115
-194.246	283.751	0.163	0.290
-193.231	89.586	0.081	0.089
-192.217	-67.620	0.156	-0.060
-191.202	-48.492	-0.003	-0.001
-190.187	-114.683	-0.237	0.045
-189.173	-163.984	0.381	-0.017
-188.158	710.665	0.155	-0.405
-187.144	-133.430	-0.038	0.005
-186.129	204.014	-0.146	-0.224
-185.114	-58.362	-0.307	0.132
-184.100	236.194	-0.181	-0.295
-183.085	-99.684	-0.029	0.007
-182.071	-200.000	-0.077	-0.338
-181.056	-200.000	-0.003	0.041
-180.042	50.982	-0.360	-0.337
-179.027	-87.708	0.244	0.073
-178.012	184.616	-0.106	0.156
-176.998	-200.000	-0.043	-0.201
-175.983	-145.362	-0.414	-0.037
-174.969	460.752	0.068	0.150
-173.954	-70.992	0.138	-0.051
-172.939	-200.000	0.026	-0.125
-171.925	-200.000	-0.015	-0.112
-170.910	-141.684	0.066	-0.007
-169.896	11.741	0.265	-0.200
-168.881	-97.618	0.371	0.095
-167.866	-65.587	-0.037	-0.015
-166.852	-34.384	-0.099	0.053
-165.837	298.208	0.033	0.059
-164.823	-155.983	0.085	-0.005
-163.808	-97.886	0.142	0.036
-162.793	-69.718	0.122	-0.046
-161.779	-73.417	0.043	-0.016
-160.764	-101.604	-0.296	0.071
-159.750	-115.920	-0.264	-0.049
-158.735	264.988	0.151	-0.259
-157.720	157.401	0.165	-0.225
-156.706	-82.089	0.227	-0.073
-155.691	163.460	0.241	-0.335
-154.677	360.825	0.067	-0.133
-153.662	-200.000	-0.096	-0.448
-152.647	53.011	-0.176	0.166
-151.633	276.800	-0.041	0.072
-150.618	-8.033	-0.195	0.130
-149.604	-22.261	-0.342	0.204
-148.589	-127.589	0.220	0.031
-147.574	7.859	0.225	0.166
-146.560	-169.516	0.318	-0.011
-145.545	-68.587	-0.329	0.125
-144.531	737.620	-0.035	-0.092
-143.516	-113.661	0.209	-0.040
-142.502	62.618	0.246	-0.243
-141.487	800.000	0.029	-0.114
-140.472	-200.000	0.006	0.300
-139.458	118.352	0.124	0.151
-138.443	-92.462	-0.203	0.056
-137.429	800.000	0.118	0.370
-136.414	-63.136	0.052	0.021
-135.399	65.731	-0.135	-0.135
-134.385	-200.000	-0.028	0.449
-133.370	-36.183	-0.255	0.135
-132.356	-39.490	0.202	-0.104
-131.341	-200.000	0.048	-0.375
-130.326	-31.704	-0.071	-0.039
-129.312	800.000	0.038	-0.155
-128.297	109.777	-0.058	0.069
-127.283	-57.004	0.258	0.112
-126.268	800.000	0.023	0.064
-125.253	-3.321	-0.052	-0.036
-124.239	-183.162	-0.256	0.004
-123.224	33.458	-0.155	0.132
-122.210	-101.618	0.047	0.011
-121.195	-200.000	0.019	-0.154
-120.180	-71.928	0.213	-0.078
-119.166	525.613	0.206	-0.478
-118.151	-79.116	0.127	-0.042
-117.137	-133.843	-0.132	0.016
-116.122	23.857	-0.088	-0.071
-115.107	-161.995	0.150	-0.007
-114.093	-22.082	0.107	-0.064
-113.078	281.610	0.193	0.340
-112.064	54.345	0.146	-0.138
-111.049	83.172	0.135	0.144
-110.034	800.000	-0.077	0.289
-109.020	-37.118	-0.210	-0.111
-108.005	-200.000	0.017	-0.345
-106.991	348.280	0.050	-0.097
-105.976	-42.059	0.386	-0.194
-104.962	-200.000	-0.002	-0.031
-103.947	21.061	-0.179	-0.143
-102.932	344.518	-0.005	0.010
-101.918	128.353	0.342	0.428
-100.903	-44.130	0.092	0.045
-99.889	-10.685	0.401	-0.261
-98.874	800.000	0.092	0.270
-97.859	-200.000	0.019	0.163
-96.845	57.460	0.183	-0.176
-95.830	484.730	-0.097	-0.218
-94.816	800.000	-0.041	0.157
-93.801	-139.420	-0.114	-0.012
-92.786	-79.637	0.145	0.048
-91.772	222.678	-0.059	-0.093
-90.757	22.317	0.144	0.115
-89.743	-149.371	0.199	0.016
-88.728	-85.252	0.160	0.049
-87.713	-125.174	0.302	0.046
-86.699	-68.858	0.296	-0.112
-85.684	24.529	-0.080	0.065
-84.670	191.799	-0.124	-0.183
-83.655	-125.140	0.106	-0.016
-82.640	-144.001	0.217	-0.020
-81.626	-174.438	-0.446	0.013
-80.611	12.869	-0.064	0.049
-79.597	32.787	0.188	-0.160
-78.582	188.185	-0.100	0.147
-77.567	-20.640	0.046	0.028
-76.553	85.804	-0.182	0.196
-75.538	-111.304	0.257	-0.051
-74.524	-200.000	-0.067	-0.437
-73.509	-43.671	0.151	-0.075
-72.494	-200.000	0.009	-0.049
-71.480	-200.000	0.024	-0.135
-70.465	164.564	0.245	0.339
-69.451	-51.219	0.020	-0.009
-68.436	-62.803	-0.239	0.097
-67.422	800.000	-0.025	0.093
-66.407	762.077	-0.132	-0.351
-65.392	55.144	-0.189	-0.179
-64.378	-102.077	0.195	0.046
-63.363	-48.425	0.376	0.178
-62.349	-111.787	-0.287	-0.057
-61.334	27.827	-1.074	-0.888
-60.319	300.446	0.464	0.841
-59.305	310.502	-0.538	-0.989
-58.290	398.402	0.533	1.095
-57.276	468.147	0.706	1.555
-56.261	-200.000	108.115	603.142
-55.246	512.023	1487.683	3400.478
-54.232	180.494	2667.811	3842.219
-53.217	109.719	2168.145	2550.834
-52.203	39.666	1701.339	1497.328
-51.188	32.661	1516.988	1287.392
-50.173	30.484	1490.231	1250.005
-49.159	50.450	1546.745	1435.001
-48.144	50.950	1563.365	1453.796
-47.130	32.800	1519.235	1290.043
-46.115	29.920	1504.123	1257.629
-45.100	29.696	1500.784	1253.269
-44.086	29.676	1498.795	1251.424
-43.071	29.589	1496.632	1248.977
-42.057	29.533	1494.838	1247.053
-41.042	29.602	1493.476	1246.334
-40.027	29.587	1491.911	1244.876
-39.013	29.621	1490.192	1243.623
-37.998	29.603	1488.986	1242.446
-36.984	29.587	1487.907	1241.388
-35.969	29.552	1486.880	1240.248
-34.954	29.566	1485.654	1239.264
-33.940	29.590	1484.528	1238.439
-32.925	29.642	1482.897	1237.375
-31.911	29.636	1481.902	1236.457
-30.896	29.665	1480.365	1235.319
-29.881	29.654	1479.156	1234.190
-28.867	29.596	1478.140	1232.905
-27.852	29.768	1476.437	1232.580
-26.838	29.766	1475.022	1231.340
-25.823	29.744	1472.984	1229.444
-24.809	29.635	1472.047	1227.887
-23.794	29.682	1470.831	1227.136
-22.779	29.769	1469.378	1226.454
-21.765	29.589	1468.575	1224.543
-20.750	29.732	1467.171	1224.269
-19.736	29.635	1466.501	1223.019
-18.721	29.672	1464.545	1221.583
-17.706	29.688	1464.019	1221.199
-16.692	29.679	1462.514	1219.842
-15.677	29.596	1461.778	1218.629
-14.663	29.605	1460.845	1217.864
-13.648	29.650	1459.775	1217.218
-12.633	29.537	1458.819	1215.627
-11.619	29.548	1458.369	1215.277
-10.604	29.586	1457.300	1214.589
-9.590	29.542	1456.242	1213.366
-8.575	29.578	1455.327	1212.795
-7.560	29.640	1454.672	1212.606
-6.546	29.545	1453.707	1211.133
-5.531	29.594	1452.687	1210.555
-4.517	29.551	1452.030	1209.682
-3.502	29.535	1451.103	1208.754
-2.487	29.560	1449.753	1207.747
-1.473	29.586	1448.796	1207.068
-0.458	29.566	1447.412	1205.736
0.556	31.018	1437.280	1193.168
1.571	27.901	1412.176	1152.585
2.586	24.240	1353.300	1082.254
3.600	22.449	1271.842	1006.789
4.615	21.167	1225.431	962.898
5.629	18.367	1169.404	904.036
6.644	10.723	1086.872	802.514
7.659	4.746	1047.573	744.891
8.673	4.001	1042.179	737.440
9.688	3.726	1038.896	733.747
10.702	3.491	1037.245	731.403
11.717	3.723	1035.034	730.878
12.731	6.425	1038.006	745.718
13.746	14.380	1049.013	791.486
14.761	21.315	1058.134	831.409
15.775	23.590	1059.392	843.148
16.790	23.189	1058.558	840.505
17.804	22.353	1057.078	835.290
18.819	21.896	1055.370	831.701
19.834	21.622	1054.555	829.686
20.848	21.511	1053.967	828.623
21.863	21.539	1054.030	828.731
22.877	21.458	1053.176	827.605
23.892	21.352	1052.499	826.500
24.907	21.127	1051.604	824.662
25.921	21.153	1050.728	824.022
26.936	21.048	1049.764	822.699
27.950	21.033	1048.513	821.575
28.965	20.950	1047.795	820.550
29.980	21.040	1046.373	819.787
30.994	21.257	1045.617	820.141
32.009	21.512	1044.794	820.618
33.023	21.590	1044.212	820.454
34.038	21.415	1043.062	818.657
35.053	21.402	1042.671	818.219
36.067	21.235	1041.553	816.488
37.082	21.115	1040.593	815.104
38.096	21.194	1039.589	814.613
39.111	21.295	1038.951	814.514
40.126	21.145	1038.999	813.777
41.140	21.263	1037.259	812.893
42.155	20.903	1036.170	810.295
43.169	20.700	1034.698	808.129
44.184	20.582	1033.545	806.609
45.199	20.529	1032.494	805.471
46.213	20.724	1031.646	805.641
47.228	20.731	1031.373	805.388
48.242	20.928	1031.106	806.021
49.257	21.266	1030.445	806.994
50.271	21.338	1029.212	806.291
51.286	21.308	1028.612	805.608
52.301	21.478	1028.055	805.887
53.315	21.304	1027.309	804.428
54.330	21.239	1026.141	803.144
55.344	21.115	1025.696	802.155
56.359	21.128	1024.139	800.923
57.374	20.909	1023.251	799.156
58.388	20.873	1022.134	798.049
59.403	20.829	1021.429	797.225
60.417	20.642	1020.817	795.820
61.432	20.470	1020.145	794.442
62.447	20.639	1019.813	794.884
63.461	20.630	1018.730	793.927
64.476	20.450	1017.885	792.378
65.490	20.477	1017.227	791.921
66.505	20.388	1015.988	790.481
67.520	20.369	1015.834	790.203
68.534	20.592	1014.417	790.044
69.549	20.304	1014.021	788.358
70.563	20.279	1013.285	787.605
71.578	20.227	1012.571	786.744
72.593	20.039	1011.532	785.014
73.607	19.695	1010.248	782.391
74.622	19.756	1009.283	781.849
75.636	19.901	1008.520	781.845
76.651	20.081	1007.606	781.880
77.666	20.067	1007.006	781.282
78.680	20.168	1006.466	781.248
79.695	20.181	1005.792	780.717
80.709	20.190	1005.178	780.210
81.724	20.376	1004.499	780.450
82.739	20.466	1004.224	780.571
83.753	20.481	1003.344	779.886
84.768	20.964	1002.974	781.695
85.782	21.293	1003.089	783.189
86.797	21.809	1002.060	784.628
87.812	21.734	1001.128	783.492
88.826	21.497	1000.479	781.855
89.841	21.387	999.263	780.349
90.855	21.667	998.525	780.951
91.870	21.535	998.185	780.027
92.884	21.654	997.224	779.738
93.899	21.648	996.954	779.431
94.914	21.573	995.961	778.250
95.928	21.641	995.081	777.797
96.943	21.618	994.472	777.150
97.957	21.604	993.117	775.959
98.972	21.258	992.285	773.711
99.987	21.392	991.493	773.617
101.001	21.494	991.070	773.668
102.016	21.499	990.225	772.964
103.030	21.382	989.075	771.482
104.045	21.477	987.888	770.903
105.060	21.603	987.073	770.754
106.074	21.393	986.604	769.397
107.089	20.985	985.763	766.881
108.103	20.809	984.436	765.008
109.118	20.618	983.424	763.313
110.133	20.500	982.190	761.773
111.147	20.345	981.260	760.303
112.162	20.188	980.040	758.603
113.176	20.253	979.409	758.334
114.191	20.482	978.860	758.842
115.206	20.618	978.401	759.013
116.220	20.579	977.360	757.966
117.235	20.403	976.760	756.668
118.249	20.375	975.712	755.665
119.264	20.432	974.890	755.209
120.279	20.265	973.833	753.601
121.293	20.154	972.983	752.394
122.308	20.147	972.100	751.614
123.322	20.009	971.357	750.376
124.337	19.874	970.280	748.893
125.352	19.822	968.942	747.570
126.366	19.772	968.480	746.932
127.381	19.917	967.286	746.571
128.395	19.936	965.995	745.590
129.410	20.024	965.520	745.537
130.424	20.073	964.949	745.238
131.439	20.163	963.693	744.588
132.454	20.413	963.158	745.182
133.468	20.613	962.663	745.591
134.483	20.614	961.817	744.874
135.497	20.565	961.274	744.177
136.512	20.569	960.721	743.702
137.527	20.670	959.697	743.274
138.541	20.653	959.292	742.821
139.556	20.670	958.657	742.340
140.570	20.670	957.831	741.632
141.585	20.969	957.483	742.569
142.600	21.097	956.931	742.620
143.614	21.288	956.141	742.756
144.629	21.402	955.609	742.761
145.643	21.566	955.088	742.986
146.658	21.468	954.126	741.758
147.673	21.222	952.842	739.650
148.687	20.948	951.281	737.214
149.702	20.876	950.229	736.031
150.716	20.705	949.519	734.693
151.731	20.701	948.803	734.060
152.746	20.764	947.616	733.342
153.760	20.734	947.349	732.941
154.775	20.750	946.722	732.460
155.789	21.021	945.799	732.819
156.804	20.928	945.494	732.129
157.819	20.992	944.425	731.503
158.833	21.117	943.609	731.330
159.848	21.308	943.249	731.785
160.862	21.511	942.615	732.080
161.877	21.422	941.837	731.038
162.892	21.074	940.061	728.146
163.906	20.748	939.120	725.989
164.921	20.536	938.354	724.450
165.935	20.531	937.249	723.514
166.950	20.661	936.635	723.518
167.964	20.767	935.628	723.115
168.979	20.899	934.856	723.004
169.994	20.799	933.514	721.487
171.008	20.566	932.624	719.770
172.023	20.801	932.143	720.307
173.037	20.815	932.316	720.436
174.052	21.421	931.144	721.966
175.067	21.128	930.201	719.963
176.081	20.967	928.823	718.170
177.096	20.543	927.568	715.393
178.110	20.307	926.929	713.867
179.125	20.353	926.404	713.587
180.140	20.489	925.422	713.324
181.154	20.586	925.321	713.585
182.169	20.901	925.121	714.657
183.183	21.114	924.610	715.073
184.198	21.085	924.047	714.454
185.213	21.199	922.832	713.917
186.227	21.154	922.345	713.293
187.242	21.148	922.029	712.962
188.256	21.247	921.885	713.193
189.271	21.337	921.009	712.819
190.286	21.484	920.429	712.905
191.300	21.205	919.592	711.059
192.315	20.655	917.807	707.379
193.329	20.207	917.212	705.037
194.344	20.275	916.512	704.714
195.359	20.513	915.913	705.155
196.373	20.740	915.520	705.713
197.388	20.912	915.165	706.074
198.402	21.100	914.669	706.389
199.417	21.346	914.787	707.413
200.432	21.675	914.484	708.447
201.446	21.748	914.399	708.612
202.461	21.842	914.533	709.035
203.475	21.904	913.610	708.509
204.490	21.815	912.953	707.575
205.504	21.476	911.224	704.810
206.519	21.350	910.450	703.641
207.534	21.270	909.430	702.466
208.548	21.178	908.660	701.441
209.563	21.281	907.991	701.274
210.577	20.945	907.893	699.791
211.592	21.261	906.994	700.301
212.607	21.414	907.139	700.964
213.621	21.622	906.833	701.500
214.636	21.691	905.891	700.987
215.650	21.475	905.091	699.441
216.665	21.505	904.667	699.172
217.680	21.550	903.940	698.727
218.694	21.829	903.293	699.276
219.709	21.839	903.003	699.032
220.723	21.734	902.604	698.242
221.738	21.575	901.719	696.864
222.753	21.537	901.096	696.167
223.767	21.319	900.663	694.906
224.782	21.530	899.687	694.928
225.796	21.756	899.602	695.698
226.811	21.881	898.121	694.989
227.826	21.715	897.711	693.950
228.840	21.417	896.775	691.987
229.855	21.344	896.391	691.342
230.869	21.331	895.227	690.332
231.884	21.250	894.466	689.363
232.899	21.230	894.059	688.909
233.913	21.262	893.225	688.333
234.928	21.045	892.707	687.017
235.942	21.034	891.497	685.983
236.957	20.807	890.928	684.591
237.972	20.756	890.283	683.836
238.986	20.937	889.683	684.022
240.001	20.910	888.870	683.233
241.015	20.987	887.955	682.769
242.030	21.002	887.788	682.638
243.045	21.130	887.651	682.974
244.059	21.080	887.484	682.592
245.074	21.267	886.179	682.257
246.088	21.294	886.130	682.265
247.103	21.672	885.518	683.209
248.117	21.747	884.858	682.931
249.132	21.922	884.860	683.552
250.147	22.207	884.898	684.632
251.161	22.620	884.397	685.789
252.176	22.702	884.140	685.848
253.190	22.582	883.476	684.807
254.205	22.764	882.914	685.017
255.220	22.941	882.438	685.274
256.234	22.713	881.736	683.783
257.249	22.532	881.156	682.574
258.263	22.665	880.202	682.287
259.278	22.374	880.346	681.214
260.293	22.587	879.459	681.289
261.307	22.627	878.895	680.949
262.322	22.707	878.295	680.732
263.336	22.699	877.961	680.383
264.351	22.638	877.442	679.682
265.366	22.583	876.875	678.974
266.380	22.771	875.910	678.889
267.395	22.770	875.534	678.534
268.409	22.635	874.544	677.189
269.424	22.530	873.893	676.221
270.439	22.484	873.080	675.357
271.453	22.683	871.816	675.079
272.468	22.267	871.444	673.141
273.482	22.173	870.769	672.201
274.497	22.110	870.299	671.537
275.512	22.179	869.579	671.184
276.526	22.234	869.015	670.899
277.541	22.065	868.653	669.919
278.555	22.268	867.768	669.950
279.570	22.561	867.471	670.776
280.585	22.783	867.227	671.370
281.599	22.760	866.872	670.949
282.614	22.674	865.510	669.512
283.628	22.416	864.777	667.907
284.643	22.337	864.161	667.070
285.657	22.165	863.922	666.176
286.672	22.314	863.147	666.083
287.687	22.115	863.159	665.282
288.701	22.327	862.398	665.436
289.716	22.363	861.824	665.070
290.730	22.448	861.138	664.804
291.745	22.469	860.488	664.321
292.760	22.428	860.238	663.916
293.774	22.426	859.587	663.347
294.789	22.783	859.252	664.374
295.803	22.839	858.771	664.154
296.818	22.405	857.847	661.750
297.833	22.329	857.153	660.871
298.847	22.362	856.293	660.273
299.862	22.607	855.209	660.296
300.876	22.511	855.246	659.907
301.891	22.542	854.960	659.742
302.906	22.834	854.491	660.417
303.920	22.928	854.167	660.458
304.935	23.134	853.250	660.459
305.949	23.264	853.248	660.884
306.964	23.130	852.509	659.754
307.979	22.846	851.805	658.092
308.993	22.726	851.129	657.067
310.008	22.882	850.645	657.213
311.022	22.931	850.672	657.360
312.037	23.007	849.394	656.595
313.052	22.566	849.153	654.714
314.066	22.473	847.930	653.369
315.081	22.139	847.164	651.481
316.095	22.111	846.715	650.977
317.110	22.204	846.079	650.774
318.125	22.310	845.375	650.566
319.139	22.079	845.167	649.492
320.154	22.100	844.437	648.952
321.168	22.014	843.788	648.078
322.183	22.206	843.141	648.233
323.197	22.415	842.764	648.657
324.212	22.511	842.345	648.631
325.227	22.384	842.098	647.915
326.241	22.429	841.067	647.228
327.256	22.197	840.579	645.943
328.270	22.264	839.888	645.604
329.285	22.237	839.335	645.021
330.300	22.172	838.749	644.274
331.314	21.989	838.251	643.165
332.329	22.158	837.860	643.427
333.343	22.451	837.254	643.978
334.358	22.646	836.729	644.227
335.373	22.728	836.376	644.201
336.387	22.730	836.206	644.020
337.402	22.846	835.436	643.790
338.416	22.878	834.897	643.436
339.431	23.283	834.514	644.558
340.446	23.281	834.194	644.248
341.460	23.453	833.477	644.261
342.475	23.570	832.913	644.192
343.489	23.484	832.937	643.842
344.504	23.680	832.022	643.789
345.519	23.804	831.891	644.079
346.533	23.816	831.420	643.701
347.548	23.655	830.901	642.661
348.562	23.564	829.682	641.333
349.577	23.173	829.060	639.380
350.592	22.995	828.841	638.512
351.606	22.764	827.697	636.741
352.621	22.606	827.082	635.643
353.635	22.700	826.617	635.568
354.650	22.956	826.074	636.017
355.665	22.867	826.166	635.711
356.679	22.972	825.788	635.740
357.694	23.056	825.150	635.494
358.708	23.031	824.923	635.172
359.723	23.109	823.908	634.617
360.738	23.007	823.654	633.998
361.752	23.001	823.024	633.436
362.767	22.991	822.858	633.217
363.781	23.370	822.537	634.272
364.796	23.520	822.081	634.398
365.810	23.741	822.115	635.159
366.825	23.856	821.660	635.162
367.840	23.947	821.660	635.432
368.854	23.795	821.019	634.337
369.869	23.563	820.162	632.793
370.883	23.494	819.479	631.961
371.898	23.536	818.956	631.654
372.913	23.454	818.737	631.137
373.927	23.773	817.838	631.521
374.942	23.772	817.155	630.936
375.956	23.480	816.880	629.631
376.971	23.764	815.914	629.837
377.986	23.891	815.935	630.247
379.000	24.013	815.316	630.146
380.015	24.100	814.952	630.114
381.029	24.016	814.135	629.130
382.044	23.848	813.307	627.842
383.059	23.964	813.379	628.253
384.073	23.955	812.518	627.500
385.088	23.907	811.579	626.549
386.102	23.779	810.992	625.593
387.117	23.427	810.159	623.656
388.132	23.242	809.640	622.551
389.146	23.260	809.319	622.310
390.161	23.150	809.137	621.731
391.175	23.669	808.660	623.129
392.190	23.870	808.754	623.853
393.205	23.674	808.326	622.780
394.219	23.536	807.279	621.434
395.234	23.356	806.345	620.031
396.248	23.164	805.760	618.853
397.263	23.152	805.210	618.336
398.278	23.054	804.817	617.637
399.292	23.121	804.156	617.309
400.307	22.962	803.774	616.405
401.321	23.070	803.360	616.410
402.336	22.998	803.170	615.960
403.350	23.068	803.169	616.149
404.365	23.366	802.494	616.614
405.380	23.711	802.568	617.817
406.394	23.946	802.341	618.404
407.409	24.229	802.000	619.070
408.423	24.270	801.650	618.886
409.438	24.221	801.212	618.323
410.453	24.312	800.671	618.166
411.467	24.372	800.168	617.931
412.482	24.331	799.895	617.526
413.496	24.354	799.436	617.194
414.511	24.469	799.106	617.282
415.526	24.541	798.375	616.912
416.540	24.240	798.209	615.690
417.555	24.228	797.589	615.115
418.569	24.268	796.880	614.653
419.584	24.105	796.599	613.820
420.599	24.255	795.844	613.699
421.613	162.872	1370.593	1796.237
422.628	141.326	1454.328	1796.328
