DTS Sentinel unit serial number:	SN413079Multiplexer serial number:	ORYXHardware model number:	OX4-SRSoftware version number:	ORYX F/W v4.00 Oryx Data Collector v3.7.2.0data status	okinstallation	princeton_trtdifferential loss correction	single-endedforward channel	channel 3reverse channel	N/Adate	2019/09/16time	04:04:35forward acquisition time	60.00reverse acquisition time	0.00gamma	496.2192k internal	0.2335k external	0.2335temperature offset calibration	0.9958default loss term (dB/km)	0.3790temperature slope calibration	1.0000multiplexer offset coefficient	1.0000multiplexer slope coefficient	1.0000fibre end	0.00T internal ref (°C)	27.44T ext. ref 1 (°C)	10.73T ext. ref 2 (°C)	21.46length (m)	temperature (°C)	Stokes	anti-Stokes-747.200	105.885	0.337	0.401
-746.185	15.965	0.336	0.266
-745.171	651.211	-0.064	0.165
-744.156	-149.330	0.197	0.016
-743.142	-114.182	-0.229	-0.044
-742.127	30.201	0.091	-0.078
-741.112	53.292	0.048	-0.047
-740.098	304.718	-0.082	0.154
-739.083	-106.324	0.258	0.058
-738.069	103.429	-0.186	-0.219
-737.054	-73.708	-0.157	0.057
-736.039	-69.141	0.178	0.069
-735.025	707.274	0.176	0.468
-734.010	-108.396	-0.357	0.077
-732.996	42.852	0.140	0.128
-731.981	-67.011	0.181	0.072
-730.966	-128.203	-0.107	-0.015
-729.952	5.265	-0.373	-0.276
-728.937	-11.792	0.062	-0.041
-727.923	-200.000	-0.016	0.245
-726.908	-129.868	0.227	-0.031
-725.894	42.478	-0.394	-0.360
-724.879	100.043	0.107	-0.124
-723.864	-112.811	-0.165	0.033
-722.850	86.722	0.179	-0.198
-721.835	-189.727	-0.149	-0.002
-720.821	-108.468	0.282	0.061
-719.806	-71.777	0.196	0.073
-718.791	78.966	0.074	0.080
-717.777	-200.000	0.013	0.100
-716.762	-58.649	-0.145	0.063
-715.748	478.674	0.105	-0.240
-714.733	-66.241	-0.162	0.065
-713.718	-76.980	-0.303	-0.106
-712.704	-147.778	0.279	-0.023
-711.689	-200.000	0.002	-0.178
-710.675	800.000	-0.081	0.272
-709.660	-76.094	-0.101	-0.036
-708.645	157.874	0.197	0.274
-707.631	-200.000	0.011	0.153
-706.616	418.006	-0.064	-0.138
-705.602	661.480	-0.035	0.091
-704.587	-200.000	-0.206	-0.001
-703.572	66.127	0.246	0.250
-702.558	-90.321	-0.117	0.034
-701.543	48.087	-0.289	-0.271
-700.529	800.000	0.066	0.188
-699.514	-200.000	0.031	0.221
-698.499	64.943	0.109	0.110
-697.485	-66.829	0.456	0.181
-696.470	-200.000	-0.058	0.289
-695.456	-200.000	-0.034	0.343
-694.441	-33.351	0.192	0.106
-693.426	-0.071	0.313	0.224
-692.412	-63.015	0.391	-0.162
-691.397	-70.735	-0.286	-0.108
-690.383	-89.396	0.303	-0.089
-689.368	14.513	-0.562	-0.440
-688.354	-200.000	-0.015	-0.091
-687.339	-165.118	-0.145	0.006
-686.324	-103.911	-0.093	0.022
-685.310	800.000	-0.059	-0.206
-684.295	-181.649	-0.113	-0.002
-683.281	-123.262	-0.260	0.042
-682.266	5.059	0.187	0.138
-681.251	104.917	-0.115	-0.136
-680.237	-134.585	-0.144	0.018
-679.222	-4.386	0.195	-0.135
-678.208	-88.287	0.100	-0.030
-677.193	-169.206	-0.178	0.007
-676.178	404.835	-0.070	0.148
-675.164	-143.390	0.197	0.019
-674.149	-200.000	-0.012	-0.115
-673.135	-175.325	-0.078	0.002
-672.120	334.166	-0.073	0.142
-671.105	-69.050	0.306	-0.118
-670.091	800.000	-0.038	-0.148
-669.076	-123.387	0.091	0.015
-668.062	129.726	-0.163	-0.208
-667.047	72.012	-0.132	-0.138
-666.032	-200.000	-0.002	0.076
-665.018	-62.421	0.343	0.143
-664.003	-200.000	-0.040	0.207
-662.989	192.502	-0.025	-0.038
-661.974	42.985	-0.110	-0.101
-660.959	-69.770	0.269	-0.103
-659.945	-181.961	-0.135	0.003
-658.930	-18.581	0.357	-0.223
-657.916	-172.223	-0.091	-0.003
-656.901	-56.794	0.367	-0.163
-655.886	-127.419	-0.232	-0.034
-654.872	592.940	-0.109	-0.270
-653.857	-11.564	0.204	0.134
-652.843	-200.000	0.009	-0.081
-651.828	-139.050	0.510	-0.055
-650.814	-45.201	0.242	0.120
-649.799	-128.898	-0.347	-0.049
-648.784	-130.526	-0.221	0.030
-647.770	91.039	-0.133	0.149
-646.755	43.719	0.279	-0.256
-645.741	33.637	-0.294	-0.256
-644.726	326.684	0.096	-0.183
-643.711	54.562	-0.027	-0.026
-642.697	-156.358	-0.191	0.012
-641.682	-154.051	0.186	0.013
-640.668	1.339	-0.148	-0.107
-639.653	56.207	0.069	-0.068
-638.638	114.331	-0.050	-0.060
-637.624	7.309	-0.213	0.159
-636.609	89.263	0.080	-0.090
-635.595	-127.348	0.093	0.014
-634.580	473.862	0.102	0.231
-633.565	-14.476	-0.246	-0.159
-632.551	476.796	-0.065	0.146
-631.536	51.126	0.226	0.214
-630.522	-92.241	0.168	-0.047
-629.507	-47.557	0.112	0.054
-628.492	48.722	0.136	-0.128
-627.478	50.322	0.110	0.104
-626.463	2.894	-0.043	-0.032
-625.449	214.221	0.064	-0.102
-624.434	-12.373	-0.282	-0.185
-623.419	-64.955	-0.167	-0.068
-622.405	-117.665	0.085	0.015
-621.390	163.341	0.078	0.110
-620.376	-200.000	-0.008	-0.260
-619.361	-103.759	0.223	0.052
-618.346	276.005	-0.150	0.266
-617.332	-200.000	-0.049	0.233
-616.317	-200.000	0.010	-0.211
-615.303	187.211	-0.087	0.130
-614.288	800.000	0.041	0.114
-613.273	-102.664	0.379	0.090
-612.259	168.505	-0.187	0.266
-611.244	284.048	0.153	-0.274
-610.230	-45.705	0.325	-0.161
-609.215	-87.521	0.113	-0.034
-608.201	466.879	-0.095	0.214
-607.186	-83.730	0.064	-0.020
-606.171	-200.000	0.019	-0.229
-605.157	-96.844	0.123	0.032
-604.142	-200.000	0.003	-0.265
-603.128	139.325	-0.126	-0.166
-602.113	-200.000	0.051	-0.388
-601.098	-95.902	0.173	0.046
-600.084	-138.852	-0.248	-0.027
-599.069	211.928	0.111	0.175
-598.055	-200.000	0.029	0.143
-597.040	165.529	-0.088	-0.124
-596.025	-200.000	-0.008	-0.209
-595.011	-119.596	0.166	-0.029
-593.996	-200.000	0.004	0.140
-592.982	107.622	-0.114	-0.135
-591.967	524.236	0.147	-0.346
-590.952	-9.543	0.202	0.135
-589.938	-55.016	-0.294	-0.133
-588.923	800.000	0.028	-0.095
-587.909	-7.850	-0.093	0.062
-586.894	134.227	-0.118	0.152
-585.879	69.693	-0.203	0.209
-584.865	800.000	0.029	-0.103
-583.850	-86.415	0.181	-0.055
-582.836	-74.061	-0.297	-0.107
-581.821	-200.000	0.008	-0.276
-580.806	110.694	0.298	0.358
-579.792	-4.760	0.250	0.172
-578.777	-200.000	0.013	0.331
-577.763	-51.392	-0.026	-0.012
-576.748	-65.811	-0.373	-0.149
-575.733	-200.000	-0.012	-0.260
-574.719	-15.969	0.071	0.045
-573.704	74.750	-0.326	-0.343
-572.690	137.658	0.191	-0.250
-571.675	167.643	0.111	0.158
-570.661	-51.033	0.491	-0.230
-569.646	-10.784	0.223	0.147
-568.631	-24.964	0.109	-0.065
-567.617	263.434	-0.138	0.240
-566.602	800.000	-0.058	0.252
-565.588	-113.767	0.220	0.043
-564.573	253.302	-0.064	0.108
-563.558	52.794	-0.158	0.151
-562.544	-178.994	-0.048	0.001
-561.529	-47.303	0.242	0.117
-560.515	-171.258	-0.258	0.009
-559.500	-200.000	0.030	-0.234
-558.485	28.364	-0.256	-0.216
-557.471	-31.376	0.151	0.085
-556.456	-103.460	0.075	-0.018
-555.442	-166.686	-0.052	-0.002
-554.427	2.029	-0.216	-0.156
-553.412	-48.983	0.130	-0.062
-552.398	800.000	-0.061	0.217
-551.383	3.229	-0.450	-0.327
-550.369	800.000	0.122	-0.439
-549.354	-53.703	-0.173	0.079
-548.339	55.460	-0.134	-0.129
-547.325	-51.599	-0.192	0.089
-546.310	175.519	0.029	0.042
-545.296	-200.000	0.027	0.167
-544.281	-200.000	0.006	0.159
-543.266	-72.627	-0.135	0.050
-542.252	-200.000	-0.038	-0.246
-541.237	-71.694	0.174	0.065
-540.223	52.854	-0.139	0.133
-539.208	-200.000	-0.013	0.097
-538.193	107.163	-0.206	-0.244
-537.179	-41.292	0.182	-0.094
-536.164	-113.421	-0.363	0.071
-535.150	307.519	-0.047	-0.087
-534.135	-200.000	0.005	-0.322
-533.121	-200.000	-0.005	0.055
-532.106	192.857	0.053	0.080
-531.091	552.324	-0.123	0.294
-530.077	113.113	-0.106	0.128
-529.062	443.764	-0.101	-0.221
-528.048	447.526	0.117	-0.256
-527.033	204.995	0.168	0.260
-526.018	-147.317	-0.338	-0.029
-525.004	-83.170	-0.165	0.053
-523.989	-60.909	-0.152	-0.064
-522.975	-9.909	-0.047	-0.031
-521.960	-200.000	0.039	0.282
-520.945	-6.851	0.231	0.156
-519.931	-200.000	-0.003	0.032
-518.916	348.739	-0.114	-0.224
-517.902	-4.053	-0.236	0.163
-516.887	114.984	-0.060	-0.073
-515.872	-200.000	0.030	0.167
-514.858	-200.000	-0.034	0.385
-513.843	65.308	0.133	0.134
-512.829	-64.619	-0.152	-0.061
-511.814	-200.000	-0.070	0.478
-510.799	-79.175	-0.217	-0.073
-509.785	-118.570	0.387	-0.068
-508.770	-41.037	-0.379	-0.195
-507.756	94.115	0.129	-0.146
-506.741	-200.000	-0.004	-0.130
-505.726	-0.868	-0.079	0.056
-504.712	580.570	0.068	-0.165
-503.697	174.863	0.100	0.145
-502.683	162.411	-0.126	0.175
-501.668	-200.000	0.009	-0.213
-500.653	-76.251	-0.257	0.090
-499.639	37.015	-0.367	-0.323
-498.624	-66.750	0.188	0.074
-497.610	-200.000	0.015	-0.096
-496.595	-166.224	-0.277	0.012
-495.581	-83.072	0.177	0.057
-494.566	-70.239	-0.096	-0.036
-493.551	-57.827	0.305	0.133
-492.537	-82.348	-0.306	0.099
-491.522	-156.332	-0.433	-0.027
-490.508	83.945	-0.144	0.157
-489.493	426.479	0.069	-0.147
-488.478	-141.071	0.190	-0.019
-487.464	151.694	0.106	-0.144
-486.449	129.003	0.135	0.172
-485.435	110.667	0.048	0.057
-484.420	67.002	-0.065	-0.066
-483.405	-35.314	0.206	-0.111
-482.391	800.000	-0.091	0.267
-481.376	-123.748	-0.129	0.020
-480.362	-200.000	0.007	-0.140
-479.347	-63.504	-0.130	-0.053
-478.332	-133.288	0.283	0.036
-477.318	-51.352	-0.203	0.095
-476.303	-173.097	0.449	-0.014
-475.289	-200.000	-0.002	-0.276
-474.274	-178.734	0.206	-0.005
-473.259	-73.850	0.330	-0.119
-472.245	-10.874	0.185	-0.122
-471.230	168.696	-0.053	0.076
-470.216	800.000	-0.089	-0.317
-469.201	-200.000	-0.047	-0.231
-468.186	73.976	-0.076	0.079
-467.172	122.520	0.123	0.153
-466.157	-98.972	0.246	0.062
-465.143	146.653	0.086	-0.115
-464.128	-58.494	-0.331	0.143
-463.113	-130.344	-0.265	-0.036
-462.099	-49.863	-0.160	-0.075
-461.084	-11.724	-0.363	-0.237
-460.070	29.428	-0.176	0.149
-459.055	-44.715	-0.327	-0.162
-458.040	128.798	-0.225	-0.285
-457.026	-88.954	-0.108	-0.032
-456.011	-200.000	-0.114	0.001
-454.997	-125.677	-0.183	0.028
-453.982	-85.311	0.174	-0.054
-452.968	-200.000	-0.042	0.332
-451.953	-200.000	-0.003	0.048
-450.938	11.987	0.017	0.013
-449.924	-101.410	-0.278	-0.067
-448.909	-99.889	-0.025	-0.006
-447.895	268.917	0.150	-0.261
-446.880	-200.000	0.033	0.291
-445.865	768.545	-0.022	-0.060
-444.851	-126.369	-0.260	0.038
-443.836	-200.000	-0.003	-0.025
-442.822	137.247	0.186	-0.241
-441.807	-35.020	-0.215	-0.117
-440.792	-200.000	-0.029	0.156
-439.778	-132.563	0.233	-0.030
-438.763	-66.322	0.062	0.024
-437.749	-200.000	-0.009	-0.208
-436.734	-1.155	0.205	-0.144
-435.719	800.000	-0.091	-0.258
-434.705	365.788	0.112	0.223
-433.690	67.036	0.093	0.094
-432.676	511.896	-0.029	-0.067
-431.661	-40.801	-0.306	-0.157
-430.646	-200.000	0.012	-0.275
-429.632	-200.000	0.034	0.159
-428.617	-200.000	0.116	0.503
-427.603	52.299	-0.217	0.206
-426.588	91.431	-0.084	0.094
-425.573	85.256	-0.163	-0.178
-424.559	-42.421	0.152	-0.077
-423.544	682.499	-0.075	-0.194
-422.530	141.509	-0.148	-0.194
-421.515	-200.000	0.071	-0.496
-420.500	-10.524	0.160	0.105
-419.486	36.825	-0.238	0.209
-418.471	-200.000	0.027	0.322
-417.457	38.336	0.284	0.251
-416.442	-200.000	-0.096	-0.432
-415.428	80.366	0.121	-0.129
-414.413	68.830	-0.202	0.206
-413.398	-200.000	-0.035	0.232
-412.384	-111.891	-0.151	-0.030
-411.369	-200.000	0.002	-0.254
-410.355	142.737	0.129	-0.170
-409.340	-183.605	-0.057	-0.001
-408.325	-200.000	0.017	0.326
-407.311	800.000	0.056	0.200
-406.296	-200.000	-0.036	0.310
-405.282	-200.000	-0.004	0.169
-404.267	191.914	-0.194	0.290
-403.252	201.736	0.093	-0.142
-402.238	51.879	-0.112	-0.106
-401.223	141.509	0.033	0.044
-400.209	560.653	-0.102	0.245
-399.194	283.103	0.085	-0.152
-398.179	-164.260	0.129	-0.006
-397.165	176.207	-0.118	0.170
-396.150	41.147	0.209	0.187
-395.136	189.330	-0.097	0.143
-394.121	-9.336	-0.150	-0.100
-393.106	-200.000	-0.018	0.291
-392.092	-200.000	0.007	0.168
-391.077	-80.264	0.338	-0.112
-390.063	-26.622	0.229	0.133
-389.048	-114.386	-0.250	0.048
-388.033	-200.000	0.006	-0.377
-387.019	-134.138	-0.198	0.024
-386.004	-149.037	0.273	-0.022
-384.990	-45.799	0.121	-0.059
-383.975	227.524	-0.159	0.256
-382.960	27.253	0.286	0.238
-381.946	-143.623	0.118	-0.011
-380.931	11.727	-0.102	0.078
-379.917	-1.714	0.064	0.045
-378.902	11.980	-0.135	-0.103
-377.888	27.393	0.171	-0.143
-376.873	235.453	-0.074	-0.121
-375.858	-116.438	-0.431	0.079
-374.844	-134.384	0.328	0.040
-373.829	522.378	-0.096	0.224
-372.815	-200.000	0.042	-0.247
-371.800	5.298	-0.055	0.040
-370.785	270.073	0.153	0.266
-369.771	-76.365	-0.352	-0.123
-368.756	-200.000	-0.002	0.013
-367.742	78.906	-0.130	0.137
-366.727	-200.000	0.017	-0.128
-365.712	57.105	-0.159	0.153
-364.698	51.785	0.076	-0.072
-363.683	232.267	-0.229	0.373
-362.669	598.502	-0.043	0.107
-361.654	-1.835	0.105	-0.073
-360.639	-200.000	-0.030	-0.205
-359.625	8.362	0.385	-0.286
-358.610	52.744	0.054	-0.051
-357.596	-58.957	0.319	0.136
-356.581	-46.554	0.133	-0.065
-355.566	-125.881	0.217	0.032
-354.552	-200.000	-0.016	0.265
-353.537	800.000	0.013	-0.053
-352.523	-200.000	-0.043	0.221
-351.508	-200.000	-0.010	-0.399
-350.493	800.000	0.048	-0.188
-349.479	800.000	0.080	0.334
-348.464	-140.888	0.288	0.029
-347.450	-102.488	-0.333	-0.079
-346.435	800.000	0.039	0.147
-345.420	-36.589	0.131	-0.070
-344.406	-99.522	0.395	0.098
-343.391	210.942	0.059	0.092
-342.377	-200.000	0.047	0.230
-341.362	173.158	-0.286	0.408
-340.348	27.161	0.402	0.334
-339.333	145.551	0.002	-0.002
-338.318	129.458	0.122	0.155
-337.304	381.959	-0.162	-0.329
-336.289	-74.048	0.024	-0.009
-335.275	569.967	-0.164	-0.394
-334.260	70.800	0.126	0.129
-333.245	257.780	0.046	0.078
-332.231	173.817	0.076	0.108
-331.216	-200.000	-0.022	0.206
-330.202	-114.594	0.177	0.034
-329.187	-12.840	-0.087	-0.056
-328.172	-57.720	-0.286	0.124
-327.158	9.400	0.124	0.093
-326.143	131.065	-0.305	0.387
-325.129	136.752	0.185	-0.239
-324.114	-90.481	0.347	0.099
-323.099	-114.026	0.194	-0.037
-322.085	202.290	-0.166	-0.253
-321.070	-45.687	0.253	0.124
-320.056	197.622	0.041	-0.063
-319.041	91.816	0.121	-0.134
-318.026	-200.000	-0.001	-0.361
-317.012	-126.313	-0.091	-0.013
-315.997	442.886	-0.184	-0.397
-314.983	-46.219	-0.073	-0.036
-313.968	-34.895	-0.263	-0.142
-312.953	-200.000	0.003	0.164
-311.939	-18.662	-0.108	0.067
-310.924	-147.303	-0.118	-0.010
-309.910	370.548	-0.072	-0.144
-308.895	-67.223	-0.359	-0.140
-307.880	800.000	0.013	0.053
-306.866	532.555	0.150	0.350
-305.851	-59.611	-0.313	0.133
-304.837	116.428	-0.137	-0.166
-303.822	800.000	-0.101	0.291
-302.807	154.373	0.098	0.133
-301.793	-200.000	-0.149	0.001
-300.778	-200.000	0.002	-0.155
-299.764	-57.278	0.350	-0.152
-298.749	-19.715	0.200	-0.122
-297.735	-34.888	-0.266	0.144
-296.720	14.762	-0.238	0.183
-295.705	-119.307	-0.171	0.029
-294.691	-138.185	-0.220	0.024
-293.676	91.347	-0.116	0.128
-292.662	-100.852	-0.233	-0.057
-291.647	-200.000	0.021	0.239
-290.632	800.000	-0.018	-0.069
-289.618	800.000	0.088	-0.255
-288.603	10.422	0.142	-0.107
-287.589	-5.206	-0.041	0.028
-286.574	114.814	-0.158	-0.190
-285.559	26.420	0.172	0.142
-284.545	280.745	-0.205	-0.362
-283.530	-45.252	0.271	-0.133
-282.516	-112.869	-0.198	-0.039
-281.501	340.845	-0.112	0.215
-280.486	-200.000	-0.071	-0.325
-279.472	-200.000	0.032	0.232
-278.457	-200.000	-0.001	-0.056
-277.443	114.672	-0.273	-0.328
-276.428	-73.679	0.128	0.046
-275.413	543.665	-0.080	0.189
-274.399	286.589	0.183	-0.325
-273.384	56.307	0.203	0.195
-272.370	73.538	0.200	0.206
-271.355	-34.468	-0.367	0.198
-270.340	177.852	-0.074	-0.107
-269.326	-200.000	-0.038	-0.261
-268.311	800.000	0.033	-0.099
-267.297	-65.385	-0.102	-0.041
-266.282	-200.000	0.003	-0.161
-265.267	-55.464	0.256	0.113
-264.253	104.402	-0.065	0.075
-263.238	403.337	0.101	-0.210
-262.224	49.005	0.091	0.085
-261.209	-175.528	0.324	0.009
-260.195	214.004	-0.069	0.108
-259.180	106.364	-0.260	-0.304
-258.165	111.907	-0.055	0.066
-257.151	-84.524	-0.263	-0.082
-256.136	146.676	0.067	0.089
-255.122	-31.746	0.081	-0.045
-254.107	72.977	0.131	0.135
-253.092	800.000	0.009	-0.035
-252.078	-167.872	0.154	0.006
-251.063	406.086	0.076	-0.158
-250.049	-71.985	0.321	0.118
-249.034	800.000	-0.085	0.249
-248.019	612.486	0.095	-0.235
-247.005	-94.393	0.154	0.041
-245.990	-200.000	0.019	0.147
-244.976	-148.263	0.127	0.010
-243.961	75.397	0.216	-0.225
-242.946	112.706	-0.094	0.113
-241.932	740.683	-0.071	0.187
-240.917	-200.000	0.012	-0.161
-239.903	-83.071	-0.136	0.043
-238.888	766.204	-0.057	0.153
-237.873	-140.230	0.218	-0.023
-236.859	-200.000	0.034	0.422
-235.844	-32.606	0.096	0.053
-234.830	30.377	0.050	-0.042
-233.815	-18.439	0.258	0.159
-232.800	-200.000	-0.030	0.239
-231.786	385.249	0.218	0.443
-230.771	-200.000	-0.027	0.237
-229.757	-20.612	0.080	-0.049
-228.742	284.539	0.126	0.223
-227.727	-118.033	-0.330	-0.058
-226.713	-40.195	-0.388	0.199
-225.698	3.588	0.293	0.210
-224.684	-119.879	0.233	0.039
-223.669	113.387	0.246	0.294
-222.655	-200.000	0.001	0.067
-221.640	-87.908	0.371	0.110
-220.625	310.049	0.021	0.038
-219.611	-184.764	0.167	-0.003
-218.596	71.019	0.053	0.054
-217.582	3.494	-0.200	-0.143
-216.567	-200.000	-0.005	0.120
-215.552	-92.214	0.130	-0.036
-214.538	113.877	0.178	-0.213
-213.523	-104.981	0.223	-0.050
-212.509	800.000	0.060	0.228
-211.494	-76.173	-0.086	-0.030
-210.479	99.448	-0.247	-0.281
-209.465	15.543	0.224	-0.173
-208.450	-33.875	0.261	-0.142
-207.436	-40.779	0.137	0.070
-206.421	20.754	0.137	0.109
-205.406	223.665	0.024	0.037
-204.392	186.376	-0.035	-0.051
-203.377	800.000	0.060	-0.228
-202.363	800.000	-0.078	0.215
-201.348	-200.000	-0.025	-0.456
-200.333	53.594	0.116	-0.109
-199.319	192.925	-0.177	-0.263
-198.304	-72.872	0.175	-0.063
-197.290	46.211	0.091	-0.083
-196.275	93.602	0.176	-0.196
-195.260	17.500	0.029	-0.022
-194.246	210.635	-0.104	-0.161
-193.231	10.310	-0.428	0.320
-192.217	-91.095	0.161	0.045
-191.202	-119.822	0.098	0.017
-190.187	-167.251	0.274	0.011
-189.173	146.980	0.035	0.046
-188.158	-121.353	0.591	-0.097
-187.144	800.000	0.020	0.067
-186.129	391.865	0.031	-0.063
-185.114	43.769	-0.228	-0.205
-184.100	-131.585	0.378	0.049
-183.085	-172.087	0.181	-0.006
-182.071	23.803	0.244	-0.197
-181.056	-200.000	0.006	0.095
-180.042	-200.000	-0.053	-0.409
-179.027	-74.469	-0.104	-0.037
-178.012	-169.053	0.120	-0.004
-176.998	-26.494	-0.237	0.136
-175.983	-123.665	-0.232	-0.036
-174.969	-45.702	0.018	-0.009
-173.954	-200.000	0.029	-0.141
-172.939	93.681	0.048	-0.054
-171.925	800.000	-0.153	-0.428
-170.910	-77.844	-0.042	-0.014
-169.896	142.643	-0.264	0.345
-168.881	-111.792	-0.108	-0.021
-167.866	-152.995	0.164	0.011
-166.852	800.000	0.062	-0.202
-165.837	158.107	-0.175	0.239
-164.823	-200.000	0.011	0.363
-163.808	-78.543	0.184	-0.062
-162.793	-200.000	-0.016	0.105
-161.779	-91.918	-0.152	0.042
-160.764	87.298	0.270	-0.293
-159.750	25.805	-0.251	-0.205
-158.735	68.981	0.122	0.123
-157.720	800.000	0.079	0.338
-156.706	176.087	-0.111	-0.158
-155.691	599.009	-0.131	-0.319
-154.677	80.375	0.108	0.114
-153.662	52.091	-0.067	0.063
-152.647	-9.650	-0.193	-0.126
-151.633	48.181	0.310	0.285
-150.618	-89.720	0.126	0.036
-149.604	-91.586	-0.176	0.049
-148.589	-12.684	-0.048	-0.031
-147.574	-154.761	-0.341	-0.022
-146.560	-13.970	0.080	-0.050
-145.545	-161.053	0.131	0.007
-144.531	-16.352	0.279	-0.174
-143.516	-200.000	-0.068	0.350
-142.502	68.642	0.126	-0.127
-141.487	66.796	-0.161	-0.161
-140.472	-58.005	-0.228	0.098
-139.458	-44.338	0.171	0.084
-138.443	-200.000	0.006	0.123
-137.429	-200.000	0.010	0.072
-136.414	325.724	-0.129	0.243
-135.399	800.000	-0.015	-0.041
-134.385	-98.986	-0.172	-0.043
-133.370	-52.607	0.413	-0.187
-132.356	675.113	-0.105	0.268
-131.341	-101.005	-0.153	-0.037
-130.326	-59.981	0.358	0.150
-129.312	536.714	-0.051	0.118
-128.297	303.206	0.172	0.313
-127.283	-94.207	0.146	-0.039
-126.268	126.059	-0.076	0.094
-125.253	673.385	0.169	0.430
-124.239	462.577	0.120	-0.263
-123.224	-200.000	0.012	0.314
-122.210	-122.160	0.203	0.033
-121.195	-200.000	-0.028	-0.250
-120.180	180.158	0.300	0.431
-119.166	-52.813	0.110	-0.050
-118.151	-94.852	-0.109	0.029
-117.137	767.959	-0.089	-0.239
-116.122	94.390	0.045	0.050
-115.107	-122.375	0.263	0.042
-114.093	323.460	-0.071	-0.133
-113.078	77.615	0.194	0.202
-112.064	-97.793	-0.471	-0.119
-111.049	-200.000	-0.049	-0.618
-110.034	-152.835	-0.134	-0.009
-109.020	112.520	0.149	-0.176
-108.005	1.948	0.314	-0.222
-106.991	-165.521	0.127	-0.005
-105.976	-200.000	-0.028	0.282
-104.962	-200.000	-0.010	-0.195
-103.947	-183.938	0.385	-0.006
-102.932	-167.633	-0.216	-0.008
-101.918	-93.600	-0.227	0.062
-100.903	-200.000	0.135	-0.000
-99.889	-41.753	0.119	-0.060
-98.874	-141.131	-0.292	-0.029
-97.859	34.816	0.179	0.154
-96.845	-200.000	0.018	-0.177
-95.830	800.000	-0.024	-0.075
-94.816	800.000	-0.115	0.434
-93.801	5.508	0.172	-0.124
-92.786	-110.012	-0.186	-0.038
-91.772	-200.000	0.045	0.386
-90.757	34.877	-0.298	0.256
-89.743	-200.000	0.002	0.147
-88.728	-116.863	0.162	-0.029
-87.713	-200.000	-0.022	0.510
-86.699	-45.547	0.184	0.089
-85.684	-200.000	0.006	0.175
-84.670	132.190	0.305	-0.385
-83.655	-200.000	-0.022	-0.203
-82.640	-100.720	-0.343	0.083
-81.626	422.994	-0.046	0.097
-80.611	198.700	-0.123	0.185
-79.597	-140.719	0.506	-0.051
-78.582	-67.459	-0.288	0.111
-77.567	647.247	-0.080	0.201
-76.553	-200.000	-0.027	-0.163
-75.538	80.515	-0.191	0.202
-74.524	-79.911	0.314	0.103
-73.509	-64.108	-0.226	-0.090
-72.494	-200.000	-0.002	-0.056
-71.480	404.126	0.057	0.118
-70.465	-74.069	0.219	-0.078
-69.451	-149.752	-0.446	-0.034
-68.436	-82.911	0.135	-0.043
-67.422	-117.076	0.161	-0.029
-66.407	250.394	-0.100	-0.165
-65.392	-41.010	0.271	-0.137
-64.378	99.525	0.152	-0.172
-63.363	412.026	0.080	-0.166
-62.349	-47.815	0.197	-0.094
-61.334	125.801	-0.815	-1.007
-60.319	129.186	0.484	0.604
-59.305	186.847	-0.664	-0.968
-58.290	171.248	0.802	1.126
-57.276	-200.000	0.324	1.610
-56.261	-200.000	114.006	646.681
-55.246	471.233	1509.609	3321.762
-54.232	147.720	2673.936	3524.516
-53.217	103.213	2173.722	2492.202
-52.203	37.880	1702.658	1479.831
-51.188	30.560	1519.986	1271.183
-50.173	28.266	1495.898	1235.526
-49.159	52.291	1553.282	1448.658
-48.144	50.913	1568.890	1453.700
-47.130	30.762	1525.570	1277.036
-46.115	27.661	1510.451	1243.223
-45.100	27.420	1507.029	1238.723
-44.086	27.423	1505.176	1237.169
-43.071	27.415	1503.040	1235.307
-42.057	27.427	1501.479	1234.056
-41.042	27.475	1499.970	1233.092
-40.027	27.463	1498.408	1231.681
-39.013	27.375	1497.297	1230.127
-37.998	27.361	1496.018	1228.929
-36.984	27.353	1494.838	1227.859
-35.969	27.442	1493.342	1227.179
-34.954	27.354	1492.295	1225.680
-33.940	27.403	1490.496	1224.481
-32.925	27.414	1489.441	1223.641
-31.911	27.394	1488.233	1222.466
-30.896	27.369	1486.708	1220.993
-29.881	27.605	1485.660	1221.667
-28.867	27.424	1484.351	1219.329
-27.852	27.481	1482.782	1218.372
-26.838	27.512	1481.134	1217.182
-25.823	27.570	1479.572	1216.236
-24.809	27.421	1478.252	1214.106
-23.794	27.557	1476.609	1213.615
-22.779	27.449	1475.884	1212.254
-21.765	27.512	1474.704	1211.653
-20.750	27.493	1473.478	1210.475
-19.736	27.451	1472.611	1209.437
-18.721	27.448	1471.639	1208.570
-17.706	27.364	1471.045	1207.474
-16.692	27.487	1469.404	1206.894
-15.677	27.481	1468.389	1205.971
-14.663	27.383	1467.477	1204.526
-13.648	27.447	1466.317	1203.952
-12.633	27.456	1465.517	1203.304
-11.619	27.432	1465.488	1203.079
-10.604	27.362	1464.460	1201.722
-9.590	27.509	1462.505	1201.043
-8.575	27.434	1462.053	1200.124
-7.560	27.519	1461.207	1199.941
-6.546	27.384	1460.387	1198.337
-5.531	27.456	1459.051	1197.665
-4.517	27.336	1458.656	1196.507
-3.502	27.335	1457.666	1195.638
-2.487	27.313	1457.095	1194.975
-1.473	27.379	1455.500	1194.056
-0.458	27.523	1453.852	1193.599
0.556	25.809	1444.465	1181.490
1.571	22.719	1419.971	1141.394
2.586	19.293	1359.619	1071.524
3.600	17.797	1277.505	997.975
4.615	16.668	1232.295	956.202
5.629	16.000	1179.330	911.408
6.644	13.472	1103.920	840.239
7.659	11.122	1070.083	802.840
8.673	10.809	1065.065	797.470
9.688	10.765	1061.375	794.423
10.702	10.681	1059.938	792.866
11.717	10.664	1058.537	791.665
12.731	11.537	1057.980	795.431
13.746	14.450	1060.773	811.664
14.761	16.994	1064.066	826.519
15.775	17.811	1064.361	830.656
16.790	17.063	1062.231	825.284
17.804	16.120	1059.586	818.580
18.819	15.075	1058.078	812.276
19.834	14.604	1056.319	808.574
20.848	14.235	1056.002	806.472
21.863	14.152	1054.807	805.085
22.877	13.803	1054.233	802.888
23.892	13.719	1053.215	801.636
24.907	13.491	1052.875	800.202
25.921	13.444	1051.956	799.206
26.936	13.596	1051.023	799.161
27.950	13.581	1050.083	798.301
28.965	13.708	1048.793	797.860
29.980	13.637	1047.924	796.791
30.994	13.749	1046.554	796.213
32.009	13.811	1045.986	796.010
33.023	13.852	1044.907	795.317
34.038	13.788	1044.362	794.522
35.053	13.775	1043.539	793.767
36.067	13.706	1042.351	792.463
37.082	13.679	1041.443	791.570
38.096	13.691	1040.828	791.094
39.111	13.901	1039.700	791.163
40.126	13.795	1039.067	790.111
41.140	13.660	1037.947	788.545
42.155	13.709	1036.697	787.756
43.169	13.581	1035.578	786.229
44.184	13.445	1034.976	785.059
45.199	13.550	1033.536	784.397
46.213	13.612	1032.421	783.772
47.228	13.566	1032.026	783.185
48.242	13.593	1030.981	782.453
49.257	13.624	1030.084	781.850
50.271	13.615	1029.513	781.300
51.286	13.643	1028.077	780.275
52.301	13.837	1027.302	780.528
53.315	13.738	1025.988	778.998
54.330	13.659	1025.659	778.307
55.344	13.703	1024.793	777.787
56.359	13.493	1023.857	776.027
57.374	13.646	1022.786	775.864
58.388	13.574	1022.128	774.959
59.403	13.579	1021.084	774.121
60.417	13.525	1020.525	773.376
61.432	13.637	1019.692	773.199
62.447	13.464	1019.089	771.868
63.461	13.454	1018.242	771.110
64.476	13.460	1017.131	770.229
65.490	13.374	1016.234	769.082
66.505	13.440	1015.879	769.049
67.520	13.537	1014.706	768.547
68.534	13.522	1013.568	767.546
69.549	13.434	1013.276	766.849
70.563	13.405	1012.589	766.128
71.578	13.401	1011.792	765.440
72.593	13.465	1010.789	764.909
73.607	13.347	1009.617	763.405
74.622	13.495	1008.574	763.235
75.636	13.308	1008.254	762.061
76.651	13.347	1007.101	761.301
77.666	13.366	1006.773	761.074
78.680	13.373	1005.637	760.181
79.695	13.316	1005.478	759.734
80.709	13.399	1004.657	759.426
81.724	13.403	1003.910	758.813
82.739	13.547	1003.082	758.778
83.753	13.546	1002.500	758.267
84.768	13.616	1001.646	757.875
85.782	13.767	1000.695	757.775
86.797	13.863	999.752	757.433
87.812	13.696	999.770	756.617
88.826	13.632	998.832	755.552
89.841	13.777	997.480	755.122
90.855	13.629	996.753	753.828
91.870	13.775	996.133	753.959
92.884	13.784	994.888	752.991
93.899	13.812	994.520	752.773
94.914	13.768	993.913	752.046
95.928	13.822	992.835	751.409
96.943	13.775	992.240	750.681
97.957	13.773	991.489	750.037
98.972	13.781	990.336	749.132
99.987	13.705	989.990	748.462
101.001	13.854	988.936	748.269
102.016	13.822	988.166	747.478
103.030	13.840	986.995	746.608
104.045	13.748	986.314	745.612
105.060	13.806	985.447	745.149
106.074	13.800	984.235	744.140
107.089	13.673	983.095	742.645
108.103	13.542	982.786	741.761
109.118	13.683	981.607	741.437
110.133	13.333	981.739	739.903
111.147	13.454	980.360	739.341
112.162	13.570	979.181	738.901
113.176	13.508	978.295	737.892
114.191	13.627	977.567	737.807
115.206	13.551	976.961	736.948
116.220	13.736	975.477	736.585
117.235	13.609	975.099	735.669
118.249	13.625	974.130	734.942
119.264	13.653	973.453	734.493
120.279	13.681	972.165	733.581
121.293	13.638	971.472	732.800
122.308	13.611	971.268	732.465
123.322	13.565	970.150	731.352
124.337	13.525	969.306	730.474
125.352	13.518	967.538	729.049
126.366	13.478	966.979	728.386
127.381	13.511	966.013	727.740
128.395	13.455	964.993	726.660
129.410	13.442	963.997	725.791
130.424	13.461	963.125	725.153
131.439	13.364	962.722	724.360
132.454	13.490	961.524	723.944
133.468	13.727	960.774	724.350
134.483	13.599	960.034	723.170
135.497	13.595	959.473	722.667
136.512	13.625	958.943	722.332
137.527	13.628	957.965	721.547
138.541	13.599	956.956	720.598
139.556	13.707	956.127	720.376
140.570	13.572	955.699	719.404
141.585	13.681	954.739	719.094
142.600	13.720	954.724	719.186
143.614	13.759	953.783	718.583
144.629	13.800	953.105	718.186
145.643	13.950	951.910	717.869
146.658	13.821	951.476	716.922
147.673	13.806	950.430	716.004
148.687	13.696	949.705	714.923
149.702	13.688	948.952	714.255
150.716	13.736	947.749	713.494
151.731	13.717	946.868	712.685
152.746	13.715	946.580	712.399
153.760	13.720	945.826	711.790
154.775	13.699	944.857	710.906
155.789	13.847	943.451	710.418
156.804	13.836	943.180	710.106
157.819	14.049	942.161	710.185
158.833	13.956	941.476	709.211
159.848	14.056	941.068	709.268
160.862	13.921	940.860	708.470
161.877	13.971	939.748	707.785
162.892	13.848	939.210	706.793
163.906	13.870	938.232	706.088
164.921	13.792	937.467	705.118
165.935	13.849	935.980	704.177
166.950	13.873	935.012	703.488
167.964	14.034	934.352	703.611
168.979	13.837	933.587	702.141
169.994	13.943	932.616	701.796
171.008	13.975	931.662	701.151
172.023	13.965	930.686	700.313
173.037	13.934	930.778	700.189
174.052	14.016	929.484	699.498
175.067	13.932	929.008	698.726
176.081	13.869	928.364	697.914
177.096	13.717	927.636	696.667
178.110	13.830	926.480	696.211
179.125	13.876	925.883	695.893
180.140	14.015	924.552	695.414
181.154	13.967	924.351	694.999
182.169	14.010	924.066	694.906
183.183	14.085	922.756	694.172
184.198	14.175	922.264	694.117
185.213	14.174	921.526	693.494
186.227	14.188	920.532	692.742
187.242	14.105	920.503	692.314
188.256	14.270	920.086	692.625
189.271	14.150	919.619	691.712
190.286	14.237	918.078	690.853
191.300	14.129	917.494	689.905
192.315	14.032	916.616	688.785
193.329	13.963	915.873	687.878
194.344	13.883	915.462	687.178
195.359	13.989	914.850	687.097
196.373	13.948	914.459	686.570
197.388	14.162	913.461	686.645
198.402	14.285	913.225	686.915
199.417	14.247	912.987	686.517
200.432	14.490	912.066	686.766
201.446	14.455	911.962	686.482
202.461	14.557	911.380	686.401
203.475	14.690	910.519	686.239
204.490	14.499	910.446	685.338
205.504	14.390	909.438	684.072
206.519	14.353	908.317	683.019
207.534	14.490	907.962	683.254
208.548	14.440	907.569	682.689
209.563	14.459	906.730	682.079
210.577	14.363	906.180	681.212
211.592	14.358	905.171	680.370
212.607	14.546	904.546	680.609
213.621	14.564	904.328	680.457
214.636	14.623	903.476	679.998
215.650	14.621	902.825	679.436
216.665	14.583	902.349	678.865
217.680	14.582	901.499	678.160
218.694	14.575	901.479	678.058
219.709	14.735	900.743	678.094
220.723	14.718	900.053	677.447
221.738	14.735	898.637	676.390
222.753	14.680	898.357	675.894
223.767	14.728	897.621	675.478
224.782	14.685	896.823	674.644
225.796	14.761	896.042	674.303
226.811	14.716	895.832	673.903
227.826	14.817	894.985	673.614
228.840	14.666	894.562	672.628
229.855	14.756	893.900	672.431
230.869	14.764	892.857	671.619
231.884	14.797	892.466	671.401
232.899	14.757	891.601	670.530
233.913	14.642	891.049	669.592
234.928	14.633	890.733	669.262
235.942	14.788	889.551	668.935
236.957	14.672	888.774	667.828
237.972	14.686	888.148	667.352
238.986	14.737	887.398	666.934
240.001	14.657	887.244	666.439
241.015	14.857	885.926	666.185
242.030	14.760	885.485	665.412
243.045	14.888	884.554	665.160
244.059	14.756	884.140	664.264
245.074	14.940	883.537	664.486
246.088	14.872	883.017	663.768
247.103	14.921	882.234	663.312
248.117	14.864	881.937	662.804
249.132	14.980	881.236	662.677
250.147	15.084	880.780	662.688
251.161	15.003	880.682	662.237
252.176	15.187	879.688	662.156
253.190	15.201	878.854	661.526
254.205	15.256	877.996	661.037
255.220	15.294	877.718	660.919
256.234	15.407	876.674	660.521
257.249	15.295	876.395	659.811
258.263	15.283	875.944	659.364
259.278	15.313	875.091	658.785
260.293	15.336	874.224	658.165
261.307	15.402	873.964	658.169
262.322	15.440	873.458	657.878
263.336	15.512	872.841	657.638
264.351	15.479	872.032	656.840
265.366	15.524	871.495	656.553
266.380	15.407	870.938	655.620
267.395	15.469	870.648	655.586
268.409	15.488	869.775	654.943
269.424	15.486	868.833	654.169
270.439	15.532	868.023	653.680
271.453	15.434	867.294	652.692
272.468	15.390	866.661	651.984
273.482	15.322	866.279	651.375
274.497	15.424	865.573	651.184
275.512	15.549	864.430	650.749
276.526	15.648	864.013	650.762
277.541	15.493	863.414	649.653
278.555	15.575	862.997	649.600
279.570	15.603	862.340	649.157
280.585	15.449	862.434	648.576
281.599	15.782	861.297	648.948
282.614	15.562	860.701	647.591
283.628	15.660	860.070	647.436
284.643	15.544	859.889	646.796
285.657	15.729	858.756	646.600
286.672	15.552	858.775	645.876
287.687	15.655	858.041	645.664
288.701	15.738	857.529	645.540
289.716	15.654	856.698	644.533
290.730	15.643	856.447	644.246
291.745	15.823	855.688	644.305
292.760	15.605	855.178	643.033
293.774	15.712	854.569	642.928
294.789	15.971	853.878	643.339
295.803	15.939	852.989	642.491
296.818	15.885	852.528	641.882
297.833	15.744	852.098	640.962
298.847	15.840	851.006	640.448
299.862	15.914	850.505	640.297
300.876	15.966	849.695	639.829
301.891	15.808	849.452	638.989
302.906	15.882	848.785	638.711
303.920	15.974	847.871	638.316
304.935	15.979	847.307	637.854
305.949	16.141	846.880	638.087
306.964	16.104	846.301	637.457
307.979	15.993	845.593	636.448
308.993	15.976	845.478	636.238
310.008	16.175	844.525	636.216
311.022	16.119	844.354	635.822
312.037	16.107	843.966	635.426
313.052	16.156	843.163	634.952
314.066	16.047	842.447	633.945
315.081	16.075	841.730	633.457
316.095	16.088	841.101	632.974
317.110	16.115	840.595	632.639
318.125	16.016	840.211	631.922
319.139	16.142	839.737	631.982
320.154	16.059	839.490	631.431
321.168	16.094	838.768	630.961
322.183	15.941	838.258	629.951
323.197	16.009	837.796	629.802
324.212	16.156	837.239	629.875
325.227	16.074	836.681	629.096
326.241	16.116	836.234	628.858
327.256	16.136	835.918	628.639
328.270	16.248	835.044	628.344
329.285	16.289	834.185	627.794
330.300	16.160	833.845	627.003
331.314	16.217	833.188	626.666
332.329	16.457	832.212	626.767
333.343	16.318	831.998	626.034
334.358	16.304	831.694	625.698
335.373	16.446	830.846	625.533
336.387	16.296	830.363	624.559
337.402	16.419	830.168	624.810
338.416	16.398	829.685	624.314
339.431	16.309	829.176	623.546
340.446	16.570	828.223	623.738
341.460	16.638	827.859	623.659
342.475	16.574	827.277	622.928
343.489	16.564	826.549	622.290
344.504	16.651	826.204	622.295
345.519	16.661	825.706	621.902
346.533	16.675	825.198	621.516
347.548	16.723	825.022	621.503
348.562	16.696	824.279	620.790
349.577	16.554	823.924	619.946
350.592	16.430	823.185	618.882
351.606	16.662	822.562	619.207
352.621	16.492	822.577	618.542
353.635	16.654	821.510	618.276
354.650	16.641	821.387	618.082
355.665	16.590	821.046	617.586
356.679	16.568	820.576	617.097
357.694	16.706	820.077	617.171
358.708	16.722	819.741	616.922
359.723	16.651	818.795	615.895
360.738	16.802	818.178	615.926
361.752	16.833	817.915	615.785
362.767	16.797	817.436	615.242
363.781	16.860	816.815	614.948
364.796	16.968	816.421	614.989
365.810	17.041	815.858	614.773
366.825	16.971	815.728	614.366
367.840	17.004	815.119	613.975
368.854	17.133	814.885	614.210
369.869	16.931	814.660	613.257
370.883	16.976	813.862	612.764
371.898	16.755	813.634	611.738
372.913	16.890	812.790	611.538
373.927	17.000	812.391	611.581
374.942	17.071	811.536	611.138
375.956	16.995	810.791	610.249
376.971	17.052	810.417	610.120
377.986	17.295	809.692	610.393
379.000	17.213	809.184	609.661
380.015	17.117	808.843	609.006
381.029	17.356	808.092	609.243
382.044	17.199	807.824	608.424
383.059	17.276	807.108	608.105
384.073	17.308	806.655	607.826
385.088	17.181	806.376	607.106
386.102	17.174	805.427	606.313
387.117	17.057	804.734	605.321
388.132	17.105	804.919	605.577
389.146	17.192	804.359	605.416
390.161	17.164	803.951	604.953
391.175	17.274	803.689	605.094
392.190	17.365	803.213	605.005
393.205	17.305	802.856	604.471
394.219	17.257	802.569	604.028
395.234	17.289	801.460	603.256
396.248	17.312	801.008	602.944
397.263	17.395	800.343	602.684
398.278	17.221	800.152	601.871
399.292	17.185	799.916	601.512
400.307	17.208	799.353	601.118
401.321	17.250	798.917	600.886
402.336	17.315	798.565	600.797
403.350	17.345	798.104	600.502
404.365	17.406	797.606	600.289
405.380	17.320	797.195	599.623
406.394	17.309	796.985	599.373
407.409	17.522	796.208	599.488
408.423	17.599	795.489	599.163
409.438	17.584	795.296	598.912
410.453	17.623	795.306	599.004
411.467	17.698	794.622	598.699
412.482	17.836	793.685	598.425
413.496	17.586	793.687	597.494
414.511	17.852	793.095	597.929
415.526	17.623	793.299	597.229
416.540	17.703	792.659	596.972
417.555	17.833	792.150	596.991
418.569	17.738	791.445	596.077
419.584	17.771	790.850	595.692
420.599	17.742	790.782	595.486
421.613	111.748	1293.031	1476.813
422.628	96.031	1366.170	1476.883
