DTS Sentinel unit serial number:	SN413079Multiplexer serial number:	ORYXHardware model number:	OX4-SRSoftware version number:	ORYX F/W v4.00 Oryx Data Collector v3.7.2.0data status	okinstallation	princeton_trtdifferential loss correction	single-endedforward channel	channel 3reverse channel	N/Adate	2019/09/10time	16:38:11forward acquisition time	60.00reverse acquisition time	0.00gamma	496.2192k internal	0.2299k external	0.2299temperature offset calibration	0.9908default loss term (dB/km)	0.3790temperature slope calibration	1.0000multiplexer offset coefficient	1.0000multiplexer slope coefficient	1.0000fibre end	0.00T internal ref (°C)	37.87T ext. ref 1 (°C)	-0.28T ext. ref 2 (°C)	30.39length (m)	temperature (°C)	Stokes	anti-Stokes-747.200	-200.000	0.002	-0.135
-746.185	-200.000	-0.009	0.218
-745.171	26.253	-0.170	0.145
-744.156	-116.276	-0.565	-0.107
-743.142	-200.000	-0.029	0.228
-742.127	326.945	-0.150	0.294
-741.112	800.000	0.029	-0.081
-740.098	-179.090	-0.054	-0.001
-739.083	-160.415	0.259	0.014
-738.069	-200.000	0.006	0.207
-737.054	-106.049	-0.251	-0.058
-736.039	-36.002	0.134	-0.074
-735.025	800.000	0.044	-0.142
-734.010	-150.669	-0.580	0.045
-732.996	-55.027	-0.302	0.139
-731.981	0.833	-0.345	0.252
-730.966	229.558	0.082	0.137
-729.952	95.413	-0.160	-0.186
-728.937	6.968	-0.209	-0.159
-727.923	-152.625	-0.152	0.011
-726.908	-200.000	0.033	-0.462
-725.894	-200.000	0.015	0.218
-724.879	-27.165	-0.158	-0.094
-723.864	184.842	-0.216	-0.327
-722.850	-135.134	-0.122	0.015
-721.835	34.130	-0.300	0.267
-720.821	312.054	-0.239	-0.457
-719.806	30.760	0.180	-0.157
-718.791	117.481	0.168	-0.211
-717.777	133.344	-0.182	-0.239
-716.762	221.211	0.199	0.325
-715.748	800.000	-0.007	0.021
-714.733	0.503	-0.073	0.053
-713.718	-36.607	-0.142	0.078
-712.704	-40.493	-0.134	-0.071
-711.689	361.889	-0.177	-0.362
-710.675	63.963	0.145	0.148
-709.660	-89.133	-0.261	0.079
-708.645	54.296	-0.184	0.181
-707.631	170.801	-0.155	-0.227
-706.616	386.256	-0.047	-0.099
-705.602	-30.911	0.265	-0.153
-704.587	121.271	-0.084	0.106
-703.572	168.981	-0.199	-0.288
-702.558	146.775	0.104	-0.143
-701.543	242.356	-0.104	-0.177
-700.529	200.284	-0.298	-0.467
-699.514	103.465	0.050	-0.060
-698.499	-200.000	0.011	-0.173
-697.485	800.000	-0.050	0.198
-696.470	-43.224	-0.066	0.034
-695.456	166.548	-0.122	0.176
-694.441	-104.010	-0.272	-0.064
-693.426	167.734	-0.315	0.457
-692.412	18.613	-0.105	-0.085
-691.397	800.000	-0.033	0.129
-690.383	-200.000	-0.048	-0.410
-689.368	-179.383	-0.349	0.008
-688.354	-35.582	0.172	-0.095
-687.339	113.642	-0.265	0.328
-686.324	-200.000	0.014	-0.189
-685.310	55.847	-0.048	-0.048
-684.295	438.340	0.123	0.272
-683.281	116.619	-0.174	0.218
-682.266	-152.636	0.534	-0.039
-681.251	-55.595	-0.300	0.137
-680.237	-116.767	-0.104	0.019
-679.222	67.635	-0.147	0.153
-678.208	-200.000	-0.016	0.450
-677.193	-200.000	-0.041	-0.215
-676.178	-35.884	-0.205	0.113
-675.164	-36.819	-0.133	0.073
-674.149	362.118	-0.043	0.087
-673.135	61.542	-0.107	-0.108
-672.120	214.852	0.152	0.246
-671.105	-200.000	0.016	-0.241
-670.091	111.758	-0.255	0.314
-669.076	366.147	-0.108	-0.222
-668.062	-80.425	-0.436	0.148
-667.047	-68.598	0.027	-0.011
-666.032	-61.994	-0.126	-0.054
-665.018	241.482	-0.090	0.154
-664.003	55.504	0.282	-0.278
-662.989	374.439	-0.032	-0.066
-661.974	-19.419	-0.045	0.028
-660.959	126.391	-0.128	-0.165
-659.945	278.669	0.175	-0.316
-658.930	-200.000	-0.003	0.140
-657.916	-40.872	0.245	-0.129
-656.901	-92.505	-0.022	-0.006
-655.886	660.280	-0.032	0.085
-654.872	800.000	-0.063	0.207
-653.857	-124.364	0.148	0.024
-652.843	129.991	0.133	-0.173
-651.828	391.703	-0.133	0.280
-650.814	-174.231	-0.208	-0.006
-649.799	-42.151	-0.156	-0.081
-648.784	800.000	0.068	-0.208
-647.770	-112.512	-0.060	-0.012
-646.755	-200.000	0.104	-0.511
-645.741	-52.965	0.105	-0.049
-644.726	-170.253	-0.106	0.004
-643.711	-78.406	-0.181	-0.063
-642.697	-200.000	0.091	0.432
-641.682	-200.000	-0.045	0.212
-640.668	-124.507	-0.048	-0.008
-639.653	-100.666	0.141	0.035
-638.638	800.000	-0.020	-0.080
-637.624	135.817	-0.063	-0.083
-636.609	800.000	0.046	0.163
-635.595	84.389	0.137	-0.152
-634.580	-110.136	0.160	-0.034
-633.565	786.571	0.044	-0.121
-632.551	-57.680	-0.291	-0.129
-631.536	41.607	-0.118	-0.109
-630.522	-200.000	-0.000	-0.093
-629.507	-158.474	-0.390	0.023
-628.492	-165.882	-0.288	0.013
-627.478	-12.039	0.132	0.088
-626.463	-40.517	-0.180	0.095
-625.449	800.000	-0.055	0.180
-624.434	800.000	-0.037	0.149
-623.419	174.262	0.134	-0.196
-622.405	-114.432	-0.086	0.017
-621.390	134.858	0.105	-0.138
-620.376	-68.862	-0.200	-0.078
-619.361	-98.057	-0.147	-0.038
-618.346	141.249	-0.282	-0.379
-617.332	56.172	-0.113	0.111
-616.317	-28.485	-0.292	0.171
-615.303	68.686	-0.054	-0.056
-614.288	-143.461	0.084	0.008
-613.273	302.015	0.044	0.083
-612.259	-200.000	0.022	0.267
-611.244	-103.343	0.248	0.059
-610.230	-2.101	0.005	-0.004
-609.215	-200.000	-0.020	0.171
-608.201	224.744	0.128	0.209
-607.186	-1.472	-0.247	0.177
-606.171	-200.000	-0.005	-0.240
-605.157	-50.775	-0.129	0.061
-604.142	-148.336	0.126	0.010
-603.128	222.342	-0.060	0.098
-602.113	141.528	0.210	0.282
-601.098	-160.571	0.473	-0.026
-600.084	-118.365	-0.289	-0.052
-599.069	5.265	-0.152	0.114
-598.055	-171.480	-0.298	0.010
-597.040	260.849	-0.114	-0.200
-596.025	-123.155	-0.375	-0.061
-595.011	-200.000	0.001	-0.055
-593.996	40.822	-0.178	-0.163
-592.982	-162.609	0.200	-0.010
-591.967	747.694	-0.052	-0.142
-590.952	71.746	-0.115	-0.122
-589.938	-32.684	-0.182	-0.103
-588.923	-200.000	-0.026	-0.247
-587.909	-50.772	0.285	0.136
-586.894	-116.060	-0.177	0.033
-585.879	194.299	-0.159	0.244
-584.865	-67.169	0.219	0.087
-583.850	632.730	-0.092	-0.235
-582.836	-200.000	-0.004	0.192
-581.821	-200.000	-0.007	-0.190
-580.806	800.000	0.059	-0.237
-579.792	31.046	0.252	-0.219
-578.777	-59.656	-0.245	0.107
-577.763	473.051	0.061	-0.139
-576.748	-81.761	-0.097	-0.032
-575.733	800.000	0.064	-0.210
-574.719	4.393	-0.171	-0.127
-573.704	-27.283	-0.198	0.117
-572.690	12.917	-0.285	-0.223
-571.675	-200.000	0.037	-0.365
-570.661	457.493	-0.065	0.146
-569.646	-34.804	0.177	-0.098
-568.631	-164.250	-0.234	-0.011
-567.617	30.558	-0.183	0.159
-566.602	-200.000	0.002	-0.038
-565.588	800.000	-0.110	-0.338
-564.573	-200.000	0.025	-0.207
-563.558	-46.056	-0.092	-0.046
-562.544	-128.906	-0.319	0.045
-561.529	-72.948	0.074	-0.028
-560.515	-200.000	0.011	-0.346
-559.500	456.075	-0.099	0.222
-558.485	800.000	-0.068	0.244
-557.471	-200.000	0.020	-0.302
-556.456	74.340	0.175	-0.187
-555.442	233.458	0.033	0.054
-554.427	218.763	-0.048	0.077
-553.412	-197.798	0.225	-0.001
-552.398	36.114	0.133	-0.119
-551.383	-88.220	-0.239	0.072
-550.369	800.000	0.026	0.098
-549.354	-148.849	0.104	-0.009
-548.339	800.000	-0.038	0.163
-547.325	316.882	-0.024	-0.045
-546.310	-200.000	-0.006	0.292
-545.296	-200.000	0.030	0.233
-544.281	-200.000	0.024	0.254
-543.266	223.827	0.197	0.322
-542.252	-200.000	0.008	-0.146
-541.237	800.000	-0.007	-0.020
-540.223	185.797	0.207	-0.311
-539.208	407.371	-0.181	-0.387
-538.193	404.125	0.059	0.126
-537.179	800.000	-0.031	0.111
-536.164	163.231	0.112	0.160
-535.150	-43.587	0.098	0.050
-534.135	-48.715	0.387	0.188
-533.121	-38.671	0.065	-0.035
-532.106	-52.423	0.244	0.114
-531.091	800.000	-0.053	-0.195
-530.077	-37.961	-0.145	-0.078
-529.062	3.468	-0.115	-0.085
-528.048	-19.854	0.040	-0.025
-527.033	353.441	-0.032	0.063
-526.018	17.245	-0.154	-0.124
-525.004	800.000	-0.083	0.259
-523.989	800.000	0.014	0.044
-522.975	-200.000	-0.014	0.166
-521.960	-193.885	-0.183	-0.002
-520.945	-141.490	-0.194	0.020
-519.931	70.758	0.171	0.179
-518.916	800.000	-0.070	0.215
-517.902	3.886	-0.136	0.101
-516.887	458.962	-0.070	-0.158
-515.872	-159.637	-0.222	0.012
-514.858	-116.985	0.165	-0.030
-513.843	-88.054	-0.103	-0.031
-512.829	51.446	0.211	-0.203
-511.814	800.000	0.141	-0.421
-510.799	97.910	0.244	-0.284
-509.785	-49.641	-0.147	-0.071
-508.770	-58.870	0.229	-0.100
-507.756	-200.000	0.025	-0.120
-506.741	59.052	0.139	-0.139
-505.726	800.000	0.124	0.495
-504.712	20.206	0.133	-0.109
-503.697	-28.834	-0.236	0.137
-502.683	-200.000	0.005	0.063
-501.668	477.140	-0.022	0.051
-500.653	-200.000	-0.015	-0.379
-499.639	-200.000	-0.016	-0.137
-498.624	355.071	-0.117	0.235
-497.610	178.712	-0.097	0.144
-496.595	-134.064	-0.260	0.032
-495.581	0.124	0.083	-0.060
-494.566	52.387	0.144	0.138
-493.551	-82.483	0.248	0.081
-492.537	257.565	-0.097	0.169
-491.522	-72.947	-0.251	0.093
-490.508	-200.000	-0.024	0.306
-489.493	-59.401	-0.077	-0.034
-488.478	657.073	-0.048	0.126
-487.464	47.274	-0.199	0.188
-486.449	3.414	-0.225	-0.166
-485.435	-37.448	0.149	0.080
-484.420	433.533	-0.066	0.145
-483.405	-38.899	-0.342	0.182
-482.391	117.047	-0.150	-0.187
-481.376	-31.486	-0.048	-0.027
-480.362	800.000	-0.026	0.101
-479.347	-200.000	-0.011	-0.157
-478.332	222.160	-0.092	0.150
-477.318	-52.630	-0.223	-0.104
-476.303	2.431	0.131	0.095
-475.289	33.180	-0.176	-0.154
-474.274	-167.097	-0.113	-0.005
-473.259	166.210	-0.088	-0.125
-472.245	-9.440	0.279	0.188
-471.230	-122.863	-0.128	0.021
-470.216	-39.000	0.116	0.062
-469.201	-10.546	-0.175	0.117
-468.186	-162.038	0.212	0.011
-467.172	555.168	-0.077	-0.188
-466.157	45.946	-0.429	-0.400
-465.143	-81.185	-0.276	0.092
-464.128	-20.494	-0.055	0.034
-463.113	-76.463	0.411	-0.146
-462.099	-81.791	-0.247	0.082
-461.084	268.818	0.070	-0.123
-460.070	-93.747	0.053	0.015
-459.055	110.167	-0.138	0.167
-458.040	-200.000	-0.038	-0.175
-457.026	800.000	-0.057	-0.161
-456.011	800.000	-0.037	-0.119
-454.997	-61.702	0.318	-0.135
-453.982	91.285	-0.124	0.141
-452.968	127.563	-0.110	0.142
-451.953	-200.000	-0.010	-0.253
-450.938	800.000	0.061	0.193
-449.924	-200.000	-0.008	0.049
-448.909	40.344	0.184	-0.167
-447.895	-200.000	0.031	0.333
-446.880	-137.746	0.345	-0.039
-445.865	800.000	-0.018	-0.049
-444.851	-181.176	0.129	-0.003
-443.836	432.231	0.119	0.261
-442.822	-200.000	0.046	0.269
-441.807	-4.463	-0.324	-0.226
-440.792	379.530	0.159	0.329
-439.778	792.681	-0.092	-0.255
-438.763	800.000	0.071	-0.201
-437.749	800.000	-0.075	-0.248
-436.734	-3.378	-0.287	-0.202
-435.719	-200.000	-0.061	0.296
-434.705	150.619	-0.301	-0.413
-433.690	-71.667	0.108	0.041
-432.676	800.000	-0.142	-0.494
-431.661	-95.778	-0.140	0.038
-430.646	39.172	0.281	-0.253
-429.632	-144.833	-0.246	-0.023
-428.617	360.086	-0.088	0.177
-427.603	-157.330	0.010	-0.001
-426.588	579.044	-0.112	-0.277
-425.573	-200.000	0.014	-0.157
-424.559	346.463	0.198	-0.392
-423.544	34.262	-0.092	-0.081
-422.530	-163.278	-0.202	0.010
-421.515	800.000	0.068	0.263
-420.500	-109.614	-0.242	-0.051
-419.486	-4.696	0.358	-0.249
-418.471	-109.812	0.124	0.026
-417.457	800.000	-0.042	0.116
-416.442	22.376	-0.271	-0.223
-415.428	-200.000	0.010	-0.110
-414.413	-102.694	-0.203	0.049
-413.398	-167.614	-0.068	-0.003
-412.384	-62.475	0.023	0.010
-411.369	-200.000	0.059	-0.327
-410.355	-97.391	-0.090	-0.024
-409.340	196.808	-0.102	0.156
-408.325	-1.790	0.024	0.017
-407.311	15.166	-0.278	-0.220
-406.296	136.112	0.119	-0.156
-405.282	205.077	0.144	0.225
-404.267	163.414	0.197	-0.279
-403.252	-6.937	0.178	0.122
-402.238	800.000	0.061	-0.177
-401.223	800.000	-0.103	0.294
-400.209	-48.434	-0.187	-0.091
-399.194	-101.619	-0.082	-0.020
-398.179	-106.607	-0.414	0.093
-397.165	-13.720	-0.061	0.040
-396.150	800.000	0.055	-0.197
-395.136	131.372	0.123	-0.160
-394.121	800.000	-0.076	0.230
-393.106	179.353	0.133	-0.196
-392.092	800.000	0.098	0.414
-391.077	-6.125	-0.332	-0.228
-390.063	536.635	0.107	-0.256
-389.048	510.772	-0.125	0.293
-388.033	-91.073	-0.257	-0.074
-387.019	-95.263	-0.283	-0.077
-386.004	-184.642	-0.207	0.003
-384.990	10.639	0.105	0.081
-383.975	-10.472	0.201	0.134
-382.960	-138.399	0.315	0.035
-381.946	142.958	0.048	0.065
-380.931	-200.000	-0.010	0.066
-379.917	-200.000	-0.049	-0.378
-378.902	121.007	0.066	0.083
-377.888	-11.065	-0.320	-0.212
-376.873	-200.000	-0.013	-0.080
-375.858	135.413	0.139	0.181
-374.844	800.000	-0.024	-0.074
-373.829	-51.925	-0.168	0.078
-372.815	-12.843	-0.026	-0.017
-371.800	246.620	0.183	-0.310
-370.785	-48.695	0.338	-0.163
-369.771	151.703	0.117	-0.160
-368.756	-200.000	-0.053	0.416
-367.742	-200.000	0.057	0.331
-366.727	800.000	-0.099	0.292
-365.712	305.651	0.084	0.156
-364.698	-90.822	-0.186	0.054
-363.683	-57.080	0.177	0.078
-362.669	29.078	0.134	0.114
-361.654	-200.000	-0.019	0.150
-360.639	503.306	0.159	0.369
-359.625	-31.516	0.209	0.118
-358.610	73.368	-0.057	-0.060
-357.596	-200.000	0.007	-0.064
-356.581	-59.908	0.202	0.087
-355.566	-66.668	0.420	-0.167
-354.552	-25.940	0.147	0.087
-353.537	173.397	-0.201	0.291
-352.523	-52.106	0.453	0.211
-351.508	-60.898	0.235	-0.100
-350.493	-9.883	-0.085	0.057
-349.479	158.330	0.098	-0.136
-348.464	-59.236	0.291	-0.126
-347.450	137.711	0.073	-0.096
-346.435	228.213	-0.062	-0.102
-345.420	-200.000	-0.019	0.102
-344.406	-74.262	0.294	0.107
-343.391	-38.982	-0.190	-0.100
-342.377	-200.000	0.295	-0.000
-341.362	-200.000	-0.004	-0.053
-340.348	-114.981	-0.280	0.053
-339.333	17.586	-0.135	-0.108
-338.318	86.085	-0.309	-0.342
-337.304	-200.000	-0.008	0.111
-336.289	552.447	0.110	0.267
-335.275	-200.000	-0.053	0.557
-334.260	-63.012	-0.107	-0.044
-333.245	800.000	-0.036	0.156
-332.231	-200.000	0.013	0.180
-331.216	800.000	-0.055	0.178
-330.202	374.703	0.055	0.113
-329.187	402.195	0.138	-0.292
-328.172	155.171	-0.070	0.096
-327.158	800.000	-0.079	0.316
-326.143	-183.012	-0.177	-0.003
-325.129	-99.501	-0.257	0.065
-324.114	800.000	0.134	0.396
-323.099	-112.962	0.240	0.048
-322.085	-200.000	-0.017	0.167
-321.070	-4.546	0.191	0.132
-320.056	800.000	0.022	0.060
-319.041	119.788	-0.112	0.139
-318.026	588.023	-0.023	-0.057
-317.012	-52.517	-0.119	0.055
-315.997	212.295	0.098	-0.155
-314.983	-36.610	-0.404	0.218
-313.968	-200.000	-0.014	0.128
-312.953	54.094	0.166	-0.160
-311.939	164.637	-0.032	0.045
-310.924	788.584	0.103	0.284
-309.910	-32.971	0.293	0.163
-308.895	588.186	0.046	0.112
-307.880	-169.044	-0.065	-0.002
-306.866	-200.000	-0.018	0.132
-305.851	47.754	0.155	0.145
-304.837	-200.000	0.043	0.292
-303.822	800.000	0.020	-0.070
-302.807	15.446	-0.073	0.058
-301.793	-26.576	0.212	0.124
-300.778	-123.925	0.155	0.024
-299.764	-139.074	0.139	-0.015
-298.749	-98.927	-0.108	-0.028
-297.735	115.862	-0.204	-0.250
-296.720	200.689	-0.034	0.053
-295.705	-132.785	0.196	0.025
-294.691	19.326	0.047	0.038
-293.676	-200.000	-0.022	-0.175
-292.662	-43.040	0.200	0.102
-291.647	1.426	-0.237	0.171
-290.632	-129.006	0.264	-0.037
-289.618	312.295	0.166	0.312
-288.603	-200.000	-0.034	-0.262
-287.589	-116.748	0.094	0.017
-286.574	-200.000	-0.014	0.127
-285.559	800.000	-0.051	-0.169
-284.545	118.466	0.032	-0.040
-283.530	51.666	-0.196	-0.187
-282.516	-83.260	0.167	0.054
-281.501	-200.000	-0.007	0.091
-280.486	202.986	0.175	0.272
-279.472	-83.946	0.161	0.051
-278.457	154.888	-0.087	-0.120
-277.443	-200.000	0.010	0.162
-276.428	-20.973	-0.238	-0.146
-275.413	475.494	0.115	0.260
-274.399	-44.590	0.399	-0.200
-273.384	-77.663	-0.168	-0.058
-272.370	280.168	0.166	-0.297
-271.355	-135.530	-0.110	-0.013
-270.340	800.000	0.113	-0.318
-269.326	-200.000	-0.023	-0.190
-268.311	60.745	0.189	-0.188
-267.297	167.138	-0.104	0.148
-266.282	-71.230	-0.174	-0.065
-265.267	123.784	0.030	0.037
-264.253	379.751	-0.169	-0.346
-263.238	-9.406	-0.189	-0.126
-262.224	-102.567	0.142	0.034
-261.209	203.782	0.167	-0.259
-260.195	-138.519	-0.322	-0.035
-259.180	13.147	0.167	0.130
-258.165	31.782	0.303	0.261
-257.151	-95.787	-0.209	0.056
-256.136	-52.132	0.332	-0.154
-255.122	-78.568	0.139	-0.048
-254.107	185.974	0.095	-0.141
-253.092	73.320	-0.292	-0.306
-252.078	-116.982	0.367	-0.067
-251.063	-200.000	0.001	0.305
-250.049	-29.486	-0.285	0.163
-249.034	31.748	-0.243	-0.209
-248.019	258.423	-0.117	-0.202
-247.005	1.988	0.322	0.233
-245.990	142.931	0.096	0.128
-244.976	684.513	-0.039	0.103
-243.961	88.765	0.128	0.142
-242.946	-139.101	0.304	-0.033
-241.932	-116.821	0.071	0.013
-240.917	-112.152	0.148	0.030
-239.903	800.000	-0.051	0.153
-238.888	-179.097	0.062	-0.001
-237.873	-139.981	0.345	0.036
-236.859	-200.000	0.022	0.131
-235.844	-88.215	-0.154	0.046
-234.830	800.000	0.137	0.518
-233.815	-138.117	-0.177	0.020
-232.800	-200.000	-0.038	-0.401
-231.786	172.951	-0.074	0.106
-230.771	-11.810	-0.086	-0.056
-229.757	285.044	0.140	-0.253
-228.742	-200.000	-0.040	-0.348
-227.727	125.813	-0.093	0.118
-226.713	-81.668	0.252	0.083
-225.698	682.346	-0.077	-0.201
-224.684	-200.000	-0.023	-0.270
-223.669	138.974	0.146	0.191
-222.655	0.642	-0.062	-0.044
-221.640	-125.534	-0.154	-0.023
-220.625	-87.573	0.129	-0.039
-219.611	123.429	0.057	0.072
-218.596	-76.453	-0.261	-0.092
-217.582	412.715	0.174	0.369
-216.567	-72.644	-0.157	0.058
-215.552	-15.756	-0.146	-0.093
-214.538	800.000	0.009	-0.033
-213.523	-200.000	-0.027	-0.124
-212.509	67.751	0.201	-0.205
-211.494	-41.556	-0.215	0.110
-210.479	265.372	-0.123	0.214
-209.465	20.806	0.112	-0.091
-208.450	178.156	-0.118	0.173
-207.436	-200.000	-0.001	-0.040
-206.421	-61.612	0.121	0.051
-205.406	-19.693	0.059	0.037
-204.392	-33.028	-0.112	-0.062
-203.377	300.352	-0.095	0.175
-202.363	238.058	0.048	-0.080
-201.348	-121.458	0.101	0.017
-200.333	-200.000	-0.003	-0.199
-199.319	119.828	-0.117	-0.144
-198.304	148.591	0.185	0.249
-197.290	1.886	0.179	0.129
-196.275	14.861	-0.108	0.085
-195.260	-58.455	0.126	-0.055
-194.246	-200.000	-0.004	-0.028
-193.231	-19.316	-0.011	-0.007
-192.217	107.866	0.241	-0.287
-191.202	800.000	-0.058	0.242
-190.187	176.640	0.147	-0.213
-189.173	-105.388	0.299	-0.068
-188.158	-115.446	0.294	0.055
-187.144	-157.323	-0.051	0.003
-186.129	-200.000	0.023	0.115
-185.114	5.322	0.082	0.060
-184.100	65.278	-0.051	0.051
-183.085	-129.635	0.053	-0.007
-182.071	-56.787	0.229	-0.101
-181.056	-133.362	0.174	0.022
-180.042	-30.289	-0.314	-0.178
-179.027	-200.000	0.025	0.501
-178.012	-30.595	-0.090	0.051
-176.998	800.000	-0.063	-0.227
-175.983	-59.187	0.141	-0.061
-174.969	800.000	0.101	0.344
-173.954	78.280	0.142	0.151
-172.939	6.179	0.085	-0.063
-171.925	-200.000	-0.016	0.141
-170.910	-80.038	0.148	0.050
-169.896	54.098	0.184	-0.177
-168.881	82.790	-0.095	-0.103
-167.866	-133.690	0.282	-0.035
-166.852	-143.447	-0.090	0.009
-165.837	800.000	0.053	-0.156
-164.823	489.287	0.065	-0.148
-163.808	-99.645	-0.181	0.045
-162.793	-55.797	0.301	0.134
-161.779	-200.000	-0.029	-0.433
-160.764	63.388	-0.226	0.226
-159.750	178.250	-0.125	0.182
-158.735	-78.838	0.318	0.108
-157.720	-200.000	0.010	0.249
-156.706	308.707	0.196	-0.364
-155.691	-101.292	0.290	-0.071
-154.677	-200.000	-0.003	0.023
-153.662	-121.540	0.168	-0.028
-152.647	-185.999	-0.438	-0.006
-151.633	153.936	0.092	-0.125
-150.618	-1.988	-0.189	0.133
-149.604	-70.152	0.078	-0.030
-148.589	144.613	0.154	-0.205
-147.574	146.727	0.152	-0.203
-146.560	10.089	-0.237	0.180
-145.545	163.581	0.112	0.157
-144.531	375.299	0.066	-0.135
-143.516	800.000	0.102	0.332
-142.502	800.000	0.084	-0.266
-141.487	733.331	0.150	0.399
-140.472	41.193	0.020	0.018
-139.458	800.000	-0.129	0.382
-138.443	623.816	0.142	-0.357
-137.429	46.164	0.102	-0.094
-136.414	-96.068	-0.061	-0.016
-135.399	126.702	0.096	-0.121
-134.385	-114.785	-0.227	-0.043
-133.370	311.280	0.075	-0.139
-132.356	-124.939	-0.357	0.055
-131.341	-8.568	-0.166	-0.111
-130.326	56.902	0.166	0.161
-129.312	800.000	0.073	0.205
-128.297	79.445	0.487	0.520
-127.283	-112.125	0.253	-0.051
-126.268	46.661	-0.197	0.182
-125.253	-6.971	0.108	0.073
-124.239	-6.054	0.091	-0.062
-123.224	-200.000	-0.009	0.042
-122.210	611.758	-0.194	0.482
-121.195	36.583	0.360	0.317
-120.180	-97.058	0.227	0.059
-119.166	-88.120	-0.089	-0.027
-118.151	800.000	0.085	-0.257
-117.137	-138.650	0.350	-0.038
-116.122	26.192	-0.493	0.410
-115.107	-0.080	0.286	-0.203
-114.093	800.000	-0.071	-0.308
-113.078	120.023	-0.116	-0.144
-112.064	139.627	-0.045	0.059
-111.049	138.320	-0.110	-0.143
-110.034	-200.000	-0.021	-0.159
-109.020	219.368	-0.132	-0.210
-108.005	-111.117	0.535	0.109
-106.991	-200.000	-0.022	-0.171
-105.976	800.000	0.075	0.208
-104.962	99.570	0.244	0.281
-103.947	-141.271	-0.125	0.013
-102.932	209.956	0.053	-0.082
-101.918	-64.342	-0.214	-0.087
-100.903	274.271	0.199	0.350
-99.889	20.076	0.087	-0.070
-98.874	-47.375	-0.162	-0.079
-97.859	62.099	-0.054	-0.054
-96.845	-200.000	0.003	0.103
-95.830	152.630	0.067	-0.091
-94.816	-200.000	0.061	0.000
-93.801	-133.833	0.116	0.014
-92.786	164.989	0.138	0.194
-91.772	-137.601	-0.255	-0.029
-90.757	800.000	0.043	-0.128
-89.743	-53.954	-0.232	0.105
-88.728	74.877	-0.251	-0.263
-87.713	-38.984	-0.186	0.097
-86.699	415.039	-0.055	0.116
-85.684	-16.127	0.350	0.221
-84.670	217.475	-0.122	-0.193
-83.655	55.786	-0.217	-0.209
-82.640	200.094	0.103	0.158
-81.626	91.808	-0.223	-0.250
-80.611	-112.260	0.183	-0.037
-79.597	800.000	0.071	-0.267
-78.582	-200.000	-0.011	-0.135
-77.567	163.255	0.107	0.150
-76.553	-59.512	-0.080	-0.034
-75.538	-17.570	0.362	0.226
-74.524	204.908	-0.111	-0.170
-73.509	-176.572	0.339	-0.009
-72.494	26.669	-0.209	-0.174
-71.480	-200.000	0.006	0.231
-70.465	-95.480	-0.315	0.084
-69.451	711.200	0.143	-0.376
-68.436	32.159	-0.252	0.216
-67.422	88.929	0.208	0.230
-66.407	29.372	0.194	-0.163
-65.392	-200.000	0.005	-0.021
-64.378	-82.392	-0.073	0.024
-63.363	-178.466	-0.363	-0.008
-62.349	260.653	-0.110	0.189
-61.334	-68.895	-1.098	-0.421
-60.319	-109.054	0.375	0.079
-59.305	-200.000	0.144	-0.977
-58.290	-200.000	0.116	0.775
-57.276	800.000	0.443	1.629
-56.261	-200.000	86.058	502.906
-55.246	538.428	1385.590	3271.405
-54.232	178.097	2640.162	3825.379
-53.217	117.450	2281.214	2786.383
-52.203	47.731	1807.041	1674.749
-51.188	40.863	1612.793	1444.953
-50.173	38.534	1584.398	1402.791
-49.159	54.930	1628.585	1561.263
-48.144	59.047	1647.965	1609.671
-47.130	41.283	1608.441	1443.872
-46.115	38.114	1592.656	1406.855
-45.100	38.073	1588.962	1403.245
-44.086	37.996	1587.522	1401.360
-43.071	37.820	1585.602	1398.348
-42.057	37.853	1583.458	1396.638
-41.042	37.871	1581.994	1395.424
-40.027	37.822	1580.515	1393.709
-39.013	37.861	1579.224	1392.793
-37.998	37.823	1577.718	1391.143
-36.984	37.836	1576.685	1390.265
-35.969	37.917	1575.156	1389.442
-34.954	37.967	1573.539	1388.315
-33.940	37.861	1572.330	1386.440
-32.925	37.905	1570.968	1385.493
-31.911	37.883	1569.739	1384.200
-30.896	37.951	1568.190	1383.261
-29.881	37.969	1566.548	1381.887
-28.867	37.940	1565.334	1380.555
-27.852	38.010	1563.734	1379.584
-26.838	37.888	1562.397	1377.490
-25.823	37.844	1560.807	1375.720
-24.809	37.841	1558.803	1373.877
-23.794	37.885	1557.425	1372.920
-22.779	37.899	1556.647	1372.281
-21.765	37.913	1555.230	1371.075
-20.750	38.012	1553.930	1370.569
-19.736	37.960	1553.005	1369.332
-18.721	37.884	1551.650	1367.548
-17.706	37.828	1550.335	1365.945
-16.692	37.957	1549.115	1365.717
-15.677	37.852	1548.307	1364.218
-14.663	37.857	1547.109	1363.146
-13.648	37.810	1546.529	1362.246
-12.633	37.878	1544.781	1361.128
-11.619	37.798	1544.488	1360.260
-10.604	37.894	1543.194	1359.735
-9.590	37.825	1542.309	1358.418
-8.575	37.823	1541.262	1357.434
-7.560	37.808	1540.568	1356.664
-6.546	37.829	1539.766	1356.051
-5.531	37.796	1538.728	1354.850
-4.517	37.760	1537.925	1353.840
-3.502	37.892	1536.695	1353.617
-2.487	37.735	1535.800	1351.688
-1.473	37.750	1534.748	1350.809
-0.458	37.792	1532.839	1349.371
0.556	35.323	1522.373	1337.403
1.571	32.002	1493.713	1289.343
2.586	27.971	1427.261	1205.342
3.600	26.069	1341.460	1120.978
4.615	24.758	1293.952	1073.325
5.629	21.851	1236.055	1008.517
6.644	11.440	1143.781	877.458
7.659	1.722	1095.436	790.060
8.673	-0.078	1088.200	775.485
9.688	-0.279	1085.163	772.218
10.702	-0.400	1083.847	770.591
11.717	-0.342	1081.744	769.327
12.731	4.018	1087.800	796.021
13.746	13.852	1102.357	857.627
14.761	17.637	1106.430	880.314
15.775	15.096	1101.332	863.096
16.790	13.980	1098.827	855.313
17.804	13.536	1097.905	852.239
18.819	13.361	1096.719	850.342
19.834	13.318	1096.201	849.645
20.848	13.272	1095.403	848.713
21.863	13.155	1094.652	847.458
22.877	13.184	1094.124	847.121
23.892	13.038	1093.402	845.742
24.907	12.923	1092.835	844.640
25.921	13.061	1091.841	844.500
26.936	13.073	1091.383	844.132
27.950	13.028	1090.290	842.982
28.965	13.126	1088.479	842.006
29.980	12.992	1087.369	840.394
30.994	12.977	1085.656	838.919
32.009	12.975	1084.666	838.070
33.023	13.019	1083.534	837.343
34.038	13.064	1082.323	836.560
35.053	13.023	1081.667	835.775
36.067	13.065	1080.563	835.059
37.082	13.096	1079.580	834.381
38.096	13.000	1078.951	833.335
39.111	13.191	1077.828	833.357
40.126	13.151	1076.529	832.078
41.140	13.097	1075.734	831.118
42.155	13.006	1074.663	829.760
43.169	12.910	1073.430	828.253
44.184	12.953	1072.076	827.351
45.199	13.046	1071.101	826.994
46.213	12.986	1070.119	825.860
47.228	13.106	1068.858	825.413
48.242	12.953	1067.491	823.520
49.257	12.976	1066.232	822.593
50.271	13.056	1065.341	822.230
51.286	13.041	1064.321	821.295
52.301	12.833	1063.699	819.710
53.315	12.951	1063.043	819.717
54.330	13.002	1061.773	818.919
55.344	13.012	1060.835	818.174
56.359	13.085	1059.474	817.409
57.374	13.094	1058.625	816.730
58.388	13.072	1057.603	815.760
59.403	12.805	1057.429	814.233
60.417	12.924	1056.190	813.794
61.432	12.868	1055.540	812.946
62.447	12.964	1054.698	812.700
63.461	13.041	1053.390	811.998
64.476	12.966	1052.927	811.201
65.490	13.111	1051.499	810.740
66.505	12.972	1050.680	809.357
67.520	13.013	1049.490	808.565
68.534	13.078	1049.139	808.543
69.549	12.985	1048.241	807.323
70.563	12.970	1047.238	806.406
71.578	12.908	1046.498	805.464
72.593	12.984	1045.714	805.161
73.607	12.977	1044.495	804.117
74.622	12.916	1044.000	803.368
75.636	12.997	1043.076	802.979
76.651	13.002	1042.211	802.269
77.666	12.971	1041.159	801.236
78.680	13.120	1040.249	801.188
79.695	12.870	1040.293	799.935
80.709	12.957	1039.233	799.474
81.724	12.934	1038.595	798.798
82.739	12.960	1037.477	797.997
83.753	12.927	1036.623	797.109
84.768	13.027	1035.888	796.957
85.782	13.150	1034.683	796.549
86.797	13.080	1033.571	795.289
87.812	13.229	1033.078	795.553
88.826	13.075	1031.887	793.826
89.841	13.046	1030.661	792.675
90.855	13.028	1030.479	792.378
91.870	13.054	1029.326	791.544
92.884	13.094	1028.367	790.927
93.899	13.096	1027.318	790.062
94.914	13.122	1026.538	789.515
95.928	13.118	1025.970	788.991
96.943	13.151	1024.966	788.309
97.957	13.064	1024.081	787.141
98.972	13.050	1023.244	786.361
99.987	12.893	1022.435	784.921
101.001	12.977	1021.656	784.655
102.016	13.055	1020.521	784.084
103.030	13.060	1019.937	783.590
104.045	12.925	1018.766	781.982
105.060	12.874	1017.734	780.878
106.074	12.900	1016.237	779.786
107.089	12.964	1015.858	779.725
108.103	13.045	1015.154	779.500
109.118	13.145	1013.918	778.954
110.133	13.060	1013.074	777.837
111.147	12.993	1012.288	776.849
112.162	12.943	1011.457	775.905
113.176	13.079	1009.747	775.165
114.191	13.008	1008.935	774.137
115.206	13.050	1007.754	773.360
116.220	12.962	1006.847	772.183
117.235	12.940	1006.018	771.378
118.249	13.008	1005.179	770.986
119.264	13.061	1004.004	770.260
120.279	13.036	1002.996	769.305
121.293	12.898	1002.597	768.284
122.308	13.039	1001.545	768.069
123.322	12.969	1000.644	766.985
124.337	12.941	999.647	766.025
125.352	12.994	998.146	765.052
126.366	12.857	996.699	763.241
127.381	12.899	995.431	762.395
128.395	12.970	994.587	762.010
129.410	13.138	993.351	761.770
130.424	12.995	992.599	760.466
131.439	13.032	991.470	759.707
132.454	13.054	990.400	758.919
133.468	12.997	989.546	757.936
134.483	13.000	988.586	757.149
135.497	13.042	988.426	757.150
136.512	13.120	987.470	756.707
137.527	13.161	986.166	755.828
138.541	13.121	985.261	754.887
139.556	13.067	984.709	754.152
140.570	13.164	983.683	753.741
141.585	13.136	982.985	753.012
142.600	13.094	982.280	752.213
143.614	13.058	981.072	751.058
144.629	13.094	980.422	750.657
145.643	13.129	979.750	750.237
146.658	13.156	978.342	749.213
147.673	13.035	977.776	748.163
148.687	13.011	976.324	746.877
149.702	13.013	975.489	746.182
150.716	13.022	974.930	745.732
151.731	12.991	973.693	744.578
152.746	12.959	972.952	743.803
153.760	13.112	972.233	743.873
154.775	13.025	971.466	742.831
155.789	13.082	970.540	742.312
156.804	13.154	969.354	741.664
157.819	13.048	968.553	740.510
158.833	13.043	968.114	740.085
159.848	13.092	967.574	739.829
160.862	13.150	966.043	738.849
161.877	13.045	965.607	737.982
162.892	13.053	964.823	737.354
163.906	13.131	963.700	736.778
164.921	13.090	963.046	736.031
165.935	13.184	962.292	735.807
166.950	13.040	961.367	734.394
167.964	13.098	959.881	733.454
168.979	13.083	958.777	732.477
169.994	13.135	957.752	731.862
171.008	13.073	956.911	730.881
172.023	13.059	955.996	730.052
173.037	13.213	955.252	730.098
174.052	13.056	954.069	728.440
175.067	13.071	953.499	728.005
176.081	12.988	952.834	727.069
177.096	13.141	951.583	726.720
178.110	13.158	950.646	726.016
179.125	13.014	950.248	725.016
180.140	13.051	949.049	724.199
181.154	12.982	948.485	723.402
182.169	13.148	947.585	723.380
183.183	13.128	946.759	722.597
184.198	13.228	946.201	722.546
185.213	13.192	945.285	721.625
186.227	13.129	944.945	721.025
187.242	13.257	944.007	720.803
188.256	13.193	943.612	720.161
189.271	13.186	942.172	718.968
190.286	13.182	941.661	718.494
191.300	13.171	940.948	717.842
192.315	13.200	940.250	717.370
193.329	13.084	939.541	716.260
194.344	12.907	939.116	715.109
195.359	13.162	938.402	715.605
196.373	13.166	938.184	715.395
197.388	13.326	936.935	715.068
198.402	13.297	936.260	714.364
199.417	13.033	935.917	712.902
200.432	13.023	935.538	712.507
201.446	13.203	934.593	712.499
202.461	13.201	933.823	711.838
203.475	13.029	933.731	710.966
204.490	13.141	932.798	710.675
205.504	13.106	931.286	709.312
206.519	13.040	931.098	708.819
207.534	13.230	930.370	709.020
208.548	13.074	929.776	707.834
209.563	13.155	928.930	707.474
210.577	13.235	928.248	707.236
211.592	13.131	927.746	706.346
212.607	13.282	926.852	706.247
213.621	13.198	925.929	705.123
214.636	13.250	925.578	705.016
215.650	13.343	924.782	704.743
216.665	13.245	924.356	703.938
217.680	13.328	923.713	703.739
218.694	13.287	922.912	702.892
219.709	13.334	922.436	702.668
220.723	13.254	921.288	701.390
221.738	13.306	920.943	701.288
222.753	13.239	920.181	700.360
223.767	13.208	919.473	699.628
224.782	13.380	918.554	699.594
225.796	13.376	917.173	698.463
226.811	13.340	916.915	698.056
227.826	13.319	916.260	697.405
228.840	13.333	915.550	696.862
229.855	13.235	914.800	695.817
230.869	13.386	914.259	695.981
231.884	13.373	912.873	694.808
232.899	13.280	912.718	694.237
233.913	13.280	911.905	693.560
234.928	13.409	910.891	693.268
235.942	13.521	910.376	693.280
236.957	13.440	909.529	692.235
237.972	13.406	908.770	691.457
238.986	13.417	907.939	690.810
240.001	13.537	907.132	690.634
241.015	13.399	906.763	689.717
242.030	13.423	906.146	689.287
243.045	13.306	905.696	688.394
244.059	13.371	904.739	687.879
245.074	13.512	904.148	687.953
246.088	13.604	903.034	687.426
247.103	13.390	903.072	686.506
248.117	13.457	901.872	685.810
249.132	13.419	901.163	685.053
250.147	13.510	900.791	685.086
251.161	13.576	899.961	684.668
252.176	13.526	898.885	683.584
253.190	13.532	898.443	683.211
254.205	13.658	897.428	682.897
255.220	13.588	897.270	682.430
256.234	13.552	896.371	681.537
257.249	13.527	895.433	680.658
258.263	13.601	895.144	680.683
259.278	13.557	894.418	679.893
260.293	13.555	893.825	679.372
261.307	13.464	893.389	678.609
262.322	13.610	892.385	678.385
263.336	13.552	891.804	677.643
264.351	13.521	891.292	677.068
265.366	13.757	889.756	676.804
266.380	13.624	889.540	676.037
267.395	13.577	889.108	675.458
268.409	13.542	888.375	674.700
269.424	13.599	887.414	674.143
270.439	13.571	886.723	673.441
271.453	13.521	886.121	672.724
272.468	13.718	885.019	672.628
273.482	13.712	884.396	672.070
274.497	13.716	883.758	671.538
275.512	13.682	882.642	670.496
276.526	13.798	881.832	670.288
277.541	13.730	881.239	669.507
278.555	13.629	880.917	668.793
279.570	13.653	880.214	668.297
280.585	13.793	879.405	668.189
281.599	13.682	878.823	667.239
282.614	13.726	878.168	666.860
283.628	13.653	877.262	665.821
284.643	13.659	876.904	665.513
285.657	13.769	876.498	665.587
286.672	13.671	875.665	664.503
287.687	13.865	875.004	664.721
288.701	13.777	874.449	663.887
289.716	13.691	874.301	663.372
290.730	13.838	873.321	663.158
291.745	13.799	872.616	662.409
292.760	13.858	871.861	662.013
293.774	13.797	871.157	661.176
294.789	13.881	870.660	661.075
295.803	13.860	869.610	660.136
296.818	13.850	868.972	659.553
297.833	13.863	868.319	659.052
298.847	13.739	867.466	657.855
299.862	14.000	866.314	657.953
300.876	13.741	866.186	656.776
301.891	13.743	865.524	656.220
302.906	13.920	864.681	656.225
303.920	13.892	863.826	655.406
304.935	13.843	863.607	654.990
305.949	13.878	862.817	654.468
306.964	13.912	861.770	653.753
307.979	13.789	861.567	653.054
308.993	13.892	860.702	652.747
310.008	13.847	860.054	652.023
311.022	13.881	859.794	651.900
312.037	13.944	859.464	651.841
313.052	13.884	858.773	651.023
314.066	13.894	857.856	650.309
315.081	14.044	857.774	650.776
316.095	14.035	857.048	650.132
317.110	13.845	856.687	649.056
318.125	13.775	855.841	648.086
319.139	13.956	855.280	648.310
320.154	14.118	854.722	648.463
321.168	14.016	854.730	648.011
322.183	14.098	853.746	647.529
323.197	14.122	852.749	646.809
324.212	14.007	852.567	646.165
325.227	14.037	851.967	645.772
326.241	14.012	851.019	644.901
327.256	13.938	850.525	644.180
328.270	13.971	850.127	643.950
329.285	13.933	849.736	643.450
330.300	14.064	848.724	643.135
331.314	13.932	848.061	642.065
332.329	14.008	847.531	641.899
333.343	14.019	847.049	641.521
334.358	13.929	846.442	640.655
335.373	14.119	845.529	640.639
336.387	13.963	845.269	639.785
337.402	13.918	844.800	639.201
338.416	13.991	843.728	638.615
339.431	14.053	843.305	638.477
340.446	13.939	842.715	637.534
341.460	13.956	841.874	636.906
342.475	13.935	841.551	636.526
343.489	13.883	841.158	635.974
344.504	13.968	840.568	635.797
345.519	13.992	839.436	634.976
346.533	14.013	839.330	634.921
347.548	13.882	838.964	634.086
348.562	14.101	837.930	634.084
349.577	14.024	837.558	633.451
350.592	13.901	837.419	632.824
351.606	13.932	836.767	632.393
352.621	14.043	835.980	632.163
353.635	13.955	835.909	631.720
354.650	13.903	835.907	631.464
355.665	14.081	835.317	631.638
356.679	14.322	834.907	632.187
357.694	14.398	833.960	631.704
358.708	14.237	832.961	630.280
359.723	14.218	832.497	629.801
360.738	14.180	831.990	629.217
361.752	14.167	831.413	628.678
362.767	14.070	831.032	627.968
363.781	13.989	830.409	627.135
364.796	13.971	830.155	626.820
365.810	13.925	829.520	626.112
366.825	14.082	828.877	626.163
367.840	14.032	828.499	625.634
368.854	13.968	828.337	625.214
369.869	14.270	827.525	625.680
370.883	14.114	827.245	624.830
371.898	14.051	826.411	623.908
372.913	14.050	826.028	623.560
373.927	14.179	825.394	623.507
374.942	14.238	824.269	622.825
375.956	14.013	824.042	621.756
376.971	14.173	823.492	621.885
377.986	14.202	822.913	621.500
379.000	14.140	822.043	620.556
380.015	14.258	821.417	620.470
381.029	14.187	821.384	620.124
382.044	14.109	820.880	619.398
383.059	14.148	819.793	618.670
384.073	14.129	819.469	618.300
385.088	14.100	818.818	617.644
386.102	14.191	817.876	617.219
387.117	14.104	817.725	616.728
388.132	14.171	816.920	616.314
389.146	14.195	816.799	616.257
390.161	14.457	816.549	616.982
391.175	14.427	815.968	616.380
392.190	14.218	815.607	615.277
393.205	14.191	815.625	615.136
394.219	14.537	815.405	616.196
395.234	15.087	815.181	618.001
396.248	15.202	814.588	617.923
397.263	14.901	813.937	616.263
398.278	14.287	812.663	612.985
399.292	14.285	811.917	612.363
400.307	14.264	811.822	612.159
401.321	14.474	811.319	612.496
402.336	14.273	810.961	611.433
403.350	14.077	810.390	610.228
404.365	14.069	809.758	609.672
405.380	14.104	809.638	609.657
406.394	14.047	808.679	608.670
407.409	13.876	807.983	607.468
408.423	13.853	807.687	607.107
409.438	14.031	807.184	607.325
410.453	14.005	806.529	606.685
411.467	14.017	806.024	606.295
412.482	14.110	805.452	606.150
413.496	14.001	805.342	605.617
414.511	14.109	804.669	605.448
415.526	14.025	804.181	604.721
416.540	14.112	803.626	604.567
417.555	14.099	803.529	604.393
418.569	14.138	803.264	604.282
419.584	14.154	802.522	603.729
420.599	14.301	802.077	603.875
421.613	150.459	1355.942	1777.906
422.628	130.585	1436.665	1778.036
