DTS Sentinel unit serial number:	SN413079Multiplexer serial number:	ORYXHardware model number:	OX4-SRSoftware version number:	ORYX F/W v4.00 Oryx Data Collector v3.7.2.0data status	okinstallation	princeton_trtdifferential loss correction	single-endedforward channel	channel 3reverse channel	N/Adate	2019/09/13time	16:08:34forward acquisition time	60.00reverse acquisition time	0.00gamma	496.2192k internal	0.2304k external	0.2304temperature offset calibration	1.0142default loss term (dB/km)	0.3790temperature slope calibration	1.0000multiplexer offset coefficient	1.0000multiplexer slope coefficient	1.0000fibre end	0.00T internal ref (°C)	34.75T ext. ref 1 (°C)	4.84T ext. ref 2 (°C)	31.52length (m)	temperature (°C)	Stokes	anti-Stokes-747.200	145.455	-0.185	-0.252
-746.185	800.000	-0.054	-0.196
-745.171	800.000	0.029	0.090
-744.156	-200.000	-0.004	0.169
-743.142	-200.000	-0.047	0.210
-742.127	-33.294	-0.386	0.217
-741.112	-200.000	-0.061	-0.447
-740.098	-97.056	-0.297	0.079
-739.083	-44.299	-0.296	-0.151
-738.069	106.718	0.169	0.205
-737.054	114.724	0.139	-0.173
-736.039	-44.701	-0.363	0.184
-735.025	507.326	0.156	0.367
-734.010	-17.868	0.170	0.109
-732.996	50.652	-0.288	-0.277
-731.981	23.033	-0.108	0.090
-730.966	-200.000	-0.048	-0.363
-729.952	729.995	0.167	-0.454
-728.937	100.992	-0.202	-0.239
-727.923	-183.605	-0.395	-0.007
-726.908	494.514	0.156	-0.364
-725.894	-52.298	-0.393	-0.185
-724.879	-42.414	-0.068	-0.035
-723.864	78.765	-0.016	-0.017
-722.850	-129.937	-0.218	0.030
-721.835	-93.466	0.076	-0.021
-720.821	-56.834	-0.137	0.062
-719.806	45.275	-0.200	-0.188
-718.791	593.460	0.106	-0.267
-717.777	-5.669	-0.123	0.086
-716.762	-64.984	0.101	-0.042
-715.748	-129.577	-0.208	0.029
-714.733	-105.665	0.297	0.068
-713.718	-177.028	0.549	0.014
-712.704	26.062	-0.155	-0.132
-711.689	-47.359	0.238	-0.118
-710.675	56.561	0.160	-0.158
-709.660	128.792	-0.272	0.353
-708.645	751.375	-0.082	0.225
-707.631	-200.000	0.019	-0.344
-706.616	242.880	0.065	-0.111
-705.602	800.000	0.089	0.352
-704.587	-200.000	0.029	-0.305
-703.572	-200.000	0.023	0.259
-702.558	-60.623	-0.103	-0.044
-701.543	40.088	-0.231	0.211
-700.529	-132.019	0.481	-0.064
-699.514	-200.000	0.042	0.373
-698.499	311.478	0.076	0.144
-697.485	-21.477	-0.132	-0.082
-696.470	67.162	0.158	-0.163
-695.456	523.558	-0.010	-0.023
-694.441	174.229	0.140	0.206
-693.426	151.858	0.106	-0.147
-692.412	-59.514	-0.407	-0.178
-691.397	-60.325	0.210	-0.091
-690.383	-155.598	-0.207	0.014
-689.368	-30.579	-0.269	0.155
-688.354	-99.278	-0.235	0.060
-687.339	102.119	-0.182	-0.216
-686.324	232.043	-0.370	-0.617
-685.310	-8.318	0.207	-0.141
-684.295	69.121	-0.203	-0.212
-683.281	306.112	-0.021	-0.040
-682.266	189.882	-0.188	-0.286
-681.251	138.786	-0.247	-0.329
-680.237	208.253	0.118	0.188
-679.222	-52.901	-0.117	0.055
-678.208	-117.025	0.334	-0.062
-677.193	360.240	0.062	0.127
-676.178	157.725	0.093	-0.130
-675.164	-126.019	-0.379	-0.058
-674.149	-77.867	0.253	0.089
-673.135	-79.992	-0.271	0.092
-672.120	-200.000	0.015	-0.182
-671.105	555.695	-0.073	-0.178
-670.091	55.672	-0.104	-0.102
-669.076	800.000	0.016	-0.048
-668.062	-200.000	-0.007	-0.216
-667.047	146.421	-0.159	-0.216
-666.032	-78.241	0.077	-0.027
-665.018	800.000	-0.109	0.310
-664.003	127.812	-0.251	0.324
-662.989	282.644	0.212	-0.386
-661.974	143.188	0.179	-0.241
-660.959	126.337	0.172	0.220
-659.945	190.498	0.195	-0.297
-658.930	-13.310	-0.123	0.081
-657.916	203.773	-0.006	-0.009
-656.901	800.000	-0.037	-0.162
-655.886	-200.000	-0.046	-0.302
-654.872	80.290	-0.230	-0.251
-653.857	47.415	0.148	0.140
-652.843	-111.922	0.138	-0.028
-651.828	-200.000	-0.062	-0.374
-650.814	-127.950	-0.216	0.031
-649.799	800.000	-0.083	0.321
-648.784	282.176	0.106	-0.192
-647.770	-17.038	-0.184	-0.118
-646.755	-15.372	0.183	-0.118
-645.741	-75.721	-0.116	-0.042
-644.726	800.000	-0.048	0.150
-643.711	49.961	-0.070	-0.067
-642.697	-200.000	-0.002	0.202
-641.682	800.000	-0.020	-0.085
-640.668	192.091	-0.149	-0.228
-639.653	-65.856	-0.287	0.117
-638.638	-200.000	0.047	-0.339
-637.624	-200.000	0.021	0.391
-636.609	-175.444	-0.282	-0.008
-635.595	-94.223	0.246	-0.068
-634.580	-85.430	0.082	-0.026
-633.565	-42.081	-0.132	-0.069
-632.551	-36.582	0.204	-0.111
-631.536	-24.555	-0.140	-0.085
-630.522	-30.554	-0.302	-0.174
-629.507	-16.585	-0.167	0.107
-628.492	612.590	0.067	0.170
-627.478	258.573	0.029	0.050
-626.463	27.732	-0.208	0.178
-625.449	4.337	0.102	-0.076
-624.434	-158.036	-0.201	-0.012
-623.419	232.656	-0.081	-0.135
-622.405	-200.000	-0.006	0.120
-621.390	-68.105	-0.229	-0.090
-620.376	-38.753	0.270	-0.144
-619.361	-187.919	0.157	-0.002
-618.346	-30.710	-0.321	-0.184
-617.332	435.233	0.082	0.182
-616.317	-53.059	0.202	-0.094
-615.303	6.664	0.199	0.150
-614.288	-6.268	0.164	-0.113
-613.273	-42.062	0.255	-0.132
-612.259	-200.000	0.012	0.128
-611.244	-200.000	0.047	-0.222
-610.230	-106.771	0.188	0.042
-609.215	-91.783	-0.130	0.037
-608.201	777.228	-0.027	0.074
-607.186	73.907	-0.367	0.390
-606.171	203.812	0.183	-0.286
-605.157	-136.205	-0.330	-0.039
-604.142	404.054	-0.050	-0.106
-603.128	-74.619	0.170	-0.062
-602.113	-60.169	-0.114	-0.049
-601.098	-162.785	-0.305	-0.015
-600.084	-200.000	0.032	0.221
-599.069	246.337	-0.219	-0.373
-598.055	173.477	-0.045	-0.066
-597.040	-8.152	-0.182	-0.124
-596.025	352.415	0.136	-0.273
-595.011	-49.165	0.170	-0.082
-593.996	-52.960	-0.174	0.081
-592.982	39.375	0.053	0.048
-591.967	-200.000	0.001	0.169
-590.952	564.494	0.010	-0.024
-589.938	381.418	-0.086	-0.180
-588.923	170.994	-0.010	0.015
-587.909	-32.231	-0.237	0.134
-586.894	203.487	-0.093	0.146
-585.879	331.406	0.101	0.197
-584.865	800.000	-0.093	-0.344
-583.850	-34.575	0.133	0.074
-582.836	8.436	-0.126	0.096
-581.821	222.753	0.127	0.207
-580.806	402.616	0.036	-0.076
-579.792	-200.000	0.482	-0.001
-578.777	42.228	-0.178	0.164
-577.763	489.085	-0.050	-0.116
-576.748	159.353	0.231	-0.326
-575.733	174.505	-0.091	0.133
-574.719	-200.000	0.014	-0.094
-573.704	283.422	-0.057	-0.104
-572.690	145.520	0.150	-0.203
-571.675	-129.421	0.064	-0.009
-570.661	-200.000	0.003	0.177
-569.646	-176.569	0.236	0.006
-568.631	-200.000	0.066	0.360
-567.617	-200.000	-0.007	-0.171
-566.602	-146.063	-0.165	0.015
-565.588	-160.138	-0.264	-0.014
-564.573	-200.000	-0.032	-0.171
-563.558	10.232	-0.141	-0.108
-562.544	102.815	-0.097	-0.114
-561.529	800.000	-0.012	0.048
-560.515	-42.421	0.091	-0.047
-559.500	-107.399	-0.373	0.083
-558.485	368.612	-0.112	-0.228
-557.471	800.000	-0.030	0.110
-556.456	630.986	0.048	-0.124
-555.442	-24.909	-0.183	-0.110
-554.427	462.829	-0.047	-0.106
-553.412	-39.281	-0.446	0.237
-552.398	-200.000	-0.035	-0.219
-551.383	-142.176	0.100	0.010
-550.369	-0.856	-0.174	-0.125
-549.354	-200.000	0.083	-0.409
-548.339	6.366	0.300	-0.225
-547.325	-110.488	-0.133	-0.028
-546.310	-200.000	0.026	0.468
-545.296	-173.974	0.203	-0.006
-544.281	800.000	-0.033	0.115
-543.266	-161.868	-0.291	0.015
-542.252	-200.000	-0.071	-0.415
-541.237	800.000	-0.127	-0.430
-540.223	-200.000	0.067	-0.306
-539.208	-200.000	-0.004	0.029
-538.193	281.455	0.055	-0.099
-537.179	-200.000	0.024	0.135
-536.164	180.303	0.080	-0.118
-535.150	-47.908	-0.359	0.175
-534.135	-112.053	-0.342	-0.070
-533.121	-109.948	0.119	0.025
-532.106	800.000	-0.038	0.116
-531.091	-145.968	0.326	0.029
-530.077	-89.219	0.235	0.070
-529.062	8.044	-0.123	-0.093
-528.048	28.886	-0.272	-0.232
-527.033	236.066	-0.140	0.234
-526.018	-122.215	-0.332	-0.055
-525.004	-128.947	-0.176	-0.025
-523.989	105.002	0.045	0.053
-522.975	-200.000	0.010	-0.102
-521.960	354.116	-0.063	-0.126
-520.945	83.794	0.149	0.164
-519.931	-200.000	-0.048	-0.239
-518.916	800.000	0.140	-0.461
-517.902	772.731	-0.090	0.248
-516.887	667.156	0.084	0.219
-515.872	451.271	0.178	0.397
-514.858	-183.089	-0.254	-0.005
-513.843	50.942	-0.151	-0.144
-512.829	8.059	-0.210	0.159
-511.814	59.666	-0.016	-0.016
-510.799	244.143	0.207	0.351
-509.785	446.892	-0.075	0.167
-508.770	30.690	0.042	-0.036
-507.756	-200.000	0.005	0.136
-506.741	-25.866	0.374	0.222
-505.726	-16.937	-0.279	-0.177
-504.712	800.000	0.079	-0.245
-503.697	61.089	-0.163	-0.164
-502.683	800.000	0.027	0.085
-501.668	800.000	-0.034	-0.126
-500.653	-124.554	0.340	0.053
-499.639	325.844	-0.141	-0.273
-498.624	185.717	0.062	-0.092
-497.610	800.000	-0.034	0.118
-496.595	101.871	-0.107	0.126
-495.581	42.971	0.274	-0.251
-494.566	-4.450	0.210	-0.146
-493.551	800.000	0.114	0.325
-492.537	258.831	0.141	0.244
-491.522	9.795	-0.188	-0.143
-490.508	328.921	0.072	0.139
-489.493	32.905	-0.272	0.238
-488.478	-60.356	-0.091	0.039
-487.464	-8.243	-0.179	-0.121
-486.449	341.856	-0.162	0.319
-485.435	39.085	0.040	-0.036
-484.420	800.000	-0.100	0.296
-483.405	800.000	0.025	0.090
-482.391	62.814	0.195	-0.197
-481.376	-109.564	0.191	0.041
-480.362	108.171	0.172	0.207
-479.347	-17.670	0.072	0.045
-478.332	-111.074	0.032	0.007
-477.318	-94.351	-0.190	-0.052
-476.303	86.855	0.265	-0.295
-475.289	-200.000	-0.036	-0.418
-474.274	293.633	0.123	0.226
-473.259	-39.621	0.368	-0.194
-472.245	800.000	-0.051	0.189
-471.230	-129.384	-0.326	0.046
-470.216	-165.366	-0.321	-0.014
-469.201	-112.663	0.212	0.043
-468.186	-41.583	0.175	0.091
-467.172	800.000	0.100	0.388
-466.157	-16.981	-0.159	-0.101
-465.143	34.349	-0.215	-0.189
-464.128	44.411	-0.136	0.125
-463.113	-200.000	-0.001	0.185
-462.099	800.000	-0.024	-0.069
-461.084	-153.657	0.056	0.004
-460.070	800.000	-0.089	-0.280
-459.055	16.906	0.183	0.146
-458.040	-200.000	0.003	-0.118
-457.026	-73.697	-0.118	-0.043
-456.011	-111.643	0.230	0.047
-454.997	288.020	-0.120	-0.218
-453.982	-62.899	0.020	0.009
-452.968	-30.092	0.172	0.099
-451.953	130.562	0.067	0.086
-450.938	-8.242	-0.202	0.137
-449.924	-200.000	-0.087	0.411
-448.909	161.634	0.329	0.464
-447.895	183.915	-0.133	0.197
-446.880	-100.893	0.155	-0.038
-445.865	-62.504	-0.334	0.139
-444.851	234.399	0.162	-0.269
-443.836	-32.039	-0.127	-0.072
-442.822	-59.491	0.100	0.043
-441.807	147.258	0.086	-0.117
-440.792	-86.012	-0.210	0.065
-439.778	-31.903	0.271	-0.153
-438.763	-62.949	0.190	-0.079
-437.749	475.535	-0.032	-0.073
-436.734	-166.543	0.318	-0.013
-435.719	252.881	-0.089	0.152
-434.705	28.462	-0.122	-0.103
-433.690	88.045	-0.058	-0.065
-432.676	-200.000	-0.023	-0.230
-431.661	-39.477	-0.177	0.093
-430.646	92.953	-0.112	-0.127
-429.632	339.312	0.141	0.277
-428.617	-123.981	0.420	0.066
-427.603	143.969	0.116	0.155
-426.588	736.175	-0.105	-0.282
-425.573	230.232	0.046	0.076
-424.559	84.986	0.196	-0.216
-423.544	800.000	0.024	-0.072
-422.530	-28.185	-0.176	0.102
-421.515	567.417	-0.206	-0.502
-420.500	800.000	-0.107	0.327
-419.486	-152.197	0.211	-0.015
-418.471	267.614	-0.234	-0.412
-417.457	118.768	-0.140	-0.173
-416.442	-200.000	0.024	0.126
-415.428	222.687	-0.201	-0.325
-414.413	323.716	0.146	-0.281
-413.398	-186.237	-0.230	-0.003
-412.384	117.685	0.134	0.165
-411.369	-200.000	0.030	-0.154
-410.355	-166.951	0.129	-0.005
-409.340	59.204	0.352	0.349
-408.325	-56.192	0.046	-0.021
-407.311	341.497	-0.081	0.160
-406.296	-30.893	0.327	0.186
-405.282	500.525	0.103	0.239
-404.267	800.000	0.035	-0.140
-403.252	-45.719	-0.142	0.070
-402.238	-51.164	0.185	-0.087
-401.223	-35.229	0.356	0.195
-400.209	800.000	0.015	0.046
-399.194	44.876	-0.207	-0.192
-398.179	800.000	0.049	0.188
-397.165	13.648	0.265	-0.207
-396.150	-66.763	-0.038	0.015
-395.136	-200.000	0.017	0.261
-394.121	106.935	0.128	0.153
-393.106	-2.557	0.123	0.086
-392.092	197.873	-0.098	-0.151
-391.077	800.000	-0.020	0.067
-390.063	-57.621	-0.048	-0.021
-389.048	-89.009	-0.120	-0.036
-388.033	-98.674	-0.261	-0.067
-387.019	332.779	0.072	0.139
-386.004	-166.002	-0.236	0.010
-384.990	85.856	-0.093	-0.103
-383.975	-124.621	0.262	0.041
-382.960	715.309	0.030	0.081
-381.946	-200.000	0.036	-0.327
-380.931	-69.027	0.397	-0.154
-379.917	61.249	0.132	0.132
-378.902	-80.174	0.362	0.122
-377.888	-154.220	-0.162	0.011
-376.873	-106.753	-0.159	0.036
-375.858	-200.000	-0.011	0.115
-374.844	369.139	-0.146	0.296
-373.829	800.000	0.015	0.048
-372.815	-101.067	-0.059	0.015
-371.800	-107.044	-0.446	-0.099
-370.785	-179.651	-0.227	0.005
-369.771	705.867	0.083	-0.221
-368.756	-154.240	-0.290	0.020
-367.742	-23.908	0.051	-0.031
-366.727	-200.000	0.003	0.070
-365.712	117.461	0.010	0.013
-364.698	800.000	-0.025	-0.071
-363.683	-89.588	-0.059	-0.017
-362.669	-97.998	-0.362	0.093
-361.654	-42.357	0.347	0.178
-360.639	-74.672	-0.101	-0.036
-359.625	127.645	-0.296	-0.377
-358.610	-138.717	-0.202	0.022
-357.596	800.000	0.062	0.222
-356.581	-200.000	0.000	0.008
-355.566	19.940	-0.216	0.175
-354.552	48.853	0.146	-0.138
-353.537	39.123	0.191	-0.171
-352.523	-200.000	-0.001	-0.280
-351.508	-53.212	-0.349	-0.161
-350.493	94.201	-0.145	-0.165
-349.479	800.000	0.054	0.207
-348.464	622.423	0.151	0.380
-347.450	-200.000	-0.013	0.059
-346.435	53.070	0.196	0.188
-345.420	-200.000	-0.002	-0.101
-344.406	-122.877	0.168	-0.027
-343.391	-33.241	-0.069	-0.038
-342.377	-50.702	0.103	0.049
-341.362	-150.666	-0.284	0.022
-340.348	551.085	-0.091	-0.219
-339.333	265.744	-0.078	0.136
-338.318	-200.000	-0.093	-0.556
-337.304	0.199	-0.258	-0.184
-336.289	-200.000	0.055	0.324
-335.275	-200.000	-0.007	-0.437
-334.260	309.262	0.059	0.110
-333.245	-200.000	0.063	0.294
-332.231	-38.110	0.021	0.011
-331.216	-200.000	0.036	0.216
-330.202	770.250	-0.068	0.185
-329.187	-135.045	0.296	-0.036
-328.172	249.881	-0.179	-0.304
-327.158	14.621	0.143	0.112
-326.143	179.585	0.219	0.322
-325.129	360.171	-0.139	0.278
-324.114	-43.199	-0.257	0.130
-323.099	-14.352	0.372	0.240
-322.085	-118.107	-0.268	-0.048
-321.070	57.910	0.116	0.113
-320.056	800.000	0.061	-0.207
-319.041	-16.972	0.402	0.254
-318.026	-200.000	-0.002	0.215
-317.012	34.817	-0.329	0.288
-315.997	-200.000	-0.045	-0.349
-314.983	800.000	0.070	-0.240
-313.968	-71.181	0.013	0.005
-312.953	-65.353	0.285	-0.115
-311.939	-148.292	-0.177	-0.015
-310.924	800.000	-0.070	0.207
-309.910	722.512	-0.066	0.177
-308.895	-200.000	-0.032	-0.154
-307.880	-15.118	-0.189	-0.121
-306.866	223.501	0.066	0.107
-305.851	-7.291	-0.160	-0.109
-304.837	-102.183	-0.143	0.034
-303.822	111.633	0.226	0.272
-302.807	-108.750	0.230	0.049
-301.793	-25.765	0.437	-0.258
-300.778	36.669	-0.281	-0.249
-299.764	60.426	0.128	-0.127
-298.749	256.814	-0.054	-0.092
-297.735	-200.000	0.003	0.048
-296.720	708.161	-0.044	-0.117
-295.705	-83.410	0.456	-0.146
-294.691	-200.000	0.002	0.094
-293.676	800.000	0.063	-0.178
-292.662	-86.061	0.448	-0.138
-291.647	-200.000	-0.001	0.155
-290.632	79.054	-0.061	-0.066
-289.618	30.360	-0.214	-0.183
-288.603	800.000	-0.052	-0.194
-287.589	176.644	0.118	-0.172
-286.574	-120.355	0.130	0.022
-285.559	64.246	-0.231	-0.232
-284.545	-148.498	0.332	0.027
-283.530	233.051	-0.072	-0.118
-282.516	-29.396	-0.111	-0.064
-281.501	397.424	-0.076	-0.159
-280.486	159.002	0.133	-0.185
-279.472	178.254	0.141	-0.205
-278.457	-57.916	0.106	0.046
-277.443	-26.791	0.192	-0.112
-276.428	-200.000	0.220	0.001
-275.413	-200.000	0.053	0.294
-274.399	-59.281	-0.373	-0.161
-273.384	-112.923	-0.425	-0.084
-272.370	204.734	-0.121	-0.188
-271.355	-200.000	-0.077	-0.348
-270.340	-123.718	-0.240	-0.038
-269.326	197.074	-0.074	0.114
-268.311	-131.071	0.278	0.037
-267.297	602.009	-0.084	-0.208
-266.282	-45.007	0.053	-0.026
-265.267	232.552	-0.189	0.310
-264.253	470.090	-0.059	-0.132
-263.238	-22.648	0.163	-0.098
-262.224	2.385	0.083	0.060
-261.209	800.000	-0.168	0.526
-260.195	38.085	0.126	-0.112
-259.180	48.032	0.282	-0.264
-258.165	244.708	0.176	-0.296
-257.151	247.513	0.135	0.228
-256.136	-70.212	0.075	-0.028
-255.122	-51.937	0.416	-0.193
-254.107	-4.770	-0.053	0.036
-253.092	314.591	-0.068	-0.128
-252.078	-200.000	0.008	0.161
-251.063	-12.043	0.134	-0.088
-250.049	-155.080	-0.315	-0.021
-249.034	-136.608	-0.192	0.022
-248.019	-200.000	-0.025	0.174
-247.005	178.919	0.127	0.185
-245.990	-77.262	0.232	-0.081
-244.976	-84.249	0.169	-0.053
-243.961	-200.000	-0.055	0.386
-242.946	30.031	0.536	-0.456
-241.932	-128.570	-0.164	0.023
-240.917	407.844	0.100	0.211
-239.903	-30.003	0.405	0.230
-238.888	-35.950	-0.086	-0.046
-237.873	336.983	0.078	0.152
-236.859	-26.604	-0.090	0.053
-235.844	36.692	0.149	-0.131
-234.830	119.975	-0.172	-0.213
-233.815	-52.608	0.124	0.057
-232.800	-34.401	-0.261	-0.143
-231.786	66.786	-0.064	0.065
-230.771	-85.573	0.251	0.078
-229.757	800.000	-0.030	0.098
-228.742	479.735	-0.064	-0.144
-227.727	25.399	0.182	0.151
-226.713	234.250	-0.107	-0.176
-225.698	-200.000	0.020	0.174
-224.684	200.196	0.166	0.255
-223.669	-24.082	-0.104	0.062
-222.655	-139.794	0.393	0.042
-221.640	81.145	0.131	-0.141
-220.625	-200.000	-0.005	-0.275
-219.611	84.678	-0.212	0.232
-218.596	7.891	0.159	-0.119
-217.582	-32.706	0.174	-0.097
-216.567	-43.709	-0.450	0.226
-215.552	-200.000	0.011	0.320
-214.538	205.109	0.039	0.060
-213.523	-200.000	-0.030	0.308
-212.509	184.530	-0.011	-0.016
-211.494	800.000	-0.056	-0.158
-210.479	368.484	-0.253	-0.510
-209.465	-95.128	-0.246	-0.066
-208.450	88.857	0.175	0.194
-207.436	36.076	-0.074	0.065
-206.421	-36.172	-0.268	-0.144
-205.406	-158.143	-0.259	-0.015
-204.392	-200.000	-0.042	0.294
-203.377	800.000	-0.069	0.238
-202.363	415.174	-0.073	0.155
-201.348	41.726	0.344	0.311
-200.333	-99.100	-0.275	0.069
-199.319	97.335	-0.146	-0.167
-198.304	131.041	0.238	0.305
-197.290	723.594	0.088	-0.233
-196.275	-200.000	-0.010	0.059
-195.260	800.000	-0.041	0.149
-194.246	485.997	-0.069	-0.157
-193.231	-88.037	-0.217	-0.065
-192.217	566.096	-0.069	0.166
-191.202	-159.541	-0.209	0.012
-190.187	-133.607	0.290	0.036
-189.173	-200.000	0.006	0.142
-188.158	429.714	-0.132	0.285
-187.144	256.759	-0.026	0.045
-186.129	-90.416	0.377	0.109
-185.114	57.750	0.037	0.036
-184.100	-63.348	-0.235	-0.096
-183.085	-175.246	-0.426	-0.012
-182.071	-200.000	-0.065	0.336
-181.056	-200.000	-0.021	0.278
-180.042	-46.628	-0.049	-0.024
-179.027	276.428	0.077	0.136
-178.012	37.991	0.156	0.138
-176.998	-170.617	0.150	-0.005
-175.983	-156.846	-0.163	0.010
-174.969	-200.000	0.010	0.213
-173.954	800.000	-0.050	-0.165
-172.939	-86.863	0.290	0.088
-171.925	520.855	0.082	-0.192
-170.910	-144.806	0.297	-0.027
-169.896	27.735	0.094	0.079
-168.881	-97.395	0.146	0.038
-167.866	-63.818	-0.109	0.045
-166.852	109.788	0.176	0.210
-165.837	-129.669	0.053	0.007
-164.823	62.694	0.146	-0.145
-163.808	8.957	-0.042	0.032
-162.793	-84.768	0.463	0.145
-161.779	98.614	0.204	-0.235
-160.764	188.246	0.104	0.155
-159.750	-111.643	-0.293	0.059
-158.735	-18.459	-0.264	0.164
-157.720	-146.095	0.100	0.009
-156.706	67.656	-0.157	-0.160
-155.691	800.000	0.041	0.113
-154.677	-74.584	0.064	-0.023
-153.662	-126.683	0.142	-0.021
-152.647	26.385	0.161	0.134
-151.633	-200.000	-0.064	-0.289
-150.618	-93.733	0.160	0.044
-149.604	35.774	-0.074	-0.065
-148.589	15.423	-0.046	0.036
-147.574	-125.590	0.230	0.035
-146.560	800.000	-0.221	-0.688
-145.545	-125.465	-0.187	-0.028
-144.531	-166.365	-0.422	-0.018
-143.516	168.043	0.093	-0.131
-142.502	-200.000	-0.005	0.143
-141.487	34.081	-0.180	0.156
-140.472	159.387	0.149	0.206
-139.458	-200.000	0.034	-0.303
-138.443	-117.524	0.307	0.055
-137.429	334.434	0.262	0.504
-136.414	0.976	0.338	0.241
-135.399	1.603	0.189	0.135
-134.385	-37.266	-0.028	0.015
-133.370	-200.000	-0.100	0.560
-132.356	-73.619	-0.145	0.053
-131.341	279.066	0.159	0.282
-130.326	52.075	0.145	-0.137
-129.312	-96.290	0.267	0.070
-128.297	440.526	-0.048	0.103
-127.283	-30.290	-0.186	0.105
-126.268	800.000	-0.087	-0.240
-125.253	-80.912	-0.173	-0.057
-124.239	-114.469	-0.388	-0.074
-123.224	-200.000	0.055	-0.451
-122.210	-52.820	0.119	-0.055
-121.195	391.360	0.058	0.120
-120.180	-47.627	-0.297	0.143
-119.166	194.777	-0.077	-0.116
-118.151	-102.524	0.125	-0.030
-117.137	323.967	0.043	-0.082
-116.122	-200.000	0.002	0.176
-115.107	130.181	-0.127	-0.161
-114.093	-200.000	-0.015	-0.390
-113.078	-200.000	-0.037	0.331
-112.064	280.808	0.108	-0.192
-111.049	-107.348	-0.078	-0.017
-110.034	99.090	-0.307	0.352
-109.020	539.918	0.108	0.255
-108.005	31.398	0.130	0.111
-106.991	-200.000	0.019	0.467
-105.976	-128.648	0.167	0.023
-104.962	-200.000	0.035	-0.238
-103.947	-200.000	0.002	-0.351
-102.932	139.357	-0.073	-0.096
-101.918	455.677	0.068	-0.150
-100.903	-41.801	0.289	-0.147
-99.889	104.593	0.112	0.131
-98.874	-200.000	0.035	-0.161
-97.859	61.580	0.114	0.113
-96.845	-86.026	0.459	-0.141
-95.830	332.933	-0.108	-0.208
-94.816	483.039	0.175	0.394
-93.801	124.808	-0.100	-0.125
-92.786	-40.548	0.118	0.061
-91.772	617.624	0.019	-0.048
-90.757	34.233	-0.175	-0.151
-89.743	-200.000	0.044	-0.215
-88.728	-200.000	0.094	0.000
-87.713	202.187	0.106	-0.162
-86.699	103.759	0.293	0.341
-85.684	-123.233	-0.290	0.046
-84.670	-115.215	0.182	-0.034
-83.655	-85.010	-0.321	0.100
-82.640	-26.661	0.151	0.088
-81.626	301.140	0.097	-0.178
-80.611	800.000	-0.068	0.214
-79.597	-200.000	0.012	-0.246
-78.582	-76.874	0.396	0.137
-77.567	-73.292	0.165	-0.060
-76.553	-81.847	0.035	-0.011
-75.538	34.690	0.091	0.079
-74.524	-135.986	-0.180	0.021
-73.509	51.162	0.052	-0.049
-72.494	60.418	0.157	0.154
-71.480	-200.000	0.015	-0.220
-70.465	-200.000	0.013	-0.233
-69.451	266.700	0.080	-0.138
-68.436	-200.000	-0.045	-0.366
-67.422	-52.930	0.158	-0.072
-66.407	800.000	-0.074	0.260
-65.392	-19.100	0.253	0.156
-64.378	-28.199	-0.288	0.165
-63.363	800.000	-0.044	-0.130
-62.349	-200.000	-0.048	0.349
-61.334	139.377	-0.650	-0.848
-60.319	8.121	0.590	0.439
-59.305	800.000	-0.273	-0.752
-58.290	-200.000	0.183	0.803
-57.276	581.357	0.590	1.433
-56.261	-200.000	96.026	566.193
-55.246	639.370	1382.343	3484.774
-54.232	186.846	2598.293	3836.196
-53.217	121.439	2202.679	2719.502
-52.203	45.251	1737.820	1587.968
-51.188	37.806	1548.607	1363.184
-50.173	35.520	1520.305	1322.500
-49.159	53.795	1570.493	1494.540
-48.144	57.698	1589.895	1540.278
-47.130	38.283	1545.044	1363.161
-46.115	34.984	1529.636	1326.689
-45.100	34.890	1525.989	1322.824
-44.086	34.819	1524.302	1320.815
-43.071	34.705	1522.388	1318.314
-42.057	34.684	1520.624	1316.597
-41.042	34.665	1518.983	1314.991
-40.027	34.790	1517.684	1314.669
-39.013	34.795	1516.024	1313.215
-37.998	34.801	1515.132	1312.432
-36.984	34.739	1513.876	1310.871
-35.969	34.810	1512.263	1309.909
-34.954	34.759	1511.256	1308.635
-33.940	34.806	1509.704	1307.558
-32.925	34.795	1508.154	1306.087
-31.911	34.774	1507.515	1305.337
-30.896	34.863	1505.422	1304.081
-29.881	34.860	1504.374	1303.102
-28.867	34.797	1503.208	1301.615
-27.852	34.746	1501.733	1299.935
-26.838	34.790	1500.067	1298.741
-25.823	34.749	1498.318	1296.895
-24.809	34.725	1497.002	1295.545
-23.794	34.799	1496.051	1295.168
-22.779	34.764	1494.463	1293.511
-21.765	34.848	1493.122	1292.864
-20.750	34.770	1492.698	1291.920
-19.736	34.764	1491.479	1290.769
-18.721	34.757	1490.347	1289.695
-17.706	34.734	1488.974	1288.300
-16.692	34.716	1488.572	1287.778
-15.677	34.780	1486.902	1286.714
-14.663	34.702	1486.210	1285.535
-13.648	34.691	1485.459	1284.762
-12.633	34.699	1483.988	1283.497
-11.619	34.785	1482.609	1282.829
-10.604	34.692	1482.622	1282.162
-9.590	34.594	1481.835	1280.777
-8.575	34.690	1480.881	1280.544
-7.560	34.693	1479.785	1279.567
-6.546	34.717	1479.060	1279.045
-5.531	34.742	1477.830	1278.102
-4.517	34.630	1477.378	1276.907
-3.502	34.599	1476.567	1275.951
-2.487	34.693	1474.973	1275.148
-1.473	34.583	1474.417	1273.884
-0.458	34.705	1473.076	1273.490
0.556	36.947	1463.727	1264.165
1.571	34.154	1437.663	1223.620
2.586	30.367	1374.257	1146.225
3.600	27.932	1290.575	1062.191
4.615	25.453	1242.994	1009.040
5.629	21.549	1185.117	941.027
6.644	12.969	1099.534	830.009
7.659	6.072	1057.213	764.529
8.673	5.112	1051.767	755.874
9.688	4.758	1048.960	752.077
10.702	4.632	1046.931	749.949
11.717	4.839	1045.437	749.807
12.731	8.097	1048.882	767.929
13.746	16.218	1060.115	815.483
14.761	21.731	1066.964	847.416
15.775	22.068	1066.313	848.448
16.790	21.255	1064.807	843.253
17.804	20.082	1062.767	835.907
18.819	19.416	1060.455	830.810
19.834	18.973	1059.138	827.572
20.848	18.742	1057.947	825.460
21.863	18.643	1057.518	824.574
22.877	18.381	1057.097	822.913
23.892	18.149	1056.499	821.262
24.907	18.155	1055.500	820.441
25.921	18.146	1055.041	819.968
26.936	18.102	1053.896	818.798
27.950	18.202	1052.715	818.283
28.965	18.161	1051.834	817.332
29.980	18.207	1050.816	816.690
30.994	18.462	1049.222	816.593
32.009	18.610	1048.911	816.985
33.023	18.567	1048.213	816.164
34.038	18.633	1047.131	815.560
35.053	18.417	1046.344	813.851
36.067	18.345	1045.095	812.467
37.082	18.308	1044.377	811.661
38.096	18.310	1043.677	811.052
39.111	18.407	1043.301	811.150
40.126	18.536	1042.158	810.799
41.140	18.340	1040.976	808.883
42.155	18.031	1039.631	806.308
43.169	17.918	1038.709	804.987
44.184	17.770	1037.938	803.621
45.199	17.865	1036.385	802.796
46.213	17.908	1035.212	802.017
47.228	17.955	1034.361	801.507
48.242	18.254	1033.471	802.149
49.257	18.391	1032.673	802.100
50.271	18.276	1031.943	800.924
51.286	18.308	1030.840	800.147
52.301	18.318	1030.161	799.595
53.315	18.298	1030.021	799.322
54.330	18.234	1028.879	798.068
55.344	18.062	1027.593	796.198
56.359	18.073	1026.706	795.492
57.374	18.084	1025.707	794.696
58.388	18.022	1024.905	793.717
59.403	17.946	1024.208	792.756
60.417	17.822	1023.074	791.235
61.432	17.899	1022.945	791.418
62.447	17.854	1021.945	790.370
63.461	17.746	1021.144	789.177
64.476	17.773	1020.011	788.359
65.490	17.755	1019.207	787.582
66.505	17.694	1018.458	786.653
67.520	17.771	1017.583	786.263
68.534	17.818	1016.598	785.648
69.549	17.819	1015.821	784.984
70.563	17.753	1015.173	784.109
71.578	17.718	1015.192	783.893
72.593	17.663	1013.781	782.484
73.607	17.618	1012.407	781.148
74.622	17.450	1011.739	779.795
75.636	17.604	1010.335	779.348
76.651	17.479	1010.355	778.720
77.666	17.603	1009.437	778.512
78.680	17.714	1008.464	778.200
79.695	17.717	1008.244	777.973
80.709	17.779	1007.587	777.680
81.724	17.800	1006.936	777.205
82.739	17.942	1006.171	777.193
83.753	18.012	1005.410	776.854
84.768	18.083	1004.660	776.528
85.782	18.331	1004.071	777.128
86.797	18.542	1003.432	777.524
87.812	18.498	1002.785	776.754
88.826	18.439	1001.196	775.186
89.841	18.271	1000.836	774.080
90.855	18.442	999.837	774.012
91.870	18.528	999.476	774.052
92.884	18.589	998.663	773.630
93.899	18.628	997.508	772.844
94.914	18.480	997.023	771.730
95.928	18.489	996.510	771.308
96.943	18.386	996.094	770.453
97.957	18.613	994.134	769.889
98.972	18.419	993.856	768.735
99.987	18.398	993.246	768.100
101.001	18.539	992.232	767.879
102.016	18.476	991.335	766.837
103.030	18.524	990.083	766.012
104.045	18.359	989.678	764.897
105.060	18.394	988.635	764.178
106.074	18.352	987.456	763.013
107.089	18.285	986.117	761.610
108.103	17.936	985.563	759.563
109.118	17.880	984.452	758.392
110.133	17.864	983.490	757.514
111.147	17.766	982.457	756.214
112.162	17.792	981.539	755.555
113.176	17.779	980.993	755.012
114.191	18.018	980.118	755.330
115.206	18.066	979.107	754.697
116.220	17.977	978.666	753.897
117.235	17.955	977.787	753.055
118.249	17.769	977.165	751.689
119.264	17.947	976.042	751.542
120.279	17.783	975.067	750.004
121.293	17.772	974.161	749.190
122.308	17.648	973.880	748.364
123.322	17.628	972.479	747.133
124.337	17.656	971.779	746.656
125.352	17.627	970.508	745.486
126.366	17.487	969.851	744.303
127.381	17.504	968.816	743.518
128.395	17.670	967.297	743.009
129.410	17.645	966.922	742.547
130.424	17.647	965.889	741.693
131.439	17.717	965.201	741.405
132.454	17.818	964.486	741.228
133.468	18.007	963.785	741.446
134.483	17.956	963.211	740.718
135.497	17.944	962.456	740.018
136.512	18.067	961.526	739.773
137.527	17.993	961.122	739.074
138.541	17.848	960.457	737.871
139.556	17.943	959.744	737.669
140.570	18.110	958.621	737.459
141.585	18.184	958.100	737.313
142.600	18.160	957.777	736.895
143.614	18.359	956.804	736.937
144.629	18.383	956.058	736.403
145.643	18.478	955.495	736.311
146.658	18.445	954.448	735.297
147.673	18.255	953.568	733.738
148.687	18.226	952.550	732.767
149.702	17.995	952.057	731.337
150.716	18.091	950.553	730.524
151.731	18.114	949.496	729.748
152.746	18.066	948.844	728.978
153.760	18.007	948.338	728.269
154.775	18.040	947.973	728.068
155.789	18.157	946.836	727.627
156.804	18.204	946.250	727.313
157.819	18.249	945.567	726.914
158.833	18.346	944.623	726.536
159.848	18.462	943.991	726.476
160.862	18.591	943.550	726.619
161.877	18.478	942.601	725.348
162.892	18.163	941.971	723.468
163.906	18.016	940.592	721.722
164.921	18.004	939.945	721.111
165.935	18.106	938.210	720.145
166.950	17.956	938.041	719.319
167.964	18.106	937.146	719.202
168.979	18.254	936.161	719.004
169.994	18.130	935.017	717.540
171.008	18.103	934.399	716.892
172.023	18.321	933.125	716.762
173.037	18.278	932.895	716.344
174.052	18.391	932.316	716.308
175.067	18.460	931.481	715.892
176.081	18.285	930.002	713.960
177.096	18.059	929.489	712.560
178.110	17.999	928.464	711.463
179.125	17.995	928.265	711.230
180.140	18.069	927.355	710.780
181.154	18.112	926.865	710.520
182.169	18.266	926.433	710.763
183.183	18.263	926.034	710.384
184.198	18.522	924.709	710.377
185.213	18.520	924.000	709.759
186.227	18.449	923.803	709.255
187.242	18.385	923.202	708.462
188.256	18.512	922.650	708.504
189.271	18.722	921.907	708.737
190.286	18.721	921.179	708.111
191.300	18.584	920.218	706.743
192.315	18.089	919.391	704.009
193.329	17.889	918.692	702.586
194.344	18.077	917.389	702.300
195.359	18.080	917.127	702.050
196.373	18.184	916.991	702.312
197.388	18.286	916.615	702.382
198.402	18.363	916.084	702.229
199.417	18.638	915.590	702.912
200.432	18.771	915.650	703.440
201.446	18.809	915.107	703.117
202.461	18.897	914.771	703.158
203.475	19.061	914.269	703.381
204.490	19.093	913.322	702.720
205.504	18.725	912.427	700.467
206.519	18.648	911.128	699.093
207.534	18.606	910.945	698.723
208.548	18.505	910.228	697.698
209.563	18.558	909.436	697.246
210.577	18.641	908.864	697.084
211.592	18.629	908.316	696.552
212.607	18.842	907.980	697.096
213.621	18.861	907.285	696.576
214.636	18.815	906.418	695.664
215.650	18.781	905.870	695.043
216.665	18.788	905.529	694.749
217.680	18.900	905.127	694.835
218.694	18.998	904.695	694.836
219.709	19.106	903.939	694.630
220.723	19.031	903.144	693.656
221.738	19.020	902.561	693.101
222.753	18.961	901.864	692.267
223.767	18.898	901.504	691.677
224.782	18.997	900.392	691.160
225.796	19.106	899.751	691.045
226.811	19.229	899.263	691.100
227.826	19.239	898.439	690.449
228.840	18.960	898.039	688.959
229.855	18.886	897.011	687.816
230.869	18.954	896.633	687.737
231.884	18.816	896.022	686.656
232.899	19.012	894.660	686.333
233.913	18.720	894.290	684.824
234.928	18.745	893.401	684.182
235.942	18.780	893.159	684.074
236.957	18.626	892.092	682.584
237.972	18.650	891.641	682.274
238.986	18.748	890.949	682.074
240.001	18.829	889.719	681.395
241.015	18.686	889.339	680.474
242.030	18.668	889.033	680.108
243.045	19.069	887.981	680.832
244.059	18.867	888.433	680.319
245.074	18.941	887.310	679.690
246.088	18.907	886.568	678.930
247.103	19.041	886.504	679.348
248.117	19.166	885.452	678.975
249.132	19.247	885.047	678.922
250.147	19.529	884.829	679.807
251.161	19.590	884.425	679.677
252.176	19.814	883.656	679.905
253.190	19.773	883.043	679.215
254.205	19.933	882.268	679.184
255.220	19.808	882.076	678.486
256.234	19.831	881.166	677.817
257.249	19.690	881.034	677.103
258.263	19.745	880.321	676.711
259.278	19.778	879.497	676.148
260.293	19.813	879.024	675.861
261.307	19.880	878.041	675.305
262.322	20.030	877.696	675.564
263.336	20.014	876.836	674.781
264.351	19.945	876.554	674.237
265.366	20.024	875.973	674.037
266.380	19.927	875.725	673.410
267.395	19.925	874.953	672.747
268.409	19.949	873.807	671.901
269.424	19.776	872.812	670.406
270.439	19.822	872.106	669.983
271.453	19.923	871.155	669.580
272.468	19.802	870.789	668.774
273.482	19.661	870.332	667.820
274.497	19.725	869.924	667.694
275.512	19.780	868.958	667.106
276.526	19.803	868.069	666.451
277.541	19.788	867.092	665.587
278.555	19.901	867.046	665.928
279.570	19.810	866.660	665.221
280.585	19.952	866.260	665.400
281.599	20.059	865.879	665.462
282.614	19.988	865.167	664.583
283.628	19.918	864.256	663.556
284.643	19.649	864.133	662.370
285.657	19.833	863.308	662.385
286.672	19.843	862.799	661.973
287.687	19.736	862.716	661.443
288.701	19.952	861.703	661.431
289.716	19.954	861.331	661.097
290.730	20.011	860.313	660.474
291.745	20.030	859.902	660.172
292.760	20.058	859.260	659.727
293.774	20.064	858.440	659.063
294.789	20.153	858.372	659.289
295.803	20.143	857.641	658.630
296.818	20.086	856.718	657.648
297.833	19.810	856.267	656.197
298.847	19.844	855.861	655.957
299.862	19.969	854.778	655.544
300.876	20.041	854.383	655.454
301.891	20.140	853.893	655.394
302.906	20.277	853.251	655.359
303.920	20.432	852.481	655.297
304.935	20.475	851.888	654.946
305.949	20.388	851.556	654.302
306.964	20.450	850.819	653.912
307.979	20.191	850.381	652.545
308.993	20.323	849.671	652.437
310.008	20.288	849.481	652.104
311.022	20.386	848.886	651.955
312.037	20.414	848.235	651.504
313.052	20.269	847.448	650.298
314.066	20.110	846.948	649.260
315.081	20.143	845.972	648.578
316.095	20.048	846.009	648.195
317.110	20.157	844.665	647.513
318.125	20.023	844.704	646.985
319.139	20.066	844.255	646.747
320.154	20.048	843.662	646.168
321.168	20.033	842.986	645.535
322.183	20.143	842.591	645.585
323.197	20.311	842.048	645.737
324.212	20.242	841.490	644.996
325.227	20.265	840.999	644.649
326.241	20.290	840.602	644.379
327.256	20.296	839.898	643.807
328.270	20.222	839.203	642.943
329.285	20.184	838.698	642.357
330.300	20.153	838.315	641.892
331.314	20.243	837.859	641.821
332.329	20.247	837.009	641.127
333.343	20.466	836.320	641.351
334.358	20.616	835.876	641.506
335.373	20.401	835.549	640.407
336.387	20.466	835.136	640.273
337.402	20.700	834.123	640.300
338.416	20.547	834.044	639.620
339.431	20.754	833.812	640.147
340.446	20.812	833.102	639.756
341.460	20.932	832.445	639.636
342.475	20.955	831.825	639.190
343.489	20.968	831.448	638.891
344.504	21.066	830.750	638.657
345.519	21.105	830.467	638.523
346.533	21.280	829.876	638.655
347.548	21.062	829.392	637.426
348.562	20.923	829.285	636.781
349.577	20.781	828.209	635.380
350.592	20.688	827.707	634.600
351.606	20.731	826.872	634.059
352.621	20.576	826.518	633.170
353.635	20.732	826.108	633.365
354.650	20.905	825.545	633.509
355.665	20.764	825.350	632.791
356.679	20.825	824.799	632.534
357.694	20.772	824.725	632.227
358.708	20.911	823.840	631.997
359.723	20.761	823.250	630.944
360.738	20.782	822.836	630.647
361.752	20.871	822.288	630.496
362.767	20.925	821.963	630.385
363.781	21.028	821.600	630.425
364.796	21.215	821.282	630.797
365.810	21.244	820.944	630.589
366.825	21.319	820.678	630.600
367.840	21.444	819.865	630.370
368.854	21.402	819.799	630.109
369.869	21.332	819.172	629.321
370.883	21.273	818.717	628.703
371.898	21.135	817.858	627.491
372.913	21.402	817.140	627.843
373.927	21.421	816.867	627.648
374.942	21.385	816.070	626.849
375.956	21.345	815.424	626.155
376.971	21.303	814.858	625.516
377.986	21.424	814.677	625.752
379.000	21.507	814.281	625.691
380.015	21.628	813.459	625.436
381.029	21.439	813.255	624.548
382.044	21.481	812.734	624.244
383.059	21.554	811.869	623.784
384.073	21.681	811.171	623.644
385.088	21.436	810.869	622.487
386.102	21.324	809.947	621.323
387.117	21.316	809.478	620.880
388.132	21.277	808.898	620.243
389.146	21.317	808.233	619.821
390.161	21.292	807.872	619.400
391.175	21.381	807.798	619.606
392.190	21.580	807.446	619.983
393.205	21.391	806.969	618.895
394.219	21.292	806.444	618.087
395.234	21.466	805.951	618.268
396.248	21.289	805.386	617.156
397.263	21.206	804.590	616.199
398.278	21.257	804.010	615.878
399.292	21.172	803.577	615.192
400.307	21.097	803.624	614.912
401.321	21.029	803.265	614.341
402.336	21.101	802.659	614.079
403.350	21.448	802.020	614.754
404.365	21.409	801.935	614.497
405.380	21.556	800.945	614.200
406.394	21.750	800.747	614.675
407.409	21.672	800.828	614.408
408.423	21.652	800.375	613.937
409.438	21.596	800.377	613.687
410.453	21.848	799.477	613.826
411.467	21.924	799.068	613.723
412.482	22.061	798.634	613.814
413.496	21.997	797.991	613.042
414.511	21.941	797.897	612.721
415.526	22.201	797.483	613.254
416.540	21.938	796.882	611.821
417.555	22.065	796.551	611.958
418.569	22.069	795.985	611.482
419.584	21.938	795.549	610.636
420.599	22.017	794.908	610.364
421.613	158.728	1368.191	1788.538
422.628	137.593	1451.757	1788.672
