DTS Sentinel unit serial number:	SN413079Multiplexer serial number:	ORYXHardware model number:	OX4-SRSoftware version number:	ORYX F/W v4.00 Oryx Data Collector v3.7.2.0data status	okinstallation	princeton_trtdifferential loss correction	single-endedforward channel	channel 3reverse channel	N/Adate	2019/09/11time	11:26:11forward acquisition time	60.00reverse acquisition time	0.00gamma	496.2192k internal	0.2294k external	0.2294temperature offset calibration	0.9947default loss term (dB/km)	0.3790temperature slope calibration	1.0000multiplexer offset coefficient	1.0000multiplexer slope coefficient	1.0000fibre end	0.00T internal ref (°C)	37.89T ext. ref 1 (°C)	0.19T ext. ref 2 (°C)	35.65length (m)	temperature (°C)	Stokes	anti-Stokes-747.200	-9.055	0.253	-0.173
-746.185	247.609	-0.107	0.184
-745.171	800.000	-0.081	-0.272
-744.156	-165.215	-0.281	0.013
-743.142	119.322	-0.143	-0.181
-742.127	83.413	-0.121	-0.134
-741.112	-200.000	-0.014	-0.084
-740.098	800.000	-0.077	0.238
-739.083	473.262	-0.064	-0.148
-738.069	-200.000	0.241	0.000
-737.054	-54.938	0.261	0.120
-736.039	800.000	0.107	-0.475
-735.025	-16.170	-0.092	-0.060
-734.010	213.204	-0.187	-0.301
-732.996	-200.000	-0.042	-0.273
-731.981	455.313	0.039	0.089
-730.966	-200.000	0.015	-0.366
-729.952	800.000	-0.020	-0.064
-728.937	-131.065	-0.334	-0.046
-727.923	-29.831	-0.167	0.098
-726.908	76.100	0.089	0.096
-725.894	-79.255	-0.148	0.051
-724.879	-47.699	-0.373	-0.185
-723.864	-200.000	0.003	0.032
-722.850	-30.747	-0.231	-0.133
-721.835	-200.000	0.036	0.208
-720.821	-200.000	-0.006	0.233
-719.806	-200.000	0.026	-0.174
-718.791	800.000	-0.070	-0.220
-717.777	-42.666	-0.099	0.052
-716.762	239.076	-0.136	-0.230
-715.748	-85.011	-0.274	0.088
-714.733	303.179	-0.178	0.337
-713.718	109.218	0.124	-0.151
-712.704	-27.452	-0.076	-0.045
-711.689	219.152	-0.196	0.321
-710.675	-200.000	0.013	0.227
-709.660	396.419	-0.154	-0.329
-708.645	-200.000	0.006	-0.127
-707.631	125.086	0.246	-0.316
-706.616	-200.000	-0.026	-0.233
-705.602	-126.190	0.384	-0.059
-704.587	-7.274	0.099	-0.068
-703.572	32.544	-0.169	-0.150
-702.558	-97.141	-0.349	-0.093
-701.543	-119.788	0.359	0.063
-700.529	767.478	0.094	0.262
-699.514	-68.538	-0.259	-0.102
-698.499	-137.752	-0.093	-0.011
-697.485	3.723	-0.201	-0.150
-696.470	-2.090	0.049	0.035
-695.456	535.051	0.099	0.240
-694.441	80.360	0.150	0.165
-693.426	433.385	0.164	-0.363
-692.412	700.622	-0.038	-0.103
-691.397	22.867	-0.237	0.198
-690.383	370.016	0.097	0.200
-689.368	505.747	-0.214	-0.506
-688.354	3.523	-0.307	0.228
-687.339	387.131	0.050	-0.105
-686.324	653.231	-0.053	-0.139
-685.310	303.749	-0.064	-0.121
-684.295	34.130	-0.247	0.220
-683.281	72.323	-0.087	-0.092
-682.266	-17.990	-0.112	-0.072
-681.251	-47.722	0.079	-0.039
-680.237	-98.534	-0.144	-0.038
-679.222	86.624	0.145	0.163
-678.208	13.924	-0.155	-0.123
-677.193	-200.000	-0.006	-0.215
-676.178	20.878	-0.057	-0.047
-675.164	-200.000	0.003	0.046
-674.149	44.801	0.162	0.152
-673.135	-46.394	-0.016	-0.008
-672.120	123.129	-0.193	-0.246
-671.105	-200.000	0.037	-0.193
-670.091	-200.000	0.005	-0.033
-669.076	-53.509	0.176	0.082
-668.062	-147.442	-0.325	0.028
-667.047	-30.509	-0.329	0.190
-666.032	-200.000	-0.050	-0.446
-665.018	-200.000	-0.029	0.185
-664.003	-91.585	0.207	-0.060
-662.989	-200.000	-0.010	-0.272
-661.974	18.263	-0.195	-0.159
-660.959	-13.145	-0.039	0.026
-659.945	-157.008	-0.327	-0.020
-658.930	-126.666	0.148	-0.022
-657.916	48.439	-0.068	-0.065
-656.901	20.827	0.163	-0.134
-655.886	-53.995	0.251	-0.116
-654.872	-18.400	0.245	-0.156
-653.857	-111.126	0.542	0.113
-652.843	7.158	0.251	-0.191
-651.828	-83.512	0.196	0.064
-650.814	-42.973	0.025	0.013
-649.799	1.090	-0.035	0.026
-648.784	293.600	0.041	0.075
-647.770	-200.000	0.004	-0.106
-646.755	136.933	-0.262	0.349
-645.741	738.005	-0.030	0.083
-644.726	-200.000	-0.012	-0.070
-643.711	800.000	-0.068	-0.279
-642.697	-105.475	0.114	0.026
-641.682	105.495	0.085	-0.103
-640.668	800.000	-0.043	0.184
-639.653	188.441	-0.150	-0.229
-638.638	-105.586	-0.212	0.049
-637.624	-200.000	-0.021	-0.121
-636.609	501.151	-0.047	0.111
-635.595	-200.000	-0.005	-0.127
-634.580	-138.544	-0.184	-0.021
-633.565	10.400	0.277	0.215
-632.551	78.111	0.242	-0.263
-631.536	-104.461	0.207	-0.049
-630.522	79.959	-0.101	0.110
-629.507	-200.000	0.005	-0.246
-628.492	800.000	-0.077	-0.279
-627.478	-15.140	-0.170	0.111
-626.463	-90.765	-0.099	0.029
-625.449	-60.571	-0.418	0.181
-624.434	75.260	-0.153	0.165
-623.419	68.968	-0.132	0.138
-622.405	17.609	0.077	0.062
-621.390	85.525	0.257	-0.287
-620.376	-86.746	-0.078	0.024
-619.361	-46.903	0.191	-0.095
-618.346	35.330	0.102	0.091
-617.332	57.511	0.027	0.027
-616.317	800.000	-0.073	0.248
-615.303	800.000	0.060	-0.171
-614.288	44.775	-0.182	-0.170
-613.273	-131.803	-0.123	-0.016
-612.259	41.787	-0.270	-0.249
-611.244	-163.825	-0.306	-0.015
-610.230	-200.000	0.014	-0.075
-609.215	-49.335	0.494	0.240
-608.201	-66.080	0.229	0.093
-607.186	47.338	0.351	0.333
-606.171	46.218	-0.142	0.134
-605.157	130.937	-0.212	0.277
-604.142	100.172	0.081	0.096
-603.128	26.133	0.152	-0.129
-602.113	32.569	0.053	0.046
-601.098	-200.000	-0.039	0.200
-600.084	800.000	0.026	0.109
-599.069	-73.595	0.311	-0.115
-598.055	-200.000	0.002	-0.029
-597.040	343.013	0.010	-0.020
-596.025	-200.000	0.022	0.193
-595.011	800.000	0.055	-0.226
-593.996	-22.246	0.269	0.166
-592.982	-181.040	0.220	-0.004
-591.967	-7.121	-0.060	-0.041
-590.952	-91.196	-0.203	-0.059
-589.938	-67.732	0.121	-0.048
-588.923	-51.987	0.104	-0.049
-587.909	-10.908	0.087	-0.058
-586.894	32.397	-0.089	0.078
-585.879	215.435	-0.081	-0.130
-584.865	656.572	0.035	-0.090
-583.850	74.809	-0.208	-0.222
-582.836	14.671	0.029	-0.023
-581.821	-200.000	0.025	-0.138
-580.806	-45.780	-0.287	-0.144
-579.792	679.735	0.150	-0.397
-578.777	60.780	-0.120	-0.121
-577.763	76.548	-0.213	-0.229
-576.748	-200.000	0.111	0.516
-575.733	389.849	-0.048	-0.101
-574.719	46.133	-0.214	0.202
-573.704	-52.651	0.120	0.056
-572.690	703.926	-0.092	-0.248
-571.675	-90.750	-0.094	-0.027
-570.661	-110.260	0.374	-0.079
-569.646	150.190	0.051	-0.070
-568.631	-20.768	0.317	-0.197
-567.617	74.474	-0.135	-0.144
-566.602	369.488	0.149	-0.307
-565.588	25.582	-0.076	-0.064
-564.573	118.762	-0.100	-0.125
-563.558	-200.000	0.032	-0.367
-562.544	31.045	-0.296	-0.258
-561.529	794.275	0.086	0.240
-560.515	-200.000	0.006	0.269
-559.500	-122.883	0.376	0.062
-558.485	-200.000	-0.015	0.171
-557.471	49.517	0.255	-0.244
-556.456	-200.000	-0.026	-0.224
-555.442	243.065	0.022	-0.037
-554.427	248.639	0.159	0.273
-553.412	-200.000	0.001	-0.254
-552.398	-127.345	0.156	-0.023
-551.383	246.097	-0.052	0.089
-550.369	-95.355	-0.279	0.076
-549.354	-98.125	-0.154	-0.040
-548.339	738.328	-0.059	-0.162
-547.325	800.000	0.092	-0.320
-546.310	-200.000	0.002	-0.068
-545.296	-200.000	0.014	0.079
-544.281	-61.505	0.142	0.061
-543.266	800.000	0.077	0.324
-542.252	-200.000	0.040	-0.347
-541.237	7.617	0.244	0.186
-540.223	-67.899	0.267	0.106
-539.208	49.882	0.171	-0.164
-538.193	-55.834	-0.121	0.055
-537.179	-34.403	-0.118	-0.065
-536.164	20.826	-0.282	0.231
-535.150	-2.596	-0.289	-0.205
-534.135	-39.050	0.308	0.164
-533.121	-172.616	-0.095	-0.003
-532.106	-132.953	0.257	-0.033
-531.091	-135.130	-0.207	-0.025
-530.077	21.559	-0.095	-0.078
-529.062	272.364	0.153	0.274
-528.048	430.725	-0.044	-0.096
-527.033	-146.671	0.453	-0.040
-526.018	7.668	-0.329	-0.249
-525.004	31.981	-0.198	-0.173
-523.989	800.000	-0.082	0.262
-522.975	362.559	0.170	-0.346
-521.960	-75.940	-0.400	0.144
-520.945	-200.000	0.010	-0.126
-519.931	101.531	-0.219	0.258
-518.916	124.596	0.225	-0.287
-517.902	-147.916	0.316	-0.027
-516.887	-149.930	0.235	0.019
-515.872	-10.200	0.109	-0.073
-514.858	448.304	-0.061	0.136
-513.843	446.809	0.152	-0.339
-512.829	297.158	-0.150	0.280
-511.814	-82.822	-0.444	0.145
-510.799	35.622	-0.036	0.032
-509.785	75.902	-0.124	-0.133
-508.770	450.300	0.055	0.123
-507.756	-62.251	-0.289	0.122
-506.741	-173.857	0.048	0.001
-505.726	-39.713	0.096	0.051
-504.712	50.590	-0.165	0.158
-503.697	-115.101	0.182	0.035
-502.683	29.190	-0.127	-0.110
-501.668	-32.901	-0.268	-0.151
-500.653	85.106	0.164	-0.182
-499.639	-193.015	-0.248	-0.002
-498.624	237.212	-0.133	-0.223
-497.610	-141.231	0.391	-0.040
-496.595	88.064	0.138	0.155
-495.581	-80.141	0.195	-0.066
-494.566	-39.643	0.290	-0.154
-493.551	800.000	-0.086	0.293
-492.537	-124.850	0.214	0.033
-491.522	333.512	-0.215	0.421
-490.508	-6.728	-0.350	-0.241
-489.493	-25.406	-0.051	0.031
-488.478	44.912	-0.041	0.039
-487.464	173.625	0.189	0.276
-486.449	800.000	0.015	-0.058
-485.435	-200.000	-0.003	-0.093
-484.420	-86.268	-0.279	0.087
-483.405	-30.200	-0.128	-0.074
-482.391	800.000	-0.022	0.088
-481.376	-91.535	0.193	-0.056
-480.362	800.000	0.029	0.094
-479.347	-200.000	-0.038	-0.265
-478.332	-200.000	-0.006	0.184
-477.318	800.000	-0.081	0.247
-476.303	-162.285	0.357	-0.018
-475.289	-123.381	0.215	-0.035
-474.274	516.944	-0.176	0.415
-473.259	-78.794	0.040	-0.014
-472.245	82.851	0.311	-0.342
-471.230	-92.527	0.346	-0.098
-470.216	-134.437	0.332	-0.041
-469.201	38.520	0.165	-0.149
-468.186	142.991	-0.192	-0.259
-467.172	-200.000	-0.032	0.180
-466.157	163.522	0.108	0.153
-465.143	275.560	0.073	0.131
-464.128	-51.418	-0.269	0.127
-463.113	455.298	0.065	0.145
-462.099	-93.684	-0.191	-0.053
-461.084	-73.407	-0.149	0.055
-460.070	-200.000	-0.002	0.035
-459.055	-100.970	-0.147	0.036
-458.040	-89.034	0.287	0.086
-457.026	-59.958	0.255	-0.110
-456.011	-126.803	-0.139	-0.021
-454.997	-21.234	-0.166	0.102
-453.982	-75.831	-0.217	-0.078
-452.968	727.972	-0.140	0.378
-451.953	127.990	0.275	0.354
-450.938	-200.000	0.006	-0.236
-449.924	9.476	0.097	0.074
-448.909	110.962	0.188	-0.229
-447.895	40.309	0.176	-0.160
-446.880	-47.321	0.247	0.121
-445.865	-82.230	0.373	0.123
-444.851	-200.000	0.024	-0.242
-443.836	-84.484	0.239	-0.076
-442.822	-82.324	0.080	-0.026
-441.807	-142.488	0.197	0.020
-440.792	570.156	-0.038	-0.094
-439.778	27.877	0.215	0.183
-438.763	-52.591	0.195	-0.091
-437.749	-85.678	-0.389	0.122
-436.734	-33.349	0.158	0.088
-435.719	800.000	-0.081	0.308
-434.705	204.121	-0.079	0.123
-433.690	-66.102	-0.158	0.064
-432.676	-135.290	-0.208	0.025
-431.661	-50.458	0.170	0.081
-430.646	800.000	0.109	-0.338
-429.632	-45.920	0.180	-0.089
-428.617	28.919	-0.218	0.187
-427.603	128.070	-0.216	-0.277
-426.588	-127.626	-0.101	-0.015
-425.573	-36.737	0.050	0.027
-424.559	-200.000	0.052	-0.373
-423.544	-129.643	-0.302	0.042
-422.530	-200.000	0.005	-0.263
-421.515	-55.830	0.148	-0.067
-420.500	89.891	-0.128	-0.144
-419.486	306.641	0.081	0.152
-418.471	-200.000	-0.003	-0.127
-417.457	89.418	-0.131	0.147
-416.442	-198.316	-0.106	-0.001
-415.428	14.283	-0.171	0.135
-414.413	460.538	0.141	-0.318
-413.398	-200.000	-0.015	-0.131
-412.384	-67.149	-0.480	0.191
-411.369	-50.908	0.019	-0.009
-410.355	-179.588	0.439	-0.010
-409.340	-48.975	0.032	0.016
-408.325	-11.775	0.051	0.034
-407.311	-200.000	-0.016	-0.103
-406.296	10.809	-0.062	0.047
-405.282	-91.046	0.099	0.029
-404.267	-53.374	0.168	0.078
-403.252	84.435	-0.202	-0.223
-402.238	-58.152	-0.237	0.104
-401.223	-138.857	0.249	-0.027
-400.209	-180.456	-0.112	0.002
-399.194	-157.154	0.362	0.022
-398.179	21.265	-0.112	-0.092
-397.165	-114.133	0.106	-0.021
-396.150	84.081	-0.161	0.177
-395.136	-103.118	0.271	-0.065
-394.121	62.248	0.248	-0.250
-393.106	-200.000	-0.005	-0.191
-392.092	-77.709	-0.201	0.070
-391.077	174.404	-0.028	-0.041
-390.063	254.603	-0.120	0.207
-389.048	800.000	0.033	-0.120
-388.033	47.974	0.192	-0.181
-387.019	-51.565	0.073	-0.034
-386.004	-82.830	-0.149	0.049
-384.990	-200.000	-0.006	-0.159
-383.975	-154.881	0.181	-0.012
-382.960	-34.301	0.445	-0.246
-381.946	-0.188	0.102	-0.073
-380.931	-128.899	-0.104	-0.015
-379.917	715.820	-0.039	0.104
-378.902	-91.290	-0.302	0.087
-377.888	800.000	-0.014	0.051
-376.873	-200.000	-0.026	0.146
-375.858	633.429	-0.128	0.326
-374.844	-194.534	-0.100	-0.001
-373.829	701.109	0.080	-0.213
-372.815	114.112	-0.057	0.070
-371.800	33.713	-0.195	-0.171
-370.785	82.872	-0.211	0.231
-369.771	189.731	-0.076	-0.115
-368.756	94.048	0.130	-0.149
-367.742	-200.000	0.061	-0.449
-366.727	-23.451	0.213	-0.129
-365.712	-59.941	0.222	-0.096
-364.698	-163.016	-0.117	0.006
-363.683	318.800	0.214	0.409
-362.669	-164.348	0.223	-0.010
-361.654	-200.000	0.012	0.197
-360.639	541.234	0.091	0.219
-359.625	-200.000	0.011	-0.145
-358.610	-90.578	-0.139	0.040
-357.596	-51.782	0.092	0.043
-356.581	-39.814	-0.144	-0.076
-355.566	79.679	-0.213	-0.230
-354.552	-86.288	0.073	-0.023
-353.537	-200.000	-0.008	-0.135
-352.523	-100.220	0.331	-0.083
-351.508	-154.335	0.249	0.017
-350.493	59.335	0.076	-0.075
-349.479	134.746	0.201	-0.263
-348.464	-200.000	-0.002	0.016
-347.450	273.810	-0.251	-0.447
-346.435	-127.524	-0.211	0.031
-345.420	-137.849	0.142	0.016
-344.406	680.949	0.062	-0.163
-343.391	-15.357	-0.102	0.066
-342.377	421.401	-0.102	0.220
-341.362	-108.878	-0.078	-0.017
-340.348	-103.111	0.355	-0.085
-339.333	-97.269	0.379	0.099
-338.318	-52.374	0.321	0.150
-337.304	-2.450	-0.255	0.180
-336.289	-77.906	-0.189	0.065
-335.275	800.000	-0.060	0.167
-334.260	-113.329	-0.252	0.050
-333.245	-123.611	-0.096	0.015
-332.231	603.881	0.071	0.177
-331.216	-191.766	0.197	-0.002
-330.202	800.000	-0.056	0.225
-329.187	-4.796	-0.182	-0.126
-328.172	-104.296	0.205	-0.048
-327.158	-31.102	-0.383	0.217
-326.143	-18.299	-0.248	-0.156
-325.129	-200.000	-0.056	-0.288
-324.114	446.468	-0.039	-0.085
-323.099	-30.530	0.249	0.142
-322.085	155.769	-0.107	-0.148
-321.070	-106.047	0.249	0.056
-320.056	-200.000	0.031	-0.195
-319.041	-163.508	0.066	-0.003
-318.026	41.825	0.256	-0.233
-317.012	-95.824	-0.240	0.064
-315.997	17.511	-0.132	0.106
-314.983	800.000	0.093	-0.292
-313.968	303.072	-0.142	0.264
-312.953	142.104	-0.103	-0.137
-311.939	77.361	0.292	-0.312
-310.924	-168.958	-0.417	0.016
-309.910	800.000	0.089	0.266
-308.895	69.256	-0.081	0.084
-307.880	-86.861	-0.525	0.161
-306.866	-14.130	0.031	-0.020
-305.851	-69.978	0.117	-0.045
-304.837	-46.481	0.320	-0.158
-303.822	-30.331	-0.145	0.083
-302.807	-200.000	-0.006	0.168
-301.793	-84.294	0.139	-0.044
-300.778	125.533	0.066	-0.084
-299.764	-58.466	-0.331	0.145
-298.749	135.512	0.062	0.081
-297.735	209.142	-0.145	0.228
-296.720	800.000	0.075	0.254
-295.705	12.459	0.254	0.196
-294.691	-131.367	0.087	-0.012
-293.676	-79.704	-0.155	-0.053
-292.662	231.783	0.087	0.143
-291.647	-200.000	0.034	-0.328
-290.632	-200.000	0.028	0.221
-289.618	-127.714	-0.509	0.074
-288.603	-135.929	-0.233	0.028
-287.589	344.449	0.208	-0.409
-286.574	207.510	0.080	0.125
-285.559	-99.232	0.060	-0.015
-284.545	-55.277	-0.243	-0.110
-283.530	-44.237	-0.126	-0.063
-282.516	-200.000	0.039	-0.229
-281.501	-17.016	0.223	0.142
-280.486	-105.336	-0.251	0.057
-279.472	95.359	-0.042	0.048
-278.457	140.400	0.070	0.092
-277.443	224.118	-0.264	0.429
-276.428	64.209	0.068	0.069
-275.413	800.000	-0.080	-0.237
-274.399	249.158	-0.042	0.072
-273.384	169.555	-0.132	-0.189
-272.370	-66.267	0.444	-0.177
-271.355	-38.787	0.139	-0.074
-270.340	-112.104	-0.308	0.062
-269.326	-125.662	-0.211	-0.032
-268.311	265.921	-0.135	0.236
-267.297	-144.913	0.167	-0.015
-266.282	242.000	-0.049	0.082
-265.267	-200.000	-0.079	0.422
-264.253	3.329	-0.262	-0.191
-263.238	127.742	0.046	-0.058
-262.224	-77.257	-0.250	0.087
-261.209	-31.255	0.227	0.128
-260.195	590.361	-0.108	0.266
-259.180	15.813	-0.125	0.099
-258.165	-89.414	0.259	0.076
-257.151	-125.690	0.084	0.013
-256.136	-200.000	0.050	0.284
-255.122	44.625	-0.050	0.046
-254.107	-130.649	0.020	0.003
-253.092	-200.000	-0.053	-0.272
-252.078	-149.382	-0.225	-0.018
-251.063	29.196	0.201	0.171
-250.049	-29.904	0.312	-0.179
-249.034	799.437	-0.150	-0.415
-248.019	800.000	-0.062	-0.259
-247.005	-200.000	-0.030	-0.156
-245.990	-15.150	0.235	0.151
-244.976	-69.177	-0.145	-0.056
-243.961	138.288	0.198	0.260
-242.946	222.028	-0.175	0.282
-241.932	800.000	-0.047	0.140
-240.917	-1.809	0.094	0.066
-239.903	800.000	-0.073	-0.249
-238.888	-110.637	-0.320	0.066
-237.873	38.701	-0.389	-0.348
-236.859	248.456	0.070	0.119
-235.844	-110.359	0.401	-0.084
-234.830	-71.338	0.287	0.108
-233.815	-116.782	-0.083	-0.015
-232.800	-200.000	-0.061	-0.318
-231.786	5.901	-0.144	0.107
-230.771	-30.014	0.201	-0.115
-229.757	-200.000	0.021	-0.145
-228.742	-54.173	-0.146	-0.067
-227.727	-9.241	0.178	-0.119
-226.713	274.059	-0.212	0.376
-225.698	-200.000	0.021	0.274
-224.684	290.736	-0.230	0.420
-223.669	83.480	0.105	0.114
-222.655	154.071	-0.071	0.097
-221.640	253.640	0.089	0.152
-220.625	314.275	-0.075	0.142
-219.611	-165.798	0.413	-0.018
-218.596	800.000	0.052	-0.214
-217.582	-170.000	0.192	-0.007
-216.567	-200.000	-0.015	0.298
-215.552	280.292	0.086	0.153
-214.538	-200.000	-0.006	-0.044
-213.523	-90.444	0.159	-0.046
-212.509	-8.284	-0.219	-0.148
-211.494	-169.099	-0.168	-0.006
-210.479	-200.000	0.040	-0.191
-209.465	20.272	-0.338	0.273
-208.450	286.655	-0.190	0.344
-207.436	-10.488	-0.135	0.090
-206.421	-100.833	-0.649	0.160
-205.406	-5.761	0.145	0.100
-204.392	-66.840	-0.112	-0.044
-203.377	-22.081	-0.152	0.093
-202.363	86.806	0.037	-0.040
-201.348	288.591	0.113	-0.206
-200.333	-74.745	-0.052	-0.019
-199.319	597.643	-0.138	0.342
-198.304	-200.000	-0.050	-0.393
-197.290	800.000	0.070	0.206
-196.275	167.372	0.103	0.146
-195.260	-127.295	0.125	0.018
-194.246	800.000	0.060	0.200
-193.231	684.764	-0.006	0.016
-192.217	785.270	0.046	-0.126
-191.202	800.000	0.037	-0.111
-190.187	46.903	-0.132	0.123
-189.173	-47.443	-0.296	0.144
-188.158	-29.824	0.251	0.143
-187.144	24.433	-0.176	0.145
-186.129	102.456	-0.071	-0.083
-185.114	459.287	-0.051	0.113
-184.100	800.000	-0.053	0.149
-183.085	-200.000	0.017	-0.198
-182.071	494.177	-0.062	-0.143
-181.056	5.194	0.191	-0.141
-180.042	11.468	0.111	0.085
-179.027	345.240	-0.097	-0.191
-178.012	254.104	0.135	0.230
-176.998	800.000	0.013	-0.047
-175.983	29.040	-0.116	-0.098
-174.969	-200.000	-0.009	-0.093
-173.954	-200.000	0.021	-0.226
-172.939	-200.000	0.025	-0.176
-171.925	146.279	-0.131	-0.175
-170.910	800.000	-0.024	-0.069
-169.896	304.974	0.103	0.192
-168.881	107.043	0.136	0.161
-167.866	165.005	-0.204	-0.288
-166.852	67.511	-0.029	-0.029
-165.837	-66.793	0.342	-0.135
-164.823	800.000	0.053	0.149
-163.808	16.188	0.249	0.196
-162.793	31.504	-0.128	0.110
-161.779	10.445	0.050	-0.038
-160.764	-200.000	0.003	0.089
-159.750	-200.000	0.025	-0.138
-158.735	52.392	0.087	0.083
-157.720	132.842	0.118	0.152
-156.706	305.545	-0.061	0.113
-155.691	38.143	-0.090	-0.080
-154.677	-156.569	-0.339	0.021
-153.662	-200.000	-0.014	0.090
-152.647	-46.337	-0.241	-0.118
-151.633	169.861	-0.112	0.161
-150.618	800.000	0.057	0.168
-149.604	718.766	-0.107	0.285
-148.589	-200.000	0.042	-0.206
-147.574	-62.077	0.149	-0.062
-146.560	-6.511	0.041	-0.028
-145.545	-42.417	-0.318	-0.162
-144.531	-200.000	-0.010	-0.104
-143.516	-200.000	0.029	-0.283
-142.502	-13.752	-0.045	-0.029
-141.487	361.026	0.077	0.155
-140.472	111.868	-0.044	-0.053
-139.458	10.210	-0.335	-0.255
-138.443	-200.000	-0.094	0.474
-137.429	-123.660	0.543	0.086
-136.414	-21.270	0.097	-0.059
-135.399	-200.000	0.056	-0.298
-134.385	800.000	-0.030	0.109
-133.370	136.374	-0.139	0.181
-132.356	101.018	-0.086	-0.100
-131.341	-93.043	-0.123	-0.034
-130.326	-20.574	-0.205	-0.126
-129.312	-76.919	-0.067	0.024
-128.297	-45.264	-0.328	-0.162
-127.283	-62.043	-0.166	-0.069
-126.268	-154.129	0.256	0.017
-125.253	-200.000	-0.014	-0.293
-124.239	-200.000	-0.027	-0.251
-123.224	-200.000	0.028	-0.203
-122.210	123.259	-0.031	0.039
-121.195	-8.428	0.185	-0.124
-120.180	-178.771	-0.131	-0.003
-119.166	-200.000	-0.014	0.207
-118.151	-152.571	0.243	-0.017
-117.137	-25.455	0.257	0.151
-116.122	81.594	-0.099	-0.107
-115.107	800.000	0.064	-0.191
-114.093	-62.481	-0.223	-0.093
-113.078	575.302	-0.090	0.219
-112.064	291.631	-0.120	0.217
-111.049	-137.482	-0.259	0.029
-110.034	-170.150	0.142	0.005
-109.020	-170.047	0.170	0.006
-108.005	-101.976	-0.144	0.035
-106.991	-125.183	-0.241	-0.037
-105.976	144.872	0.184	0.246
-104.962	-200.000	0.003	-0.031
-103.947	360.618	-0.143	0.286
-102.932	-132.469	0.187	0.024
-101.918	126.972	0.219	-0.277
-100.903	89.513	-0.011	0.012
-99.889	156.682	-0.113	-0.156
-98.874	309.329	0.114	-0.212
-97.859	-200.000	0.004	0.140
-96.845	-27.246	0.138	-0.080
-95.830	-121.949	-0.250	-0.041
-94.816	-161.274	-0.145	0.008
-93.801	55.700	0.191	-0.185
-92.786	-43.140	0.193	-0.098
-91.772	-33.748	0.259	-0.142
-90.757	-3.936	0.416	0.287
-89.743	-200.000	0.030	0.332
-88.728	-74.289	0.104	-0.038
-87.713	-52.715	0.246	0.113
-86.699	-40.876	0.082	-0.042
-85.684	47.410	-0.038	0.035
-84.670	-185.631	-0.339	-0.005
-83.655	-54.646	-0.171	-0.077
-82.640	202.584	0.136	0.209
-81.626	-52.251	-0.332	0.153
-80.611	42.068	0.146	0.132
-79.597	-103.660	0.079	0.018
-78.582	-43.065	-0.260	-0.131
-77.567	-200.000	-0.016	-0.106
-76.553	-145.849	0.244	0.022
-75.538	-200.000	-0.039	0.201
-74.524	800.000	-0.032	-0.123
-73.509	14.486	-0.172	0.133
-72.494	123.811	0.155	0.193
-71.480	-183.554	0.111	0.002
-70.465	-21.752	-0.146	-0.088
-69.451	309.400	0.083	0.154
-68.436	-48.716	0.344	-0.165
-67.422	-102.321	-0.124	0.030
-66.407	266.777	0.131	0.228
-65.392	-0.808	0.114	0.080
-64.378	-157.323	0.309	-0.019
-63.363	-92.670	0.309	-0.086
-62.349	-59.562	0.236	0.101
-61.334	69.697	-0.731	-0.750
-60.319	139.714	0.232	0.304
-59.305	-200.000	-0.155	-0.862
-58.290	131.881	0.530	0.679
-57.276	227.675	0.968	1.567
-56.261	-200.000	84.039	504.343
-55.246	558.934	1378.309	3311.665
-54.232	181.108	2614.525	3825.243
-53.217	120.753	2271.079	2810.544
-52.203	47.864	1799.908	1673.269
-51.188	40.793	1606.457	1442.276
-50.173	38.519	1578.212	1400.614
-49.159	54.992	1619.279	1556.570
-48.144	58.989	1638.387	1603.797
-47.130	41.546	1601.022	1442.609
-46.115	38.258	1586.386	1405.763
-45.100	38.111	1582.912	1401.574
-44.086	37.870	1581.694	1398.715
-43.071	37.861	1579.869	1396.978
-42.057	37.868	1577.960	1395.290
-41.042	37.929	1576.617	1394.481
-40.027	37.983	1574.212	1392.686
-39.013	37.942	1572.842	1391.120
-37.998	37.819	1572.062	1389.499
-36.984	37.913	1570.057	1388.342
-35.969	37.929	1569.320	1387.748
-34.954	37.885	1567.845	1386.078
-33.940	37.902	1566.088	1384.592
-32.925	37.943	1564.671	1383.573
-31.911	37.991	1563.467	1382.796
-30.896	37.889	1562.455	1381.125
-29.881	38.032	1560.882	1380.686
-28.867	37.948	1559.396	1378.725
-27.852	37.906	1558.287	1377.393
-26.838	37.968	1556.351	1376.063
-25.823	38.036	1554.613	1374.953
-24.809	37.975	1552.857	1372.917
-23.794	37.973	1551.375	1371.538
-22.779	37.979	1550.625	1370.862
-21.765	37.914	1549.661	1369.499
-20.750	37.933	1548.363	1368.434
-19.736	37.928	1547.415	1367.501
-18.721	37.905	1546.003	1366.040
-17.706	37.940	1544.554	1364.949
-16.692	37.864	1543.571	1363.497
-15.677	37.963	1542.256	1362.972
-14.663	37.872	1541.223	1361.370
-13.648	37.789	1540.342	1359.956
-12.633	37.824	1539.167	1359.110
-11.619	37.838	1538.836	1358.862
-10.604	37.870	1537.382	1357.747
-9.590	37.725	1537.085	1356.422
-8.575	37.751	1536.185	1355.758
-7.560	37.797	1534.933	1354.916
-6.546	37.804	1534.245	1354.305
-5.531	37.781	1533.092	1353.075
-4.517	37.799	1532.192	1352.350
-3.502	37.771	1531.364	1351.371
-2.487	37.804	1529.979	1350.319
-1.473	37.790	1528.632	1348.982
-0.458	37.889	1527.127	1348.286
0.556	36.318	1518.493	1338.888
1.571	34.312	1491.057	1300.901
2.586	31.233	1428.310	1225.866
3.600	29.605	1342.595	1142.143
4.615	27.779	1293.470	1089.369
5.629	22.579	1231.888	1007.761
6.644	10.639	1136.847	866.542
7.659	1.673	1090.098	784.769
8.673	0.351	1083.918	773.472
9.688	0.249	1081.010	770.804
10.702	0.058	1079.546	768.714
11.717	0.083	1077.836	767.556
12.731	4.081	1082.833	791.509
13.746	14.889	1098.948	859.016
14.761	21.787	1108.250	901.824
15.775	22.420	1107.181	904.126
16.790	22.360	1107.266	903.809
17.804	22.169	1106.293	901.954
18.819	21.924	1105.345	899.842
19.834	22.101	1104.288	899.812
20.848	22.121	1103.879	899.501
21.863	22.195	1103.817	899.751
22.877	22.228	1102.876	899.074
23.892	22.119	1102.368	898.019
24.907	21.914	1101.925	896.534
25.921	22.194	1100.623	896.823
26.936	22.171	1100.032	896.143
27.950	22.084	1099.095	894.861
28.965	22.207	1097.383	894.012
29.980	21.974	1095.905	891.543
30.994	21.887	1095.000	890.289
32.009	22.094	1094.101	890.529
33.023	22.172	1093.438	890.303
34.038	22.005	1092.228	888.396
35.053	21.971	1091.343	887.428
36.067	22.198	1090.796	888.051
37.082	22.143	1089.418	886.573
38.096	22.281	1088.326	886.299
39.111	22.224	1088.537	886.106
40.126	22.352	1087.546	885.867
41.140	22.379	1085.880	884.565
42.155	22.090	1084.373	881.810
43.169	21.676	1083.612	879.036
44.184	21.753	1082.182	878.184
45.199	21.833	1081.508	877.957
46.213	21.759	1080.541	876.728
47.228	21.719	1079.418	875.538
48.242	21.926	1078.596	875.830
49.257	22.032	1077.731	875.573
50.271	22.081	1076.959	875.116
51.286	22.097	1076.288	874.574
52.301	22.224	1075.552	874.529
53.315	22.279	1074.496	873.868
54.330	22.278	1073.595	873.049
55.344	21.997	1073.377	871.400
56.359	22.042	1072.264	870.642
57.374	22.105	1071.154	869.978
58.388	21.996	1069.795	868.259
59.403	21.875	1069.828	867.607
60.417	21.969	1069.212	867.497
61.432	21.711	1068.397	865.488
62.447	21.670	1067.559	864.526
63.461	21.897	1066.836	864.984
64.476	22.006	1065.701	864.527
65.490	21.757	1065.261	862.866
66.505	21.791	1063.872	861.832
67.520	21.847	1063.334	861.596
68.534	21.973	1062.285	861.286
69.549	21.823	1061.118	859.529
70.563	21.413	1059.991	856.532
71.578	21.418	1059.295	855.916
72.593	21.522	1058.052	855.348
73.607	21.383	1057.108	853.831
74.622	21.348	1056.139	852.803
75.636	21.559	1055.186	852.985
76.651	21.625	1054.880	852.982
77.666	21.633	1053.840	852.103
78.680	21.547	1052.551	850.569
79.695	21.479	1052.394	850.037
80.709	21.600	1051.676	849.972
81.724	21.822	1050.757	850.228
82.739	21.740	1049.655	848.865
83.753	21.656	1049.483	848.244
84.768	21.950	1048.430	848.736
85.782	22.370	1047.818	850.196
86.797	22.459	1047.261	850.098
87.812	22.298	1046.805	848.879
88.826	22.176	1045.360	847.043
89.841	22.234	1044.546	846.587
90.855	22.327	1043.448	846.073
91.870	22.289	1042.948	845.408
92.884	22.389	1042.022	845.060
93.899	22.172	1041.185	843.270
94.914	22.010	1040.110	841.544
95.928	22.040	1040.091	841.598
96.943	22.245	1038.794	841.458
97.957	22.058	1036.903	838.958
98.972	21.739	1036.368	836.930
99.987	21.635	1035.295	835.490
101.001	21.694	1034.520	835.073
102.016	21.943	1034.772	836.390
103.030	22.005	1033.359	835.468
104.045	21.990	1031.956	834.189
105.060	21.811	1030.694	832.246
106.074	21.664	1029.454	830.472
107.089	21.718	1029.155	830.413
108.103	22.133	1028.512	831.785
109.118	22.072	1027.831	830.876
110.133	21.795	1026.430	828.359
111.147	21.833	1025.465	827.687
112.162	21.687	1024.156	825.867
113.176	21.583	1022.997	824.372
114.191	21.696	1022.060	824.076
115.206	21.882	1021.057	824.067
116.220	21.430	1020.102	821.102
117.235	21.293	1019.166	819.631
118.249	21.448	1018.691	819.907
119.264	21.443	1017.754	819.058
120.279	21.530	1016.865	818.675
121.293	21.498	1015.563	817.402
122.308	21.528	1015.308	817.267
123.322	21.553	1014.268	816.473
124.337	21.545	1013.187	815.496
125.352	21.563	1011.808	814.395
126.366	21.206	1009.880	811.114
127.381	20.756	1008.944	808.203
128.395	21.164	1009.030	810.094
129.410	21.853	1008.256	812.596
130.424	21.909	1007.436	812.122
131.439	21.904	1006.450	811.232
132.454	21.894	1005.421	810.283
133.468	21.924	1004.818	809.864
134.483	21.934	1003.603	808.860
135.497	21.955	1002.769	808.211
136.512	22.245	1002.145	808.974
137.527	22.266	1001.632	808.583
138.541	22.193	1000.679	807.406
139.556	22.188	999.665	806.494
140.570	22.237	998.841	805.985
141.585	22.286	998.149	805.576
142.600	22.391	997.646	805.582
143.614	22.177	996.636	803.715
144.629	22.287	995.868	803.526
145.643	22.521	995.331	804.093
146.658	22.451	994.030	802.649
147.673	22.309	992.617	800.790
148.687	22.162	991.501	799.153
149.702	22.138	990.438	798.118
150.716	22.127	989.225	797.016
151.731	22.026	988.388	795.815
152.746	22.085	987.989	795.691
153.760	22.348	987.357	796.303
154.775	22.477	986.094	795.795
155.789	22.482	985.438	795.218
156.804	22.358	984.432	793.779
157.819	22.235	983.326	792.261
158.833	22.323	982.822	792.181
159.848	22.389	982.100	791.826
160.862	22.507	980.953	791.363
161.877	22.373	979.674	789.659
162.892	22.223	979.018	788.388
163.906	22.408	978.546	788.766
164.921	22.504	977.140	787.991
165.935	22.292	976.037	786.088
166.950	22.329	975.013	785.357
167.964	22.313	974.383	784.711
168.979	22.406	973.072	783.996
169.994	22.240	972.189	782.477
171.008	22.180	970.922	781.123
172.023	22.260	970.670	781.204
173.037	22.530	969.677	781.535
174.052	22.261	968.635	779.435
175.067	22.100	967.535	777.769
176.081	22.058	966.680	776.826
177.096	22.175	965.728	776.509
178.110	22.277	964.883	776.210
179.125	21.945	963.975	773.950
180.140	21.784	962.522	772.002
181.154	21.800	961.940	771.538
182.169	22.003	961.372	771.911
183.183	22.071	961.592	772.317
184.198	22.279	961.192	772.841
185.213	22.237	960.321	771.887
186.227	22.227	959.411	771.045
187.242	22.255	959.199	770.926
188.256	22.381	958.119	770.541
189.271	22.420	957.257	769.953
190.286	22.354	956.521	769.004
191.300	22.126	955.804	767.364
192.315	21.901	954.136	764.974
193.329	21.032	952.685	759.960
194.344	20.667	951.340	757.233
195.359	21.132	951.845	759.593
196.373	22.026	951.977	763.519
197.388	22.243	951.904	764.334
198.402	22.189	950.986	763.295
199.417	22.088	950.397	762.316
200.432	22.438	949.339	762.920
201.446	22.112	948.998	761.166
202.461	21.780	948.214	759.030
203.475	21.813	947.824	758.793
204.490	21.446	946.218	755.854
205.504	20.313	944.205	749.295
206.519	20.666	944.093	750.661
207.534	21.662	944.840	755.485
208.548	21.812	944.060	755.444
209.563	22.129	943.637	756.403
210.577	22.265	942.833	756.274
211.592	22.022	941.721	754.274
212.607	22.252	941.861	755.307
213.621	22.528	941.283	755.960
214.636	22.364	940.822	754.818
215.650	22.377	939.929	754.092
216.665	22.322	939.341	753.317
217.680	22.423	938.712	753.178
218.694	22.411	938.326	752.751
219.709	22.095	937.063	750.321
220.723	21.907	935.835	748.472
221.738	22.021	935.427	748.563
222.753	22.220	935.331	749.270
223.767	22.228	934.346	748.450
224.782	22.332	933.526	748.166
225.796	22.396	933.195	748.107
226.811	22.448	932.842	747.981
227.826	22.157	931.241	745.396
228.840	21.321	929.698	740.555
229.855	21.272	928.767	739.538
230.869	21.596	928.485	740.620
231.884	21.245	927.626	738.385
232.899	21.166	927.107	737.575
233.913	21.980	927.641	741.374
234.928	22.270	926.699	741.778
235.942	22.053	926.360	740.526
236.957	22.231	925.271	740.338
237.972	21.771	924.388	737.630
238.986	21.743	923.603	736.823
240.001	22.071	922.985	737.640
241.015	21.830	922.294	736.015
242.030	21.869	922.185	736.023
243.045	22.051	921.470	736.151
244.059	22.133	920.897	735.972
245.074	22.371	920.352	736.467
246.088	22.163	919.856	735.136
247.103	21.828	918.639	732.698
248.117	21.854	918.298	732.471
249.132	22.438	918.189	734.757
250.147	22.818	917.694	735.878
251.161	22.843	917.526	735.785
252.176	22.983	917.154	736.003
253.190	23.016	915.908	735.077
254.205	23.109	915.464	735.039
255.220	23.387	915.023	735.775
256.234	23.149	914.725	734.482
257.249	23.128	913.733	733.536
258.263	22.867	913.348	732.079
259.278	22.931	912.478	731.584
260.293	22.912	911.989	731.045
261.307	23.204	911.337	731.666
262.322	23.014	910.550	730.185
263.336	22.991	909.502	729.187
264.351	22.529	908.503	726.416
265.366	21.310	906.579	719.793
266.380	20.958	905.390	717.338
267.395	21.938	905.888	721.704
268.409	22.553	906.187	724.405
269.424	22.509	905.459	723.581
270.439	22.800	904.832	724.209
271.453	22.884	904.204	723.986
272.468	22.836	903.531	723.185
273.482	22.954	903.265	723.392
274.497	23.228	902.538	723.866
275.512	23.082	901.621	722.469
276.526	22.462	900.149	718.698
277.541	22.722	899.756	719.382
278.555	22.895	899.813	720.069
279.570	22.800	898.879	718.869
280.585	22.650	898.095	717.571
281.599	22.651	897.797	717.273
282.614	22.799	897.040	717.204
283.628	22.352	895.961	714.466
284.643	22.017	895.015	712.289
285.657	22.423	894.982	713.845
286.672	22.276	894.325	712.661
287.687	21.844	893.245	709.988
288.701	22.195	893.013	711.165
289.716	22.665	892.823	712.849
290.730	22.239	891.883	710.316
291.745	22.140	891.009	709.156
292.760	21.997	890.001	707.714
293.774	21.897	889.404	706.775
294.789	22.768	890.256	710.899
295.803	23.280	890.511	713.103
296.818	23.411	889.676	712.897
297.833	23.630	889.153	713.298
298.847	23.301	888.075	711.047
299.862	22.895	886.628	708.198
300.876	23.070	886.650	708.856
301.891	23.380	886.211	709.685
302.906	23.390	885.656	709.216
303.920	23.051	884.342	706.749
304.935	22.778	883.681	705.063
305.949	23.275	883.771	707.060
306.964	23.403	882.896	706.807
307.979	23.201	882.117	705.315
308.993	23.057	881.994	704.581
310.008	23.439	881.554	705.687
311.022	23.429	881.331	705.408
312.037	23.336	880.318	704.164
313.052	23.232	879.462	703.006
314.066	23.285	878.218	702.160
315.081	22.547	876.885	698.108
316.095	21.735	876.188	694.276
317.110	22.141	876.449	696.031
318.125	23.064	876.199	699.423
319.139	22.696	875.274	697.168
320.154	21.406	874.227	691.175
321.168	21.063	872.691	688.549
322.183	21.773	872.492	691.131
323.197	22.685	873.221	695.245
324.212	22.998	872.470	695.817
325.227	23.083	872.377	696.016
326.241	23.220	872.098	696.272
327.256	23.031	871.884	695.293
328.270	23.031	870.926	694.469
329.285	22.771	870.379	692.949
330.300	22.841	869.372	692.362
331.314	22.668	868.145	690.648
332.329	22.730	867.682	690.459
333.343	23.050	867.417	691.439
334.358	23.185	867.348	691.849
335.373	23.317	866.226	691.408
336.387	23.405	865.955	691.475
337.402	23.388	865.599	691.064
338.416	23.580	865.511	691.682
339.431	23.669	864.907	691.482
340.446	23.738	864.352	691.247
341.460	23.855	863.634	691.068
342.475	23.849	863.218	690.651
343.489	23.500	862.633	688.764
344.504	23.625	861.673	688.423
345.519	23.732	861.678	688.781
346.533	23.971	860.850	688.983
347.548	24.009	860.542	688.824
348.562	24.106	859.959	688.670
349.577	24.015	859.745	688.086
350.592	23.956	858.896	687.118
351.606	23.892	858.478	686.476
352.621	24.025	858.098	686.625
353.635	23.961	857.345	685.716
354.650	23.809	856.944	684.747
355.665	23.461	856.183	682.737
356.679	22.524	854.146	677.453
357.694	22.345	853.588	676.261
358.708	23.031	853.742	678.959
359.723	23.054	852.526	678.021
360.738	23.224	852.848	678.871
361.752	23.594	852.766	680.161
362.767	23.731	852.236	680.205
363.781	24.023	852.528	681.496
364.796	24.370	851.961	682.309
365.810	24.437	851.811	682.387
366.825	24.397	850.940	681.474
367.840	24.351	850.808	681.134
368.854	24.238	850.222	680.173
369.869	23.838	849.207	677.776
370.883	23.610	848.200	676.044
371.898	23.830	847.840	676.536
372.913	23.778	846.787	675.436
373.927	23.708	846.538	674.913
374.942	23.804	846.275	675.008
375.956	24.052	845.839	675.539
376.971	24.082	844.951	674.884
377.986	24.190	844.430	674.817
379.000	24.311	844.301	675.113
380.015	24.391	843.853	675.000
381.029	24.025	843.163	673.001
382.044	24.144	842.661	672.993
383.059	24.328	841.825	672.958
384.073	24.280	841.314	672.310
385.088	24.372	841.063	672.398
386.102	24.502	840.020	671.993
387.117	24.220	839.497	670.456
388.132	24.146	838.910	669.649
389.146	23.996	838.148	668.417
390.161	23.370	837.227	665.275
391.175	23.462	837.086	665.449
392.190	23.822	836.915	666.603
393.205	24.078	836.050	666.816
394.219	23.078	834.425	661.719
395.234	21.504	832.117	653.955
396.248	20.622	831.191	649.873
397.263	21.791	832.051	654.858
398.278	23.630	832.938	662.367
399.292	24.111	833.142	664.267
400.307	23.788	832.511	662.501
401.321	23.683	832.040	661.677
402.336	23.707	831.812	661.524
403.350	24.285	830.995	662.969
404.365	24.332	831.586	663.555
405.380	24.822	830.975	664.827
406.394	25.023	830.823	665.395
407.409	25.055	831.061	665.648
408.423	25.051	830.036	664.753
409.438	25.093	829.137	664.129
410.453	25.086	828.873	663.830
411.467	25.209	828.485	663.919
412.482	25.110	827.838	662.976
413.496	25.067	827.398	662.405
414.511	25.128	826.966	662.226
415.526	25.159	826.518	661.922
416.540	25.023	826.466	661.319
417.555	24.935	825.948	660.523
418.569	24.761	824.959	659.031
419.584	24.523	824.642	657.846
420.599	24.729	824.086	658.102
421.613	148.747	1364.158	1777.505
422.628	129.589	1442.874	1777.617
