DTS Sentinel unit serial number:	SN413079Multiplexer serial number:	ORYXHardware model number:	OX4-SRSoftware version number:	ORYX F/W v4.00 Oryx Data Collector v3.7.2.0data status	okinstallation	princeton_trtdifferential loss correction	single-endedforward channel	channel 3reverse channel	N/Adate	2019/09/19time	15:12:35forward acquisition time	60.00reverse acquisition time	0.00gamma	496.2192k internal	0.2314k external	0.2314temperature offset calibration	1.0006default loss term (dB/km)	0.3790temperature slope calibration	1.0000multiplexer offset coefficient	1.0000multiplexer slope coefficient	1.0000fibre end	0.00T internal ref (°C)	33.52T ext. ref 1 (°C)	1.12T ext. ref 2 (°C)	30.52length (m)	temperature (°C)	Stokes	anti-Stokes-747.200	161.415	-0.043	-0.061
-746.185	30.309	-0.146	0.126
-745.171	-68.248	-0.064	-0.025
-744.156	127.962	0.213	0.275
-743.142	-58.835	-0.062	-0.027
-742.127	0.031	0.133	-0.096
-741.112	-200.000	0.019	-0.230
-740.098	234.841	0.088	0.147
-739.083	-2.838	-0.095	-0.067
-738.069	-131.765	-0.165	-0.022
-737.054	168.567	0.053	0.077
-736.039	5.792	-0.472	-0.354
-735.025	-44.229	0.133	0.068
-734.010	512.882	-0.036	0.085
-732.996	-200.000	0.031	0.174
-731.981	-85.346	-0.276	0.087
-730.966	-58.285	-0.365	0.161
-729.952	-200.000	0.020	-0.276
-728.937	-137.579	-0.081	-0.009
-727.923	23.749	-0.334	-0.279
-726.908	104.028	-0.266	-0.316
-725.894	612.400	0.006	0.015
-724.879	193.780	0.116	-0.179
-723.864	28.528	0.108	-0.093
-722.850	352.420	0.117	-0.235
-721.835	-200.000	0.004	-0.076
-720.821	-72.246	-0.141	0.053
-719.806	52.505	0.257	-0.249
-718.791	10.781	-0.174	-0.135
-717.777	-200.000	-0.050	-0.295
-716.762	51.434	-0.134	0.129
-715.748	-30.740	-0.210	0.120
-714.733	-200.000	-0.006	-0.462
-713.718	-200.000	0.014	-0.383
-712.704	-56.064	0.427	0.193
-711.689	-200.000	0.004	-0.348
-710.675	285.892	0.193	0.352
-709.660	-84.832	0.033	0.011
-708.645	83.086	-0.088	-0.097
-707.631	384.771	-0.171	0.356
-706.616	20.208	0.010	-0.008
-705.602	-72.906	-0.222	-0.083
-704.587	-199.930	0.089	0.000
-703.572	50.035	-0.130	-0.124
-702.558	-122.737	-0.107	-0.018
-701.543	-170.193	0.165	0.006
-700.529	548.763	-0.156	-0.377
-699.514	-53.903	0.119	-0.055
-698.499	-200.000	0.025	-0.239
-697.485	800.000	0.050	-0.213
-696.470	-27.170	-0.212	-0.125
-695.456	-141.789	-0.174	0.018
-694.441	-73.046	0.371	0.138
-693.426	-46.267	-0.031	-0.015
-692.412	-8.311	-0.296	-0.202
-691.397	300.329	0.037	0.069
-690.383	-93.274	0.336	-0.094
-689.368	-60.536	0.327	0.140
-688.354	-200.000	-0.017	-0.196
-687.339	-138.009	0.216	0.024
-686.324	33.607	0.138	-0.121
-685.310	-200.000	0.056	-0.263
-684.295	20.166	-0.151	0.123
-683.281	800.000	-0.029	-0.109
-682.266	60.956	-0.107	-0.108
-681.251	440.818	-0.089	0.197
-680.237	-69.316	-0.142	0.055
-679.222	-108.915	0.617	-0.133
-678.208	115.615	0.086	0.107
-677.193	-33.780	0.186	-0.104
-676.178	612.182	0.035	-0.087
-675.164	-200.000	0.057	0.308
-674.149	-28.454	-0.265	0.155
-673.135	560.599	-0.059	0.143
-672.120	-200.000	0.004	-0.092
-671.105	19.282	0.071	0.057
-670.091	65.605	-0.280	-0.287
-669.076	-200.000	-0.034	0.251
-668.062	79.917	0.123	0.134
-667.047	800.000	-0.087	0.339
-666.032	-104.733	-0.379	-0.088
-665.018	344.909	0.156	-0.310
-664.003	-200.000	-0.021	0.170
-662.989	-37.104	-0.121	-0.066
-661.974	800.000	-0.028	-0.119
-660.959	25.565	-0.106	0.089
-659.945	-179.059	0.262	-0.006
-658.930	-27.638	0.141	0.083
-657.916	-23.928	0.256	-0.155
-656.901	-3.887	0.042	-0.030
-655.886	40.613	-0.312	-0.284
-654.872	387.425	-0.081	-0.170
-653.857	-27.693	-0.156	-0.092
-652.843	89.618	0.169	0.190
-651.828	487.863	-0.065	0.150
-650.814	57.318	-0.107	-0.106
-649.799	-166.479	-0.267	-0.011
-648.784	211.736	-0.107	0.171
-647.770	71.329	-0.237	0.249
-646.755	-69.908	-0.137	-0.053
-645.741	-102.605	0.256	0.062
-644.726	-200.000	-0.010	-0.077
-643.711	599.469	0.021	-0.053
-642.697	337.335	-0.051	0.101
-641.682	57.889	-0.230	0.227
-640.668	-11.596	-0.222	-0.147
-639.653	-200.000	-0.020	-0.158
-638.638	370.017	-0.030	0.061
-637.624	-200.000	-0.047	0.383
-636.609	-81.234	0.120	0.040
-635.595	-58.606	0.136	0.060
-634.580	297.142	0.183	0.338
-633.565	-33.754	0.057	-0.032
-632.551	-200.000	0.035	0.176
-631.536	-200.000	-0.016	-0.119
-630.522	62.521	-0.139	-0.140
-629.507	418.802	0.105	0.227
-628.492	-200.000	-0.007	-0.081
-627.478	-73.268	-0.196	0.072
-626.463	-91.777	-0.172	-0.049
-625.449	800.000	0.032	0.103
-624.434	299.480	0.112	0.207
-623.419	-176.711	0.328	-0.008
-622.405	-50.883	-0.072	-0.034
-621.390	13.115	0.088	0.069
-620.376	-200.000	-0.024	-0.252
-619.361	92.537	-0.178	0.203
-618.346	-200.000	0.033	0.277
-617.332	800.000	0.125	0.365
-616.317	800.000	-0.121	0.374
-615.303	-80.180	0.128	-0.043
-614.288	-200.000	-0.032	-0.144
-613.273	-200.000	0.094	-0.454
-612.259	-0.837	0.159	-0.114
-611.244	-200.000	-0.009	0.362
-610.230	-200.000	-0.006	-0.489
-609.215	-2.354	0.125	0.089
-608.201	13.312	0.243	-0.190
-607.186	-151.000	0.279	-0.021
-606.171	62.396	-0.206	0.207
-605.157	800.000	0.074	-0.291
-604.142	125.715	-0.168	-0.214
-603.128	-73.884	-0.310	0.114
-602.113	-105.671	0.037	-0.008
-601.098	-175.254	0.225	0.006
-600.084	800.000	0.043	-0.134
-599.069	-24.837	-0.119	0.071
-598.055	194.286	0.061	0.094
-597.040	-123.702	-0.410	0.065
-596.025	746.382	0.115	0.313
-595.011	54.316	-0.037	0.036
-593.996	-19.769	-0.041	-0.026
-592.982	-200.000	-0.035	0.185
-591.967	158.597	0.173	-0.242
-590.952	243.837	0.155	-0.262
-589.938	-150.193	0.186	0.015
-588.923	-53.845	0.376	-0.173
-587.909	-117.089	0.295	-0.054
-586.894	362.734	0.111	0.225
-585.879	800.000	-0.074	0.306
-584.865	-200.000	-0.018	0.118
-583.850	318.352	0.057	0.108
-582.836	-200.000	0.037	-0.418
-581.821	-87.329	0.130	0.040
-580.806	-19.803	-0.215	0.134
-579.792	-96.529	-0.192	0.051
-578.777	-151.711	0.342	-0.025
-577.763	-200.000	-0.019	0.253
-576.748	-37.701	-0.173	0.093
-575.733	-99.768	0.198	0.050
-574.719	-200.000	-0.042	-0.259
-573.704	-200.000	-0.031	0.207
-572.690	-104.520	-0.099	0.023
-571.675	-94.652	-0.290	-0.079
-570.661	-114.565	-0.035	0.007
-569.646	-41.794	-0.018	-0.009
-568.631	-157.042	-0.341	0.021
-567.617	46.053	-0.330	-0.308
-566.602	34.944	-0.103	-0.091
-565.588	143.958	-0.072	-0.097
-564.573	-97.860	0.228	0.059
-563.558	-200.000	-0.033	0.579
-562.544	-124.565	0.379	0.059
-561.529	-86.124	-0.158	-0.049
-560.515	-200.000	0.006	0.140
-559.500	-200.000	0.002	0.221
-558.485	-180.529	0.193	0.004
-557.471	-68.308	-0.203	0.079
-556.456	252.446	-0.055	-0.095
-555.442	-81.515	0.167	-0.055
-554.427	-148.325	0.108	0.009
-553.412	-200.000	0.024	0.303
-552.398	-200.000	-0.015	-0.072
-551.383	-200.000	-0.009	0.111
-550.369	598.444	-0.077	-0.192
-549.354	84.673	-0.120	-0.132
-548.339	-200.000	-0.008	-0.140
-547.325	553.379	-0.109	-0.264
-546.310	-115.771	0.304	-0.057
-545.296	-136.300	-0.152	-0.018
-544.281	470.572	0.067	-0.152
-543.266	57.993	-0.220	0.217
-542.252	800.000	0.030	0.105
-541.237	22.958	0.263	-0.217
-540.223	-96.754	-0.401	-0.106
-539.208	332.733	0.047	0.092
-538.193	-77.256	-0.172	0.060
-537.179	-30.333	0.207	-0.118
-536.164	-9.763	-0.139	0.093
-535.150	-70.169	0.270	0.103
-534.135	-122.380	0.101	0.016
-533.121	-69.759	-0.191	-0.074
-532.106	602.717	0.104	-0.260
-531.091	-146.765	-0.131	0.011
-530.077	162.396	0.119	-0.167
-529.062	800.000	0.091	-0.345
-528.048	-200.000	0.021	-0.166
-527.033	-41.615	-0.199	0.103
-526.018	-4.118	-0.232	-0.162
-525.004	800.000	-0.045	-0.166
-523.989	572.982	0.067	0.163
-522.975	64.886	0.166	0.168
-521.960	800.000	0.013	-0.050
-520.945	-151.848	0.039	-0.003
-519.931	-74.321	-0.327	0.119
-518.916	103.931	-0.131	0.155
-517.902	-81.951	-0.284	-0.093
-516.887	76.869	-0.118	-0.126
-515.872	21.150	-0.266	0.217
-514.858	45.205	0.144	0.134
-513.843	-4.636	0.198	0.137
-512.829	254.329	-0.127	0.219
-511.814	355.933	-0.153	-0.305
-510.799	-75.394	-0.376	0.135
-509.785	103.020	0.115	-0.135
-508.770	-193.000	-0.343	0.003
-507.756	357.555	-0.122	0.244
-506.741	-96.207	0.258	-0.069
-505.726	-153.825	-0.184	0.013
-504.712	259.151	-0.069	-0.120
-503.697	-200.000	-0.012	-0.222
-502.683	239.951	0.021	-0.036
-501.668	214.637	-0.061	0.097
-500.653	74.021	0.100	0.106
-499.639	51.741	0.081	-0.077
-498.624	687.681	0.097	-0.254
-497.610	800.000	0.058	0.249
-496.595	800.000	-0.059	-0.251
-495.581	-200.000	-0.006	-0.304
-494.566	-200.000	0.072	0.329
-493.551	-200.000	-0.078	0.409
-492.537	-139.344	-0.048	-0.005
-491.522	10.949	0.138	-0.106
-490.508	-167.950	-0.367	-0.014
-489.493	410.733	0.111	0.236
-488.478	128.267	0.280	0.357
-487.464	109.251	0.059	0.071
-486.449	-25.715	-0.375	-0.222
-485.435	117.545	-0.036	-0.044
-484.420	504.273	-0.217	0.503
-483.405	-135.010	0.406	-0.049
-482.391	-16.822	0.203	-0.129
-481.376	11.239	-0.173	-0.133
-480.362	-3.382	0.306	0.214
-479.347	-36.797	0.447	-0.241
-478.332	-141.059	0.279	0.029
-477.318	800.000	-0.015	-0.048
-476.303	43.259	0.210	0.192
-475.289	-200.000	0.048	0.402
-474.274	-46.478	0.182	0.090
-473.259	170.261	-0.045	0.065
-472.245	-200.000	-0.010	-0.471
-471.230	-81.783	0.226	0.074
-470.216	800.000	-0.091	-0.386
-469.201	-44.293	0.162	0.081
-468.186	-145.558	0.361	0.032
-467.172	30.682	0.197	-0.169
-466.157	-200.000	0.023	0.141
-465.143	-88.569	-0.082	0.025
-464.128	-200.000	-0.035	-0.265
-463.113	-66.255	-0.220	-0.088
-462.099	100.333	0.047	0.055
-461.084	513.393	0.067	-0.157
-460.070	-149.500	-0.378	-0.030
-459.055	-58.098	-0.114	0.050
-458.040	-129.155	0.076	-0.011
-457.026	800.000	0.150	-0.424
-456.011	-200.000	0.004	-0.069
-454.997	-200.000	-0.036	0.255
-453.982	164.291	0.165	0.234
-452.968	92.598	0.032	0.037
-451.953	-35.320	0.212	-0.116
-450.938	-121.900	-0.161	0.027
-449.924	-200.000	0.006	-0.064
-448.909	-200.000	-0.023	-0.170
-447.895	9.655	-0.142	0.108
-446.880	-32.411	-0.104	0.058
-445.865	800.000	-0.126	-0.529
-444.851	-200.000	0.047	-0.237
-443.836	-200.000	0.018	-0.152
-442.822	-164.461	-0.296	0.014
-441.807	-200.000	0.041	-0.264
-440.792	132.598	-0.262	-0.339
-439.778	23.213	0.176	0.144
-438.763	-20.495	-0.252	-0.155
-437.749	-32.798	0.256	0.143
-436.734	82.326	-0.190	0.206
-435.719	18.291	0.221	-0.177
-434.705	-200.000	-0.018	-0.151
-433.690	273.460	-0.108	0.191
-432.676	-200.000	-0.025	-0.180
-431.661	294.076	-0.041	0.075
-430.646	580.664	-0.119	0.292
-429.632	-61.109	0.376	0.159
-428.617	-51.913	-0.092	-0.043
-427.603	-90.584	0.312	0.090
-426.588	-188.479	0.333	0.004
-425.573	-120.150	0.063	-0.011
-424.559	-91.842	-0.379	0.108
-423.544	-200.000	-0.009	-0.197
-422.530	337.015	0.129	-0.251
-421.515	800.000	0.005	0.017
-420.500	-200.000	-0.028	0.214
-419.486	11.517	-0.169	0.130
-418.471	-157.584	-0.077	0.005
-417.457	-120.397	-0.167	0.028
-416.442	-136.106	-0.135	-0.016
-415.428	-200.000	0.038	0.351
-414.413	-147.259	-0.138	0.012
-413.398	-48.001	-0.386	0.187
-412.384	196.264	-0.039	-0.060
-411.369	44.358	-0.065	0.060
-410.355	-0.068	-0.197	-0.140
-409.340	-0.532	-0.160	0.114
-408.325	-146.548	-0.108	0.009
-407.311	31.786	0.238	0.205
-406.296	90.504	0.032	-0.035
-405.282	-144.081	0.218	0.020
-404.267	229.202	0.013	0.022
-403.252	-46.946	0.106	-0.052
-402.238	248.811	-0.081	0.138
-401.223	74.672	-0.177	0.187
-400.209	549.036	0.042	-0.101
-399.194	-140.079	-0.163	0.017
-398.179	-200.000	0.089	0.547
-397.165	-76.076	-0.114	0.040
-396.150	443.860	-0.214	-0.470
-395.136	-135.488	-0.184	0.022
-394.121	44.718	0.114	-0.105
-393.106	-160.291	-0.113	-0.006
-392.092	-50.825	0.146	-0.068
-391.077	-102.547	0.309	-0.074
-390.063	120.091	0.123	-0.153
-389.048	-200.000	-0.076	0.407
-388.033	173.763	0.079	0.113
-387.019	800.000	0.015	0.049
-386.004	37.680	0.303	-0.269
-384.990	-200.000	0.011	-0.118
-383.975	-143.636	-0.023	-0.002
-382.960	27.501	0.225	-0.189
-381.946	-85.784	-0.170	0.053
-380.931	-83.522	0.062	-0.020
-379.917	119.710	-0.033	0.041
-378.902	-113.194	0.155	-0.030
-377.888	-141.132	0.265	0.027
-376.873	42.601	0.084	-0.077
-375.858	364.568	0.154	0.310
-374.844	56.259	-0.160	0.155
-373.829	-40.197	-0.079	-0.041
-372.815	-37.814	-0.182	0.097
-371.800	26.308	0.086	0.072
-370.785	3.382	0.241	0.175
-369.771	295.516	-0.115	0.211
-368.756	-47.738	0.165	0.080
-367.742	-102.125	-0.243	0.058
-366.727	81.751	0.063	0.068
-365.712	114.323	0.065	-0.079
-364.698	-160.712	0.082	-0.004
-363.683	-200.000	0.015	0.279
-362.669	-91.289	0.132	0.038
-361.654	673.652	0.073	0.190
-360.639	254.516	-0.053	-0.090
-359.625	-113.654	-0.051	-0.010
-358.610	-166.957	-0.357	-0.015
-357.596	-18.543	-0.060	0.037
-356.581	34.195	0.294	0.256
-355.566	-47.171	0.142	0.069
-354.552	185.476	-0.083	0.124
-353.537	-87.030	-0.170	-0.052
-352.523	728.970	0.066	-0.176
-351.508	-41.213	-0.187	0.097
-350.493	-135.362	-0.167	-0.020
-349.479	-118.993	0.165	-0.029
-348.464	177.365	-0.111	0.162
-347.450	800.000	-0.062	-0.222
-346.435	122.102	-0.073	0.091
-345.420	-200.000	0.037	-0.333
-344.406	-146.737	0.153	-0.013
-343.391	-38.603	0.059	0.031
-342.377	-23.124	-0.095	-0.057
-341.362	-63.410	0.217	-0.089
-340.348	-200.000	0.012	-0.094
-339.333	800.000	0.063	0.216
-338.318	513.706	0.066	0.153
-337.304	-27.706	-0.076	-0.044
-336.289	-200.000	-0.050	-0.286
-335.275	-90.543	-0.319	-0.092
-334.260	800.000	-0.097	0.355
-333.245	155.104	0.126	0.173
-332.231	-31.456	-0.288	0.162
-331.216	-12.726	0.290	-0.189
-330.202	-200.000	0.031	-0.199
-329.187	800.000	-0.096	-0.317
-328.172	-8.483	0.199	0.133
-327.158	-33.272	0.062	-0.034
-326.143	-200.000	-0.007	-0.633
-325.129	-95.110	-0.177	-0.048
-324.114	113.055	0.038	-0.046
-323.099	800.000	-0.017	0.060
-322.085	-51.494	0.197	-0.092
-321.070	-200.000	-0.004	0.202
-320.056	160.827	-0.181	0.252
-319.041	-200.000	0.003	0.193
-318.026	-7.245	-0.166	0.112
-317.012	-108.072	0.208	-0.045
-315.997	106.653	-0.182	0.215
-314.983	226.583	-0.135	0.218
-313.968	-200.000	0.005	0.131
-312.953	-156.163	0.258	-0.016
-311.939	-104.876	-0.257	-0.059
-310.924	-64.075	-0.062	0.025
-309.910	-124.320	-0.156	0.024
-308.895	55.870	0.086	-0.083
-307.880	208.226	-0.090	0.140
-306.866	289.912	-0.132	0.239
-305.851	-10.742	-0.097	-0.064
-304.837	-153.026	-0.292	-0.020
-303.822	-103.227	0.212	0.050
-302.807	3.355	0.216	-0.157
-301.793	68.050	-0.193	0.197
-300.778	-163.567	0.126	0.006
-299.764	85.708	0.029	-0.032
-298.749	-30.571	-0.389	-0.220
-297.735	800.000	-0.094	-0.314
-296.720	-34.097	0.126	0.069
-295.705	-145.968	0.251	-0.022
-294.691	-14.575	0.341	0.218
-293.676	472.314	0.095	-0.214
-292.662	-104.129	-0.412	-0.095
-291.647	146.661	0.023	-0.030
-290.632	-60.668	0.250	0.105
-289.618	312.858	0.120	0.225
-288.603	-30.197	0.342	0.193
-287.589	89.758	-0.078	0.086
-286.574	190.821	-0.012	0.019
-285.559	-122.443	0.029	-0.005
-284.545	-19.860	0.491	-0.302
-283.530	800.000	-0.065	-0.223
-282.516	-75.814	0.255	0.090
-281.501	-102.545	0.388	-0.092
-280.486	-56.862	-0.247	-0.109
-279.472	-200.000	-0.033	-0.158
-278.457	298.457	-0.091	-0.167
-277.443	748.695	0.031	0.084
-276.428	55.488	-0.116	-0.112
-275.413	248.405	0.090	-0.151
-274.399	-68.896	0.296	-0.114
-273.384	-0.769	-0.173	-0.122
-272.370	-103.841	-0.294	-0.068
-271.355	800.000	0.077	0.308
-270.340	286.402	-0.099	-0.178
-269.326	-92.308	0.178	0.050
-268.311	236.875	0.198	-0.326
-267.297	800.000	-0.066	-0.226
-266.282	-83.406	-0.289	0.092
-265.267	350.265	-0.075	0.148
-264.253	-43.882	-0.207	-0.104
-263.238	36.637	-0.091	-0.080
-262.224	133.228	0.128	0.164
-261.209	-53.977	-0.254	-0.115
-260.195	-200.000	-0.019	-0.289
-259.180	91.608	-0.102	0.114
-258.165	-200.000	-0.027	0.135
-257.151	297.468	0.136	-0.248
-256.136	73.495	-0.214	-0.223
-255.122	-69.003	-0.157	-0.060
-254.107	33.663	-0.138	0.119
-253.092	-2.753	0.201	-0.140
-252.078	-156.948	0.117	-0.007
-251.063	-46.242	-0.237	0.116
-250.049	-200.000	0.095	0.507
-249.034	-29.911	-0.179	-0.101
-248.019	-107.495	0.176	0.038
-247.005	50.254	0.214	0.201
-245.990	-200.000	-0.008	-0.101
-244.976	740.232	0.071	0.189
-243.961	419.090	0.099	0.209
-242.946	-85.176	-0.427	-0.133
-241.932	-139.978	-0.294	-0.031
-240.917	800.000	-0.158	-0.467
-239.903	-187.000	0.152	0.002
-238.888	-200.000	0.003	-0.191
-237.873	-157.405	0.139	0.008
-236.859	800.000	-0.049	-0.173
-235.844	391.133	0.071	0.147
-234.830	17.810	-0.082	-0.065
-233.815	-200.000	0.034	0.300
-232.800	-84.287	-0.325	0.102
-231.786	79.992	-0.400	-0.428
-230.771	-80.255	0.360	0.119
-229.757	-200.000	-0.023	0.168
-228.742	38.656	0.059	-0.053
-227.727	8.897	-0.097	-0.073
-226.713	800.000	0.095	-0.343
-225.698	-18.316	-0.192	-0.119
-224.684	-151.936	-0.313	0.023
-223.669	159.884	0.232	0.322
-222.655	503.503	0.035	-0.080
-221.640	-200.000	-0.006	0.057
-220.625	116.626	0.141	-0.171
-219.611	-200.000	-0.016	-0.297
-218.596	87.473	-0.024	-0.026
-217.582	96.459	0.063	-0.071
-216.567	-200.000	0.030	-0.132
-215.552	-81.525	0.281	-0.092
-214.538	800.000	0.040	0.113
-213.523	-72.942	0.186	-0.068
-212.509	-119.704	0.310	-0.053
-211.494	800.000	0.104	0.302
-210.479	-200.000	-0.026	-0.153
-209.465	-200.000	-0.006	0.355
-208.450	-11.796	0.291	-0.189
-207.436	-200.000	0.037	0.191
-206.421	156.525	0.168	0.231
-205.406	77.993	-0.238	0.252
-204.392	636.552	-0.097	0.244
-203.377	645.130	-0.142	0.360
-202.363	128.427	-0.085	-0.108
-201.348	-200.000	-0.031	-0.228
-200.333	800.000	0.023	-0.092
-199.319	-39.687	0.233	0.121
-198.304	800.000	-0.026	-0.078
-197.290	290.326	-0.072	-0.130
-196.275	354.448	0.123	0.242
-195.260	-200.000	0.025	0.147
-194.246	-111.681	0.061	-0.012
-193.231	-111.645	-0.016	0.003
-192.217	20.145	-0.024	0.019
-191.202	-117.974	0.211	0.037
-190.187	58.972	0.184	-0.180
-189.173	-67.037	0.356	-0.139
-188.158	-200.000	-0.006	-0.154
-187.144	54.373	0.217	-0.207
-186.129	800.000	0.077	0.281
-185.114	633.965	0.074	-0.186
-184.100	-80.909	-0.131	-0.043
-183.085	-82.197	0.222	-0.072
-182.071	-200.000	0.030	0.193
-181.056	-99.499	-0.237	-0.059
-180.042	53.930	-0.300	-0.286
-179.027	-68.499	0.090	-0.035
-178.012	2.388	0.157	-0.113
-176.998	111.077	0.068	0.081
-175.983	483.457	-0.059	-0.133
-174.969	-54.552	-0.205	-0.092
-173.954	-48.919	-0.202	0.096
-172.939	337.036	-0.070	0.135
-171.925	23.988	0.074	-0.060
-170.910	-46.454	-0.131	-0.064
-169.896	-200.000	0.039	-0.213
-168.881	-200.000	0.027	0.129
-167.866	-200.000	0.011	-0.145
-166.852	-164.963	-0.158	-0.007
-165.837	800.000	0.149	-0.414
-164.823	-90.477	0.298	-0.086
-163.808	298.645	0.077	-0.141
-162.793	89.540	-0.146	0.161
-161.779	-200.000	-0.039	0.316
-160.764	-28.249	-0.241	0.138
-159.750	-200.000	0.000	-0.063
-158.735	35.777	-0.228	-0.199
-157.720	800.000	-0.012	0.045
-156.706	407.147	-0.056	-0.117
-155.691	800.000	0.034	0.122
-154.677	-3.073	-0.180	-0.124
-153.662	540.375	0.048	-0.114
-152.647	261.390	0.114	-0.195
-151.633	112.970	0.175	-0.210
-150.618	-60.315	0.101	0.042
-149.604	63.243	0.331	-0.328
-148.589	-124.859	-0.271	-0.041
-147.574	800.000	0.045	0.162
-146.560	-200.000	-0.021	0.252
-145.545	205.790	0.080	0.124
-144.531	-200.000	-0.032	-0.200
-143.516	245.892	0.069	0.114
-142.502	75.037	0.105	0.110
-141.487	537.869	-0.071	-0.167
-140.472	78.702	0.156	0.165
-139.458	-109.761	-0.390	-0.081
-138.443	-126.341	0.164	-0.024
-137.429	800.000	-0.030	0.096
-136.414	-194.949	-0.019	-0.000
-135.399	21.354	0.238	-0.191
-134.385	-200.000	0.016	-0.173
-133.370	-25.987	-0.115	-0.067
-132.356	40.034	-0.151	0.134
-131.341	-110.897	0.117	0.024
-130.326	-5.296	0.103	-0.070
-129.312	621.560	0.094	-0.235
-128.297	-192.921	0.233	0.002
-127.283	101.598	-0.142	0.163
-126.268	387.508	-0.162	-0.332
-125.253	155.207	-0.131	-0.179
-124.239	-67.904	0.241	0.093
-123.224	37.069	-0.055	-0.048
-122.210	-35.933	-0.236	0.126
-121.195	219.683	-0.059	-0.093
-120.180	-34.142	-0.234	0.127
-119.166	557.190	-0.089	-0.212
-118.151	-67.011	0.293	-0.114
-117.137	-200.000	-0.008	-0.256
-116.122	-99.019	-0.064	-0.016
-115.107	-200.000	-0.043	0.264
-114.093	206.168	-0.081	0.125
-113.078	-165.756	0.209	-0.009
-112.064	-200.000	0.026	-0.362
-111.049	-48.401	0.170	-0.081
-110.034	-100.407	-0.122	0.030
-109.020	2.016	-0.028	-0.020
-108.005	482.115	0.156	-0.351
-106.991	34.880	0.095	-0.082
-105.976	425.210	-0.020	-0.042
-104.962	-136.451	-0.199	-0.023
-103.947	657.986	0.168	0.428
-102.932	-152.213	0.007	-0.000
-101.918	25.420	-0.170	0.139
-100.903	-131.538	-0.209	-0.027
-99.889	-29.041	0.134	0.076
-98.874	800.000	0.036	-0.134
-97.859	107.267	0.093	-0.109
-96.845	-200.000	0.076	-0.340
-95.830	-102.769	-0.203	0.048
-94.816	-108.209	0.327	-0.070
-93.801	800.000	-0.105	-0.339
-92.786	41.475	0.111	0.099
-91.772	-18.420	-0.279	0.172
-90.757	376.629	0.108	0.219
-89.743	-200.000	-0.044	0.391
-88.728	-33.921	-0.066	-0.036
-87.713	-200.000	-0.029	-0.379
-86.699	-200.000	-0.033	-0.352
-85.684	-98.011	0.245	-0.062
-84.670	-112.608	0.207	0.041
-83.655	-104.623	-0.276	0.063
-82.640	-200.000	0.007	-0.122
-81.626	-200.000	-0.002	-0.015
-80.611	-200.000	0.080	-0.581
-79.597	266.977	0.135	0.233
-78.582	-53.579	-0.355	0.160
-77.567	28.396	-0.129	-0.108
-76.553	-164.140	0.276	0.013
-75.538	510.864	0.152	0.348
-74.524	597.570	0.058	0.142
-73.509	800.000	-0.114	-0.310
-72.494	-47.663	0.050	0.024
-71.480	136.124	0.180	0.231
-70.465	-28.775	0.148	-0.084
-69.451	192.184	0.249	0.371
-68.436	-38.557	0.195	0.102
-67.422	145.505	0.084	-0.111
-66.407	25.083	0.307	-0.251
-65.392	176.421	-0.223	0.320
-64.378	-40.038	-0.381	0.196
-63.363	465.656	-0.106	0.235
-62.349	66.669	0.227	0.227
-61.334	177.617	-0.708	-1.018
-60.319	6.469	0.521	0.382
-59.305	800.000	-0.209	-0.634
-58.290	-200.000	0.219	1.308
-57.276	800.000	0.532	1.542
-56.261	-200.000	96.080	550.295
-55.246	480.740	1440.295	3224.146
-54.232	143.026	2666.596	3498.956
-53.217	107.740	2245.824	2638.567
-52.203	43.723	1766.763	1595.317
-51.188	36.607	1575.606	1372.387
-50.173	34.275	1548.337	1332.290
-49.159	52.418	1596.913	1503.361
-48.144	54.911	1615.969	1538.959
-47.130	37.009	1573.069	1372.804
-46.115	33.789	1557.585	1336.618
-45.100	33.600	1554.579	1332.652
-44.086	33.559	1552.482	1330.514
-43.071	33.612	1550.166	1328.853
-42.057	33.422	1549.349	1326.766
-41.042	33.505	1547.782	1325.954
-40.027	33.657	1546.006	1325.439
-39.013	33.678	1544.528	1324.268
-37.998	33.467	1543.099	1321.515
-36.984	33.555	1542.383	1321.467
-35.969	33.490	1541.188	1319.939
-34.954	33.525	1539.338	1318.546
-33.940	33.505	1537.629	1316.888
-32.925	33.598	1536.383	1316.418
-31.911	33.600	1535.145	1315.313
-30.896	33.552	1533.915	1313.878
-29.881	33.598	1532.529	1312.956
-28.867	33.598	1530.418	1311.097
-27.852	33.626	1529.455	1310.412
-26.838	33.561	1528.049	1308.706
-25.823	33.567	1526.943	1307.749
-24.809	33.615	1524.670	1306.081
-23.794	33.439	1523.755	1304.034
-22.779	33.471	1522.317	1302.972
-21.765	33.479	1521.187	1302.004
-20.750	33.562	1520.079	1301.576
-19.736	33.648	1518.459	1300.726
-18.721	33.566	1517.765	1299.521
-17.706	33.530	1516.514	1298.148
-16.692	33.460	1515.599	1296.834
-15.677	33.439	1514.970	1296.100
-14.663	33.507	1513.676	1295.410
-13.648	33.462	1512.468	1294.020
-12.633	33.407	1512.261	1293.412
-11.619	33.485	1510.858	1292.694
-10.604	33.431	1510.107	1291.629
-9.590	33.419	1509.396	1290.890
-8.575	33.506	1508.115	1290.338
-7.560	33.528	1507.636	1290.024
-6.546	33.437	1506.439	1288.330
-5.531	33.460	1505.567	1287.688
-4.517	33.509	1504.084	1286.703
-3.502	33.515	1503.466	1286.162
-2.487	33.537	1502.168	1285.149
-1.473	33.515	1501.679	1284.536
-0.458	33.409	1500.118	1282.432
0.556	33.152	1491.043	1274.059
1.571	30.663	1464.591	1234.846
2.586	26.768	1399.647	1155.222
3.600	24.188	1312.293	1067.590
4.615	21.721	1263.751	1013.752
5.629	17.938	1204.993	945.626
6.644	9.166	1116.532	830.930
7.659	2.329	1073.771	764.925
8.673	1.278	1067.392	755.090
9.688	1.103	1064.614	752.190
10.702	1.075	1063.249	751.018
11.717	1.034	1061.655	749.624
12.731	3.328	1063.788	762.426
13.746	10.831	1073.743	806.863
14.761	16.449	1080.479	839.845
15.775	17.632	1081.242	846.238
16.790	17.332	1079.935	843.656
17.804	16.309	1078.008	837.004
18.819	15.441	1076.383	831.372
19.834	14.962	1074.814	827.719
20.848	14.623	1073.614	825.043
21.863	14.345	1072.837	823.001
22.877	14.115	1071.777	820.979
23.892	13.969	1070.764	819.411
24.907	13.802	1070.340	818.192
25.921	13.929	1069.355	817.990
26.936	13.858	1068.793	817.139
27.950	13.802	1068.568	816.620
28.965	13.855	1067.850	816.257
29.980	13.882	1066.753	815.482
30.994	14.009	1065.418	815.009
32.009	14.029	1064.672	814.465
33.023	14.029	1063.987	813.869
34.038	14.177	1062.739	813.568
35.053	14.116	1062.153	812.749
36.067	13.964	1061.137	811.157
37.082	13.985	1060.304	810.549
38.096	14.032	1059.300	809.941
39.111	14.072	1058.793	809.678
40.126	14.088	1057.942	809.031
41.140	13.939	1057.233	807.695
42.155	13.963	1055.842	806.675
43.169	13.820	1054.848	805.152
44.184	13.869	1053.892	804.588
45.199	13.866	1052.851	803.709
46.213	13.732	1052.022	802.355
47.228	13.877	1050.918	802.141
48.242	13.880	1049.798	801.229
49.257	13.923	1048.668	800.503
50.271	14.066	1047.754	800.424
51.286	13.876	1047.133	798.964
52.301	13.996	1046.239	798.791
53.315	14.000	1045.546	798.210
54.330	13.915	1044.573	796.990
55.344	13.870	1043.906	796.195
56.359	13.919	1042.910	795.596
57.374	13.907	1041.761	794.592
58.388	13.796	1041.155	793.531
59.403	13.909	1040.295	793.347
60.417	13.865	1039.630	792.557
61.432	13.901	1038.703	791.950
62.447	13.855	1037.911	791.058
63.461	13.656	1037.442	789.681
64.476	13.699	1036.556	789.142
65.490	13.772	1035.639	788.723
66.505	13.840	1034.839	788.368
67.520	13.731	1034.592	787.592
68.534	13.861	1033.489	787.297
69.549	13.846	1032.524	786.424
70.563	13.792	1032.050	785.736
71.578	13.900	1031.436	785.709
72.593	13.865	1029.936	784.332
73.607	13.735	1029.571	783.370
74.622	13.826	1027.937	782.487
75.636	13.837	1026.977	781.739
76.651	13.771	1026.619	781.090
77.666	13.738	1026.274	780.599
78.680	13.652	1025.128	779.257
79.695	13.807	1024.795	779.660
80.709	13.868	1023.604	778.972
81.724	13.827	1022.908	778.180
82.739	13.762	1022.374	777.403
83.753	13.768	1021.597	776.772
84.768	13.900	1020.591	776.557
85.782	13.962	1019.844	776.207
86.797	13.864	1019.067	775.091
87.812	13.889	1018.612	774.793
88.826	13.921	1017.262	773.844
89.841	13.792	1016.864	772.875
90.855	13.888	1015.970	772.574
91.870	13.954	1015.235	772.253
92.884	14.150	1013.963	772.125
93.899	13.948	1013.667	770.894
94.914	14.032	1012.872	770.610
95.928	14.047	1012.424	770.269
96.943	14.069	1011.613	769.689
97.957	14.127	1010.181	768.797
98.972	13.951	1009.726	767.571
99.987	13.990	1009.139	767.238
101.001	14.020	1008.104	766.522
102.016	14.022	1007.220	765.792
103.030	13.990	1006.414	764.964
104.045	13.916	1005.416	763.796
105.060	13.962	1004.394	763.163
106.074	13.957	1003.615	762.480
107.089	13.986	1002.723	761.870
108.103	13.930	1002.007	760.999
109.118	14.019	1000.871	760.476
110.133	13.857	1000.187	759.150
111.147	13.852	999.287	758.375
112.162	13.967	998.155	757.974
113.176	13.982	997.280	757.313
114.191	13.869	996.643	756.247
115.206	14.017	995.748	756.173
116.220	14.041	994.802	755.499
117.235	13.890	994.292	754.359
118.249	13.896	993.381	753.626
119.264	13.948	992.029	752.771
120.279	13.816	991.464	751.678
121.293	14.049	990.397	751.858
122.308	13.861	990.259	750.834
123.322	13.947	988.790	750.044
124.337	13.905	987.773	749.016
125.352	13.950	986.859	748.459
126.366	13.949	985.464	747.329
127.381	13.926	984.636	746.534
128.395	13.943	983.461	745.651
129.410	13.940	982.841	745.105
130.424	13.992	982.144	744.744
131.439	14.001	981.126	743.943
132.454	14.045	980.330	743.469
133.468	14.024	979.762	742.882
134.483	14.091	978.563	742.207
135.497	13.956	978.048	741.148
136.512	13.966	977.369	740.613
137.527	13.999	976.384	739.946
138.541	13.972	975.715	739.253
139.556	13.936	975.218	738.653
140.570	14.022	974.064	738.095
141.585	14.006	973.217	737.319
142.600	14.077	972.358	736.913
143.614	14.162	971.750	736.765
144.629	14.094	971.274	736.037
145.643	13.969	970.617	734.922
146.658	14.165	969.687	735.021
147.673	14.107	968.499	733.798
148.687	13.968	967.872	732.644
149.702	13.920	966.922	731.652
150.716	13.949	966.203	731.170
151.731	14.022	964.813	730.371
152.746	13.990	964.569	729.985
153.760	13.913	963.855	729.040
154.775	14.122	962.897	729.169
155.789	14.078	962.289	728.448
156.804	14.120	961.424	727.915
157.819	14.254	960.353	727.625
158.833	14.383	959.368	727.375
159.848	14.278	959.116	726.664
160.862	14.222	958.529	725.911
161.877	14.185	957.684	725.046
162.892	14.170	957.188	724.539
163.906	14.114	955.988	723.324
164.921	14.219	955.438	723.301
165.935	14.146	954.297	722.055
166.950	14.120	953.467	721.250
167.964	14.241	952.205	720.756
168.979	14.214	951.007	719.670
169.994	14.250	950.076	719.056
171.008	14.137	949.549	718.108
172.023	14.270	948.417	717.759
173.037	14.253	947.830	717.179
174.052	14.268	947.340	716.809
175.067	14.260	946.515	716.087
176.081	14.295	945.235	715.207
177.096	14.321	945.036	715.101
178.110	14.429	944.035	714.747
179.125	14.331	943.288	713.697
180.140	14.418	942.158	713.153
181.154	14.319	941.888	712.459
182.169	14.294	941.323	711.865
183.183	14.537	940.607	712.295
184.198	14.506	939.532	711.289
185.213	14.474	939.376	710.970
186.227	14.426	938.577	710.096
187.242	14.509	937.684	709.711
188.256	14.442	937.339	709.104
189.271	14.621	936.233	708.965
190.286	14.585	935.451	708.158
191.300	14.340	934.961	706.684
192.315	14.518	933.929	706.597
193.329	14.479	933.426	705.989
194.344	14.396	932.672	705.002
195.359	14.410	932.172	704.621
196.373	14.415	931.953	704.413
197.388	14.422	931.292	703.884
198.402	14.538	930.551	703.752
199.417	14.521	930.388	703.491
200.432	14.580	929.517	703.020
201.446	14.704	929.082	703.152
202.461	14.745	928.528	702.843
203.475	14.828	927.998	702.727
204.490	14.769	927.429	701.987
205.504	14.904	926.290	701.631
206.519	14.680	925.613	700.116
207.534	14.715	924.797	699.583
208.548	14.677	924.409	699.068
209.563	14.659	923.818	698.485
210.577	14.758	922.770	698.045
211.592	14.732	922.376	697.575
212.607	14.735	921.906	697.169
213.621	14.850	921.295	697.128
214.636	14.842	920.605	696.511
215.650	14.795	920.071	695.850
216.665	14.831	919.098	695.200
217.680	14.962	918.378	695.139
218.694	14.973	917.819	694.698
219.709	14.955	917.490	694.314
220.723	14.923	916.923	693.693
221.738	15.054	916.339	693.731
222.753	14.960	915.511	692.653
223.767	14.952	914.934	692.125
224.782	14.970	914.112	691.515
225.796	14.848	913.569	690.539
226.811	15.041	912.477	690.450
227.826	14.937	911.977	689.580
228.840	15.067	911.115	689.404
229.855	15.015	910.526	688.681
230.869	15.018	909.860	688.131
231.884	15.016	909.017	687.423
232.899	14.972	908.442	686.747
233.913	15.083	907.425	686.371
234.928	14.973	907.216	685.701
235.942	14.946	906.412	684.922
236.957	15.094	905.474	684.759
237.972	15.080	904.837	684.161
238.986	15.041	904.816	683.924
240.001	15.172	903.658	683.525
241.015	15.056	902.972	682.469
242.030	15.127	901.978	681.950
243.045	15.221	901.315	681.771
244.059	15.357	900.727	681.815
245.074	15.182	900.429	680.820
246.088	15.193	899.780	680.313
247.103	15.284	899.370	680.313
248.117	15.061	898.838	678.944
249.132	15.271	898.225	679.274
250.147	15.252	897.724	678.759
251.161	15.317	896.989	678.406
252.176	15.390	896.217	678.058
253.190	15.467	895.735	677.944
254.205	15.427	895.030	677.186
255.220	15.472	894.135	676.632
256.234	15.450	893.377	675.912
257.249	15.597	892.681	675.915
258.263	15.529	892.135	675.168
259.278	15.529	891.843	674.889
260.293	15.676	891.011	674.787
261.307	15.730	890.313	674.415
262.322	15.657	889.982	673.815
263.336	15.572	889.732	673.223
264.351	15.667	888.801	672.839
265.366	15.736	888.109	672.533
266.380	15.785	887.691	672.354
267.395	15.865	886.726	671.881
268.409	15.669	886.348	670.752
269.424	15.806	885.574	670.654
270.439	15.708	884.851	669.657
271.453	15.684	883.771	668.685
272.468	15.663	883.394	668.256
273.482	15.861	882.544	668.340
274.497	15.703	882.312	667.478
275.512	15.789	881.327	667.016
276.526	15.869	880.417	666.584
277.541	15.832	879.853	665.953
278.555	15.744	879.356	665.171
279.570	15.839	878.785	665.055
280.585	15.796	878.570	664.663
281.599	16.076	877.612	664.984
282.614	15.935	877.048	663.940
283.628	16.021	876.401	663.732
284.643	16.016	875.942	663.305
285.657	15.882	875.560	662.432
286.672	15.957	875.017	662.258
287.687	16.039	874.563	662.176
288.701	16.089	873.787	661.727
289.716	16.041	873.620	661.353
290.730	16.091	872.776	660.853
291.745	16.040	872.220	660.171
292.760	15.952	871.451	659.186
293.774	16.070	870.758	659.065
294.789	16.128	870.048	658.696
295.803	16.139	869.717	658.433
296.818	16.158	868.941	657.859
297.833	16.079	868.280	656.993
298.847	16.238	867.290	656.803
299.862	16.154	866.930	656.148
300.876	16.231	866.183	655.822
301.891	16.234	865.788	655.477
302.906	16.160	865.041	654.568
303.920	16.363	864.402	654.812
304.935	16.415	863.654	654.390
305.949	16.363	863.050	653.672
306.964	16.351	862.610	653.236
307.979	16.291	861.670	652.235
308.993	16.504	861.179	652.626
310.008	16.526	860.881	652.426
311.022	16.436	860.469	651.711
312.037	16.484	859.931	651.429
313.052	16.675	859.015	651.415
314.066	16.506	858.370	650.218
315.081	16.457	857.835	649.565
316.095	16.443	857.455	649.167
317.110	16.498	856.938	648.929
318.125	16.459	856.357	648.283
319.139	16.511	855.850	648.042
320.154	16.484	855.451	647.577
321.168	16.463	854.819	646.963
322.183	16.454	854.041	646.283
323.197	16.665	853.647	646.733
324.212	16.606	852.924	645.903
325.227	16.559	852.641	645.452
326.241	16.554	852.285	645.105
327.256	16.642	851.199	644.564
328.270	16.600	850.554	643.857
329.285	16.538	850.315	643.384
330.300	16.617	849.836	643.263
331.314	16.570	849.280	642.608
332.329	16.552	848.642	641.999
333.343	16.687	847.927	641.914
334.358	16.667	847.330	641.329
335.373	16.674	846.776	640.881
336.387	16.744	846.192	640.644
337.402	16.738	845.788	640.263
338.416	16.810	845.111	639.965
339.431	16.952	844.215	639.765
340.446	16.839	844.002	639.120
341.460	16.826	843.720	638.803
342.475	16.859	843.096	638.394
343.489	16.923	842.322	637.993
344.504	16.889	841.618	637.276
345.519	17.036	841.012	637.315
346.533	17.098	840.700	637.255
347.548	16.900	840.350	636.190
348.562	17.024	839.495	635.949
349.577	17.024	839.090	635.585
350.592	16.978	838.294	634.754
351.606	16.957	838.108	634.479
352.621	16.944	837.663	634.040
353.635	17.004	836.917	633.644
354.650	17.025	836.876	633.632
355.665	16.988	836.767	633.357
356.679	17.094	836.019	633.130
357.694	17.057	835.786	632.758
358.708	17.140	834.540	632.069
359.723	17.084	834.184	631.537
360.738	17.129	833.881	631.417
361.752	17.061	833.723	630.988
362.767	17.261	832.617	630.840
363.781	17.277	832.463	630.726
364.796	17.105	831.727	629.475
365.810	17.192	831.633	629.668
366.825	17.150	831.416	629.293
367.840	17.206	830.958	629.100
368.854	17.364	830.118	628.992
369.869	17.375	829.593	628.579
370.883	17.289	829.010	627.763
371.898	17.314	828.666	627.540
372.913	17.427	827.745	627.203
373.927	17.302	827.494	626.498
374.942	17.347	826.777	626.065
375.956	17.400	826.007	625.621
376.971	17.403	825.349	625.080
377.986	17.606	824.761	625.324
379.000	17.633	824.456	625.135
380.015	17.410	823.936	623.869
381.029	17.578	823.291	623.939
382.044	17.575	822.682	623.413
383.059	17.537	822.184	622.842
384.073	17.609	822.023	622.928
385.088	17.611	821.149	622.218
386.102	17.673	820.709	622.055
387.117	17.634	820.384	621.614
388.132	17.577	819.700	620.832
389.146	17.504	819.254	620.173
390.161	17.707	818.878	620.572
391.175	17.691	818.703	620.324
392.190	17.667	818.519	620.042
393.205	17.775	817.634	619.710
394.219	17.645	817.534	619.108
395.234	17.657	817.256	618.884
396.248	17.679	816.367	618.239
397.263	17.657	815.797	617.674
398.278	17.540	815.742	617.153
399.292	17.501	815.240	616.575
400.307	17.728	814.472	616.761
401.321	17.639	814.102	616.104
402.336	17.699	813.723	615.980
403.350	17.819	813.276	616.021
404.365	17.826	813.020	615.797
405.380	17.809	812.524	615.307
406.394	17.816	811.911	614.815
407.409	17.891	811.203	614.493
408.423	17.941	810.689	614.229
409.438	17.929	810.149	613.724
410.453	17.870	809.992	613.336
411.467	17.990	809.416	613.276
412.482	18.042	808.620	612.806
413.496	17.987	808.834	612.716
414.511	18.069	808.206	612.479
415.526	18.016	807.830	611.952
416.540	18.134	807.474	612.052
417.555	18.165	807.031	611.772
418.569	18.138	806.104	610.917
419.584	18.236	805.734	610.932
420.599	18.065	805.764	610.292
421.613	106.835	1286.737	1450.978
422.628	92.048	1356.826	1451.084
