DTS Sentinel unit serial number:	SN413079Multiplexer serial number:	ORYXHardware model number:	OX4-SRSoftware version number:	ORYX F/W v4.00 Oryx Data Collector v3.7.2.0data status	okinstallation	princeton_trtdifferential loss correction	single-endedforward channel	channel 3reverse channel	N/Adate	2019/09/18time	04:40:35forward acquisition time	60.00reverse acquisition time	0.00gamma	496.2192k internal	0.2343k external	0.2343temperature offset calibration	0.9947default loss term (dB/km)	0.3790temperature slope calibration	1.0000multiplexer offset coefficient	1.0000multiplexer slope coefficient	1.0000fibre end	0.00T internal ref (°C)	23.42T ext. ref 1 (°C)	0.17T ext. ref 2 (°C)	17.72length (m)	temperature (°C)	Stokes	anti-Stokes-747.200	353.239	-0.050	-0.100
-746.185	800.000	-0.015	-0.063
-745.171	13.961	-0.278	0.216
-744.156	-71.669	0.103	-0.039
-743.142	6.363	0.264	0.196
-742.127	68.244	-0.114	0.117
-741.112	163.759	-0.081	0.114
-740.098	331.746	-0.095	-0.183
-739.083	627.917	-0.144	0.365
-738.069	-200.000	-0.062	0.378
-737.054	-200.000	-0.023	0.233
-736.039	-49.845	-0.186	0.089
-735.025	-200.000	0.021	0.114
-734.010	-36.959	-0.105	-0.056
-732.996	28.559	-0.409	0.346
-731.981	-102.376	-0.131	-0.031
-730.966	-143.973	-0.267	-0.025
-729.952	-89.541	0.132	0.039
-728.937	800.000	-0.099	-0.318
-727.923	800.000	0.045	0.184
-726.908	-200.000	-0.012	0.175
-725.894	-98.943	-0.364	0.092
-724.879	-192.949	0.158	0.001
-723.864	519.653	0.089	0.208
-722.850	-89.047	0.168	-0.050
-721.835	411.135	0.140	-0.296
-720.821	-86.754	0.047	-0.014
-719.806	-158.425	-0.109	-0.006
-718.791	-53.977	-0.188	0.086
-717.777	-114.870	0.238	0.045
-716.762	228.815	0.090	0.147
-715.748	177.354	0.106	0.154
-714.733	31.674	0.184	-0.158
-713.718	-26.809	-0.282	0.165
-712.704	-98.756	-0.158	-0.040
-711.689	79.553	0.267	0.287
-710.675	250.302	-0.178	-0.302
-709.660	-138.131	-0.173	0.019
-708.645	502.950	-0.089	-0.207
-707.631	-89.671	-0.123	0.036
-706.616	-46.039	0.231	-0.114
-705.602	-78.975	-0.196	-0.067
-704.587	24.674	0.232	-0.192
-703.572	800.000	-0.100	-0.334
-702.558	-200.000	0.011	0.216
-701.543	-13.568	0.268	0.173
-700.529	-85.334	0.121	0.038
-699.514	134.967	0.216	0.280
-698.499	74.560	-0.141	0.149
-697.485	74.911	-0.300	0.316
-696.470	312.734	-0.082	-0.153
-695.456	50.532	0.118	0.111
-694.441	359.033	0.224	0.447
-693.426	-76.031	-0.308	-0.109
-692.412	83.565	-0.245	0.267
-691.397	-200.000	-0.149	0.001
-690.383	-200.000	-0.047	-0.558
-689.368	35.211	-0.120	0.105
-688.354	-123.106	0.162	-0.026
-687.339	235.629	-0.197	-0.325
-686.324	61.422	-0.438	-0.436
-685.310	-200.000	0.013	0.225
-684.295	163.001	-0.213	0.299
-683.281	-93.625	-0.267	-0.074
-682.266	-34.338	0.385	0.211
-681.251	-84.220	-0.264	0.084
-680.237	-54.660	-0.298	-0.135
-679.222	327.096	0.061	0.118
-678.208	424.911	0.076	-0.164
-677.193	-200.000	0.022	-0.295
-676.178	-38.411	-0.110	0.058
-675.164	79.166	0.154	-0.164
-674.149	-200.000	0.005	0.238
-673.135	-200.000	0.004	0.051
-672.120	-2.824	-0.264	-0.184
-671.105	23.823	0.343	-0.282
-670.091	466.607	-0.100	-0.224
-669.076	-5.653	0.228	0.156
-668.062	-152.899	0.346	0.024
-667.047	-150.921	0.070	-0.005
-666.032	-14.390	0.482	0.310
-665.018	-200.000	0.014	-0.133
-664.003	-176.416	0.164	0.004
-662.989	-40.783	-0.159	0.082
-661.974	-64.389	-0.090	0.036
-660.959	236.396	-0.245	-0.405
-659.945	-122.835	-0.371	0.060
-658.930	800.000	-0.038	0.154
-657.916	-104.791	0.095	0.022
-656.901	182.229	-0.087	-0.128
-655.886	84.058	-0.163	-0.177
-654.872	-17.643	0.289	-0.181
-653.857	418.220	-0.034	0.073
-652.843	105.171	0.301	-0.355
-651.828	-59.105	-0.157	-0.067
-650.814	-200.000	0.002	-0.255
-649.799	-200.000	0.005	-0.353
-648.784	136.549	-0.228	0.297
-647.770	-200.000	0.018	0.158
-646.755	249.574	0.087	0.148
-645.741	-116.686	-0.366	-0.067
-644.726	-78.508	-0.059	0.020
-643.711	-39.849	0.215	-0.112
-642.697	50.345	0.082	-0.077
-641.682	245.155	0.160	-0.269
-640.668	142.108	0.055	-0.073
-639.653	-13.362	-0.092	-0.059
-638.638	212.155	0.118	0.186
-637.624	-200.000	-0.038	-0.323
-636.609	-15.072	0.136	-0.087
-635.595	-200.000	-0.027	-0.212
-634.580	751.108	-0.222	-0.598
-633.565	-91.001	-0.033	0.009
-632.551	114.631	-0.106	-0.129
-631.536	-179.891	-0.316	-0.007
-630.522	-200.000	-0.011	-0.068
-629.507	-200.000	0.016	0.303
-628.492	-148.525	-0.518	0.042
-627.478	454.011	0.082	0.181
-626.463	-63.564	-0.244	0.100
-625.449	-21.432	0.207	0.126
-624.434	179.632	0.163	0.238
-623.419	337.083	-0.066	0.128
-622.405	54.463	0.184	0.177
-621.390	-200.000	-0.013	0.096
-620.376	119.254	-0.080	0.099
-619.361	240.310	-0.095	0.157
-618.346	-200.000	-0.025	-0.176
-617.332	-200.000	-0.015	-0.138
-616.317	800.000	-0.034	0.142
-615.303	-7.855	-0.181	-0.122
-614.288	-27.478	-0.227	0.131
-613.273	-200.000	0.067	-0.338
-612.259	72.810	-0.042	-0.044
-611.244	-55.808	-0.205	0.091
-610.230	266.711	-0.125	-0.218
-609.215	202.605	-0.023	0.035
-608.201	308.704	-0.051	-0.094
-607.186	-80.038	-0.144	-0.048
-606.171	28.570	0.183	0.154
-605.157	800.000	0.021	0.081
-604.142	51.185	0.115	-0.108
-603.128	-96.472	0.064	-0.017
-602.113	176.951	-0.197	0.286
-601.098	-60.001	0.069	-0.029
-600.084	29.664	0.094	-0.080
-599.069	18.585	-0.139	-0.110
-598.055	-138.805	-0.075	0.008
-597.040	-200.000	-0.011	-0.338
-596.025	-145.865	-0.375	-0.033
-595.011	334.321	-0.135	-0.261
-593.996	800.000	0.073	-0.306
-592.982	-200.000	-0.020	0.381
-591.967	-58.411	-0.243	0.105
-590.952	92.815	-0.064	-0.072
-589.938	84.203	0.287	0.312
-588.923	1.672	0.109	-0.078
-587.909	-38.291	0.295	0.156
-586.894	-156.654	-0.085	-0.005
-585.879	96.548	-0.115	-0.132
-584.865	-95.088	0.407	0.109
-583.850	-40.906	-0.225	-0.116
-582.836	-200.000	0.021	-0.275
-581.821	527.169	0.171	-0.402
-580.806	-57.755	0.144	0.063
-579.792	-200.000	-0.080	-0.418
-578.777	-148.165	-0.102	-0.008
-577.763	-200.000	0.017	0.097
-576.748	-200.000	-0.017	-0.345
-575.733	269.633	0.080	-0.140
-574.719	-53.426	-0.066	0.030
-573.704	-109.902	0.156	-0.033
-572.690	-79.334	-0.203	-0.068
-571.675	-20.754	-0.014	0.009
-570.661	188.905	0.075	0.112
-569.646	-186.315	-0.138	-0.002
-568.631	-200.000	0.010	0.374
-567.617	-69.466	0.027	0.010
-566.602	-149.205	0.221	0.018
-565.588	33.727	-0.178	0.154
-564.573	-115.145	-0.111	0.021
-563.558	26.011	-0.151	0.125
-562.544	201.432	0.040	0.061
-561.529	67.512	0.122	-0.124
-560.515	-200.000	-0.018	-0.125
-559.500	119.294	-0.085	-0.105
-558.485	41.299	0.303	0.273
-557.471	-200.000	-0.004	0.110
-556.456	77.651	-0.027	0.029
-555.442	-200.000	0.026	0.171
-554.427	-200.000	-0.051	-0.376
-553.412	-33.816	0.350	-0.192
-552.398	-112.683	0.286	0.056
-551.383	-136.020	0.135	-0.016
-550.369	800.000	-0.046	0.145
-549.354	172.117	0.043	-0.061
-548.339	6.202	-0.202	-0.149
-547.325	-22.690	0.079	-0.047
-546.310	-165.127	0.174	0.008
-545.296	800.000	-0.115	-0.338
-544.281	-81.775	0.260	0.085
-543.266	-200.000	0.012	0.065
-542.252	119.791	0.030	-0.037
-541.237	-51.930	-0.121	0.056
-540.223	159.696	-0.042	-0.059
-539.208	491.491	-0.086	-0.196
-538.193	592.564	0.153	-0.376
-537.179	-147.653	-0.211	0.018
-536.164	-200.000	0.036	-0.257
-535.150	-200.000	-0.002	-0.216
-534.135	-151.854	-0.436	0.032
-533.121	-200.000	0.000	0.344
-532.106	603.361	0.109	0.269
-531.091	-84.778	-0.487	0.152
-530.077	63.483	0.226	0.226
-529.062	114.306	0.105	0.127
-528.048	124.013	0.273	0.341
-527.033	80.851	-0.141	0.151
-526.018	457.619	-0.050	0.111
-525.004	-130.805	0.493	-0.066
-523.989	-47.441	0.142	0.068
-522.975	-10.842	-0.395	0.259
-521.960	-103.555	0.019	0.005
-520.945	-106.555	0.123	-0.027
-519.931	-8.370	-0.238	-0.159
-518.916	35.880	0.497	0.434
-517.902	47.232	0.234	-0.216
-516.887	-200.000	-0.030	-0.477
-515.872	523.054	-0.027	-0.062
-514.858	-200.000	-0.029	-0.181
-513.843	509.983	0.071	0.164
-512.829	598.583	-0.129	0.317
-511.814	-28.540	-0.549	-0.314
-510.799	187.723	0.247	-0.367
-509.785	-200.000	-0.024	-0.170
-508.770	800.000	-0.087	0.249
-507.756	149.394	0.102	-0.137
-506.741	-154.943	-0.237	-0.015
-505.726	-44.419	-0.146	0.073
-504.712	-1.730	0.347	-0.242
-503.697	-113.384	-0.176	-0.034
-502.683	-51.696	-0.135	-0.062
-501.668	192.813	-0.203	0.304
-500.653	-21.316	0.062	-0.037
-499.639	-200.000	0.005	0.052
-498.624	-119.312	-0.130	0.023
-497.610	87.316	-0.111	0.122
-496.595	214.372	-0.175	0.275
-495.581	211.803	0.199	0.311
-494.566	-15.912	-0.161	0.102
-493.551	-200.000	-0.048	0.461
-492.537	-169.797	-0.214	0.008
-491.522	800.000	-0.092	-0.264
-490.508	-60.286	-0.294	-0.124
-489.493	800.000	0.077	0.216
-488.478	-200.000	-0.015	0.483
-487.464	-64.207	0.319	-0.129
-486.449	430.814	0.091	-0.195
-485.435	-200.000	-0.029	0.184
-484.420	-200.000	0.041	-0.272
-483.405	-188.973	-0.032	0.000
-482.391	-55.511	0.305	-0.135
-481.376	-18.390	-0.073	0.045
-480.362	-20.554	0.160	0.097
-479.347	5.364	0.122	0.089
-478.332	800.000	0.049	0.171
-477.318	-200.000	-0.005	-0.086
-476.303	-109.237	0.184	-0.039
-475.289	-68.908	-0.216	0.082
-474.274	110.841	-0.173	-0.206
-473.259	-11.475	-0.283	-0.185
-472.245	59.182	-0.051	0.050
-471.230	-150.979	0.146	-0.011
-470.216	-55.123	-0.354	0.158
-469.201	-32.848	0.224	-0.124
-468.186	-200.000	0.252	-0.001
-467.172	-200.000	-0.002	-0.028
-466.157	800.000	0.002	0.009
-465.143	169.438	-0.097	-0.137
-464.128	-155.098	0.404	0.026
-463.113	-132.413	0.290	-0.037
-462.099	20.497	0.252	-0.201
-461.084	-4.061	-0.195	-0.134
-460.070	-200.000	-0.002	-0.237
-459.055	106.987	-0.069	-0.081
-458.040	-47.463	0.218	0.105
-457.026	39.105	-0.113	-0.100
-456.011	50.765	0.080	-0.075
-454.997	17.134	-0.214	0.168
-453.982	-200.000	0.007	-0.159
-452.968	800.000	-0.046	0.179
-451.953	14.626	-0.029	-0.023
-450.938	345.317	-0.006	0.011
-449.924	-30.472	0.197	-0.111
-448.909	309.263	0.114	-0.210
-447.895	8.474	-0.292	0.217
-446.880	102.523	0.209	-0.242
-445.865	16.446	0.148	0.116
-444.851	800.000	-0.067	0.229
-443.836	800.000	0.027	-0.113
-442.822	-34.745	0.295	0.160
-441.807	19.097	-0.177	0.140
-440.792	-138.545	-0.314	0.034
-439.778	243.592	0.042	0.070
-438.763	-119.791	0.271	-0.046
-437.749	-91.788	-0.244	0.069
-436.734	-88.342	0.116	-0.034
-435.719	-200.000	-0.023	-0.421
-434.705	-200.000	-0.020	0.089
-433.690	-69.897	0.213	-0.080
-432.676	800.000	-0.087	0.376
-431.661	-128.488	0.175	0.025
-430.646	51.507	0.182	0.171
-429.632	-172.069	-0.239	-0.008
-428.617	-94.260	0.366	0.099
-427.603	-146.652	-0.129	0.011
-426.588	-89.300	0.116	-0.034
-425.573	800.000	0.063	0.240
-424.559	399.626	-0.157	0.326
-423.544	800.000	0.087	0.319
-422.530	-185.067	0.140	0.002
-421.515	-115.910	0.243	0.045
-420.500	53.424	0.153	-0.146
-419.486	54.861	0.170	0.162
-418.471	193.279	-0.128	0.191
-417.457	382.414	0.206	-0.418
-416.442	-43.329	-0.146	-0.073
-415.428	800.000	-0.050	-0.164
-414.413	-4.886	-0.056	-0.038
-413.398	179.089	0.169	0.244
-412.384	-107.100	0.229	-0.050
-411.369	-61.986	-0.043	-0.018
-410.355	-200.000	-0.003	-0.175
-409.340	-149.562	0.276	-0.022
-408.325	-42.654	-0.544	-0.274
-407.311	-130.787	0.059	-0.008
-406.296	-86.504	0.299	0.091
-405.282	-200.000	0.018	-0.221
-404.267	-119.687	-0.325	-0.055
-403.252	-161.282	0.491	0.025
-402.238	29.912	-0.222	-0.187
-401.223	-55.992	-0.263	-0.116
-400.209	117.807	-0.171	-0.208
-399.194	800.000	-0.071	0.194
-398.179	208.014	-0.184	0.284
-397.165	-51.284	0.082	0.038
-396.150	1.998	-0.138	-0.099
-395.136	-200.000	-0.021	-0.233
-394.121	-56.718	-0.457	-0.200
-393.106	20.976	0.106	-0.085
-392.092	-200.000	0.055	-0.354
-391.077	-21.521	-0.299	0.180
-390.063	-178.602	-0.101	-0.002
-389.048	-96.262	-0.204	-0.053
-388.033	569.627	0.134	-0.322
-387.019	301.094	0.144	0.263
-386.004	-134.202	0.225	0.027
-384.990	-18.172	-0.088	0.054
-383.975	727.241	0.067	0.175
-382.960	-44.199	0.237	-0.117
-381.946	182.673	-0.090	-0.131
-380.931	-200.000	-0.174	-0.001
-379.917	-200.000	0.007	-0.163
-378.902	-62.240	-0.081	-0.033
-377.888	800.000	-0.079	-0.286
-376.873	232.915	0.121	-0.197
-375.858	-200.000	-0.024	0.335
-374.844	-200.000	-0.004	-0.145
-373.829	285.249	-0.072	0.129
-372.815	237.278	-0.187	-0.306
-371.800	731.827	-0.050	-0.132
-370.785	-35.754	0.089	-0.048
-369.771	32.232	0.210	-0.178
-368.756	-159.750	-0.261	0.014
-367.742	-200.000	0.014	-0.222
-366.727	-200.000	0.019	0.297
-365.712	-51.610	-0.137	-0.063
-364.698	-128.560	-0.196	0.027
-363.683	-21.891	0.123	0.074
-362.669	800.000	-0.094	-0.395
-361.654	-90.567	0.265	0.075
-360.639	-44.556	0.262	-0.129
-359.625	108.095	0.080	0.095
-358.610	-200.000	-0.028	0.138
-357.596	-59.555	-0.162	-0.068
-356.581	-114.176	0.113	-0.022
-355.566	-148.001	-0.217	0.018
-354.552	-188.770	0.165	-0.002
-353.537	-9.109	0.141	0.093
-352.523	-117.174	-0.157	-0.028
-351.508	-135.878	0.303	-0.035
-350.493	-200.000	-0.014	0.200
-349.479	-200.000	0.005	-0.218
-348.464	-44.953	-0.264	0.130
-347.450	-54.762	-0.079	-0.035
-346.435	-1.592	0.051	0.035
-345.420	24.925	-0.234	0.191
-344.406	-26.890	-0.348	0.201
-343.391	263.509	0.109	-0.186
-342.377	72.535	0.262	-0.269
-341.362	-67.750	-0.167	-0.064
-340.348	245.007	-0.174	-0.288
-339.333	-200.000	0.021	-0.114
-338.318	102.077	0.194	0.223
-337.304	800.000	-0.065	0.184
-336.289	27.204	0.240	0.199
-335.275	-127.620	0.317	-0.045
-334.260	-117.725	-0.310	-0.055
-333.245	-50.156	0.168	0.078
-332.231	-200.000	-0.046	0.230
-331.216	-103.158	-0.084	-0.020
-330.202	-142.249	0.199	0.019
-329.187	-69.067	-0.116	0.044
-328.172	359.980	-0.049	0.097
-327.158	-62.759	-0.063	-0.026
-326.143	-63.042	-0.182	0.074
-325.129	57.751	0.105	-0.101
-324.114	27.264	0.282	0.233
-323.099	-200.000	-0.019	0.095
-322.085	-150.291	-0.165	-0.013
-321.070	-71.269	0.373	0.138
-320.056	136.493	0.138	-0.178
-319.041	-53.707	0.071	0.032
-318.026	508.902	-0.060	-0.137
-317.012	-200.000	-0.003	0.459
-315.997	-157.541	-0.227	-0.013
-314.983	-109.557	0.423	-0.088
-313.968	-70.257	-0.174	0.065
-312.953	249.827	-0.097	0.162
-311.939	-126.440	0.097	-0.014
-310.924	800.000	-0.058	0.229
-309.910	-21.968	-0.122	-0.073
-308.895	-131.048	-0.149	-0.020
-307.880	132.740	0.159	0.202
-306.866	-200.000	0.019	-0.102
-305.851	-200.000	0.006	-0.272
-304.837	-200.000	-0.030	0.198
-303.822	315.033	0.114	0.211
-302.807	515.821	-0.162	0.372
-301.793	75.217	0.050	0.052
-300.778	-25.086	0.290	0.169
-299.764	-41.251	-0.197	-0.100
-298.749	37.184	-0.160	-0.139
-297.735	481.446	-0.073	-0.163
-296.720	-200.000	-0.004	-0.074
-295.705	355.447	-0.107	0.210
-294.691	56.944	0.129	-0.123
-293.676	800.000	-0.050	-0.196
-292.662	800.000	-0.075	0.228
-291.647	96.569	0.293	-0.330
-290.632	-114.463	0.203	0.038
-289.618	157.621	0.193	-0.263
-288.603	-200.000	0.001	-0.197
-287.589	-123.878	-0.173	0.027
-286.574	-58.359	-0.013	0.006
-285.559	-62.439	-0.112	0.046
-284.545	92.764	0.205	0.228
-283.530	-123.603	0.260	0.041
-282.516	-200.000	-0.006	-0.274
-281.501	-102.542	0.021	0.005
-280.486	128.625	-0.053	-0.066
-279.472	58.423	0.107	-0.104
-278.457	267.012	0.234	0.402
-277.443	-186.353	0.310	0.004
-276.428	-200.000	0.025	0.113
-275.413	800.000	0.101	0.353
-274.399	-27.062	-0.190	-0.109
-273.384	-50.836	-0.195	-0.090
-272.370	77.832	-0.033	0.035
-271.355	196.443	0.108	-0.162
-270.340	800.000	-0.022	-0.065
-269.326	47.814	-0.133	0.122
-268.311	-55.018	0.354	-0.157
-267.297	16.811	0.153	-0.119
-266.282	-22.940	-0.266	0.158
-265.267	-98.244	-0.008	-0.002
-264.253	13.304	-0.244	0.186
-263.238	-152.370	0.182	0.013
-262.224	82.748	-0.229	0.245
-261.209	17.183	0.324	0.252
-260.195	258.909	0.159	-0.270
-259.180	6.749	-0.124	0.091
-258.165	-57.455	-0.267	-0.115
-257.151	-36.823	-0.111	-0.058
-256.136	-200.000	0.022	0.127
-255.122	-99.837	-0.467	0.115
-254.107	-130.160	0.237	0.032
-253.092	-200.000	0.044	0.310
-252.078	-27.711	-0.220	0.125
-251.063	-200.000	0.021	0.154
-250.049	223.637	-0.113	-0.179
-249.034	159.340	0.260	0.355
-248.019	-93.172	0.294	-0.080
-247.005	88.897	0.094	0.103
-245.990	-200.000	0.027	-0.128
-244.976	-177.748	-0.184	-0.004
-243.961	-70.654	0.333	-0.124
-242.946	-200.000	-0.046	0.262
-241.932	26.445	-0.199	0.164
-240.917	596.626	-0.041	-0.099
-239.903	464.814	-0.251	0.552
-238.888	-34.979	-0.203	0.109
-237.873	102.330	-0.209	-0.240
-236.859	-200.000	0.028	0.196
-235.844	272.253	0.129	0.223
-234.830	-200.000	-0.062	-0.367
-233.815	-56.998	-0.105	-0.046
-232.800	-199.239	-0.210	-0.001
-231.786	800.000	0.044	0.172
-230.771	33.577	0.400	0.341
-229.757	262.812	0.154	0.262
-228.742	3.050	-0.248	-0.177
-227.727	236.446	-0.085	-0.137
-226.713	-66.400	-0.093	-0.036
-225.698	714.469	-0.115	0.298
-224.684	800.000	-0.029	0.111
-223.669	-141.330	0.279	0.028
-222.655	71.259	0.097	0.099
-221.640	387.321	0.033	-0.066
-220.625	673.732	0.039	-0.100
-219.611	124.982	0.183	-0.226
-218.596	-151.962	-0.082	-0.006
-217.582	-48.783	-0.167	0.078
-216.567	-200.000	0.012	0.081
-215.552	800.000	-0.064	0.269
-214.538	178.540	-0.054	-0.078
-213.523	-200.000	0.035	-0.190
-212.509	-16.849	0.210	0.130
-211.494	-200.000	-0.032	-0.185
-210.479	-89.633	0.069	0.020
-209.465	641.999	0.114	0.286
-208.450	-104.799	0.085	-0.019
-207.436	197.011	-0.172	-0.258
-206.421	-19.698	-0.077	-0.047
-205.406	1.390	-0.237	0.167
-204.392	-56.443	0.068	-0.029
-203.377	642.473	0.139	-0.346
-202.363	61.296	0.163	0.159
-201.348	-200.000	-0.033	-0.213
-200.333	43.050	0.102	0.091
-199.319	-55.561	-0.085	-0.037
-198.304	-3.079	-0.105	0.072
-197.290	33.524	-0.065	0.056
-196.275	-87.080	0.323	0.096
-195.260	-109.972	0.051	-0.010
-194.246	-200.000	0.022	0.139
-193.231	73.558	-0.139	0.143
-192.217	129.691	-0.149	-0.187
-191.202	-49.752	-0.312	0.145
-190.187	145.776	-0.263	-0.345
-189.173	58.618	0.160	-0.154
-188.158	41.631	-0.140	0.125
-187.144	-109.396	-0.226	0.047
-186.129	-28.815	-0.241	-0.136
-185.114	-200.000	-0.011	-0.147
-184.100	40.600	-0.064	-0.057
-183.085	329.026	0.067	-0.126
-182.071	367.815	0.245	-0.484
-181.056	165.603	0.093	-0.129
-180.042	-200.000	0.029	-0.164
-179.027	-200.000	-0.049	-0.241
-178.012	-155.644	0.228	0.014
-176.998	800.000	-0.027	-0.102
-175.983	-181.526	0.176	0.003
-174.969	-200.000	-0.015	-0.105
-173.954	-126.421	0.163	-0.024
-172.939	-170.628	0.466	-0.016
-171.925	-200.000	0.000	0.114
-170.910	800.000	-0.102	0.423
-169.896	505.205	-0.094	0.213
-168.881	488.337	-0.148	-0.330
-167.866	-113.596	-0.093	-0.018
-166.852	14.892	0.207	-0.158
-165.837	-60.546	0.301	-0.125
-164.823	-31.278	0.062	-0.034
-163.808	-75.600	-0.040	0.014
-162.793	-200.000	0.054	0.299
-161.779	-200.000	-0.013	0.187
-160.764	90.515	0.287	0.315
-159.750	230.109	-0.068	0.109
-158.735	-200.000	0.042	0.379
-157.720	39.951	-0.242	-0.213
-156.706	131.983	-0.103	-0.130
-155.691	-72.312	-0.182	0.066
-154.677	109.168	-0.165	-0.193
-153.662	-151.879	-0.125	-0.009
-152.647	38.441	0.128	0.112
-151.633	134.541	0.063	-0.080
-150.618	-76.917	0.127	-0.044
-149.604	603.134	0.130	0.316
-148.589	800.000	0.028	-0.108
-147.574	299.507	-0.168	0.302
-146.560	-73.266	-0.161	-0.058
-145.545	60.916	-0.158	0.153
-144.531	-76.990	0.118	0.040
-143.516	226.771	-0.345	-0.548
-142.502	-77.737	0.290	0.098
-141.487	575.697	-0.071	0.168
-140.472	41.991	0.048	-0.043
-139.458	601.188	-0.104	0.252
-138.443	51.672	0.196	0.183
-137.429	-200.000	0.008	0.099
-136.414	-200.000	-0.030	0.139
-135.399	27.310	0.259	-0.213
-134.385	107.326	-0.109	-0.127
-133.370	392.044	0.045	0.092
-132.356	-200.000	-0.032	-0.299
-131.341	-89.486	0.036	-0.010
-130.326	-93.318	0.103	0.028
-129.312	137.160	-0.134	0.171
-128.297	-54.248	0.384	-0.170
-127.283	316.376	-0.113	0.209
-126.268	488.307	-0.164	-0.366
-125.253	800.000	-0.013	-0.037
-124.239	649.052	0.034	-0.084
-123.224	-52.457	-0.237	-0.107
-122.210	154.203	-0.252	0.337
-121.195	-6.150	-0.274	-0.183
-120.180	-200.000	0.008	-0.188
-119.166	-20.836	0.191	0.115
-118.151	173.124	0.079	0.111
-117.137	20.004	0.207	0.163
-116.122	199.335	-0.216	0.323
-115.107	-200.000	0.071	0.494
-114.093	765.393	-0.113	0.299
-113.078	-145.556	0.050	0.004
-112.064	-101.035	0.161	-0.039
-111.049	800.000	-0.091	0.290
-110.034	-4.488	-0.207	0.140
-109.020	-91.950	0.299	-0.083
-108.005	-200.000	-0.044	-0.289
-106.991	-12.577	0.238	0.152
-105.976	-65.385	0.267	-0.105
-104.962	800.000	0.107	-0.392
-103.947	-176.287	-0.148	-0.004
-102.932	24.502	-0.204	0.165
-101.918	83.437	0.168	0.179
-100.903	-3.219	0.248	-0.169
-99.889	-29.420	-0.141	0.079
-98.874	12.721	0.161	-0.122
-97.859	-200.000	0.011	0.195
-96.845	-200.000	0.012	0.149
-95.830	-200.000	-0.009	0.181
-94.816	-29.623	0.240	0.134
-93.801	161.613	-0.153	0.209
-92.786	-200.000	0.019	0.084
-91.772	-14.794	0.077	-0.048
-90.757	-129.489	-0.214	-0.029
-89.743	-170.977	0.038	-0.001
-88.728	-200.000	0.005	-0.149
-87.713	89.955	0.127	0.139
-86.699	-130.712	0.232	-0.030
-85.684	47.665	-0.195	-0.177
-84.670	-161.605	-0.100	0.005
-83.655	156.537	0.220	0.297
-82.640	34.688	-0.254	0.216
-81.626	280.907	0.041	0.072
-80.611	-200.000	-0.034	-0.297
-79.597	101.189	-0.118	-0.134
-78.582	1.884	0.301	-0.212
-77.567	-11.981	-0.181	0.116
-76.553	800.000	0.072	-0.258
-75.538	-200.000	0.010	0.349
-74.524	800.000	-0.028	0.105
-73.509	-102.585	0.139	-0.032
-72.494	-200.000	0.297	0.001
-71.480	-200.000	-0.014	-0.082
-70.465	-145.442	0.113	0.010
-69.451	661.184	0.198	0.498
-68.436	113.110	-0.057	0.067
-67.422	203.597	0.130	0.196
-66.407	194.246	-0.043	0.064
-65.392	800.000	-0.048	-0.191
-64.378	534.151	0.194	0.448
-63.363	47.502	0.155	-0.140
-62.349	36.200	-0.157	0.135
-61.334	158.331	-0.872	-1.179
-60.319	316.893	0.403	0.743
-59.305	-200.000	-0.257	-1.234
-58.290	261.169	0.871	1.470
-57.276	387.358	0.752	1.516
-56.261	-200.000	124.204	645.443
-55.246	414.907	1563.420	3246.323
-54.232	143.633	2721.129	3533.363
-53.217	95.557	2184.257	2428.314
-52.203	34.013	1703.081	1445.803
-51.188	26.408	1521.038	1239.326
-50.173	24.514	1497.349	1207.184
-49.159	48.164	1568.118	1429.224
-48.144	45.656	1581.403	1423.867
-47.130	26.598	1530.334	1248.012
-46.115	23.729	1513.976	1215.027
-45.100	23.591	1510.689	1211.395
-44.086	23.412	1509.393	1209.088
-43.071	23.419	1507.061	1207.223
-42.057	23.423	1505.317	1205.806
-41.042	23.501	1503.704	1204.994
-40.027	23.488	1502.530	1203.919
-39.013	23.456	1500.803	1202.270
-37.998	23.400	1499.845	1201.073
-36.984	23.440	1498.758	1200.426
-35.969	23.377	1497.043	1198.579
-34.954	23.354	1495.679	1197.285
-33.940	23.385	1494.280	1196.323
-32.925	23.423	1492.825	1195.371
-31.911	23.351	1492.078	1194.240
-30.896	23.497	1490.611	1194.001
-29.881	23.463	1489.152	1192.556
-28.867	23.416	1487.892	1191.181
-27.852	23.505	1486.303	1190.460
-26.838	23.577	1484.836	1189.725
-25.823	23.418	1483.461	1187.505
-24.809	23.442	1481.499	1186.048
-23.794	23.463	1479.936	1184.890
-22.779	23.399	1479.471	1184.048
-21.765	23.358	1477.974	1182.524
-20.750	23.545	1476.357	1182.436
-19.736	23.490	1475.886	1181.642
-18.721	23.361	1474.737	1179.814
-17.706	23.410	1473.508	1179.111
-16.692	23.373	1472.867	1178.306
-15.677	23.418	1471.527	1177.489
-14.663	23.431	1471.034	1177.134
-13.648	23.354	1470.133	1175.852
-12.633	23.481	1468.583	1175.406
-11.619	23.438	1467.602	1174.289
-10.604	23.429	1466.728	1173.488
-9.590	23.407	1466.389	1173.026
-8.575	23.431	1465.322	1172.281
-7.560	23.392	1464.543	1171.357
-6.546	23.453	1463.330	1170.740
-5.531	23.428	1462.676	1170.003
-4.517	23.424	1461.707	1169.156
-3.502	23.417	1460.756	1168.307
-2.487	23.432	1459.944	1167.710
-1.473	23.450	1458.588	1166.693
-0.458	23.525	1457.106	1165.958
0.556	21.668	1447.806	1154.235
1.571	18.649	1424.124	1115.661
2.586	15.470	1362.603	1047.564
3.600	14.188	1279.512	976.079
4.615	13.262	1236.075	937.607
5.629	11.577	1179.871	885.768
6.644	5.624	1098.334	794.361
7.659	0.984	1061.763	745.057
8.673	0.339	1056.253	737.966
9.688	0.079	1053.363	734.614
10.702	0.161	1051.967	733.975
11.717	0.112	1049.706	732.094
12.731	2.206	1050.956	743.094
13.746	8.503	1059.006	779.501
14.761	14.531	1067.255	815.040
15.775	16.532	1069.510	826.484
16.790	16.372	1068.220	824.629
17.804	15.480	1066.153	818.613
18.819	14.631	1064.281	812.970
19.834	14.135	1062.920	809.447
20.848	13.970	1061.831	807.743
21.863	13.587	1061.342	805.439
22.877	13.405	1060.260	803.662
23.892	13.294	1059.552	802.515
24.907	13.125	1058.831	801.079
25.921	13.211	1057.812	800.652
26.936	13.137	1057.232	799.785
27.950	13.188	1056.779	799.618
28.965	13.207	1056.152	799.167
29.980	13.385	1054.738	798.886
30.994	13.486	1054.120	798.831
32.009	13.417	1053.200	797.732
33.023	13.394	1052.346	796.904
34.038	13.398	1051.566	796.262
35.053	13.333	1050.796	795.296
36.067	13.361	1049.737	794.560
37.082	13.239	1049.235	793.524
38.096	13.365	1048.303	793.351
39.111	13.329	1047.572	792.554
40.126	13.324	1046.492	791.646
41.140	13.370	1045.545	791.080
42.155	13.243	1044.607	789.693
43.169	13.159	1043.759	788.579
44.184	13.140	1043.056	787.889
45.199	13.218	1041.421	786.957
46.213	13.125	1040.658	785.868
47.228	13.175	1039.838	785.417
48.242	13.153	1038.863	784.503
49.257	13.313	1037.729	784.337
50.271	13.278	1036.720	783.338
51.286	13.176	1035.947	782.203
52.301	13.267	1034.961	781.819
53.315	13.298	1034.341	781.431
54.330	13.317	1033.409	780.744
55.344	13.278	1032.498	779.806
56.359	13.193	1031.026	778.223
57.374	13.278	1030.138	777.884
58.388	13.266	1029.420	777.216
59.403	13.188	1029.028	776.484
60.417	13.088	1028.105	775.252
61.432	13.117	1027.775	775.072
62.447	13.271	1026.484	774.747
63.461	13.140	1026.047	773.738
64.476	13.140	1024.679	772.640
65.490	13.081	1024.061	771.829
66.505	13.151	1023.051	771.323
67.520	13.190	1022.217	770.808
68.534	13.220	1021.408	770.273
69.549	13.144	1020.862	769.437
70.563	13.208	1019.693	768.787
71.578	13.142	1019.556	768.308
72.593	13.136	1018.422	767.356
73.607	13.106	1017.443	766.411
74.622	13.095	1016.870	765.860
75.636	13.144	1015.737	765.168
76.651	13.010	1015.190	764.069
77.666	13.018	1014.620	763.610
78.680	13.176	1013.043	763.082
79.695	12.980	1013.563	762.503
80.709	13.177	1012.420	762.484
81.724	13.193	1011.455	761.764
82.739	13.219	1010.611	761.179
83.753	13.234	1010.255	760.914
84.768	13.367	1008.972	760.492
85.782	13.455	1008.302	760.323
86.797	13.421	1007.314	759.354
87.812	13.323	1006.521	758.243
88.826	13.170	1006.442	757.413
89.841	13.217	1005.232	756.651
90.855	13.243	1004.229	755.947
91.870	13.331	1003.584	755.797
92.884	13.246	1002.994	754.897
93.899	13.363	1002.149	754.731
94.914	13.343	1001.393	754.004
95.928	13.394	1000.517	753.506
96.943	13.373	999.703	752.730
97.957	13.351	999.261	752.232
98.972	13.319	998.593	751.516
99.987	13.346	997.655	750.866
101.001	13.438	996.597	750.424
102.016	13.355	995.997	749.527
103.030	13.445	994.523	748.760
104.045	13.426	994.067	748.264
105.060	13.354	992.923	747.012
106.074	13.376	992.446	746.689
107.089	13.385	991.292	745.790
108.103	13.275	990.446	744.596
109.118	13.306	989.476	743.940
110.133	13.146	989.493	743.165
111.147	13.228	988.130	742.445
112.162	13.239	987.119	741.670
113.176	13.291	986.362	741.269
114.191	13.307	985.600	740.701
115.206	13.428	984.558	740.396
116.220	13.429	983.833	739.788
117.235	13.376	983.290	739.079
118.249	13.286	981.995	737.637
119.264	13.344	981.046	737.120
120.279	13.267	980.325	736.169
121.293	13.287	979.567	735.620
122.308	13.313	978.614	734.957
123.322	13.182	977.926	733.795
124.337	13.117	977.339	732.998
125.352	13.215	975.916	732.304
126.366	13.151	975.056	731.308
127.381	13.195	973.703	730.425
128.395	13.205	972.501	729.502
129.410	13.279	971.806	729.241
130.424	13.353	970.549	728.562
131.439	13.251	970.277	727.845
132.454	13.249	968.961	726.782
133.468	13.299	968.111	726.299
134.483	13.295	967.847	726.021
135.497	13.267	966.980	725.185
136.512	13.314	966.172	724.719
137.527	13.190	965.505	723.613
138.541	13.334	964.459	723.395
139.556	13.299	963.631	722.554
140.570	13.387	963.097	722.473
141.585	13.288	962.534	721.558
142.600	13.350	961.815	721.225
143.614	13.547	960.105	720.734
144.629	13.536	960.095	720.614
145.643	13.604	959.184	720.164
146.658	13.594	958.282	719.378
147.673	13.565	957.562	718.651
148.687	13.475	956.789	717.615
149.702	13.313	956.025	716.280
150.716	13.387	955.245	715.951
151.731	13.471	954.133	715.418
152.746	13.421	953.369	714.565
153.760	13.644	952.447	714.772
154.775	13.432	952.434	713.785
155.789	13.521	951.133	713.129
156.804	13.541	950.467	712.655
157.819	13.551	949.620	711.998
158.833	13.556	949.437	711.821
159.848	13.557	948.732	711.234
160.862	13.720	947.572	711.000
161.877	13.598	947.252	710.173
162.892	13.573	946.317	709.301
163.906	13.621	944.814	708.319
164.921	13.603	944.439	707.896
165.935	13.583	943.359	706.942
166.950	13.589	942.239	706.066
167.964	13.603	941.932	705.833
168.979	13.633	940.847	705.084
169.994	13.631	939.812	704.237
171.008	13.633	938.894	703.496
172.023	13.551	938.139	702.519
173.037	13.717	937.198	702.457
174.052	13.718	936.249	701.686
175.067	13.771	936.086	701.724
176.081	13.661	935.161	700.506
177.096	13.682	934.356	699.930
178.110	13.563	933.478	698.707
179.125	13.610	932.530	698.134
180.140	13.802	931.952	698.450
181.154	13.655	931.307	697.283
182.169	13.797	930.544	697.249
183.183	13.812	930.027	696.864
184.198	13.770	929.108	695.937
185.213	13.748	928.440	695.284
186.227	13.754	927.775	694.749
187.242	13.786	927.298	694.465
188.256	13.848	926.872	694.340
189.271	13.941	926.057	694.059
190.286	13.953	925.245	693.437
191.300	13.871	924.425	692.420
192.315	13.843	923.466	691.525
193.329	13.638	923.158	690.380
194.344	13.808	922.209	690.317
195.359	13.766	921.703	689.702
196.373	13.881	920.988	689.581
197.388	13.974	920.624	689.635
198.402	13.898	920.121	688.881
199.417	13.961	919.837	688.868
200.432	13.946	919.310	688.354
201.446	14.142	918.628	688.591
202.461	14.046	918.642	688.143
203.475	14.138	918.272	688.186
204.490	14.156	917.476	687.603
205.504	14.159	916.250	686.637
206.519	14.112	915.576	685.878
207.534	14.255	914.741	685.780
208.548	14.226	913.900	684.969
209.563	14.100	913.525	684.107
210.577	14.175	912.764	683.787
211.592	14.154	912.342	683.324
212.607	14.284	911.505	683.170
213.621	14.246	910.989	682.566
214.636	14.191	910.741	682.094
215.650	14.124	909.812	681.066
216.665	14.318	908.729	680.986
217.680	14.256	908.609	680.585
218.694	14.500	907.583	680.752
219.709	14.369	907.254	679.909
220.723	14.436	906.761	679.754
221.738	14.385	905.999	678.915
222.753	14.307	905.359	678.057
223.767	14.327	904.577	677.491
224.782	14.261	904.187	676.872
225.796	14.405	902.851	676.397
226.811	14.525	902.231	676.359
227.826	14.431	901.936	675.696
228.840	14.370	900.985	674.676
229.855	14.402	900.720	674.548
230.869	14.371	900.302	674.050
231.884	14.303	899.518	673.129
232.899	14.444	898.687	673.019
233.913	14.322	897.856	671.843
234.928	14.494	896.733	671.636
235.942	14.539	896.430	671.529
236.957	14.463	895.684	670.606
237.972	14.533	894.606	670.024
238.986	14.458	894.336	669.458
240.001	14.466	893.579	668.868
241.015	14.454	893.561	668.745
242.030	14.450	892.535	667.904
243.045	14.562	891.818	667.753
244.059	14.686	890.835	667.456
245.074	14.724	890.156	667.039
246.088	14.654	889.902	666.511
247.103	14.690	889.302	666.147
248.117	14.660	888.909	665.672
249.132	14.647	888.646	665.363
250.147	14.613	887.985	664.675
251.161	14.824	886.921	664.662
252.176	14.725	886.532	663.915
253.190	14.826	885.777	663.694
254.205	14.812	885.328	663.242
255.220	14.972	884.388	663.114
256.234	14.880	883.976	662.381
257.249	14.876	883.465	661.926
258.263	14.925	882.735	661.513
259.278	14.798	882.005	660.404
260.293	15.014	881.587	660.887
261.307	15.122	880.708	660.594
262.322	15.108	880.171	660.079
263.336	15.064	879.654	659.461
264.351	15.140	879.025	659.230
265.366	15.151	878.181	658.582
266.380	15.149	877.990	658.371
267.395	15.086	877.366	657.596
268.409	15.276	876.533	657.661
269.424	15.097	875.837	656.380
270.439	15.193	875.222	656.235
271.453	15.151	873.990	655.090
272.468	15.281	873.360	655.067
273.482	15.185	873.181	654.501
274.497	15.270	872.364	654.163
275.512	15.141	871.984	653.316
276.526	15.171	870.792	652.482
277.541	15.235	870.266	652.280
278.555	15.123	870.028	651.607
279.570	15.256	869.425	651.615
280.585	15.401	868.724	651.595
281.599	15.227	868.141	650.424
282.614	15.419	867.316	650.493
283.628	15.533	866.444	650.222
284.643	15.222	866.324	648.870
285.657	15.376	866.028	649.187
286.672	15.400	865.077	648.509
287.687	15.455	864.503	648.234
288.701	15.475	863.819	647.742
289.716	15.466	863.250	647.223
290.730	15.457	862.927	646.888
291.745	15.391	862.574	646.312
292.760	15.580	861.355	646.069
293.774	15.516	861.104	645.578
294.789	15.541	860.744	645.349
295.803	15.648	859.781	644.981
296.818	15.625	859.155	644.366
297.833	15.491	858.693	643.448
298.847	15.627	857.539	643.045
299.862	15.648	857.111	642.748
300.876	15.630	856.555	642.206
301.891	15.630	856.114	641.819
302.906	15.792	854.658	641.286
303.920	15.779	854.330	640.936
304.935	15.824	853.819	640.666
305.949	15.849	853.383	640.377
306.964	15.716	852.676	639.286
307.979	15.777	851.944	638.911
308.993	15.666	852.015	638.486
310.008	15.751	851.354	638.259
311.022	15.927	850.407	638.156
312.037	15.924	850.020	637.799
313.052	15.893	849.322	637.102
314.066	15.775	848.765	636.183
315.081	15.842	848.230	635.977
316.095	15.848	847.533	635.421
317.110	15.808	847.412	635.123
318.125	15.751	846.790	634.385
319.139	15.794	846.421	634.215
320.154	15.731	845.909	633.538
321.168	15.818	845.239	633.309
322.183	15.913	844.399	632.978
323.197	15.910	844.167	632.738
324.212	15.849	843.728	632.124
325.227	15.998	842.757	631.900
326.241	16.027	842.312	631.618
327.256	15.938	842.207	631.152
328.270	15.867	841.547	630.336
329.285	15.934	840.529	629.766
330.300	15.926	840.136	629.388
331.314	16.015	839.470	629.166
332.329	16.018	839.080	628.828
333.343	16.103	838.632	628.753
334.358	15.958	837.934	627.634
335.373	16.020	837.261	627.304
336.387	16.118	836.708	627.200
337.402	16.040	836.521	626.713
338.416	16.162	835.419	626.284
339.431	16.215	835.064	626.162
340.446	16.147	834.608	625.511
341.460	16.311	833.940	625.564
342.475	16.295	833.153	624.860
343.489	16.217	833.292	624.618
344.504	16.448	832.221	624.614
345.519	16.524	831.553	624.340
346.533	16.502	831.258	623.980
347.548	16.341	830.915	623.074
348.562	16.356	830.479	622.748
349.577	16.448	829.556	622.340
350.592	16.266	829.671	621.702
351.606	16.356	829.056	621.515
352.621	16.386	828.032	620.802
353.635	16.421	828.148	620.963
354.650	16.413	827.564	620.440
355.665	16.341	827.322	619.942
356.679	16.418	826.718	619.713
357.694	16.381	826.554	619.402
358.708	16.385	825.774	618.777
359.723	16.538	824.559	618.372
360.738	16.438	824.490	617.898
361.752	16.450	823.938	617.474
362.767	16.583	823.865	617.850
363.781	16.689	823.047	617.571
364.796	16.514	822.982	616.828
365.810	16.633	822.551	616.884
366.825	16.701	821.728	616.461
367.840	16.503	821.776	615.722
368.854	16.653	821.387	615.922
369.869	16.585	820.639	615.059
370.883	16.691	819.677	614.669
371.898	16.729	819.491	614.611
372.913	16.813	818.681	614.255
373.927	16.900	818.043	614.036
374.942	16.786	817.448	613.121
375.956	16.796	816.777	612.602
376.971	16.971	815.988	612.587
377.986	16.783	815.854	611.755
379.000	16.714	815.842	611.441
380.015	16.973	814.751	611.503
381.029	16.986	814.366	611.208
382.044	16.976	813.759	610.661
383.059	16.942	813.213	610.077
384.073	16.981	812.333	609.502
385.088	16.959	812.241	609.301
386.102	16.934	811.613	608.686
387.117	17.032	811.004	608.526
388.132	17.115	810.437	608.344
389.146	17.170	810.004	608.164
390.161	16.964	810.114	607.454
391.175	16.976	809.733	607.155
392.190	17.039	809.055	606.818
393.205	17.156	808.627	606.865
394.219	17.069	808.431	606.351
395.234	17.112	807.634	605.853
396.248	16.798	807.479	604.565
397.263	17.022	806.702	604.726
398.278	17.004	806.199	604.231
399.292	17.078	805.725	604.085
400.307	17.110	805.059	603.648
401.321	16.990	805.319	603.362
402.336	17.201	804.555	603.486
403.350	17.086	804.197	602.755
404.365	17.099	803.431	602.176
405.380	17.245	803.060	602.361
406.394	17.112	803.043	601.824
407.409	17.195	802.347	601.542
408.423	17.255	802.016	601.452
409.438	17.429	801.445	601.586
410.453	17.300	801.010	600.750
411.467	17.388	800.338	600.507
412.482	17.460	800.092	600.522
413.496	17.443	799.357	599.857
414.511	17.347	799.622	599.664
415.526	17.302	798.934	598.938
416.540	17.519	798.441	599.279
417.555	17.465	798.016	598.714
418.569	17.487	797.433	598.304
419.584	17.468	796.941	597.813
420.599	17.598	796.255	597.704
421.613	113.349	1297.344	1486.196
422.628	97.586	1370.343	1486.291
