DTS Sentinel unit serial number:	SN413079Multiplexer serial number:	ORYXHardware model number:	OX4-SRSoftware version number:	ORYX F/W v4.00 Oryx Data Collector v3.7.2.0data status	okinstallation	princeton_trtdifferential loss correction	single-endedforward channel	channel 3reverse channel	N/Adate	2019/09/19time	11:12:35forward acquisition time	60.00reverse acquisition time	0.00gamma	496.2192k internal	0.2342k external	0.2342temperature offset calibration	0.9978default loss term (dB/km)	0.3790temperature slope calibration	1.0000multiplexer offset coefficient	1.0000multiplexer slope coefficient	1.0000fibre end	0.00T internal ref (°C)	25.06T ext. ref 1 (°C)	0.77T ext. ref 2 (°C)	20.62length (m)	temperature (°C)	Stokes	anti-Stokes-747.200	103.845	-0.078	0.092
-746.185	241.334	0.112	0.188
-745.171	-4.589	-0.401	0.278
-744.156	-113.099	-0.092	0.018
-743.142	-200.000	-0.006	-0.079
-742.127	-45.348	-0.175	0.087
-741.112	800.000	0.027	-0.104
-740.098	304.815	-0.086	0.159
-739.083	-74.407	0.226	-0.082
-738.069	-62.920	0.119	0.049
-737.054	-200.000	0.000	-0.151
-736.039	-67.147	-0.327	-0.129
-735.025	152.631	0.076	-0.104
-734.010	81.162	0.058	0.062
-732.996	165.371	0.151	0.214
-731.981	-94.926	-0.279	0.076
-730.966	83.668	0.201	0.220
-729.952	-134.214	-0.172	0.021
-728.937	411.326	-0.225	-0.477
-727.923	-105.656	-0.189	-0.043
-726.908	54.465	-0.381	-0.368
-725.894	286.615	0.089	-0.161
-724.879	-49.581	0.071	-0.034
-723.864	-153.093	-0.048	-0.003
-722.850	-106.025	-0.196	-0.044
-721.835	97.659	-0.159	-0.183
-720.821	-96.365	-0.299	-0.079
-719.806	139.001	0.025	-0.032
-718.791	800.000	-0.063	-0.185
-717.777	800.000	0.071	-0.307
-716.762	-4.730	0.120	-0.083
-715.748	179.452	0.175	0.257
-714.733	218.820	0.152	-0.243
-713.718	130.503	-0.121	0.155
-712.704	329.108	0.235	-0.452
-711.689	-200.000	-0.007	-0.108
-710.675	233.647	-0.029	-0.048
-709.660	-38.745	-0.059	-0.031
-708.645	-36.524	-0.196	0.105
-707.631	183.107	-0.236	0.348
-706.616	-175.571	0.236	0.006
-705.602	-42.422	0.123	0.063
-704.587	-10.299	0.183	-0.121
-703.572	-200.000	-0.037	0.445
-702.558	3.560	-0.130	0.095
-701.543	-35.826	-0.280	-0.152
-700.529	-68.225	0.187	-0.073
-699.514	-18.744	-0.045	0.028
-698.499	-200.000	-0.035	0.212
-697.485	-200.000	-0.007	-0.145
-696.470	257.856	0.051	0.087
-695.456	82.205	-0.106	-0.115
-694.441	-120.972	-0.191	-0.032
-693.426	-88.363	-0.085	-0.025
-692.412	-144.407	-0.366	0.034
-691.397	-200.000	-0.065	-0.499
-690.383	171.689	-0.023	-0.033
-689.368	-114.999	-0.191	0.036
-688.354	-78.396	-0.031	-0.011
-687.339	-52.922	-0.181	0.083
-686.324	-103.736	-0.427	-0.100
-685.310	-75.025	-0.089	0.032
-684.295	-30.129	-0.230	-0.131
-683.281	128.908	0.043	-0.055
-682.266	-98.252	0.249	0.064
-681.251	330.154	0.120	0.231
-680.237	-63.692	-0.341	0.140
-679.222	29.230	0.193	-0.163
-678.208	93.159	0.098	-0.111
-677.193	-14.213	0.249	0.161
-676.178	313.428	-0.093	-0.174
-675.164	249.519	0.079	-0.133
-674.149	-139.162	0.257	-0.028
-673.135	-200.000	-0.012	0.272
-672.120	-200.000	-0.008	0.039
-671.105	-102.611	-0.147	0.035
-670.091	-31.472	0.386	0.217
-669.076	-150.821	-0.545	0.041
-668.062	-176.765	-0.204	-0.005
-667.047	-178.882	0.195	-0.004
-666.032	-200.000	0.031	-0.137
-665.018	57.703	0.287	0.280
-664.003	18.720	-0.137	0.110
-662.989	-90.518	-0.073	0.021
-661.974	-51.406	0.117	-0.055
-660.959	30.213	-0.014	0.012
-659.945	800.000	0.046	-0.141
-658.930	10.948	-0.178	0.136
-657.916	-89.901	-0.359	0.105
-656.901	222.109	0.119	0.192
-655.886	-160.867	0.264	-0.014
-654.872	-119.946	0.184	-0.032
-653.857	800.000	0.143	-0.457
-652.843	-61.159	-0.242	-0.102
-651.828	-84.891	-0.194	-0.061
-650.814	9.724	0.154	-0.117
-649.799	349.742	0.027	0.054
-648.784	-200.000	-0.095	0.499
-647.770	-68.206	-0.238	-0.092
-646.755	127.185	0.155	0.197
-645.741	-133.730	0.195	-0.024
-644.726	102.422	0.121	-0.141
-643.711	-60.712	-0.114	-0.048
-642.697	19.153	0.101	0.081
-641.682	104.280	-0.048	-0.056
-640.668	0.455	-0.255	0.182
-639.653	9.221	0.195	0.147
-638.638	-200.000	-0.022	0.245
-637.624	702.925	-0.125	-0.328
-636.609	-200.000	-0.010	0.313
-635.595	-200.000	0.012	0.322
-634.580	452.666	0.072	-0.158
-633.565	-94.871	-0.051	-0.014
-632.551	-45.099	0.133	-0.066
-631.536	-145.433	0.106	-0.009
-630.522	-200.000	0.018	-0.105
-629.507	96.540	0.081	-0.093
-628.492	-98.161	-0.379	-0.097
-627.478	25.791	-0.285	-0.237
-626.463	-46.608	-0.551	-0.269
-625.449	-200.000	0.041	0.229
-624.434	-71.933	0.426	-0.158
-623.419	15.781	0.182	-0.143
-622.405	14.670	-0.311	0.242
-621.390	-25.674	0.188	-0.111
-620.376	-136.532	0.283	0.033
-619.361	-74.771	0.420	0.150
-618.346	75.363	-0.258	-0.272
-617.332	65.575	-0.080	-0.081
-616.317	185.728	-0.138	-0.205
-615.303	-14.186	0.164	0.105
-614.288	-200.000	0.010	-0.046
-613.273	-125.992	0.179	-0.027
-612.259	-177.015	-0.179	0.004
-611.244	83.549	-0.125	-0.136
-610.230	104.814	-0.175	-0.206
-609.215	-200.000	-0.019	-0.228
-608.201	151.594	-0.056	-0.076
-607.186	150.099	0.079	0.107
-606.171	-127.050	-0.152	0.022
-605.157	-200.000	0.035	0.196
-604.142	-152.057	-0.147	-0.011
-603.128	800.000	-0.081	-0.323
-602.113	-61.634	-0.146	0.061
-601.098	-103.016	-0.471	-0.111
-600.084	16.248	-0.110	0.087
-599.069	-174.297	-0.571	0.016
-598.055	-49.203	-0.325	0.155
-597.040	-136.094	-0.198	0.023
-596.025	800.000	0.040	0.149
-595.011	716.222	-0.073	-0.194
-593.996	-200.000	-0.023	-0.240
-592.982	298.033	0.111	-0.204
-591.967	736.943	0.079	-0.211
-590.952	800.000	0.005	0.015
-589.938	-105.970	-0.188	0.042
-588.923	-200.000	-0.013	-0.160
-587.909	800.000	-0.066	0.217
-586.894	618.115	0.125	-0.312
-585.879	-69.564	-0.067	-0.025
-584.865	-200.000	-0.021	0.157
-583.850	800.000	0.086	0.279
-582.836	552.343	0.081	-0.194
-581.821	45.191	-0.180	-0.165
-580.806	800.000	-0.096	-0.266
-579.792	627.264	-0.136	-0.342
-578.777	-107.226	-0.277	0.061
-577.763	-18.948	0.207	0.128
-576.748	75.851	0.111	0.116
-575.733	800.000	-0.098	0.368
-574.719	-200.000	-0.016	-0.263
-573.704	800.000	0.012	-0.041
-572.690	124.749	0.155	-0.195
-571.675	-200.000	0.010	0.142
-570.661	128.608	0.118	-0.150
-569.646	58.920	-0.324	0.317
-568.631	47.910	-0.176	-0.164
-567.617	-160.401	-0.059	0.003
-566.602	-200.000	0.004	-0.187
-565.588	-200.000	-0.035	0.236
-564.573	-63.138	-0.074	-0.030
-563.558	800.000	0.119	0.428
-562.544	-107.894	-0.071	0.015
-561.529	13.639	0.146	-0.113
-560.515	-200.000	0.023	0.222
-559.500	135.122	0.196	0.253
-558.485	-0.569	0.235	-0.166
-557.471	363.565	0.106	0.213
-556.456	18.902	-0.101	-0.080
-555.442	800.000	-0.015	0.064
-554.427	-95.686	0.093	0.025
-553.412	800.000	-0.059	-0.163
-552.398	-12.339	0.194	-0.126
-551.383	326.258	-0.193	-0.368
-550.369	-25.436	-0.196	0.115
-549.354	-136.799	-0.152	0.017
-548.339	22.397	-0.019	-0.015
-547.325	454.645	0.096	-0.211
-546.310	170.600	0.007	-0.010
-545.296	40.394	-0.244	-0.218
-544.281	-179.031	0.253	0.006
-543.266	760.758	-0.079	0.214
-542.252	-86.562	-0.045	-0.014
-541.237	-200.000	0.031	0.359
-540.223	372.804	0.094	-0.190
-539.208	221.261	-0.013	0.021
-538.193	625.283	-0.051	-0.127
-537.179	-71.063	-0.221	0.082
-536.164	-21.276	0.076	-0.046
-535.150	169.318	-0.151	-0.214
-534.135	-163.649	0.146	0.007
-533.121	440.005	-0.051	0.112
-532.106	-42.350	-0.438	-0.222
-531.091	10.464	0.074	0.056
-530.077	-59.972	0.302	0.128
-529.062	800.000	0.029	0.087
-528.048	-82.563	-0.215	0.069
-527.033	-200.000	0.002	-0.055
-526.018	68.988	-0.383	0.391
-525.004	-200.000	-0.018	0.157
-523.989	218.262	0.064	-0.101
-522.975	-73.041	-0.304	-0.111
-521.960	-79.408	-0.192	0.065
-520.945	-200.000	-0.033	0.153
-519.931	-91.868	-0.289	0.081
-518.916	38.349	-0.247	-0.218
-517.902	-127.950	0.339	0.048
-516.887	14.494	0.104	-0.081
-515.872	373.279	-0.103	0.208
-514.858	-132.752	0.043	-0.005
-513.843	391.337	0.236	0.486
-512.829	-4.164	0.255	0.175
-511.814	-157.135	-0.152	0.009
-510.799	-156.291	-0.064	-0.004
-509.785	-200.000	-0.025	0.172
-508.770	800.000	-0.052	0.179
-507.756	-93.324	0.117	0.032
-506.741	-48.963	0.490	0.233
-505.726	-156.870	0.031	-0.002
-504.712	-42.286	0.108	-0.055
-503.697	-200.000	0.003	-0.087
-502.683	47.981	-0.140	-0.130
-501.668	-33.755	0.163	-0.089
-500.653	-131.105	-0.317	0.042
-499.639	47.050	-0.164	0.151
-498.624	-141.169	0.296	-0.030
-497.610	605.036	-0.161	0.398
-496.595	8.986	0.145	0.109
-495.581	16.668	-0.207	-0.163
-494.566	-0.201	-0.413	-0.291
-493.551	25.070	0.191	-0.158
-492.537	369.562	-0.093	0.186
-491.522	654.820	0.118	0.300
-490.508	380.761	-0.281	0.571
-489.493	51.876	0.027	0.025
-488.478	-200.000	-0.026	0.128
-487.464	-200.000	0.051	-0.459
-486.449	37.966	0.077	-0.068
-485.435	125.082	0.169	0.211
-484.420	-90.335	0.179	-0.051
-483.405	800.000	0.136	0.519
-482.391	-200.000	0.006	-0.201
-481.376	70.340	-0.103	-0.105
-480.362	24.540	0.180	-0.148
-479.347	800.000	-0.133	0.371
-478.332	27.775	0.241	0.202
-477.318	191.511	-0.125	0.187
-476.303	-81.600	-0.371	-0.121
-475.289	-165.102	0.219	-0.010
-474.274	-200.000	0.033	-0.184
-473.259	101.730	-0.071	0.083
-472.245	49.063	-0.253	-0.236
-471.230	-133.813	-0.399	-0.049
-470.216	800.000	0.062	0.204
-469.201	-200.000	0.058	0.395
-468.186	-109.664	0.249	-0.052
-467.172	-99.044	-0.204	0.051
-466.157	-200.000	0.027	-0.314
-465.143	364.726	0.114	0.227
-464.128	1.261	-0.019	-0.013
-463.113	-200.000	0.046	0.397
-462.099	105.682	0.030	0.035
-461.084	-10.745	-0.390	0.255
-460.070	-200.000	0.004	-0.168
-459.055	281.052	0.139	-0.247
-458.040	-78.914	-0.305	-0.103
-457.026	-120.504	-0.143	-0.024
-456.011	121.445	0.048	-0.060
-454.997	30.563	0.030	0.026
-453.982	-200.000	0.015	-0.210
-452.968	375.905	0.063	-0.127
-451.953	800.000	0.036	0.113
-450.938	-10.011	-0.272	0.179
-449.924	-86.990	-0.231	-0.070
-448.909	80.278	0.153	-0.163
-447.895	-182.785	-0.392	0.007
-446.880	-200.000	-0.017	-0.103
-445.865	-200.000	-0.004	-0.390
-444.851	39.961	-0.115	-0.102
-443.836	-200.000	0.012	-0.166
-442.822	96.821	-0.251	-0.285
-441.807	-200.000	0.005	0.123
-440.792	5.556	0.109	0.080
-439.778	-62.492	-0.097	0.040
-438.763	234.823	0.067	0.109
-437.749	-200.000	-0.019	0.153
-436.734	480.733	0.175	-0.394
-435.719	-67.319	0.174	-0.068
-434.705	800.000	0.062	-0.230
-433.690	61.229	0.020	0.020
-432.676	106.087	-0.144	-0.169
-431.661	492.984	0.034	-0.077
-430.646	-61.821	-0.366	-0.152
-429.632	406.060	0.326	0.681
-428.617	35.749	0.194	-0.169
-427.603	55.144	0.186	-0.178
-426.588	192.084	-0.197	-0.294
-425.573	-115.195	0.232	-0.043
-424.559	225.204	-0.148	0.237
-423.544	28.862	0.182	-0.153
-422.530	-200.000	0.013	0.171
-421.515	-45.617	0.263	0.129
-420.500	-29.214	0.214	-0.121
-419.486	-124.222	0.100	-0.016
-418.471	-200.000	0.020	-0.322
-417.457	39.591	0.318	-0.282
-416.442	800.000	-0.061	0.189
-415.428	581.519	0.054	-0.132
-414.413	-200.000	0.059	-0.465
-413.398	171.914	-0.075	-0.107
-412.384	800.000	-0.008	0.034
-411.369	586.569	0.023	-0.056
-410.355	605.214	0.011	0.027
-409.340	102.203	-0.209	-0.241
-408.325	151.675	-0.168	-0.226
-407.311	800.000	0.140	-0.388
-406.296	170.599	-0.038	0.053
-405.282	-112.014	0.082	0.016
-404.267	-34.163	0.222	0.120
-403.252	42.671	0.192	0.173
-402.238	214.008	-0.047	-0.073
-401.223	800.000	-0.015	0.057
-400.209	-176.962	0.048	0.001
-399.194	204.273	0.070	-0.107
-398.179	83.298	0.058	0.063
-397.165	800.000	0.063	0.196
-396.150	126.441	0.245	0.307
-395.136	305.119	0.029	-0.054
-394.121	800.000	0.045	-0.178
-393.106	15.918	-0.075	0.058
-392.092	134.025	0.119	-0.152
-391.077	-200.000	0.033	0.216
-390.063	-200.000	0.017	0.434
-389.048	-123.232	0.262	-0.041
-388.033	-53.268	-0.117	0.053
-387.019	-28.149	0.020	0.011
-386.004	270.887	0.128	-0.223
-384.990	-28.860	-0.169	0.096
-383.975	3.827	-0.199	-0.144
-382.960	-137.710	0.189	-0.021
-381.946	-113.902	-0.187	-0.036
-380.931	690.508	0.057	-0.147
-379.917	-200.000	0.062	-0.284
-378.902	105.121	-0.107	-0.125
-377.888	-200.000	-0.005	-0.288
-376.873	-200.000	-0.003	0.110
-375.858	553.908	-0.082	-0.195
-374.844	632.974	0.065	-0.164
-373.829	800.000	-0.078	-0.241
-372.815	-28.516	0.208	-0.118
-371.800	148.122	0.094	0.125
-370.785	800.000	-0.074	0.266
-369.771	-174.775	-0.171	0.005
-368.756	27.239	-0.071	-0.059
-367.742	-200.000	-0.007	0.156
-366.727	-59.186	0.083	-0.035
-365.712	-120.272	-0.136	0.023
-364.698	-77.893	-0.469	0.160
-363.683	-200.000	-0.017	-0.123
-362.669	-56.807	0.140	0.061
-361.654	-20.138	0.042	0.026
-360.639	722.285	0.170	0.447
-359.625	-22.580	-0.121	-0.072
-358.610	-35.004	0.243	0.131
-357.596	-200.000	-0.012	-0.075
-356.581	209.802	-0.072	-0.111
-355.566	800.000	-0.077	0.293
-354.552	-106.933	-0.369	-0.081
-353.537	-131.903	-0.017	-0.002
-352.523	-86.413	0.200	0.061
-351.508	-200.000	0.022	0.141
-350.493	-85.596	-0.210	-0.064
-349.479	-47.849	-0.350	-0.167
-348.464	51.951	-0.149	-0.140
-347.450	-200.000	0.024	-0.266
-346.435	-200.000	-0.004	0.035
-345.420	109.116	-0.021	0.024
-344.406	-8.132	0.242	-0.161
-343.391	376.150	-0.099	0.199
-342.377	-200.000	0.002	-0.108
-341.362	-53.818	0.101	-0.045
-340.348	47.156	-0.091	0.083
-339.333	-200.000	0.015	0.121
-338.318	685.878	-0.037	0.096
-337.304	800.000	0.086	-0.315
-336.289	-121.860	-0.091	0.015
-335.275	1.264	0.126	-0.089
-334.260	39.691	-0.112	-0.099
-333.245	-200.000	0.025	0.217
-332.231	404.990	-0.161	-0.335
-331.216	703.071	0.115	0.299
-330.202	-65.052	0.197	0.078
-329.187	-71.773	-0.205	0.075
-328.172	-62.135	-0.265	0.109
-327.158	800.000	-0.061	0.195
-326.143	193.731	0.129	0.192
-325.129	150.605	-0.188	-0.252
-324.114	-200.000	-0.020	-0.102
-323.099	-179.476	0.185	-0.004
-322.085	-200.000	-0.051	0.239
-321.070	50.630	0.093	-0.086
-320.056	-200.000	-0.020	-0.276
-319.041	88.190	0.097	0.106
-318.026	771.793	-0.097	-0.261
-317.012	-200.000	-0.015	-0.136
-315.997	113.622	0.198	-0.237
-314.983	-200.000	-0.005	0.158
-313.968	-23.364	-0.111	-0.066
-312.953	55.555	-0.080	0.076
-311.939	-200.000	-0.015	-0.067
-310.924	-200.000	0.073	-0.459
-309.910	3.157	-0.274	0.196
-308.895	-200.000	0.013	0.111
-307.880	-50.187	-0.166	0.077
-306.866	800.000	0.045	0.122
-305.851	800.000	0.128	0.385
-304.837	-118.773	0.303	0.053
-303.822	-79.421	0.243	-0.081
-302.807	-9.324	-0.223	-0.147
-301.793	-61.363	-0.295	-0.122
-300.778	391.057	0.091	0.186
-299.764	-94.729	-0.299	0.080
-298.749	-188.375	0.480	0.006
-297.735	48.442	0.173	-0.159
-296.720	-180.267	0.323	-0.007
-295.705	35.271	-0.040	-0.034
-294.691	-200.000	0.047	0.234
-293.676	-9.373	0.221	-0.145
-292.662	-200.000	-0.038	0.351
-291.647	-200.000	-0.053	0.522
-290.632	-110.650	0.115	-0.023
-289.618	275.946	-0.121	-0.211
-288.603	164.500	0.131	0.182
-287.589	4.952	-0.164	0.118
-286.574	47.077	0.116	0.106
-285.559	17.331	-0.234	-0.183
-284.545	229.114	-0.054	-0.086
-283.530	-37.542	0.264	-0.138
-282.516	711.884	-0.141	0.367
-281.501	-90.815	0.195	-0.055
-280.486	-37.632	0.152	-0.080
-279.472	90.452	-0.261	0.287
-278.457	-200.000	-0.080	0.426
-277.443	54.643	0.357	-0.338
-276.428	800.000	-0.025	0.088
-275.413	150.134	-0.050	-0.067
-274.399	90.759	-0.160	-0.176
-273.384	800.000	0.040	-0.174
-272.370	240.338	0.070	0.115
-271.355	-200.000	0.022	0.427
-270.340	252.948	0.063	-0.105
-269.326	-200.000	-0.016	-0.089
-268.311	144.327	-0.174	-0.228
-267.297	481.148	-0.106	-0.237
-266.282	40.046	0.088	-0.078
-265.267	363.066	0.114	-0.226
-264.253	-89.466	-0.262	-0.076
-263.238	-105.886	0.232	0.051
-262.224	223.573	-0.062	0.099
-261.209	-151.937	-0.235	-0.017
-260.195	-69.505	0.189	-0.071
-259.180	12.864	0.183	0.139
-258.165	220.990	-0.049	0.077
-257.151	-174.069	-0.249	0.007
-256.136	252.768	-0.078	-0.131
-255.122	-157.421	-0.112	-0.007
-254.107	-200.000	-0.014	-0.319
-253.092	-56.135	0.185	-0.081
-252.078	-35.997	0.054	-0.029
-251.063	330.501	0.106	0.201
-250.049	62.096	-0.354	0.347
-249.034	800.000	-0.027	-0.094
-248.019	-157.438	0.276	-0.016
-247.005	-98.244	-0.286	0.072
-245.990	58.454	0.100	-0.096
-244.976	253.342	0.043	0.072
-243.961	-35.325	-0.061	0.033
-242.946	-200.000	0.009	-0.320
-241.932	800.000	0.052	-0.187
-240.917	800.000	-0.029	-0.111
-239.903	800.000	0.072	-0.231
-238.888	800.000	0.020	0.062
-237.873	37.139	-0.087	0.076
-236.859	-37.514	0.227	0.119
-235.844	403.358	0.051	-0.105
-234.830	-200.000	0.045	-0.395
-233.815	99.632	-0.044	0.050
-232.800	-200.000	-0.039	0.195
-231.786	-92.284	-0.079	0.022
-230.771	339.149	0.115	-0.220
-229.757	-118.396	0.201	-0.035
-228.742	-200.000	0.026	-0.151
-227.727	-118.093	0.253	-0.044
-226.713	117.606	-0.101	-0.122
-225.698	25.457	0.053	-0.043
-224.684	-200.000	0.013	-0.416
-223.669	201.637	0.282	-0.427
-222.655	300.721	0.110	0.199
-221.640	1.049	-0.093	0.066
-220.625	-125.841	0.132	-0.020
-219.611	-27.611	0.158	0.090
-218.596	-84.771	-0.205	-0.063
-217.582	-112.278	-0.268	0.053
-216.567	124.794	-0.258	0.319
-215.552	-126.129	0.156	0.023
-214.538	-15.078	0.270	-0.170
-213.523	199.792	-0.213	0.321
-212.509	65.202	0.115	0.114
-211.494	-133.035	0.068	-0.008
-210.479	-13.725	0.197	-0.125
-209.465	-200.000	-0.027	0.125
-208.450	-92.374	0.329	-0.091
-207.436	705.226	0.056	-0.146
-206.421	-200.000	0.036	-0.217
-205.406	110.658	0.132	-0.156
-204.392	-2.870	0.289	-0.198
-203.377	800.000	-0.100	0.298
-202.363	-32.954	-0.113	-0.062
-201.348	43.986	0.144	0.129
-200.333	255.958	0.134	0.225
-199.319	-36.114	0.530	0.281
-198.304	26.957	-0.162	0.133
-197.290	-44.383	0.151	-0.074
-196.275	-18.995	0.235	0.143
-195.260	800.000	-0.084	0.283
-194.246	124.910	-0.031	-0.038
-193.231	-200.000	0.008	-0.041
-192.217	-41.270	0.204	0.103
-191.202	101.102	-0.212	0.242
-190.187	16.499	0.175	0.136
-189.173	100.088	0.154	0.175
-188.158	-132.533	0.229	0.029
-187.144	-20.103	0.238	-0.144
-186.129	10.689	-0.118	0.088
-185.114	59.476	0.062	-0.060
-184.100	137.548	0.205	-0.262
-183.085	3.735	-0.256	0.183
-182.071	-63.498	0.345	0.139
-181.056	-200.000	0.000	0.206
-180.042	-29.602	-0.298	0.167
-179.027	-200.000	0.017	0.089
-178.012	31.874	0.159	0.134
-176.998	-200.000	0.060	-0.265
-175.983	-198.087	0.045	-0.000
-174.969	53.171	-0.190	0.178
-173.954	-200.000	0.024	0.144
-172.939	800.000	-0.054	-0.168
-171.925	-200.000	0.035	0.154
-170.910	534.079	0.115	-0.267
-169.896	381.034	0.126	-0.254
-168.881	-200.000	0.001	-0.055
-167.866	-200.000	-0.005	0.303
-166.852	-200.000	0.054	0.405
-165.837	-200.000	-0.032	0.238
-164.823	126.614	-0.198	0.246
-163.808	7.565	0.127	-0.093
-162.793	10.106	0.043	-0.032
-161.779	224.462	0.137	0.217
-160.764	136.146	-0.040	-0.051
-159.750	-61.203	-0.037	-0.015
-158.735	-91.376	-0.210	0.059
-157.720	437.355	-0.090	-0.191
-156.706	713.983	-0.106	-0.274
-155.691	779.238	-0.070	0.188
-154.677	221.156	0.166	0.260
-153.662	140.033	0.075	-0.097
-152.647	-22.693	0.251	0.148
-151.633	8.369	0.239	-0.176
-150.618	-69.195	0.458	-0.172
-149.604	-75.647	0.418	0.145
-148.589	-75.215	0.303	-0.106
-147.574	369.441	0.061	0.121
-146.560	481.619	-0.200	0.444
-145.545	800.000	-0.029	0.080
-144.531	-76.005	-0.358	-0.124
-143.516	-200.000	0.003	-0.392
-142.502	202.013	0.139	0.210
-141.487	-142.989	-0.256	-0.024
-140.472	-85.518	0.131	-0.040
-139.458	122.432	-0.237	-0.290
-138.443	-78.945	0.141	0.047
-137.429	-38.607	0.239	0.123
-136.414	18.571	-0.210	0.164
-135.399	245.628	0.067	0.111
-134.385	240.839	0.120	0.196
-133.370	283.938	0.154	-0.271
-132.356	-80.529	-0.061	-0.020
-131.341	-200.000	-0.036	0.212
-130.326	-52.212	0.077	0.035
-129.312	-76.424	0.480	0.165
-128.297	800.000	0.074	-0.264
-127.283	800.000	-0.068	-0.224
-126.268	-54.621	-0.433	0.192
-125.253	111.879	0.134	-0.158
-124.239	10.159	0.279	-0.208
-123.224	280.565	-0.090	0.158
-122.210	384.646	0.058	0.117
-121.195	-200.000	-0.007	-0.144
-120.180	-200.000	-0.026	0.368
-119.166	-136.538	-0.210	-0.024
-118.151	-1.606	-0.164	-0.113
-117.137	-75.005	0.132	-0.046
-116.122	68.918	-0.190	0.191
-115.107	-42.716	-0.212	-0.105
-114.093	-68.291	0.120	0.046
-113.078	330.406	0.115	0.217
-112.064	-9.156	-0.147	0.096
-111.049	10.843	-0.150	0.112
-110.034	366.237	-0.186	-0.367
-109.020	-5.447	0.227	-0.153
-108.005	-200.000	-0.044	-0.274
-106.991	-19.540	-0.226	-0.137
-105.976	30.547	0.097	0.081
-104.962	-141.174	0.096	0.010
-103.947	-200.000	0.054	0.295
-102.932	-145.645	-0.106	0.009
-101.918	-66.101	-0.276	-0.107
-100.903	800.000	-0.026	0.100
-99.889	-129.417	0.159	0.022
-98.874	-115.199	-0.455	-0.084
-97.859	61.298	0.122	0.118
-96.845	-200.000	0.316	-0.001
-95.830	800.000	-0.034	-0.098
-94.816	-111.812	0.232	0.046
-93.801	800.000	0.138	0.400
-92.786	70.707	0.059	-0.059
-91.772	-108.569	0.326	-0.069
-90.757	-139.680	0.030	0.003
-89.743	435.379	0.047	-0.101
-88.728	34.672	0.150	-0.128
-87.713	-104.629	0.042	0.009
-86.699	-99.855	0.270	-0.066
-85.684	92.789	-0.035	-0.038
-84.670	800.000	-0.057	0.241
-83.655	-200.000	0.016	0.230
-82.640	-200.000	0.006	0.239
-81.626	124.876	-0.094	0.116
-80.611	-87.664	-0.175	0.052
-79.597	-10.435	-0.050	-0.032
-78.582	-12.343	0.257	0.164
-77.567	-114.231	0.195	-0.037
-76.553	203.798	0.115	0.174
-75.538	-200.000	0.006	0.278
-74.524	-3.924	0.039	-0.027
-73.509	44.101	0.165	0.148
-72.494	-73.759	-0.382	0.136
-71.480	747.975	-0.037	-0.097
-70.465	-111.957	0.156	-0.031
-69.451	-200.000	-0.012	-0.261
-68.436	36.795	-0.294	-0.253
-67.422	-114.941	0.211	0.039
-66.407	800.000	-0.103	-0.395
-65.392	-30.544	0.141	-0.078
-64.378	-62.738	0.234	-0.095
-63.363	11.815	-0.258	0.194
-62.349	292.995	0.155	0.276
-61.334	127.022	-1.022	-1.263
-60.319	17.733	0.836	0.649
-59.305	800.000	-0.434	-1.178
-58.290	729.974	0.569	1.483
-57.276	800.000	0.516	1.716
-56.261	-200.000	121.606	634.695
-55.246	394.604	1583.592	3218.391
-54.232	139.231	2755.247	3534.137
-53.217	96.747	2211.516	2470.438
-52.203	35.762	1721.347	1475.423
-51.188	28.249	1534.807	1263.851
-50.173	26.106	1509.933	1228.748
-49.159	49.567	1576.047	1446.800
-48.144	47.531	1590.457	1445.789
-47.130	28.309	1541.624	1269.681
-46.115	25.382	1525.609	1236.326
-45.100	25.183	1522.370	1232.280
-44.086	25.091	1520.558	1230.135
-43.071	24.956	1518.868	1227.797
-42.057	25.039	1517.499	1227.208
-41.042	24.999	1516.189	1225.827
-40.027	25.053	1513.983	1224.363
-39.013	25.124	1512.151	1223.313
-37.998	24.998	1511.303	1221.724
-36.984	24.993	1510.384	1220.896
-35.969	25.093	1508.467	1219.977
-34.954	25.110	1507.365	1219.152
-33.940	25.026	1506.175	1217.573
-32.925	25.016	1504.836	1216.373
-31.911	25.044	1503.737	1215.631
-30.896	25.157	1501.937	1214.889
-29.881	25.121	1501.337	1214.113
-28.867	25.204	1499.360	1213.026
-27.852	25.158	1497.934	1211.513
-26.838	25.054	1496.940	1209.959
-25.823	24.996	1495.149	1208.076
-24.809	25.115	1493.051	1207.135
-23.794	24.971	1491.969	1205.239
-22.779	25.123	1490.783	1205.259
-21.765	25.076	1490.340	1204.535
-20.750	25.123	1488.692	1203.467
-19.736	25.034	1487.742	1202.056
-18.721	25.143	1486.640	1201.853
-17.706	24.969	1486.029	1200.146
-16.692	25.113	1484.671	1199.966
-15.677	25.088	1483.594	1198.876
-14.663	25.047	1482.886	1197.984
-13.648	25.002	1482.473	1197.299
-12.633	25.049	1480.812	1196.229
-11.619	25.067	1479.910	1195.572
-10.604	24.944	1479.296	1194.206
-9.590	25.028	1478.164	1193.805
-8.575	25.110	1477.436	1193.716
-7.560	25.051	1476.607	1192.603
-6.546	25.148	1475.147	1192.021
-5.531	25.050	1474.818	1191.060
-4.517	25.025	1473.783	1190.011
-3.502	25.018	1472.470	1188.855
-2.487	24.986	1471.884	1188.124
-1.473	25.009	1470.839	1187.387
-0.458	25.053	1469.469	1186.521
0.556	24.073	1459.835	1176.609
1.571	21.196	1435.035	1137.796
2.586	17.983	1371.064	1066.945
3.600	16.290	1285.644	990.457
4.615	15.205	1241.321	950.079
5.629	13.244	1184.241	895.694
6.644	6.764	1101.221	800.083
7.659	1.516	1063.774	747.073
8.673	0.834	1058.260	739.796
9.688	0.804	1054.884	737.227
10.702	0.681	1053.828	735.827
11.717	0.751	1051.708	734.619
12.731	2.729	1053.210	745.219
13.746	9.416	1062.059	784.092
14.761	15.116	1069.047	817.063
15.775	17.034	1071.076	827.910
16.790	16.875	1069.807	826.083
17.804	15.853	1067.706	819.414
18.819	15.016	1066.045	813.994
19.834	14.492	1064.783	810.416
20.848	14.343	1063.711	808.804
21.863	13.984	1063.145	806.557
22.877	13.825	1062.060	804.895
23.892	13.551	1061.245	802.876
24.907	13.602	1059.961	802.081
25.921	13.396	1059.841	800.920
26.936	13.593	1058.883	801.080
27.950	13.568	1058.522	800.617
28.965	13.418	1057.954	799.390
29.980	13.660	1056.398	799.309
30.994	13.818	1055.318	799.183
32.009	13.749	1054.395	798.081
33.023	13.648	1054.415	797.541
34.038	13.773	1053.197	797.151
35.053	13.678	1052.234	795.894
36.067	13.717	1051.439	795.410
37.082	13.662	1050.500	794.367
38.096	13.620	1050.201	793.865
39.111	13.731	1049.100	793.495
40.126	13.797	1048.098	792.983
41.140	13.607	1047.187	791.319
42.155	13.493	1046.389	790.097
43.169	13.620	1045.510	789.971
44.184	13.575	1044.149	788.660
45.199	13.354	1043.420	786.986
46.213	13.586	1042.312	787.187
47.228	13.448	1041.580	785.905
48.242	13.557	1040.228	785.335
49.257	13.677	1039.107	784.984
50.271	13.640	1037.933	783.857
51.286	13.619	1037.782	783.571
52.301	13.652	1036.419	782.630
53.315	13.772	1035.721	782.599
54.330	13.610	1034.761	781.041
55.344	13.658	1034.014	780.634
56.359	13.423	1033.580	779.129
57.374	13.559	1032.412	778.823
58.388	13.486	1031.886	778.012
59.403	13.595	1030.525	777.429
60.417	13.545	1030.280	776.943
61.432	13.531	1029.660	776.341
62.447	13.529	1028.580	775.445
63.461	13.519	1027.549	774.555
64.476	13.538	1026.587	773.848
65.490	13.591	1025.630	773.305
66.505	13.594	1025.170	772.905
67.520	13.554	1024.269	771.972
68.534	13.470	1023.787	771.149
69.549	13.578	1022.871	770.893
70.563	13.544	1022.485	770.376
71.578	13.670	1021.164	769.896
72.593	13.513	1020.243	768.407
73.607	13.477	1019.511	767.620
74.622	13.588	1017.982	766.918
75.636	13.511	1018.074	766.562
76.651	13.425	1017.211	765.447
77.666	13.528	1016.140	765.050
78.680	13.524	1015.523	764.496
79.695	13.531	1015.080	764.129
80.709	13.527	1014.179	763.363
81.724	13.585	1013.506	763.057
82.739	13.494	1012.967	762.164
83.753	13.538	1012.119	761.661
84.768	13.697	1011.027	761.503
85.782	13.785	1009.997	761.061
86.797	13.807	1009.433	760.671
87.812	13.671	1008.726	759.450
88.826	13.670	1007.788	758.669
89.841	13.551	1007.745	758.027
90.855	13.700	1006.220	757.491
91.870	13.628	1005.698	756.706
92.884	13.803	1004.910	756.841
93.899	13.773	1004.209	756.110
94.914	13.748	1003.598	755.472
95.928	13.766	1002.839	754.914
96.943	13.883	1001.554	754.410
97.957	13.732	1001.469	753.595
98.972	13.702	1000.452	752.624
99.987	13.777	999.683	752.322
101.001	13.720	999.319	751.722
102.016	13.875	997.591	751.056
103.030	13.717	997.263	750.032
104.045	13.758	996.139	749.302
105.060	13.738	995.341	748.546
106.074	13.706	993.997	747.327
107.089	13.714	993.152	746.659
108.103	13.683	992.391	745.882
109.118	13.620	991.402	744.790
110.133	13.582	990.998	744.250
111.147	13.601	989.710	743.301
112.162	13.537	989.431	742.740
113.176	13.714	988.035	742.419
114.191	13.638	987.429	741.556
115.206	13.634	986.606	740.857
116.220	13.671	985.565	740.175
117.235	13.582	984.881	739.198
118.249	13.774	983.896	739.247
119.264	13.748	982.610	738.101
120.279	13.738	982.283	737.746
121.293	13.764	981.342	737.087
122.308	13.681	980.475	736.004
123.322	13.576	980.012	735.126
124.337	13.578	979.110	734.393
125.352	13.624	977.657	733.442
126.366	13.726	976.341	732.841
127.381	13.668	975.608	731.970
128.395	13.713	974.318	731.136
129.410	13.565	973.775	730.013
130.424	13.742	972.473	729.748
131.439	13.739	971.548	728.975
132.454	13.722	970.829	728.298
133.468	13.833	970.282	728.310
134.483	13.814	969.232	727.374
135.497	13.764	968.598	726.614
136.512	13.645	967.741	725.388
137.527	13.731	967.250	725.330
138.541	13.676	966.183	724.228
139.556	13.642	965.472	723.481
140.570	13.706	964.835	723.219
141.585	13.772	964.315	723.051
142.600	13.890	963.321	722.759
143.614	13.840	962.498	721.860
144.629	13.855	962.022	721.503
145.643	13.846	961.328	720.878
146.658	13.817	960.389	719.987
147.673	13.804	959.471	719.176
148.687	13.853	958.478	718.583
149.702	13.933	957.346	718.017
150.716	13.844	956.504	716.934
151.731	13.882	955.858	716.553
152.746	13.831	955.150	715.737
153.760	13.751	954.913	715.154
154.775	13.893	953.858	714.909
155.789	13.912	953.116	714.372
156.804	13.883	952.143	713.455
157.819	13.869	951.286	712.689
158.833	13.918	950.647	712.359
159.848	14.029	950.079	712.347
160.862	13.990	949.595	711.753
161.877	13.975	948.776	711.014
162.892	13.954	948.194	710.424
163.906	13.948	946.801	709.292
164.921	13.920	946.476	708.865
165.935	13.926	945.447	708.058
166.950	13.906	944.716	707.362
167.964	13.907	943.689	706.536
168.979	14.019	942.683	706.195
169.994	14.030	941.422	705.233
171.008	14.035	940.736	704.681
172.023	14.100	939.970	704.321
173.037	14.011	939.506	703.532
174.052	14.145	938.780	703.492
175.067	14.169	937.518	702.586
176.081	14.069	937.153	701.828
177.096	14.018	935.959	700.659
178.110	14.085	935.253	700.348
179.125	14.033	935.135	699.978
180.140	14.120	933.819	699.300
181.154	14.016	933.460	698.532
182.169	14.099	932.367	697.998
183.183	14.180	931.795	697.848
184.198	14.258	931.121	697.610
185.213	14.268	930.410	697.059
186.227	14.292	929.588	696.481
187.242	14.301	929.292	696.232
188.256	14.330	928.391	695.619
189.271	14.350	927.962	695.319
190.286	14.247	927.288	694.322
191.300	14.212	926.502	693.528
192.315	14.141	925.913	692.728
193.329	14.143	924.878	691.903
194.344	14.219	924.489	691.865
195.359	14.232	923.788	691.334
196.373	14.146	923.508	690.706
197.388	14.305	922.716	690.714
198.402	14.408	922.495	690.912
199.417	14.412	921.826	690.367
200.432	14.407	920.832	689.541
201.446	14.531	920.647	689.854
202.461	14.481	920.027	689.122
203.475	14.474	919.631	688.734
204.490	14.696	918.802	688.970
205.504	14.570	918.140	687.895
206.519	14.405	917.522	686.688
207.534	14.575	916.542	686.597
208.548	14.640	915.688	686.161
209.563	14.551	915.065	685.270
210.577	14.589	914.194	684.713
211.592	14.643	913.665	684.475
212.607	14.603	913.485	684.116
213.621	14.630	912.633	683.529
214.636	14.719	911.901	683.285
215.650	14.585	911.356	682.267
216.665	14.631	910.894	682.050
217.680	14.630	910.075	681.371
218.694	14.705	909.523	681.203
219.709	14.697	909.224	680.889
220.723	14.728	908.253	680.226
221.738	14.736	907.416	679.570
222.753	14.792	906.823	679.296
223.767	14.791	906.165	678.736
224.782	14.831	905.295	678.187
225.796	14.860	904.659	677.767
226.811	15.031	904.024	677.925
227.826	15.124	903.049	677.513
228.840	14.932	902.442	676.221
229.855	14.874	901.996	675.591
230.869	14.916	901.542	675.363
231.884	14.833	900.963	674.535
232.899	14.777	900.244	673.708
233.913	14.879	899.461	673.474
234.928	14.790	898.763	672.533
235.942	14.766	897.992	671.801
236.957	14.934	897.125	671.769
237.972	14.808	896.749	670.921
238.986	14.974	895.699	670.743
240.001	14.845	895.369	669.920
241.015	14.872	894.442	669.275
242.030	14.935	893.946	669.096
243.045	14.839	893.433	668.269
244.059	15.072	892.722	668.606
245.074	14.990	892.018	667.694
246.088	15.068	891.409	667.489
247.103	14.975	890.961	666.727
248.117	15.042	890.069	666.265
249.132	15.072	889.545	665.933
250.147	15.150	889.094	665.849
251.161	15.075	888.351	664.935
252.176	15.149	887.396	664.453
253.190	15.251	887.080	664.564
254.205	15.139	886.868	663.900
255.220	15.407	885.630	663.978
256.234	15.343	885.052	663.229
257.249	15.350	884.275	662.620
258.263	15.427	883.996	662.655
259.278	15.461	883.094	662.056
260.293	15.253	883.147	661.215
261.307	15.310	882.271	660.724
262.322	15.465	881.898	660.997
263.336	15.537	880.957	660.516
264.351	15.467	880.337	659.719
265.366	15.378	879.732	658.858
266.380	15.608	879.237	659.332
267.395	15.582	878.623	658.708
268.409	15.481	877.682	657.550
269.424	15.414	877.502	657.097
270.439	15.563	876.427	656.813
271.453	15.505	875.648	655.948
272.468	15.585	874.957	655.685
273.482	15.619	874.337	655.292
274.497	15.657	873.495	654.752
275.512	15.550	873.172	654.035
276.526	15.689	872.230	653.812
277.541	15.684	871.684	653.327
278.555	15.567	871.647	652.787
279.570	15.582	870.932	652.251
280.585	15.729	870.367	652.341
281.599	15.811	869.309	651.808
282.614	15.724	869.099	651.253
283.628	15.758	868.183	650.644
284.643	15.649	868.136	650.128
285.657	15.796	867.305	650.016
286.672	15.762	867.097	649.670
287.687	15.785	866.252	649.070
288.701	15.912	865.642	649.044
289.716	15.896	864.990	648.438
290.730	15.769	864.753	647.712
291.745	15.888	864.109	647.630
292.760	15.942	862.974	646.929
293.774	15.875	862.599	646.336
294.789	15.983	862.111	646.326
295.803	16.027	861.392	645.900
296.818	15.974	860.950	645.307
297.833	15.954	860.109	644.544
298.847	16.070	859.484	644.461
299.862	16.063	858.424	643.581
300.876	16.041	857.937	643.077
301.891	16.029	857.271	642.474
302.906	16.129	856.885	642.511
303.920	16.149	856.316	642.102
304.935	16.249	855.371	641.716
305.949	16.078	854.844	640.616
306.964	16.201	854.245	640.577
307.979	16.210	853.828	640.242
308.993	16.325	853.022	640.017
310.008	16.172	852.655	639.103
311.022	16.254	852.163	638.989
312.037	16.169	851.723	638.281
313.052	16.176	851.273	637.914
314.066	16.284	850.499	637.685
315.081	16.213	850.254	637.176
316.095	16.337	849.096	636.722
317.110	16.314	848.666	636.257
318.125	16.366	848.178	636.028
319.139	16.156	848.064	635.098
320.154	16.416	846.954	635.189
321.168	16.275	846.832	634.508
322.183	16.256	846.139	633.863
323.197	16.202	845.664	633.247
324.212	16.328	844.863	633.063
325.227	16.326	844.766	632.929
326.241	16.454	843.405	632.331
327.256	16.330	842.843	631.392
328.270	16.399	842.749	631.522
329.285	16.305	842.116	630.642
330.300	16.410	841.636	630.618
331.314	16.373	841.226	630.118
332.329	16.498	840.484	629.973
333.343	16.513	839.581	629.294
334.358	16.345	839.775	628.759
335.373	16.517	838.791	628.605
336.387	16.462	838.452	628.092
337.402	16.528	837.649	627.680
338.416	16.622	837.287	627.702
339.431	16.513	836.756	626.845
340.446	16.581	836.257	626.665
341.460	16.621	835.544	626.227
342.475	16.635	835.102	625.891
343.489	16.769	834.033	625.529
344.504	16.827	833.613	625.374
345.519	16.777	833.388	624.962
346.533	16.827	832.690	624.570
347.548	16.864	832.348	624.394
348.562	16.788	831.889	623.715
349.577	16.723	831.408	623.060
350.592	16.815	830.742	622.843
351.606	16.796	830.078	622.222
352.621	16.774	830.153	622.141
353.635	16.884	829.394	621.920
354.650	16.773	829.167	621.286
355.665	16.799	829.070	621.255
356.679	16.959	827.895	620.907
357.694	16.839	827.544	620.148
358.708	16.964	826.514	619.780
359.723	16.961	826.311	619.560
360.738	16.910	825.910	619.020
361.752	16.972	825.417	618.819
362.767	16.922	824.967	618.246
363.781	17.038	824.698	618.411
364.796	17.055	823.921	617.837
365.810	17.108	823.781	617.871
366.825	17.172	823.246	617.648
367.840	17.102	822.843	617.035
368.854	17.095	822.616	616.788
369.869	17.129	822.109	616.475
370.883	17.118	821.224	615.718
371.898	17.194	820.703	615.547
372.913	17.167	820.108	614.948
373.927	17.058	819.662	614.165
374.942	17.154	819.064	614.011
375.956	17.284	818.490	613.994
376.971	17.208	817.962	613.271
377.986	17.340	817.332	613.219
379.000	17.307	816.698	612.569
380.015	17.305	816.208	612.140
381.029	17.330	815.845	611.906
382.044	17.428	814.965	611.545
383.059	17.507	814.540	611.453
384.073	17.391	813.872	610.483
385.088	17.459	813.459	610.364
386.102	17.447	812.823	609.788
387.117	17.410	812.222	609.152
388.132	17.442	812.200	609.196
389.146	17.437	811.573	608.652
390.161	17.316	811.672	608.241
391.175	17.514	810.929	608.338
392.190	17.355	810.881	607.681
393.205	17.465	810.261	607.555
394.219	17.511	809.854	607.360
395.234	17.406	809.529	606.686
396.248	17.457	808.703	606.198
397.263	17.374	808.279	605.528
398.278	17.435	807.780	605.318
399.292	17.368	807.274	604.649
400.307	17.566	806.664	604.841
401.321	17.514	806.487	604.469
402.336	17.581	806.333	604.537
403.350	17.445	805.878	603.662
404.365	17.547	805.412	603.621
405.380	17.641	804.759	603.412
406.394	17.631	804.475	603.109
407.409	17.732	803.816	602.919
408.423	17.583	803.307	601.955
409.438	17.634	802.769	601.679
410.453	17.715	802.202	601.487
411.467	17.899	801.629	601.653
412.482	17.975	800.887	601.313
413.496	17.853	800.917	600.850
414.511	17.950	800.561	600.873
415.526	18.001	800.092	600.644
416.540	17.893	800.124	600.237
417.555	18.058	799.337	600.175
418.569	18.053	798.822	599.717
419.584	17.889	798.190	598.612
420.599	17.837	798.171	598.364
421.613	114.395	1296.753	1486.657
422.628	98.620	1369.343	1486.728
