DTS Sentinel unit serial number:	SN413079Multiplexer serial number:	ORYXHardware model number:	OX4-SRSoftware version number:	ORYX F/W v4.00 Oryx Data Collector v3.7.2.0data status	okinstallation	princeton_trtdifferential loss correction	single-endedforward channel	channel 3reverse channel	N/Adate	2019/09/17time	21:44:34forward acquisition time	60.00reverse acquisition time	0.00gamma	496.2192k internal	0.2344k external	0.2344temperature offset calibration	0.9945default loss term (dB/km)	0.3790temperature slope calibration	1.0000multiplexer offset coefficient	1.0000multiplexer slope coefficient	1.0000fibre end	0.00T internal ref (°C)	26.59T ext. ref 1 (°C)	0.19T ext. ref 2 (°C)	19.18length (m)	temperature (°C)	Stokes	anti-Stokes-747.200	179.386	0.095	-0.139
-746.185	-200.000	-0.014	-0.180
-745.171	32.499	0.216	-0.187
-744.156	91.761	-0.249	0.280
-743.142	-9.031	0.272	0.182
-742.127	23.772	-0.218	0.180
-741.112	-200.000	-0.014	0.065
-740.098	13.893	0.177	-0.138
-739.083	-200.000	-0.060	0.277
-738.069	-18.603	0.113	0.070
-737.054	58.907	-0.244	0.240
-736.039	-150.210	-0.333	-0.026
-735.025	490.575	0.080	-0.182
-734.010	-102.915	-0.262	-0.062
-732.996	-70.149	-0.114	0.043
-731.981	-60.867	-0.111	0.047
-730.966	-71.792	-0.029	-0.011
-729.952	56.749	0.254	-0.248
-728.937	17.180	0.019	-0.015
-727.923	-3.403	-0.153	-0.106
-726.908	-129.941	0.236	0.032
-725.894	254.519	-0.061	-0.104
-724.879	-115.930	-0.037	-0.007
-723.864	-156.489	-0.135	-0.008
-722.850	163.973	-0.138	0.194
-721.835	-156.006	-0.294	-0.019
-720.821	-99.616	-0.341	-0.086
-719.806	800.000	-0.066	0.277
-718.791	194.091	-0.180	-0.272
-717.777	62.610	-0.321	-0.320
-716.762	800.000	-0.023	-0.095
-715.748	800.000	0.050	-0.211
-714.733	15.051	-0.206	-0.162
-713.718	162.678	-0.010	0.014
-712.704	-74.206	-0.253	-0.091
-711.689	139.691	-0.036	-0.048
-710.675	564.341	0.041	-0.100
-709.660	-164.371	0.196	0.009
-708.645	800.000	-0.010	0.037
-707.631	388.741	-0.110	-0.227
-706.616	34.910	0.224	0.196
-705.602	526.207	-0.259	0.610
-704.587	170.505	-0.049	0.070
-703.572	-35.933	-0.059	-0.032
-702.558	512.921	0.029	0.067
-701.543	22.986	-0.076	0.063
-700.529	407.998	0.107	-0.226
-699.514	109.062	0.155	0.185
-698.499	-200.000	-0.068	0.365
-697.485	800.000	-0.062	0.241
-696.470	161.846	0.180	-0.252
-695.456	638.685	-0.053	-0.135
-694.441	-26.393	-0.132	-0.077
-693.426	-105.494	-0.099	-0.022
-692.412	-50.537	-0.189	0.089
-691.397	96.150	-0.118	-0.134
-690.383	507.899	0.093	0.215
-689.368	21.858	-0.024	-0.019
-688.354	779.906	-0.078	0.214
-687.339	-106.689	0.075	-0.017
-686.324	171.892	-0.024	0.034
-685.310	178.260	-0.175	-0.255
-684.295	800.000	0.030	0.132
-683.281	388.051	0.090	-0.185
-682.266	800.000	0.076	-0.271
-681.251	-32.050	-0.216	0.120
-680.237	-200.000	0.014	0.119
-679.222	-138.523	0.370	-0.041
-678.208	-103.810	-0.095	0.022
-677.193	-200.000	0.035	-0.176
-676.178	304.968	-0.076	0.141
-675.164	64.337	0.060	-0.060
-674.149	800.000	0.028	-0.111
-673.135	800.000	-0.065	-0.273
-672.120	-101.083	0.272	0.066
-671.105	-83.558	-0.197	0.063
-670.091	541.124	0.040	0.095
-669.076	-110.066	0.325	0.068
-668.062	-131.616	0.196	-0.026
-667.047	-200.000	-0.076	-0.551
-666.032	-200.000	0.060	0.324
-665.018	540.405	-0.035	-0.083
-664.003	33.126	-0.241	0.209
-662.989	-148.001	0.172	0.014
-661.974	-70.609	-0.219	0.083
-660.959	133.276	-0.233	-0.300
-659.945	94.327	-0.151	-0.171
-658.930	800.000	0.008	-0.034
-657.916	-200.000	-0.011	-0.073
-656.901	51.891	0.143	-0.136
-655.886	78.329	-0.377	0.401
-654.872	23.297	-0.095	-0.078
-653.857	-159.542	0.128	-0.007
-652.843	-152.235	-0.217	-0.016
-651.828	57.484	0.280	-0.273
-650.814	-161.381	0.150	0.008
-649.799	135.785	-0.084	-0.110
-648.784	476.520	-0.041	0.092
-647.770	800.000	-0.085	-0.305
-646.755	-200.000	0.007	-0.117
-645.741	91.277	0.097	-0.109
-644.726	198.254	-0.122	-0.186
-643.711	411.733	0.082	-0.173
-642.697	772.681	0.039	-0.106
-641.682	143.860	-0.256	0.341
-640.668	-12.813	0.049	0.032
-639.653	167.165	0.056	-0.079
-638.638	110.716	-0.144	-0.173
-637.624	800.000	0.077	-0.270
-636.609	-155.801	-0.309	-0.020
-635.595	-125.497	0.212	-0.032
-634.580	406.509	-0.086	-0.180
-633.565	-200.000	0.021	0.158
-632.551	-144.564	-0.210	0.019
-631.536	125.464	-0.066	-0.083
-630.522	235.523	0.177	-0.292
-629.507	314.923	0.078	0.147
-628.492	39.135	-0.255	-0.228
-627.478	-200.000	0.012	0.073
-626.463	41.454	-0.179	0.162
-625.449	333.260	-0.015	-0.028
-624.434	140.403	0.107	-0.141
-623.419	-81.368	0.324	-0.106
-622.405	-93.484	-0.312	0.086
-621.390	-54.330	0.186	0.084
-620.376	800.000	0.072	-0.266
-619.361	285.507	-0.134	0.240
-618.346	-120.887	-0.232	0.039
-617.332	27.747	-0.400	0.335
-616.317	183.220	-0.207	0.305
-615.303	39.755	-0.250	0.224
-614.288	53.303	-0.065	0.062
-613.273	-87.007	-0.154	-0.047
-612.259	-120.769	0.116	-0.020
-611.244	117.021	0.085	-0.103
-610.230	240.363	0.079	0.131
-609.215	469.236	-0.086	0.191
-608.201	90.215	-0.341	-0.380
-607.186	-200.000	-0.010	0.190
-606.171	3.188	0.226	0.164
-605.157	-146.639	0.425	0.037
-604.142	-105.291	0.250	-0.057
-603.128	456.348	0.124	-0.275
-602.113	658.421	-0.114	0.291
-601.098	45.515	-0.172	0.158
-600.084	263.343	0.085	0.148
-599.069	127.443	-0.036	0.046
-598.055	-3.524	-0.160	-0.111
-597.040	-200.000	0.015	-0.193
-596.025	-200.000	-0.070	0.321
-595.011	-62.822	-0.344	-0.142
-593.996	-93.481	0.161	-0.044
-592.982	-54.999	-0.064	0.029
-591.967	800.000	-0.076	-0.237
-590.952	-82.128	0.153	0.050
-589.938	-79.397	-0.195	-0.066
-588.923	48.100	0.108	-0.101
-587.909	21.458	-0.228	0.184
-586.894	239.685	0.041	-0.068
-585.879	-24.886	0.088	0.052
-584.865	4.522	-0.188	-0.137
-583.850	-200.000	0.014	-0.223
-582.836	800.000	-0.074	-0.204
-581.821	238.204	0.123	-0.204
-580.806	-200.000	0.015	0.309
-579.792	66.265	-0.096	-0.097
-578.777	-4.798	-0.416	0.285
-577.763	14.117	0.042	0.032
-576.748	-200.000	-0.083	-0.387
-575.733	-112.623	0.222	-0.044
-574.719	61.704	-0.119	-0.117
-573.704	301.923	-0.104	-0.192
-572.690	403.704	-0.060	-0.126
-571.675	-200.000	-0.024	0.210
-570.661	91.838	0.155	0.173
-569.646	-13.418	-0.111	0.072
-568.631	-32.855	-0.236	0.130
-567.617	-68.128	0.239	-0.092
-566.602	800.000	-0.061	0.190
-565.588	3.302	0.246	0.178
-564.573	480.192	-0.027	0.062
-563.558	800.000	0.123	0.374
-562.544	-56.015	-0.102	0.045
-561.529	-200.000	0.038	0.311
-560.515	26.480	-0.226	-0.188
-559.500	-200.000	0.008	0.346
-558.485	-162.903	-0.101	-0.005
-557.471	-179.917	0.214	-0.005
-556.456	141.989	0.113	-0.149
-555.442	-43.202	-0.125	-0.063
-554.427	6.322	-0.186	-0.137
-553.412	37.918	-0.035	-0.031
-552.398	-68.583	-0.342	0.132
-551.383	610.002	0.082	-0.203
-550.369	378.998	-0.141	-0.286
-549.354	334.167	0.060	-0.116
-548.339	110.681	-0.101	0.121
-547.325	-200.000	0.019	-0.133
-546.310	80.244	0.225	-0.241
-545.296	-200.000	0.006	-0.080
-544.281	160.031	0.117	-0.161
-543.266	-55.349	0.429	-0.191
-542.252	101.121	0.117	0.135
-541.237	-11.926	0.211	0.138
-540.223	-56.339	0.331	-0.146
-539.208	-200.000	0.067	0.299
-538.193	-58.321	0.308	0.133
-537.179	-95.463	-0.302	0.080
-536.164	-49.633	0.036	0.017
-535.150	800.000	-0.050	-0.196
-534.135	-200.000	0.036	-0.249
-533.121	-200.000	-0.043	-0.367
-532.106	-22.014	-0.113	-0.068
-531.091	-200.000	-0.024	0.217
-530.077	800.000	-0.030	-0.101
-529.062	-24.250	0.123	0.073
-528.048	424.749	-0.128	0.273
-527.033	166.109	0.103	0.145
-526.018	217.495	-0.205	0.324
-525.004	-132.009	-0.075	-0.010
-523.989	-200.000	-0.001	0.050
-522.975	-50.951	-0.335	0.156
-521.960	187.542	-0.084	0.124
-520.945	-38.542	-0.250	-0.131
-519.931	-200.000	-0.042	-0.260
-518.916	55.860	-0.189	-0.182
-517.902	88.304	-0.191	-0.211
-516.887	202.727	0.269	0.412
-515.872	33.550	-0.608	0.524
-514.858	-200.000	-0.036	-0.496
-513.843	20.429	0.232	-0.186
-512.829	-200.000	0.015	-0.198
-511.814	235.636	-0.156	-0.256
-510.799	-200.000	0.011	0.128
-509.785	-57.587	-0.085	-0.037
-508.770	-120.339	-0.597	0.101
-507.756	-80.012	-0.144	0.048
-506.741	800.000	0.016	-0.060
-505.726	-172.136	0.163	0.005
-504.712	231.386	-0.065	0.105
-503.697	800.000	0.101	-0.280
-502.683	189.030	-0.036	0.053
-501.668	-100.726	0.147	-0.036
-500.653	47.450	-0.036	-0.034
-499.639	202.330	0.102	0.156
-498.624	-200.000	0.023	-0.247
-497.610	-122.020	-0.110	-0.018
-496.595	-200.000	-0.004	0.113
-495.581	69.569	-0.205	-0.210
-494.566	-200.000	0.000	-0.124
-493.551	37.162	-0.238	0.209
-492.537	-63.040	-0.015	0.006
-491.522	-131.720	-0.181	-0.024
-490.508	243.767	0.223	0.371
-489.493	403.907	0.188	0.393
-488.478	264.706	-0.108	0.187
-487.464	86.885	0.203	-0.223
-486.449	800.000	0.043	0.157
-485.435	-200.000	0.024	-0.168
-484.420	177.218	-0.107	-0.155
-483.405	-20.130	0.198	0.121
-482.391	70.572	-0.072	0.074
-481.376	-200.000	0.020	-0.093
-480.362	506.536	-0.057	0.132
-479.347	800.000	0.105	0.324
-478.332	-102.157	0.150	0.036
-477.318	-190.482	-0.513	0.006
-476.303	6.741	0.239	-0.176
-475.289	-200.000	0.197	-0.001
-474.274	44.546	0.322	0.293
-473.259	-200.000	0.229	-0.001
-472.245	800.000	-0.081	-0.319
-471.230	334.039	0.065	0.124
-470.216	-200.000	-0.011	0.335
-469.201	-56.385	-0.158	0.070
-468.186	-19.200	0.179	0.110
-467.172	-108.227	-0.256	0.055
-466.157	-24.867	-0.082	-0.048
-465.143	-64.939	0.421	-0.168
-464.128	-81.473	-0.355	0.116
-463.113	-83.893	0.188	-0.059
-462.099	-174.124	0.309	0.009
-461.084	188.634	-0.227	0.336
-460.070	171.309	-0.065	-0.093
-459.055	-60.236	0.356	0.150
-458.040	800.000	-0.075	-0.222
-457.026	-148.598	-0.233	-0.019
-456.011	72.965	0.123	-0.127
-454.997	-200.000	0.006	0.484
-453.982	-200.000	-0.038	0.201
-452.968	-200.000	0.008	-0.056
-451.953	687.303	0.069	0.177
-450.938	386.701	0.137	-0.279
-449.924	-41.881	-0.229	-0.116
-448.909	-198.697	-0.077	-0.000
-447.895	-200.000	-0.009	0.277
-446.880	-94.838	0.394	0.106
-445.865	86.877	-0.114	0.125
-444.851	-54.493	-0.175	0.078
-443.836	284.729	0.141	0.250
-442.822	800.000	0.052	-0.151
-441.807	-200.000	-0.003	0.049
-440.792	-160.097	-0.257	0.014
-439.778	-161.582	0.528	-0.027
-438.763	-108.709	-0.287	0.061
-437.749	66.705	0.114	0.115
-436.734	200.660	0.035	0.054
-435.719	216.697	-0.038	0.060
-434.705	-16.633	0.249	-0.156
-433.690	83.997	0.056	-0.060
-432.676	122.824	0.147	-0.182
-431.661	-0.835	-0.077	-0.054
-430.646	-58.936	-0.111	0.047
-429.632	-96.479	-0.222	-0.058
-428.617	-200.000	0.066	0.357
-427.603	-200.000	0.002	0.217
-426.588	800.000	-0.051	0.156
-425.573	165.146	0.143	0.200
-424.559	-69.220	-0.167	0.063
-423.544	455.281	0.101	0.221
-422.530	71.488	-0.131	0.134
-421.515	800.000	0.078	-0.325
-420.500	-107.964	-0.171	0.037
-419.486	-74.066	0.123	-0.044
-418.471	-109.587	-0.142	-0.030
-417.457	151.889	0.262	-0.353
-416.442	-200.000	0.016	0.217
-415.428	-116.038	0.146	0.027
-414.413	261.213	0.092	0.157
-413.398	-200.000	0.023	-0.139
-412.384	-100.291	0.143	0.035
-411.369	523.380	0.031	0.072
-410.355	-32.419	0.258	0.142
-409.340	64.284	-0.126	-0.125
-408.325	-200.000	-0.001	0.072
-407.311	-140.388	0.480	-0.049
-406.296	-124.770	0.207	0.032
-405.282	-91.014	-0.325	0.092
-404.267	14.972	0.099	-0.077
-403.252	562.915	0.063	-0.149
-402.238	130.266	0.219	0.277
-401.223	800.000	0.039	-0.136
-400.209	652.712	0.077	-0.194
-399.194	-86.402	-0.128	-0.039
-398.179	-200.000	-0.023	0.265
-397.165	800.000	0.049	-0.136
-396.150	-5.103	0.179	-0.122
-395.136	-200.000	-0.034	-0.205
-394.121	117.171	-0.043	0.052
-393.106	-17.708	0.174	0.108
-392.092	-86.068	-0.081	-0.025
-391.077	15.223	0.096	-0.075
-390.063	-26.855	-0.211	-0.122
-389.048	69.614	0.116	-0.118
-388.033	-200.000	0.038	-0.199
-387.019	-134.328	0.200	-0.024
-386.004	117.670	0.090	0.109
-384.990	-11.879	0.186	0.120
-383.975	800.000	0.091	0.366
-382.960	-200.000	0.015	0.265
-381.946	201.295	0.063	-0.095
-380.931	-34.681	-0.073	0.040
-379.917	224.465	-0.164	0.262
-378.902	39.753	0.164	0.146
-377.888	-5.312	-0.037	-0.025
-376.873	539.176	-0.115	-0.269
-375.858	-86.552	0.174	0.053
-374.844	43.093	-0.093	0.084
-373.829	-159.039	-0.199	-0.011
-372.815	-200.000	0.093	-0.564
-371.800	-200.000	0.016	-0.224
-370.785	-200.000	0.010	-0.317
-369.771	152.356	0.096	-0.129
-368.756	-200.000	-0.031	0.296
-367.742	-200.000	-0.032	-0.355
-366.727	224.587	-0.127	0.202
-365.712	-55.906	0.142	-0.063
-364.698	98.404	0.113	0.128
-363.683	-66.282	0.357	-0.140
-362.669	-81.082	-0.403	0.132
-361.654	-65.271	-0.049	-0.019
-360.639	-200.000	0.022	-0.209
-359.625	-52.191	-0.361	-0.165
-358.610	718.855	-0.102	-0.267
-357.596	-90.642	0.090	0.026
-356.581	149.512	-0.130	0.173
-355.566	-109.993	-0.119	-0.024
-354.552	288.219	-0.287	-0.511
-353.537	42.835	0.102	-0.091
-352.523	-79.412	0.300	0.100
-351.508	-97.959	0.155	-0.039
-350.493	62.279	0.134	-0.132
-349.479	-200.000	0.060	-0.272
-348.464	-45.179	0.129	0.063
-347.450	66.831	-0.180	-0.181
-346.435	91.356	-0.149	-0.165
-345.420	-200.000	-0.050	0.248
-344.406	-174.930	-0.374	-0.010
-343.391	-23.873	0.191	-0.113
-342.377	438.140	0.118	0.253
-341.362	-200.000	-0.011	0.184
-340.348	-42.578	-0.045	-0.022
-339.333	-131.627	0.160	-0.021
-338.318	435.589	0.201	0.432
-337.304	146.503	-0.221	-0.292
-336.289	-94.689	-0.043	-0.012
-335.275	529.839	-0.070	-0.163
-334.260	580.830	0.026	-0.064
-333.245	-167.617	0.322	0.013
-332.231	-131.508	-0.561	0.073
-331.216	69.003	0.041	0.042
-330.202	-200.000	-0.015	-0.257
-329.187	-200.000	0.007	-0.071
-328.172	-179.102	0.211	0.005
-327.158	-58.151	0.368	-0.158
-326.143	517.209	0.071	-0.163
-325.129	-93.021	-0.168	0.046
-324.114	-200.000	-0.044	0.342
-323.099	150.343	0.033	-0.045
-322.085	115.906	-0.187	0.225
-321.070	-119.010	-0.251	0.043
-320.056	144.027	0.042	-0.055
-319.041	26.493	-0.151	0.124
-318.026	-101.620	-0.378	-0.090
-317.012	-52.820	0.285	0.129
-315.997	-125.265	0.210	-0.032
-314.983	89.962	-0.201	0.221
-313.968	-200.000	-0.022	0.105
-312.953	-200.000	-0.044	0.374
-311.939	-200.000	-0.003	-0.029
-310.924	-11.565	-0.285	-0.184
-309.910	98.490	-0.361	-0.409
-308.895	106.951	0.114	-0.134
-307.880	-4.666	-0.234	-0.159
-306.866	-43.480	0.213	-0.106
-305.851	-112.757	0.239	-0.047
-304.837	-200.000	0.005	-0.196
-303.822	800.000	0.074	-0.291
-302.807	-200.000	-0.003	-0.028
-301.793	182.625	0.103	0.149
-300.778	800.000	0.056	-0.162
-299.764	-107.266	-0.333	-0.072
-298.749	430.472	-0.015	-0.031
-297.735	-119.198	0.248	-0.043
-296.720	4.433	0.086	0.062
-295.705	-200.000	0.051	-0.292
-294.691	52.627	-0.132	0.124
-293.676	-200.000	0.021	0.175
-292.662	-92.712	-0.107	-0.029
-291.647	-144.062	-0.391	0.036
-290.632	82.870	-0.098	-0.105
-289.618	160.487	0.120	0.165
-288.603	0.583	-0.244	0.172
-287.589	5.333	0.330	0.239
-286.574	76.242	0.083	-0.087
-285.559	800.000	-0.069	0.228
-284.545	-200.000	-0.031	-0.309
-283.530	-172.574	0.054	0.002
-282.516	-200.000	0.247	0.001
-281.501	384.464	-0.087	0.176
-280.486	-200.000	-0.046	0.217
-279.472	446.741	0.101	0.219
-278.457	378.138	-0.029	0.058
-277.443	800.000	-0.083	-0.274
-276.428	-118.971	0.446	-0.077
-275.413	-200.000	0.036	0.265
-274.399	33.671	-0.189	-0.161
-273.384	-200.000	0.059	-0.547
-272.370	-200.000	-0.069	-0.437
-271.355	52.644	-0.104	0.097
-270.340	-30.211	-0.197	-0.110
-269.326	-200.000	-0.027	-0.251
-268.311	236.038	0.074	0.121
-267.297	168.237	-0.072	-0.101
-266.282	201.619	-0.142	-0.215
-265.267	30.691	-0.103	0.087
-264.253	54.940	-0.155	0.147
-263.238	-109.964	-0.268	0.055
-262.224	-136.631	-0.129	0.015
-261.209	607.279	0.181	0.443
-260.195	346.966	0.143	-0.277
-259.180	-155.904	0.139	-0.009
-258.165	54.261	0.068	-0.064
-257.151	-44.584	-0.351	-0.172
-256.136	675.730	-0.074	-0.190
-255.122	401.164	-0.087	0.179
-254.107	-41.638	0.369	-0.186
-253.092	399.866	0.049	0.101
-252.078	-184.848	-0.265	-0.004
-251.063	-135.790	-0.170	-0.020
-250.049	230.181	-0.118	0.190
-249.034	-171.973	0.320	-0.010
-248.019	-100.975	0.190	-0.046
-247.005	128.839	-0.295	0.370
-245.990	204.531	0.072	-0.109
-244.976	325.680	-0.094	0.176
-243.961	492.925	0.063	0.141
-242.946	800.000	-0.039	-0.122
-241.932	-52.966	-0.232	-0.105
-240.917	-136.232	-0.136	0.016
-239.903	122.965	0.202	0.248
-238.888	800.000	-0.063	0.268
-237.873	-160.741	-0.377	0.020
-236.859	-112.925	0.293	0.057
-235.844	10.189	-0.412	0.307
-234.830	-104.440	-0.188	0.043
-233.815	-16.223	-0.259	-0.161
-232.800	-200.000	-0.008	-0.187
-231.786	-47.223	0.199	-0.095
-230.771	-6.176	0.196	-0.131
-229.757	-126.462	0.300	-0.044
-228.742	70.086	-0.088	-0.089
-227.727	-178.786	0.333	0.007
-226.713	12.671	-0.255	0.193
-225.698	166.723	0.073	-0.101
-224.684	-200.000	0.009	0.251
-223.669	-200.000	0.011	-0.154
-222.655	-101.872	0.294	0.070
-221.640	242.817	0.018	0.030
-220.625	-117.601	0.368	-0.065
-219.611	74.965	-0.139	-0.144
-218.596	75.981	-0.102	-0.105
-217.582	-101.139	0.274	0.066
-216.567	2.337	0.079	-0.056
-215.552	-200.000	0.016	-0.083
-214.538	-200.000	0.004	-0.345
-213.523	143.496	0.197	0.258
-212.509	-111.810	0.104	-0.021
-211.494	-150.944	-0.345	0.026
-210.479	13.919	0.140	-0.107
-209.465	425.522	-0.018	-0.039
-208.450	800.000	0.135	0.454
-207.436	366.832	-0.068	-0.135
-206.421	800.000	0.099	-0.344
-205.406	800.000	0.042	0.177
-204.392	25.795	0.165	-0.134
-203.377	424.082	0.059	0.124
-202.363	-89.763	-0.084	0.024
-201.348	-45.608	0.246	-0.119
-200.333	-200.000	-0.021	0.113
-199.319	-148.978	0.028	0.002
-198.304	800.000	-0.044	-0.138
-197.290	-123.911	0.050	-0.008
-196.275	177.124	0.127	0.181
-195.260	-200.000	-0.003	0.301
-194.246	-91.952	-0.281	-0.078
-193.231	-200.000	-0.019	-0.422
-192.217	-92.779	0.050	-0.014
-191.202	48.387	0.162	0.148
-190.187	-76.939	0.384	-0.131
-189.173	-120.898	-0.275	0.045
-188.158	119.058	-0.103	0.125
-187.144	800.000	0.047	0.189
-186.129	-38.612	0.185	-0.096
-185.114	-71.352	0.207	-0.076
-184.100	-107.148	-0.295	-0.064
-183.085	161.257	0.159	0.218
-182.071	164.080	-0.074	0.103
-181.056	-200.000	-0.040	0.324
-180.042	-200.000	0.010	-0.098
-179.027	-200.000	-0.003	0.133
-178.012	-200.000	-0.024	-0.183
-176.998	-200.000	0.059	0.270
-175.983	89.041	0.337	0.367
-174.969	205.861	-0.051	0.077
-173.954	102.100	0.048	-0.055
-172.939	-99.425	0.443	0.109
-171.925	800.000	-0.101	0.284
-170.910	160.828	-0.095	-0.130
-169.896	-200.000	0.029	-0.220
-168.881	-84.536	0.134	0.041
-167.866	-63.569	0.425	-0.171
-166.852	292.073	-0.103	0.184
-165.837	-129.214	-0.067	0.009
-164.823	-37.402	0.111	0.058
-163.808	800.000	-0.122	0.399
-162.793	-132.569	-0.080	-0.010
-161.779	-65.661	0.168	0.066
-160.764	199.136	0.082	0.123
-159.750	-38.750	0.051	0.026
-158.735	-200.000	-0.042	-0.596
-157.720	800.000	-0.146	-0.409
-156.706	-134.153	-0.074	-0.009
-155.691	-139.881	-0.096	0.010
-154.677	-66.396	0.198	-0.077
-153.662	0.138	0.297	0.207
-152.647	31.238	0.089	0.075
-151.633	-200.000	-0.043	-0.318
-150.618	800.000	0.129	0.404
-149.604	-60.640	-0.179	0.074
-148.589	800.000	-0.015	0.053
-147.574	-4.746	-0.194	0.131
-146.560	320.148	0.131	-0.242
-145.545	-89.171	-0.072	-0.021
-144.531	6.040	-0.257	0.186
-143.516	800.000	-0.069	-0.279
-142.502	-105.701	-0.204	0.045
-141.487	299.148	-0.046	0.083
-140.472	-73.407	-0.124	-0.044
-139.458	537.955	0.191	-0.444
-138.443	-114.965	-0.070	0.013
-137.429	122.568	-0.160	-0.195
-136.414	800.000	0.054	0.206
-135.399	800.000	0.108	-0.294
-134.385	4.442	-0.078	0.056
-133.370	291.825	-0.061	0.109
-132.356	-57.944	0.170	0.072
-131.341	-200.000	-0.032	0.176
-130.326	448.331	-0.083	-0.178
-129.312	101.830	0.234	0.267
-128.297	-200.000	-0.058	0.253
-127.283	-200.000	-0.006	0.053
-126.268	134.972	0.183	0.233
-125.253	800.000	-0.043	-0.157
-124.239	800.000	-0.050	-0.144
-123.224	701.386	0.114	0.293
-122.210	11.830	0.186	0.139
-121.195	-76.225	-0.214	-0.074
-120.180	-34.759	-0.260	0.139
-119.166	-98.936	-0.110	0.027
-118.151	56.537	-0.134	-0.127
-117.137	321.121	0.028	0.052
-116.122	119.122	-0.022	-0.027
-115.107	-200.000	0.220	-0.000
-114.093	256.053	0.090	-0.151
-113.078	73.859	0.044	-0.045
-112.064	206.667	0.038	0.058
-111.049	14.932	0.005	-0.004
-110.034	800.000	0.057	0.208
-109.020	15.250	-0.111	0.085
-108.005	100.701	0.066	-0.075
-106.991	-126.876	-0.231	-0.033
-105.976	686.087	0.036	-0.093
-104.962	-167.089	0.427	0.017
-103.947	186.705	-0.128	0.186
-102.932	-30.993	-0.256	-0.141
-101.918	22.974	0.316	-0.253
-100.903	134.253	0.041	-0.052
-99.889	-200.000	0.022	0.223
-98.874	800.000	0.086	-0.316
-97.859	-200.000	0.000	0.003
-96.845	175.257	0.206	0.292
-95.830	29.849	-0.143	-0.118
-94.816	176.539	-0.028	-0.039
-93.801	114.777	0.132	0.157
-92.786	800.000	0.047	0.185
-91.772	-167.794	-0.219	-0.008
-90.757	-200.000	-0.037	0.271
-89.743	-200.000	0.018	-0.216
-88.728	19.236	-0.159	0.124
-87.713	253.821	-0.041	-0.068
-86.699	27.196	-0.160	0.131
-85.684	84.708	-0.048	0.051
-84.670	162.725	0.082	0.112
-83.655	228.120	-0.084	0.133
-82.640	648.696	-0.067	0.167
-81.626	129.608	-0.170	0.212
-80.611	-92.186	0.334	-0.092
-79.597	-200.000	0.011	-0.059
-78.582	179.110	-0.047	0.066
-77.567	82.491	-0.015	0.016
-76.553	800.000	0.061	0.206
-75.538	-200.000	-0.017	0.222
-74.524	162.252	0.127	-0.174
-73.509	92.839	0.261	0.287
-72.494	-200.000	-0.016	-0.162
-71.480	367.708	-0.059	-0.117
-70.465	-61.770	-0.267	-0.109
-69.451	-88.918	0.308	-0.089
-68.436	800.000	-0.039	-0.132
-67.422	68.680	-0.448	0.448
-66.407	-200.000	0.003	-0.095
-65.392	-150.353	-0.282	-0.021
-64.378	-200.000	-0.039	-0.243
-63.363	-104.103	-0.266	0.060
-62.349	-22.340	0.057	0.033
-61.334	177.464	-0.858	-1.218
-60.319	44.568	0.399	0.357
-59.305	442.724	-0.590	-1.259
-58.290	249.072	0.574	0.947
-57.276	751.015	0.622	1.635
-56.261	-200.000	114.418	629.174
-55.246	455.889	1495.430	3231.523
-54.232	152.582	2652.506	3529.248
-53.217	100.182	2144.444	2422.565
-52.203	36.723	1672.661	1439.246
-51.188	29.818	1489.019	1235.263
-50.173	27.616	1464.400	1200.313
-49.159	49.144	1527.533	1397.880
-48.144	47.800	1541.642	1401.669
-47.130	29.825	1495.739	1240.688
-46.115	26.749	1480.957	1207.918
-45.100	26.649	1476.786	1203.804
-44.086	26.563	1475.183	1201.880
-43.071	26.574	1473.263	1200.335
-42.057	26.500	1472.028	1198.795
-41.042	26.579	1469.965	1197.587
-40.027	26.600	1468.315	1196.339
-39.013	26.536	1467.029	1194.817
-37.998	26.521	1466.220	1194.011
-36.984	26.499	1465.305	1193.073
-35.969	26.502	1463.954	1191.947
-34.954	26.562	1462.563	1191.160
-33.940	26.532	1460.924	1189.587
-32.925	26.552	1459.807	1188.760
-31.911	26.590	1458.410	1187.821
-30.896	26.547	1457.341	1186.624
-29.881	26.605	1456.092	1185.939
-28.867	26.645	1454.814	1185.113
-27.852	26.661	1453.465	1184.073
-26.838	26.673	1451.661	1182.630
-25.823	26.700	1450.531	1181.845
-24.809	26.641	1449.051	1180.206
-23.794	26.630	1447.266	1178.629
-22.779	26.653	1446.252	1177.911
-21.765	26.680	1445.315	1177.274
-20.750	26.676	1444.170	1176.269
-19.736	26.622	1443.469	1175.303
-18.721	26.645	1442.041	1174.243
-17.706	26.594	1441.113	1173.108
-16.692	26.620	1440.241	1172.520
-15.677	26.656	1438.939	1171.644
-14.663	26.499	1438.488	1170.218
-13.648	26.606	1437.381	1169.964
-12.633	26.506	1436.754	1168.762
-11.619	26.638	1435.627	1168.646
-10.604	26.613	1434.504	1167.529
-9.590	26.640	1433.682	1166.987
-8.575	26.635	1433.179	1166.499
-7.560	26.622	1431.865	1165.297
-6.546	26.598	1431.496	1164.795
-5.531	26.522	1430.740	1163.649
-4.517	26.624	1429.143	1162.955
-3.502	26.564	1428.037	1161.624
-2.487	26.501	1427.580	1160.802
-1.473	26.610	1426.234	1160.363
-0.458	26.707	1424.343	1159.396
0.556	24.703	1414.821	1146.949
1.571	21.017	1389.718	1103.229
2.586	17.114	1329.544	1031.696
3.600	15.222	1249.020	958.317
4.615	14.167	1205.923	919.341
5.629	12.321	1150.861	867.546
6.644	6.133	1071.101	776.846
7.659	1.039	1034.073	725.575
8.673	0.338	1028.262	718.091
9.688	0.214	1025.531	715.531
10.702	0.163	1024.224	714.318
11.717	0.036	1022.065	712.145
12.731	2.079	1023.486	722.752
13.746	8.854	1032.194	761.100
14.761	15.105	1039.755	796.426
15.775	16.902	1041.638	806.350
16.790	16.424	1039.656	802.474
17.804	15.467	1037.626	796.301
18.819	14.525	1035.903	790.445
19.834	14.164	1034.558	787.642
20.848	13.980	1033.693	786.043
21.863	13.638	1033.497	784.207
22.877	13.339	1032.441	781.921
23.892	13.216	1031.400	780.485
24.907	13.179	1030.551	779.596
25.921	13.129	1030.278	779.086
26.936	13.126	1029.296	778.260
27.950	13.226	1028.439	778.014
28.965	13.193	1028.041	777.488
29.980	13.270	1027.037	777.024
30.994	13.301	1026.421	776.635
32.009	13.346	1025.139	775.805
33.023	13.467	1024.339	775.698
34.038	13.415	1023.897	775.051
35.053	13.377	1023.207	774.284
36.067	13.379	1022.025	773.329
37.082	13.281	1021.598	772.478
38.096	13.306	1020.559	771.741
39.111	13.302	1020.022	771.252
40.126	13.369	1019.045	770.754
41.140	13.273	1018.026	769.467
42.155	13.246	1016.952	768.465
43.169	13.154	1016.595	767.699
44.184	13.138	1015.506	766.733
45.199	13.093	1014.244	765.503
46.213	13.161	1013.286	765.031
47.228	13.054	1012.774	764.080
48.242	13.201	1011.623	763.821
49.257	13.360	1010.077	763.320
50.271	13.199	1009.595	762.147
51.286	13.267	1008.379	761.473
52.301	13.324	1007.672	761.138
53.315	13.314	1007.128	760.610
54.330	13.360	1006.075	759.960
55.344	13.168	1005.456	758.544
56.359	13.076	1004.397	757.256
57.374	13.216	1003.450	757.118
58.388	13.227	1002.335	756.260
59.403	13.136	1001.617	755.236
60.417	13.097	1001.031	754.548
61.432	13.172	1000.373	754.328
62.447	13.157	999.591	753.602
63.461	13.052	999.303	752.840
64.476	12.999	997.842	751.430
65.490	13.036	997.167	751.026
66.505	13.062	996.342	750.457
67.520	13.009	995.879	749.801
68.534	13.116	994.670	749.309
69.549	13.108	993.754	748.517
70.563	13.187	993.054	748.280
71.578	13.176	992.700	747.896
72.593	13.123	991.401	746.613
73.607	13.063	990.737	745.777
74.622	12.969	990.067	744.782
75.636	13.053	988.916	744.225
76.651	13.110	987.643	743.462
77.666	13.126	987.596	743.431
78.680	13.158	986.918	743.001
79.695	13.112	986.566	742.461
80.709	13.030	986.135	741.702
81.724	13.191	984.731	741.303
82.739	13.133	984.213	740.586
83.753	13.153	983.564	740.125
84.768	13.281	982.586	739.896
85.782	13.267	982.048	739.360
86.797	13.444	980.816	739.162
87.812	13.334	980.160	738.108
88.826	13.306	979.376	737.330
89.841	13.296	978.538	736.588
90.855	13.245	977.821	735.755
91.870	13.258	976.877	735.039
92.884	13.320	976.598	735.039
93.899	13.297	976.139	734.526
94.914	13.315	974.852	733.573
95.928	13.280	974.804	733.315
96.943	13.402	973.400	732.737
97.957	13.385	972.888	732.210
98.972	13.449	971.566	731.434
99.987	13.380	971.348	730.902
101.001	13.261	970.618	729.762
102.016	13.359	969.910	729.597
103.030	13.311	969.045	728.669
104.045	13.364	967.780	727.885
105.060	13.419	966.766	727.302
106.074	13.384	965.863	726.405
107.089	13.157	965.606	725.150
108.103	13.306	964.521	724.923
109.118	13.210	963.861	723.943
110.133	13.246	962.867	723.289
111.147	13.159	961.931	722.144
112.162	13.234	961.469	722.061
113.176	13.177	960.528	721.039
114.191	13.312	959.838	721.047
115.206	13.262	958.854	720.027
116.220	13.397	957.658	719.653
117.235	13.313	957.025	718.749
118.249	13.031	956.730	717.236
119.264	13.258	955.349	717.123
120.279	13.346	953.988	716.420
121.293	13.203	953.648	715.483
122.308	13.144	952.918	714.617
123.322	13.281	952.239	714.637
124.337	13.201	951.468	713.649
125.352	13.208	950.158	712.634
126.366	13.337	948.897	712.180
127.381	13.203	947.864	710.766
128.395	13.190	946.965	709.972
129.410	13.274	946.151	709.658
130.424	13.305	945.381	709.150
131.439	13.170	944.834	708.100
132.454	13.199	944.178	707.670
133.468	13.235	943.133	706.979
134.483	13.275	942.073	706.294
135.497	13.275	941.900	706.101
136.512	13.349	941.182	705.816
137.527	13.321	940.117	704.832
138.541	13.275	939.557	704.157
139.556	13.239	939.086	703.587
140.570	13.297	937.814	702.821
141.585	13.377	937.097	702.558
142.600	13.369	936.574	702.072
143.614	13.392	935.881	701.586
144.629	13.511	935.246	701.553
145.643	13.517	934.161	700.705
146.658	13.477	933.135	699.701
147.673	13.279	932.588	698.392
148.687	13.357	931.502	697.848
149.702	13.412	930.808	697.496
150.716	13.285	930.317	696.534
151.731	13.314	929.149	695.717
152.746	13.314	928.844	695.427
153.760	13.416	927.955	695.130
154.775	13.505	926.790	694.572
155.789	13.481	926.337	694.067
156.804	13.437	925.518	693.209
157.819	13.507	924.457	692.645
158.833	13.489	924.148	692.276
159.848	13.572	923.667	692.203
160.862	13.575	923.089	691.719
161.877	13.591	922.142	691.018
162.892	13.589	921.252	690.278
163.906	13.524	920.437	689.338
164.921	13.519	919.776	688.762
165.935	13.473	918.634	687.652
166.950	13.552	918.011	687.456
167.964	13.617	916.910	686.841
168.979	13.696	916.043	686.455
169.994	13.499	914.985	684.786
171.008	13.567	914.447	684.604
172.023	13.631	913.608	684.183
173.037	13.638	912.840	683.575
174.052	13.700	912.017	683.154
175.067	13.643	911.550	682.509
176.081	13.599	910.778	681.687
177.096	13.625	909.896	681.075
178.110	13.625	909.401	680.642
179.125	13.558	908.606	679.715
180.140	13.601	907.256	678.820
181.154	13.615	907.472	678.980
182.169	13.648	906.717	678.491
183.183	13.763	906.053	678.402
184.198	13.752	905.215	677.668
185.213	13.774	904.391	677.083
186.227	13.823	903.668	676.681
187.242	13.918	903.064	676.558
188.256	13.795	902.547	675.608
189.271	13.932	901.892	675.616
190.286	13.850	900.982	674.542
191.300	13.872	900.084	673.899
192.315	13.754	899.549	672.962
193.329	13.704	898.879	672.194
194.344	13.689	898.029	671.442
195.359	13.841	897.790	671.817
196.373	13.883	897.085	671.399
197.388	13.826	897.085	671.112
198.402	13.929	896.384	670.943
199.417	13.933	895.814	670.470
200.432	14.091	895.281	670.650
201.446	14.062	895.090	670.331
202.461	13.950	894.892	669.675
203.475	14.248	894.100	670.223
204.490	14.119	893.537	669.220
205.504	14.053	892.804	668.348
206.519	14.188	891.737	668.031
207.534	14.004	891.010	666.691
208.548	14.072	890.511	666.530
209.563	14.138	889.905	666.282
210.577	14.214	889.034	665.877
211.592	14.181	888.575	665.339
212.607	14.086	888.352	664.736
213.621	14.223	887.112	664.293
214.636	14.330	886.516	664.216
215.650	14.138	886.451	663.344
216.665	14.334	885.421	663.294
217.680	14.271	885.221	662.837
218.694	14.295	884.710	662.490
219.709	14.360	884.052	662.196
220.723	14.309	883.286	661.361
221.738	14.406	882.689	661.241
222.753	14.345	882.050	660.462
223.767	14.264	881.513	659.682
224.782	14.435	880.422	659.482
225.796	14.292	880.022	658.559
226.811	14.434	878.988	658.286
227.826	14.659	878.094	658.448
228.840	14.415	877.823	657.223
229.855	14.327	877.366	656.479
230.869	14.417	876.636	656.225
231.884	14.314	876.271	655.488
232.899	14.428	875.301	655.153
233.913	14.371	874.655	654.389
234.928	14.392	874.090	653.992
235.942	14.484	872.738	653.283
236.957	14.341	872.238	652.292
237.972	14.433	871.507	652.047
238.986	14.445	870.968	651.633
240.001	14.504	870.610	651.537
241.015	14.406	869.977	650.622
242.030	14.428	869.478	650.279
243.045	14.648	868.670	650.472
244.059	14.706	867.899	650.065
245.074	14.543	867.629	649.171
246.088	14.592	867.020	648.849
247.103	14.748	866.385	648.920
248.117	14.702	865.565	648.073
249.132	14.730	864.910	647.631
250.147	14.635	864.670	647.025
251.161	14.808	863.846	647.024
252.176	14.760	863.291	646.365
253.190	14.974	862.489	646.534
254.205	14.791	862.301	645.629
255.220	14.940	861.915	645.859
256.234	14.874	860.642	644.591
257.249	14.872	860.368	644.321
258.263	14.927	859.680	643.961
259.278	14.918	859.080	643.421
260.293	14.934	858.837	643.242
261.307	15.020	858.169	643.018
262.322	15.092	857.750	642.922
263.336	15.155	856.443	642.128
264.351	15.211	856.072	642.005
265.366	15.237	855.546	641.655
266.380	15.130	855.063	640.828
267.395	15.078	854.292	639.995
268.409	15.120	853.576	639.561
269.424	15.137	852.476	638.744
270.439	15.252	851.739	638.576
271.453	15.170	851.580	638.086
272.468	15.049	850.612	636.845
273.482	15.228	849.963	636.982
274.497	15.206	849.726	636.665
275.512	15.135	848.911	635.729
276.526	15.330	848.158	635.846
277.541	15.141	847.666	634.706
278.555	15.023	847.167	633.830
279.570	15.143	846.688	633.867
280.585	15.411	846.123	634.403
281.599	15.397	845.477	633.809
282.614	15.211	844.776	632.526
283.628	15.313	844.085	632.338
284.643	15.208	844.085	631.887
285.657	15.477	843.175	632.161
286.672	15.320	842.759	631.204
287.687	15.366	842.210	630.910
288.701	15.483	841.424	630.706
289.716	15.405	840.927	629.983
290.730	15.470	840.693	629.996
291.745	15.446	839.851	629.220
292.760	15.553	838.757	628.744
293.774	15.596	838.466	628.633
294.789	15.451	838.036	627.710
295.803	15.684	837.212	627.907
296.818	15.471	836.852	626.786
297.833	15.589	836.077	626.591
298.847	15.626	835.336	626.120
299.862	15.433	835.134	625.192
300.876	15.545	834.270	624.908
301.891	15.649	833.598	624.734
302.906	15.635	832.999	624.179
303.920	15.721	832.263	623.893
304.935	15.764	831.402	623.352
305.949	15.667	831.182	622.773
306.964	15.878	830.294	622.832
307.979	15.691	830.296	622.085
308.993	15.797	829.317	621.690
310.008	15.726	829.032	621.160
311.022	15.758	828.555	620.865
312.037	15.906	827.684	620.701
313.052	15.761	827.771	620.178
314.066	15.798	826.847	619.565
315.081	15.697	826.166	618.632
316.095	15.691	826.003	618.432
317.110	15.779	824.995	617.944
318.125	15.826	824.774	617.900
319.139	15.752	824.333	617.242
320.154	15.772	823.634	616.735
321.168	15.803	823.175	616.452
322.183	15.870	822.468	616.115
323.197	15.851	822.140	615.743
324.212	15.826	821.535	615.144
325.227	15.979	820.677	615.008
326.241	15.938	820.300	614.521
327.256	15.857	820.049	613.983
328.270	15.994	819.323	613.884
329.285	15.882	818.916	613.118
330.300	15.846	818.242	612.426
331.314	15.931	817.550	612.162
332.329	15.964	817.185	611.954
333.343	16.045	816.171	611.434
334.358	16.040	815.872	611.139
335.373	15.992	815.484	610.620
336.387	16.000	814.981	610.218
337.402	16.246	814.169	610.448
338.416	16.155	813.878	609.844
339.431	16.122	813.294	609.236
340.446	16.176	812.285	608.619
341.460	16.223	812.032	608.546
342.475	16.234	811.528	608.153
343.489	16.267	811.564	608.246
344.504	16.337	810.700	607.798
345.519	16.315	810.084	607.201
346.533	16.401	809.305	606.872
347.548	16.406	808.698	606.383
348.562	16.284	808.645	605.852
349.577	16.259	808.161	605.346
350.592	16.260	807.679	604.935
351.606	16.160	807.168	604.139
352.621	16.359	806.407	604.229
353.635	16.327	806.318	603.993
354.650	16.193	805.978	603.206
355.665	16.169	805.700	602.861
356.679	16.277	804.811	602.528
357.694	16.326	804.435	602.367
358.708	16.297	804.027	601.904
359.723	16.427	803.021	601.563
360.738	16.417	802.823	601.323
361.752	16.318	802.459	600.647
362.767	16.421	801.886	600.530
363.781	16.527	801.403	600.493
364.796	16.417	801.174	599.876
365.810	16.436	800.785	599.598
366.825	16.649	799.804	599.566
367.840	16.765	799.683	599.834
368.854	16.667	799.272	599.123
369.869	16.848	798.565	599.183
370.883	16.504	798.521	597.882
371.898	16.533	798.148	597.649
372.913	16.630	797.286	597.293
373.927	16.780	796.429	597.128
374.942	16.670	796.015	596.377
375.956	16.792	795.208	596.148
376.971	16.854	794.804	596.012
377.986	16.859	794.337	595.626
379.000	16.819	793.993	595.176
380.015	16.929	793.635	595.242
381.029	16.988	792.826	594.788
382.044	16.981	792.381	594.376
383.059	16.962	791.957	593.939
384.073	16.999	791.193	593.444
385.088	16.941	790.442	592.626
386.102	16.942	790.200	592.395
387.117	16.971	789.797	592.143
388.132	16.770	789.387	591.082
389.146	16.950	788.877	591.274
390.161	16.986	788.548	591.100
391.175	16.953	788.326	590.768
392.190	17.040	787.878	590.682
393.205	16.899	787.326	589.725
394.219	16.941	786.795	589.420
395.234	17.088	786.347	589.543
396.248	17.047	785.991	589.082
397.263	16.975	785.656	588.530
398.278	16.942	784.830	587.745
399.292	16.981	784.352	587.469
400.307	17.099	784.379	587.846
401.321	17.046	783.525	586.971
402.336	16.987	783.503	586.698
403.350	17.016	782.799	586.220
404.365	16.979	782.285	585.654
405.380	17.117	781.983	585.853
406.394	17.183	781.423	585.610
407.409	17.362	781.101	585.932
408.423	17.118	780.961	584.935
409.438	17.232	780.137	584.658
410.453	17.334	779.905	584.785
411.467	17.427	779.371	584.650
412.482	17.284	779.257	584.023
413.496	17.390	778.259	583.586
414.511	17.242	778.488	583.198
415.526	17.295	777.814	582.824
416.540	17.430	777.272	582.828
417.555	17.391	777.091	582.507
418.569	17.466	776.690	582.412
419.584	17.364	776.317	581.731
420.599	17.465	775.604	581.491
421.613	113.271	1294.541	1481.952
422.628	96.957	1370.137	1482.047
