DTS Sentinel unit serial number:	SN413079Multiplexer serial number:	ORYXHardware model number:	OX4-SRSoftware version number:	ORYX F/W v4.00 Oryx Data Collector v3.7.2.0data status	okinstallation	princeton_trtdifferential loss correction	single-endedforward channel	channel 3reverse channel	N/Adate	2019/09/13time	21:00:35forward acquisition time	60.00reverse acquisition time	0.00gamma	496.2192k internal	0.2333k external	0.2333temperature offset calibration	1.0062default loss term (dB/km)	0.3790temperature slope calibration	1.0000multiplexer offset coefficient	1.0000multiplexer slope coefficient	1.0000fibre end	0.00T internal ref (°C)	28.62T ext. ref 1 (°C)	3.14T ext. ref 2 (°C)	23.26length (m)	temperature (°C)	Stokes	anti-Stokes-747.200	9.489	-0.080	0.061
-746.185	12.135	-0.061	-0.047
-745.171	-82.972	0.065	-0.021
-744.156	63.415	-0.172	-0.174
-743.142	-104.485	0.297	-0.069
-742.127	-200.000	-0.023	0.208
-741.112	18.995	0.076	-0.061
-740.098	698.660	0.105	0.279
-739.083	189.446	-0.203	-0.305
-738.069	74.073	-0.254	0.268
-737.054	-182.027	0.386	0.007
-736.039	-148.084	-0.442	0.037
-735.025	-200.000	-0.013	-0.112
-734.010	9.099	-0.429	-0.326
-732.996	368.303	-0.170	-0.346
-731.981	800.000	0.091	0.334
-730.966	34.596	0.109	0.096
-729.952	129.958	-0.062	-0.079
-728.937	32.305	-0.153	-0.132
-727.923	-102.966	-0.278	-0.066
-726.908	3.326	0.202	-0.148
-725.894	656.190	-0.087	-0.223
-724.879	-113.515	0.044	-0.009
-723.864	-136.249	0.488	-0.057
-722.850	-138.311	-0.174	-0.019
-721.835	-200.000	-0.080	-0.414
-720.821	254.715	-0.107	0.184
-719.806	103.850	-0.114	-0.134
-718.791	-26.654	-0.416	-0.245
-717.777	800.000	-0.009	-0.036
-716.762	127.133	-0.087	-0.111
-715.748	132.490	0.138	-0.179
-714.733	-6.106	0.168	0.115
-713.718	800.000	0.059	-0.192
-712.704	-74.274	-0.139	-0.050
-711.689	-120.455	0.034	0.006
-710.675	-87.843	0.279	-0.084
-709.660	158.211	-0.194	-0.270
-708.645	-200.000	-0.011	-0.061
-707.631	647.451	-0.146	0.376
-706.616	136.039	0.114	0.149
-705.602	-200.000	-0.024	-0.475
-704.587	90.925	0.325	-0.366
-703.572	800.000	0.088	-0.375
-702.558	23.579	0.165	-0.137
-701.543	-15.975	-0.241	-0.154
-700.529	430.791	-0.039	-0.085
-699.514	515.697	0.073	-0.172
-698.499	800.000	-0.060	-0.210
-697.485	-200.000	-0.018	-0.184
-696.470	-80.292	-0.233	0.078
-695.456	90.653	0.137	0.154
-694.441	61.559	0.176	0.176
-693.426	126.975	0.152	-0.193
-692.412	-200.000	-0.020	-0.095
-691.397	800.000	0.060	-0.241
-690.383	-200.000	0.043	-0.308
-689.368	177.893	-0.061	-0.090
-688.354	-200.000	-0.060	0.446
-687.339	-114.053	0.134	0.026
-686.324	-200.000	-0.036	-0.202
-685.310	-178.437	-0.287	0.007
-684.295	105.220	-0.207	-0.245
-683.281	414.443	0.089	0.190
-682.266	63.576	0.092	0.092
-681.251	22.276	-0.317	-0.260
-680.237	-155.644	-0.183	0.012
-679.222	800.000	-0.014	-0.050
-678.208	-14.750	0.228	-0.147
-677.193	71.847	-0.097	-0.101
-676.178	38.525	-0.156	-0.140
-675.164	-56.864	-0.390	-0.173
-674.149	-154.194	0.312	0.021
-673.135	68.111	-0.086	0.089
-672.120	457.559	-0.124	0.277
-671.105	315.788	-0.134	0.253
-670.091	-147.592	0.219	-0.018
-669.076	-100.860	0.052	0.013
-668.062	-35.320	-0.233	0.127
-667.047	131.863	0.084	-0.108
-666.032	343.163	0.057	-0.112
-665.018	-159.547	-0.118	0.007
-664.003	-45.054	-0.181	-0.090
-662.989	470.687	0.137	0.310
-661.974	-39.092	0.253	0.134
-660.959	-74.708	-0.188	0.068
-659.945	-91.969	-0.208	-0.059
-658.930	562.030	0.121	0.294
-657.916	-68.172	-0.166	0.065
-656.901	-138.233	0.285	0.032
-655.886	-200.000	0.011	-0.271
-654.872	-1.616	-0.124	-0.088
-653.857	624.954	0.044	0.112
-652.843	-131.948	0.041	-0.005
-651.828	-11.197	-0.095	0.063
-650.814	-145.474	-0.260	0.023
-649.799	35.272	-0.293	-0.258
-648.784	-71.120	-0.222	0.084
-647.770	202.369	-0.080	0.123
-646.755	-74.629	-0.262	0.094
-645.741	-88.011	0.348	0.105
-644.726	800.000	-0.154	-0.532
-643.711	-200.000	-0.008	-0.342
-642.697	158.873	0.154	-0.214
-641.682	260.322	-0.328	-0.568
-640.668	-200.000	0.001	-0.227
-639.653	-85.911	-0.212	0.066
-638.638	-200.000	-0.019	-0.378
-637.624	-200.000	-0.060	-0.446
-636.609	-123.506	0.326	0.052
-635.595	-200.000	0.008	0.069
-634.580	36.121	0.201	0.177
-633.565	-35.726	-0.280	0.152
-632.551	800.000	-0.008	0.029
-631.536	214.979	-0.161	-0.255
-630.522	-200.000	0.031	-0.187
-629.507	-65.341	-0.385	-0.155
-628.492	43.312	-0.128	-0.117
-627.478	297.228	-0.089	-0.163
-626.463	-69.701	-0.263	0.101
-625.449	-200.000	-0.017	-0.289
-624.434	-96.405	0.268	0.071
-623.419	764.853	0.053	0.144
-622.405	-69.297	-0.264	-0.101
-621.390	-86.654	-0.255	0.078
-620.376	16.342	0.194	-0.153
-619.361	-104.610	-0.249	0.057
-618.346	92.264	-0.243	-0.274
-617.332	-14.271	0.513	-0.331
-616.317	123.147	-0.076	0.095
-615.303	-200.000	0.019	0.223
-614.288	99.791	0.153	-0.177
-613.273	-200.000	-0.010	0.113
-612.259	162.070	-0.048	0.067
-611.244	-200.000	-0.004	0.108
-610.230	120.752	-0.164	0.204
-609.215	42.924	0.131	0.119
-608.201	181.869	0.081	0.120
-607.186	-185.063	-0.193	-0.003
-606.171	-46.243	0.122	0.060
-605.157	19.220	0.109	-0.087
-604.142	239.260	-0.128	0.213
-603.128	426.409	0.084	0.181
-602.113	-200.000	-0.029	-0.259
-601.098	-200.000	0.021	-0.112
-600.084	-21.021	-0.163	-0.100
-599.069	216.739	0.163	-0.259
-598.055	120.432	-0.063	0.078
-597.040	-200.000	0.155	0.001
-596.025	-38.429	0.092	0.049
-595.011	41.736	0.206	-0.187
-593.996	33.794	0.185	-0.161
-592.982	-56.195	0.209	0.093
-591.967	33.775	-0.150	-0.130
-590.952	448.790	0.064	-0.140
-589.938	-200.000	0.083	-0.364
-588.923	-200.000	-0.005	-0.157
-587.909	800.000	0.062	0.269
-586.894	-19.427	-0.137	-0.085
-585.879	800.000	0.099	0.290
-584.865	-117.511	-0.253	0.046
-583.850	47.299	0.183	-0.171
-582.836	-0.184	0.207	0.147
-581.821	-200.000	0.039	-0.485
-580.806	-125.820	0.407	0.061
-579.792	-1.588	0.130	-0.092
-578.777	-119.491	-0.450	-0.078
-577.763	-5.229	-0.051	0.035
-576.748	-200.000	0.010	0.185
-575.733	34.603	-0.152	-0.132
-574.719	800.000	-0.043	-0.157
-573.704	-173.116	0.260	-0.008
-572.690	42.341	-0.104	0.094
-571.675	-200.000	0.032	0.172
-570.661	5.390	-0.063	0.047
-569.646	8.234	-0.153	-0.115
-568.631	-200.000	-0.058	-0.267
-567.617	336.280	0.094	-0.181
-566.602	-130.801	-0.133	-0.018
-565.588	-136.094	0.305	-0.036
-564.573	-200.000	0.047	-0.222
-563.558	255.668	0.101	0.173
-562.544	-94.257	-0.089	0.024
-561.529	-200.000	-0.030	-0.234
-560.515	397.512	0.144	0.301
-559.500	275.120	0.019	-0.034
-558.485	-31.559	-0.134	0.075
-557.471	-28.194	-0.177	0.102
-556.456	-42.857	0.061	0.031
-555.442	450.991	0.032	-0.071
-554.427	463.027	-0.038	-0.085
-553.412	800.000	0.068	-0.263
-552.398	12.040	0.185	-0.142
-551.383	798.555	-0.031	0.084
-550.369	79.926	-0.230	0.247
-549.354	337.545	0.084	-0.163
-548.339	-43.675	-0.314	-0.158
-547.325	-200.000	0.023	0.316
-546.310	-56.562	-0.398	0.176
-545.296	-20.914	0.372	-0.228
-544.281	-59.020	0.334	0.144
-543.266	32.265	-0.382	0.329
-542.252	134.895	-0.175	-0.227
-541.237	-200.000	0.034	-0.191
-540.223	-200.000	0.082	0.372
-539.208	124.819	-0.165	0.207
-538.193	274.281	0.123	-0.218
-537.179	-20.557	-0.472	0.289
-536.164	47.817	0.049	0.046
-535.150	-200.000	0.010	-0.094
-534.135	340.309	-0.147	-0.286
-533.121	-76.863	0.173	0.060
-532.106	800.000	0.022	-0.072
-531.091	301.913	0.112	-0.206
-530.077	-200.000	-0.008	-0.156
-529.062	1.869	0.054	-0.039
-528.048	51.759	0.103	-0.098
-527.033	-23.872	-0.079	0.047
-526.018	-98.067	0.159	0.041
-525.004	-200.000	0.070	-0.487
-523.989	-86.884	0.112	0.034
-522.975	-87.041	-0.103	-0.031
-521.960	105.150	0.104	0.122
-520.945	452.084	-0.042	0.093
-519.931	68.374	-0.191	0.195
-518.916	-200.000	0.003	-0.127
-517.902	-9.161	-0.211	0.140
-516.887	-59.916	0.044	-0.019
-515.872	-122.234	0.332	0.054
-514.858	216.404	-0.272	0.431
-513.843	-94.787	-0.179	0.048
-512.829	-200.000	0.059	0.270
-511.814	75.549	0.137	0.144
-510.799	452.301	0.025	-0.055
-509.785	-200.000	0.054	0.286
-508.770	100.895	-0.150	-0.173
-507.756	-128.295	0.161	0.023
-506.741	-200.000	-0.005	-0.120
-505.726	-200.000	0.034	0.522
-504.712	800.000	-0.084	0.341
-503.697	411.316	0.085	0.179
-502.683	-3.702	0.203	0.141
-501.668	-48.520	-0.117	0.056
-500.653	551.873	0.140	0.335
-499.639	328.241	0.035	0.068
-498.624	-183.284	-0.390	-0.007
-497.610	800.000	0.015	-0.043
-496.595	115.319	-0.216	0.263
-495.581	574.068	-0.110	-0.268
-494.566	261.511	0.246	0.424
-493.551	-200.000	0.023	0.176
-492.537	113.946	-0.151	-0.182
-491.522	113.608	0.252	0.305
-490.508	-91.459	-0.249	-0.071
-489.493	-109.252	0.160	-0.034
-488.478	441.168	-0.041	0.090
-487.464	-141.018	-0.150	0.015
-486.449	-200.000	-0.007	0.046
-485.435	800.000	-0.025	0.077
-484.420	-76.761	0.108	-0.037
-483.405	215.723	-0.079	-0.124
-482.391	-26.143	0.098	0.057
-481.376	-96.167	-0.151	-0.040
-480.362	-42.934	0.267	0.135
-479.347	-85.122	-0.304	-0.095
-478.332	-61.071	0.272	0.114
-477.318	-200.000	0.004	0.034
-476.303	-121.339	-0.261	-0.043
-475.289	299.151	-0.132	-0.241
-474.274	-200.000	0.054	-0.244
-473.259	-71.876	0.116	0.043
-472.245	164.114	-0.239	0.335
-471.230	-186.115	-0.311	0.005
-470.216	-200.000	0.019	-0.168
-469.201	162.451	-0.012	0.017
-468.186	-200.000	0.051	-0.263
-467.172	35.406	0.112	-0.097
-466.157	800.000	-0.036	0.137
-465.143	-200.000	0.042	-0.333
-464.128	290.546	0.144	-0.260
-463.113	184.896	0.178	-0.263
-462.099	-130.107	0.293	0.040
-461.084	290.017	-0.111	-0.201
-460.070	800.000	-0.066	-0.193
-459.055	-23.957	0.237	0.141
-458.040	396.718	-0.183	-0.380
-457.026	-200.000	0.011	-0.570
-456.011	-29.236	-0.358	-0.204
-454.997	42.747	0.143	-0.129
-453.982	-133.375	0.359	-0.045
-452.968	800.000	-0.079	-0.324
-451.953	-200.000	0.021	0.104
-450.938	800.000	-0.071	0.268
-449.924	198.721	-0.018	0.027
-448.909	800.000	0.045	0.123
-447.895	-41.618	-0.278	0.142
-446.880	-84.885	0.137	0.043
-445.865	20.208	-0.364	0.292
-444.851	-200.000	-0.043	0.205
-443.836	-158.319	-0.215	-0.012
-442.822	98.320	-0.083	-0.096
-441.807	10.224	-0.122	-0.092
-440.792	33.590	-0.051	0.044
-439.778	199.899	-0.241	0.368
-438.763	-101.463	0.185	-0.045
-437.749	-153.537	0.486	0.033
-436.734	124.216	0.214	-0.267
-435.719	-145.998	-0.341	0.030
-434.705	22.284	0.213	0.173
-433.690	99.224	0.189	-0.218
-432.676	-72.315	0.325	-0.119
-431.661	-200.000	-0.028	-0.424
-430.646	72.871	0.330	-0.342
-429.632	800.000	0.045	-0.191
-428.617	800.000	-0.067	-0.233
-427.603	-56.164	0.210	-0.093
-426.588	127.574	0.118	-0.149
-425.573	-182.192	0.286	-0.005
-424.559	-19.681	-0.338	-0.208
-423.544	47.428	0.142	0.131
-422.530	85.281	0.124	-0.135
-421.515	-120.089	-0.226	0.038
-420.500	-200.000	-0.047	-0.208
-419.486	-145.118	0.275	0.025
-418.471	278.160	0.057	0.101
-417.457	30.465	-0.015	0.013
-416.442	-50.397	0.163	-0.076
-415.428	91.118	-0.245	0.273
-414.413	-200.000	-0.056	0.280
-413.398	496.330	0.093	0.213
-412.384	2.718	-0.218	0.157
-411.369	12.347	0.106	0.081
-410.355	800.000	0.063	0.223
-409.340	46.669	-0.285	0.263
-408.325	435.565	0.261	-0.563
-407.311	30.530	-0.157	0.133
-406.296	214.039	-0.166	0.261
-405.282	188.149	-0.091	0.135
-404.267	123.797	0.148	-0.184
-403.252	800.000	-0.054	-0.222
-402.238	-75.066	0.187	0.067
-401.223	-148.418	0.279	-0.023
-400.209	-141.019	0.257	0.026
-399.194	-7.669	0.222	0.149
-398.179	22.319	-0.254	0.206
-397.165	139.082	0.078	-0.102
-396.150	-200.000	-0.005	0.070
-395.136	28.337	0.224	0.188
-394.121	2.432	0.033	0.024
-393.106	121.099	-0.139	0.171
-392.092	800.000	0.016	0.057
-391.077	399.768	-0.022	-0.045
-390.063	-87.985	-0.416	0.124
-389.048	130.600	-0.213	0.271
-388.033	-64.995	0.302	0.121
-387.019	-65.059	0.345	-0.138
-386.004	-1.411	-0.199	0.139
-384.990	48.014	0.339	-0.314
-383.975	-106.120	0.183	0.041
-382.960	0.731	-0.249	0.177
-381.946	-143.812	-0.175	0.016
-380.931	-200.000	-0.025	-0.308
-379.917	318.958	0.138	0.260
-378.902	79.401	0.328	0.349
-377.888	-15.471	0.351	0.222
-376.873	102.087	-0.338	0.392
-375.858	765.403	-0.017	0.045
-374.844	302.771	0.080	0.148
-373.829	-49.818	-0.167	-0.079
-372.815	733.027	0.065	-0.172
-371.800	800.000	-0.061	0.208
-370.785	21.498	0.041	0.033
-369.771	-200.000	-0.016	0.147
-368.756	412.596	0.081	-0.172
-367.742	222.844	-0.196	-0.313
-366.727	255.459	-0.161	0.274
-365.712	23.516	0.182	0.148
-364.698	25.031	0.078	-0.064
-363.683	-112.856	-0.167	0.033
-362.669	234.540	0.069	-0.112
-361.654	800.000	-0.086	-0.324
-360.639	38.621	-0.245	-0.216
-359.625	16.570	-0.241	0.188
-358.610	800.000	0.073	-0.210
-357.596	-57.507	-0.280	-0.122
-356.581	-98.610	0.082	0.021
-355.566	-82.679	0.213	0.068
-354.552	283.237	-0.163	-0.289
-353.537	-200.000	0.007	-0.042
-352.523	-70.036	-0.464	0.175
-351.508	-200.000	-0.017	0.121
-350.493	-137.988	-0.149	0.016
-349.479	39.963	0.103	-0.092
-348.464	-132.463	0.094	0.012
-347.450	-97.696	0.143	0.037
-346.435	-149.071	-0.348	-0.028
-345.420	7.990	-0.077	0.057
-344.406	-51.501	-0.146	-0.067
-343.391	212.624	-0.059	-0.093
-342.377	74.281	-0.221	0.230
-341.362	-34.495	0.224	0.122
-340.348	5.114	-0.233	0.170
-339.333	-32.444	-0.212	0.117
-338.318	-74.948	0.306	-0.108
-337.304	800.000	-0.134	-0.386
-336.289	9.279	-0.171	0.128
-335.275	59.716	-0.065	0.064
-334.260	800.000	0.045	0.140
-333.245	-68.962	0.344	0.131
-332.231	-29.997	0.225	0.127
-331.216	-15.863	0.208	0.131
-330.202	342.712	-0.126	-0.244
-329.187	308.556	0.109	0.201
-328.172	439.012	-0.076	0.164
-327.158	281.843	0.135	0.240
-326.143	-200.000	0.012	0.110
-325.129	65.840	0.116	-0.117
-324.114	-200.000	-0.006	-0.058
-323.099	-132.794	0.197	0.025
-322.085	17.150	-0.300	0.235
-321.070	-128.339	-0.206	-0.029
-320.056	-115.543	0.064	-0.012
-319.041	43.846	0.148	-0.134
-318.026	-200.000	-0.057	0.302
-317.012	-28.391	0.106	0.060
-315.997	-115.908	-0.299	0.055
-314.983	-200.000	-0.019	0.184
-313.968	-65.727	0.328	0.130
-312.953	81.191	0.160	0.171
-311.939	585.213	0.153	0.371
-310.924	-55.595	-0.129	0.057
-309.910	519.102	0.112	-0.259
-308.895	186.413	0.140	-0.206
-307.880	-87.564	-0.149	-0.045
-306.866	343.612	-0.164	0.318
-305.851	-116.185	-0.167	0.031
-304.837	-112.455	-0.373	-0.074
-303.822	-121.925	0.130	0.021
-302.807	-90.139	-0.353	0.102
-301.793	-141.359	0.286	0.029
-300.778	-97.081	0.232	-0.060
-299.764	243.619	-0.088	-0.145
-298.749	139.315	-0.145	0.188
-297.735	-27.371	-0.126	-0.072
-296.720	-13.750	-0.079	0.051
-295.705	110.827	-0.079	-0.093
-294.691	-129.367	0.199	0.027
-293.676	91.006	-0.201	0.222
-292.662	-44.261	-0.313	0.155
-291.647	-34.058	0.117	-0.064
-290.632	28.796	-0.276	-0.231
-289.618	-147.665	0.248	-0.021
-288.603	-79.376	-0.365	-0.122
-287.589	-156.824	0.393	0.024
-286.574	-140.284	-0.180	-0.019
-285.559	260.323	-0.148	-0.253
-284.545	-158.677	-0.412	0.023
-283.530	-36.446	-0.107	-0.057
-282.516	3.912	0.150	-0.108
-281.501	-200.000	0.025	0.281
-280.486	-93.564	-0.520	-0.142
-279.472	128.232	-0.092	-0.116
-278.457	-6.354	-0.106	0.072
-277.443	-126.153	0.361	-0.053
-276.428	-65.580	0.162	0.064
-275.413	91.111	-0.191	-0.212
-274.399	178.918	0.124	-0.179
-273.384	-66.158	0.251	0.099
-272.370	41.516	-0.203	-0.181
-271.355	-82.874	0.322	0.103
-270.340	-95.152	0.116	0.031
-269.326	-0.613	-0.032	0.023
-268.311	-3.689	0.216	-0.148
-267.297	-38.213	-0.329	-0.172
-266.282	276.017	0.169	-0.295
-265.267	-54.162	-0.319	0.143
-264.253	-5.457	0.087	-0.059
-263.238	-139.174	-0.259	0.028
-262.224	-61.539	0.342	-0.142
-261.209	139.356	0.119	-0.155
-260.195	-200.000	0.014	0.137
-259.180	-103.290	0.136	-0.032
-258.165	800.000	-0.091	-0.278
-257.151	663.766	-0.025	-0.063
-256.136	-200.000	0.004	0.112
-255.122	-118.413	0.165	0.029
-254.107	-133.443	-0.411	0.051
-253.092	-155.367	-0.231	-0.015
-252.078	-83.223	0.248	-0.079
-251.063	-82.952	0.081	0.026
-250.049	-83.286	0.147	0.047
-249.034	66.216	0.080	0.080
-248.019	36.179	-0.455	0.395
-247.005	-111.008	0.190	0.039
-245.990	173.474	-0.162	-0.230
-244.976	-200.000	-0.016	0.100
-243.961	-36.604	-0.162	0.086
-242.946	148.457	-0.103	0.138
-241.932	-129.060	0.417	0.058
-240.917	-200.000	0.038	-0.424
-239.903	264.273	0.066	0.113
-238.888	-200.000	0.014	0.242
-237.873	22.964	-0.119	0.097
-236.859	-200.000	-0.010	0.085
-235.844	609.522	-0.124	-0.304
-234.830	-0.995	-0.082	0.057
-233.815	-200.000	0.010	0.287
-232.800	100.500	-0.117	-0.134
-231.786	-175.194	0.161	0.004
-230.771	-143.311	-0.104	0.010
-229.757	800.000	-0.060	0.179
-228.742	-56.838	0.311	-0.136
-227.727	133.643	0.181	-0.231
-226.713	-95.476	-0.166	-0.044
-225.698	-85.448	-0.123	-0.038
-224.684	-33.922	-0.294	0.159
-223.669	146.464	0.213	0.282
-222.655	-56.747	0.448	-0.195
-221.640	-110.696	0.369	-0.075
-220.625	800.000	0.043	-0.116
-219.611	-88.832	0.166	0.049
-218.596	-39.855	0.301	0.155
-217.582	170.044	-0.132	-0.185
-216.567	9.795	-0.158	-0.118
-215.552	-200.000	-0.013	0.060
-214.538	100.468	-0.043	-0.049
-213.523	64.546	-0.257	0.255
-212.509	-113.168	0.164	0.032
-211.494	-154.645	-0.216	0.014
-210.479	-132.981	-0.316	-0.040
-209.465	-200.000	-0.040	0.301
-208.450	20.392	0.236	-0.188
-207.436	-30.011	0.257	-0.144
-206.421	355.773	0.084	0.164
-205.406	123.353	0.244	-0.301
-204.392	297.365	0.081	0.147
-203.377	-200.000	0.048	0.222
-202.363	-91.837	0.138	0.038
-201.348	158.972	-0.091	-0.124
-200.333	412.035	-0.065	0.136
-199.319	190.989	0.014	-0.021
-198.304	-200.000	-0.008	-0.127
-197.290	-26.027	0.244	-0.142
-196.275	-165.099	0.282	0.012
-195.260	-185.855	0.188	0.003
-194.246	672.920	0.062	-0.159
-193.231	299.682	0.199	0.362
-192.217	-200.000	-0.010	0.287
-191.202	-113.570	0.010	0.002
-190.187	800.000	-0.056	-0.223
-189.173	-200.000	0.018	0.514
-188.158	800.000	-0.059	0.204
-187.144	-62.561	0.478	0.195
-186.129	-133.080	0.185	-0.023
-185.114	-111.428	-0.124	0.025
-184.100	251.926	-0.090	-0.151
-183.085	592.920	-0.111	0.270
-182.071	-106.297	0.028	0.006
-181.056	120.972	0.172	-0.210
-180.042	800.000	0.035	0.102
-179.027	175.429	-0.095	0.136
-178.012	800.000	-0.109	-0.350
-176.998	276.396	0.053	0.092
-175.983	800.000	-0.035	0.113
-174.969	-162.641	0.268	-0.013
-173.954	14.023	0.337	-0.258
-172.939	-48.382	-0.138	0.065
-171.925	-200.000	-0.016	0.326
-170.910	800.000	0.043	-0.118
-169.896	-200.000	-0.041	0.189
-168.881	635.997	-0.041	-0.103
-167.866	613.336	0.054	-0.132
-166.852	150.253	-0.152	0.202
-165.837	-120.404	0.284	-0.047
-164.823	-31.134	-0.220	-0.122
-163.808	260.560	0.055	0.093
-162.793	800.000	-0.008	0.022
-161.779	-200.000	-0.046	0.288
-160.764	-133.735	0.027	-0.003
-159.750	-147.817	0.117	-0.010
-158.735	-134.975	-0.169	0.020
-157.720	101.752	0.175	-0.200
-156.706	-81.526	0.077	-0.025
-155.691	-76.576	0.090	-0.031
-154.677	-200.000	-0.011	0.128
-153.662	-152.439	-0.313	0.022
-152.647	800.000	0.039	-0.124
-151.633	27.900	-0.114	-0.094
-150.618	156.916	0.067	-0.091
-149.604	422.725	0.160	0.337
-148.589	-38.014	0.133	0.069
-147.574	-123.333	-0.238	-0.037
-146.560	-48.860	0.175	-0.083
-145.545	-200.000	0.031	-0.230
-144.531	-61.437	-0.250	0.103
-143.516	-125.137	0.133	-0.020
-142.502	40.637	0.080	-0.071
-141.487	-91.651	-0.474	0.132
-140.472	16.649	0.385	0.299
-139.458	800.000	0.040	-0.136
-138.443	256.639	-0.187	0.315
-137.429	-168.389	0.036	0.001
-136.414	-200.000	0.019	-0.118
-135.399	5.118	-0.077	0.056
-134.385	63.243	0.035	-0.035
-133.370	-12.961	-0.151	0.097
-132.356	98.216	0.158	0.179
-131.341	88.636	-0.055	-0.060
-130.326	800.000	0.037	0.129
-129.312	-68.524	0.115	-0.044
-128.297	742.974	-0.126	-0.333
-127.283	-74.883	-0.213	-0.075
-126.268	682.483	0.092	-0.234
-125.253	289.323	0.058	0.104
-124.239	-3.065	0.317	-0.217
-123.224	-200.000	0.037	-0.296
-122.210	-200.000	0.063	-0.353
-121.195	-200.000	0.029	-0.142
-120.180	-168.826	0.111	0.004
-119.166	50.956	0.120	-0.111
-118.151	-95.079	-0.172	0.045
-117.137	-101.891	-0.166	-0.039
-116.122	-78.237	-0.112	-0.038
-115.107	-0.557	0.130	0.090
-114.093	168.035	0.157	0.220
-113.078	13.949	0.215	-0.164
-112.064	-14.890	0.095	0.060
-111.049	-178.276	0.392	-0.009
-110.034	-200.000	-0.001	0.179
-109.020	-131.660	-0.231	0.030
-108.005	121.993	0.046	-0.057
-106.991	-200.000	0.010	0.126
-105.976	-12.416	-0.080	0.051
-104.962	419.196	-0.032	-0.068
-103.947	-200.000	-0.002	-0.299
-102.932	25.594	0.305	-0.249
-101.918	-105.778	-0.095	-0.021
-100.903	-200.000	-0.012	-0.087
-99.889	-113.478	0.440	0.084
-98.874	80.504	-0.127	-0.134
-97.859	800.000	0.070	-0.277
-96.845	291.823	0.145	0.259
-95.830	59.170	0.173	0.167
-94.816	5.502	0.188	-0.136
-93.801	135.760	-0.124	-0.159
-92.786	16.443	0.171	0.132
-91.772	78.585	0.187	-0.196
-90.757	35.989	-0.261	-0.225
-89.743	-97.406	0.072	0.018
-88.728	79.683	0.022	0.023
-87.713	-32.504	0.161	-0.088
-86.699	163.827	-0.237	0.327
-85.684	300.144	0.174	0.314
-84.670	-130.349	-0.096	-0.013
-83.655	-92.878	0.283	-0.077
-82.640	-200.000	0.004	-0.038
-81.626	-200.000	0.374	0.000
-80.611	-160.244	0.089	-0.005
-79.597	-150.664	0.176	0.013
-78.582	139.518	-0.090	0.116
-77.567	-162.208	-0.319	-0.016
-76.553	74.760	0.142	0.146
-75.538	-200.000	-0.041	-0.297
-74.524	-87.154	0.180	0.054
-73.509	-64.393	0.261	0.104
-72.494	-119.435	-0.239	0.041
-71.480	800.000	-0.068	-0.204
-70.465	-120.209	-0.279	-0.047
-69.451	-67.380	-0.178	0.069
-68.436	-105.623	-0.118	0.026
-67.422	-120.919	-0.027	-0.005
-66.407	-76.745	-0.121	0.042
-65.392	-200.000	0.004	-0.179
-64.378	-6.253	0.134	-0.089
-63.363	53.280	0.208	0.195
-62.349	-200.000	0.057	-0.330
-61.334	90.520	-0.964	-1.057
-60.319	58.441	0.453	0.435
-59.305	-200.000	-0.232	-1.200
-58.290	502.897	0.567	1.284
-57.276	271.153	0.903	1.556
-56.261	-200.000	112.692	660.251
-55.246	542.620	1518.180	3544.353
-54.232	178.100	2690.288	3842.338
-53.217	111.939	2171.871	2567.808
-52.203	39.285	1700.065	1489.504
-51.188	31.878	1517.977	1279.600
-50.173	29.435	1493.693	1242.648
-49.159	52.548	1551.176	1449.684
-48.144	52.252	1567.485	1462.840
-47.130	31.957	1522.607	1283.843
-46.115	28.921	1507.631	1250.555
-45.100	28.660	1504.456	1246.100
-44.086	28.687	1502.643	1244.732
-43.071	28.715	1500.453	1243.054
-42.057	28.502	1499.040	1240.394
-41.042	28.708	1497.147	1240.171
-40.027	28.595	1496.371	1238.717
-39.013	28.604	1494.332	1237.041
-37.998	28.524	1493.719	1235.943
-36.984	28.516	1492.451	1234.790
-35.969	28.647	1490.521	1234.030
-34.954	28.651	1489.240	1232.946
-33.940	28.613	1488.200	1231.778
-32.925	28.605	1486.982	1230.670
-31.911	28.673	1485.407	1229.774
-30.896	28.739	1484.007	1229.009
-29.881	28.727	1482.469	1227.606
-28.867	28.704	1481.170	1226.324
-27.852	28.633	1480.064	1224.890
-26.838	28.642	1479.193	1224.178
-25.823	28.703	1477.320	1222.985
-24.809	28.708	1475.997	1221.874
-23.794	28.714	1474.374	1220.524
-22.779	28.694	1473.195	1219.364
-21.765	28.618	1472.915	1218.580
-20.750	28.724	1471.448	1218.022
-19.736	28.600	1470.464	1216.338
-18.721	28.626	1469.267	1215.473
-17.706	28.559	1468.245	1214.134
-16.692	28.666	1466.895	1213.678
-15.677	28.536	1466.239	1212.227
-14.663	28.611	1464.994	1211.648
-13.648	28.569	1464.079	1210.564
-12.633	28.552	1463.856	1210.215
-11.619	28.681	1461.935	1209.428
-10.604	28.605	1460.944	1208.063
-9.590	28.569	1460.549	1207.450
-8.575	28.600	1459.478	1206.720
-7.560	28.657	1458.479	1206.224
-6.546	28.624	1457.608	1205.237
-5.531	28.594	1457.304	1204.741
-4.517	28.603	1455.738	1203.456
-3.502	28.561	1454.852	1202.403
-2.487	28.580	1454.023	1201.796
-1.473	28.535	1452.984	1200.595
-0.458	28.620	1451.030	1199.486
0.556	28.883	1441.489	1187.727
1.571	25.770	1416.058	1146.879
2.586	21.939	1353.318	1072.596
3.600	20.212	1270.303	996.796
4.615	18.920	1225.734	954.572
5.629	16.238	1169.884	896.763
6.644	9.301	1088.284	799.738
7.659	3.949	1050.611	746.234
8.673	3.203	1044.858	738.501
9.688	3.066	1041.789	735.613
10.702	3.173	1040.135	734.891
11.717	3.137	1038.660	733.613
12.731	4.990	1039.727	743.138
13.746	11.942	1049.439	783.360
14.761	18.367	1058.045	820.599
15.775	19.983	1059.147	829.129
16.790	19.494	1057.321	825.285
17.804	18.514	1055.428	819.054
18.819	17.575	1053.240	812.809
19.834	17.176	1051.799	809.722
20.848	17.010	1051.212	808.406
21.863	16.917	1050.824	807.594
22.877	16.733	1050.023	806.033
23.892	16.489	1049.214	804.176
24.907	16.443	1048.437	803.294
25.921	16.440	1047.479	802.475
26.936	16.363	1046.940	801.625
27.950	16.437	1045.730	800.979
28.965	16.416	1044.804	800.097
29.980	16.761	1042.795	800.119
30.994	16.696	1042.349	799.398
32.009	16.873	1041.934	799.843
33.023	16.953	1041.164	799.558
34.038	16.954	1040.224	798.774
35.053	16.686	1039.570	796.940
36.067	16.727	1038.216	796.021
37.082	16.602	1037.678	794.951
38.096	16.597	1037.064	794.390
39.111	16.755	1035.933	794.192
40.126	16.759	1035.082	793.489
41.140	16.671	1034.161	792.299
42.155	16.418	1032.842	790.035
43.169	16.206	1031.969	788.307
44.184	16.288	1030.960	787.850
45.199	16.342	1029.525	786.937
46.213	16.317	1028.666	786.095
47.228	16.381	1028.305	786.046
48.242	16.544	1026.604	785.434
49.257	16.596	1026.535	785.554
50.271	16.572	1025.495	784.577
51.286	16.711	1024.072	784.063
52.301	16.610	1023.801	783.318
53.315	16.561	1022.905	782.335
54.330	16.612	1021.817	781.670
55.344	16.557	1020.684	780.482
56.359	16.431	1019.877	779.215
57.374	16.388	1019.332	778.529
58.388	16.455	1018.586	778.200
59.403	16.207	1017.304	776.010
60.417	16.229	1016.516	775.443
61.432	16.102	1016.397	774.702
62.447	16.224	1015.278	774.337
63.461	16.131	1014.520	773.265
64.476	15.957	1014.129	772.098
65.490	16.165	1012.413	771.676
66.505	16.151	1011.786	771.066
67.520	16.152	1011.270	770.612
68.534	16.170	1010.214	769.819
69.549	16.135	1009.259	768.867
70.563	16.075	1008.828	768.193
71.578	16.139	1007.863	767.681
72.593	15.955	1007.099	766.198
73.607	15.915	1006.140	765.218
74.622	15.918	1005.355	764.568
75.636	15.883	1004.545	763.724
76.651	16.030	1003.753	763.722
77.666	16.067	1002.778	763.080
78.680	16.191	1001.657	762.718
79.695	16.071	1001.597	762.064
80.709	16.213	1000.563	761.850
81.724	16.102	1000.457	761.201
82.739	16.236	999.824	761.255
83.753	16.241	999.009	760.592
84.768	16.563	998.037	761.233
85.782	16.759	997.333	761.510
86.797	16.758	997.428	761.509
87.812	16.738	996.061	760.309
88.826	16.764	994.815	759.406
89.841	16.712	994.130	758.583
90.855	16.725	993.381	758.004
91.870	16.735	992.800	757.538
92.884	16.833	992.156	757.416
93.899	16.903	991.406	757.092
94.914	16.794	990.822	756.093
95.928	16.843	990.097	755.688
96.943	16.901	989.564	755.476
97.957	16.870	988.487	754.449
98.972	16.609	987.737	752.646
99.987	16.720	986.892	752.433
101.001	16.804	986.141	752.164
102.016	16.878	985.258	751.753
103.030	16.746	984.328	750.391
104.045	16.799	983.079	749.610
105.060	16.722	982.566	748.810
106.074	16.685	981.525	747.786
107.089	16.371	980.677	745.689
108.103	16.142	979.783	743.932
109.118	16.176	978.293	742.888
110.133	16.243	977.407	742.441
111.147	16.174	976.831	741.633
112.162	16.118	976.215	740.858
113.176	16.164	975.072	740.124
114.191	16.197	974.297	739.614
115.206	16.396	973.453	739.781
116.220	16.357	972.787	739.040
117.235	16.325	971.886	738.151
118.249	16.298	971.189	737.437
119.264	16.217	970.359	736.387
120.279	16.203	969.182	735.369
121.293	16.086	968.733	734.452
122.308	16.039	967.902	733.553
123.322	16.176	966.637	733.125
124.337	16.018	965.853	731.777
125.352	16.029	964.656	730.858
126.366	15.993	963.574	729.814
127.381	16.057	962.180	728.973
128.395	15.979	961.603	728.134
129.410	16.033	960.463	727.437
130.424	15.931	960.185	726.725
131.439	16.181	958.745	726.648
132.454	16.187	958.363	726.318
133.468	16.291	957.489	726.041
134.483	16.114	957.309	725.077
135.497	16.401	956.044	725.288
136.512	16.446	955.269	724.829
137.527	16.258	954.708	723.533
138.541	16.323	954.189	723.354
139.556	16.360	953.166	722.671
140.570	16.402	952.607	722.363
141.585	16.532	951.981	722.379
142.600	16.689	951.155	722.360
143.614	16.652	950.428	721.588
144.629	16.695	949.772	721.208
145.643	16.822	948.958	721.065
146.658	16.788	948.178	720.267
147.673	16.558	947.369	718.610
148.687	16.448	946.145	717.151
149.702	16.541	945.120	716.705
150.716	16.269	944.626	715.114
151.731	16.385	943.303	714.539
152.746	16.387	942.614	713.963
153.760	16.375	942.076	713.442
154.775	16.319	941.619	712.797
155.789	16.671	940.099	713.068
156.804	16.529	939.803	712.183
157.819	16.585	938.876	711.649
158.833	16.624	938.153	711.205
159.848	16.739	937.863	711.403
160.862	16.852	937.544	711.575
161.877	16.810	936.583	710.604
162.892	16.472	935.532	708.329
163.906	16.460	933.905	706.985
164.921	16.394	933.309	706.193
165.935	16.417	932.332	705.488
166.950	16.495	931.096	704.814
167.964	16.456	930.470	704.118
168.979	16.569	929.887	704.086
169.994	16.513	928.567	702.790
171.008	16.453	928.069	702.103
172.023	16.470	927.219	701.469
173.037	16.574	926.521	701.308
174.052	16.788	925.725	701.529
175.067	16.743	925.362	701.008
176.081	16.651	924.239	699.715
177.096	16.439	923.001	697.839
178.110	16.353	922.460	697.012
179.125	16.490	921.531	696.816
180.140	16.511	921.100	696.515
181.154	16.506	920.385	695.889
182.169	16.675	919.901	696.157
183.183	16.641	919.256	695.470
184.198	16.910	918.548	695.975
185.213	16.833	918.090	695.251
186.227	16.867	917.456	694.849
187.242	16.867	916.848	694.326
188.256	16.969	916.040	694.073
189.271	17.020	915.486	693.797
190.286	17.098	914.778	693.519
191.300	16.659	914.366	691.351
192.315	16.451	912.799	689.257
193.329	16.284	912.052	687.952
194.344	16.347	911.104	687.432
195.359	16.425	910.958	687.578
196.373	16.686	910.687	688.375
197.388	16.780	910.028	688.199
198.402	16.810	909.929	688.186
199.417	16.946	909.707	688.509
200.432	17.118	908.688	688.373
201.446	17.354	908.303	688.977
202.461	17.446	907.997	689.057
203.475	17.388	907.617	688.474
204.490	17.418	906.811	687.920
205.504	17.151	905.738	685.971
206.519	17.046	904.987	684.913
207.534	16.857	904.461	683.693
208.548	16.917	903.360	683.043
209.563	17.085	902.837	683.263
210.577	17.085	902.085	682.633
211.592	17.008	901.835	682.075
212.607	17.041	901.599	681.967
213.621	17.231	901.065	682.268
214.636	17.203	899.908	681.220
215.650	17.180	899.295	680.601
216.665	17.151	899.108	680.286
217.680	17.325	898.300	680.311
218.694	17.384	898.055	680.299
219.709	17.478	897.087	679.880
220.723	17.405	896.513	679.095
221.738	17.314	895.888	678.200
222.753	17.337	894.954	677.524
223.767	17.267	894.544	676.875
224.782	17.292	893.884	676.416
225.796	17.466	893.085	676.441
226.811	17.493	892.181	675.804
227.826	17.476	891.538	675.190
228.840	17.578	890.665	674.873
229.855	17.400	890.611	674.066
230.869	17.289	889.421	672.669
231.884	17.322	888.952	672.386
232.899	17.292	888.117	671.573
233.913	17.180	887.790	670.826
234.928	17.219	886.680	670.079
235.942	17.065	886.015	668.911
236.957	17.243	885.048	668.822
237.972	17.198	884.540	668.202
238.986	17.200	884.009	667.749
240.001	17.184	883.636	667.349
241.015	17.093	882.924	666.393
242.030	17.293	882.223	666.589
243.045	17.299	881.875	666.290
244.059	17.395	881.117	666.036
245.074	17.381	880.358	665.349
246.088	17.339	879.854	664.745
247.103	17.466	879.228	664.710
248.117	17.680	878.515	664.944
249.132	17.724	878.494	665.043
250.147	17.848	878.070	665.146
251.161	18.098	877.492	665.623
252.176	18.038	877.036	664.984
253.190	18.156	876.149	664.711
254.205	18.065	875.720	663.973
255.220	18.040	874.879	663.180
256.234	18.132	874.328	663.061
257.249	18.189	873.618	662.684
258.263	18.291	872.999	662.553
259.278	18.092	872.643	661.452
260.293	18.074	872.043	660.871
261.307	18.204	871.466	660.876
262.322	18.191	870.861	660.310
263.336	18.225	870.500	660.109
264.351	18.283	869.918	659.833
265.366	18.287	869.340	659.350
266.380	18.390	868.398	658.974
267.395	18.302	868.164	658.401
268.409	18.221	867.044	657.182
269.424	18.221	866.192	656.476
270.439	18.111	865.832	655.723
271.453	18.031	865.151	654.844
272.468	18.122	864.076	654.319
273.482	18.132	863.467	653.841
274.497	18.211	862.870	653.631
275.512	17.935	862.652	652.353
276.526	18.168	861.284	652.149
277.541	18.089	861.073	651.632
278.555	18.249	860.586	651.817
279.570	18.213	860.302	651.406
280.585	18.395	859.498	651.432
281.599	18.472	859.404	651.595
282.614	18.388	858.214	650.316
283.628	18.218	857.583	649.137
284.643	18.024	857.638	648.385
285.657	18.246	856.740	648.490
286.672	18.271	855.784	647.801
287.687	18.230	855.769	647.578
288.701	18.371	855.091	647.540
289.716	18.345	854.914	647.250
290.730	18.362	853.928	646.513
291.745	18.281	853.232	645.622
292.760	18.470	852.519	645.738
293.774	18.408	852.106	645.136
294.789	18.514	851.889	645.312
295.803	18.478	850.840	644.326
296.818	18.365	850.173	643.338
297.833	18.387	849.392	642.774
298.847	18.462	848.803	642.550
299.862	18.458	848.109	641.956
300.876	18.462	847.572	641.508
301.891	18.484	847.424	641.421
302.906	18.663	846.565	641.382
303.920	18.633	846.636	641.267
304.935	18.689	845.751	640.749
305.949	18.971	845.091	641.244
306.964	18.872	844.418	640.308
307.979	18.559	844.078	638.826
308.993	18.667	843.469	638.710
310.008	18.721	842.684	638.260
311.022	18.840	842.057	638.174
312.037	18.823	841.468	637.607
313.052	18.654	841.236	636.746
314.066	18.532	840.552	635.721
315.081	18.488	839.771	634.913
316.095	18.426	838.691	633.808
317.110	18.544	838.275	633.875
318.125	18.542	838.039	633.633
319.139	18.492	837.608	633.065
320.154	18.490	836.979	632.526
321.168	18.544	836.145	632.042
322.183	18.589	836.005	632.046
323.197	18.619	835.607	631.798
324.212	18.727	834.986	631.672
325.227	18.831	834.431	631.578
326.241	18.630	833.979	630.439
327.256	18.670	833.146	629.903
328.270	18.512	832.950	629.118
329.285	18.655	832.329	629.118
330.300	18.661	831.210	628.238
331.314	18.655	830.455	627.589
332.329	18.603	830.354	627.269
333.343	18.746	829.739	627.270
334.358	18.821	829.451	627.270
335.373	18.858	828.624	626.723
336.387	18.882	828.253	626.475
337.402	18.940	827.919	626.381
338.416	19.033	827.597	626.418
339.431	19.030	826.784	625.736
340.446	19.234	826.266	626.031
341.460	19.293	825.591	625.678
342.475	19.208	825.239	625.049
343.489	19.314	824.674	624.948
344.504	19.331	824.447	624.783
345.519	19.288	823.907	624.162
346.533	19.480	823.170	624.243
347.548	19.447	822.746	623.747
348.562	19.281	821.880	622.439
349.577	19.114	821.392	621.407
350.592	19.099	820.726	620.796
351.606	18.906	820.630	619.974
352.621	18.858	819.994	619.265
353.635	19.025	819.356	619.330
354.650	18.993	819.068	618.942
355.665	19.156	819.036	619.448
356.679	19.187	818.646	619.212
357.694	19.048	818.062	618.213
358.708	19.375	816.828	618.400
359.723	19.232	816.064	617.256
360.738	19.245	815.941	617.154
361.752	19.242	815.486	616.744
362.767	19.235	815.473	616.653
363.781	19.404	814.640	616.576
364.796	19.420	814.615	616.558
365.810	19.456	814.211	616.325
366.825	19.486	814.102	616.297
367.840	19.756	813.657	616.868
368.854	19.767	812.927	616.299
369.869	19.684	812.465	615.598
370.883	19.526	811.930	614.576
371.898	19.555	811.154	614.040
372.913	19.708	810.626	614.127
373.927	19.855	809.931	614.071
374.942	19.571	809.531	612.703
375.956	19.595	809.067	612.384
376.971	19.742	808.366	612.321
377.986	19.840	807.649	612.069
379.000	19.734	807.733	611.704
380.015	19.987	807.218	612.155
381.029	19.925	806.233	611.134
382.044	19.692	806.105	610.160
383.059	19.883	805.164	610.066
384.073	19.841	804.743	609.547
385.088	19.864	804.243	609.193
386.102	19.762	803.674	608.351
387.117	19.619	803.102	607.361
388.132	19.576	802.692	606.846
389.146	19.700	801.903	606.631
390.161	19.762	801.782	606.704
391.175	19.773	801.490	606.468
392.190	19.816	801.298	606.420
393.205	19.723	800.708	605.594
394.219	19.633	800.103	604.767
395.234	19.723	799.451	604.537
396.248	19.657	798.786	603.748
397.263	19.671	798.233	603.325
398.278	19.484	798.008	602.450
399.292	19.637	797.506	602.552
400.307	19.538	797.207	601.927
401.321	19.592	796.900	601.831
402.336	19.617	795.950	601.147
403.350	19.561	795.937	600.888
404.365	19.668	795.351	600.766
405.380	19.810	794.896	600.862
406.394	19.980	794.446	601.060
407.409	19.958	794.262	600.788
408.423	20.060	794.120	600.983
409.438	20.148	793.412	600.701
410.453	20.194	792.904	600.419
411.467	20.176	792.713	600.161
412.482	20.248	792.295	600.040
413.496	20.240	791.679	599.493
414.511	20.355	791.372	599.603
415.526	20.474	791.058	599.724
416.540	20.380	790.553	598.963
417.555	20.356	790.156	598.529
418.569	20.342	789.663	598.053
419.584	20.291	789.240	597.503
420.599	20.266	788.734	596.983
421.613	161.067	1371.077	1795.628
422.628	139.443	1455.918	1795.732
