DTS Sentinel unit serial number:	SN413079Multiplexer serial number:	ORYXHardware model number:	OX4-SRSoftware version number:	ORYX F/W v4.00 Oryx Data Collector v3.7.2.0data status	okinstallation	princeton_trtdifferential loss correction	single-endedforward channel	channel 3reverse channel	N/Adate	2019/09/15time	05:40:35forward acquisition time	60.00reverse acquisition time	0.00gamma	496.2192k internal	0.2325k external	0.2325temperature offset calibration	0.9971default loss term (dB/km)	0.3790temperature slope calibration	1.0000multiplexer offset coefficient	1.0000multiplexer slope coefficient	1.0000fibre end	0.00T internal ref (°C)	30.62T ext. ref 1 (°C)	4.77T ext. ref 2 (°C)	25.79length (m)	temperature (°C)	Stokes	anti-Stokes-747.200	-174.798	0.194	0.006
-746.185	-102.774	-0.272	0.065
-745.171	-138.074	-0.388	0.043
-744.156	326.369	-0.081	0.156
-743.142	800.000	-0.046	0.180
-742.127	-47.113	-0.206	0.102
-741.112	-150.290	-0.292	0.023
-740.098	-200.000	-0.009	0.143
-739.083	181.789	0.247	-0.367
-738.069	-147.090	-0.176	-0.015
-737.054	800.000	0.052	-0.172
-736.039	-67.604	-0.062	0.025
-735.025	51.530	0.158	0.151
-734.010	-112.192	-0.169	0.034
-732.996	-200.000	-0.029	-0.345
-731.981	800.000	-0.049	-0.178
-730.966	253.011	-0.161	-0.277
-729.952	34.349	0.069	-0.060
-728.937	800.000	0.027	-0.093
-727.923	133.711	-0.082	-0.107
-726.908	-65.925	0.115	0.046
-725.894	268.065	-0.155	0.274
-724.879	748.600	0.071	-0.192
-723.864	58.608	-0.252	-0.249
-722.850	61.730	0.152	0.153
-721.835	-53.675	-0.298	0.137
-720.821	-66.045	-0.192	-0.077
-719.806	410.992	-0.083	0.177
-718.791	8.034	-0.262	0.198
-717.777	315.569	0.149	-0.284
-716.762	-37.709	-0.113	0.060
-715.748	44.740	-0.103	0.095
-714.733	-6.964	0.039	0.027
-713.718	-90.199	-0.106	-0.031
-712.704	-200.000	0.044	-0.210
-711.689	-120.932	0.161	0.027
-710.675	-140.626	-0.421	0.044
-709.660	145.989	-0.175	0.236
-708.645	-38.076	0.199	-0.106
-707.631	-100.024	0.354	-0.089
-706.616	-200.000	0.019	-0.216
-705.602	-48.261	-0.147	0.071
-704.587	29.738	-0.215	-0.184
-703.572	-33.774	0.259	-0.144
-702.558	-200.000	0.062	0.345
-701.543	-19.663	0.106	-0.066
-700.529	133.664	-0.039	-0.051
-699.514	-200.000	-0.020	0.112
-698.499	112.021	-0.083	-0.101
-697.485	-113.843	-0.194	-0.038
-696.470	494.023	0.192	-0.444
-695.456	-59.680	-0.171	0.074
-694.441	-200.000	0.023	-0.477
-693.426	-200.000	0.025	0.164
-692.412	-41.130	-0.152	0.079
-691.397	-41.490	-0.219	-0.113
-690.383	-64.336	-0.323	-0.133
-689.368	-65.738	-0.143	-0.058
-688.354	800.000	-0.061	-0.213
-687.339	544.487	0.071	-0.171
-686.324	-200.000	0.001	-0.058
-685.310	-200.000	0.071	-0.441
-684.295	160.254	0.053	-0.074
-683.281	-66.925	-0.138	0.055
-682.266	-149.136	-0.199	0.016
-681.251	222.940	0.131	-0.213
-680.237	-200.000	0.002	0.219
-679.222	114.545	-0.241	-0.296
-678.208	-56.495	-0.011	0.005
-677.193	-68.580	0.173	0.068
-676.178	-200.000	-0.069	-0.314
-675.164	-200.000	-0.040	-0.241
-674.149	-43.025	0.151	-0.077
-673.135	-200.000	0.034	0.206
-672.120	648.223	-0.035	0.091
-671.105	613.535	-0.063	0.159
-670.091	-200.000	0.076	0.335
-669.076	-41.769	0.167	0.086
-668.062	-153.047	-0.151	0.011
-667.047	800.000	0.092	-0.290
-666.032	21.817	0.121	0.099
-665.018	-200.000	0.029	-0.221
-664.003	226.464	0.013	-0.022
-662.989	800.000	0.039	-0.111
-661.974	142.485	0.177	-0.236
-660.959	215.663	-0.100	-0.160
-659.945	-18.081	0.174	-0.109
-658.930	800.000	-0.045	0.136
-657.916	-60.573	-0.482	-0.206
-656.901	-42.464	-0.182	-0.093
-655.886	-24.016	0.366	0.220
-654.872	271.662	-0.160	0.283
-653.857	-106.240	-0.177	0.040
-652.843	245.069	-0.140	0.237
-651.828	-85.470	0.196	-0.061
-650.814	-200.000	0.053	-0.310
-649.799	-46.916	-0.182	-0.089
-648.784	-200.000	-0.006	0.195
-647.770	800.000	0.057	-0.186
-646.755	64.526	-0.319	0.324
-645.741	2.619	-0.176	0.128
-644.726	-0.091	-0.291	-0.209
-643.711	10.745	0.145	-0.111
-642.697	-200.000	-0.026	-0.282
-641.682	800.000	-0.150	0.438
-640.668	28.976	-0.189	-0.161
-639.653	82.106	0.062	-0.068
-638.638	-200.000	-0.034	0.172
-637.624	225.764	-0.204	-0.333
-636.609	-168.908	-0.038	0.001
-635.595	-115.801	-0.091	-0.017
-634.580	776.234	-0.121	-0.331
-633.565	208.984	0.053	0.083
-632.551	-200.000	-0.056	0.271
-631.536	94.971	-0.113	-0.129
-630.522	-4.581	0.112	-0.077
-629.507	34.351	-0.093	-0.081
-628.492	800.000	-0.069	-0.301
-627.478	59.822	0.081	-0.080
-626.463	800.000	0.059	0.223
-625.449	105.118	0.206	-0.244
-624.434	-121.051	0.144	-0.024
-623.419	253.504	-0.137	0.234
-622.405	-101.343	0.295	0.072
-621.390	-200.000	-0.014	0.161
-620.376	28.121	0.149	-0.127
-619.361	88.266	0.266	0.297
-618.346	63.522	-0.136	-0.137
-617.332	-81.346	-0.159	-0.053
-616.317	-180.076	-0.197	-0.004
-615.303	-55.782	0.208	-0.093
-614.288	774.586	0.024	0.065
-613.273	-200.000	0.095	-0.435
-612.259	178.630	-0.129	0.190
-611.244	-200.000	0.054	-0.257
-610.230	-83.903	0.185	0.059
-609.215	696.697	-0.093	0.244
-608.201	800.000	0.057	-0.162
-607.186	-71.481	-0.137	0.052
-606.171	800.000	0.048	0.169
-605.157	693.326	-0.066	0.175
-604.142	-77.110	-0.121	-0.042
-603.128	66.741	-0.108	0.111
-602.113	-200.000	-0.008	-0.077
-601.098	-128.141	0.077	0.011
-600.084	-56.345	-0.612	-0.273
-599.069	685.795	-0.147	-0.385
-598.055	800.000	-0.061	0.191
-597.040	8.369	0.164	0.124
-596.025	302.216	-0.100	-0.185
-595.011	268.204	-0.052	-0.092
-593.996	-200.000	-0.026	-0.353
-592.982	-200.000	0.023	-0.192
-591.967	312.415	0.114	0.215
-590.952	-12.211	-0.198	0.130
-589.938	157.122	0.053	-0.074
-588.923	-52.277	0.292	0.136
-587.909	800.000	0.039	-0.112
-586.894	800.000	-0.099	-0.404
-585.879	-18.949	-0.265	-0.166
-584.865	-200.000	-0.040	-0.235
-583.850	-43.735	-0.175	-0.088
-582.836	-200.000	-0.015	0.248
-581.821	400.731	0.074	-0.155
-580.806	-162.412	-0.105	0.005
-579.792	-200.000	0.016	0.085
-578.777	159.549	0.060	-0.083
-577.763	-17.612	0.081	-0.051
-576.748	80.658	0.225	0.243
-575.733	211.697	-0.068	-0.107
-574.719	-30.970	0.141	-0.080
-573.704	-7.608	-0.434	0.294
-572.690	-40.568	-0.328	0.170
-571.675	78.171	-0.395	0.423
-570.661	65.682	0.087	0.088
-569.646	37.080	-0.366	0.324
-568.631	405.945	0.152	0.322
-567.617	572.295	0.032	0.079
-566.602	-124.528	-0.434	0.068
-565.588	-149.399	-0.486	0.039
-564.573	100.087	-0.119	-0.139
-563.558	-100.065	0.104	0.026
-562.544	-83.837	-0.414	0.132
-561.529	127.158	-0.128	-0.162
-560.515	-200.000	0.007	0.277
-559.500	-7.183	-0.253	-0.172
-558.485	58.195	0.200	-0.196
-557.471	117.484	0.134	0.165
-556.456	121.180	0.067	-0.083
-555.442	-160.541	-0.232	0.012
-554.427	187.286	0.184	0.275
-553.412	70.159	0.119	-0.123
-552.398	-119.825	-0.241	0.042
-551.383	-9.439	0.425	0.284
-550.369	800.000	0.148	-0.440
-549.354	-99.593	0.053	0.013
-548.339	115.968	-0.231	-0.283
-547.325	170.513	0.123	0.176
-546.310	624.505	-0.079	0.200
-545.296	221.976	-0.071	0.114
-544.281	-200.000	0.014	0.133
-543.266	-200.000	0.047	0.286
-542.252	1.973	-0.065	0.047
-541.237	-34.525	-0.217	-0.119
-540.223	176.976	-0.175	-0.256
-539.208	512.781	0.028	0.066
-538.193	400.490	0.014	0.030
-537.179	-130.385	-0.158	-0.021
-536.164	329.854	-0.070	-0.134
-535.150	-5.820	-0.116	0.080
-534.135	-150.260	0.349	-0.027
-533.121	-200.000	-0.025	-0.318
-532.106	800.000	-0.059	-0.222
-531.091	800.000	0.097	0.289
-530.077	142.919	0.106	0.142
-529.062	-68.059	0.198	-0.077
-528.048	108.417	-0.133	-0.159
-527.033	348.436	-0.278	-0.549
-526.018	417.352	-0.146	-0.311
-525.004	-139.740	0.079	0.008
-523.989	103.730	0.115	0.135
-522.975	-101.040	-0.144	0.035
-521.960	176.894	-0.117	0.170
-520.945	-10.706	-0.170	0.112
-519.931	-139.682	0.141	0.015
-518.916	-82.070	-0.196	0.064
-517.902	113.688	-0.284	0.345
-516.887	800.000	0.045	0.176
-515.872	13.922	0.159	0.124
-514.858	57.084	-0.179	-0.175
-513.843	-96.002	-0.205	-0.055
-512.829	-200.000	0.023	-0.209
-511.814	800.000	0.077	-0.219
-510.799	-53.048	-0.362	-0.166
-509.785	-200.000	-0.015	0.083
-508.770	157.175	0.133	-0.185
-507.756	-30.943	0.147	-0.083
-506.741	13.730	0.349	0.271
-505.726	800.000	0.090	0.262
-504.712	-67.480	0.203	-0.080
-503.697	34.984	-0.203	0.177
-502.683	-200.000	0.028	0.152
-501.668	7.196	-0.196	-0.146
-500.653	-16.139	0.350	-0.223
-499.639	-120.473	-0.141	0.024
-498.624	-75.416	0.061	-0.022
-497.610	-117.239	0.182	0.033
-496.595	250.085	0.122	-0.207
-495.581	18.677	-0.124	0.099
-494.566	-51.514	0.276	0.129
-493.551	-200.000	-0.004	0.386
-492.537	-129.820	0.366	0.050
-491.522	-200.000	-0.039	-0.193
-490.508	-4.636	0.148	-0.102
-489.493	30.906	-0.113	-0.097
-488.478	-200.000	-0.003	-0.305
-487.464	-142.130	-0.093	0.009
-486.449	259.753	0.137	-0.237
-485.435	800.000	-0.084	-0.294
-484.420	-170.390	-0.262	0.009
-483.405	159.413	0.132	0.184
-482.391	800.000	0.030	-0.120
-481.376	289.011	-0.025	0.046
-480.362	-80.426	0.239	-0.080
-479.347	79.539	-0.155	-0.167
-478.332	800.000	0.042	-0.123
-477.318	-200.000	0.002	-0.072
-476.303	800.000	-0.010	0.030
-475.289	-15.282	0.122	0.078
-474.274	800.000	-0.073	-0.219
-473.259	-180.824	-0.152	-0.003
-472.245	-200.000	0.039	-0.183
-471.230	-120.697	-0.428	-0.072
-470.216	694.649	-0.119	-0.311
-469.201	-56.724	0.281	-0.124
-468.186	259.644	0.140	0.242
-467.172	-129.919	0.147	0.020
-466.157	-200.000	0.052	-0.312
-465.143	297.047	-0.186	-0.340
-464.128	177.430	0.090	0.131
-463.113	113.995	-0.186	-0.226
-462.099	-200.000	0.051	0.261
-461.084	299.187	0.104	-0.191
-460.070	528.313	0.101	0.238
-459.055	-200.000	-0.058	0.296
-458.040	-60.289	0.136	-0.058
-457.026	-200.000	-0.001	0.049
-456.011	-21.319	-0.309	0.188
-454.997	343.362	-0.065	-0.126
-453.982	22.131	0.179	0.146
-452.968	252.709	-0.108	0.184
-451.953	594.251	0.037	-0.091
-450.938	69.618	0.126	-0.129
-449.924	-139.083	0.514	-0.056
-448.909	-200.000	-0.014	-0.076
-447.895	252.304	0.058	-0.099
-446.880	-200.000	0.082	0.406
-445.865	-174.592	0.098	0.003
-444.851	715.209	0.096	-0.254
-443.836	-200.000	-0.015	0.082
-442.822	800.000	-0.046	0.199
-441.807	-200.000	-0.013	-0.103
-440.792	-190.123	-0.070	0.001
-439.778	-200.000	0.040	-0.256
-438.763	-200.000	0.019	-0.182
-437.749	472.441	0.100	-0.225
-436.734	-200.000	0.011	-0.136
-435.719	463.692	-0.241	-0.537
-434.705	-23.087	0.026	0.016
-433.690	-165.908	-0.157	-0.007
-432.676	-167.342	0.195	-0.008
-431.661	-16.565	0.197	0.125
-430.646	6.415	0.357	-0.264
-429.632	800.000	-0.012	0.052
-428.617	100.991	-0.130	0.151
-427.603	-87.097	-0.066	0.020
-426.588	-200.000	0.039	0.278
-425.573	-123.593	0.170	0.027
-424.559	-88.920	0.360	0.106
-423.544	-84.260	0.283	-0.089
-422.530	-54.947	-0.399	-0.179
-421.515	562.833	0.075	0.181
-420.500	128.439	0.127	-0.161
-419.486	-57.326	0.146	-0.064
-418.471	-88.931	0.339	-0.100
-417.457	-143.473	0.197	-0.019
-416.442	561.290	0.107	-0.257
-415.428	-116.926	0.092	0.017
-414.413	247.161	0.264	-0.444
-413.398	-172.306	-0.318	-0.010
-412.384	-121.460	-0.178	0.030
-411.369	-55.747	0.185	0.082
-410.355	-190.000	0.355	-0.004
-409.340	70.464	-0.100	-0.103
-408.325	-200.000	-0.016	-0.333
-407.311	170.644	-0.128	0.183
-406.296	-74.170	-0.192	0.069
-405.282	416.981	-0.025	0.053
-404.267	137.097	0.190	-0.247
-403.252	-200.000	-0.026	-0.235
-402.238	-121.785	-0.269	-0.044
-401.223	-142.600	0.244	-0.024
-400.209	262.638	0.166	-0.286
-399.194	800.000	-0.048	-0.137
-398.179	158.696	-0.127	0.175
-397.165	168.298	-0.109	-0.154
-396.150	95.359	0.219	-0.248
-395.136	544.344	-0.036	0.085
-394.121	519.362	0.088	-0.205
-393.106	-130.316	-0.161	-0.022
-392.092	40.392	0.369	0.331
-391.077	66.895	0.143	0.144
-390.063	135.711	0.061	0.079
-389.048	-71.653	0.126	0.047
-388.033	800.000	0.163	0.516
-387.019	105.717	-0.098	-0.116
-386.004	-108.838	-0.341	-0.073
-384.990	80.846	-0.109	-0.118
-383.975	-200.000	-0.007	-0.208
-382.960	-74.065	-0.038	0.014
-381.946	-21.123	-0.207	0.126
-380.931	216.014	0.107	0.169
-379.917	-45.007	0.259	-0.128
-378.902	707.165	-0.133	0.349
-377.888	800.000	-0.050	0.145
-376.873	-200.000	-0.008	0.083
-375.858	-200.000	-0.005	0.282
-374.844	-200.000	-0.016	-0.339
-373.829	-64.022	0.265	0.108
-372.815	80.036	-0.052	-0.055
-371.800	-45.221	-0.574	0.283
-370.785	800.000	0.077	-0.309
-369.771	-24.502	0.237	-0.141
-368.756	-200.000	-0.034	0.156
-367.742	5.237	0.277	-0.203
-366.727	-200.000	0.051	0.247
-365.712	-200.000	0.016	-0.158
-364.698	800.000	-0.075	0.252
-363.683	800.000	-0.091	-0.342
-362.669	567.270	-0.080	-0.194
-361.654	374.036	-0.145	0.293
-360.639	686.507	-0.083	0.215
-359.625	322.694	0.181	-0.344
-358.610	-131.417	0.250	0.033
-357.596	-200.000	-0.008	-0.079
-356.581	-145.867	0.158	-0.014
-355.566	369.358	-0.036	0.072
-354.552	-200.000	-0.044	0.267
-353.537	-200.000	0.010	0.058
-352.523	289.283	0.019	-0.034
-351.508	-153.614	-0.160	-0.011
-350.493	67.297	-0.088	-0.089
-349.479	-126.026	0.181	-0.027
-348.464	624.750	-0.034	0.086
-347.450	53.272	-0.099	-0.094
-346.435	99.459	0.190	0.218
-345.420	-46.887	0.268	0.130
-344.406	72.226	-0.193	-0.199
-343.391	-16.309	0.100	0.063
-342.377	-80.164	-0.111	-0.037
-341.362	-160.315	0.131	0.007
-340.348	-200.000	0.027	0.168
-339.333	-66.596	-0.115	-0.045
-338.318	43.015	0.182	-0.165
-337.304	800.000	-0.109	-0.366
-336.289	-200.000	0.011	-0.113
-335.275	-45.081	-0.286	-0.141
-334.260	-200.000	0.005	0.053
-333.245	18.741	0.151	-0.120
-332.231	238.570	0.094	-0.155
-331.216	69.257	-0.077	-0.078
-330.202	112.222	0.229	0.275
-329.187	75.707	0.269	0.283
-328.172	800.000	-0.085	0.277
-327.158	-8.332	0.294	0.196
-326.143	-127.897	-0.253	-0.036
-325.129	408.709	0.101	0.212
-324.114	173.242	-0.116	-0.166
-323.099	-200.000	0.047	0.349
-322.085	-200.000	0.060	0.291
-321.070	-87.722	-0.151	0.045
-320.056	27.234	-0.040	0.033
-319.041	-115.727	0.363	0.068
-318.026	501.316	0.051	-0.118
-317.012	32.330	0.098	0.084
-315.997	-78.172	0.321	-0.109
-314.983	69.684	-0.161	0.165
-313.968	-136.225	0.188	-0.022
-312.953	-200.000	-0.017	-0.256
-311.939	-91.964	-0.290	-0.081
-310.924	39.643	-0.186	-0.165
-309.910	698.919	0.060	0.157
-308.895	-112.110	-0.120	-0.024
-307.880	-200.000	0.067	0.355
-306.866	-85.279	-0.325	0.101
-305.851	104.463	0.175	0.204
-304.837	-27.767	-0.149	0.085
-303.822	-200.000	0.004	0.425
-302.807	-200.000	0.011	0.331
-301.793	-44.331	-0.111	-0.055
-300.778	-200.000	0.008	0.094
-299.764	-173.079	-0.300	0.009
-298.749	-65.885	0.151	-0.060
-297.735	221.949	0.108	-0.172
-296.720	-200.000	0.014	-0.080
-295.705	-30.438	0.165	-0.093
-294.691	102.115	-0.156	-0.181
-293.676	-178.030	0.272	-0.006
-292.662	10.604	-0.088	-0.067
-291.647	12.372	-0.194	-0.148
-290.632	-200.000	0.013	-0.085
-289.618	-137.823	-0.262	0.029
-288.603	-200.000	0.071	0.461
-287.589	24.931	0.417	0.343
-286.574	-136.610	-0.511	0.059
-285.559	475.915	0.143	-0.320
-284.545	59.258	-0.207	0.202
-283.530	28.450	-0.077	0.065
-282.516	35.680	-0.062	-0.054
-281.501	-51.050	-0.078	-0.036
-280.486	-82.356	0.221	0.071
-279.472	-162.720	0.317	0.015
-278.457	-200.000	-0.027	-0.167
-277.443	-72.003	0.048	-0.018
-276.428	61.559	-0.223	0.220
-275.413	138.328	-0.143	-0.186
-274.399	353.568	-0.285	0.561
-273.384	280.158	0.164	0.290
-272.370	-57.137	0.025	-0.011
-271.355	-139.627	-0.142	-0.015
-270.340	560.687	-0.068	0.162
-269.326	230.500	0.229	0.372
-268.311	146.140	0.297	0.394
-267.297	485.537	0.162	-0.366
-266.282	-48.621	0.513	0.244
-265.267	215.156	0.143	-0.224
-264.253	-30.591	0.217	-0.122
-263.238	-35.447	-0.221	0.119
-262.224	2.538	0.138	0.099
-261.209	305.522	-0.048	0.089
-260.195	-96.975	0.226	0.059
-259.180	-200.000	-0.031	0.171
-258.165	20.454	-0.100	0.080
-257.151	-124.349	0.217	0.033
-256.136	800.000	-0.069	0.227
-255.122	-200.000	0.115	-0.000
-254.107	445.776	0.070	0.152
-253.092	87.553	0.159	-0.174
-252.078	322.610	0.052	-0.097
-251.063	287.104	0.095	0.171
-250.049	160.849	-0.144	0.199
-249.034	123.545	-0.116	-0.144
-248.019	-150.010	0.094	-0.007
-247.005	644.106	-0.053	-0.133
-245.990	161.211	-0.138	-0.192
-244.976	-8.543	-0.016	-0.011
-243.961	9.007	0.047	-0.035
-242.946	701.439	-0.023	-0.061
-241.932	53.055	0.105	-0.100
-240.917	-165.347	0.346	-0.015
-239.903	-139.005	0.414	-0.044
-238.888	171.219	-0.143	0.203
-237.873	61.614	-0.349	0.343
-236.859	604.298	-0.052	-0.129
-235.844	142.282	0.159	0.209
-234.830	125.532	-0.170	0.212
-233.815	800.000	0.063	0.207
-232.800	12.073	-0.322	0.245
-231.786	-200.000	0.004	-0.415
-230.771	-110.998	-0.124	-0.025
-229.757	-126.089	-0.065	0.010
-228.742	223.147	0.073	-0.117
-227.727	-200.000	-0.014	0.199
-226.713	193.070	0.164	-0.244
-225.698	15.045	-0.152	0.117
-224.684	-79.919	-0.321	0.107
-223.669	-200.000	0.009	-0.162
-222.655	285.808	0.135	0.241
-221.640	311.002	0.087	0.161
-220.625	31.523	0.124	0.105
-219.611	210.981	0.052	-0.080
-218.596	12.320	-0.135	0.103
-217.582	91.227	-0.107	-0.119
-216.567	31.865	-0.045	-0.038
-215.552	-102.920	0.322	0.076
-214.538	-30.391	-0.132	-0.074
-213.523	800.000	0.033	0.132
-212.509	747.087	0.091	-0.241
-211.494	800.000	0.032	0.122
-210.479	-2.358	-0.032	0.022
-209.465	-72.270	-0.172	-0.063
-208.450	-1.989	-0.139	-0.096
-207.436	-200.000	0.019	0.126
-206.421	-152.018	-0.094	0.007
-205.406	94.309	0.174	0.195
-204.392	-170.900	-0.205	0.007
-203.377	599.889	-0.116	-0.285
-202.363	67.397	0.244	-0.246
-201.348	44.856	-0.163	0.148
-200.333	787.621	0.089	0.240
-199.319	110.063	-0.097	0.115
-198.304	-19.548	0.113	0.069
-197.290	-51.602	0.407	-0.187
-196.275	-11.945	-0.176	0.114
-195.260	108.469	0.055	-0.065
-194.246	-3.388	0.194	-0.133
-193.231	-200.000	0.037	-0.226
-192.217	-200.000	0.004	0.091
-191.202	209.955	0.167	-0.259
-190.187	-22.890	0.177	0.106
-189.173	800.000	-0.046	0.132
-188.158	343.692	-0.059	0.114
-187.144	-200.000	0.035	0.503
-186.129	800.000	-0.027	0.103
-185.114	-200.000	0.023	-0.266
-184.100	281.865	0.065	0.115
-183.085	245.786	-0.045	0.075
-182.071	43.653	0.139	-0.125
-181.056	-121.183	-0.429	-0.071
-180.042	-133.915	-0.212	0.026
-179.027	149.461	-0.057	0.076
-178.012	33.882	0.317	0.272
-176.998	-200.000	-0.000	0.018
-175.983	176.111	-0.015	0.021
-174.969	214.225	0.127	-0.199
-173.954	670.723	-0.093	-0.239
-172.939	507.790	0.134	0.306
-171.925	-133.495	0.180	-0.022
-170.910	800.000	-0.032	0.136
-169.896	-200.000	0.071	0.438
-168.881	121.771	0.088	-0.109
-167.866	-200.000	0.015	-0.096
-166.852	800.000	-0.204	-0.599
-165.837	182.649	0.046	-0.067
-164.823	41.029	0.141	-0.125
-163.808	-21.349	0.101	-0.061
-162.793	-17.262	0.192	-0.120
-161.779	268.738	-0.103	-0.179
-160.764	-200.000	0.015	-0.227
-159.750	97.873	0.084	0.095
-158.735	-47.800	-0.215	0.103
-157.720	-141.366	-0.234	0.023
-156.706	31.419	0.164	-0.139
-155.691	-82.876	-0.137	-0.044
-154.677	389.792	-0.183	-0.374
-153.662	13.504	-0.197	-0.151
-152.647	-6.057	-0.225	0.151
-151.633	-24.683	-0.337	0.198
-150.618	348.669	-0.246	0.478
-149.604	71.492	0.257	0.263
-148.589	-116.698	0.192	0.035
-147.574	-89.308	-0.359	0.104
-146.560	80.960	0.229	-0.244
-145.545	167.326	0.147	0.206
-144.531	297.514	-0.070	-0.127
-143.516	-200.000	-0.055	-0.293
-142.502	-5.754	-0.351	0.237
-141.487	-63.279	-0.194	-0.079
-140.472	-32.243	-0.166	-0.091
-139.458	-94.384	0.281	-0.076
-138.443	-134.037	-0.313	0.038
-137.429	29.202	0.288	0.241
-136.414	-141.010	-0.483	-0.049
-135.399	-82.517	0.254	-0.081
-134.385	-76.211	-0.142	-0.049
-133.370	-50.478	0.364	0.169
-132.356	-68.579	-0.160	-0.061
-131.341	800.000	0.071	-0.200
-130.326	-65.174	-0.276	-0.110
-129.312	-200.000	0.056	0.317
-128.297	57.719	0.101	0.097
-127.283	-153.120	0.150	0.010
-126.268	-152.336	-0.180	0.013
-125.253	-48.411	0.021	0.010
-124.239	-79.255	-0.372	0.124
-123.224	50.145	0.017	0.016
-122.210	158.388	-0.150	0.205
-121.195	105.736	0.036	-0.041
-120.180	-200.000	0.029	0.273
-119.166	-200.000	0.014	-0.221
-118.151	-200.000	-0.047	-0.268
-117.137	-200.000	-0.069	-0.371
-116.122	73.907	0.077	0.080
-115.107	189.239	-0.176	0.260
-114.093	-200.000	0.011	0.112
-113.078	800.000	-0.097	-0.263
-112.064	226.032	0.044	-0.070
-111.049	-121.418	0.313	0.051
-110.034	-59.704	-0.140	0.059
-109.020	-94.911	0.302	-0.080
-108.005	285.131	-0.120	-0.213
-106.991	16.499	0.459	0.357
-105.976	294.125	0.076	-0.137
-104.962	76.691	0.114	0.120
-103.947	-41.388	-0.260	-0.132
-102.932	-200.000	-0.017	0.083
-101.918	-200.000	0.045	0.320
-100.903	-66.865	-0.139	0.054
-99.889	171.010	-0.289	-0.407
-98.874	195.246	-0.070	-0.104
-97.859	-112.291	-0.031	-0.006
-96.845	-95.133	0.147	0.039
-95.830	341.079	-0.054	-0.105
-94.816	-94.307	-0.163	0.044
-93.801	-200.000	-0.002	0.186
-92.786	175.563	-0.222	-0.316
-91.772	-22.252	0.092	-0.055
-90.757	436.519	0.099	0.213
-89.743	800.000	0.114	-0.367
-88.728	16.379	0.087	-0.067
-87.713	-118.274	0.185	-0.032
-86.699	-52.041	-0.226	0.103
-85.684	-104.466	-0.193	0.044
-84.670	263.542	-0.083	0.141
-83.655	-200.000	0.003	0.121
-82.640	-200.000	-0.014	0.224
-81.626	-47.857	0.450	-0.214
-80.611	800.000	-0.018	0.055
-79.597	458.888	0.104	0.227
-78.582	-200.000	-0.001	0.225
-77.567	-200.000	-0.030	-0.200
-76.553	67.402	0.159	-0.159
-75.538	-7.170	0.101	0.067
-74.524	-52.053	-0.426	0.195
-73.509	13.008	-0.152	0.116
-72.494	-73.291	-0.222	0.080
-71.480	72.782	-0.068	-0.070
-70.465	-174.561	0.194	0.005
-69.451	-13.155	-0.092	-0.059
-68.436	-147.475	-0.101	0.008
-67.422	-4.079	-0.044	-0.030
-66.407	162.965	-0.014	-0.019
-65.392	-1.524	0.213	-0.147
-64.378	454.449	0.149	0.323
-63.363	-200.000	0.021	0.258
-62.349	800.000	-0.025	-0.077
-61.334	191.968	-0.734	-1.088
-60.319	130.908	0.317	0.400
-59.305	-200.000	-0.156	-1.045
-58.290	299.146	0.580	1.048
-57.276	326.318	0.882	1.659
-56.261	-200.000	102.830	592.751
-55.246	555.078	1433.903	3389.843
-54.232	187.400	2622.198	3842.184
-53.217	115.878	2167.831	2605.512
-52.203	41.302	1696.586	1506.772
-51.188	33.780	1505.447	1286.246
-50.173	31.326	1478.496	1246.817
-49.159	52.081	1531.782	1433.283
-48.144	53.059	1549.557	1456.501
-47.130	34.011	1506.938	1288.886
-46.115	30.820	1492.184	1254.752
-45.100	30.678	1488.456	1250.611
-44.086	30.655	1486.533	1248.796
-43.071	30.623	1484.525	1246.847
-42.057	30.636	1482.751	1245.394
-41.042	30.534	1481.337	1243.470
-40.027	30.712	1479.698	1243.237
-39.013	30.624	1478.442	1241.546
-37.998	30.551	1477.393	1240.130
-36.984	30.639	1475.880	1239.397
-35.969	30.546	1474.532	1237.593
-34.954	30.691	1473.003	1237.226
-33.940	30.561	1471.803	1235.304
-32.925	30.569	1470.438	1234.167
-31.911	30.616	1469.735	1233.837
-30.896	30.721	1467.983	1233.013
-29.881	30.840	1466.672	1232.652
-28.867	30.616	1465.608	1230.223
-27.852	30.737	1463.634	1229.322
-26.838	30.713	1462.422	1228.096
-25.823	30.688	1460.893	1226.595
-24.809	30.708	1459.234	1225.286
-23.794	30.690	1457.868	1223.975
-22.779	30.630	1457.378	1223.120
-21.765	30.662	1456.019	1222.138
-20.750	30.622	1454.991	1220.962
-19.736	30.671	1453.474	1219.962
-18.721	30.617	1452.561	1218.794
-17.706	30.671	1451.365	1218.097
-16.692	30.649	1450.575	1217.241
-15.677	30.619	1449.462	1216.061
-14.663	30.665	1448.291	1215.333
-13.648	30.588	1447.054	1213.747
-12.633	30.522	1446.767	1213.022
-11.619	30.610	1445.571	1212.545
-10.604	30.487	1445.368	1211.527
-9.590	30.705	1443.731	1211.530
-8.575	30.622	1443.259	1210.540
-7.560	30.542	1442.463	1209.308
-6.546	30.488	1441.470	1208.077
-5.531	30.611	1440.951	1208.391
-4.517	30.546	1440.091	1207.200
-3.502	30.479	1438.963	1205.775
-2.487	30.594	1437.900	1205.578
-1.473	30.586	1436.463	1204.276
-0.458	30.550	1435.311	1203.031
0.556	29.277	1425.808	1192.055
1.571	26.573	1401.269	1154.224
2.586	23.238	1342.994	1085.708
3.600	21.690	1263.115	1012.106
4.615	20.503	1217.105	968.544
5.629	17.906	1161.542	910.414
6.644	10.851	1080.451	811.666
7.659	5.453	1042.410	756.955
8.673	4.888	1036.850	750.131
9.688	4.744	1033.903	747.243
10.702	4.799	1032.231	746.231
11.717	4.659	1030.444	744.202
12.731	6.718	1031.983	755.106
13.746	13.416	1041.087	793.930
14.761	18.161	1047.112	821.294
15.775	18.329	1046.538	821.577
16.790	17.304	1044.028	814.626
17.804	16.327	1041.682	808.051
18.819	15.460	1039.652	802.263
19.834	14.945	1038.730	799.020
20.848	14.561	1037.893	796.475
21.863	14.462	1037.216	795.411
22.877	14.253	1036.218	793.581
23.892	14.065	1035.579	792.122
24.907	13.939	1034.998	791.008
25.921	13.992	1033.943	790.386
26.936	14.154	1033.010	790.374
27.950	14.120	1032.023	789.387
28.965	14.031	1031.303	788.343
29.980	13.990	1030.404	787.390
30.994	14.212	1028.852	787.184
32.009	14.357	1028.056	787.192
33.023	14.269	1027.365	786.179
34.038	14.267	1026.595	785.511
35.053	14.138	1026.045	784.412
36.067	14.239	1024.364	783.531
37.082	14.132	1023.597	782.373
38.096	14.228	1022.719	782.082
39.111	14.129	1022.686	781.527
40.126	14.211	1021.090	780.620
41.140	14.194	1020.095	779.711
42.155	14.060	1018.989	778.170
43.169	13.917	1017.854	776.565
44.184	13.906	1016.834	775.667
45.199	13.922	1015.707	774.814
46.213	13.908	1015.001	774.142
47.228	13.886	1014.050	773.245
48.242	14.055	1013.208	773.319
49.257	14.072	1012.665	772.917
50.271	14.157	1011.205	772.128
51.286	14.094	1010.613	771.316
52.301	14.148	1009.930	770.978
53.315	14.057	1009.015	769.790
54.330	14.133	1008.217	769.465
55.344	14.012	1007.156	768.026
56.359	14.019	1006.110	767.193
57.374	13.895	1005.389	766.004
58.388	13.911	1004.377	765.240
59.403	13.906	1004.006	764.866
60.417	13.768	1003.035	763.422
61.432	13.964	1002.336	763.724
62.447	13.907	1001.773	762.968
63.461	13.887	1000.712	761.997
64.476	13.657	1000.266	760.534
65.490	13.747	998.933	759.868
66.505	13.868	997.933	759.591
67.520	13.866	997.344	759.070
68.534	13.854	996.613	758.390
69.549	13.798	996.081	757.665
70.563	13.811	995.222	757.003
71.578	13.768	994.583	756.252
72.593	13.834	993.379	755.573
73.607	13.782	992.277	754.430
74.622	13.689	991.521	753.363
75.636	13.737	990.774	752.947
76.651	13.705	989.855	752.037
77.666	13.882	988.668	751.870
78.680	13.805	988.297	751.177
79.695	13.897	987.665	751.043
80.709	13.861	987.456	750.657
81.724	13.913	986.280	749.932
82.739	13.891	986.057	749.595
83.753	13.958	984.871	748.929
84.768	14.006	984.234	748.595
85.782	14.263	983.371	749.028
86.797	14.255	983.128	748.742
87.812	14.175	982.784	748.051
88.826	14.034	981.524	746.394
89.841	14.228	980.316	746.280
90.855	14.229	979.274	745.426
91.870	14.029	979.693	744.782
92.884	14.149	978.774	744.557
93.899	14.170	978.135	744.096
94.914	14.074	977.035	742.766
95.928	14.249	976.597	743.147
96.943	14.417	975.484	742.986
97.957	14.312	974.708	741.859
98.972	14.212	973.951	740.774
99.987	14.285	972.934	740.257
101.001	14.043	972.900	739.094
102.016	14.173	971.776	738.752
103.030	14.232	970.661	738.100
104.045	14.234	970.057	737.584
105.060	14.236	968.802	736.571
106.074	14.131	968.136	735.538
107.089	14.066	967.447	734.663
108.103	13.823	966.702	732.956
109.118	13.801	965.542	731.914
110.133	13.846	964.644	731.368
111.147	13.904	963.748	730.881
112.162	13.985	962.758	730.422
113.176	13.985	961.835	729.657
114.191	14.021	961.240	729.296
115.206	14.014	960.652	728.754
116.220	14.004	959.580	727.833
117.235	13.939	958.975	727.028
118.249	13.986	958.210	726.589
119.264	13.910	957.320	725.517
120.279	13.908	956.560	724.869
121.293	13.827	955.882	723.938
122.308	13.843	955.212	723.435
123.322	13.864	954.600	722.997
124.337	13.893	953.031	721.873
125.352	13.844	952.059	720.860
126.366	13.850	950.823	719.886
127.381	13.768	950.602	719.297
128.395	13.717	949.482	718.168
129.410	13.844	948.337	717.785
130.424	13.856	947.105	716.842
131.439	13.916	946.478	716.565
132.454	14.124	945.040	716.309
133.468	14.006	944.899	715.628
134.483	13.853	944.683	714.743
135.497	13.950	943.775	714.409
136.512	13.966	942.871	713.731
137.527	14.051	942.339	713.630
138.541	14.080	941.441	713.014
139.556	13.943	941.007	712.032
140.570	13.888	939.820	710.838
141.585	14.210	939.204	711.687
142.600	14.215	938.664	711.234
143.614	14.096	937.862	710.054
144.629	14.246	937.103	710.056
145.643	14.345	936.447	709.922
146.658	14.313	935.708	709.159
147.673	14.226	934.664	707.935
148.687	14.237	934.011	707.428
149.702	14.019	933.366	705.950
150.716	14.082	932.457	705.464
151.731	14.235	931.147	705.062
152.746	14.099	931.171	704.440
153.760	14.104	930.047	703.550
154.775	14.141	929.105	702.930
155.789	14.273	928.647	703.080
156.804	14.086	928.164	701.865
157.819	14.224	927.445	701.841
158.833	14.182	926.625	700.980
159.848	14.289	926.154	701.011
160.862	14.358	925.464	700.718
161.877	14.376	924.662	700.124
162.892	14.431	923.331	699.285
163.906	14.185	922.710	697.720
164.921	14.058	922.283	696.803
165.935	13.993	921.289	695.718
166.950	14.118	920.155	695.325
167.964	14.134	919.124	694.550
168.979	14.222	918.009	694.012
169.994	14.113	917.560	693.157
171.008	14.210	916.446	692.661
172.023	14.250	915.607	692.130
173.037	14.179	915.009	691.320
174.052	14.488	913.825	691.649
175.067	14.337	913.460	690.685
176.081	14.374	912.610	690.132
177.096	14.268	911.623	688.889
178.110	14.296	911.104	688.549
179.125	14.205	910.233	687.456
180.140	14.291	909.568	687.249
181.154	14.256	908.879	686.521
182.169	14.376	908.187	686.435
183.183	14.341	907.539	685.740
184.198	14.386	907.292	685.674
185.213	14.465	906.505	685.347
186.227	14.433	905.728	684.565
187.242	14.644	905.080	684.880
188.256	14.631	904.461	684.299
189.271	14.655	903.442	683.567
190.286	14.705	903.085	683.438
191.300	14.446	902.578	681.938
192.315	14.309	901.657	680.619
193.329	14.352	900.460	679.831
194.344	14.221	899.985	678.880
195.359	14.269	899.889	678.943
196.373	14.345	899.338	678.775
197.388	14.555	898.530	678.961
198.402	14.649	898.345	679.143
199.417	14.632	898.075	678.811
200.432	14.587	897.518	678.147
201.446	14.802	896.747	678.377
202.461	14.701	896.397	677.643
203.475	14.831	895.974	677.788
204.490	14.870	895.106	677.229
205.504	14.927	894.310	676.799
206.519	14.811	893.557	675.700
207.534	14.592	893.692	674.859
208.548	14.705	892.096	674.049
209.563	14.730	891.692	673.784
210.577	14.825	890.440	673.163
211.592	14.664	890.601	672.574
212.607	14.840	889.594	672.462
213.621	14.965	889.077	672.517
214.636	14.917	888.466	671.800
215.650	14.751	888.305	670.955
216.665	14.909	887.597	670.994
217.680	14.919	886.850	670.410
218.694	14.951	886.506	670.217
219.709	15.004	885.922	669.928
220.723	14.991	885.310	669.355
221.738	14.975	884.654	668.737
222.753	14.969	884.028	668.179
223.767	15.054	883.364	667.958
224.782	15.013	882.271	666.908
225.796	15.053	881.674	666.556
226.811	15.051	881.334	666.234
227.826	15.109	880.587	665.841
228.840	15.178	879.447	665.195
229.855	14.964	879.257	664.143
230.869	14.982	878.313	663.443
231.884	14.976	878.156	663.242
232.899	15.048	877.013	662.603
233.913	14.928	876.658	661.801
234.928	15.047	875.825	661.585
235.942	14.966	875.139	660.687
236.957	15.010	874.513	660.332
237.972	15.051	873.581	659.729
238.986	14.912	873.538	659.094
240.001	15.053	872.771	659.012
241.015	15.059	872.101	658.469
242.030	15.057	871.061	657.619
243.045	15.132	870.617	657.517
244.059	15.223	869.914	657.285
245.074	15.155	869.568	656.699
246.088	15.283	868.478	656.320
247.103	15.264	867.980	655.811
248.117	15.360	867.860	656.038
249.132	15.355	867.430	655.638
250.147	15.518	866.761	655.710
251.161	15.511	866.209	655.204
252.176	15.673	865.683	655.383
253.190	15.628	864.985	654.621
254.205	15.634	864.364	654.117
255.220	15.824	863.678	654.276
256.234	15.680	862.795	652.992
257.249	15.585	862.487	652.331
258.263	15.595	862.146	652.056
259.278	15.579	861.439	651.401
260.293	15.623	861.073	651.235
261.307	15.663	860.596	650.973
262.322	15.783	860.089	650.997
263.336	15.903	859.289	650.795
264.351	15.924	858.726	650.392
265.366	15.802	858.208	649.472
266.380	15.847	857.816	649.292
267.395	15.949	856.908	648.940
268.409	15.793	856.132	647.694
269.424	15.861	855.179	647.177
270.439	15.759	855.035	646.621
271.453	15.830	854.183	646.192
272.468	15.713	853.069	644.843
273.482	15.812	852.536	644.762
274.497	15.768	852.428	644.456
275.512	15.793	851.408	643.721
276.526	15.666	851.084	642.936
277.541	15.765	850.052	642.477
278.555	15.856	849.548	642.384
279.570	15.928	848.972	642.167
280.585	16.001	848.867	642.309
281.599	16.108	847.941	641.959
282.614	16.010	847.630	641.295
283.628	15.896	846.828	640.199
284.643	15.830	846.257	639.459
285.657	15.908	846.049	639.540
286.672	15.905	845.462	639.028
287.687	15.857	844.811	638.299
288.701	15.989	844.258	638.325
289.716	16.038	843.394	637.801
290.730	15.940	843.160	637.197
291.745	15.983	842.464	636.775
292.760	16.154	841.605	636.716
293.774	16.126	841.199	636.249
294.789	16.120	840.843	635.898
295.803	16.281	839.919	635.752
296.818	16.191	839.634	635.141
297.833	16.091	838.721	634.017
298.847	16.067	838.468	633.681
299.862	16.119	837.434	633.037
300.876	16.161	836.758	632.625
301.891	16.131	836.256	632.079
302.906	16.188	835.566	631.714
303.920	16.252	834.829	631.342
304.935	16.270	834.382	631.014
305.949	16.265	833.781	630.487
306.964	16.521	832.746	630.601
307.979	16.351	832.798	629.953
308.993	16.320	831.961	629.146
310.008	16.332	831.467	628.762
311.022	16.507	830.901	628.930
312.037	16.365	830.703	628.197
313.052	16.438	829.941	627.838
314.066	16.529	829.003	627.407
315.081	16.342	828.447	626.239
316.095	16.316	828.039	625.779
317.110	16.343	827.642	625.522
318.125	16.424	826.977	625.264
319.139	16.385	826.522	624.722
320.154	16.420	825.918	624.341
321.168	16.270	825.537	623.442
322.183	16.417	825.143	623.631
323.197	16.484	824.632	623.436
324.212	16.426	824.188	622.834
325.227	16.484	823.500	622.472
326.241	16.501	823.118	622.190
327.256	16.538	822.405	621.732
328.270	16.313	821.949	620.505
329.285	16.396	821.472	620.394
330.300	16.437	820.668	619.883
331.314	16.461	820.225	619.582
332.329	16.523	819.335	619.082
333.343	16.668	819.267	619.508
334.358	16.562	818.669	618.613
335.373	16.492	818.156	617.915
336.387	16.696	817.441	618.064
337.402	16.749	817.017	617.882
338.416	16.656	816.325	616.965
339.431	16.767	815.868	616.969
340.446	16.817	815.562	616.867
341.460	16.822	815.085	616.468
342.475	16.797	814.453	615.845
343.489	16.911	813.967	615.837
344.504	16.976	813.586	615.730
345.519	17.022	812.967	615.376
346.533	17.007	812.187	614.675
347.548	17.027	811.866	614.450
348.562	17.007	811.100	613.743
349.577	16.829	810.696	612.739
350.592	16.843	810.075	612.269
351.606	16.865	809.586	611.922
352.621	16.778	808.993	611.105
353.635	16.796	808.901	611.047
354.650	16.874	808.523	610.990
355.665	16.950	807.759	610.633
356.679	16.915	807.480	610.240
357.694	17.057	806.584	610.018
358.708	16.996	806.682	609.822
359.723	17.131	805.615	609.446
360.738	16.988	805.499	608.791
361.752	16.946	804.983	608.194
362.767	16.911	804.698	607.803
363.781	16.979	804.352	607.729
364.796	17.130	803.785	607.788
365.810	17.087	803.424	607.305
366.825	17.332	803.076	607.867
367.840	17.354	802.742	607.638
368.854	17.257	802.367	606.956
369.869	17.289	801.759	606.555
370.883	17.248	801.063	605.830
371.898	17.318	800.281	605.434
372.913	17.351	800.050	605.324
373.927	17.368	799.240	604.716
374.942	17.393	798.630	604.291
375.956	17.545	797.524	603.939
376.971	17.215	797.777	602.907
377.986	17.509	797.464	603.660
379.000	17.490	796.453	602.774
380.015	17.694	796.051	603.138
381.029	17.552	795.368	602.064
382.044	17.604	794.671	601.666
383.059	17.456	794.628	601.057
384.073	17.589	793.705	600.778
385.088	17.626	793.216	600.481
386.102	17.511	792.950	599.823
387.117	17.491	792.219	599.148
388.132	17.475	791.690	598.637
389.146	17.515	791.301	598.431
390.161	17.464	791.508	598.354
391.175	17.428	790.760	597.611
392.190	17.634	790.361	597.981
393.205	17.619	789.937	597.552
394.219	17.534	789.602	596.949
395.234	17.577	788.811	596.450
396.248	17.548	788.379	595.969
397.263	17.417	787.859	595.065
398.278	17.379	787.724	594.777
399.292	17.411	787.192	594.434
400.307	17.373	786.912	594.038
401.321	17.414	786.093	593.509
402.336	17.332	786.135	593.203
403.350	17.493	785.515	593.245
404.365	17.478	785.218	592.915
405.380	17.588	784.743	592.884
406.394	17.711	784.040	592.728
407.409	17.695	783.751	592.405
408.423	17.716	783.378	592.141
409.438	17.743	783.037	591.926
410.453	17.851	782.773	592.049
411.467	17.937	782.345	591.971
412.482	17.848	781.545	591.005
413.496	17.983	781.062	591.054
414.511	17.953	780.770	590.675
415.526	18.117	780.330	590.859
416.540	17.900	780.309	590.041
417.555	18.099	779.651	590.178
418.569	18.032	779.303	589.630
419.584	18.076	778.370	589.026
420.599	18.060	778.066	588.688
421.613	156.855	1368.925	1795.041
422.628	135.323	1455.001	1795.152
