DTS Sentinel unit serial number:	SN413079Multiplexer serial number:	ORYXHardware model number:	OX4-SRSoftware version number:	ORYX F/W v4.00 Oryx Data Collector v3.7.2.0data status	okinstallation	princeton_trtdifferential loss correction	single-endedforward channel	channel 3reverse channel	N/Adate	2019/09/15time	22:36:35forward acquisition time	60.00reverse acquisition time	0.00gamma	496.2192k internal	0.2333k external	0.2333temperature offset calibration	0.9949default loss term (dB/km)	0.3790temperature slope calibration	1.0000multiplexer offset coefficient	1.0000multiplexer slope coefficient	1.0000fibre end	0.00T internal ref (°C)	29.05T ext. ref 1 (°C)	8.80T ext. ref 2 (°C)	22.47length (m)	temperature (°C)	Stokes	anti-Stokes-747.200	59.914	0.214	0.213
-746.185	800.000	-0.045	0.188
-745.171	8.046	0.284	0.214
-744.156	-102.758	-0.381	0.091
-743.142	220.328	-0.029	-0.046
-742.127	18.359	0.212	-0.170
-741.112	-200.000	0.010	0.116
-740.098	8.372	-0.193	0.146
-739.083	330.921	-0.253	-0.490
-738.069	-200.000	0.010	0.072
-737.054	-200.000	0.038	-0.314
-736.039	800.000	0.033	0.117
-735.025	-188.994	0.184	-0.002
-734.010	-200.000	0.021	-0.243
-732.996	-88.048	-0.206	-0.062
-731.981	800.000	-0.051	-0.165
-730.966	-200.000	-0.048	-0.364
-729.952	-153.721	-0.233	0.016
-728.937	65.688	-0.145	0.147
-727.923	-124.262	-0.249	-0.039
-726.908	-26.709	-0.162	-0.095
-725.894	-37.961	-0.457	0.244
-724.879	283.886	0.157	0.283
-723.864	-162.312	0.523	-0.026
-722.850	-43.118	-0.305	-0.155
-721.835	-200.000	0.024	-0.294
-720.821	-200.000	0.016	0.137
-719.806	379.553	-0.092	-0.189
-718.791	800.000	-0.056	-0.162
-717.777	89.877	0.221	-0.248
-716.762	4.600	0.298	-0.219
-715.748	449.286	-0.022	0.048
-714.733	93.480	-0.187	-0.213
-713.718	274.118	0.158	-0.281
-712.704	47.358	-0.301	0.281
-711.689	-58.884	-0.161	-0.070
-710.675	-200.000	0.057	-0.551
-709.660	-200.000	-0.015	0.240
-708.645	661.066	0.027	0.070
-707.631	114.350	-0.028	-0.035
-706.616	316.128	0.036	0.068
-705.602	309.833	0.096	-0.180
-704.587	-151.352	0.167	-0.012
-703.572	-65.303	-0.224	-0.090
-702.558	-75.295	0.664	0.238
-701.543	126.938	0.057	0.073
-700.529	-74.942	0.150	-0.054
-699.514	-200.000	-0.002	-0.171
-698.499	-24.845	-0.085	0.051
-697.485	-17.311	0.139	0.088
-696.470	-200.000	-0.021	-0.112
-695.456	-106.887	-0.354	0.079
-694.441	-200.000	0.000	-0.272
-693.426	-169.832	-0.178	-0.006
-692.412	116.257	-0.050	-0.062
-691.397	-133.589	0.153	-0.019
-690.383	-87.929	-0.043	-0.013
-689.368	-180.678	-0.197	-0.004
-688.354	123.005	0.125	-0.157
-687.339	800.000	0.113	0.427
-686.324	224.768	-0.027	0.043
-685.310	783.491	0.025	-0.069
-684.295	20.430	-0.108	0.087
-683.281	-1.886	0.235	-0.166
-682.266	163.661	0.110	-0.155
-681.251	-95.738	-0.479	-0.128
-680.237	196.974	0.055	0.084
-679.222	28.335	0.181	-0.153
-678.208	63.133	-0.388	-0.390
-677.193	800.000	-0.024	-0.089
-676.178	-94.504	0.198	0.054
-675.164	-200.000	0.028	0.224
-674.149	800.000	0.080	-0.316
-673.135	-200.000	0.035	-0.243
-672.120	-105.120	0.368	0.084
-671.105	-110.074	-0.065	-0.014
-670.091	236.370	0.132	-0.219
-669.076	-200.000	0.006	-0.382
-668.062	630.456	-0.104	-0.263
-667.047	314.686	0.197	0.373
-666.032	-137.939	-0.034	-0.004
-665.018	-150.865	-0.479	-0.036
-664.003	800.000	0.019	-0.072
-662.989	-7.814	0.166	-0.112
-661.974	-106.983	-0.145	-0.032
-660.959	-22.950	-0.281	0.170
-659.945	133.269	0.194	-0.251
-658.930	-99.778	-0.280	0.070
-657.916	-42.186	0.243	-0.124
-656.901	-200.000	-0.022	0.247
-655.886	-31.222	-0.267	-0.151
-654.872	-93.469	-0.095	-0.026
-653.857	-170.587	0.333	0.012
-652.843	-200.000	-0.053	0.440
-651.828	-14.715	-0.160	-0.103
-650.814	54.462	-0.081	0.078
-649.799	-111.028	0.059	-0.012
-648.784	49.006	0.117	0.110
-647.770	-92.451	0.198	0.056
-646.755	-36.467	0.070	0.038
-645.741	-18.910	-0.132	-0.082
-644.726	126.325	0.188	0.238
-643.711	-152.824	-0.111	-0.008
-642.697	-200.000	0.021	-0.217
-641.682	182.934	0.176	0.260
-640.668	800.000	0.040	0.133
-639.653	111.183	-0.090	-0.109
-638.638	262.363	0.051	-0.088
-637.624	133.778	-0.102	0.132
-636.609	262.628	0.126	-0.220
-635.595	-39.013	0.224	0.118
-634.580	369.617	-0.078	0.159
-633.565	452.264	0.086	-0.190
-632.551	-136.860	-0.058	-0.007
-631.536	82.339	-0.110	-0.119
-630.522	489.455	-0.107	0.245
-629.507	-200.000	0.046	0.303
-628.492	-52.788	-0.320	-0.148
-627.478	-24.133	-0.244	-0.146
-626.463	-33.378	0.446	-0.247
-625.449	-200.000	-0.009	-0.054
-624.434	-76.919	0.339	0.119
-623.419	-200.000	-0.030	-0.249
-622.405	-200.000	0.041	0.197
-621.390	139.839	0.050	-0.066
-620.376	5.480	0.086	-0.063
-619.361	105.937	0.185	-0.220
-618.346	-13.789	-0.158	-0.102
-617.332	-69.546	-0.104	-0.040
-616.317	6.747	0.154	0.115
-615.303	111.609	-0.232	0.280
-614.288	-200.000	-0.005	0.034
-613.273	264.841	0.051	-0.089
-612.259	407.288	0.177	0.374
-611.244	-105.438	-0.290	-0.066
-610.230	-158.472	-0.108	-0.006
-609.215	-99.667	0.293	-0.074
-608.201	-114.189	-0.215	0.041
-607.186	151.245	0.218	0.297
-606.171	-86.230	-0.031	-0.010
-605.157	-63.722	-0.316	-0.129
-604.142	-200.000	0.028	0.170
-603.128	-200.000	-0.037	-0.235
-602.113	331.302	-0.165	-0.318
-601.098	13.073	-0.220	-0.170
-600.084	-23.721	0.228	0.137
-599.069	235.760	-0.124	0.205
-598.055	41.124	0.095	-0.086
-597.040	-200.000	0.040	0.207
-596.025	59.914	0.150	0.148
-595.011	36.270	0.263	-0.232
-593.996	19.982	-0.124	0.100
-592.982	-41.212	0.234	0.121
-591.967	-91.091	-0.119	-0.034
-590.952	52.418	0.231	0.220
-589.938	168.046	0.090	0.129
-588.923	175.195	-0.224	-0.324
-587.909	148.309	-0.139	0.187
-586.894	800.000	-0.104	-0.323
-585.879	-55.688	-0.283	-0.127
-584.865	-101.416	-0.264	0.064
-583.850	97.781	-0.183	0.210
-582.836	0.812	-0.162	0.116
-581.821	-200.000	0.010	-0.168
-580.806	-48.108	0.114	-0.055
-579.792	800.000	0.060	-0.242
-578.777	-200.000	-0.014	0.104
-577.763	-46.068	-0.125	-0.062
-576.748	166.968	0.168	-0.239
-575.733	-78.214	0.162	0.056
-574.719	800.000	0.132	0.390
-573.704	373.307	-0.085	-0.173
-572.690	-127.098	0.210	-0.031
-571.675	-200.000	-0.039	-0.374
-570.661	638.614	-0.068	0.173
-569.646	-200.000	0.045	0.292
-568.631	-35.443	-0.085	-0.046
-567.617	405.560	0.065	-0.137
-566.602	643.655	-0.115	0.293
-565.588	-31.119	0.075	-0.042
-564.573	-97.067	0.211	0.055
-563.558	120.187	0.101	-0.125
-562.544	800.000	-0.101	-0.419
-561.529	800.000	-0.043	0.139
-560.515	-200.000	-0.011	-0.136
-559.500	-110.155	0.143	0.030
-558.485	-14.200	0.261	-0.168
-557.471	-58.689	0.454	-0.196
-556.456	-22.487	0.086	-0.052
-555.442	-200.000	-0.058	-0.423
-554.427	-200.000	-0.002	0.026
-553.412	-189.312	0.382	-0.004
-552.398	-200.000	0.051	0.448
-551.383	-88.403	0.321	0.096
-550.369	507.906	-0.092	0.214
-549.354	-15.974	0.265	-0.169
-548.339	229.522	0.085	-0.139
-547.325	85.264	0.112	-0.123
-546.310	-200.000	0.005	0.060
-545.296	293.879	0.077	-0.141
-544.281	248.805	-0.216	0.366
-543.266	-15.026	-0.325	-0.208
-542.252	-200.000	-0.015	-0.189
-541.237	46.280	-0.153	0.142
-540.223	-24.469	0.151	-0.090
-539.208	-125.105	0.207	-0.032
-538.193	2.677	-0.184	0.133
-537.179	-60.978	-0.250	-0.105
-536.164	53.706	-0.173	0.165
-535.150	30.458	-0.154	-0.131
-534.135	-18.479	-0.183	-0.114
-533.121	104.911	-0.064	-0.075
-532.106	-80.421	-0.359	-0.120
-531.091	-92.600	-0.109	0.030
-530.077	-200.000	0.029	-0.163
-529.062	-200.000	-0.009	0.044
-528.048	-20.833	0.191	-0.117
-527.033	800.000	-0.013	0.042
-526.018	33.406	0.153	0.133
-525.004	-69.780	-0.128	0.049
-523.989	-110.788	0.209	-0.043
-522.975	-200.000	-0.010	-0.137
-521.960	-112.415	-0.187	0.037
-520.945	800.000	0.035	-0.146
-519.931	294.676	-0.111	-0.202
-518.916	18.192	-0.190	0.151
-517.902	-45.609	-0.114	0.056
-516.887	74.783	0.248	-0.260
-515.872	10.851	-0.061	0.046
-514.858	22.609	-0.225	0.184
-513.843	568.742	-0.069	0.167
-512.829	-7.966	-0.044	0.029
-511.814	-111.340	0.214	-0.044
-510.799	800.000	0.080	0.258
-509.785	-200.000	-0.010	-0.344
-508.770	-200.000	0.003	-0.174
-507.756	-200.000	0.011	0.265
-506.741	-200.000	0.008	0.050
-505.726	-120.908	-0.188	0.032
-504.712	800.000	0.071	0.206
-503.697	67.319	0.094	0.096
-502.683	-129.871	0.098	-0.013
-501.668	-98.572	-0.099	0.025
-500.653	-8.474	-0.212	0.142
-499.639	261.793	0.144	-0.248
-498.624	-74.690	0.199	0.071
-497.610	186.067	-0.055	-0.081
-496.595	206.609	0.184	0.286
-495.581	-200.000	0.004	0.115
-494.566	-125.914	-0.096	0.014
-493.551	-162.535	0.190	0.009
-492.537	-200.000	0.052	-0.457
-491.522	15.720	0.102	-0.080
-490.508	202.046	0.141	-0.217
-489.493	21.238	-0.243	0.196
-488.478	-91.178	0.046	-0.013
-487.464	-174.751	-0.105	0.003
-486.449	-51.943	0.048	-0.022
-485.435	-200.000	-0.004	-0.055
-484.420	-200.000	-0.037	-0.215
-483.405	-200.000	0.028	0.183
-482.391	-117.355	-0.547	0.099
-481.376	-11.628	0.157	-0.103
-480.362	-200.000	-0.043	-0.251
-479.347	273.438	-0.093	-0.163
-478.332	-110.024	-0.217	-0.045
-477.318	-97.645	0.178	-0.046
-476.303	-81.430	-0.188	0.062
-475.289	241.943	0.166	-0.276
-474.274	30.455	-0.161	-0.137
-473.259	-0.660	-0.406	-0.287
-472.245	165.580	-0.152	-0.214
-471.230	-96.293	0.424	0.112
-470.216	-182.794	0.102	-0.002
-469.201	433.467	0.054	0.116
-468.186	437.734	-0.070	0.151
-467.172	185.904	-0.140	0.207
-466.157	-136.586	0.118	0.014
-465.143	800.000	-0.089	0.311
-464.128	-41.176	0.326	0.167
-463.113	-116.246	0.060	-0.011
-462.099	-117.900	-0.125	0.022
-461.084	-200.000	-0.059	-0.263
-460.070	35.512	-0.000	-0.000
-459.055	-200.000	-0.004	0.259
-458.040	-200.000	-0.012	0.072
-457.026	-112.891	0.273	0.054
-456.011	32.573	0.024	0.021
-454.997	243.699	-0.053	0.088
-453.982	626.419	0.099	0.248
-452.968	106.273	-0.155	0.182
-451.953	-43.273	-0.213	0.107
-450.938	-15.948	-0.321	0.203
-449.924	-96.135	-0.533	-0.141
-448.909	-200.000	0.064	0.285
-447.895	800.000	-0.034	0.138
-446.880	-164.497	-0.075	-0.003
-445.865	-200.000	-0.052	-0.363
-444.851	-2.002	-0.114	-0.080
-443.836	-114.787	0.176	0.033
-442.822	-29.902	0.178	0.101
-441.807	-16.476	0.316	0.199
-440.792	-62.976	0.140	-0.058
-439.778	-92.783	0.184	-0.051
-438.763	-115.033	0.263	0.050
-437.749	-200.000	0.023	-0.119
-436.734	-200.000	-0.014	0.286
-435.719	-52.619	-0.231	0.106
-434.705	-13.274	-0.191	-0.123
-433.690	-138.916	-0.228	0.025
-432.676	267.215	0.152	-0.265
-431.661	53.281	-0.049	0.047
-430.646	85.181	-0.125	0.136
-429.632	-118.008	-0.095	-0.017
-428.617	1.417	0.088	-0.063
-427.603	800.000	-0.067	0.210
-426.588	146.406	-0.149	0.199
-425.573	535.210	-0.134	-0.315
-424.559	-65.052	0.416	0.167
-423.544	-200.000	0.089	0.391
-422.530	46.117	0.010	0.010
-421.515	-35.081	-0.122	-0.066
-420.500	-98.075	0.272	0.069
-419.486	-200.000	-0.018	-0.147
-418.471	54.811	-0.192	0.184
-417.457	-200.000	0.033	0.235
-416.442	-200.000	0.011	0.091
-415.428	244.038	-0.058	-0.096
-414.413	323.105	-0.081	-0.153
-413.398	-25.912	0.419	0.245
-412.384	-200.000	-0.037	0.194
-411.369	213.330	0.196	0.307
-410.355	374.831	-0.177	-0.357
-409.340	42.793	0.234	-0.212
-408.325	129.098	-0.062	0.078
-407.311	-200.000	0.027	0.162
-406.296	-93.623	0.127	-0.035
-405.282	61.487	0.058	-0.057
-404.267	-119.187	-0.241	-0.042
-403.252	82.368	0.111	0.119
-402.238	-200.000	-0.041	0.313
-401.223	217.385	-0.058	-0.092
-400.209	-19.548	-0.132	-0.081
-399.194	273.133	0.103	-0.181
-398.179	-200.000	-0.007	-0.171
-397.165	163.250	0.114	0.159
-396.150	502.076	-0.067	-0.153
-395.136	-59.886	-0.328	-0.139
-394.121	-200.000	-0.000	-0.260
-393.106	-103.557	-0.117	-0.027
-392.092	800.000	0.131	0.399
-391.077	-23.282	-0.255	0.152
-390.063	-107.892	-0.285	0.062
-389.048	-25.164	0.175	0.103
-388.033	-200.000	-0.048	-0.246
-387.019	-80.396	-0.344	0.114
-386.004	-72.138	0.133	-0.049
-384.990	248.929	-0.031	0.052
-383.975	-200.000	0.075	0.352
-382.960	177.848	0.135	0.195
-381.946	-200.000	0.012	-0.145
-380.931	0.937	0.315	-0.224
-379.917	81.601	0.138	-0.148
-378.902	350.414	0.061	-0.120
-377.888	800.000	-0.009	0.029
-376.873	-200.000	0.023	0.230
-375.858	800.000	-0.039	-0.118
-374.844	122.042	-0.179	0.221
-373.829	-49.772	-0.032	-0.015
-372.815	-165.933	-0.123	-0.005
-371.800	-30.813	0.177	-0.099
-370.785	800.000	0.073	-0.226
-369.771	-55.221	-0.219	-0.098
-368.756	3.590	-0.262	-0.189
-367.742	51.048	0.235	-0.221
-366.727	800.000	-0.076	-0.326
-365.712	800.000	0.094	-0.269
-364.698	739.934	0.106	-0.282
-363.683	84.928	-0.074	0.080
-362.669	22.690	-0.156	0.127
-361.654	64.227	0.198	-0.197
-360.639	58.089	0.181	-0.175
-359.625	-198.472	0.158	-0.001
-358.610	-109.503	0.132	-0.028
-357.596	-200.000	0.041	0.322
-356.581	689.343	-0.109	0.282
-355.566	-200.000	-0.014	-0.181
-354.552	-200.000	-0.043	-0.292
-353.537	145.704	-0.042	0.056
-352.523	-200.000	0.024	0.262
-351.508	-51.322	-0.229	0.106
-350.493	-69.701	-0.083	0.031
-349.479	590.190	0.073	0.179
-348.464	106.695	0.095	0.112
-347.450	-200.000	0.021	-0.247
-346.435	-28.998	-0.212	-0.120
-345.420	-200.000	-0.048	-0.288
-344.406	-85.985	0.319	-0.098
-343.391	-1.553	0.110	0.077
-342.377	45.825	-0.301	-0.275
-341.362	-150.777	0.288	-0.022
-340.348	-84.174	0.103	-0.032
-339.333	91.407	-0.356	-0.396
-338.318	-200.000	0.051	-0.276
-337.304	-15.637	0.153	-0.097
-336.289	377.313	0.026	0.054
-335.275	197.247	-0.104	-0.157
-334.260	-2.951	0.287	0.198
-333.245	-6.552	-0.135	-0.091
-332.231	-200.000	-0.031	0.163
-331.216	-200.000	0.029	-0.200
-330.202	535.151	-0.022	0.051
-329.187	15.442	-0.347	0.270
-328.172	-29.182	-0.223	0.127
-327.158	-117.339	0.092	-0.016
-326.143	20.020	0.185	0.148
-325.129	-181.461	0.184	0.004
-324.114	-0.841	0.307	-0.215
-323.099	-70.940	0.158	-0.059
-322.085	-100.965	-0.247	0.060
-321.070	-85.506	-0.158	-0.049
-320.056	45.445	0.223	-0.204
-319.041	-27.758	-0.123	0.070
-318.026	90.454	0.183	-0.203
-317.012	800.000	-0.037	-0.112
-315.997	93.907	0.019	-0.022
-314.983	118.658	-0.194	-0.237
-313.968	3.159	-0.183	0.131
-312.953	77.928	0.017	0.018
-311.939	-173.873	0.161	0.005
-310.924	800.000	0.097	0.294
-309.910	800.000	-0.052	-0.200
-308.895	-34.073	0.252	-0.137
-307.880	-19.005	-0.162	-0.100
-306.866	609.993	0.120	-0.297
-305.851	734.182	-0.089	-0.235
-304.837	-150.695	-0.156	-0.012
-303.822	-30.454	0.237	-0.133
-302.807	667.821	0.066	-0.168
-301.793	243.763	0.094	-0.155
-300.778	-200.000	-0.003	0.047
-299.764	-179.156	0.089	-0.002
-298.749	-70.165	0.136	-0.051
-297.735	80.219	-0.131	-0.139
-296.720	293.003	0.117	-0.211
-295.705	172.737	0.025	0.035
-294.691	69.878	0.057	-0.058
-293.676	132.293	0.146	0.186
-292.662	40.675	0.264	0.235
-291.647	97.891	0.070	0.079
-290.632	59.976	-0.132	-0.128
-289.618	-16.640	0.236	0.148
-288.603	-40.869	-0.337	0.172
-287.589	93.227	0.101	-0.113
-286.574	73.716	0.217	0.224
-285.559	242.536	-0.064	-0.106
-284.545	-200.000	0.045	-0.247
-283.530	89.556	0.297	-0.328
-282.516	-135.596	-0.448	-0.053
-281.501	476.079	-0.033	-0.073
-280.486	-200.000	-0.036	-0.428
-279.472	800.000	0.056	0.193
-278.457	-102.128	0.044	0.011
-277.443	-39.951	-0.258	-0.133
-276.428	-145.921	-0.198	0.017
-275.413	-62.109	0.258	-0.106
-274.399	-200.000	-0.029	0.420
-273.384	2.129	0.346	0.247
-272.370	-24.218	-0.288	0.170
-271.355	-70.478	0.219	0.082
-270.340	-84.614	-0.237	-0.074
-269.326	-98.853	-0.206	0.052
-268.311	-17.865	-0.119	0.074
-267.297	389.760	0.136	0.278
-266.282	245.268	0.092	0.153
-265.267	-200.000	0.044	-0.244
-264.253	-200.000	0.026	-0.118
-263.238	411.513	0.166	0.348
-262.224	-41.440	0.124	-0.063
-261.209	-194.851	0.316	-0.002
-260.195	-115.810	0.273	-0.050
-259.180	-21.487	-0.280	-0.168
-258.165	87.529	0.132	-0.145
-257.151	-125.410	-0.358	-0.054
-256.136	-200.000	0.001	-0.174
-255.122	-14.122	-0.302	0.192
-254.107	-200.000	-0.016	-0.197
-253.092	113.414	-0.195	0.233
-252.078	172.689	-0.031	0.043
-251.063	800.000	0.056	-0.156
-250.049	418.647	0.104	0.219
-249.034	301.863	-0.063	0.116
-248.019	-59.713	-0.178	0.075
-247.005	490.526	0.109	-0.245
-245.990	114.338	-0.129	0.155
-244.976	-46.210	-0.242	-0.117
-243.961	98.270	-0.014	-0.016
-242.946	-25.027	-0.305	-0.179
-241.932	-200.000	0.022	0.254
-240.917	168.925	-0.102	0.144
-239.903	-38.290	0.271	0.141
-238.888	348.521	-0.024	-0.047
-237.873	-3.310	-0.148	0.102
-236.859	224.228	-0.105	-0.168
-235.844	98.448	0.159	-0.181
-234.830	-200.000	0.027	-0.131
-233.815	-55.697	0.069	-0.030
-232.800	51.977	-0.143	0.134
-231.786	114.356	0.232	-0.278
-230.771	119.869	0.154	0.188
-229.757	-52.793	0.241	-0.110
-228.742	-52.042	-0.130	-0.060
-227.727	212.528	-0.151	-0.235
-226.713	183.590	-0.052	-0.076
-225.698	-200.000	-0.052	-0.281
-224.684	-200.000	-0.114	-0.000
-223.669	-200.000	0.036	0.189
-222.655	-35.401	-0.167	0.089
-221.640	-104.760	-0.439	0.100
-220.625	-69.585	0.212	0.080
-219.611	-95.738	-0.440	-0.116
-218.596	127.551	-0.194	-0.242
-217.582	-200.000	0.008	-0.091
-216.567	-143.163	-0.283	-0.027
-215.552	-164.831	-0.208	-0.009
-214.538	800.000	-0.052	0.221
-213.523	-115.957	0.149	0.027
-212.509	800.000	-0.107	0.336
-211.494	-62.427	-0.159	-0.065
-210.479	19.388	-0.197	-0.156
-209.465	-195.124	0.199	0.001
-208.450	486.136	0.127	0.285
-207.436	22.106	0.174	0.140
-206.421	-200.000	-0.005	-0.228
-205.406	86.273	0.302	0.327
-204.392	385.661	-0.059	0.120
-203.377	332.449	-0.153	0.290
-202.363	800.000	0.095	-0.261
-201.348	35.917	-0.259	0.224
-200.333	-69.704	0.286	-0.108
-199.319	-111.546	0.356	-0.071
-198.304	-200.000	-0.003	-0.274
-197.290	280.073	-0.138	0.242
-196.275	-90.737	-0.141	0.040
-195.260	-5.931	0.123	0.082
-194.246	550.262	-0.138	0.326
-193.231	-102.892	-0.093	-0.022
-192.217	-93.186	0.265	-0.072
-191.202	-6.269	-0.112	-0.075
-190.187	-103.799	0.027	-0.006
-189.173	25.928	0.216	0.177
-188.158	256.346	-0.016	0.026
-187.144	-44.336	-0.118	0.058
-186.129	-200.000	-0.032	0.302
-185.114	-120.920	0.454	0.075
-184.100	-200.000	0.006	0.258
-183.085	189.669	0.127	0.187
-182.071	800.000	-0.121	0.393
-181.056	482.592	0.028	-0.063
-180.042	-133.453	-0.182	-0.022
-179.027	-123.391	-0.059	-0.009
-178.012	800.000	0.175	0.579
-176.998	326.466	0.133	0.251
-175.983	-114.080	-0.247	-0.047
-174.969	83.931	0.258	0.277
-173.954	-200.000	-0.034	0.224
-172.939	-200.000	-0.033	0.377
-171.925	98.262	-0.167	0.189
-170.910	800.000	0.062	0.250
-169.896	-200.000	-0.002	0.249
-168.881	58.286	-0.063	-0.061
-167.866	168.674	0.119	0.167
-166.852	800.000	0.046	-0.187
-165.837	5.567	-0.191	-0.139
-164.823	-85.717	-0.186	0.057
-163.808	-100.578	0.499	0.121
-162.793	-134.424	-0.334	-0.040
-161.779	-200.000	0.003	0.046
-160.764	21.831	-0.123	-0.099
-159.750	360.890	0.098	-0.193
-158.735	800.000	0.019	0.052
-157.720	-200.000	-0.020	-0.092
-156.706	650.042	0.069	-0.174
-155.691	-200.000	0.019	-0.140
-154.677	-119.733	0.207	0.035
-153.662	697.762	-0.090	-0.233
-152.647	-200.000	0.024	-0.429
-151.633	7.958	-0.140	-0.103
-150.618	-200.000	0.068	0.312
-149.604	15.467	0.424	0.327
-148.589	800.000	0.033	-0.097
-147.574	-79.121	-0.224	-0.075
-146.560	105.563	0.172	-0.199
-145.545	-17.505	-0.218	-0.135
-144.531	709.302	0.010	0.025
-143.516	431.067	-0.037	-0.079
-142.502	-200.000	0.089	-0.000
-141.487	-7.749	-0.141	0.094
-140.472	270.444	-0.106	0.184
-139.458	-67.486	0.098	-0.038
-138.443	365.874	0.103	0.205
-137.429	-63.755	-0.041	-0.017
-136.414	-75.684	0.217	-0.076
-135.399	-59.495	-0.174	-0.073
-134.385	-200.000	0.017	-0.148
-133.370	170.038	-0.150	-0.210
-132.356	-31.158	0.325	0.180
-131.341	42.658	-0.225	-0.202
-130.326	521.820	0.168	0.388
-129.312	59.736	0.113	0.109
-128.297	1.084	0.205	0.144
-127.283	47.522	0.397	0.363
-126.268	72.764	-0.107	0.109
-125.253	-200.000	-0.038	0.246
-124.239	-119.356	0.564	0.096
-123.224	84.486	0.037	0.040
-122.210	239.098	0.113	0.184
-121.195	-200.000	-0.033	0.225
-120.180	222.336	0.048	-0.077
-119.166	238.013	0.249	0.405
-118.151	-77.612	-0.399	-0.135
-117.137	-92.096	-0.144	0.040
-116.122	70.169	0.105	0.106
-115.107	-200.000	-0.004	-0.518
-114.093	572.617	0.036	0.087
-113.078	638.191	-0.105	0.262
-112.064	-90.716	0.220	-0.062
-111.049	800.000	-0.060	-0.163
-110.034	-64.785	0.238	-0.095
-109.020	14.879	0.218	0.167
-108.005	23.712	0.081	0.065
-106.991	-52.928	0.211	-0.095
-105.976	-79.814	-0.125	0.041
-104.962	59.820	0.164	-0.159
-103.947	800.000	-0.042	-0.174
-102.932	-111.986	0.358	0.071
-101.918	-26.489	0.117	-0.068
-100.903	-21.801	0.229	-0.137
-99.889	-200.000	-0.230	-0.000
-98.874	47.922	0.269	-0.246
-97.859	-8.253	0.143	0.095
-96.845	-23.693	-0.172	-0.101
-95.830	71.133	-0.114	0.116
-94.816	105.577	-0.287	-0.333
-93.801	381.504	0.019	-0.038
-92.786	215.227	0.133	-0.207
-91.772	-200.000	0.011	0.258
-90.757	-160.918	-0.209	0.011
-89.743	-200.000	0.033	-0.296
-88.728	35.763	-0.130	-0.112
-87.713	-200.000	-0.009	-0.077
-86.699	-81.654	-0.335	0.108
-85.684	800.000	0.029	0.090
-84.670	99.030	0.099	-0.112
-83.655	41.024	-0.093	-0.082
-82.640	70.059	0.221	-0.223
-81.626	-101.741	-0.231	0.055
-80.611	385.909	0.074	0.149
-79.597	598.149	0.111	-0.270
-78.582	198.583	0.066	-0.098
-77.567	51.802	-0.154	0.144
-76.553	717.209	0.059	0.152
-75.538	-61.315	0.268	0.111
-74.524	-98.547	-0.205	-0.051
-73.509	259.400	0.049	0.083
-72.494	169.160	-0.207	0.289
-71.480	559.938	0.109	0.258
-70.465	134.339	0.119	0.152
-69.451	-167.791	0.100	-0.004
-68.436	-200.000	-0.006	0.339
-67.422	-142.157	0.170	-0.016
-66.407	-125.368	-0.021	0.003
-65.392	248.775	0.060	-0.100
-64.378	-84.235	-0.175	0.054
-63.363	-168.159	0.324	0.012
-62.349	800.000	0.063	-0.206
-61.334	74.167	-0.901	-0.926
-60.319	416.258	0.379	0.791
-59.305	571.363	-0.459	-1.094
-58.290	208.005	0.549	0.839
-57.276	458.058	0.766	1.666
-56.261	-200.000	109.812	628.264
-55.246	469.260	1491.100	3277.820
-54.232	149.049	2659.196	3520.905
-53.217	105.597	2160.354	2499.493
-52.203	39.228	1696.184	1485.566
-51.188	32.219	1514.760	1279.114
-50.173	29.772	1490.810	1242.427
-49.159	52.847	1546.599	1447.323
-48.144	52.915	1562.996	1463.076
-47.130	32.450	1519.656	1284.623
-46.115	29.332	1505.270	1251.295
-45.100	29.120	1502.084	1247.162
-44.086	29.117	1500.099	1245.440
-43.071	29.130	1497.663	1243.457
-42.057	29.125	1495.863	1241.882
-41.042	29.031	1494.815	1240.326
-40.027	28.952	1493.753	1238.861
-39.013	29.033	1492.009	1237.916
-37.998	28.965	1491.100	1236.654
-36.984	29.016	1489.712	1235.797
-35.969	28.968	1488.934	1234.781
-34.954	29.062	1487.379	1234.073
-33.940	29.063	1486.013	1232.894
-32.925	29.087	1484.310	1231.592
-31.911	29.065	1483.393	1230.636
-30.896	29.057	1482.007	1229.385
-29.881	29.146	1480.584	1228.750
-28.867	29.064	1479.531	1227.281
-27.852	29.026	1477.882	1225.612
-26.838	29.100	1476.707	1225.077
-25.823	29.175	1474.671	1223.837
-24.809	29.114	1473.429	1222.356
-23.794	29.069	1472.008	1220.833
-22.779	29.103	1470.766	1219.974
-21.765	29.076	1470.141	1219.229
-20.750	29.145	1468.751	1218.487
-19.736	29.029	1467.626	1216.740
-18.721	28.920	1466.990	1215.443
-17.706	29.050	1465.521	1215.037
-16.692	29.084	1464.293	1214.190
-15.677	28.965	1463.645	1212.824
-14.663	29.038	1462.455	1212.272
-13.648	29.038	1461.340	1211.298
-12.633	29.082	1460.280	1210.657
-11.619	29.036	1459.957	1210.041
-10.604	29.003	1459.152	1209.110
-9.590	28.991	1457.970	1208.001
-8.575	29.046	1456.937	1207.460
-7.560	29.017	1456.561	1206.909
-6.546	29.101	1455.171	1206.261
-5.531	29.088	1453.963	1205.125
-4.517	28.970	1453.993	1204.331
-3.502	28.979	1452.268	1202.911
-2.487	28.911	1451.888	1202.107
-1.473	29.027	1450.669	1201.808
-0.458	29.042	1449.372	1200.783
0.556	27.145	1439.450	1188.090
1.571	23.997	1413.471	1146.301
2.586	20.208	1351.855	1072.845
3.600	18.335	1268.870	996.009
4.615	17.399	1223.601	955.143
5.629	16.225	1171.024	907.705
6.644	12.592	1094.434	829.971
7.659	9.434	1059.054	787.634
8.673	8.930	1053.871	781.253
9.688	8.748	1051.002	778.171
10.702	8.811	1049.273	777.131
11.717	8.712	1047.292	775.112
12.731	10.298	1047.035	782.528
13.746	13.944	1052.188	803.987
14.761	17.115	1056.083	822.268
15.775	17.801	1055.542	825.096
16.790	16.819	1053.987	819.063
17.804	15.937	1051.540	812.834
18.819	14.985	1049.883	806.891
19.834	14.490	1048.340	803.252
20.848	14.057	1047.317	800.311
21.863	13.944	1046.949	799.414
22.877	13.624	1045.977	797.067
23.892	13.541	1045.241	796.037
24.907	13.456	1044.346	794.875
25.921	13.488	1043.581	794.374
26.936	13.371	1042.827	793.170
27.950	13.476	1042.092	793.044
28.965	13.462	1041.006	792.081
29.980	13.591	1039.854	791.751
30.994	13.736	1038.350	791.227
32.009	13.686	1037.433	790.221
33.023	13.726	1036.697	789.782
34.038	13.740	1035.675	788.995
35.053	13.608	1035.138	787.893
36.067	13.565	1034.049	786.788
37.082	13.732	1032.677	786.469
38.096	13.680	1032.200	785.786
39.111	13.617	1031.524	784.906
40.126	13.633	1030.783	784.349
41.140	13.642	1029.932	783.674
42.155	13.529	1028.424	781.921
43.169	13.422	1027.395	780.567
44.184	13.506	1026.173	779.965
45.199	13.341	1025.373	778.509
46.213	13.335	1024.915	778.066
47.228	13.454	1023.310	777.338
48.242	13.595	1022.206	777.093
49.257	13.571	1021.697	776.525
50.271	13.610	1020.520	775.741
51.286	13.426	1019.513	774.047
52.301	13.668	1018.676	774.474
53.315	13.581	1017.951	773.451
54.330	13.527	1017.232	772.582
55.344	13.478	1016.602	771.809
56.359	13.469	1014.925	770.422
57.374	13.419	1014.657	769.922
58.388	13.557	1013.599	769.690
59.403	13.376	1013.432	768.653
60.417	13.390	1012.370	767.847
61.432	13.476	1011.202	767.292
62.447	13.412	1010.736	766.573
63.461	13.340	1009.960	765.582
64.476	13.251	1008.969	764.352
65.490	13.293	1008.035	763.773
66.505	13.265	1007.396	763.093
67.520	13.433	1006.401	763.046
68.534	13.346	1005.792	762.114
69.549	13.390	1004.520	761.287
70.563	13.450	1004.312	761.335
71.578	13.479	1003.160	760.530
72.593	13.284	1002.471	759.042
73.607	13.297	1001.322	758.164
74.622	13.261	1000.550	757.350
75.636	13.229	999.969	756.696
76.651	13.266	998.897	755.987
77.666	13.394	997.817	755.689
78.680	13.303	997.556	755.007
79.695	13.256	997.061	754.354
80.709	13.344	996.958	754.609
81.724	13.365	995.533	753.557
82.739	13.376	994.614	752.848
83.753	13.465	993.783	752.557
84.768	13.477	993.718	752.494
85.782	13.728	992.928	752.972
86.797	13.698	992.276	752.274
87.812	13.676	991.432	751.466
88.826	13.561	990.678	750.305
89.841	13.468	990.196	749.454
90.855	13.593	988.952	749.014
91.870	13.661	988.189	748.675
92.884	13.611	987.539	747.893
93.899	13.662	986.917	747.584
94.914	13.620	986.442	746.967
95.928	13.802	985.156	746.745
96.943	13.809	984.273	746.044
97.957	13.743	983.745	745.281
98.972	13.632	983.124	744.247
99.987	13.666	982.191	743.626
101.001	13.591	981.787	742.918
102.016	13.626	981.079	742.475
103.030	13.692	979.619	741.599
104.045	13.594	979.177	740.761
105.060	13.722	977.564	740.047
106.074	13.626	976.957	739.093
107.089	13.618	975.948	738.227
108.103	13.365	975.604	736.778
109.118	13.436	974.025	735.833
110.133	13.396	973.176	734.949
111.147	13.334	973.091	734.545
112.162	13.467	971.546	733.905
113.176	13.557	970.816	733.685
114.191	13.574	970.042	733.110
115.206	13.487	969.307	732.107
116.220	13.470	968.315	731.219
117.235	13.517	967.717	730.908
118.249	13.579	966.496	730.195
119.264	13.428	965.863	728.986
120.279	13.575	964.624	728.636
121.293	13.499	964.358	728.036
122.308	13.409	963.814	727.165
123.322	13.404	962.703	726.238
124.337	13.437	961.273	725.239
125.352	13.434	960.123	724.297
126.366	13.386	959.353	723.444
127.381	13.364	958.352	722.525
128.395	13.412	957.279	721.862
129.410	13.470	956.215	721.249
130.424	13.387	955.630	720.381
131.439	13.471	954.750	720.020
132.454	13.432	954.169	719.349
133.468	13.485	953.674	719.144
134.483	13.412	953.299	718.480
135.497	13.574	952.126	718.236
136.512	13.604	950.964	717.425
137.527	13.512	950.739	716.792
138.541	13.596	949.564	716.205
139.556	13.465	948.992	715.144
140.570	13.578	948.289	715.040
141.585	13.686	947.443	714.807
142.600	13.619	946.838	713.996
143.614	13.693	946.343	713.878
144.629	13.711	945.494	713.254
145.643	13.681	944.927	712.635
146.658	13.670	944.142	711.930
147.673	13.704	943.005	711.156
148.687	13.581	942.200	709.957
149.702	13.677	940.966	709.378
150.716	13.588	940.170	708.336
151.731	13.750	939.455	708.424
152.746	13.585	938.458	706.907
153.760	13.539	938.310	706.535
154.775	13.628	937.447	706.201
155.789	13.685	936.864	705.945
156.804	13.680	935.854	705.101
157.819	13.712	935.385	704.821
158.833	13.682	934.733	704.140
159.848	13.777	934.066	703.979
160.862	13.814	933.463	703.617
161.877	13.870	932.316	702.927
162.892	13.862	931.243	702.023
163.906	13.740	930.643	700.990
164.921	13.791	929.895	700.584
165.935	13.671	929.020	699.353
166.950	13.736	928.378	699.084
167.964	13.752	927.124	698.143
168.979	13.788	926.205	697.542
169.994	13.769	925.298	696.718
171.008	13.747	924.282	695.798
172.023	13.846	923.804	695.791
173.037	13.866	923.001	695.208
174.052	13.841	922.184	694.429
175.067	13.959	921.598	694.420
176.081	13.759	920.931	693.019
177.096	13.880	919.933	692.711
178.110	13.888	919.297	692.204
179.125	13.754	918.564	691.035
180.140	13.849	917.749	690.756
181.154	14.000	916.884	690.672
182.169	13.924	916.393	689.926
183.183	13.950	915.886	689.589
184.198	13.909	915.303	688.919
185.213	14.057	914.418	688.807
186.227	13.952	914.260	688.189
187.242	14.087	913.376	688.024
188.256	14.162	912.563	687.659
189.271	14.290	911.477	687.310
190.286	14.214	911.135	686.678
191.300	14.020	910.365	685.237
192.315	13.857	909.658	683.972
193.329	13.845	908.563	683.039
194.344	13.712	908.586	682.449
195.359	13.785	907.818	682.111
196.373	14.079	907.117	682.731
197.388	14.126	906.536	682.426
198.402	14.063	906.207	681.858
199.417	14.192	905.900	682.098
200.432	14.375	905.695	682.633
201.446	14.342	905.346	682.175
202.461	14.349	904.435	681.457
203.475	14.292	904.267	681.034
204.490	14.423	903.378	680.842
205.504	14.213	902.993	679.633
206.519	14.216	901.928	678.783
207.534	14.169	901.077	677.891
208.548	14.281	900.402	677.777
209.563	14.170	899.673	676.720
210.577	14.289	898.662	676.381
211.592	14.347	898.318	676.301
212.607	14.319	898.166	676.012
213.621	14.526	897.257	676.107
214.636	14.395	896.524	674.963
215.650	14.417	896.005	674.601
216.665	14.284	896.195	674.148
217.680	14.441	894.710	673.606
218.694	14.589	894.240	673.789
219.709	14.521	893.694	673.044
220.723	14.571	892.941	672.617
221.738	14.482	892.366	671.770
222.753	14.528	891.533	671.266
223.767	14.598	890.910	671.021
224.782	14.539	890.735	670.593
225.796	14.646	889.682	670.169
226.811	14.611	888.902	669.383
227.826	14.563	888.465	668.801
228.840	14.726	887.277	668.502
229.855	14.497	886.660	667.059
230.869	14.583	886.124	666.939
231.884	14.610	885.361	666.415
232.899	14.615	884.616	665.818
233.913	14.550	883.871	664.938
234.928	14.466	883.294	664.108
235.942	14.578	882.508	663.904
236.957	14.429	882.143	662.979
237.972	14.607	881.134	662.871
238.986	14.599	880.637	662.408
240.001	14.606	879.835	661.771
241.015	14.693	879.124	661.521
242.030	14.566	878.694	660.639
243.045	14.625	877.980	660.276
244.059	14.720	877.342	660.116
245.074	14.659	877.000	659.559
246.088	14.718	876.471	659.334
247.103	14.681	875.967	658.749
248.117	14.864	875.325	658.930
249.132	14.774	874.827	658.141
250.147	14.784	874.479	657.861
251.161	14.955	873.606	657.819
252.176	15.092	873.218	658.008
253.190	15.185	872.082	657.457
254.205	15.101	871.973	656.988
255.220	15.213	871.046	656.672
256.234	15.254	870.339	656.241
257.249	15.292	869.830	655.946
258.263	15.161	869.521	655.145
259.278	15.139	868.718	654.393
260.293	15.241	868.414	654.507
261.307	15.118	867.819	653.520
262.322	15.195	867.420	653.463
263.336	15.169	866.915	652.922
264.351	15.396	865.823	652.926
265.366	15.375	864.825	652.032
266.380	15.574	864.605	652.582
267.395	15.397	863.974	651.362
268.409	15.449	863.220	650.936
269.424	15.395	862.721	650.296
270.439	15.497	861.722	649.879
271.453	15.493	860.929	649.207
272.468	15.305	860.361	647.995
273.482	15.339	859.806	647.651
274.497	15.335	859.255	647.165
275.512	15.270	858.638	646.389
276.526	15.257	857.947	645.765
277.541	15.249	857.540	645.369
278.555	15.366	856.578	645.039
279.570	15.501	856.231	645.240
280.585	15.469	855.903	644.810
281.599	15.604	855.177	644.727
282.614	15.581	854.262	643.891
283.628	15.556	853.361	643.057
284.643	15.467	852.943	642.345
285.657	15.616	852.083	642.212
286.672	15.557	851.995	641.861
287.687	15.466	851.486	641.075
288.701	15.599	851.164	641.284
289.716	15.601	850.221	640.523
290.730	15.478	850.504	640.211
291.745	15.665	849.320	639.976
292.760	15.499	848.836	638.921
293.774	15.519	848.303	638.539
294.789	15.674	847.714	638.629
295.803	15.728	847.026	638.261
296.818	15.712	846.559	637.790
297.833	15.644	845.474	636.659
298.847	15.734	844.406	636.140
299.862	15.617	844.114	635.422
300.876	15.664	843.700	635.228
301.891	15.911	842.691	635.349
302.906	15.928	842.195	634.979
303.920	15.703	841.928	633.873
304.935	16.063	840.663	634.220
305.949	16.054	840.486	633.996
306.964	15.828	840.256	632.920
307.979	15.905	839.312	632.442
308.993	15.835	839.099	631.960
310.008	15.990	838.112	631.741
311.022	16.144	837.687	631.942
312.037	16.051	837.209	631.180
313.052	15.992	836.735	630.544
314.066	15.899	836.162	629.709
315.081	15.822	835.673	628.998
316.095	15.984	835.004	629.042
317.110	15.933	834.634	628.519
318.125	16.006	833.766	628.083
319.139	15.754	833.979	627.245
320.154	15.994	833.054	627.390
321.168	16.030	832.205	626.827
322.183	16.031	831.763	626.443
323.197	16.042	831.183	625.993
324.212	15.774	830.860	624.699
325.227	16.025	830.136	625.028
326.241	16.155	829.498	624.976
327.256	16.175	828.904	624.547
328.270	15.992	828.643	623.620
329.285	16.031	827.985	623.211
330.300	16.012	827.580	622.781
331.314	16.021	827.059	622.367
332.329	16.115	825.988	621.854
333.343	16.051	825.629	621.292
334.358	16.176	825.249	621.413
335.373	16.234	824.444	620.964
336.387	16.278	823.714	620.521
337.402	16.288	823.335	620.219
338.416	16.188	823.071	619.597
339.431	16.222	822.356	619.128
340.446	16.309	821.860	619.020
341.460	16.398	821.241	618.823
342.475	16.415	820.517	618.287
343.489	16.529	819.826	618.128
344.504	16.570	819.784	618.189
345.519	16.569	818.921	617.482
346.533	16.725	818.502	617.678
347.548	16.467	817.984	616.293
348.562	16.564	817.334	616.102
349.577	16.432	817.227	615.489
350.592	16.472	816.149	614.765
351.606	16.305	816.051	614.029
352.621	16.393	815.453	613.848
353.635	16.397	814.991	613.458
354.650	16.524	814.531	613.518
355.665	16.457	814.570	613.251
356.679	16.489	813.885	612.798
357.694	16.488	813.653	612.565
358.708	16.516	813.108	612.202
359.723	16.595	812.491	611.967
360.738	16.640	811.860	611.602
361.752	16.726	811.149	611.322
362.767	16.713	810.476	610.713
363.781	16.694	810.352	610.496
364.796	16.662	810.216	610.227
365.810	16.893	809.785	610.682
366.825	16.954	808.875	610.159
367.840	16.834	808.739	609.570
368.854	16.773	808.563	609.166
369.869	16.877	808.111	609.143
370.883	16.831	807.283	608.300
371.898	16.756	806.989	607.756
372.913	16.860	806.321	607.571
373.927	16.868	805.965	607.279
374.942	16.902	805.278	606.831
375.956	17.115	804.039	606.604
376.971	17.051	803.976	606.274
377.986	16.958	803.527	605.551
379.000	17.039	802.838	605.266
380.015	17.106	802.324	605.064
381.029	17.191	802.015	605.078
382.044	17.035	801.236	603.881
383.059	17.205	800.469	603.854
384.073	17.187	800.063	603.432
385.088	17.155	799.790	603.060
386.102	16.904	799.359	601.791
387.117	17.100	798.411	601.717
388.132	17.075	798.118	601.356
389.146	17.118	797.563	601.035
390.161	17.179	797.005	600.779
391.175	17.177	796.766	600.538
392.190	17.241	796.511	600.518
393.205	17.133	796.433	600.024
394.219	17.214	795.479	599.539
395.234	17.104	795.097	598.808
396.248	17.196	794.413	598.566
397.263	17.084	794.252	597.996
398.278	17.013	793.692	597.274
399.292	17.048	792.870	596.723
400.307	17.028	792.891	596.619
401.321	17.055	792.703	596.518
402.336	17.121	791.903	596.095
403.350	17.233	791.465	596.105
404.365	17.232	791.013	595.708
405.380	17.222	790.817	595.474
406.394	17.305	790.319	595.337
407.409	17.373	790.001	595.283
408.423	17.519	789.464	595.337
409.438	17.394	789.092	594.566
410.453	17.494	788.531	594.437
411.467	17.519	788.461	594.420
412.482	17.574	787.673	593.965
413.496	17.641	786.901	593.564
414.511	17.657	786.855	593.532
415.526	17.725	786.469	593.425
416.540	17.644	786.247	592.924
417.555	17.579	785.863	592.355
418.569	17.608	785.420	592.072
419.584	17.627	784.750	591.579
420.599	17.510	784.688	591.075
421.613	110.690	1292.173	1473.043
422.628	94.902	1366.070	1473.144
