DTS Sentinel unit serial number:	SN413079Multiplexer serial number:	ORYXHardware model number:	OX4-SRSoftware version number:	ORYX F/W v4.00 Oryx Data Collector v3.7.2.0data status	okinstallation	princeton_trtdifferential loss correction	single-endedforward channel	channel 3reverse channel	N/Adate	2019/09/11time	15:30:10forward acquisition time	60.00reverse acquisition time	0.00gamma	496.2192k internal	0.2289k external	0.2289temperature offset calibration	0.9984default loss term (dB/km)	0.3790temperature slope calibration	1.0000multiplexer offset coefficient	1.0000multiplexer slope coefficient	1.0000fibre end	0.00T internal ref (°C)	42.87T ext. ref 1 (°C)	0.98T ext. ref 2 (°C)	37.18length (m)	temperature (°C)	Stokes	anti-Stokes-747.200	-96.171	-0.156	0.042
-746.185	-3.799	-0.158	0.113
-745.171	27.695	0.051	0.044
-744.156	256.613	-0.067	-0.118
-743.142	-80.051	0.231	-0.079
-742.127	591.120	0.140	0.354
-741.112	98.463	0.122	-0.144
-740.098	-66.736	0.109	-0.044
-739.083	-68.574	-0.120	-0.048
-738.069	800.000	-0.088	0.332
-737.054	-34.837	0.199	-0.112
-736.039	-124.357	-0.132	-0.021
-735.025	105.796	-0.151	-0.183
-734.010	551.851	0.079	0.194
-732.996	-153.756	0.058	-0.004
-731.981	800.000	0.085	-0.263
-730.966	309.493	-0.134	0.257
-729.952	-49.718	-0.152	0.074
-728.937	-72.670	-0.442	0.167
-727.923	730.382	-0.053	0.146
-726.908	318.285	-0.167	-0.323
-725.894	-200.000	-0.049	0.247
-724.879	12.357	-0.209	0.165
-723.864	212.051	-0.138	0.223
-722.850	393.138	0.205	0.436
-721.835	592.424	-0.125	0.317
-720.821	-200.000	0.044	0.245
-719.806	-148.604	-0.267	0.022
-718.791	55.443	-0.213	0.211
-717.777	632.416	0.054	-0.140
-716.762	124.529	-0.040	0.051
-715.748	800.000	-0.060	0.265
-714.733	234.532	0.008	0.013
-713.718	156.594	-0.079	0.112
-712.704	6.783	0.166	0.126
-711.689	-200.000	-0.017	-0.100
-710.675	348.689	-0.085	0.172
-709.660	-82.338	-0.389	-0.130
-708.645	148.285	0.089	-0.122
-707.631	-37.422	0.142	0.078
-706.616	-139.173	0.217	0.024
-705.602	44.460	0.209	0.196
-704.587	-145.398	0.095	-0.009
-703.572	344.746	0.076	0.152
-702.558	-200.000	0.000	0.217
-701.543	251.888	0.093	-0.162
-700.529	8.249	0.420	0.323
-699.514	-35.513	0.201	-0.112
-698.499	168.186	-0.051	0.074
-697.485	-200.000	0.020	0.282
-696.470	515.726	-0.069	-0.166
-695.456	-200.000	-0.042	0.362
-694.441	-114.143	0.444	0.088
-693.426	-200.000	0.008	0.093
-692.412	800.000	-0.015	0.055
-691.397	623.928	-0.036	0.094
-690.383	800.000	0.003	0.013
-689.368	13.445	-0.119	-0.095
-688.354	-200.000	0.015	-0.138
-687.339	800.000	-0.057	-0.237
-686.324	24.627	-0.194	0.164
-685.310	-200.000	0.037	0.214
-684.295	-102.969	-0.226	0.055
-683.281	-200.000	0.037	-0.170
-682.266	-200.000	0.035	0.202
-681.251	-200.000	0.010	-0.309
-680.237	-126.956	-0.096	0.014
-679.222	82.174	0.237	0.263
-678.208	-114.754	0.092	0.018
-677.193	135.457	0.040	0.053
-676.178	-46.878	0.191	0.096
-675.164	-19.506	0.189	-0.119
-674.149	-138.006	0.045	-0.005
-673.135	-141.456	-0.400	0.041
-672.120	-122.891	-0.117	-0.019
-671.105	-119.934	0.231	-0.041
-670.091	-71.967	-0.118	0.045
-669.076	108.499	-0.065	0.080
-668.062	-200.000	-0.010	0.074
-667.047	45.326	-0.223	-0.210
-666.032	361.830	0.124	-0.253
-665.018	-200.000	-0.002	0.156
-664.003	-120.587	0.293	-0.051
-662.989	105.507	-0.173	-0.209
-661.974	539.765	0.176	-0.429
-660.959	-119.995	0.110	0.019
-659.945	-117.785	0.356	-0.065
-658.930	520.824	-0.093	-0.223
-657.916	-133.851	0.098	0.012
-656.901	113.315	-0.179	0.222
-655.886	11.955	-0.020	-0.015
-654.872	249.358	0.259	0.448
-653.857	-200.000	0.015	-0.516
-652.843	800.000	0.009	0.039
-651.828	-76.201	-0.352	0.127
-650.814	-82.608	-0.407	0.135
-649.799	-200.000	-0.006	-0.132
-648.784	797.116	0.144	-0.406
-647.770	-169.854	-0.043	0.002
-646.755	-200.000	0.034	0.516
-645.741	59.545	-0.199	0.200
-644.726	-74.075	0.318	0.118
-643.711	-200.000	-0.028	0.268
-642.697	99.186	-0.073	0.086
-641.682	-106.380	0.180	-0.041
-640.668	-200.000	0.054	0.502
-639.653	722.958	-0.053	-0.143
-638.638	144.916	-0.112	-0.153
-637.624	-161.081	-0.090	-0.005
-636.609	-200.000	0.002	-0.130
-635.595	275.729	-0.151	0.273
-634.580	609.801	-0.141	0.359
-633.565	-46.056	0.219	-0.110
-632.551	-135.226	-0.422	-0.052
-631.536	-131.159	-0.136	0.018
-630.522	-179.092	-0.171	-0.004
-629.507	800.000	-0.043	0.133
-628.492	-200.000	0.006	0.132
-627.478	238.960	0.152	-0.258
-626.463	94.999	0.094	0.109
-625.449	-88.800	0.276	0.084
-624.434	-200.000	-0.021	-0.512
-623.419	-200.000	0.044	0.276
-622.405	164.071	-0.111	-0.159
-621.390	-111.757	0.198	-0.041
-620.376	800.000	0.048	-0.181
-619.361	-140.030	-0.141	-0.015
-618.346	800.000	0.014	-0.054
-617.332	137.361	-0.121	0.161
-616.317	-69.351	0.146	-0.057
-615.303	-86.121	-0.206	0.065
-614.288	800.000	0.075	-0.211
-613.273	-34.400	0.228	-0.127
-612.259	-34.887	0.112	0.063
-611.244	-25.883	-0.127	0.076
-610.230	-10.957	-0.151	-0.101
-609.215	-3.831	-0.188	-0.133
-608.201	49.120	-0.376	0.361
-607.186	64.775	0.309	0.318
-606.171	-68.922	-0.273	0.108
-605.157	-28.499	-0.229	0.134
-604.142	-200.000	0.013	-0.221
-603.128	527.128	0.077	-0.186
-602.113	-147.863	-0.208	-0.018
-601.098	279.748	0.135	0.245
-600.084	-200.000	-0.033	-0.242
-599.069	-76.011	-0.160	0.058
-598.055	-200.000	0.016	0.121
-597.040	240.173	-0.129	0.218
-596.025	26.588	-0.009	-0.008
-595.011	-146.759	0.277	-0.024
-593.996	0.996	0.175	-0.128
-592.982	-124.957	0.158	0.025
-591.967	-59.092	-0.147	0.064
-590.952	-125.793	-0.115	0.018
-589.938	162.347	-0.100	0.142
-588.923	800.000	-0.068	-0.226
-587.909	-132.800	-0.317	0.041
-586.894	-187.263	-0.093	0.001
-585.879	-103.759	0.150	0.036
-584.865	-200.000	-0.006	0.257
-583.850	264.049	-0.197	-0.350
-582.836	-13.585	0.106	0.070
-581.821	-142.432	0.150	-0.015
-580.806	-70.388	-0.392	0.151
-579.792	304.649	-0.093	-0.177
-578.777	-200.000	0.012	0.169
-577.763	-200.000	0.032	-0.184
-576.748	-200.000	0.034	-0.330
-575.733	160.656	-0.107	-0.152
-574.719	88.983	-0.313	-0.355
-573.704	43.518	-0.168	-0.156
-572.690	800.000	-0.059	0.205
-571.675	-119.565	0.574	0.101
-570.661	-80.609	0.290	-0.098
-569.646	261.102	0.205	0.361
-568.631	-76.531	0.223	0.080
-567.617	-200.000	-0.038	-0.331
-566.602	-18.657	-0.370	-0.235
-565.588	-40.303	-0.198	0.105
-564.573	-200.000	-0.006	-0.269
-563.558	-200.000	-0.012	-0.196
-562.544	-200.000	-0.011	0.075
-561.529	19.796	0.106	-0.087
-560.515	210.243	0.101	0.162
-559.500	-125.076	-0.100	-0.016
-558.485	-200.000	-0.011	0.084
-557.471	-200.000	-0.022	-0.297
-556.456	-131.326	0.236	-0.032
-555.442	-15.473	-0.299	-0.194
-554.427	236.833	-0.110	0.185
-553.412	100.160	-0.180	0.212
-552.398	-22.385	-0.169	0.104
-551.383	103.503	0.106	-0.126
-550.369	-8.906	0.260	0.177
-549.354	123.998	0.109	-0.139
-548.339	-99.596	0.141	0.036
-547.325	-103.848	0.123	0.029
-546.310	-32.376	0.259	-0.147
-545.296	-82.520	-0.356	-0.118
-544.281	-200.000	0.036	-0.288
-543.266	-200.000	0.011	-0.265
-542.252	-200.000	-0.018	-0.352
-541.237	-200.000	0.025	0.145
-540.223	63.906	0.223	-0.228
-539.208	-116.392	-0.294	-0.055
-538.193	-127.941	-0.281	-0.041
-537.179	50.845	-0.198	-0.190
-536.164	800.000	0.176	-0.512
-535.150	193.154	0.031	-0.048
-534.135	-111.208	0.240	0.050
-533.121	800.000	-0.095	0.312
-532.106	-200.000	-0.027	-0.285
-531.091	-200.000	0.051	-0.239
-530.077	155.979	-0.016	0.022
-529.062	-200.000	-0.066	-0.419
-528.048	149.535	0.075	0.103
-527.033	-200.000	0.002	0.135
-526.018	139.630	0.137	-0.183
-525.004	48.413	-0.050	-0.048
-523.989	-54.090	-0.208	0.096
-522.975	113.470	-0.065	0.080
-521.960	-200.000	0.015	0.136
-520.945	800.000	-0.119	-0.426
-519.931	-139.238	0.143	-0.016
-518.916	228.913	0.185	-0.306
-517.902	28.516	0.310	-0.266
-516.887	800.000	0.088	-0.368
-515.872	-153.233	-0.318	-0.023
-514.858	-177.087	0.359	0.009
-513.843	70.268	-0.044	-0.046
-512.829	664.257	-0.119	0.311
-511.814	72.173	-0.216	0.229
-510.799	301.618	-0.047	0.088
-509.785	-200.000	-0.002	-0.076
-508.770	-200.000	-0.022	-0.467
-507.756	13.971	-0.270	0.213
-506.741	-93.944	0.131	0.037
-505.726	-59.478	-0.099	-0.043
-504.712	50.061	-0.246	0.235
-503.697	-200.000	0.005	0.121
-502.683	-102.094	0.189	0.046
-501.668	86.527	0.170	-0.190
-500.653	-68.463	-0.137	-0.054
-499.639	-200.000	0.044	-0.303
-498.624	156.764	-0.082	-0.114
-497.610	-200.000	-0.046	0.412
-496.595	-81.584	-0.122	-0.041
-495.581	299.341	-0.064	-0.119
-494.566	-85.432	0.186	0.059
-493.551	-116.404	0.106	0.020
-492.537	-59.367	0.237	-0.103
-491.522	-27.986	0.238	-0.140
-490.508	180.365	0.087	0.130
-489.493	-83.838	0.295	0.096
-488.478	-200.000	0.015	-0.314
-487.464	-168.242	-0.190	-0.007
-486.449	356.509	0.147	0.297
-485.435	800.000	0.069	0.277
-484.420	128.350	0.283	0.365
-483.405	444.941	0.048	0.107
-482.391	698.655	-0.147	0.393
-481.376	100.214	-0.079	-0.093
-480.362	81.436	0.211	-0.231
-479.347	-200.000	0.037	-0.258
-478.332	-200.000	-0.028	0.192
-477.318	-98.503	-0.139	0.036
-476.303	184.207	-0.161	-0.242
-475.289	71.427	-0.191	0.201
-474.274	41.702	-0.187	0.172
-473.259	-200.000	-0.008	-0.174
-472.245	42.294	-0.289	0.267
-471.230	86.567	0.179	0.200
-470.216	-200.000	0.007	-0.399
-469.201	63.800	0.128	-0.130
-468.186	37.999	0.165	0.149
-467.172	-109.321	-0.135	0.029
-466.157	6.995	-0.107	-0.081
-465.143	-169.554	-0.186	-0.007
-464.128	-200.000	-0.031	-0.176
-463.113	-200.000	-0.006	-0.155
-462.099	800.000	-0.060	0.190
-461.084	-149.185	0.098	0.008
-460.070	3.489	-0.088	-0.065
-459.055	-82.539	-0.150	-0.049
-458.040	-64.589	0.327	0.135
-457.026	18.897	0.222	0.180
-456.011	128.078	-0.067	0.086
-454.997	563.438	0.131	-0.321
-453.982	-100.896	0.188	0.047
-452.968	-134.529	0.116	0.014
-451.953	-121.759	-0.183	0.031
-450.938	-200.000	-0.013	0.078
-449.924	400.767	0.114	-0.243
-448.909	-44.272	0.166	-0.084
-447.895	493.217	0.017	0.039
-446.880	-200.000	0.020	0.248
-445.865	-160.767	0.228	-0.012
-444.851	-70.860	-0.243	-0.093
-443.836	144.506	-0.011	0.015
-442.822	-72.450	0.130	0.049
-441.807	-9.584	-0.361	0.244
-440.792	-200.000	-0.017	-0.337
-439.778	800.000	0.030	-0.091
-438.763	48.240	-0.294	0.278
-437.749	168.707	0.187	0.270
-436.734	246.803	-0.098	-0.167
-435.719	-200.000	0.010	0.218
-434.705	233.977	-0.105	0.175
-433.690	-130.087	-0.054	0.007
-432.676	-2.752	-0.117	-0.083
-431.661	-200.000	0.007	0.056
-430.646	-38.961	-0.042	-0.022
-429.632	-59.815	-0.056	0.024
-428.617	-148.940	-0.046	-0.004
-427.603	-31.305	0.221	0.126
-426.588	35.407	0.262	-0.233
-425.573	438.654	-0.128	-0.282
-424.559	-44.748	-0.332	0.168
-423.544	-200.000	-0.039	-0.292
-422.530	20.766	-0.257	0.211
-421.515	-102.907	-0.143	-0.034
-420.500	-69.067	0.292	0.114
-419.486	219.270	0.039	0.063
-418.471	-42.332	0.343	-0.177
-417.457	-200.000	-0.036	0.198
-416.442	800.000	0.023	0.084
-415.428	-39.770	-0.225	0.119
-414.413	2.454	0.138	0.101
-413.398	569.411	-0.083	-0.205
-412.384	-161.597	-0.072	-0.004
-411.369	18.413	-0.057	-0.046
-410.355	156.582	0.152	0.213
-409.340	-114.581	0.175	-0.034
-408.325	42.790	-0.171	-0.157
-407.311	800.000	-0.021	0.089
-406.296	-134.835	0.160	-0.020
-405.282	-200.000	0.017	-0.227
-404.267	414.645	0.081	0.175
-403.252	-199.634	0.045	0.000
-402.238	-200.000	-0.019	-0.182
-401.223	38.107	-0.173	0.156
-400.209	800.000	0.012	0.043
-399.194	86.259	0.051	0.057
-398.179	20.409	0.124	0.102
-397.165	-44.128	0.294	-0.149
-396.150	-40.165	-0.122	0.064
-395.136	-90.641	0.204	-0.059
-394.121	800.000	-0.092	0.266
-393.106	751.224	-0.087	-0.238
-392.092	-141.088	-0.241	-0.025
-391.077	800.000	-0.072	0.269
-390.063	-83.654	0.245	0.079
-389.048	800.000	-0.087	-0.305
-388.033	187.480	0.067	-0.100
-387.019	668.304	0.181	0.473
-386.004	-114.599	-0.113	-0.022
-384.990	-161.848	-0.206	-0.011
-383.975	105.414	-0.073	0.088
-382.960	-148.363	-0.028	-0.002
-381.946	402.027	-0.183	0.389
-380.931	-81.742	-0.221	0.073
-379.917	-52.171	-0.131	-0.061
-378.902	800.000	-0.043	0.172
-377.888	235.568	0.047	-0.078
-376.873	-64.008	0.275	-0.114
-375.858	-200.000	0.005	0.289
-374.844	325.395	0.073	0.142
-373.829	73.057	-0.135	0.143
-372.815	-143.624	-0.098	-0.009
-371.800	-99.401	-0.257	0.065
-370.785	800.000	0.023	0.101
-369.771	-22.955	0.255	-0.155
-368.756	-187.707	0.060	-0.001
-367.742	772.149	0.032	0.089
-366.727	80.494	0.111	0.120
-365.712	-29.248	-0.131	0.076
-364.698	800.000	0.058	0.206
-363.683	-97.816	-0.077	0.020
-362.669	35.362	0.124	0.110
-361.654	119.110	-0.251	-0.314
-360.639	-200.000	0.005	0.071
-359.625	-23.059	0.206	0.125
-358.610	-84.026	-0.225	0.072
-357.596	79.329	0.129	0.140
-356.581	-80.733	-0.123	-0.041
-355.566	-200.000	-0.051	-0.395
-354.552	-13.895	-0.216	0.141
-353.537	-146.217	-0.419	0.037
-352.523	-200.000	0.031	0.276
-351.508	-113.301	0.066	-0.013
-350.493	335.522	0.133	-0.261
-349.479	119.368	0.104	0.130
-348.464	309.687	0.084	0.158
-347.450	-106.595	0.376	0.084
-346.435	28.546	-0.310	-0.265
-345.420	-200.000	-0.107	-0.586
-344.406	89.937	-0.204	-0.229
-343.391	174.111	-0.145	0.212
-342.377	-78.609	-0.075	-0.026
-341.362	391.661	-0.055	-0.116
-340.348	-200.000	0.003	0.145
-339.333	53.541	0.059	-0.057
-338.318	-115.687	0.194	-0.037
-337.304	-200.000	0.042	-0.196
-336.289	577.073	-0.127	-0.313
-335.275	621.388	-0.012	0.031
-334.260	106.233	-0.231	-0.276
-333.245	-131.149	0.366	-0.049
-332.231	510.776	-0.021	-0.049
-331.216	5.908	-0.207	0.155
-330.202	-123.364	-0.155	0.025
-329.187	23.401	-0.243	0.201
-328.172	-91.432	0.026	0.007
-327.158	-153.697	0.082	-0.006
-326.143	16.356	0.329	0.262
-325.129	4.731	0.110	0.081
-324.114	152.569	0.182	0.251
-323.099	82.695	-0.254	-0.278
-322.085	-200.000	0.014	-0.066
-321.070	-46.821	0.199	-0.098
-320.056	-97.697	0.514	0.134
-319.041	-36.782	-0.258	0.140
-318.026	-117.248	-0.145	-0.027
-317.012	499.568	-0.014	0.033
-315.997	18.445	-0.262	-0.211
-314.983	20.806	0.081	-0.066
-313.968	32.300	0.178	0.155
-312.953	119.321	-0.136	-0.169
-311.939	250.729	-0.085	-0.145
-310.924	800.000	-0.015	0.066
-309.910	-144.288	-0.458	-0.043
-308.895	800.000	-0.128	0.409
-307.880	-200.000	0.002	-0.123
-306.866	-200.000	0.021	0.093
-305.851	109.454	-0.049	0.059
-304.837	454.798	-0.125	-0.280
-303.822	308.101	0.160	-0.300
-302.807	-185.646	-0.065	0.001
-301.793	270.549	0.098	-0.174
-300.778	-97.196	-0.305	0.080
-299.764	692.716	0.100	0.263
-298.749	-124.673	-0.114	-0.018
-297.735	-47.575	-0.155	-0.076
-296.720	10.003	0.106	-0.081
-295.705	15.258	-0.109	-0.086
-294.691	-128.392	-0.256	0.037
-293.676	-88.705	-0.042	0.013
-292.662	121.605	-0.091	0.114
-291.647	-200.000	0.013	0.200
-290.632	352.470	0.126	0.252
-289.618	-66.712	0.328	0.131
-288.603	-20.160	0.204	0.127
-287.589	-96.061	0.412	-0.110
-286.574	-162.394	-0.230	0.012
-285.559	7.781	-0.127	0.096
-284.545	15.549	-0.261	0.206
-283.530	39.818	-0.030	-0.027
-282.516	800.000	0.071	0.232
-281.501	800.000	0.099	0.369
-280.486	-16.113	-0.104	0.066
-279.472	13.425	0.198	0.154
-278.457	57.939	0.148	-0.145
-277.443	800.000	-0.033	0.135
-276.428	-134.883	-0.264	0.032
-275.413	-91.546	0.143	-0.041
-274.399	166.211	-0.045	0.064
-273.384	116.902	0.037	0.045
-272.370	-144.578	0.218	0.020
-271.355	-68.359	-0.176	0.069
-270.340	177.441	-0.216	-0.317
-269.326	-133.464	0.131	-0.017
-268.311	-2.009	0.115	0.081
-267.297	-200.000	0.046	0.324
-266.282	105.393	0.138	0.164
-265.267	800.000	-0.032	-0.102
-264.253	-200.000	-0.018	0.190
-263.238	484.450	0.090	-0.207
-262.224	-45.083	-0.234	-0.117
-261.209	-30.934	-0.268	0.152
-260.195	24.781	-0.199	-0.166
-259.180	174.048	0.124	-0.181
-258.165	800.000	-0.024	0.079
-257.151	124.904	-0.165	-0.209
-256.136	73.829	0.085	-0.090
-255.122	-159.279	-0.075	-0.004
-254.107	800.000	0.064	0.259
-253.092	63.821	-0.156	0.158
-252.078	171.544	0.059	0.085
-251.063	-200.000	-0.011	0.077
-250.049	-192.678	-0.172	0.002
-249.034	-200.000	0.003	-0.243
-248.019	-200.000	-0.048	-0.382
-247.005	-200.000	0.010	-0.129
-245.990	-94.779	0.281	-0.077
-244.976	155.753	0.095	-0.131
-243.961	560.058	-0.061	-0.148
-242.946	30.019	0.170	0.146
-241.932	592.814	0.107	-0.265
-240.917	365.646	0.091	0.185
-239.903	-200.000	0.034	-0.206
-238.888	-183.062	0.286	-0.005
-237.873	800.000	0.067	0.215
-236.859	60.131	-0.228	-0.226
-235.844	-55.216	0.125	0.057
-234.830	-40.121	0.186	-0.097
-233.815	-141.974	-0.187	0.019
-232.800	-9.245	0.041	-0.027
-231.786	800.000	0.092	0.304
-230.771	800.000	0.133	0.394
-229.757	-163.418	0.283	-0.014
-228.742	38.719	0.161	0.144
-227.727	-99.110	0.244	-0.062
-226.713	333.822	-0.169	-0.329
-225.698	272.278	0.109	0.194
-224.684	800.000	0.011	0.032
-223.669	228.505	0.060	-0.098
-222.655	132.558	-0.240	-0.311
-221.640	372.030	0.145	-0.296
-220.625	70.928	0.316	0.328
-219.611	-200.000	0.061	-0.416
-218.596	-51.720	0.136	0.064
-217.582	319.210	0.214	0.408
-216.567	-200.000	-0.056	0.364
-215.552	-161.937	-0.206	0.010
-214.538	147.738	-0.054	0.073
-213.523	-200.000	-0.002	-0.224
-212.509	47.074	0.122	0.114
-211.494	-200.000	0.038	-0.389
-210.479	-88.643	-0.025	-0.007
-209.465	-53.144	0.234	-0.108
-208.450	-200.000	0.005	0.061
-207.436	800.000	0.060	0.192
-206.421	-9.913	0.078	0.052
-205.406	23.149	-0.217	0.179
-204.392	800.000	-0.046	0.177
-203.377	-7.495	-0.197	-0.134
-202.363	58.070	0.152	-0.150
-201.348	82.023	-0.085	0.092
-200.333	155.760	0.154	0.213
-199.319	115.197	0.086	-0.106
-198.304	-127.620	0.218	0.032
-197.290	-4.879	0.292	0.202
-196.275	41.607	-0.064	0.058
-195.260	493.628	0.055	-0.127
-194.246	-200.000	-0.028	0.209
-193.231	8.458	-0.079	-0.060
-192.217	-40.052	-0.282	-0.147
-191.202	239.223	0.092	-0.154
-190.187	84.147	0.162	0.177
-189.173	359.246	0.104	0.209
-188.158	-32.178	0.142	-0.079
-187.144	800.000	0.078	-0.263
-186.129	-124.789	-0.070	-0.011
-185.114	-200.000	0.025	-0.223
-184.100	-7.837	0.162	0.109
-183.085	-69.561	0.202	0.078
-182.071	45.626	-0.189	-0.176
-181.056	-76.590	0.234	-0.082
-180.042	-34.257	0.112	0.062
-179.027	320.451	-0.072	0.138
-178.012	-34.326	0.043	0.024
-176.998	63.775	0.033	0.033
-175.983	125.806	0.160	0.203
-174.969	248.406	-0.178	-0.302
-173.954	269.263	-0.044	-0.078
-172.939	236.990	-0.129	0.214
-171.925	32.426	0.118	0.102
-170.910	10.301	0.203	-0.155
-169.896	-13.907	-0.101	-0.066
-168.881	800.000	0.017	0.053
-167.866	-1.459	-0.204	-0.144
-166.852	399.868	0.050	-0.106
-165.837	-185.835	0.381	-0.006
-164.823	-197.876	-0.017	0.000
-163.808	73.018	0.007	-0.007
-162.793	262.787	0.132	0.230
-161.779	423.317	0.049	0.105
-160.764	-69.647	0.102	-0.039
-159.750	-16.574	-0.051	-0.033
-158.735	168.423	-0.090	-0.128
-157.720	-200.000	0.003	-0.108
-156.706	67.378	-0.120	0.123
-155.691	-130.999	-0.067	-0.009
-154.677	-192.543	0.202	0.002
-153.662	-200.000	0.015	0.077
-152.647	-77.060	-0.392	-0.137
-151.633	-200.000	-0.017	0.075
-150.618	87.675	0.112	0.124
-149.604	523.894	0.046	-0.107
-148.589	-200.000	-0.023	0.129
-147.574	-200.000	-0.015	-0.071
-146.560	81.947	0.150	0.163
-145.545	162.136	0.061	-0.085
-144.531	-102.592	-0.265	0.063
-143.516	-58.829	-0.129	-0.056
-142.502	-200.000	-0.057	0.306
-141.487	-200.000	-0.088	0.479
-140.472	189.359	0.079	0.118
-139.458	314.173	0.107	0.202
-138.443	-200.000	-0.005	0.271
-137.429	65.818	-0.399	0.405
-136.414	-149.565	0.288	0.023
-135.399	-46.368	-0.337	-0.166
-134.385	-117.217	0.317	0.058
-133.370	-88.943	-0.349	0.103
-132.356	-101.542	-0.347	0.084
-131.341	-200.000	0.019	0.098
-130.326	-200.000	0.026	0.303
-129.312	-15.999	0.169	-0.107
-128.297	-47.353	-0.148	-0.072
-127.283	-31.925	-0.079	-0.044
-126.268	-14.319	-0.257	0.165
-125.253	-12.252	-0.119	0.078
-124.239	98.601	0.177	0.204
-123.224	17.509	0.080	0.064
-122.210	-200.000	-0.022	-0.106
-121.195	-69.565	0.256	-0.098
-120.180	600.619	0.135	0.336
-119.166	206.977	0.098	0.152
-118.151	-2.863	-0.370	-0.258
-117.137	-39.933	0.135	0.071
-116.122	102.578	0.098	-0.115
-115.107	47.186	0.162	0.151
-114.093	-200.000	-0.026	0.467
-113.078	26.474	-0.140	0.117
-112.064	640.730	0.064	-0.162
-111.049	270.469	0.089	0.157
-110.034	-94.874	0.252	0.068
-109.020	800.000	-0.061	0.194
-108.005	181.451	-0.120	-0.176
-106.991	-200.000	0.076	-0.353
-105.976	204.925	0.184	0.285
-104.962	-200.000	0.014	0.456
-103.947	-112.082	0.143	0.029
-102.932	308.663	-0.217	0.406
-101.918	86.162	-0.272	-0.299
-100.903	-85.583	-0.169	0.052
-99.889	800.000	-0.064	0.188
-98.874	-200.000	0.018	0.230
-97.859	800.000	-0.076	0.211
-96.845	332.236	-0.121	-0.234
-95.830	-45.343	0.202	-0.100
-94.816	-71.948	0.066	0.025
-93.801	333.784	0.105	0.203
-92.786	685.466	0.075	0.194
-91.772	42.388	-0.371	-0.337
-90.757	800.000	0.039	-0.154
-89.743	-200.000	0.006	-0.104
-88.728	-67.951	0.138	-0.054
-87.713	-37.506	0.052	0.028
-86.699	-200.000	0.006	0.148
-85.684	158.039	0.078	0.108
-84.670	140.738	0.119	-0.157
-83.655	56.027	-0.111	0.108
-82.640	-131.111	-0.002	0.000
-81.626	800.000	-0.074	0.261
-80.611	-200.000	0.042	0.252
-79.597	49.078	-0.250	-0.234
-78.582	-36.746	0.341	-0.183
-77.567	-81.254	0.186	-0.061
-76.553	-78.051	0.247	0.085
-75.538	0.082	-0.217	-0.154
-74.524	22.968	0.153	-0.125
-73.509	-163.819	0.153	-0.007
-72.494	-84.329	-0.152	-0.048
-71.480	140.871	-0.055	-0.072
-70.465	-168.699	0.186	0.007
-69.451	800.000	-0.025	-0.078
-68.436	90.081	0.027	0.031
-67.422	-118.126	-0.110	-0.020
-66.407	184.316	0.102	0.151
-65.392	800.000	0.102	-0.281
-64.378	125.128	0.157	0.198
-63.363	225.868	0.098	-0.159
-62.349	-200.000	0.048	-0.469
-61.334	8.348	-1.003	-0.752
-60.319	-200.000	0.011	0.172
-59.305	-200.000	0.084	-0.872
-58.290	383.436	0.322	0.660
-57.276	406.212	0.829	1.746
-56.261	-200.000	74.488	537.201
-55.246	577.933	1298.473	3168.099
-54.232	146.816	2523.782	3384.266
-53.217	121.436	2242.220	2786.550
-52.203	54.514	1759.583	1691.355
-51.188	46.724	1554.036	1439.634
-50.173	43.638	1523.266	1389.907
-49.159	59.174	1559.002	1530.531
-48.144	66.152	1578.555	1597.992
-47.130	46.863	1542.022	1429.239
-46.115	43.115	1527.775	1390.195
-45.100	42.933	1524.145	1385.581
-44.086	42.901	1522.244	1383.578
-43.071	42.947	1519.972	1381.775
-42.057	42.830	1518.100	1379.216
-41.042	42.731	1516.803	1377.308
-40.027	42.817	1514.987	1376.190
-39.013	42.854	1514.271	1375.740
-37.998	42.824	1513.174	1374.485
-36.984	42.930	1511.726	1373.837
-35.969	42.918	1510.028	1372.159
-34.954	42.875	1508.831	1370.721
-33.940	42.927	1507.278	1369.615
-32.925	42.973	1505.529	1368.280
-31.911	42.971	1504.682	1367.445
-30.896	42.930	1503.490	1366.027
-29.881	42.931	1502.075	1364.697
-28.867	43.016	1500.242	1363.552
-27.852	42.989	1498.825	1362.024
-26.838	42.944	1497.568	1360.523
-25.823	42.927	1496.291	1359.198
-24.809	42.936	1494.152	1357.263
-23.794	42.944	1492.831	1356.060
-22.779	42.889	1491.763	1354.667
-21.765	42.970	1490.484	1353.997
-20.750	42.840	1489.603	1352.265
-19.736	42.863	1488.424	1351.298
-18.721	42.933	1487.035	1350.449
-17.706	42.821	1485.880	1348.597
-16.692	42.861	1484.520	1347.582
-15.677	42.842	1483.301	1346.294
-14.663	42.903	1482.654	1346.058
-13.648	42.709	1482.040	1344.152
-12.633	42.859	1480.491	1343.696
-11.619	42.857	1479.983	1343.168
-10.604	42.807	1479.294	1342.157
-9.590	42.754	1478.451	1340.987
-8.575	42.791	1477.420	1340.242
-7.560	42.817	1476.383	1339.420
-6.546	42.830	1475.909	1339.021
-5.531	42.770	1474.830	1337.593
-4.517	42.766	1474.121	1336.873
-3.502	42.866	1472.966	1336.436
-2.487	42.788	1472.094	1335.071
-1.473	42.773	1470.636	1333.596
-0.458	42.897	1468.662	1332.572
0.556	42.021	1460.159	1323.200
1.571	39.398	1433.223	1281.627
2.586	35.731	1371.338	1203.284
3.600	33.996	1288.748	1120.498
4.615	32.210	1241.316	1069.015
5.629	27.126	1182.509	990.646
6.644	13.724	1087.996	843.675
7.659	2.823	1038.959	752.372
8.673	1.248	1032.768	740.148
9.688	0.996	1029.885	736.790
10.702	0.873	1028.012	734.786
11.717	0.813	1027.061	733.752
12.731	5.196	1032.414	758.847
13.746	17.244	1049.315	830.405
14.761	24.357	1057.839	871.982
15.775	23.837	1056.320	868.114
16.790	23.593	1054.753	865.557
17.804	23.340	1054.201	863.799
18.819	23.133	1053.291	861.966
19.834	23.103	1053.113	861.598
20.848	23.234	1052.444	861.610
21.863	23.328	1051.622	861.319
22.877	23.306	1051.889	861.357
23.892	23.324	1050.912	860.566
24.907	23.162	1049.817	858.806
25.921	23.120	1049.312	858.114
26.936	23.122	1048.907	857.719
27.950	23.194	1047.341	856.708
28.965	23.248	1045.905	855.719
29.980	23.131	1044.438	853.880
30.994	23.109	1043.102	852.606
32.009	23.197	1042.664	852.598
33.023	23.275	1042.285	852.585
34.038	23.150	1041.033	850.885
35.053	23.119	1040.409	850.154
36.067	23.241	1039.572	849.980
37.082	23.279	1038.755	849.419
38.096	23.264	1038.394	848.976
39.111	23.461	1037.572	849.171
40.126	23.570	1036.368	848.630
41.140	23.409	1035.693	847.237
42.155	23.228	1033.750	844.709
43.169	22.852	1032.840	842.094
44.184	22.964	1031.503	841.465
45.199	22.937	1031.014	840.865
46.213	22.827	1030.025	839.457
47.228	22.719	1029.339	838.314
48.242	22.930	1028.140	838.263
49.257	23.043	1027.641	838.317
50.271	23.097	1026.626	837.673
51.286	23.335	1025.941	838.164
52.301	23.259	1025.469	837.344
53.315	23.322	1024.815	837.037
54.330	23.316	1023.340	835.727
55.344	23.074	1023.212	834.408
56.359	23.259	1022.066	834.271
57.374	23.195	1021.278	833.253
58.388	23.183	1020.003	832.083
59.403	23.009	1019.648	830.900
60.417	22.945	1018.970	829.974
61.432	22.926	1018.211	829.192
62.447	22.887	1017.603	828.444
63.461	22.985	1016.834	828.201
64.476	23.101	1016.117	828.088
65.490	23.037	1015.467	827.185
66.505	22.916	1014.281	825.582
67.520	22.920	1013.463	824.863
68.534	23.047	1012.713	824.769
69.549	22.853	1012.091	823.286
70.563	22.570	1010.661	820.731
71.578	22.480	1009.760	819.510
72.593	22.606	1009.005	819.409
73.607	22.443	1008.237	817.958
74.622	22.478	1006.797	816.877
75.636	22.738	1006.122	817.465
76.651	22.978	1005.658	818.123
77.666	22.828	1004.665	816.551
78.680	22.601	1003.857	814.774
79.695	22.626	1003.525	814.548
80.709	22.734	1002.978	814.531
81.724	22.912	1002.121	814.585
82.739	22.837	1000.973	813.230
83.753	22.819	1000.538	812.723
84.768	23.155	999.909	813.686
85.782	23.329	999.602	814.165
86.797	23.515	998.816	814.305
87.812	23.384	998.095	813.045
88.826	23.309	996.861	811.625
89.841	23.451	995.490	811.085
90.855	23.484	995.293	811.006
91.870	23.554	994.437	810.556
92.884	23.471	993.839	809.616
93.899	23.387	992.227	807.849
94.914	23.240	991.781	806.744
95.928	23.396	990.950	806.708
96.943	23.403	989.794	805.727
97.957	23.202	988.969	804.071
98.972	22.815	987.624	801.149
99.987	22.852	986.255	800.138
101.001	22.814	986.196	799.845
102.016	23.131	985.613	800.736
103.030	23.191	984.655	800.158
104.045	23.120	983.476	798.810
105.060	22.997	982.460	797.359
106.074	22.918	981.102	795.832
107.089	22.805	980.559	794.809
108.103	23.037	980.822	796.000
109.118	23.229	979.467	795.693
110.133	23.021	977.830	793.359
111.147	22.798	977.059	791.662
112.162	22.827	976.241	791.058
113.176	22.567	975.076	788.884
114.191	22.668	974.221	788.575
115.206	22.858	973.321	788.624
116.220	22.768	971.773	786.900
117.235	22.471	970.745	784.673
118.249	22.638	970.741	785.346
119.264	22.702	969.839	784.829
120.279	22.508	968.496	782.809
121.293	22.440	967.815	781.888
122.308	22.644	967.220	782.244
123.322	22.720	966.479	781.912
124.337	22.669	965.440	780.776
125.352	22.544	964.253	779.194
126.366	22.253	962.684	776.574
127.381	21.910	961.380	773.939
128.395	22.325	961.233	775.582
129.410	22.965	960.662	777.871
130.424	23.130	960.069	778.050
131.439	23.106	959.327	777.276
132.454	23.084	958.603	776.524
133.468	23.257	957.182	776.059
134.483	23.149	956.238	774.755
135.497	23.102	956.010	774.296
136.512	23.369	955.304	774.823
137.527	23.654	954.166	775.075
138.541	23.467	953.552	773.693
139.556	23.422	953.098	773.061
140.570	23.474	952.177	772.468
141.585	23.429	951.392	771.569
142.600	23.542	950.635	771.376
143.614	23.259	949.957	769.529
144.629	23.662	949.129	770.542
145.643	23.800	948.395	770.476
146.658	23.658	947.381	768.968
147.673	23.451	946.394	767.205
148.687	23.269	944.911	765.145
149.702	23.208	943.945	764.034
150.716	23.305	942.499	763.215
151.731	23.164	941.835	762.002
152.746	23.236	941.211	761.741
153.760	23.330	940.831	761.768
154.775	23.528	939.655	761.598
155.789	23.505	939.001	760.902
156.804	23.589	937.754	760.185
157.819	23.549	936.617	759.026
158.833	23.439	936.587	758.461
159.848	23.577	935.742	758.302
160.862	23.671	934.685	757.778
161.877	23.489	933.800	756.220
162.892	23.460	932.751	755.178
163.906	23.444	932.064	754.486
164.921	23.410	931.554	753.861
165.935	23.334	930.152	752.339
166.950	23.466	929.251	752.101
167.964	23.432	928.233	751.069
168.979	23.554	927.179	750.665
169.994	23.386	926.102	749.018
171.008	23.245	925.147	747.582
172.023	23.385	924.449	747.545
173.037	23.648	923.716	747.994
174.052	23.435	923.007	746.457
175.067	23.249	921.861	744.682
176.081	23.187	921.009	743.668
177.096	23.404	920.095	743.772
178.110	23.371	919.371	742.985
179.125	23.094	918.198	740.809
180.140	22.835	917.419	739.030
181.154	22.719	917.198	738.303
182.169	23.053	916.296	738.907
183.183	23.096	916.488	739.178
184.198	23.442	915.742	739.953
185.213	23.343	914.910	738.805
186.227	23.336	914.380	738.283
187.242	23.583	913.425	738.475
188.256	23.613	912.855	738.070
189.271	23.405	912.219	736.629
190.286	23.453	911.821	736.442
191.300	23.516	910.646	735.689
192.315	22.878	909.206	731.817
193.329	22.219	907.781	727.879
194.344	21.786	906.625	725.098
195.359	22.335	906.921	727.540
196.373	23.100	907.573	731.161
197.388	23.445	907.575	732.523
198.402	23.341	906.537	731.191
199.417	23.405	905.522	730.574
200.432	23.419	905.195	730.301
201.446	23.269	904.949	729.422
202.461	22.981	903.975	727.386
203.475	22.964	903.418	726.803
204.490	22.593	902.172	724.211
205.504	21.587	899.510	717.888
206.519	21.817	899.805	719.006
207.534	22.720	900.118	722.894
208.548	23.048	899.090	723.345
209.563	23.241	899.628	724.502
210.577	23.313	898.810	724.078
211.592	23.144	897.819	722.524
212.607	23.351	897.529	723.068
213.621	23.398	897.392	723.089
214.636	23.400	896.486	722.304
215.650	23.557	896.166	722.618
216.665	23.467	895.302	721.494
217.680	23.373	895.065	720.857
218.694	23.548	894.508	721.055
219.709	23.268	893.352	718.922
220.723	22.916	892.468	716.720
221.738	23.001	892.274	716.846
222.753	23.181	891.424	716.829
223.767	23.261	890.758	716.554
224.782	23.296	890.101	716.104
225.796	23.487	889.764	716.538
226.811	23.652	888.911	716.456
227.826	23.311	887.726	714.061
228.840	22.404	886.385	709.267
229.855	22.430	885.472	708.579
230.869	22.604	885.207	709.005
231.884	22.378	884.292	707.302
232.899	22.291	883.893	706.568
233.913	23.115	884.157	710.028
234.928	23.321	883.737	710.453
235.942	23.280	883.042	709.669
236.957	23.244	882.089	708.695
237.972	23.027	881.309	707.137
238.986	22.887	880.679	706.009
240.001	23.125	880.061	706.403
241.015	23.066	879.353	705.538
242.030	23.105	878.670	705.082
243.045	23.242	878.207	705.194
244.059	23.242	877.806	704.807
245.074	23.516	877.085	705.257
246.088	23.566	876.655	705.048
247.103	23.043	875.681	702.127
248.117	23.051	875.569	702.005
249.132	23.479	875.873	703.885
250.147	24.088	874.996	705.535
251.161	24.053	874.550	704.975
252.176	24.281	873.969	705.343
253.190	24.263	873.428	704.774
254.205	24.053	873.243	703.733
255.220	24.360	872.753	704.489
256.234	24.440	871.743	703.925
257.249	24.324	871.360	703.096
258.263	24.182	870.656	701.909
259.278	24.070	870.144	700.990
260.293	24.177	869.638	700.942
261.307	24.237	868.761	700.408
262.322	24.268	868.064	699.908
263.336	24.101	867.655	698.859
264.351	23.628	866.445	695.970
265.366	22.543	864.470	690.074
266.380	22.095	863.437	687.436
267.395	22.881	863.690	690.653
268.409	23.710	864.213	694.253
269.424	23.879	863.436	694.224
270.439	23.922	862.880	693.887
271.453	23.992	862.487	693.782
272.468	23.935	861.968	693.081
273.482	24.186	861.721	693.797
274.497	24.395	860.746	693.764
275.512	24.128	859.678	691.805
276.526	23.527	858.448	688.423
277.541	23.648	858.178	688.613
278.555	24.203	857.696	690.318
279.570	23.819	857.196	688.366
280.585	23.753	856.280	687.315
281.599	23.843	855.981	687.362
282.614	23.973	855.299	687.255
283.628	23.534	854.528	684.883
284.643	23.254	853.559	682.963
285.657	23.612	853.418	684.170
286.672	23.379	852.855	682.762
287.687	23.002	852.128	680.668
288.701	23.103	852.296	681.130
289.716	23.632	851.557	682.514
290.730	23.536	850.300	681.079
291.745	23.267	850.148	679.864
292.760	23.083	848.904	678.104
293.774	22.941	848.208	676.941
294.789	23.988	848.718	681.303
295.803	24.463	849.020	683.301
296.818	24.607	848.410	683.301
297.833	24.705	847.928	683.227
298.847	24.466	846.969	681.483
299.862	23.909	846.327	678.781
300.876	24.161	845.356	678.900
301.891	24.562	844.825	679.942
302.906	24.627	844.366	679.759
303.920	24.254	843.620	677.681
304.935	24.181	842.998	676.843
305.949	24.440	842.911	677.698
306.964	24.661	842.476	678.128
307.979	24.339	841.756	676.267
308.993	24.393	841.256	676.010
310.008	24.523	840.988	676.225
311.022	24.708	840.819	676.731
312.037	24.486	840.014	675.185
313.052	24.357	838.990	673.814
314.066	24.337	838.137	672.992
315.081	23.618	836.993	669.305
316.095	22.746	835.561	664.817
317.110	23.332	835.763	667.128
318.125	24.240	836.147	670.793
319.139	23.770	835.475	668.427
320.154	22.794	833.532	663.149
321.168	22.406	832.401	660.733
322.183	22.649	833.206	662.226
323.197	23.650	833.516	666.173
324.212	23.956	833.100	666.930
325.227	24.238	832.376	667.347
326.241	24.279	832.306	667.386
327.256	24.302	831.578	666.829
328.270	24.114	830.774	665.423
329.285	24.145	830.387	665.171
330.300	24.102	829.366	664.133
331.314	23.879	828.379	662.453
332.329	23.729	828.377	661.831
333.343	24.223	827.801	663.154
334.358	24.501	827.341	663.759
335.373	24.382	827.084	663.052
336.387	24.619	826.436	663.352
337.402	24.734	826.171	663.509
338.416	24.857	825.826	663.631
339.431	24.875	825.217	663.148
340.446	24.860	824.773	662.677
341.460	25.087	824.167	662.971
342.475	24.975	823.478	661.945
343.489	24.889	822.809	661.033
344.504	24.700	822.092	659.698
345.519	24.902	822.209	660.479
346.533	25.213	821.820	661.254
347.548	25.304	821.352	661.157
348.562	25.235	820.965	660.530
349.577	25.236	820.369	659.997
350.592	25.328	819.611	659.665
351.606	25.107	819.351	658.588
352.621	25.196	818.810	658.421
353.635	25.214	818.121	657.874
354.650	24.888	817.956	656.490
355.665	24.775	816.731	655.033
356.679	23.780	814.958	649.914
357.694	23.548	814.573	648.702
358.708	24.208	814.173	650.738
359.723	24.176	813.570	650.083
360.738	24.379	813.300	650.550
361.752	24.755	813.805	652.266
362.767	24.859	813.503	652.347
363.781	25.138	813.324	653.162
364.796	25.519	812.831	654.096
365.810	25.568	812.656	654.074
366.825	25.643	811.871	653.656
367.840	25.631	811.654	653.380
368.854	25.422	811.453	652.404
369.869	25.083	810.186	650.097
370.883	24.814	809.426	648.455
371.898	25.076	808.886	648.912
372.913	24.922	808.191	647.740
373.927	24.783	807.995	647.025
374.942	24.856	807.529	646.856
375.956	25.064	806.856	647.014
376.971	25.201	806.270	646.980
377.986	25.298	806.080	647.118
379.000	25.446	805.600	647.211
380.015	25.485	805.136	646.919
381.029	25.265	804.490	645.552
382.044	25.395	803.533	645.194
383.059	25.507	803.491	645.504
384.073	25.494	802.947	644.964
385.088	25.534	802.320	644.548
386.102	25.561	801.853	644.211
387.117	25.339	801.096	642.753
388.132	25.120	800.721	641.611
389.146	25.079	799.813	640.680
390.161	24.564	798.980	638.118
391.175	24.488	798.625	637.505
392.190	24.968	798.601	639.144
393.205	25.243	797.995	639.582
394.219	24.245	796.524	634.793
395.234	22.518	794.688	627.134
396.248	21.899	792.973	623.524
397.263	22.777	793.793	627.235
398.278	24.743	795.026	635.144
399.292	25.309	795.016	637.091
400.307	24.972	794.318	635.278
401.321	24.840	794.054	634.545
402.336	25.001	793.467	634.590
403.350	25.223	793.482	635.331
404.365	25.621	793.430	636.642
405.380	25.886	793.485	637.567
406.394	26.054	793.087	637.786
407.409	26.265	792.877	638.307
408.423	26.172	792.272	637.433
409.438	26.186	791.583	636.874
410.453	26.139	791.092	636.255
411.467	26.372	790.824	636.803
412.482	26.155	790.290	635.554
413.496	26.222	789.709	635.266
414.511	26.409	788.896	635.212
415.526	26.210	789.170	634.680
416.540	26.221	788.770	634.340
417.555	26.237	788.201	633.883
418.569	25.900	787.255	631.884
419.584	25.797	786.789	631.091
420.599	26.024	786.296	631.437
421.613	88.855	1247.732	1336.137
422.628	75.551	1315.001	1336.297
