DTS Sentinel unit serial number:	SN413079Multiplexer serial number:	ORYXHardware model number:	OX4-SRSoftware version number:	ORYX F/W v4.00 Oryx Data Collector v3.7.2.0data status	okinstallation	princeton_trtdifferential loss correction	single-endedforward channel	channel 3reverse channel	N/Adate	2019/09/10time	18:22:11forward acquisition time	60.00reverse acquisition time	0.00gamma	496.2192k internal	0.2305k external	0.2305temperature offset calibration	0.9911default loss term (dB/km)	0.3790temperature slope calibration	1.0000multiplexer offset coefficient	1.0000multiplexer slope coefficient	1.0000fibre end	0.00T internal ref (°C)	36.25T ext. ref 1 (°C)	-0.37T ext. ref 2 (°C)	28.31length (m)	temperature (°C)	Stokes	anti-Stokes-747.200	-163.989	-0.314	0.015
-746.185	225.099	0.124	0.204
-745.171	46.976	-0.240	-0.227
-744.156	337.074	-0.083	0.164
-743.142	-66.794	0.149	0.060
-742.127	-200.000	-0.021	-0.119
-741.112	-81.821	-0.448	-0.149
-740.098	-18.592	-0.132	0.084
-739.083	-200.000	-0.008	0.339
-738.069	-97.221	0.204	-0.054
-737.054	-83.271	0.232	-0.076
-736.039	638.502	-0.033	-0.085
-735.025	437.376	0.211	0.469
-734.010	-200.000	0.011	-0.062
-732.996	-64.927	-0.304	-0.125
-731.981	-3.436	-0.046	-0.033
-730.966	-34.283	-0.195	-0.109
-729.952	-200.000	-0.056	0.375
-728.937	-200.000	-0.033	0.211
-727.923	112.505	0.133	-0.164
-726.908	763.945	-0.064	0.176
-725.894	74.394	0.129	0.138
-724.879	124.040	-0.222	-0.284
-723.864	60.592	-0.117	-0.118
-722.850	-70.627	0.114	0.044
-721.835	-200.000	-0.043	0.274
-720.821	-21.400	-0.155	-0.096
-719.806	220.172	-0.152	0.247
-718.791	58.211	-0.096	-0.096
-717.777	-58.423	-0.278	0.123
-716.762	537.414	0.113	-0.273
-715.748	-200.000	-0.076	-0.389
-714.733	-194.980	-0.340	-0.003
-713.718	112.238	-0.157	-0.193
-712.704	-12.101	-0.286	0.191
-711.689	-158.098	-0.102	-0.006
-710.675	-200.000	0.012	0.251
-709.660	65.816	-0.283	-0.292
-708.645	-121.349	-0.062	-0.011
-707.631	14.562	-0.159	0.126
-706.616	-142.525	-0.399	-0.040
-705.602	-32.034	0.147	0.084
-704.587	-138.667	-0.212	-0.024
-703.572	-139.537	-0.222	0.024
-702.558	-200.000	0.045	-0.347
-701.543	-200.000	-0.021	-0.283
-700.529	688.167	-0.075	0.200
-699.514	40.020	-0.243	0.222
-698.499	-54.214	-0.082	0.038
-697.485	-22.716	-0.360	-0.221
-696.470	17.618	-0.091	-0.073
-695.456	-49.411	-0.180	0.087
-694.441	380.651	0.208	-0.434
-693.426	800.000	0.103	-0.299
-692.412	-20.589	-0.143	0.089
-691.397	-200.000	-0.001	0.073
-690.383	300.348	-0.104	-0.194
-689.368	-31.842	-0.250	0.142
-688.354	-40.111	0.244	0.129
-687.339	800.000	0.023	-0.067
-686.324	-114.654	-0.338	-0.066
-685.310	-125.507	-0.445	-0.069
-684.295	312.339	0.073	0.139
-683.281	120.090	0.067	0.084
-682.266	-107.959	-0.206	-0.045
-681.251	31.648	-0.136	-0.119
-680.237	23.544	-0.165	-0.138
-679.222	-200.000	-0.005	-0.222
-678.208	-200.000	0.005	0.083
-677.193	-110.441	-0.136	0.029
-676.178	-200.000	0.013	-0.096
-675.164	-200.000	-0.026	-0.162
-674.149	-47.577	-0.299	-0.147
-673.135	800.000	0.041	0.164
-672.120	-17.974	-0.248	-0.158
-671.105	182.614	-0.105	0.157
-670.091	-200.000	-0.271	-0.001
-669.076	40.496	-0.208	0.191
-668.062	-200.000	0.029	0.223
-667.047	-12.235	0.158	0.105
-666.032	-93.425	-0.227	0.064
-665.018	-19.118	-0.090	0.057
-664.003	232.019	0.168	0.279
-662.989	372.843	-0.113	0.234
-661.974	-200.000	-0.053	-0.257
-660.959	-17.977	-0.224	0.142
-659.945	456.455	-0.169	0.381
-658.930	465.258	-0.077	0.174
-657.916	364.959	-0.049	-0.099
-656.901	-168.215	0.052	-0.002
-655.886	106.782	-0.230	-0.277
-654.872	-14.135	-0.266	0.174
-653.857	-200.000	-0.010	-0.067
-652.843	-155.260	-0.249	-0.016
-651.828	-121.034	0.041	0.007
-650.814	448.006	-0.040	-0.088
-649.799	249.638	-0.277	-0.476
-648.784	-200.000	-0.033	-0.235
-647.770	713.540	-0.091	-0.244
-646.755	-200.000	0.003	-0.100
-645.741	-46.427	-0.202	0.101
-644.726	-200.000	0.013	-0.081
-643.711	-200.000	-0.091	-0.553
-642.697	58.925	0.168	-0.167
-641.682	-53.273	-0.248	0.115
-640.668	104.853	0.137	-0.163
-639.653	220.047	-0.048	0.078
-638.638	89.980	-0.081	-0.091
-637.624	-97.912	-0.215	0.056
-636.609	-148.261	-0.156	-0.013
-635.595	-140.819	0.131	-0.014
-634.580	306.209	0.153	0.288
-633.565	-20.173	-0.295	-0.184
-632.551	345.601	-0.041	0.082
-631.536	52.968	0.225	0.218
-630.522	-1.870	0.148	-0.105
-629.507	520.821	-0.115	0.273
-628.492	587.284	-0.136	0.338
-627.478	235.921	0.171	-0.286
-626.463	-200.000	0.109	-0.513
-625.449	-74.296	-0.049	0.018
-624.434	6.921	0.195	-0.147
-623.419	-200.000	-0.006	-0.098
-622.405	-23.578	0.081	0.049
-621.390	-76.095	0.229	-0.082
-620.376	-52.719	0.051	-0.024
-619.361	7.614	-0.247	-0.188
-618.346	-200.000	0.017	0.212
-617.332	800.000	-0.081	-0.323
-616.317	-200.000	-0.040	0.192
-615.303	800.000	0.172	-0.529
-614.288	-147.711	-0.434	0.037
-613.273	-37.723	-0.158	0.085
-612.259	65.335	0.211	-0.216
-611.244	-41.924	-0.111	0.058
-610.230	-88.562	0.072	-0.022
-609.215	-87.836	-0.375	0.114
-608.201	-200.000	0.018	0.110
-607.186	-200.000	-0.007	0.185
-606.171	86.786	0.193	-0.215
-605.157	122.492	0.138	-0.175
-604.142	377.120	0.121	-0.249
-603.128	-40.631	0.302	-0.159
-602.113	-6.399	-0.190	-0.131
-601.098	-200.000	0.001	-0.182
-600.084	800.000	-0.165	-0.481
-599.069	-32.778	-0.125	0.070
-598.055	800.000	0.088	-0.305
-597.040	-200.000	-0.008	0.065
-596.025	365.662	0.197	-0.403
-595.011	102.687	0.086	0.101
-593.996	-118.832	0.134	0.024
-592.982	448.979	0.030	0.066
-591.967	800.000	-0.055	0.228
-590.952	106.393	-0.144	0.173
-589.938	-200.000	0.039	-0.177
-588.923	-5.608	-0.324	-0.225
-587.909	-34.964	-0.332	-0.184
-586.894	-82.376	-0.273	0.090
-585.879	-165.442	0.338	-0.015
-584.865	86.960	-0.172	0.192
-583.850	-176.783	-0.195	-0.005
-582.836	-200.000	-0.051	0.303
-581.821	323.877	-0.214	0.413
-580.806	15.881	-0.161	0.128
-579.792	124.159	-0.159	0.202
-578.777	455.451	0.144	-0.322
-577.763	-200.000	0.020	-0.299
-576.748	-41.376	-0.017	-0.009
-575.733	-200.000	0.006	-0.081
-574.719	306.534	-0.099	0.187
-573.704	-138.289	0.022	-0.002
-572.690	4.999	0.145	-0.108
-571.675	176.876	0.033	-0.049
-570.661	121.298	0.095	0.120
-569.646	800.000	0.064	0.265
-568.631	-16.389	-0.118	0.076
-567.617	68.502	-0.164	0.170
-566.602	164.110	-0.006	0.009
-565.588	16.090	-0.310	0.247
-564.573	-124.768	-0.463	0.072
-563.558	-200.000	-0.004	-0.161
-562.544	714.063	0.096	0.258
-561.529	234.796	0.043	0.071
-560.515	150.622	-0.146	-0.201
-559.500	-53.955	0.411	0.189
-558.485	800.000	0.048	0.162
-557.471	-133.673	-0.254	-0.032
-556.456	61.351	0.105	0.105
-555.442	-31.538	-0.127	-0.072
-554.427	-96.716	-0.093	0.025
-553.412	-128.070	0.090	0.013
-552.398	157.868	0.153	-0.215
-551.383	-13.580	-0.425	-0.278
-550.369	89.745	-0.014	-0.016
-549.354	-118.988	-0.090	-0.016
-548.339	14.099	-0.096	0.075
-547.325	800.000	0.062	0.223
-546.310	-146.688	0.137	-0.012
-545.296	-166.889	0.107	-0.004
-544.281	58.673	0.115	-0.114
-543.266	-80.668	0.170	-0.057
-542.252	107.301	0.135	-0.162
-541.237	279.861	0.143	0.257
-540.223	-186.430	-0.091	-0.001
-539.208	-115.805	-0.128	-0.024
-538.193	-33.777	-0.147	0.082
-537.179	-200.000	0.077	0.340
-536.164	436.221	-0.005	-0.011
-535.150	-80.017	-0.386	0.131
-534.135	-200.000	0.014	-0.092
-533.121	-200.000	-0.001	0.146
-532.106	-200.000	-0.170	0.000
-531.091	-126.334	-0.139	-0.021
-530.077	-134.161	-0.137	0.017
-529.062	-132.930	0.241	-0.031
-528.048	-105.993	-0.167	0.038
-527.033	-200.000	-0.005	0.075
-526.018	-200.000	0.047	-0.301
-525.004	153.184	-0.097	-0.134
-523.989	-17.616	0.117	-0.074
-522.975	-62.009	-0.049	0.021
-521.960	800.000	-0.045	-0.159
-520.945	-134.155	0.319	-0.040
-519.931	325.683	-0.083	0.160
-518.916	-9.698	0.186	-0.125
-517.902	193.247	0.187	-0.285
-516.887	800.000	0.049	-0.158
-515.872	252.736	0.044	-0.076
-514.858	11.319	-0.082	-0.064
-513.843	28.576	0.196	-0.167
-512.829	-79.919	-0.155	-0.052
-511.814	800.000	0.102	0.406
-510.799	800.000	0.043	0.187
-509.785	-109.642	0.130	0.028
-508.770	-33.224	-0.079	0.044
-507.756	-4.839	-0.089	-0.062
-506.741	-159.074	-0.070	-0.004
-505.726	14.108	0.296	0.233
-504.712	-200.000	-0.032	0.250
-503.697	-32.788	-0.077	-0.043
-502.683	316.047	0.039	-0.075
-501.668	-54.231	0.077	0.035
-500.653	219.689	0.126	0.203
-499.639	-200.000	-0.031	0.230
-498.624	-95.716	0.021	-0.006
-497.610	-81.075	-0.110	-0.037
-496.595	58.325	-0.034	0.033
-495.581	-130.745	0.276	-0.037
-494.566	-200.000	-0.014	0.204
-493.551	-200.000	-0.029	-0.136
-492.537	-200.000	0.012	0.107
-491.522	-200.000	-0.020	-0.136
-490.508	-116.676	-0.310	-0.057
-489.493	-119.644	-0.026	-0.005
-488.478	-16.308	-0.044	0.028
-487.464	134.217	-0.252	-0.329
-486.449	-48.232	-0.207	0.101
-485.435	75.211	0.193	0.205
-484.420	166.264	0.061	-0.088
-483.405	237.927	0.266	-0.444
-482.391	-200.000	-0.213	-0.001
-481.376	-200.000	0.034	0.248
-480.362	-157.473	-0.272	-0.016
-479.347	95.686	-0.230	-0.264
-478.332	-97.393	-0.159	-0.042
-477.318	71.808	0.075	-0.078
-476.303	-101.539	-0.263	0.064
-475.289	5.034	-0.198	0.146
-474.274	-131.468	0.280	-0.037
-473.259	800.000	-0.032	-0.132
-472.245	145.794	0.005	0.007
-471.230	17.699	-0.164	0.132
-470.216	78.800	-0.148	0.160
-469.201	425.251	0.154	0.335
-468.186	-103.197	-0.269	-0.064
-467.172	-200.000	-0.013	0.326
-466.157	656.713	0.078	0.203
-465.143	-200.000	-0.288	-0.001
-464.128	-67.751	-0.188	-0.074
-463.113	-200.000	-0.007	-0.082
-462.099	69.052	0.079	-0.082
-461.084	374.510	0.092	0.188
-460.070	-155.142	0.224	0.015
-459.055	800.000	0.046	0.183
-458.040	-95.379	-0.171	-0.046
-457.026	800.000	0.092	-0.376
-456.011	40.281	-0.032	0.029
-454.997	-120.307	0.126	0.022
-453.982	-53.465	0.274	-0.126
-452.968	322.798	0.087	-0.167
-451.953	155.366	0.293	-0.406
-450.938	93.721	-0.038	-0.043
-449.924	800.000	-0.030	0.112
-448.909	-114.071	-0.448	0.087
-447.895	119.521	0.170	0.211
-446.880	727.903	-0.052	-0.140
-445.865	-164.634	0.107	-0.005
-444.851	260.138	0.119	-0.208
-443.836	119.325	0.066	-0.083
-442.822	-65.942	0.086	0.035
-441.807	69.847	0.123	0.128
-440.792	800.000	-0.025	0.101
-439.778	-91.146	0.023	0.007
-438.763	-28.413	0.243	0.141
-437.749	778.172	0.137	0.377
-436.734	800.000	-0.112	-0.314
-435.719	-22.756	-0.011	0.007
-434.705	61.051	0.285	-0.285
-433.690	441.488	-0.183	0.404
-432.676	-200.000	0.066	-0.389
-431.661	-115.792	0.302	0.057
-430.646	140.912	-0.075	-0.099
-429.632	-67.057	0.056	-0.022
-428.617	800.000	-0.078	0.326
-427.603	14.856	0.086	-0.068
-426.588	105.410	-0.084	0.100
-425.573	7.925	0.021	0.016
-424.559	-200.000	0.021	-0.150
-423.544	-186.721	-0.176	-0.002
-422.530	-124.836	-0.138	0.021
-421.515	133.044	-0.181	0.235
-420.500	164.646	0.154	0.219
-419.486	-152.556	-0.227	-0.016
-418.471	-25.784	-0.384	0.228
-417.457	800.000	-0.049	-0.149
-416.442	-41.888	0.356	-0.183
-415.428	-93.781	0.575	0.159
-414.413	-17.884	-0.105	-0.066
-413.398	238.131	-0.114	-0.189
-412.384	85.103	0.120	0.132
-411.369	67.167	0.213	0.218
-410.355	800.000	-0.063	-0.198
-409.340	70.833	0.087	-0.090
-408.325	-71.606	0.091	-0.034
-407.311	800.000	0.160	-0.453
-406.296	-115.484	-0.144	-0.027
-405.282	-1.380	0.106	-0.075
-404.267	324.627	0.037	0.070
-403.252	-200.000	-0.040	0.257
-402.238	-25.308	-0.199	0.119
-401.223	-200.000	-0.081	0.370
-400.209	-94.017	-0.067	0.019
-399.194	439.929	0.075	0.164
-398.179	800.000	0.011	0.040
-397.165	-71.135	-0.121	-0.046
-396.150	-200.000	0.061	-0.390
-395.136	-200.000	0.019	0.141
-394.121	-200.000	0.016	0.095
-393.106	-147.104	0.085	0.007
-392.092	-200.000	-0.027	0.337
-391.077	-200.000	-0.008	0.048
-390.063	800.000	0.043	0.133
-389.048	127.372	0.087	0.110
-388.033	-27.635	0.157	-0.092
-387.019	0.893	-0.219	-0.158
-386.004	-200.000	0.001	0.065
-384.990	-69.011	-0.198	-0.077
-383.975	-200.000	-0.065	0.479
-382.960	-142.425	-0.132	-0.013
-381.946	40.980	0.168	-0.152
-380.931	10.154	-0.154	-0.118
-379.917	-113.298	-0.290	-0.057
-378.902	-122.773	0.208	-0.034
-377.888	-65.195	0.155	-0.063
-376.873	186.154	0.072	0.108
-375.858	-71.383	0.402	-0.151
-374.844	-200.000	-0.008	-0.082
-373.829	192.652	0.210	-0.318
-372.815	218.908	0.184	-0.295
-371.800	800.000	-0.058	-0.193
-370.785	161.694	0.208	-0.292
-369.771	-157.756	0.099	-0.006
-368.756	800.000	-0.053	0.174
-367.742	-20.350	0.223	-0.138
-366.727	87.166	-0.126	-0.139
-365.712	800.000	-0.055	0.232
-364.698	23.799	0.135	0.112
-363.683	800.000	0.076	-0.296
-362.669	-200.000	-0.057	-0.352
-361.654	553.407	-0.033	-0.078
-360.639	-48.292	0.161	-0.078
-359.625	-93.316	-0.203	-0.056
-358.610	189.937	0.125	-0.188
-357.596	-200.000	0.028	0.127
-356.581	633.549	0.088	-0.225
-355.566	-188.743	-0.083	-0.001
-354.552	-40.863	0.230	0.119
-353.537	260.035	-0.069	-0.119
-352.523	-135.958	-0.296	-0.035
-351.508	-87.298	0.167	-0.051
-350.493	-67.441	-0.244	0.096
-349.479	-200.000	-0.024	0.289
-348.464	-200.000	0.079	-0.492
-347.450	-43.611	-0.344	-0.174
-346.435	62.822	-0.111	-0.112
-345.420	-170.813	-0.238	0.008
-344.406	119.797	0.084	-0.104
-343.391	-111.316	0.231	0.047
-342.377	-137.553	-0.226	-0.026
-341.362	46.560	0.152	0.142
-340.348	-129.989	0.259	-0.035
-339.333	-200.000	0.058	0.349
-338.318	-75.829	-0.328	0.116
-337.304	-200.000	0.016	0.145
-336.289	39.638	-0.319	-0.286
-335.275	248.576	-0.127	0.216
-334.260	-148.247	0.320	0.026
-333.245	158.790	-0.065	0.091
-332.231	-29.237	0.219	0.126
-331.216	222.809	0.129	0.208
-330.202	183.414	0.211	0.312
-329.187	800.000	-0.043	-0.147
-328.172	391.749	0.068	0.141
-327.158	-123.861	-0.192	0.030
-326.143	35.359	0.209	0.184
-325.129	150.207	-0.050	-0.067
-324.114	-61.322	0.061	0.026
-323.099	434.080	0.051	-0.110
-322.085	-149.523	0.233	0.018
-321.070	-200.000	-0.037	-0.476
-320.056	-160.294	0.413	0.022
-319.041	202.066	-0.240	0.371
-318.026	-200.000	0.007	-0.356
-317.012	-96.274	0.112	-0.030
-315.997	-28.129	-0.096	-0.056
-314.983	383.697	-0.128	0.264
-313.968	800.000	0.024	0.098
-312.953	-82.545	-0.111	0.036
-311.939	82.829	-0.215	0.234
-310.924	336.900	0.059	-0.115
-309.910	204.250	0.078	0.122
-308.895	-2.092	0.118	0.083
-307.880	758.218	-0.127	0.343
-306.866	284.692	0.217	0.391
-305.851	-38.999	0.104	-0.055
-304.837	-200.000	-0.025	-0.195
-303.822	-200.000	-0.003	0.106
-302.807	-71.961	0.246	0.091
-301.793	-8.528	0.289	-0.194
-300.778	51.991	-0.095	-0.090
-299.764	25.193	0.172	0.143
-298.749	-45.619	-0.054	0.027
-297.735	800.000	-0.081	-0.245
-296.720	-36.082	-0.159	-0.086
-295.705	399.863	0.152	0.318
-294.691	48.236	0.229	0.214
-293.676	255.118	-0.066	0.113
-292.662	800.000	-0.076	0.217
-291.647	210.361	-0.074	0.116
-290.632	-200.000	-0.014	0.145
-289.618	-83.917	0.064	0.021
-288.603	38.258	-0.291	0.259
-287.589	800.000	-0.065	-0.194
-286.574	10.259	0.109	-0.083
-285.559	-14.683	0.131	-0.084
-284.545	-96.956	-0.167	-0.044
-283.530	-2.010	0.194	-0.136
-282.516	-7.308	0.209	-0.141
-281.501	-200.000	0.078	-0.402
-280.486	326.045	0.110	0.210
-279.472	151.679	-0.140	0.191
-278.457	233.579	-0.318	0.524
-277.443	246.422	-0.114	0.192
-276.428	800.000	-0.060	0.212
-275.413	-43.579	0.197	-0.099
-274.399	800.000	0.099	0.318
-273.384	-139.727	0.210	0.022
-272.370	-51.329	0.262	0.123
-271.355	-149.038	-0.130	0.010
-270.340	146.843	0.041	-0.055
-269.326	-200.000	-0.015	0.227
-268.311	-68.081	0.093	0.036
-267.297	-117.679	0.453	0.082
-266.282	412.816	0.185	0.393
-265.267	313.208	0.049	-0.093
-264.253	-141.364	0.147	0.015
-263.238	800.000	-0.061	-0.226
-262.224	19.465	-0.224	-0.180
-261.209	-138.850	-0.197	0.021
-260.195	-200.000	0.064	-0.315
-259.180	131.919	-0.103	0.133
-258.165	-97.667	-0.452	0.117
-257.151	800.000	0.070	0.300
-256.136	-144.533	0.368	0.034
-255.122	5.690	-0.215	-0.159
-254.107	-144.844	-0.188	-0.017
-253.092	-39.595	0.076	0.040
-252.078	104.171	0.299	-0.351
-251.063	126.723	-0.082	0.104
-250.049	3.089	0.095	-0.069
-249.034	-200.000	0.006	0.185
-248.019	18.563	-0.259	-0.207
-247.005	-200.000	-0.044	0.000
-245.990	89.622	-0.035	-0.039
-244.976	30.170	-0.240	-0.204
-243.961	45.042	0.240	-0.221
-242.946	213.896	-0.149	0.235
-241.932	243.071	0.121	-0.203
-240.917	-29.559	0.216	-0.123
-239.903	-80.200	-0.349	-0.117
-238.888	87.333	0.215	-0.237
-237.873	-44.128	-0.268	0.134
-236.859	-166.423	0.061	0.003
-235.844	-200.000	0.040	0.247
-234.830	-17.367	0.102	-0.064
-233.815	521.704	-0.143	-0.336
-232.800	-82.502	-0.085	-0.028
-231.786	-35.226	-0.084	-0.046
-230.771	-131.571	-0.159	-0.021
-229.757	-12.488	0.073	-0.048
-228.742	-135.659	-0.171	0.020
-227.727	-106.608	0.258	-0.057
-226.713	-96.062	-0.223	-0.059
-225.698	-137.780	0.261	0.029
-224.684	-100.481	0.336	0.083
-223.669	133.495	0.115	0.148
-222.655	135.266	0.167	0.216
-221.640	474.921	-0.056	-0.125
-220.625	-139.687	-0.200	-0.021
-219.611	-200.000	-0.006	-0.055
-218.596	-136.488	-0.069	-0.008
-217.582	-40.457	0.222	-0.115
-216.567	150.513	-0.116	-0.157
-215.552	-200.000	-0.045	-0.341
-214.538	-200.000	0.063	-0.424
-213.523	271.537	-0.109	-0.191
-212.509	-200.000	-0.062	0.278
-211.494	-200.000	-0.053	0.373
-210.479	-35.785	-0.215	-0.116
-209.465	365.487	-0.076	0.152
-208.450	-84.180	-0.317	0.100
-207.436	-200.000	0.082	-0.447
-206.421	22.369	0.334	0.272
-205.406	-83.208	-0.261	0.084
-204.392	800.000	-0.060	-0.170
-203.377	426.351	0.228	0.491
-202.363	-130.638	-0.228	0.031
-201.348	81.055	0.178	-0.191
-200.333	-39.277	0.100	-0.053
-199.319	243.593	-0.135	0.226
-198.304	233.731	0.139	-0.227
-197.290	80.390	0.165	-0.177
-196.275	268.735	-0.077	0.134
-195.260	182.163	0.085	0.125
-194.246	-13.510	-0.170	0.109
-193.231	17.216	0.263	0.208
-192.217	34.971	-0.031	0.027
-191.202	793.554	-0.105	0.287
-190.187	-200.000	0.005	-0.129
-189.173	-11.736	0.376	0.246
-188.158	84.623	0.022	-0.024
-187.144	800.000	0.039	0.159
-186.129	-74.357	-0.277	0.100
-185.114	-51.257	0.257	0.120
-184.100	-139.385	-0.337	0.036
-183.085	-101.425	0.264	-0.064
-182.071	-200.000	-0.004	-0.060
-181.056	-26.969	0.319	-0.186
-180.042	800.000	0.068	0.204
-179.027	-135.392	-0.306	0.036
-178.012	96.225	0.064	0.073
-176.998	800.000	0.051	0.193
-175.983	-26.928	0.089	-0.052
-174.969	-25.930	0.212	0.124
-173.954	-11.735	-0.378	0.247
-172.939	286.811	0.115	0.207
-171.925	-200.000	-0.055	0.265
-170.910	-62.794	-0.226	0.093
-169.896	112.650	-0.119	0.143
-168.881	-99.528	0.249	0.062
-167.866	148.186	0.074	-0.099
-166.852	-115.930	0.118	-0.022
-165.837	180.094	0.196	-0.286
-164.823	64.058	-0.031	0.031
-163.808	118.102	0.063	-0.078
-162.793	99.398	-0.109	-0.126
-161.779	-179.671	-0.070	0.002
-160.764	800.000	0.087	-0.250
-159.750	7.011	0.065	-0.048
-158.735	44.110	-0.172	0.157
-157.720	-47.133	-0.177	0.086
-156.706	33.495	-0.027	-0.024
-155.691	631.888	-0.034	-0.085
-154.677	414.398	-0.025	-0.053
-153.662	-93.378	-0.068	-0.019
-152.647	-200.000	0.015	-0.184
-151.633	-39.743	-0.107	-0.056
-150.618	670.576	0.143	-0.369
-149.604	512.787	0.028	0.066
-148.589	-30.488	-0.226	-0.128
-147.574	541.006	-0.018	0.044
-146.560	184.944	0.112	0.165
-145.545	-31.196	-0.117	-0.065
-144.531	-200.000	-0.017	-0.119
-143.516	95.495	-0.139	0.158
-142.502	-78.076	0.301	-0.103
-141.487	94.364	-0.120	0.136
-140.472	-200.000	0.036	-0.374
-139.458	799.115	-0.083	-0.228
-138.443	-161.044	0.314	0.016
-137.429	-118.915	0.063	0.011
-136.414	156.103	0.111	-0.152
-135.399	-98.677	0.223	0.057
-134.385	36.042	0.276	0.241
-133.370	-164.905	-0.194	0.009
-132.356	800.000	-0.078	-0.296
-131.341	-200.000	0.010	0.109
-130.326	-128.791	0.149	-0.021
-129.312	800.000	-0.031	-0.114
-128.297	111.995	0.055	-0.066
-127.283	-125.374	0.145	-0.022
-126.268	290.295	-0.130	0.234
-125.253	800.000	-0.085	0.257
-124.239	23.991	0.094	0.077
-123.224	800.000	0.062	-0.236
-122.210	275.939	0.113	0.199
-121.195	-192.468	0.269	-0.002
-120.180	500.072	0.053	0.120
-119.166	800.000	-0.051	-0.148
-118.151	-162.560	0.127	-0.006
-117.137	576.301	0.014	-0.033
-116.122	53.130	-0.136	0.129
-115.107	-200.000	0.027	0.153
-114.093	-66.468	0.293	-0.116
-113.078	282.331	0.083	-0.148
-112.064	-197.221	-0.239	0.002
-111.049	-14.096	0.447	0.287
-110.034	54.583	0.052	0.049
-109.020	-137.242	-0.138	-0.016
-108.005	-137.553	0.432	-0.048
-106.991	169.969	0.157	-0.223
-105.976	-200.000	0.016	-0.088
-104.962	-200.000	-0.039	-0.183
-103.947	561.318	-0.095	0.227
-102.932	-85.780	0.120	-0.037
-101.918	800.000	0.051	0.173
-100.903	233.611	-0.011	-0.018
-99.889	-125.842	-0.224	0.034
-98.874	800.000	-0.066	-0.218
-97.859	-117.764	0.151	-0.027
-96.845	-54.609	-0.285	0.128
-95.830	584.590	0.080	-0.196
-94.816	-18.716	0.275	0.170
-93.801	-200.000	0.007	-0.089
-92.786	-200.000	-0.006	0.276
-91.772	-147.143	0.293	0.025
-90.757	277.878	-0.101	0.178
-89.743	-91.049	0.199	0.057
-88.728	113.727	0.083	-0.101
-87.713	800.000	0.066	-0.219
-86.699	432.703	-0.070	0.150
-85.684	299.816	0.047	-0.086
-84.670	-105.527	0.271	0.061
-83.655	-62.424	-0.149	0.062
-82.640	800.000	0.117	-0.367
-81.626	-28.084	-0.312	0.179
-80.611	98.363	0.214	0.245
-79.597	-151.215	0.356	-0.026
-78.582	-50.331	0.199	0.093
-77.567	361.757	-0.041	-0.082
-76.553	-200.000	-0.000	-0.136
-75.538	160.571	0.047	0.065
-74.524	-148.446	-0.210	-0.017
-73.509	-40.598	0.208	0.107
-72.494	-103.316	-0.067	0.016
-71.480	-64.144	0.441	0.178
-70.465	390.630	0.102	-0.211
-69.451	16.553	-0.235	-0.184
-68.436	-78.623	0.198	-0.067
-67.422	-31.105	0.135	-0.076
-66.407	47.926	0.064	0.060
-65.392	479.035	-0.041	0.093
-64.378	800.000	0.041	-0.167
-63.363	243.546	0.133	-0.222
-62.349	501.789	-0.110	-0.252
-61.334	11.630	-1.213	-0.922
-60.319	13.684	0.557	0.429
-59.305	-200.000	-0.172	-1.018
-58.290	131.467	0.641	0.817
-57.276	800.000	0.456	1.542
-56.261	-200.000	93.050	520.111
-55.246	563.224	1376.548	3302.053
-54.232	182.343	2625.744	3835.033
-53.217	117.055	2231.359	2715.860
-52.203	46.194	1759.902	1615.323
-51.188	39.254	1565.672	1388.232
-50.173	36.860	1537.216	1346.329
-49.159	53.505	1586.894	1507.890
-48.144	57.435	1606.362	1554.146
-47.130	39.653	1561.666	1387.265
-46.115	36.469	1545.766	1350.869
-45.100	36.306	1542.459	1346.792
-44.086	36.395	1539.949	1345.165
-43.071	36.210	1538.298	1342.385
-42.057	36.218	1536.878	1341.142
-41.042	36.160	1535.449	1339.439
-40.027	36.110	1534.655	1338.350
-39.013	36.177	1532.370	1336.766
-37.998	36.226	1531.298	1336.120
-36.984	36.193	1530.218	1334.897
-35.969	36.160	1529.002	1333.551
-34.954	36.233	1527.160	1332.394
-33.940	36.256	1525.702	1331.229
-32.925	36.321	1524.234	1330.344
-31.911	36.281	1523.259	1329.165
-30.896	36.291	1521.649	1327.780
-29.881	36.352	1520.805	1327.405
-28.867	36.302	1519.174	1325.589
-27.852	36.284	1517.349	1323.817
-26.838	36.273	1516.285	1322.766
-25.823	36.337	1514.725	1321.791
-24.809	36.281	1512.468	1319.386
-23.794	36.251	1511.652	1318.414
-22.779	36.258	1510.368	1317.286
-21.765	36.300	1508.959	1316.296
-20.750	36.310	1507.693	1315.205
-19.736	36.366	1506.543	1314.530
-18.721	36.237	1505.665	1312.833
-17.706	36.336	1504.585	1312.513
-16.692	36.196	1503.749	1310.783
-15.677	36.210	1502.957	1310.135
-14.663	36.297	1501.337	1309.262
-13.648	36.184	1500.210	1307.462
-12.633	36.198	1499.210	1306.635
-11.619	36.265	1498.256	1306.200
-10.604	36.124	1497.604	1304.630
-9.590	36.291	1496.659	1304.881
-8.575	36.246	1496.208	1304.136
-7.560	36.282	1494.882	1303.169
-6.546	36.213	1493.790	1301.702
-5.531	36.225	1492.938	1300.986
-4.517	36.177	1492.040	1299.827
-3.502	36.237	1491.068	1299.333
-2.487	36.202	1489.980	1298.101
-1.473	36.188	1488.837	1296.955
-0.458	36.195	1487.221	1295.550
0.556	33.616	1477.048	1282.763
1.571	29.828	1449.330	1233.379
2.586	25.348	1385.345	1150.203
3.600	23.343	1300.949	1067.963
4.615	21.982	1254.896	1022.146
5.629	18.773	1198.268	958.062
6.644	9.045	1109.614	836.612
7.659	1.024	1065.592	763.068
8.673	-0.200	1059.642	752.610
9.688	-0.361	1056.555	749.547
10.702	-0.482	1054.971	747.748
11.717	-0.427	1053.124	746.648
12.731	2.486	1056.180	763.285
13.746	11.593	1069.940	818.985
14.761	17.691	1076.581	854.662
15.775	17.418	1075.857	852.642
16.790	17.189	1074.467	850.322
17.804	16.748	1073.966	847.643
18.819	16.699	1072.598	846.243
19.834	16.738	1071.583	845.560
20.848	16.587	1071.530	844.687
21.863	16.640	1070.970	844.439
22.877	16.572	1070.606	843.738
23.892	16.632	1069.646	843.203
24.907	16.553	1068.876	842.132
25.921	16.563	1068.191	841.564
26.936	16.601	1067.597	841.213
27.950	16.670	1066.305	840.464
28.965	16.581	1065.334	839.180
29.980	16.578	1063.038	837.283
30.994	16.401	1062.055	835.558
32.009	16.583	1060.787	835.389
33.023	16.680	1060.327	835.433
34.038	16.479	1059.021	833.336
35.053	16.414	1058.093	832.213
36.067	16.630	1057.381	832.640
37.082	16.679	1056.839	832.384
38.096	16.784	1055.694	831.925
39.111	16.764	1055.260	831.411
40.126	16.902	1053.710	830.791
41.140	16.811	1052.988	829.701
42.155	16.556	1051.282	827.038
43.169	16.266	1050.313	824.787
44.184	16.400	1049.038	824.368
45.199	16.585	1047.339	823.859
46.213	16.417	1046.284	822.139
47.228	16.349	1045.186	820.872
48.242	16.423	1044.030	820.253
49.257	16.462	1042.920	819.497
50.271	16.519	1042.290	819.205
51.286	16.735	1041.060	819.210
52.301	16.680	1039.795	817.877
53.315	16.595	1039.428	817.106
54.330	16.601	1038.450	816.294
55.344	16.553	1037.125	814.949
56.359	16.632	1036.622	814.858
57.374	16.642	1035.747	814.149
58.388	16.623	1034.324	812.868
59.403	16.282	1034.169	811.037
60.417	16.494	1033.109	811.152
61.432	16.525	1031.789	810.188
62.447	16.504	1031.090	809.469
63.461	16.484	1030.904	809.154
64.476	16.592	1029.629	808.600
65.490	16.536	1028.560	807.421
66.505	16.443	1027.993	806.460
67.520	16.571	1026.731	806.008
68.534	16.604	1025.768	805.338
69.549	16.565	1025.172	804.616
70.563	16.275	1023.836	802.115
71.578	16.263	1023.138	801.441
72.593	16.412	1022.231	801.369
73.607	16.293	1020.970	799.745
74.622	16.224	1020.197	798.744
75.636	16.464	1018.989	798.857
76.651	16.543	1018.822	799.030
77.666	16.386	1017.926	797.516
78.680	16.302	1016.469	795.911
79.695	16.404	1015.786	795.781
80.709	16.443	1015.761	795.877
81.724	16.546	1014.816	795.553
82.739	16.349	1013.743	793.712
83.753	16.438	1013.042	793.512
84.768	16.522	1011.827	792.883
85.782	16.833	1010.533	793.258
86.797	16.670	1010.202	792.162
87.812	16.794	1008.709	791.504
88.826	16.650	1007.826	790.068
89.841	16.768	1006.945	789.859
90.855	16.788	1006.522	789.547
91.870	16.786	1005.924	788.998
92.884	16.690	1004.742	787.556
93.899	16.738	1003.767	786.945
94.914	16.607	1002.801	785.511
95.928	16.757	1002.177	785.646
96.943	16.730	1001.619	785.019
97.957	16.421	1000.843	782.905
98.972	16.374	999.129	781.281
99.987	16.185	997.939	779.408
101.001	16.134	997.436	778.711
102.016	16.414	996.729	779.382
103.030	16.602	995.783	779.438
104.045	16.496	994.495	777.875
105.060	16.211	993.433	775.665
106.074	16.303	991.905	774.826
107.089	16.199	991.317	773.819
108.103	16.506	991.325	775.163
109.118	16.736	990.349	775.389
110.133	16.493	989.163	773.280
111.147	16.464	988.352	772.444
112.162	16.450	987.131	771.355
113.176	16.431	985.499	769.927
114.191	16.405	984.802	769.195
115.206	16.530	983.597	768.753
116.220	16.270	982.595	766.724
117.235	16.184	981.662	765.535
118.249	16.397	980.825	765.783
119.264	16.446	979.805	765.141
120.279	16.345	978.685	763.742
121.293	16.372	978.164	763.387
122.308	16.224	977.817	762.380
123.322	16.399	976.690	762.224
124.337	16.352	975.830	761.273
125.352	16.382	973.839	759.789
126.366	16.090	971.861	756.869
127.381	15.658	970.743	753.992
128.395	16.041	970.529	755.476
129.410	16.636	969.055	756.926
130.424	16.757	968.709	757.129
131.439	16.867	967.259	756.421
132.454	16.660	966.113	754.533
133.468	16.660	965.746	754.179
134.483	16.649	965.103	753.561
135.497	16.641	964.483	752.974
136.512	16.887	963.234	753.027
137.527	16.898	962.761	752.638
138.541	16.738	961.926	751.212
139.556	16.935	961.046	751.329
140.570	16.781	959.844	749.642
141.585	16.784	959.217	749.098
142.600	16.840	958.188	748.476
143.614	16.722	957.250	747.159
144.629	16.860	956.407	747.042
145.643	17.049	955.904	747.415
146.658	16.910	954.683	745.783
147.673	16.870	953.495	744.612
148.687	16.823	952.674	743.701
149.702	16.782	951.405	742.462
150.716	16.640	950.997	741.456
151.731	16.633	949.479	740.179
152.746	16.687	948.689	739.734
153.760	16.858	948.078	739.938
154.775	16.907	947.635	739.741
155.789	17.064	946.700	739.630
156.804	16.981	945.506	738.268
157.819	16.929	944.642	737.305
158.833	16.989	943.893	736.915
159.848	17.033	942.789	736.176
160.862	16.946	942.146	735.234
161.877	16.829	941.244	733.956
162.892	16.809	940.241	733.026
163.906	17.107	939.576	733.728
164.921	16.952	939.112	732.631
165.935	16.862	937.888	731.222
166.950	17.015	936.534	730.763
167.964	16.939	935.570	729.618
168.979	16.930	934.372	728.584
169.994	16.838	933.081	727.114
171.008	16.698	932.404	725.925
172.023	16.883	931.709	726.110
173.037	17.005	930.997	726.016
174.052	16.744	929.628	723.766
175.067	16.565	928.858	722.340
176.081	16.729	928.193	722.459
177.096	16.899	927.405	722.507
178.110	17.027	926.345	722.161
179.125	16.746	925.244	720.043
180.140	16.437	924.167	717.829
181.154	16.548	923.968	718.084
182.169	16.719	923.017	718.007
183.183	16.774	922.504	717.774
184.198	16.913	921.898	717.828
185.213	16.879	921.162	717.048
186.227	16.955	920.396	716.710
187.242	16.924	919.785	716.039
188.256	16.981	919.244	715.796
189.271	16.928	918.502	714.930
190.286	16.948	917.795	714.404
191.300	16.952	916.414	713.278
192.315	16.549	915.657	710.934
193.329	16.107	914.203	707.890
194.344	15.918	912.628	705.815
195.359	16.077	913.838	707.354
196.373	16.738	913.153	709.532
197.388	17.027	912.742	710.360
198.402	16.842	911.630	708.658
199.417	16.646	911.244	707.477
200.432	16.832	910.456	707.580
201.446	16.739	909.367	706.283
202.461	16.185	909.397	703.929
203.475	16.399	908.469	704.044
204.490	15.951	906.917	700.912
205.504	15.064	905.690	696.216
206.519	15.762	905.168	698.653
207.534	16.612	904.854	701.878
208.548	16.531	904.711	701.366
209.563	16.740	904.836	702.268
210.577	16.886	903.632	701.875
211.592	16.706	902.949	700.539
212.607	16.878	902.688	700.985
213.621	16.843	902.117	700.337
214.636	16.914	901.324	699.953
215.650	17.049	900.577	699.865
216.665	16.878	900.201	698.807
217.680	16.998	899.707	698.856
218.694	17.144	898.813	698.702
219.709	16.708	898.102	696.295
220.723	16.432	897.189	694.390
221.738	16.669	896.466	694.744
222.753	16.968	895.881	695.454
223.767	16.930	895.157	694.672
224.782	16.820	894.559	693.698
225.796	16.913	894.056	693.628
226.811	17.149	892.922	693.651
227.826	16.896	891.600	691.532
228.840	16.290	890.624	688.243
229.855	16.238	889.949	687.448
230.869	16.398	889.682	687.831
231.884	16.089	888.744	685.789
232.899	16.113	887.844	685.132
233.913	16.891	887.844	688.230
234.928	17.136	887.039	688.540
235.942	17.022	886.429	687.544
236.957	17.128	886.044	687.614
237.972	16.833	885.048	685.585
238.986	16.831	883.747	684.508
240.001	16.882	883.544	684.497
241.015	16.935	882.969	684.204
242.030	17.013	881.776	683.534
243.045	16.939	881.616	683.051
244.059	16.966	880.888	682.538
245.074	17.190	880.126	682.785
246.088	17.105	879.258	681.711
247.103	16.803	878.103	679.545
248.117	16.614	877.788	678.483
249.132	17.052	877.716	680.121
250.147	17.284	877.255	680.634
251.161	17.153	876.044	679.108
252.176	17.529	875.378	680.036
253.190	17.508	874.746	679.403
254.205	17.456	874.102	678.634
255.220	17.625	873.892	679.084
256.234	17.604	873.629	678.736
257.249	17.466	872.776	677.464
258.263	17.517	871.500	676.615
259.278	17.613	871.105	676.633
260.293	17.475	870.765	675.758
261.307	17.672	870.016	675.897
262.322	17.513	869.192	674.569
263.336	17.581	867.795	673.697
264.351	16.956	866.925	670.488
265.366	15.888	865.473	665.092
266.380	15.657	864.236	663.169
267.395	16.413	864.411	666.227
268.409	17.087	864.495	668.891
269.424	17.208	863.671	668.668
270.439	17.390	863.182	668.946
271.453	17.509	862.512	668.837
272.468	17.385	862.343	668.159
273.482	17.594	861.570	668.319
274.497	17.853	861.049	668.873
275.512	17.585	859.806	666.797
276.526	17.054	858.264	663.469
277.541	17.185	857.975	663.701
278.555	17.580	857.463	664.787
279.570	17.264	856.281	662.578
280.585	17.037	855.433	660.982
281.599	17.100	855.150	660.950
282.614	17.455	854.484	661.757
283.628	17.129	853.332	659.537
284.643	16.770	852.610	657.528
285.657	17.129	852.720	658.949
286.672	17.135	852.086	658.425
287.687	16.610	850.897	655.414
288.701	16.984	850.593	656.571
289.716	17.276	850.529	657.593
290.730	16.989	849.459	655.596
291.745	16.838	848.946	654.560
292.760	16.736	847.417	652.932
293.774	16.510	847.157	651.803
294.789	17.421	847.099	655.211
295.803	17.816	847.205	656.754
296.818	17.791	846.693	656.203
297.833	18.022	846.248	656.688
298.847	17.889	845.007	655.156
299.862	17.644	843.923	653.317
300.876	17.821	843.708	653.774
301.891	18.015	843.001	653.911
302.906	17.903	842.485	653.024
303.920	17.533	841.423	650.728
304.935	17.253	840.463	648.861
305.949	17.636	839.851	649.790
306.964	17.935	839.176	650.349
307.979	17.911	838.697	649.831
308.993	17.831	838.098	649.003
310.008	18.111	837.971	649.911
311.022	18.059	837.551	649.332
312.037	18.021	837.150	648.820
313.052	17.801	836.217	647.203
314.066	17.637	835.846	646.239
315.081	17.344	834.732	644.210
316.095	16.746	833.592	641.008
317.110	17.114	833.370	642.174
318.125	17.835	833.175	644.692
319.139	17.537	832.789	643.210
320.154	16.657	831.155	638.574
321.168	16.497	829.932	636.974
322.183	16.889	829.907	638.377
323.197	17.484	830.098	640.707
324.212	17.623	830.170	641.230
325.227	17.895	829.695	641.827
326.241	17.912	829.146	641.410
327.256	18.056	828.313	641.248
328.270	17.876	827.957	640.243
329.285	17.867	827.179	639.551
330.300	17.895	826.358	638.965
331.314	17.755	825.434	637.669
332.329	17.641	824.923	636.791
333.343	17.950	824.360	637.453
334.358	18.052	824.313	637.741
335.373	17.958	823.428	636.651
336.387	18.000	822.846	636.301
337.402	18.155	822.534	636.579
338.416	18.423	822.115	637.195
339.431	18.270	821.089	635.778
340.446	18.183	820.457	634.909
341.460	18.215	820.137	634.722
342.475	18.301	819.217	634.274
343.489	18.115	818.604	633.056
344.504	17.961	818.077	632.021
345.519	18.282	817.890	633.007
346.533	18.579	817.607	633.832
347.548	18.532	817.132	633.234
348.562	18.653	816.826	633.384
349.577	18.527	816.421	632.551
350.592	18.526	815.472	631.757
351.606	18.731	815.029	632.111
352.621	18.633	814.707	631.447
353.635	18.680	814.454	631.365
354.650	18.427	813.687	629.785
355.665	18.228	812.588	628.150
356.679	17.253	811.275	623.503
357.694	17.208	810.621	622.780
358.708	17.751	810.368	624.520
359.723	17.864	809.605	624.290
360.738	18.032	809.340	624.646
361.752	18.370	809.315	625.805
362.767	18.431	809.307	625.967
363.781	18.642	808.396	625.977
364.796	18.702	808.437	626.173
365.810	18.696	807.907	625.686
366.825	18.874	807.501	625.965
367.840	18.849	807.051	625.467
368.854	18.835	806.384	624.844
369.869	18.560	805.634	623.208
370.883	18.335	805.086	621.912
371.898	18.478	804.559	621.972
372.913	18.349	803.732	620.806
373.927	18.088	803.276	619.455
374.942	18.364	802.628	619.899
375.956	18.729	801.770	620.501
376.971	18.742	801.363	620.180
377.986	18.854	800.747	620.050
379.000	18.847	800.693	619.929
380.015	18.615	800.299	618.734
381.029	18.573	799.764	618.114
382.044	18.722	798.798	617.849
383.059	18.785	798.418	617.724
384.073	18.716	797.948	617.059
385.088	18.776	797.477	616.857
386.102	18.905	797.015	616.906
387.117	18.932	796.066	616.214
388.132	18.825	795.779	615.554
389.146	18.709	795.251	614.678
390.161	18.403	793.980	612.548
391.175	18.266	793.661	611.756
392.190	18.495	793.502	612.396
393.205	18.580	793.212	612.424
394.219	17.931	791.765	608.937
395.234	16.816	790.274	603.768
396.248	16.344	789.223	601.232
397.263	17.083	789.906	604.330
398.278	18.609	790.544	610.196
399.292	18.775	790.786	610.918
400.307	18.828	789.825	610.310
401.321	18.859	789.372	610.016
402.336	18.848	789.119	609.731
403.350	18.912	789.047	609.846
404.365	19.080	788.625	610.061
405.380	19.259	788.292	610.385
406.394	19.382	788.149	610.654
407.409	19.307	787.706	609.991
408.423	19.363	786.835	609.463
409.438	19.284	786.529	608.891
410.453	19.420	785.499	608.520
411.467	19.532	785.598	608.937
412.482	19.541	784.915	608.385
413.496	19.443	784.650	607.783
414.511	19.539	784.253	607.758
415.526	19.552	783.668	607.298
416.540	19.477	783.432	606.797
417.555	19.551	782.620	606.374
418.569	19.128	782.050	604.395
419.584	19.093	781.690	603.940
420.599	19.228	781.037	603.855
421.613	152.988	1357.543	1787.875
422.628	132.144	1441.556	1788.002
