DTS Sentinel unit serial number:	SN413079Multiplexer serial number:	ORYXHardware model number:	OX4-SRSoftware version number:	ORYX F/W v4.00 Oryx Data Collector v3.7.2.0data status	okinstallation	princeton_trtdifferential loss correction	single-endedforward channel	channel 3reverse channel	N/Adate	2019/09/19time	07:20:35forward acquisition time	60.00reverse acquisition time	0.00gamma	496.2192k internal	0.2348k external	0.2348temperature offset calibration	0.9985default loss term (dB/km)	0.3790temperature slope calibration	1.0000multiplexer offset coefficient	1.0000multiplexer slope coefficient	1.0000fibre end	0.00T internal ref (°C)	19.12T ext. ref 1 (°C)	0.55T ext. ref 2 (°C)	13.69length (m)	temperature (°C)	Stokes	anti-Stokes-747.200	-34.717	0.309	-0.169
-746.185	-117.216	-0.256	-0.046
-745.171	282.851	0.183	0.329
-744.156	-200.000	0.079	0.587
-743.142	780.879	0.096	0.263
-742.127	-35.414	-0.059	-0.032
-741.112	-98.839	0.183	-0.046
-740.098	162.717	0.210	0.295
-739.083	-0.018	0.311	-0.221
-738.069	49.162	-0.111	-0.104
-737.054	-29.579	-0.288	0.164
-736.039	-200.000	-0.013	-0.278
-735.025	-24.518	0.204	0.121
-734.010	-71.599	0.191	-0.071
-732.996	114.714	0.306	0.373
-731.981	21.047	-0.073	-0.059
-730.966	13.948	-0.147	-0.114
-729.952	-168.960	0.158	0.006
-728.937	-31.345	0.175	-0.098
-727.923	102.134	-0.172	-0.200
-726.908	-200.000	-0.010	-0.282
-725.894	-24.091	-0.118	0.070
-724.879	-21.958	-0.134	-0.081
-723.864	-48.290	-0.230	0.111
-722.850	800.000	0.033	0.112
-721.835	190.335	-0.104	0.156
-720.821	-176.154	-0.234	-0.006
-719.806	-200.000	-0.001	-0.188
-718.791	32.808	-0.094	-0.081
-717.777	149.458	0.085	0.115
-716.762	-66.677	-0.306	0.121
-715.748	61.822	0.094	-0.094
-714.733	-96.496	-0.482	0.127
-713.718	76.982	0.143	0.152
-712.704	82.960	0.068	0.074
-711.689	-90.449	-0.185	-0.054
-710.675	-48.141	0.097	-0.047
-709.660	-56.779	-0.027	-0.012
-708.645	-22.330	0.239	0.144
-707.631	-61.099	0.342	0.144
-706.616	-4.263	-0.157	0.108
-705.602	25.965	-0.153	0.127
-704.587	165.961	0.136	-0.192
-703.572	243.011	0.059	0.098
-702.558	34.587	-0.108	-0.094
-701.543	242.285	0.076	0.127
-700.529	-103.597	0.133	0.031
-699.514	-136.551	-0.283	0.033
-698.499	-13.324	0.219	-0.142
-697.485	166.972	0.176	-0.248
-696.470	-12.558	0.259	0.169
-695.456	199.329	-0.114	0.174
-694.441	-200.000	-0.017	0.154
-693.426	-104.321	0.059	-0.014
-692.412	-122.558	0.190	0.031
-691.397	3.872	0.262	0.191
-690.383	485.736	-0.096	0.217
-689.368	630.141	0.050	0.125
-688.354	-62.871	-0.182	0.075
-687.339	-200.000	0.019	-0.282
-686.324	-200.000	0.004	0.330
-685.310	-190.497	0.176	0.002
-684.295	-200.000	-0.017	0.106
-683.281	-76.920	0.386	0.135
-682.266	695.027	0.135	-0.353
-681.251	-165.622	0.150	0.006
-680.237	-54.514	-0.275	-0.124
-679.222	-200.000	0.043	-0.275
-678.208	-200.000	-0.047	0.467
-677.193	593.266	0.066	-0.163
-676.178	24.437	-0.145	0.120
-675.164	-35.549	0.166	0.090
-674.149	-96.040	0.161	0.043
-673.135	-191.216	-0.134	-0.001
-672.120	-123.125	0.286	-0.046
-671.105	-200.000	-0.025	-0.256
-670.091	-151.008	0.130	0.010
-669.076	800.000	0.053	-0.157
-668.062	286.893	-0.133	-0.239
-667.047	-190.905	0.266	0.003
-666.032	-200.000	0.014	0.186
-665.018	-25.619	-0.204	-0.120
-664.003	-126.945	-0.200	-0.029
-662.989	-200.000	-0.047	0.413
-661.974	-101.847	-0.255	-0.061
-660.959	172.014	0.052	0.075
-659.945	211.140	0.014	-0.022
-658.930	-76.983	0.277	-0.096
-657.916	117.439	0.176	-0.216
-656.901	-200.000	-0.026	0.126
-655.886	340.245	0.078	0.152
-654.872	-200.000	0.007	0.066
-653.857	-200.000	-0.006	-0.190
-652.843	1.210	-0.271	-0.194
-651.828	-200.000	0.022	0.281
-650.814	48.033	0.122	0.114
-649.799	-200.000	0.059	-0.402
-648.784	-105.278	0.161	0.036
-647.770	-138.912	-0.356	0.039
-646.755	19.540	-0.035	0.028
-645.741	40.231	-0.007	0.006
-644.726	-9.930	-0.347	-0.230
-643.711	83.423	-0.258	-0.279
-642.697	-103.779	-0.330	0.077
-641.682	-133.585	-0.043	-0.005
-640.668	181.075	0.076	-0.111
-639.653	618.263	0.077	-0.192
-638.638	-102.532	-0.199	0.047
-637.624	-147.476	0.160	0.013
-636.609	800.000	-0.023	-0.075
-635.595	317.216	0.146	0.275
-634.580	126.542	-0.310	0.390
-633.565	318.934	-0.175	0.329
-632.551	241.928	-0.108	0.180
-631.536	751.710	0.106	0.283
-630.522	38.425	-0.272	-0.241
-629.507	-97.390	0.416	0.108
-628.492	-72.035	-0.261	-0.096
-627.478	-200.000	0.015	-0.122
-626.463	-62.179	-0.281	0.116
-625.449	49.477	0.022	0.021
-624.434	-80.887	-0.265	-0.087
-623.419	123.213	-0.025	0.031
-622.405	-200.000	-0.022	0.160
-621.390	800.000	-0.053	0.200
-620.376	-160.705	-0.300	0.016
-619.361	800.000	0.037	-0.133
-618.346	27.343	0.052	-0.044
-617.332	-48.401	0.231	-0.111
-616.317	-0.292	-0.131	0.092
-615.303	192.736	0.111	0.167
-614.288	279.060	-0.167	0.296
-613.273	-200.000	0.009	-0.057
-612.259	-38.310	0.231	-0.122
-611.244	-171.375	-0.381	-0.013
-610.230	50.686	-0.298	-0.281
-609.215	185.696	-0.113	-0.167
-608.201	100.014	0.083	0.095
-607.186	59.530	0.325	-0.318
-606.171	800.000	-0.013	0.051
-605.157	31.181	-0.169	0.144
-604.142	588.324	-0.033	-0.080
-603.128	-83.160	-0.161	-0.051
-602.113	800.000	-0.065	0.274
-601.098	-134.125	-0.050	0.006
-600.084	-19.899	0.267	-0.164
-599.069	-71.753	-0.154	-0.057
-598.055	16.258	0.222	0.174
-597.040	291.031	0.128	-0.230
-596.025	-200.000	-0.094	-0.460
-595.011	-58.204	-0.350	0.151
-593.996	-200.000	-0.035	-0.342
-592.982	-131.444	-0.289	0.038
-591.967	-200.000	-0.025	0.130
-590.952	679.833	-0.119	-0.308
-589.938	117.291	0.208	-0.254
-588.923	-101.142	0.322	-0.078
-587.909	-26.645	-0.202	0.117
-586.894	762.147	0.052	0.140
-585.879	-183.882	-0.453	-0.008
-584.865	14.918	-0.165	0.128
-583.850	-200.000	0.053	-0.382
-582.836	-76.285	-0.247	0.086
-581.821	800.000	0.043	-0.158
-580.806	-121.316	-0.161	0.027
-579.792	-200.000	0.141	-0.001
-578.777	-51.823	0.299	-0.138
-577.763	-200.000	0.015	0.118
-576.748	-38.619	0.208	0.109
-575.733	154.590	-0.181	0.247
-574.719	-200.000	0.002	-0.206
-573.704	-169.039	-0.071	0.003
-572.690	-75.542	0.152	-0.054
-571.675	-20.925	0.141	-0.086
-570.661	-200.000	-0.005	-0.355
-569.646	800.000	0.023	-0.078
-568.631	-57.441	-0.129	0.056
-567.617	185.852	-0.085	-0.126
-566.602	-46.504	-0.087	0.042
-565.588	-72.041	-0.104	-0.038
-564.573	-167.431	-0.150	-0.006
-563.558	-168.500	-0.320	0.012
-562.544	135.931	0.084	0.108
-561.529	-200.000	-0.008	0.182
-560.515	-200.000	0.013	-0.132
-559.500	-175.141	0.115	-0.003
-558.485	-42.163	0.248	0.126
-557.471	-200.000	0.052	-0.315
-556.456	-9.614	0.143	0.095
-555.442	-200.000	-0.026	0.226
-554.427	-45.093	-0.214	0.106
-553.412	27.434	0.216	-0.180
-552.398	-107.578	0.116	-0.025
-551.383	-88.618	0.377	0.111
-550.369	-97.974	-0.289	-0.074
-549.354	371.681	0.081	0.162
-548.339	-131.835	0.193	0.025
-547.325	154.374	-0.055	0.075
-546.310	416.573	0.085	-0.181
-545.296	289.322	0.090	-0.162
-544.281	66.031	-0.144	-0.145
-543.266	-200.000	0.009	0.208
-542.252	459.985	-0.024	0.053
-541.237	168.221	-0.025	0.035
-540.223	-74.209	0.119	-0.043
-539.208	40.401	-0.229	0.204
-538.193	-159.901	0.042	-0.002
-537.179	-21.503	0.165	0.100
-536.164	-33.000	0.244	-0.134
-535.150	204.516	-0.106	-0.162
-534.135	234.028	-0.088	-0.144
-533.121	279.506	-0.117	-0.207
-532.106	-15.317	-0.155	-0.098
-531.091	-157.013	-0.542	-0.033
-530.077	160.013	-0.070	0.097
-529.062	133.024	-0.015	0.019
-528.048	129.600	-0.237	-0.300
-527.033	-200.000	-0.155	0.001
-526.018	449.673	0.083	-0.182
-525.004	3.256	0.207	-0.149
-523.989	800.000	0.022	-0.073
-522.975	-75.342	-0.224	0.079
-521.960	83.345	-0.106	-0.115
-520.945	-200.000	0.028	-0.201
-519.931	45.746	0.193	0.177
-518.916	-113.632	0.238	-0.046
-517.902	-50.365	0.299	-0.140
-516.887	-30.361	0.114	0.064
-515.872	-200.000	0.005	0.234
-514.858	-10.369	0.153	-0.101
-513.843	-12.719	-0.227	0.147
-512.829	52.093	0.257	-0.242
-511.814	-71.715	0.207	-0.076
-510.799	-8.316	-0.085	0.057
-509.785	-14.709	0.146	0.093
-508.770	800.000	-0.108	-0.318
-507.756	142.317	-0.109	0.143
-506.741	-200.000	0.069	0.315
-505.726	485.077	-0.063	-0.142
-504.712	265.511	-0.080	-0.138
-503.697	177.641	-0.113	0.163
-502.683	-20.128	0.216	-0.132
-501.668	197.675	0.157	-0.237
-500.653	800.000	0.071	0.302
-499.639	-170.458	0.329	0.011
-498.624	-131.225	0.153	-0.020
-497.610	800.000	0.068	-0.289
-496.595	-92.650	-0.179	0.050
-495.581	-83.051	0.171	-0.054
-494.566	-85.717	0.227	-0.070
-493.551	200.491	-0.157	-0.238
-492.537	-20.067	0.325	0.198
-491.522	-1.299	-0.148	-0.103
-490.508	800.000	0.090	-0.381
-489.493	214.860	-0.133	-0.208
-488.478	800.000	-0.047	0.145
-487.464	-137.420	-0.194	-0.022
-486.449	-142.152	0.124	-0.012
-485.435	-93.349	0.036	0.010
-484.420	-200.000	-0.001	-0.168
-483.405	-9.879	-0.112	-0.073
-482.391	-60.123	0.186	0.078
-481.376	368.596	0.059	0.119
-480.362	-200.000	-0.049	-0.255
-479.347	4.936	-0.118	0.086
-478.332	125.017	0.214	-0.266
-477.318	-26.231	-0.118	-0.068
-476.303	-31.604	0.050	0.028
-475.289	-56.185	-0.181	-0.079
-474.274	-200.000	0.088	0.624
-473.259	49.931	-0.040	0.037
-472.245	70.778	-0.143	0.147
-471.230	-200.000	-0.066	0.377
-470.216	-32.803	-0.182	-0.100
-469.201	19.364	0.177	0.141
-468.186	-50.993	-0.259	0.120
-467.172	-76.379	0.384	-0.134
-466.157	31.723	-0.057	-0.049
-465.143	-200.000	-0.024	0.157
-464.128	-82.695	0.407	0.130
-463.113	238.047	0.141	0.231
-462.099	372.283	0.039	0.078
-461.084	626.064	-0.058	0.143
-460.070	-200.000	0.043	-0.396
-459.055	11.369	0.204	0.154
-458.040	800.000	-0.048	0.189
-457.026	-200.000	0.042	0.254
-456.011	-15.641	-0.190	0.120
-454.997	-48.785	-0.232	-0.110
-453.982	800.000	0.127	0.417
-452.968	-34.738	0.204	0.110
-451.953	-200.000	-0.001	-0.107
-450.938	140.441	-0.048	-0.063
-449.924	8.325	-0.208	-0.154
-448.909	-160.817	-0.133	0.007
-447.895	172.047	-0.096	-0.136
-446.880	307.123	0.066	0.121
-445.865	18.942	0.065	-0.051
-444.851	-200.000	0.016	-0.164
-443.836	-167.570	-0.235	-0.009
-442.822	51.326	-0.183	0.172
-441.807	378.808	0.146	0.296
-440.792	-69.706	-0.321	0.121
-439.778	-60.280	-0.209	-0.088
-438.763	-116.606	-0.301	-0.055
-437.749	-200.000	-0.030	-0.234
-436.734	-89.250	-0.186	0.054
-435.719	29.493	0.256	0.215
-434.705	742.925	0.067	0.177
-433.690	11.529	0.109	-0.083
-432.676	18.453	-0.238	-0.188
-431.661	-154.044	0.485	-0.033
-430.646	-84.236	0.212	0.066
-429.632	-78.853	-0.108	-0.036
-428.617	782.637	0.018	0.049
-427.603	-200.000	-0.008	-0.149
-426.588	-200.000	-0.003	0.067
-425.573	800.000	0.027	0.093
-424.559	800.000	0.027	0.116
-423.544	-166.932	0.384	0.016
-422.530	161.590	0.112	-0.155
-421.515	570.985	0.053	-0.127
-420.500	43.619	-0.184	0.166
-419.486	-83.366	-0.078	0.025
-418.471	235.319	-0.102	-0.165
-417.457	799.302	-0.113	0.307
-416.442	286.708	0.125	-0.222
-415.428	-124.402	-0.212	0.033
-414.413	-200.000	-0.047	0.215
-413.398	-70.168	-0.174	-0.065
-412.384	-146.167	0.141	0.012
-411.369	412.981	-0.117	-0.245
-410.355	379.157	-0.068	-0.138
-409.340	94.803	-0.329	0.369
-408.325	449.288	0.065	0.141
-407.311	-125.222	-0.082	0.012
-406.296	-176.626	-0.104	0.003
-405.282	800.000	0.135	0.480
-404.267	40.328	0.302	0.268
-403.252	-139.399	-0.089	0.009
-402.238	20.827	0.121	0.096
-401.223	4.651	0.350	0.253
-400.209	-200.000	0.019	-0.139
-399.194	800.000	0.076	0.222
-398.179	111.574	0.087	0.104
-397.165	763.488	0.057	0.152
-396.150	14.981	-0.256	0.198
-395.136	82.076	0.203	-0.217
-394.121	158.351	-0.056	-0.076
-393.106	800.000	-0.052	0.150
-392.092	112.983	-0.069	0.082
-391.077	-200.000	-0.431	-0.002
-390.063	-33.190	-0.192	-0.105
-389.048	-200.000	-0.032	-0.227
-388.033	-103.145	0.257	-0.060
-387.019	28.147	0.258	0.215
-386.004	800.000	-0.050	-0.153
-384.990	37.611	0.136	0.119
-383.975	112.619	-0.087	-0.103
-382.960	-82.411	-0.245	-0.078
-381.946	2.522	0.326	0.232
-380.931	-160.965	-0.327	-0.017
-379.917	-200.000	-0.004	0.164
-378.902	-200.000	-0.016	0.235
-377.888	-60.754	-0.255	-0.106
-376.873	-104.409	0.172	-0.039
-375.858	800.000	0.115	0.422
-374.844	629.510	-0.061	0.151
-373.829	-47.736	0.151	-0.072
-372.815	-132.934	-0.179	0.022
-371.800	628.301	-0.061	-0.152
-370.785	13.711	0.075	0.057
-369.771	-61.697	-0.123	-0.051
-368.756	40.465	-0.226	0.200
-367.742	78.943	-0.279	-0.295
-366.727	152.168	-0.005	0.007
-365.712	119.750	-0.077	-0.094
-364.698	-129.353	0.163	0.022
-363.683	377.276	-0.070	0.140
-362.669	-67.623	0.118	-0.045
-361.654	296.769	0.053	0.095
-360.639	180.635	0.316	-0.457
-359.625	-102.524	-0.269	-0.063
-358.610	63.310	0.165	-0.163
-357.596	-51.727	0.069	-0.032
-356.581	35.317	-0.219	0.189
-355.566	-51.291	0.017	0.008
-354.552	-146.020	0.278	0.024
-353.537	-176.845	-0.525	-0.013
-352.523	-81.493	0.290	-0.094
-351.508	-200.000	-0.065	0.395
-350.493	-108.168	0.164	0.035
-349.479	-77.961	0.064	0.022
-348.464	233.409	-0.125	-0.203
-347.450	361.911	-0.026	0.051
-346.435	-104.734	0.134	0.030
-345.420	-200.000	-0.097	0.433
-344.406	-142.405	0.297	-0.029
-343.391	-49.406	0.166	0.078
-342.377	-55.304	-0.126	-0.056
-341.362	-82.657	0.278	0.089
-340.348	-200.000	-0.090	0.482
-339.333	335.362	0.043	0.082
-338.318	-107.702	-0.191	0.041
-337.304	10.458	0.183	-0.137
-336.289	800.000	0.088	0.345
-335.275	-25.890	0.039	0.023
-334.260	391.295	0.186	-0.380
-333.245	-194.011	-0.079	-0.001
-332.231	-6.634	-0.226	-0.151
-331.216	85.047	0.322	0.347
-330.202	-100.838	-0.165	-0.040
-329.187	-166.936	-0.454	-0.018
-328.172	800.000	-0.077	-0.221
-327.158	-167.633	0.153	-0.006
-326.143	211.910	-0.166	0.257
-325.129	79.278	0.160	-0.169
-324.114	-200.000	0.027	0.121
-323.099	131.190	0.126	-0.159
-322.085	466.320	0.145	0.319
-321.070	-123.777	-0.227	0.035
-320.056	211.318	0.088	-0.136
-319.041	-64.237	0.069	-0.028
-318.026	-42.568	0.072	-0.036
-317.012	105.894	0.160	-0.187
-315.997	-200.000	-0.039	-0.301
-314.983	-94.375	0.378	-0.101
-313.968	-200.000	0.030	-0.362
-312.953	114.153	-0.201	0.240
-311.939	-200.000	0.034	0.173
-310.924	800.000	0.032	0.127
-309.910	387.015	0.153	0.311
-308.895	171.638	-0.261	0.368
-307.880	-63.032	0.228	0.092
-306.866	58.947	-0.167	-0.161
-305.851	-2.250	0.074	-0.051
-304.837	-166.798	0.294	-0.012
-303.822	45.923	0.276	-0.250
-302.807	800.000	-0.049	-0.161
-301.793	-153.360	0.144	-0.010
-300.778	128.453	-0.182	0.227
-299.764	46.069	0.228	-0.207
-298.749	-52.265	0.092	0.042
-297.735	-200.000	0.017	0.499
-296.720	-67.936	0.148	0.057
-295.705	-55.793	0.417	-0.183
-294.691	359.103	0.092	-0.181
-293.676	-200.000	0.001	0.020
-292.662	-200.000	0.053	-0.485
-291.647	-200.000	0.016	0.157
-290.632	-59.587	0.031	-0.013
-289.618	-144.887	0.365	-0.033
-288.603	111.295	-0.132	0.156
-287.589	800.000	-0.079	-0.292
-286.574	212.047	-0.052	0.080
-285.559	-160.074	-0.192	-0.010
-284.545	-49.308	0.275	-0.129
-283.530	-200.000	-0.016	0.152
-282.516	-102.451	-0.124	-0.029
-281.501	152.061	-0.129	-0.172
-280.486	-89.087	0.158	0.046
-279.472	-39.307	-0.412	-0.212
-278.457	-79.236	-0.358	0.119
-277.443	252.459	-0.071	-0.119
-276.428	800.000	0.009	0.027
-275.413	184.994	0.218	-0.317
-274.399	170.278	-0.261	0.367
-273.384	-172.836	0.193	0.006
-272.370	47.062	0.151	0.137
-271.355	25.954	0.065	-0.053
-270.340	180.239	-0.049	0.071
-269.326	-14.057	-0.382	-0.242
-268.311	313.256	-0.092	0.169
-267.297	-200.000	-0.014	0.232
-266.282	123.071	0.146	0.180
-265.267	-132.607	0.050	0.006
-264.253	114.514	-0.213	0.255
-263.238	141.581	-0.147	0.191
-262.224	800.000	0.003	0.008
-261.209	19.622	0.225	-0.178
-260.195	207.228	-0.088	-0.135
-259.180	-66.389	0.191	0.074
-258.165	-151.488	0.109	-0.008
-257.151	756.779	0.056	0.148
-256.136	-200.000	0.008	-0.206
-255.122	116.409	0.100	-0.120
-254.107	163.273	0.229	-0.315
-253.092	140.569	0.018	-0.023
-252.078	38.190	0.269	-0.234
-251.063	11.323	0.082	-0.061
-250.049	-23.420	-0.083	-0.049
-249.034	295.595	-0.074	-0.133
-248.019	-57.051	0.433	0.187
-247.005	800.000	0.058	-0.216
-245.990	188.522	0.264	-0.388
-244.976	-200.000	0.032	-0.215
-243.961	490.229	0.036	0.080
-242.946	-43.175	-0.129	0.064
-241.932	-200.000	0.141	-0.001
-240.917	-7.978	0.297	0.197
-239.903	-9.321	-0.147	0.096
-238.888	469.847	-0.051	0.111
-237.873	30.972	0.084	0.070
-236.859	-200.000	0.012	0.203
-235.844	800.000	0.050	-0.200
-234.830	-200.000	-0.004	0.029
-233.815	92.645	0.231	-0.255
-232.800	-200.000	-0.006	0.258
-231.786	153.918	0.114	0.154
-230.771	-73.905	0.264	-0.094
-229.757	-200.000	0.018	-0.161
-228.742	149.515	0.114	-0.151
-227.727	-68.126	0.050	0.019
-226.713	-55.737	0.089	0.039
-225.698	482.032	-0.018	-0.040
-224.684	-21.217	-0.125	0.075
-223.669	-98.642	-0.306	0.077
-222.655	-200.000	-0.011	0.181
-221.640	330.044	-0.076	-0.142
-220.625	800.000	0.037	-0.128
-219.611	-85.795	-0.483	-0.147
-218.596	176.067	-0.086	0.123
-217.582	9.225	0.120	-0.089
-216.567	-112.473	-0.262	-0.051
-215.552	-200.000	-0.032	0.279
-214.538	-36.918	0.408	0.214
-213.523	-200.000	-0.010	0.056
-212.509	-40.033	0.076	-0.039
-211.494	523.873	0.141	-0.325
-210.479	-200.000	-0.039	-0.425
-209.465	-116.936	-0.305	-0.055
-208.450	-119.007	0.184	-0.031
-207.436	-200.000	-0.069	-0.481
-206.421	800.000	0.062	0.176
-205.406	54.122	-0.170	-0.160
-204.392	732.270	-0.081	-0.213
-203.377	-200.000	0.033	0.522
-202.363	302.661	0.153	-0.277
-201.348	57.981	0.299	-0.286
-200.333	-98.526	-0.154	0.039
-199.319	-200.000	0.008	-0.160
-198.304	96.604	-0.053	0.059
-197.290	-200.000	-0.007	0.228
-196.275	800.000	0.096	-0.305
-195.260	255.372	0.083	-0.139
-194.246	-200.000	0.028	0.128
-193.231	-20.858	0.142	0.085
-192.217	71.636	-0.104	-0.105
-191.202	-129.604	-0.128	0.017
-190.187	-144.772	-0.342	-0.031
-189.173	253.247	0.089	-0.149
-188.158	800.000	0.149	-0.482
-187.144	-70.917	-0.126	0.047
-186.129	54.285	0.142	0.133
-185.114	-23.504	0.207	0.122
-184.100	-68.311	-0.311	-0.118
-183.085	321.979	0.067	-0.125
-182.071	-143.190	-0.057	-0.005
-181.056	-40.312	0.169	0.086
-180.042	-200.000	0.011	0.227
-179.027	732.521	-0.109	0.286
-178.012	312.890	0.129	0.236
-176.998	800.000	-0.027	-0.075
-175.983	292.170	-0.057	-0.102
-174.969	-67.744	0.052	-0.020
-173.954	-76.662	-0.433	0.148
-172.939	-200.000	0.000	0.299
-171.925	66.965	0.242	-0.241
-170.910	12.957	0.083	0.063
-169.896	-70.894	-0.141	0.052
-168.881	499.269	-0.073	-0.163
-167.866	-36.428	-0.112	0.059
-166.852	69.781	0.105	-0.105
-165.837	-57.685	0.387	0.166
-164.823	198.981	-0.131	0.196
-163.808	68.998	-0.192	0.193
-162.793	800.000	0.053	-0.186
-161.779	54.926	-0.117	-0.110
-160.764	-97.339	0.228	0.058
-159.750	-99.390	-0.352	0.087
-158.735	68.364	0.066	0.066
-157.720	199.420	0.143	0.213
-156.706	-57.888	-0.062	0.027
-155.691	-118.896	-0.383	0.066
-154.677	88.017	-0.214	-0.232
-153.662	-185.226	0.257	-0.004
-152.647	800.000	0.045	0.136
-151.633	124.780	-0.149	0.184
-150.618	18.334	-0.158	0.123
-149.604	297.706	0.140	-0.252
-148.589	22.055	0.248	-0.197
-147.574	620.820	0.188	-0.460
-146.560	-13.183	0.148	-0.094
-145.545	-55.023	0.311	-0.137
-144.531	-150.210	-0.085	-0.006
-143.516	-176.272	-0.170	-0.004
-142.502	-63.967	-0.265	0.106
-141.487	-200.000	0.097	0.419
-140.472	12.834	-0.360	0.272
-139.458	-96.624	-0.093	0.024
-138.443	-84.082	-0.098	-0.030
-137.429	800.000	-0.066	0.251
-136.414	625.047	-0.127	-0.313
-135.399	-4.451	-0.340	0.229
-134.385	314.915	-0.047	0.086
-133.370	8.866	-0.244	-0.179
-132.356	-153.078	0.056	0.004
-131.341	135.347	0.060	-0.077
-130.326	111.261	0.168	-0.198
-129.312	-159.368	-0.090	-0.005
-128.297	-71.832	0.106	0.039
-127.283	-200.000	-0.050	0.221
-126.268	800.000	-0.071	0.246
-125.253	-122.677	-0.235	0.037
-124.239	18.944	0.090	-0.070
-123.224	-200.000	-0.016	0.194
-122.210	800.000	0.077	0.317
-121.195	-24.042	-0.181	0.106
-120.180	22.568	0.094	-0.075
-119.166	800.000	-0.087	-0.298
-118.151	42.863	0.098	0.087
-117.137	-37.782	-0.368	-0.191
-116.122	-120.000	0.066	-0.011
-115.107	-200.000	0.018	0.545
-114.093	-63.991	-0.243	-0.097
-113.078	-116.127	-0.568	-0.103
-112.064	-200.000	0.005	-0.134
-111.049	-126.726	0.412	-0.059
-110.034	-146.425	0.026	0.002
-109.020	-24.748	0.219	-0.127
-108.005	800.000	-0.053	-0.155
-106.991	11.807	-0.206	-0.154
-105.976	-114.520	0.448	-0.084
-104.962	284.288	0.180	0.316
-103.947	780.322	0.049	-0.131
-102.932	800.000	-0.089	-0.374
-101.918	-17.413	0.197	-0.121
-100.903	-162.547	0.129	0.006
-99.889	800.000	-0.060	0.246
-98.874	-200.000	0.003	0.035
-97.859	-200.000	0.064	-0.363
-96.845	224.146	0.130	-0.205
-95.830	96.542	0.035	-0.039
-94.816	-24.199	0.269	0.156
-93.801	332.689	0.054	0.101
-92.786	79.127	0.177	0.185
-91.772	800.000	0.052	-0.157
-90.757	-200.000	-0.001	-0.208
-89.743	642.610	-0.021	0.051
-88.728	163.330	0.044	0.060
-87.713	800.000	0.052	-0.185
-86.699	800.000	-0.069	-0.228
-85.684	-68.211	0.281	0.106
-84.670	-52.740	-0.215	0.097
-83.655	-200.000	-0.005	-0.288
-82.640	38.947	0.089	-0.077
-81.626	-81.453	-0.269	-0.086
-80.611	68.140	-0.038	-0.038
-79.597	333.188	-0.040	-0.076
-78.582	397.975	0.177	-0.360
-77.567	-101.390	-0.248	0.059
-76.553	571.326	0.058	0.137
-75.538	435.890	-0.077	-0.162
-74.524	-200.000	0.045	0.246
-73.509	-186.695	-0.079	-0.001
-72.494	200.901	0.088	-0.131
-71.480	-28.353	0.375	0.211
-70.465	-83.778	0.229	0.071
-69.451	-200.000	0.045	0.244
-68.436	-200.000	-0.001	0.084
-67.422	-200.000	0.005	0.094
-66.407	-25.359	-0.238	0.137
-65.392	441.821	0.129	0.275
-64.378	39.066	-0.095	-0.082
-63.363	-200.000	0.428	0.001
-62.349	-155.127	-0.313	-0.020
-61.334	65.254	-1.241	-1.221
-60.319	40.402	0.880	0.771
-59.305	800.000	-0.381	-1.317
-58.290	239.546	0.928	1.502
-57.276	309.390	0.698	1.270
-56.261	-200.000	136.199	621.800
-55.246	339.245	1643.493	3114.941
-54.232	137.018	2780.542	3534.209
-53.217	80.682	2182.181	2287.614
-52.203	28.866	1700.419	1401.317
-51.188	21.975	1526.203	1210.358
-50.173	20.470	1505.500	1183.648
-49.159	43.489	1582.775	1407.023
-48.144	39.516	1592.210	1387.445
-47.130	21.861	1541.913	1221.832
-46.115	19.337	1526.026	1191.770
-45.100	19.156	1522.217	1187.500
-44.086	19.203	1520.611	1186.524
-43.071	19.058	1519.088	1184.289
-42.057	19.223	1516.857	1183.634
-41.042	19.045	1515.872	1181.600
-40.027	19.028	1514.484	1180.351
-39.013	19.091	1512.621	1179.285
-37.998	18.966	1511.733	1177.689
-36.984	18.992	1510.852	1177.132
-35.969	19.098	1509.389	1176.670
-34.954	19.042	1507.781	1174.990
-33.940	19.045	1506.204	1173.734
-32.925	19.004	1505.625	1172.957
-31.911	19.078	1503.797	1171.988
-30.896	19.203	1501.816	1171.250
-29.881	19.127	1500.922	1169.994
-28.867	19.265	1498.965	1169.355
-27.852	19.241	1498.082	1168.457
-26.838	19.283	1496.466	1167.434
-25.823	19.213	1495.603	1166.238
-24.809	19.151	1494.035	1164.551
-23.794	19.105	1492.621	1163.091
-22.779	19.189	1491.677	1162.878
-21.765	19.126	1490.437	1161.443
-20.750	19.178	1489.060	1160.673
-19.736	19.180	1487.966	1159.787
-18.721	19.246	1486.639	1159.152
-17.706	19.261	1485.188	1158.075
-16.692	19.088	1484.896	1156.638
-15.677	19.102	1484.115	1156.079
-14.663	19.076	1482.795	1154.831
-13.648	19.048	1482.312	1154.223
-12.633	19.091	1481.087	1153.510
-11.619	19.150	1479.987	1152.999
-10.604	19.062	1479.298	1151.829
-9.590	19.141	1478.353	1151.574
-8.575	19.218	1477.752	1151.579
-7.560	19.160	1476.415	1150.103
-6.546	19.138	1475.988	1149.574
-5.531	19.124	1474.857	1148.559
-4.517	19.077	1473.859	1147.419
-3.502	19.134	1472.710	1146.857
-2.487	19.049	1471.876	1145.599
-1.473	19.074	1470.850	1144.919
-0.458	19.200	1469.090	1144.343
0.556	18.173	1459.183	1133.290
1.571	15.096	1435.891	1095.009
2.586	11.940	1374.702	1028.469
3.600	10.555	1291.207	957.743
4.615	9.684	1247.982	920.628
5.629	8.802	1191.409	874.007
6.644	4.441	1111.300	792.937
7.659	1.194	1078.035	753.033
8.673	0.586	1073.512	746.799
9.688	0.506	1069.804	743.760
10.702	0.515	1068.443	742.792
11.717	0.594	1065.428	741.017
12.731	1.922	1065.414	747.459
13.746	7.016	1071.748	776.901
14.761	13.245	1080.624	814.029
15.775	16.715	1085.183	834.521
16.790	16.908	1084.185	834.630
17.804	15.686	1082.369	827.151
18.819	14.987	1080.337	822.093
19.834	14.524	1078.868	818.629
20.848	14.385	1077.994	817.209
21.863	14.025	1077.445	814.958
22.877	13.885	1076.313	813.345
23.892	13.834	1075.068	812.080
24.907	13.715	1074.351	810.885
25.921	13.581	1073.959	809.863
26.936	13.575	1073.220	809.206
27.950	13.601	1072.621	808.811
28.965	13.732	1071.963	808.878
29.980	13.785	1070.844	808.221
30.994	13.748	1069.938	807.285
32.009	13.735	1069.172	806.577
33.023	13.962	1068.062	806.770
34.038	13.817	1067.880	805.856
35.053	13.771	1066.862	804.792
36.067	13.817	1065.859	804.189
37.082	13.856	1064.742	803.461
38.096	13.798	1064.203	802.705
39.111	13.822	1063.268	802.045
40.126	13.799	1062.187	801.048
41.140	13.699	1061.318	799.840
42.155	13.652	1060.487	798.912
43.169	13.654	1059.425	798.055
44.184	13.677	1058.357	797.289
45.199	13.711	1057.284	796.571
46.213	13.738	1056.404	795.970
47.228	13.670	1055.586	794.956
48.242	13.667	1054.811	794.288
49.257	13.732	1053.368	793.442
50.271	13.931	1051.922	793.233
51.286	13.769	1051.676	792.203
52.301	13.784	1050.640	791.424
53.315	13.809	1049.619	790.705
54.330	13.799	1049.300	790.349
55.344	13.701	1048.157	788.951
56.359	13.642	1047.413	788.038
57.374	13.808	1046.020	787.709
58.388	13.770	1045.276	786.900
59.403	13.735	1044.606	786.163
60.417	13.579	1044.241	785.077
61.432	13.614	1043.241	784.419
62.447	13.693	1042.252	783.980
63.461	13.561	1041.606	782.803
64.476	13.642	1040.244	782.090
65.490	13.688	1039.435	781.634
66.505	13.550	1038.730	780.383
67.520	13.604	1038.240	780.199
68.534	13.844	1036.780	780.162
69.549	13.667	1036.024	778.692
70.563	13.658	1035.912	778.498
71.578	13.754	1035.142	778.301
72.593	13.563	1034.190	776.618
73.607	13.519	1032.989	775.445
74.622	13.512	1032.655	775.091
75.636	13.609	1031.213	774.395
76.651	13.504	1030.442	773.254
77.666	13.563	1029.826	772.999
78.680	13.537	1028.506	771.822
79.695	13.614	1028.489	772.098
80.709	13.547	1028.207	771.507
81.724	13.595	1026.551	770.419
82.739	13.681	1025.900	770.262
83.753	13.696	1025.493	769.957
84.768	13.616	1024.829	769.019
85.782	13.778	1023.711	768.863
86.797	13.812	1023.035	768.446
87.812	13.727	1022.377	767.490
88.826	13.712	1021.121	766.408
89.841	13.607	1020.043	765.046
90.855	13.685	1019.602	765.008
91.870	13.775	1018.978	764.889
92.884	13.800	1018.104	764.279
93.899	13.748	1017.387	763.435
94.914	13.707	1016.886	762.801
95.928	13.862	1015.735	762.582
96.943	13.849	1015.490	762.270
97.957	13.883	1014.032	761.264
98.972	13.752	1013.804	760.429
99.987	13.918	1012.576	760.197
101.001	13.822	1012.005	759.261
102.016	13.846	1011.154	758.669
103.030	13.839	1010.293	757.924
104.045	13.902	1008.738	756.978
105.060	13.941	1007.985	756.522
106.074	13.792	1006.839	754.915
107.089	13.773	1006.110	754.218
108.103	13.703	1005.562	753.424
109.118	13.808	1004.387	752.952
110.133	13.736	1003.861	752.162
111.147	13.632	1002.847	750.867
112.162	13.725	1001.694	750.356
113.176	13.657	1001.081	749.526
114.191	13.826	999.872	749.317
115.206	13.801	999.257	748.676
116.220	13.843	998.445	748.191
117.235	13.754	997.757	747.207
118.249	13.810	996.860	746.720
119.264	13.794	996.084	746.003
120.279	13.814	995.109	745.296
121.293	13.756	994.388	744.428
122.308	13.673	993.485	743.317
123.322	13.722	992.885	743.020
124.337	13.881	991.257	742.447
125.352	13.817	990.236	741.332
126.366	13.683	989.422	740.058
127.381	13.716	988.239	739.254
128.395	13.562	987.534	737.978
129.410	13.692	986.069	737.394
130.424	13.700	985.046	736.600
131.439	13.718	984.514	736.215
132.454	13.656	983.853	735.381
133.468	13.753	982.661	734.855
134.483	13.695	982.342	734.296
135.497	13.784	981.286	733.833
136.512	13.841	980.746	733.616
137.527	13.722	979.981	732.455
138.541	13.829	978.724	731.924
139.556	13.663	978.589	731.026
140.570	13.836	977.564	730.956
141.585	13.845	976.884	730.422
142.600	13.883	975.944	729.822
143.614	13.856	975.267	729.133
144.629	14.116	974.249	729.448
145.643	13.956	973.812	728.355
146.658	14.072	972.493	727.811
147.673	14.015	971.614	726.840
148.687	14.030	970.814	726.243
149.702	13.924	969.833	724.983
150.716	14.034	969.081	724.838
151.731	13.986	968.503	724.131
152.746	13.865	967.966	723.138
153.760	13.898	966.934	722.448
154.775	14.028	966.306	722.478
155.789	14.059	965.401	721.874
156.804	14.064	964.697	721.305
157.819	14.012	964.029	720.517
158.833	14.083	963.136	720.093
159.848	14.089	962.521	719.594
160.862	14.113	961.799	719.093
161.877	14.161	960.912	718.576
162.892	14.035	960.305	717.513
163.906	13.991	959.350	716.548
164.921	14.010	958.466	715.906
165.935	13.954	957.681	715.017
166.950	14.058	956.543	714.549
167.964	14.187	955.222	714.053
168.979	14.046	954.462	712.817
169.994	14.099	953.360	712.159
171.008	14.110	952.850	711.758
172.023	14.073	952.090	710.971
173.037	14.139	951.396	710.673
174.052	14.191	950.217	709.950
175.067	14.293	949.710	709.944
176.081	14.216	949.282	709.235
177.096	14.109	948.266	707.958
178.110	14.185	947.061	707.316
179.125	14.201	946.637	707.005
180.140	14.319	945.373	706.501
181.154	14.333	944.772	706.047
182.169	14.207	944.487	705.240
183.183	14.395	943.567	705.283
184.198	14.312	942.931	704.394
185.213	14.311	942.161	703.753
186.227	14.355	941.586	703.448
187.242	14.327	941.177	702.964
188.256	14.456	940.271	702.768
189.271	14.433	939.491	702.026
190.286	14.455	938.391	701.232
191.300	14.267	938.098	700.161
192.315	14.412	937.255	700.078
193.329	14.404	936.215	699.209
194.344	14.187	936.181	698.208
195.359	14.279	935.336	697.905
196.373	14.379	934.724	697.804
197.388	14.417	934.301	697.586
198.402	14.397	933.618	696.930
199.417	14.476	933.063	696.785
200.432	14.432	932.876	696.398
201.446	14.494	932.628	696.412
202.461	14.573	931.838	696.091
203.475	14.771	931.200	696.375
204.490	14.545	930.989	695.214
205.504	14.675	929.480	694.569
206.519	14.637	928.876	693.898
207.534	14.683	928.226	693.541
208.548	14.559	927.376	692.329
209.563	14.522	927.125	691.927
210.577	14.576	926.296	691.470
211.592	14.679	925.539	691.273
212.607	14.782	924.921	691.178
213.621	14.786	924.201	690.594
214.636	14.769	923.527	689.959
215.650	14.773	922.737	689.323
216.665	14.805	922.647	689.326
217.680	14.904	921.700	688.964
218.694	14.835	921.418	688.409
219.709	14.952	920.534	688.172
220.723	14.903	919.900	687.433
221.738	14.855	919.479	686.863
222.753	14.837	918.296	685.844
223.767	14.848	917.723	685.400
224.782	14.909	916.992	685.041
225.796	15.023	916.064	684.755
226.811	14.992	915.457	684.116
227.826	14.890	915.073	683.349
228.840	14.920	914.124	682.704
229.855	14.855	913.750	682.101
230.869	14.989	912.505	681.657
231.884	14.882	912.094	680.853
232.899	14.926	911.557	680.568
233.913	14.846	910.906	679.700
234.928	14.908	910.324	679.454
235.942	14.771	909.226	678.018
236.957	14.896	908.567	677.977
237.972	15.015	907.846	677.860
238.986	14.878	907.898	677.281
240.001	15.061	906.546	676.957
241.015	15.061	905.763	676.311
242.030	15.055	905.163	675.779
243.045	15.062	904.394	675.174
244.059	15.136	903.927	675.062
245.074	15.176	903.191	674.613
246.088	15.039	902.944	673.820
247.103	15.158	902.063	673.580
248.117	15.152	901.626	673.172
249.132	15.154	900.709	672.433
250.147	15.326	899.810	672.394
251.161	15.302	899.304	671.860
252.176	15.267	899.105	671.510
253.190	15.315	897.806	670.674
254.205	15.461	897.311	670.827
255.220	15.413	896.693	670.113
256.234	15.575	896.098	670.258
257.249	15.399	895.563	669.097
258.263	15.526	894.856	669.016
259.278	15.504	894.580	668.663
260.293	15.579	893.457	668.060
261.307	15.507	893.842	668.001
262.322	15.504	893.129	667.400
263.336	15.518	892.133	666.650
264.351	15.772	891.564	667.177
265.366	15.703	890.824	666.290
266.380	15.754	890.261	666.012
267.395	15.674	889.798	665.288
268.409	15.548	889.060	664.181
269.424	15.688	887.612	663.592
270.439	15.705	887.051	663.183
271.453	15.607	886.735	662.499
272.468	15.832	885.560	662.448
273.482	15.644	885.026	661.251
274.497	15.774	884.502	661.314
275.512	15.810	883.947	660.980
276.526	15.804	882.903	660.118
277.541	15.767	882.485	659.602
278.555	15.619	882.164	658.722
279.570	15.732	881.368	658.513
280.585	15.882	880.769	658.595
281.599	15.850	880.242	658.015
282.614	15.985	879.491	657.924
283.628	15.917	878.878	657.142
284.643	15.954	878.702	657.097
285.657	15.899	877.947	656.260
286.672	15.940	877.267	655.853
287.687	15.961	877.008	655.684
288.701	16.041	876.226	655.350
289.716	15.881	876.114	654.587
290.730	15.875	875.245	653.857
291.745	15.928	874.697	653.595
292.760	16.012	873.763	653.163
293.774	16.015	873.047	652.585
294.789	16.176	872.336	652.616
295.803	16.207	871.673	652.184
296.818	16.092	871.587	651.616
297.833	16.040	870.717	650.710
298.847	16.158	869.631	650.293
299.862	16.074	869.297	649.663
300.876	16.131	868.489	649.223
301.891	16.124	867.699	648.545
302.906	16.192	867.028	648.251
303.920	16.218	866.363	647.794
304.935	16.252	865.833	647.470
305.949	16.321	865.401	647.356
306.964	16.330	864.556	646.700
307.979	16.371	863.752	646.199
308.993	16.357	863.502	645.902
310.008	16.433	863.215	645.921
311.022	16.218	862.749	644.691
312.037	16.366	862.312	644.874
313.052	16.352	861.928	644.476
314.066	16.332	860.755	643.466
315.081	16.304	860.519	643.125
316.095	16.381	859.614	642.686
317.110	16.371	859.061	642.176
318.125	16.413	858.253	641.677
319.139	16.318	858.052	641.109
320.154	16.254	857.664	640.519
321.168	16.514	856.816	640.815
322.183	16.320	856.569	639.839
323.197	16.379	855.789	639.423
324.212	16.542	854.845	639.276
325.227	16.449	854.780	638.818
326.241	16.507	854.428	638.720
327.256	16.492	853.820	638.153
328.270	16.445	853.085	637.370
329.285	16.670	852.010	637.355
330.300	16.514	851.891	636.622
331.314	16.436	851.364	635.880
332.329	16.627	850.176	635.653
333.343	16.727	849.912	635.775
334.358	16.509	849.563	634.641
335.373	16.488	848.907	634.014
336.387	16.506	848.808	633.952
337.402	16.790	847.905	634.287
338.416	16.687	847.281	633.376
339.431	16.687	847.129	633.208
340.446	16.849	846.100	632.986
341.460	16.808	845.636	632.430
342.475	16.775	844.692	631.546
343.489	16.716	844.541	631.156
344.504	16.782	843.860	630.838
345.519	17.043	843.053	631.151
346.533	17.070	842.757	630.971
347.548	16.877	842.637	630.108
348.562	16.787	842.371	629.521
349.577	16.795	841.539	628.875
350.592	16.775	840.807	628.198
351.606	16.940	840.075	628.206
352.621	16.861	839.982	627.787
353.635	16.804	839.700	627.310
354.650	16.871	839.232	627.154
355.665	16.916	838.512	626.726
356.679	16.961	838.256	626.644
357.694	16.974	837.942	626.403
358.708	17.039	837.182	626.018
359.723	16.975	836.505	625.222
360.738	17.053	835.852	624.966
361.752	17.027	835.300	624.402
362.767	17.020	835.062	624.142
363.781	17.069	834.649	623.958
364.796	17.314	833.963	624.292
365.810	17.194	833.395	623.371
366.825	17.055	833.412	622.819
367.840	17.266	832.834	623.103
368.854	17.302	832.071	622.611
369.869	17.206	832.227	622.319
370.883	17.350	831.300	622.100
371.898	17.178	831.079	621.248
372.913	17.109	830.005	620.139
373.927	17.413	829.371	620.719
374.942	17.347	829.245	620.330
375.956	17.182	828.126	618.835
376.971	17.420	827.653	619.296
377.986	17.513	826.868	618.990
379.000	17.474	826.478	618.503
380.015	17.471	826.163	618.203
381.029	17.549	825.281	617.771
382.044	17.643	824.685	617.607
383.059	17.494	824.478	616.861
384.073	17.550	823.775	616.482
385.088	17.594	823.242	616.187
386.102	17.493	822.895	615.507
387.117	17.422	822.271	614.732
388.132	17.604	821.711	614.916
389.146	17.404	821.541	614.013
390.161	17.631	820.995	614.368
391.175	17.580	820.632	613.859
392.190	17.533	820.227	613.331
393.205	17.601	819.599	613.050
394.219	17.452	819.559	612.432
395.234	17.660	819.075	612.765
396.248	17.577	818.023	611.623
397.263	17.601	817.495	611.261
398.278	17.467	817.420	610.671
399.292	17.443	817.056	610.258
400.307	17.654	816.305	610.398
401.321	17.506	816.296	609.810
402.336	17.650	815.687	609.817
403.350	17.647	815.244	609.420
404.365	17.809	815.119	609.850
405.380	17.858	814.231	609.307
406.394	17.696	813.922	608.445
407.409	17.807	813.600	608.544
408.423	17.882	813.008	608.317
409.438	17.828	812.754	607.881
410.453	17.956	812.245	607.900
411.467	17.892	811.589	607.129
412.482	17.875	811.041	606.603
413.496	17.912	810.684	606.415
414.511	18.069	810.281	606.618
415.526	18.078	809.753	606.200
416.540	18.010	809.781	605.928
417.555	17.959	809.531	605.505
418.569	17.961	808.598	604.761
419.584	17.891	808.370	604.289
420.599	18.041	807.672	604.243
421.613	115.664	1299.763	1491.495
422.628	100.017	1371.383	1491.551
