DTS Sentinel unit serial number:	SN413079Multiplexer serial number:	ORYXHardware model number:	OX4-SRSoftware version number:	ORYX F/W v4.00 Oryx Data Collector v3.7.2.0data status	okinstallation	princeton_trtdifferential loss correction	single-endedforward channel	channel 3reverse channel	N/Adate	2019/09/12time	08:02:10forward acquisition time	60.00reverse acquisition time	0.00gamma	496.2192k internal	0.2313k external	0.2313temperature offset calibration	1.0037default loss term (dB/km)	0.3790temperature slope calibration	1.0000multiplexer offset coefficient	1.0000multiplexer slope coefficient	1.0000fibre end	0.00T internal ref (°C)	33.06T ext. ref 1 (°C)	1.68T ext. ref 2 (°C)	29.60length (m)	temperature (°C)	Stokes	anti-Stokes-747.200	-200.000	-0.019	0.126
-746.185	800.000	0.091	0.293
-745.171	800.000	0.019	0.081
-744.156	-200.000	-0.036	0.279
-743.142	435.399	0.077	0.170
-742.127	3.003	-0.041	-0.030
-741.112	94.720	-0.090	-0.103
-740.098	-200.000	-0.014	0.236
-739.083	-200.000	-0.005	0.147
-738.069	-200.000	-0.054	0.302
-737.054	-200.000	-0.050	-0.368
-736.039	34.074	0.114	0.101
-735.025	800.000	0.102	0.331
-734.010	163.377	0.136	-0.194
-732.996	-200.000	0.254	-0.000
-731.981	798.432	-0.117	0.326
-730.966	457.335	0.052	0.116
-729.952	-200.000	0.008	-0.055
-728.937	337.014	-0.053	0.105
-727.923	-200.000	-0.041	-0.377
-726.908	800.000	-0.075	0.237
-725.894	-114.397	-0.320	-0.062
-724.879	-133.305	0.308	-0.039
-723.864	160.454	-0.238	-0.337
-722.850	-110.302	0.463	-0.098
-721.835	141.828	-0.148	0.199
-720.821	-175.680	0.219	0.006
-719.806	746.562	-0.042	0.114
-718.791	-200.000	0.043	-0.296
-717.777	-87.976	-0.033	0.010
-716.762	174.017	-0.152	-0.222
-715.748	-123.456	-0.158	-0.026
-714.733	173.897	-0.273	-0.399
-713.718	13.954	-0.129	0.102
-712.704	17.084	-0.150	0.120
-711.689	-200.000	0.005	-0.288
-710.675	800.000	-0.078	-0.255
-709.660	-44.182	0.127	0.064
-708.645	800.000	-0.052	-0.153
-707.631	-43.823	-0.104	0.053
-706.616	-113.056	0.269	0.054
-705.602	759.643	0.088	0.242
-704.587	800.000	-0.040	0.118
-703.572	-67.300	0.341	0.136
-702.558	800.000	-0.061	0.218
-701.543	-162.216	-0.249	-0.013
-700.529	103.686	0.022	0.026
-699.514	-200.000	0.059	-0.308
-698.499	-200.000	-0.045	-0.380
-697.485	-200.000	0.056	0.277
-696.470	596.601	0.051	0.127
-695.456	-200.000	0.045	-0.455
-694.441	351.697	0.059	0.117
-693.426	-70.190	-0.283	0.109
-692.412	-62.961	-0.209	0.087
-691.397	-122.180	-0.089	-0.015
-690.383	315.300	0.174	-0.332
-689.368	434.518	0.002	0.005
-688.354	-52.434	0.334	-0.156
-687.339	-128.926	0.304	-0.043
-686.324	-159.656	-0.349	-0.020
-685.310	-200.000	0.023	-0.146
-684.295	245.888	0.035	-0.059
-683.281	-117.213	-0.210	-0.039
-682.266	-200.000	0.015	-0.103
-681.251	-200.000	0.028	0.254
-680.237	210.461	-0.092	-0.146
-679.222	131.104	-0.279	-0.362
-678.208	-107.221	-0.182	-0.040
-677.193	15.927	0.245	-0.195
-676.178	-115.260	0.337	0.065
-675.164	-83.237	-0.081	-0.026
-674.149	-200.000	0.027	-0.376
-673.135	411.535	0.027	0.059
-672.120	-84.060	-0.160	0.052
-671.105	493.230	-0.020	-0.047
-670.091	3.289	-0.074	-0.054
-669.076	-111.214	0.076	-0.016
-668.062	56.680	0.141	-0.139
-667.047	800.000	-0.061	-0.179
-666.032	-23.968	-0.213	-0.129
-665.018	791.249	-0.156	-0.435
-664.003	66.735	-0.240	-0.247
-662.989	-143.616	-0.201	-0.019
-661.974	800.000	-0.162	-0.601
-660.959	-200.000	-0.040	0.292
-659.945	155.776	0.183	-0.255
-658.930	188.434	0.161	0.244
-657.916	-1.846	0.058	0.041
-656.901	590.098	0.092	-0.229
-655.886	-41.474	-0.164	-0.085
-654.872	-200.000	-0.032	0.255
-653.857	800.000	-0.072	-0.252
-652.843	13.447	-0.124	-0.097
-651.828	585.329	0.098	0.243
-650.814	13.586	-0.436	0.342
-649.799	800.000	-0.039	0.139
-648.784	3.577	0.172	-0.127
-647.770	181.599	0.159	0.236
-646.755	-200.000	0.006	0.032
-645.741	-200.000	-0.017	0.196
-644.726	-69.884	-0.262	-0.101
-643.711	-55.171	-0.147	-0.067
-642.697	-200.000	0.045	0.332
-641.682	-200.000	-0.007	0.079
-640.668	-150.294	0.407	0.032
-639.653	29.601	0.072	-0.062
-638.638	-200.000	-0.009	-0.059
-637.624	-52.145	-0.190	0.089
-636.609	329.124	0.015	-0.028
-635.595	29.658	0.115	-0.099
-634.580	800.000	-0.176	-0.608
-633.565	143.651	-0.292	-0.393
-632.551	-200.000	-0.067	-0.301
-631.536	-148.098	0.305	0.026
-630.522	-75.604	0.237	-0.085
-629.507	363.978	0.161	0.327
-628.492	-91.827	-0.114	-0.033
-627.478	800.000	-0.021	-0.087
-626.463	-200.000	-0.060	-0.278
-625.449	20.150	0.052	0.042
-624.434	-200.000	-0.017	0.177
-623.419	124.429	0.140	0.177
-622.405	-116.000	-0.138	-0.026
-621.390	-57.406	0.380	0.168
-620.376	92.883	0.163	-0.186
-619.361	137.903	-0.103	0.136
-618.346	-142.143	-0.213	0.021
-617.332	800.000	-0.039	0.150
-616.317	21.080	0.171	0.140
-615.303	532.564	-0.053	0.126
-614.288	7.545	-0.178	0.135
-613.273	262.345	-0.144	-0.252
-612.259	-124.094	0.151	0.024
-611.244	-146.562	0.158	0.014
-610.230	-200.000	0.052	0.341
-609.215	55.986	-0.264	0.259
-608.201	28.128	-0.051	0.043
-607.186	611.917	0.150	-0.379
-606.171	-76.128	-0.319	0.113
-605.157	-1.179	-0.172	0.123
-604.142	-58.488	-0.325	-0.142
-603.128	-200.000	0.012	0.182
-602.113	22.415	0.026	0.022
-601.098	-116.350	0.341	0.064
-600.084	-190.649	0.139	-0.001
-599.069	-178.368	-0.225	-0.005
-598.055	402.175	0.163	0.346
-597.040	15.185	-0.115	0.091
-596.025	800.000	0.060	-0.254
-595.011	-20.581	0.057	-0.035
-593.996	24.223	0.386	0.322
-592.982	800.000	0.069	0.201
-591.967	-80.102	-0.201	0.068
-590.952	-200.000	-0.000	0.146
-589.938	-200.000	-0.035	-0.335
-588.923	577.842	0.082	-0.202
-587.909	408.541	-0.140	-0.298
-586.894	-7.839	-0.128	0.087
-585.879	172.533	0.076	-0.110
-584.865	12.388	0.084	-0.065
-583.850	292.328	0.171	-0.314
-582.836	278.599	-0.069	-0.124
-581.821	136.300	0.089	-0.117
-580.806	-126.020	0.272	-0.041
-579.792	-123.931	-0.283	0.045
-578.777	-33.782	-0.137	0.076
-577.763	144.299	0.045	-0.061
-576.748	-73.360	0.122	0.045
-575.733	-93.231	0.327	-0.092
-574.719	-99.501	0.131	-0.033
-573.704	-43.081	-0.451	0.230
-572.690	-200.000	-0.059	0.490
-571.675	-15.566	0.190	0.122
-570.661	-64.930	-0.087	-0.035
-569.646	-109.359	0.081	-0.017
-568.631	-115.314	-0.179	-0.034
-567.617	-131.662	0.235	-0.031
-566.602	-11.511	0.263	-0.175
-565.588	60.300	-0.287	0.286
-564.573	128.277	-0.071	-0.091
-563.558	87.443	0.121	0.134
-562.544	141.012	-0.299	0.397
-561.529	222.752	0.075	0.122
-560.515	460.389	-0.241	-0.541
-559.500	-200.000	-0.053	-0.276
-558.485	800.000	-0.066	-0.256
-557.471	800.000	0.046	-0.144
-556.456	201.066	-0.072	0.112
-555.442	800.000	-0.007	0.024
-554.427	-73.835	-0.275	0.101
-553.412	23.451	0.263	0.217
-552.398	-54.612	-0.292	0.133
-551.383	-109.888	-0.194	-0.041
-550.369	-200.000	0.041	-0.187
-549.354	343.004	-0.031	0.062
-548.339	-141.304	0.189	0.019
-547.325	-39.830	-0.204	0.107
-546.310	-51.589	-0.321	-0.151
-545.296	75.847	0.207	0.220
-544.281	54.349	0.117	0.113
-543.266	-127.963	0.294	0.043
-542.252	-74.999	-0.025	-0.009
-541.237	277.255	0.079	-0.142
-540.223	111.320	-0.118	0.143
-539.208	800.000	0.057	0.247
-538.193	-94.586	0.389	-0.106
-537.179	-84.568	-0.130	0.041
-536.164	102.838	0.083	-0.097
-535.150	212.694	0.232	0.369
-534.135	334.399	0.154	-0.301
-533.121	-89.242	-0.275	-0.082
-532.106	-86.116	-0.332	-0.103
-531.091	102.565	0.138	0.162
-530.077	800.000	0.032	0.108
-529.062	-179.679	-0.348	-0.008
-528.048	-200.000	0.001	-0.324
-527.033	140.463	-0.215	-0.286
-526.018	-128.756	-0.232	0.033
-525.004	800.000	0.042	0.178
-523.989	-68.854	-0.298	0.116
-522.975	800.000	0.035	-0.098
-521.960	-200.000	-0.002	-0.224
-520.945	31.413	0.262	0.226
-519.931	121.181	0.127	-0.159
-518.916	219.053	-0.113	-0.181
-517.902	102.773	0.194	0.228
-516.887	-98.368	0.361	-0.093
-515.872	-90.728	0.281	0.081
-514.858	259.399	-0.130	0.226
-513.843	-200.000	-0.000	0.195
-512.829	-200.000	-0.007	-0.036
-511.814	-38.504	0.544	0.289
-510.799	-114.370	-0.196	0.038
-509.785	361.378	-0.086	-0.174
-508.770	204.255	0.113	-0.177
-507.756	126.619	-0.157	0.200
-506.741	26.842	0.196	-0.165
-505.726	47.661	0.148	0.139
-504.712	-101.099	-0.262	-0.064
-503.697	-49.034	0.226	0.109
-502.683	151.815	-0.183	0.251
-501.668	304.368	-0.087	-0.162
-500.653	15.390	0.265	0.209
-499.639	88.275	-0.148	0.165
-498.624	-200.000	0.051	0.260
-497.610	-160.420	-0.070	0.004
-496.595	-200.000	0.023	0.290
-495.581	146.680	0.048	0.065
-494.566	-8.126	-0.056	-0.038
-493.551	-164.702	-0.224	0.010
-492.537	-200.000	0.002	-0.331
-491.522	-74.028	0.375	0.137
-490.508	-24.985	-0.217	-0.129
-489.493	204.497	0.152	0.237
-488.478	-64.744	-0.112	-0.046
-487.464	-200.000	-0.061	-0.303
-486.449	-121.767	0.204	0.034
-485.435	-200.000	0.010	-0.178
-484.420	-165.615	0.351	-0.015
-483.405	-200.000	0.015	-0.139
-482.391	548.438	-0.135	-0.324
-481.376	-200.000	-0.045	0.371
-480.362	40.069	0.174	-0.157
-479.347	496.937	-0.170	-0.392
-478.332	500.882	0.084	0.194
-477.318	-116.486	-0.330	-0.061
-476.303	-200.000	-0.037	-0.170
-475.289	-36.668	-0.295	0.159
-474.274	-68.548	0.204	0.079
-473.259	67.003	-0.343	-0.351
-472.245	800.000	-0.066	0.261
-471.230	12.001	0.203	0.157
-470.216	98.310	0.208	-0.241
-469.201	-200.000	-0.008	0.230
-468.186	-200.000	0.010	0.188
-467.172	-144.814	-0.067	-0.006
-466.157	-200.000	-0.008	0.071
-465.143	265.982	0.098	-0.172
-464.128	-106.550	0.235	0.052
-463.113	-121.346	0.192	-0.032
-462.099	146.566	-0.263	0.355
-461.084	-200.000	-0.022	-0.259
-460.070	3.216	-0.107	-0.078
-459.055	-200.000	0.030	-0.377
-458.040	117.332	-0.080	-0.099
-457.026	116.378	0.245	-0.301
-456.011	-129.839	0.241	-0.033
-454.997	-39.305	0.323	-0.170
-453.982	-153.415	0.075	-0.005
-452.968	106.859	-0.275	-0.328
-451.953	692.413	0.146	-0.384
-450.938	-99.246	0.034	-0.009
-449.924	104.533	-0.167	-0.197
-448.909	62.299	-0.117	-0.117
-447.895	28.187	0.257	0.217
-446.880	438.914	0.088	0.193
-445.865	-200.000	0.028	-0.283
-444.851	-49.753	0.198	0.095
-443.836	52.728	0.169	0.162
-442.822	-16.346	-0.123	-0.078
-441.807	-200.000	-0.032	0.161
-440.792	18.041	-0.142	0.113
-439.778	-81.284	-0.214	-0.071
-438.763	-146.954	0.076	0.007
-437.749	-200.000	0.073	-0.353
-436.734	-105.744	0.231	-0.052
-435.719	-26.958	0.149	-0.087
-434.705	413.095	-0.017	0.036
-433.690	-105.946	-0.169	-0.038
-432.676	-200.000	-0.017	-0.216
-431.661	-200.000	-0.002	-0.051
-430.646	-55.588	-0.377	0.169
-429.632	-16.087	0.198	0.126
-428.617	800.000	0.066	-0.284
-427.603	-153.140	0.148	-0.010
-426.588	-145.375	0.257	0.023
-425.573	727.346	0.043	0.115
-424.559	-64.721	-0.214	-0.087
-423.544	91.223	0.240	-0.270
-422.530	-139.766	0.069	0.007
-421.515	-78.190	-0.246	-0.085
-420.500	136.985	-0.220	-0.288
-419.486	-24.016	0.053	-0.032
-418.471	-200.000	-0.006	0.125
-417.457	800.000	-0.027	0.082
-416.442	-200.000	0.002	-0.194
-415.428	-93.419	0.148	-0.041
-414.413	350.301	-0.111	-0.220
-413.398	83.957	-0.145	-0.159
-412.384	108.735	-0.120	-0.143
-411.369	-22.701	0.078	0.047
-410.355	-15.826	0.267	0.170
-409.340	-181.064	0.186	-0.004
-408.325	-96.503	-0.503	-0.133
-407.311	107.480	-0.086	-0.102
-406.296	-108.563	0.092	0.020
-405.282	133.883	-0.230	-0.298
-404.267	106.904	-0.075	-0.089
-403.252	338.304	0.088	0.171
-402.238	-200.000	-0.092	-0.000
-401.223	-200.000	-0.047	0.210
-400.209	-21.529	-0.032	0.019
-399.194	-105.527	0.210	-0.048
-398.179	38.400	-0.085	-0.076
-397.165	-27.576	-0.145	-0.085
-396.150	-200.000	0.014	-0.070
-395.136	-117.763	0.258	-0.046
-394.121	-200.000	-0.019	-0.117
-393.106	-158.004	-0.443	0.026
-392.092	-30.367	-0.051	-0.029
-391.077	-200.000	0.015	-0.174
-390.063	42.119	0.058	-0.053
-389.048	167.881	0.078	0.110
-388.033	17.431	-0.208	-0.165
-387.019	-29.571	-0.250	0.143
-386.004	177.578	-0.115	-0.167
-384.990	-200.000	-0.030	-0.150
-383.975	-127.424	0.141	0.021
-382.960	-200.000	0.009	-0.346
-381.946	79.626	-0.248	-0.266
-380.931	21.660	0.218	0.177
-379.917	138.501	-0.096	0.126
-378.902	-27.374	-0.145	0.084
-377.888	-69.793	-0.606	-0.231
-376.873	-200.000	-0.013	0.184
-375.858	560.163	-0.172	0.416
-374.844	182.271	-0.146	-0.215
-373.829	-200.000	0.022	0.162
-372.815	-200.000	-0.060	0.427
-371.800	-200.000	0.021	-0.183
-370.785	-110.732	-0.115	0.024
-369.771	-66.674	-0.255	0.101
-368.756	-85.796	0.486	0.151
-367.742	232.048	0.126	-0.206
-366.727	-200.000	-0.004	0.096
-365.712	196.633	0.116	0.177
-364.698	108.865	-0.141	-0.169
-363.683	-38.055	0.180	-0.095
-362.669	325.934	-0.152	0.291
-361.654	-42.676	0.032	-0.016
-360.639	96.369	0.063	-0.073
-359.625	-49.068	0.076	-0.036
-358.610	-200.000	-0.010	0.230
-357.596	-73.569	0.005	0.002
-356.581	200.151	0.333	-0.510
-355.566	-200.000	0.005	0.095
-354.552	-200.000	-0.057	0.266
-353.537	-200.000	0.034	0.187
-352.523	34.161	0.129	-0.113
-351.508	76.549	-0.164	0.174
-350.493	76.511	-0.089	-0.094
-349.479	75.099	-0.185	-0.195
-348.464	47.412	-0.256	-0.238
-347.450	103.270	-0.208	0.243
-346.435	-123.317	-0.349	0.056
-345.420	233.135	0.029	-0.048
-344.406	719.580	-0.097	0.258
-343.391	-55.619	-0.180	0.080
-342.377	-142.709	0.116	-0.011
-341.362	-44.765	0.243	-0.121
-340.348	754.030	0.061	-0.164
-339.333	48.813	0.301	-0.282
-338.318	-89.695	-0.301	0.088
-337.304	-32.912	-0.157	-0.087
-336.289	377.651	-0.159	-0.325
-335.275	337.804	-0.061	0.118
-334.260	-200.000	0.015	0.181
-333.245	216.930	0.101	-0.160
-332.231	72.737	-0.103	0.107
-331.216	-139.249	0.233	-0.025
-330.202	-73.066	0.191	0.070
-329.187	-31.123	-0.239	-0.135
-328.172	-200.000	0.068	-0.344
-327.158	-200.000	-0.013	-0.154
-326.143	35.724	0.293	0.257
-325.129	800.000	-0.022	0.062
-324.114	445.460	-0.037	0.081
-323.099	-119.955	-0.279	0.048
-322.085	-104.200	0.175	0.041
-321.070	491.472	0.053	0.120
-320.056	-200.000	0.024	-0.124
-319.041	-8.467	-0.114	0.077
-318.026	499.434	0.016	0.036
-317.012	43.720	-0.057	-0.052
-315.997	60.258	-0.198	0.196
-314.983	800.000	0.059	0.178
-313.968	125.795	0.065	0.082
-312.953	-200.000	-0.068	0.416
-311.939	-200.000	-0.011	0.295
-310.924	634.679	-0.065	0.164
-309.910	454.133	0.098	0.217
-308.895	-15.061	0.211	-0.135
-307.880	181.855	0.243	-0.357
-306.866	90.814	0.214	0.239
-305.851	-200.000	0.014	-0.132
-304.837	-200.000	-0.011	0.179
-303.822	52.441	0.314	0.299
-302.807	-88.188	0.067	0.020
-301.793	657.132	-0.177	0.454
-300.778	800.000	0.048	-0.163
-299.764	-70.572	-0.228	-0.086
-298.749	287.391	-0.095	-0.171
-297.735	545.186	-0.181	-0.431
-296.720	57.179	-0.141	-0.137
-295.705	-170.202	0.257	-0.009
-294.691	-57.659	-0.254	0.111
-293.676	525.092	-0.078	-0.184
-292.662	101.130	0.136	0.158
-291.647	-200.000	-0.021	0.201
-290.632	92.804	0.170	0.192
-289.618	-200.000	-0.071	0.356
-288.603	-90.411	0.239	-0.069
-287.589	-43.519	-0.173	0.087
-286.574	-200.000	0.035	0.229
-285.559	-100.256	0.280	0.069
-284.545	-200.000	-0.016	0.257
-283.530	357.558	-0.091	-0.181
-282.516	-68.202	-0.208	-0.080
-281.501	-68.791	-0.289	0.111
-280.486	343.008	-0.017	-0.033
-279.472	-140.082	-0.068	-0.007
-278.457	-1.360	0.238	0.167
-277.443	78.889	0.108	0.115
-276.428	170.706	0.204	-0.292
-275.413	652.360	0.087	-0.223
-274.399	277.474	0.099	-0.175
-273.384	800.000	0.065	0.282
-272.370	71.042	-0.024	0.025
-271.355	-200.000	-0.018	-0.362
-270.340	-173.708	-0.263	-0.008
-269.326	95.288	-0.159	0.180
-268.311	-16.815	0.324	-0.204
-267.297	-132.684	-0.336	-0.043
-266.282	71.112	-0.094	0.097
-265.267	138.985	-0.194	0.254
-264.253	-200.000	0.010	0.057
-263.238	303.293	0.100	0.184
-262.224	-140.916	0.125	0.013
-261.209	-82.908	0.461	-0.148
-260.195	742.082	-0.073	-0.195
-259.180	-200.000	-0.014	-0.117
-258.165	-92.824	0.163	-0.045
-257.151	425.335	-0.121	0.258
-256.136	-74.803	-0.107	-0.038
-255.122	145.780	0.148	-0.198
-254.107	800.000	-0.034	-0.136
-253.092	88.160	-0.129	-0.142
-252.078	547.299	-0.070	0.168
-251.063	-64.997	-0.106	-0.042
-250.049	412.934	0.040	-0.085
-249.034	143.947	-0.192	0.254
-248.019	-200.000	0.036	-0.245
-247.005	-154.361	0.246	0.016
-245.990	193.753	-0.053	0.080
-244.976	-200.000	0.021	0.096
-243.961	-75.303	0.106	0.038
-242.946	18.001	0.037	-0.029
-241.932	-200.000	0.004	0.118
-240.917	-129.390	-0.176	0.024
-239.903	-6.524	0.140	-0.095
-238.888	-32.347	-0.098	0.055
-237.873	186.290	0.146	0.216
-236.859	-200.000	0.043	-0.346
-235.844	443.013	0.043	0.094
-234.830	530.982	0.043	-0.102
-233.815	-200.000	0.001	0.292
-232.800	-15.451	-0.111	0.071
-231.786	232.334	0.014	0.023
-230.771	240.373	0.052	0.086
-229.757	-87.879	-0.334	-0.100
-228.742	800.000	0.076	-0.267
-227.727	113.253	0.141	-0.169
-226.713	-200.000	0.001	-0.044
-225.698	66.392	-0.138	0.140
-224.684	-39.638	0.231	-0.120
-223.669	-200.000	0.018	0.128
-222.655	-200.000	-0.075	0.393
-221.640	-200.000	0.047	0.305
-220.625	-200.000	0.016	-0.087
-219.611	800.000	-0.198	-0.600
-218.596	90.933	-0.245	-0.273
-217.582	86.365	0.353	0.386
-216.567	-75.334	0.207	0.073
-215.552	-200.000	0.041	0.220
-214.538	6.416	0.223	0.165
-213.523	-200.000	0.033	0.185
-212.509	153.000	-0.170	0.230
-211.494	-97.429	0.336	-0.087
-210.479	-75.385	-0.298	-0.105
-209.465	-159.927	0.023	0.001
-208.450	-35.022	-0.173	0.094
-207.436	-25.407	-0.148	0.087
-206.421	-111.996	-0.105	-0.021
-205.406	128.566	-0.148	0.188
-204.392	13.101	0.093	-0.071
-203.377	-76.372	0.357	0.125
-202.363	91.932	-0.158	-0.176
-201.348	-189.630	-0.419	0.005
-200.333	-200.000	-0.023	0.417
-199.319	-0.638	0.142	-0.100
-198.304	68.651	-0.081	-0.082
-197.290	-68.381	-0.186	-0.072
-196.275	-5.749	-0.161	-0.109
-195.260	800.000	0.107	0.391
-194.246	-166.746	0.177	0.007
-193.231	131.791	0.277	0.354
-192.217	800.000	0.011	0.043
-191.202	-200.000	0.036	0.326
-190.187	-115.219	0.043	0.008
-189.173	-100.687	0.325	-0.079
-188.158	-19.412	0.095	-0.059
-187.144	28.270	-0.084	-0.070
-186.129	-28.335	-0.131	0.075
-185.114	-144.180	-0.180	-0.017
-184.100	136.271	0.039	0.050
-183.085	-9.979	-0.157	-0.104
-182.071	-78.985	0.140	0.047
-181.056	199.148	0.067	-0.101
-180.042	-59.197	0.209	-0.089
-179.027	800.000	0.074	0.207
-178.012	-46.547	-0.350	-0.170
-176.998	-116.654	0.344	0.063
-175.983	-200.000	-0.031	0.137
-174.969	-64.276	-0.174	-0.070
-173.954	17.105	-0.079	-0.062
-172.939	-109.211	0.108	-0.023
-171.925	-59.995	-0.237	-0.100
-170.910	-88.380	-0.042	0.012
-169.896	-11.393	-0.084	-0.055
-168.881	4.612	0.170	0.124
-167.866	352.523	0.039	0.076
-166.852	-85.297	0.315	0.098
-165.837	-127.625	0.071	0.010
-164.823	-200.000	0.007	0.032
-163.808	-123.726	-0.244	-0.038
-162.793	468.164	-0.140	-0.311
-161.779	800.000	-0.079	0.239
-160.764	-133.450	-0.252	0.031
-159.750	57.503	0.201	-0.194
-158.735	14.797	0.375	-0.290
-157.720	145.971	-0.069	-0.092
-156.706	36.858	0.129	0.113
-155.691	-200.000	-0.072	-0.330
-154.677	563.480	0.216	-0.519
-153.662	-90.223	0.121	-0.035
-152.647	-86.964	-0.016	-0.005
-151.633	-175.899	-0.169	-0.004
-150.618	148.076	-0.075	0.101
-149.604	-97.844	0.684	-0.175
-148.589	800.000	-0.041	-0.126
-147.574	-175.282	-0.283	-0.008
-146.560	800.000	-0.102	-0.308
-145.545	17.661	0.114	0.090
-144.531	63.846	-0.293	0.292
-143.516	-24.701	-0.091	0.053
-142.502	276.217	0.064	-0.113
-141.487	-48.805	-0.075	0.036
-140.472	-200.000	-0.009	-0.167
-139.458	150.842	-0.110	-0.149
-138.443	-105.816	0.223	0.050
-137.429	215.339	0.200	-0.315
-136.414	-96.423	-0.116	0.030
-135.399	173.095	-0.100	0.143
-134.385	261.381	0.175	-0.300
-133.370	800.000	0.054	-0.164
-132.356	-200.000	-0.035	0.192
-131.341	-200.000	0.005	-0.076
-130.326	-164.966	0.112	0.005
-129.312	-200.000	-0.080	0.356
-128.297	-200.000	0.152	-0.001
-127.283	24.070	-0.296	-0.241
-126.268	133.138	0.070	0.089
-125.253	131.393	0.271	0.345
-124.239	325.650	-0.086	-0.163
-123.224	-53.743	0.113	0.051
-122.210	117.213	-0.107	0.130
-121.195	-200.000	0.062	-0.551
-120.180	-94.259	0.255	0.069
-119.166	19.546	-0.090	-0.072
-118.151	-146.660	0.216	-0.018
-117.137	-154.474	-0.199	-0.013
-116.122	198.973	0.067	-0.101
-115.107	-13.302	-0.225	0.145
-114.093	326.541	0.098	0.186
-113.078	172.775	0.078	0.111
-112.064	-127.277	-0.374	-0.054
-111.049	-200.000	-0.005	-0.177
-110.034	452.771	0.085	-0.187
-109.020	86.424	-0.070	0.077
-108.005	-29.178	-0.138	0.078
-106.991	-132.091	-0.167	0.021
-105.976	-46.558	0.195	0.094
-104.962	43.038	0.099	0.089
-103.947	350.650	0.161	-0.316
-102.932	333.887	0.077	0.148
-101.918	-200.000	-0.080	0.381
-100.903	182.661	0.164	0.239
-99.889	-200.000	0.024	0.156
-98.874	800.000	-0.037	0.123
-97.859	387.491	-0.172	-0.351
-96.845	-125.683	0.110	-0.016
-95.830	-49.573	0.244	0.115
-94.816	140.100	-0.204	-0.265
-93.801	-200.000	-0.010	-0.073
-92.786	-11.605	0.221	0.144
-91.772	559.529	-0.151	-0.361
-90.757	-68.147	0.198	-0.076
-89.743	101.543	0.195	0.224
-88.728	188.811	-0.152	0.225
-87.713	-41.475	-0.209	-0.106
-86.699	-127.203	0.213	-0.031
-85.684	-33.429	0.258	-0.141
-84.670	800.000	-0.059	-0.248
-83.655	-5.829	0.226	0.153
-82.640	-200.000	0.034	0.205
-81.626	-144.057	0.351	0.033
-80.611	-94.026	0.413	0.112
-79.597	173.344	-0.198	0.283
-78.582	-112.432	-0.359	-0.071
-77.567	-200.000	0.006	-0.246
-76.553	-200.000	-0.033	-0.428
-75.538	461.942	-0.077	-0.170
-74.524	34.812	0.395	0.341
-73.509	-34.280	-0.146	-0.079
-72.494	-14.898	-0.266	-0.168
-71.480	-200.000	-0.048	-0.272
-70.465	-200.000	-0.091	-0.430
-69.451	-87.304	-0.172	-0.052
-68.436	-26.688	0.143	0.082
-67.422	556.822	0.025	-0.060
-66.407	-79.857	0.229	-0.076
-65.392	45.611	-0.270	0.247
-64.378	-53.745	-0.104	0.047
-63.363	321.322	0.101	-0.189
-62.349	-60.660	0.275	0.115
-61.334	10.489	-1.120	-0.842
-60.319	196.117	0.333	0.501
-59.305	-200.000	-0.147	-1.206
-58.290	220.411	0.530	0.839
-57.276	707.367	0.544	1.420
-56.261	-200.000	98.447	603.625
-55.246	537.202	1416.220	3320.480
-54.232	150.971	2607.796	3500.618
-53.217	111.010	2188.634	2601.182
-52.203	43.369	1723.709	1554.395
-51.188	36.151	1536.642	1335.874
-50.173	33.808	1509.727	1296.449
-49.159	54.281	1559.192	1481.281
-48.144	55.824	1577.953	1509.737
-47.130	36.381	1535.550	1336.299
-46.115	33.296	1520.352	1301.844
-45.100	33.172	1516.727	1297.838
-44.086	33.190	1514.927	1296.371
-43.071	33.148	1513.242	1294.588
-42.057	33.110	1511.501	1292.786
-41.042	33.076	1510.258	1291.443
-40.027	33.118	1508.717	1290.356
-39.013	33.083	1507.485	1289.017
-37.998	33.079	1506.237	1287.866
-36.984	32.993	1505.501	1286.604
-35.969	33.020	1504.139	1285.570
-34.954	33.004	1502.791	1284.258
-33.940	33.061	1500.945	1283.017
-32.925	33.056	1499.833	1281.985
-31.911	33.147	1498.484	1281.395
-30.896	33.087	1496.664	1279.379
-29.881	33.034	1495.972	1278.384
-28.867	33.038	1494.564	1277.152
-27.852	33.090	1492.764	1275.917
-26.838	33.086	1491.385	1274.657
-25.823	33.049	1490.584	1273.673
-24.809	33.094	1487.970	1271.694
-23.794	33.179	1486.658	1271.091
-22.779	33.086	1485.374	1269.323
-21.765	33.116	1484.494	1268.723
-20.750	33.092	1483.490	1267.650
-19.736	33.099	1482.213	1266.557
-18.721	33.113	1481.174	1265.715
-17.706	33.067	1480.028	1264.373
-16.692	33.106	1478.963	1263.677
-15.677	33.067	1478.500	1262.966
-14.663	33.043	1477.185	1261.635
-13.648	33.097	1476.586	1261.431
-12.633	33.036	1475.400	1259.965
-11.619	33.106	1474.792	1259.859
-10.604	32.964	1473.932	1258.131
-9.590	32.951	1472.807	1257.036
-8.575	33.093	1471.562	1256.867
-7.560	33.077	1470.993	1256.224
-6.546	33.171	1469.873	1255.839
-5.531	32.973	1469.686	1254.318
-4.517	33.021	1468.453	1253.532
-3.502	32.978	1467.450	1252.343
-2.487	33.026	1466.711	1251.979
-1.473	32.916	1465.270	1249.968
-0.458	32.953	1463.797	1248.907
0.556	33.122	1454.991	1239.799
1.571	30.546	1429.837	1201.625
2.586	27.316	1371.594	1132.510
3.600	25.930	1291.223	1057.927
4.615	24.388	1244.774	1011.046
5.629	20.457	1186.342	942.225
6.644	10.532	1097.840	821.800
7.659	2.899	1055.225	752.537
8.673	1.927	1049.538	743.678
9.688	1.798	1046.635	740.926
10.702	1.484	1045.369	738.442
11.717	1.502	1043.493	737.136
12.731	4.728	1046.679	754.992
13.746	14.524	1061.466	813.591
14.761	22.674	1071.885	861.486
15.775	24.743	1074.175	873.365
16.790	25.154	1073.490	874.737
17.804	24.930	1072.749	872.963
18.819	24.599	1072.647	871.193
19.834	24.782	1071.523	871.093
20.848	25.031	1070.884	871.708
21.863	25.054	1070.725	871.614
22.877	25.055	1070.297	871.193
23.892	25.046	1069.628	870.528
24.907	25.032	1068.809	869.714
25.921	25.057	1068.031	869.124
26.936	25.116	1067.149	868.615
27.950	25.087	1065.861	867.353
28.965	24.968	1064.737	865.785
29.980	24.887	1063.105	863.990
30.994	24.897	1061.747	862.857
32.009	25.119	1061.329	863.510
33.023	25.210	1060.499	863.197
34.038	24.898	1060.116	861.311
35.053	24.901	1058.787	860.166
36.067	25.093	1058.258	860.586
37.082	24.941	1057.680	859.307
38.096	25.071	1056.707	859.065
39.111	25.122	1056.406	858.987
40.126	25.283	1055.339	858.813
41.140	24.987	1054.301	856.481
42.155	24.947	1052.824	855.013
43.169	24.633	1051.732	852.554
44.184	24.704	1050.447	851.774
45.199	24.759	1049.543	851.226
46.213	24.726	1048.794	850.387
47.228	24.590	1048.100	849.102
48.242	24.812	1047.095	849.265
49.257	25.006	1046.283	849.453
50.271	24.983	1045.608	848.723
51.286	25.081	1044.957	848.584
52.301	25.026	1044.524	847.894
53.315	25.076	1043.468	847.200
54.330	25.118	1042.639	846.649
55.344	25.012	1042.157	845.683
56.359	25.007	1040.951	844.607
57.374	24.877	1040.509	843.561
58.388	24.737	1039.812	842.263
59.403	24.834	1038.689	841.732
60.417	24.709	1037.860	840.400
61.432	24.636	1037.024	839.306
62.447	24.614	1036.281	838.527
63.461	24.722	1035.752	838.528
64.476	24.801	1034.847	838.095
65.490	24.743	1034.057	837.108
66.505	24.681	1033.008	835.893
67.520	24.761	1031.999	835.377
68.534	24.730	1031.606	834.840
69.549	24.618	1030.704	833.516
70.563	24.351	1029.433	831.172
71.578	24.234	1028.679	829.945
72.593	24.257	1028.074	829.489
73.607	24.077	1027.219	827.888
74.622	24.142	1025.981	827.121
75.636	24.443	1025.115	827.743
76.651	24.679	1024.634	828.378
77.666	24.513	1023.856	826.906
78.680	24.370	1023.437	825.831
79.695	24.415	1022.695	825.370
80.709	24.465	1022.134	825.072
81.724	24.615	1021.039	824.811
82.739	24.727	1020.069	824.471
83.753	24.541	1019.864	823.372
84.768	25.010	1018.953	824.724
85.782	25.275	1018.352	825.385
86.797	25.481	1017.646	825.685
87.812	25.374	1016.676	824.333
88.826	25.048	1016.007	822.224
89.841	25.170	1015.136	822.007
90.855	25.309	1014.066	821.704
91.870	25.294	1013.927	821.449
92.884	25.293	1012.965	820.592
93.899	25.130	1012.045	819.027
94.914	25.031	1011.114	817.751
95.928	25.193	1010.374	817.817
96.943	25.303	1009.197	817.296
97.957	24.852	1008.549	814.647
98.972	24.873	1007.023	813.434
99.987	24.484	1006.366	811.067
101.001	24.759	1005.282	811.368
102.016	25.002	1004.964	812.144
103.030	24.898	1004.419	811.158
104.045	24.783	1003.406	809.747
105.060	24.673	1002.107	808.132
106.074	24.730	1000.595	807.097
107.089	24.626	999.541	805.705
108.103	24.890	1000.154	807.320
109.118	24.860	999.566	806.641
110.133	24.754	997.751	804.624
111.147	24.649	996.739	803.266
112.162	24.676	995.483	802.304
113.176	24.390	994.314	800.010
114.191	24.710	993.393	800.631
115.206	24.676	992.963	800.061
116.220	24.415	992.006	798.054
117.235	24.268	990.529	796.137
118.249	24.304	990.309	796.050
119.264	24.302	989.637	795.432
120.279	24.288	988.535	794.413
121.293	24.285	988.097	793.978
122.308	24.414	987.521	794.020
123.322	24.486	986.608	793.532
124.337	24.410	985.675	792.374
125.352	24.228	984.078	790.216
126.366	23.828	982.640	787.218
127.381	23.564	981.032	784.692
128.395	24.118	981.000	787.050
129.410	24.803	980.622	789.701
130.424	24.954	979.881	789.701
131.439	24.874	979.113	788.659
132.454	24.873	977.702	787.449
133.468	24.928	976.897	786.970
134.483	24.776	976.262	785.724
135.497	24.902	975.730	785.780
136.512	25.029	975.106	785.760
137.527	25.031	974.853	785.496
138.541	25.215	973.609	785.232
139.556	25.171	973.123	784.580
140.570	25.135	972.092	783.521
141.585	25.132	971.502	782.961
142.600	25.183	971.157	782.836
143.614	25.115	969.824	781.396
144.629	25.171	969.257	781.117
145.643	25.578	968.210	781.973
146.658	25.349	967.320	780.189
147.673	25.185	965.962	778.312
148.687	25.175	964.898	777.344
149.702	25.045	963.791	775.819
150.716	24.884	963.042	774.454
151.731	24.883	962.117	773.635
152.746	25.039	961.456	773.709
153.760	25.137	960.999	773.698
154.775	25.328	959.850	773.526
155.789	25.411	959.104	773.214
156.804	25.366	958.103	772.147
157.819	25.292	957.094	770.945
158.833	25.265	956.460	770.250
159.848	25.297	955.998	769.947
160.862	25.426	955.438	769.983
161.877	25.346	953.739	768.202
162.892	25.239	952.924	767.022
163.906	25.307	952.042	766.534
164.921	25.312	951.308	765.895
165.935	25.201	950.172	764.440
166.950	25.284	949.152	763.903
167.964	25.358	948.246	763.423
168.979	25.340	947.430	762.620
169.994	25.119	946.141	760.580
171.008	24.992	945.436	759.405
172.023	25.174	944.962	759.731
173.037	25.410	944.026	759.908
174.052	25.253	942.791	758.183
175.067	24.943	941.907	756.100
176.081	25.016	940.971	755.588
177.096	25.100	940.122	755.193
178.110	25.070	939.377	754.400
179.125	24.918	938.331	752.854
180.140	24.602	937.480	750.778
181.154	24.649	936.997	750.521
182.169	24.768	936.264	750.368
183.183	25.141	935.807	751.501
184.198	25.317	935.565	751.974
185.213	25.333	934.366	751.013
186.227	25.088	934.222	749.806
187.242	25.144	933.867	749.687
188.256	25.222	932.928	749.195
189.271	25.198	932.531	748.707
190.286	25.394	931.354	748.514
191.300	25.396	930.219	747.542
192.315	24.688	929.338	743.823
193.329	23.834	927.625	738.838
194.344	23.475	926.637	736.498
195.359	24.182	926.887	739.567
196.373	25.050	927.398	743.510
197.388	25.266	926.905	743.947
198.402	25.141	926.322	742.894
199.417	25.224	925.617	742.606
200.432	25.162	925.346	742.068
201.446	25.053	924.698	741.032
202.461	24.784	923.389	738.806
203.475	24.835	923.157	738.765
204.490	24.429	921.785	735.927
205.504	23.318	919.713	729.635
206.519	23.610	919.755	730.808
207.534	24.757	920.058	735.702
208.548	24.688	919.499	734.907
209.563	25.097	919.432	736.470
210.577	25.168	918.608	736.035
211.592	24.784	917.584	733.575
212.607	25.269	917.528	735.454
213.621	25.440	916.952	735.629
214.636	25.267	916.357	734.376
215.650	25.420	915.657	734.377
216.665	25.246	915.441	733.426
217.680	25.372	914.629	733.226
218.694	25.449	914.376	733.275
219.709	25.119	913.477	731.142
220.723	24.757	912.705	728.985
221.738	25.011	912.096	729.468
222.753	25.197	911.397	729.603
223.767	25.182	910.649	728.876
224.782	25.180	910.145	728.402
225.796	25.393	909.320	728.541
226.811	25.387	909.155	728.319
227.826	25.027	908.127	725.972
228.840	24.301	906.331	721.534
229.855	24.128	906.189	720.661
230.869	24.367	905.758	721.219
231.884	24.307	904.055	719.556
232.899	24.366	903.381	719.195
233.913	24.965	904.114	722.130
234.928	25.169	903.802	722.640
235.942	25.121	902.745	721.536
236.957	25.166	901.890	720.972
237.972	24.794	901.031	718.727
238.986	24.601	900.161	717.193
240.001	24.727	900.257	717.713
241.015	24.690	899.697	717.056
242.030	24.902	898.700	717.048
243.045	24.923	898.416	716.842
244.059	25.041	897.745	716.714
245.074	25.273	897.496	717.378
246.088	25.415	895.970	716.664
247.103	24.802	895.749	713.975
248.117	24.893	894.810	713.526
249.132	25.487	894.916	715.916
250.147	25.781	895.262	717.301
251.161	25.960	894.221	717.114
252.176	26.132	893.777	717.378
253.190	25.970	893.460	716.418
254.205	26.175	892.758	716.606
255.220	26.255	892.408	716.577
256.234	26.085	892.266	715.726
257.249	26.127	891.099	714.892
258.263	26.011	890.337	713.759
259.278	25.971	890.100	713.349
260.293	25.997	889.511	712.915
261.307	26.101	889.320	713.109
262.322	25.967	888.702	712.024
263.336	25.840	887.544	710.533
264.351	25.507	886.212	708.089
265.366	24.469	884.332	702.444
266.380	23.961	883.543	699.759
267.395	24.973	883.602	703.720
268.409	25.621	883.957	706.488
269.424	25.596	883.313	705.813
270.439	25.612	883.012	705.572
271.453	25.833	882.329	705.830
272.468	25.733	881.941	705.063
273.482	26.021	881.280	705.600
274.497	26.077	881.070	705.589
275.512	26.006	879.334	703.858
276.526	25.271	878.516	700.277
277.541	25.488	877.998	700.646
278.555	25.958	877.966	702.390
279.570	25.793	877.084	700.981
280.585	25.523	876.565	699.454
281.599	25.593	876.189	699.364
282.614	25.760	875.432	699.346
283.628	25.398	874.370	697.030
284.643	24.956	873.809	694.807
285.657	25.380	873.516	696.159
286.672	25.251	872.693	694.939
287.687	24.887	871.415	692.452
288.701	25.160	871.857	693.800
289.716	25.603	871.221	694.945
290.730	25.077	870.708	692.443
291.745	24.937	870.139	691.387
292.760	24.808	868.885	689.833
293.774	24.679	868.284	688.797
294.789	25.690	869.215	693.374
295.803	26.238	869.237	695.439
296.818	26.346	868.687	695.355
297.833	26.483	867.950	695.228
298.847	26.369	866.677	693.709
299.862	25.784	865.779	690.686
300.876	26.062	865.552	691.509
301.891	26.278	865.245	692.033
302.906	26.363	864.750	691.899
303.920	25.932	863.870	689.484
304.935	25.929	862.917	688.654
305.949	26.300	862.388	689.587
306.964	26.373	862.230	689.676
307.979	26.171	861.421	688.199
308.993	25.899	861.598	687.242
310.008	26.457	861.142	688.943
311.022	26.492	860.647	688.620
312.037	26.276	860.352	687.499
313.052	26.119	859.483	686.149
314.066	26.017	858.510	684.925
315.081	25.237	857.073	680.757
316.095	24.345	855.971	676.442
317.110	25.081	855.887	679.106
318.125	25.953	856.290	682.669
319.139	25.632	854.800	680.209
320.154	24.524	853.079	674.593
321.168	23.924	852.417	671.744
322.183	24.593	852.498	674.276
323.197	25.613	852.805	678.307
324.212	25.935	852.614	679.310
325.227	25.941	852.748	679.377
326.241	26.148	852.105	679.584
327.256	25.985	851.277	678.253
328.270	25.914	851.042	677.737
329.285	25.928	849.767	676.714
330.300	25.720	849.130	675.369
331.314	25.602	848.011	673.977
332.329	25.385	848.165	673.224
333.343	25.923	847.551	674.692
334.358	26.149	847.450	675.399
335.373	26.000	847.113	674.512
336.387	26.194	846.335	674.558
337.402	26.536	845.814	675.361
338.416	26.732	845.142	675.495
339.431	26.738	844.531	674.968
340.446	26.788	844.400	674.991
341.460	26.940	843.912	675.104
342.475	26.879	843.063	674.139
343.489	26.582	842.923	672.865
344.504	26.501	842.365	672.061
345.519	26.891	841.880	673.060
346.533	27.118	841.837	673.808
347.548	27.090	841.147	673.092
348.562	27.219	840.283	672.819
349.577	27.057	840.113	672.024
350.592	27.015	839.293	671.153
351.606	26.946	839.252	670.804
352.621	26.782	838.841	669.813
353.635	26.896	838.039	669.535
354.650	26.751	837.530	668.532
355.665	26.572	836.325	666.853
356.679	25.499	834.743	661.583
357.694	25.350	834.104	660.471
358.708	25.970	834.309	662.857
359.723	25.897	833.562	661.936
360.738	26.180	833.172	662.606
361.752	26.650	833.137	664.243
362.767	26.675	833.178	664.309
363.781	27.021	832.773	665.196
364.796	27.247	832.575	665.805
365.810	27.460	832.247	666.266
366.825	27.455	832.213	666.158
367.840	27.400	831.721	665.504
368.854	27.362	830.826	664.592
369.869	26.840	829.698	661.725
370.883	26.685	829.318	660.800
371.898	26.847	828.421	660.617
372.913	26.706	827.987	659.699
373.927	26.847	827.287	659.596
374.942	26.833	827.248	659.456
375.956	26.672	826.791	658.447
376.971	26.927	825.893	658.599
377.986	27.029	825.547	658.635
379.000	27.337	824.748	659.054
380.015	27.340	824.445	658.765
381.029	27.207	823.652	657.594
382.044	27.113	823.245	656.868
383.059	27.339	822.643	657.148
384.073	27.372	822.349	656.973
385.088	27.417	821.541	656.433
386.102	27.316	821.059	655.624
387.117	27.194	820.390	654.594
388.132	27.135	819.497	653.610
389.146	26.875	819.362	652.511
390.161	26.266	818.191	649.333
391.175	26.467	817.722	649.625
392.190	26.911	818.158	651.507
393.205	27.056	817.455	651.411
394.219	25.866	815.851	645.813
395.234	24.461	813.208	638.639
396.248	23.633	812.309	634.919
397.263	24.616	813.073	638.974
398.278	26.431	814.769	646.748
399.292	27.025	814.581	648.664
400.307	26.655	813.966	646.795
401.321	26.548	813.109	645.677
402.336	26.679	812.846	645.878
403.350	26.789	813.420	646.670
404.365	27.313	813.217	648.318
405.380	27.701	812.777	649.294
406.394	28.121	812.155	650.232
407.409	28.026	812.271	649.929
408.423	27.973	811.391	648.980
409.438	28.054	810.888	648.805
410.453	27.993	810.632	648.328
411.467	28.126	810.171	648.372
412.482	28.187	809.254	647.799
413.496	27.900	809.102	646.602
414.511	28.186	808.768	647.292
415.526	28.171	808.504	646.967
416.540	28.004	808.003	645.922
417.555	28.093	807.308	645.622
418.569	27.771	807.020	644.197
419.584	27.604	806.147	642.854
420.599	27.837	805.603	643.184
421.613	108.274	1285.265	1452.655
422.628	93.408	1355.142	1452.789
