DTS Sentinel unit serial number:	SN413079Multiplexer serial number:	ORYXHardware model number:	OX4-SRSoftware version number:	ORYX F/W v4.00 Oryx Data Collector v3.7.2.0data status	okinstallation	princeton_trtdifferential loss correction	single-endedforward channel	channel 3reverse channel	N/Adate	2019/09/17time	11:52:34forward acquisition time	60.00reverse acquisition time	0.00gamma	496.2192k internal	0.2322k external	0.2322temperature offset calibration	0.9959default loss term (dB/km)	0.3790temperature slope calibration	1.0000multiplexer offset coefficient	1.0000multiplexer slope coefficient	1.0000fibre end	0.00T internal ref (°C)	31.00T ext. ref 1 (°C)	0.42T ext. ref 2 (°C)	26.94length (m)	temperature (°C)	Stokes	anti-Stokes-747.200	-62.583	0.338	-0.142
-746.185	444.944	0.057	0.127
-745.171	460.696	-0.049	0.110
-744.156	-200.000	-0.014	0.201
-743.142	221.640	0.131	0.213
-742.127	129.676	-0.239	0.309
-741.112	60.772	-0.190	-0.190
-740.098	68.191	-0.111	0.115
-739.083	354.822	0.086	0.172
-738.069	278.580	0.096	-0.173
-737.054	234.397	0.262	-0.436
-736.039	379.722	-0.209	-0.433
-735.025	89.382	0.027	0.030
-734.010	-46.926	-0.284	0.140
-732.996	83.400	-0.124	-0.137
-731.981	160.836	0.088	-0.124
-730.966	-108.947	-0.151	0.032
-729.952	-145.941	0.223	-0.020
-728.937	-200.000	-0.017	-0.079
-727.923	-84.884	0.274	0.087
-726.908	35.714	0.246	-0.218
-725.894	-27.521	-0.131	0.077
-724.879	-80.061	-0.261	0.088
-723.864	800.000	-0.058	-0.168
-722.850	-200.000	0.019	0.119
-721.835	299.725	0.120	-0.224
-720.821	-9.045	-0.061	-0.041
-719.806	43.184	0.102	-0.094
-718.791	17.422	-0.421	0.338
-717.777	-81.235	0.421	-0.140
-716.762	9.131	0.310	-0.236
-715.748	-65.822	-0.240	0.097
-714.733	197.874	-0.259	0.400
-713.718	162.906	-0.013	-0.019
-712.704	-192.162	0.216	-0.002
-711.689	-66.486	-0.286	-0.114
-710.675	3.604	0.093	0.069
-709.660	-136.729	-0.139	0.016
-708.645	800.000	-0.073	-0.273
-707.631	234.317	0.133	-0.221
-706.616	-200.000	-0.005	-0.178
-705.602	82.344	0.157	-0.172
-704.587	-39.766	0.312	-0.165
-703.572	183.334	-0.154	-0.230
-702.558	-200.000	-0.004	-0.275
-701.543	800.000	0.077	-0.224
-700.529	800.000	0.036	0.101
-699.514	-200.000	0.061	0.323
-698.499	580.567	-0.206	0.510
-697.485	5.596	0.139	0.104
-696.470	-106.001	0.101	-0.023
-695.456	694.971	-0.055	-0.145
-694.441	-200.000	-0.031	-0.333
-693.426	22.179	-0.076	-0.062
-692.412	-76.648	-0.477	0.169
-691.397	90.130	0.072	-0.082
-690.383	133.564	0.120	-0.157
-689.368	-60.125	-0.230	0.099
-688.354	-87.724	-0.108	-0.033
-687.339	327.312	-0.106	-0.204
-686.324	-17.220	-0.126	-0.080
-685.310	-71.344	-0.184	-0.069
-684.295	-200.000	0.013	0.534
-683.281	-152.187	0.145	0.011
-682.266	800.000	0.064	-0.180
-681.251	-200.000	-0.008	-0.095
-680.237	131.554	0.148	0.192
-679.222	-64.118	0.142	0.058
-678.208	92.823	0.103	0.117
-677.193	800.000	-0.026	-0.093
-676.178	-141.683	0.095	0.010
-675.164	677.930	-0.057	-0.149
-674.149	800.000	-0.064	0.207
-673.135	-139.773	0.148	0.016
-672.120	195.593	-0.057	-0.087
-671.105	-200.000	0.017	-0.270
-670.091	-47.171	-0.135	0.066
-669.076	33.300	-0.019	-0.017
-668.062	-94.763	0.155	0.042
-667.047	-18.310	-0.208	-0.131
-666.032	-200.000	0.017	-0.227
-665.018	-200.000	-0.040	0.274
-664.003	-200.000	0.022	-0.192
-662.989	-200.000	-0.014	0.550
-661.974	-38.108	0.161	0.086
-660.959	717.550	0.121	-0.325
-659.945	-47.310	-0.144	-0.071
-658.930	-0.795	0.259	-0.185
-657.916	-54.130	-0.109	0.050
-656.901	-10.914	-0.077	-0.052
-655.886	-153.022	0.255	0.018
-654.872	-14.533	-0.067	0.043
-653.857	33.758	0.118	-0.104
-652.843	231.739	-0.086	-0.142
-651.828	-66.199	0.115	-0.046
-650.814	13.266	0.342	-0.267
-649.799	168.687	0.155	-0.222
-648.784	86.292	0.337	-0.374
-647.770	-200.000	0.009	0.245
-646.755	-97.118	-0.249	-0.066
-645.741	14.060	-0.409	-0.321
-644.726	-156.359	0.305	0.019
-643.711	132.888	0.105	0.136
-642.697	-136.838	-0.252	0.029
-641.682	-2.359	-0.264	-0.187
-640.668	28.151	0.162	0.138
-639.653	112.639	0.120	-0.147
-638.638	-113.200	0.259	0.051
-637.624	-90.144	0.284	-0.083
-636.609	-154.746	0.301	0.020
-635.595	-132.792	0.166	-0.021
-634.580	-107.326	-0.171	-0.038
-633.565	273.249	0.189	0.336
-632.551	7.042	0.367	0.275
-631.536	-200.000	-0.002	-0.147
-630.522	-124.680	-0.188	-0.029
-629.507	800.000	0.079	-0.233
-628.492	800.000	-0.049	-0.188
-627.478	-200.000	-0.044	-0.268
-626.463	-21.050	0.150	0.093
-625.449	-96.589	-0.301	-0.080
-624.434	28.804	0.195	0.166
-623.419	95.194	-0.062	0.071
-622.405	-117.300	0.237	-0.043
-621.390	-200.000	-0.045	0.449
-620.376	-33.856	-0.238	0.132
-619.361	-89.300	-0.312	0.092
-618.346	-159.105	0.171	0.010
-617.332	-55.899	0.032	-0.014
-616.317	417.514	0.101	0.217
-615.303	-50.398	0.065	0.031
-614.288	-200.000	0.008	-0.113
-613.273	-45.675	-0.239	0.119
-612.259	235.310	-0.148	0.245
-611.244	56.687	0.123	-0.121
-610.230	-200.000	-0.023	-0.115
-609.215	800.000	-0.074	-0.237
-608.201	-200.000	0.021	0.171
-607.186	76.927	0.232	-0.248
-606.171	800.000	0.071	0.271
-605.157	215.273	0.076	-0.122
-604.142	-89.986	0.065	-0.019
-603.128	-200.000	-0.044	0.359
-602.113	800.000	-0.154	0.467
-601.098	-46.700	0.243	-0.119
-600.084	-145.036	0.122	0.011
-599.069	291.090	0.213	-0.388
-598.055	109.215	0.061	0.073
-597.040	-112.720	0.166	-0.033
-596.025	-200.000	-0.048	-0.288
-595.011	203.047	-0.213	-0.331
-593.996	-200.000	0.012	-0.147
-592.982	69.145	0.095	-0.098
-591.967	5.394	0.179	-0.132
-590.952	-200.000	-0.003	0.068
-589.938	-90.898	-0.232	0.067
-588.923	30.042	0.148	-0.127
-587.909	55.175	-0.223	-0.217
-586.894	-32.299	0.215	0.121
-585.879	133.890	-0.182	0.236
-584.865	121.840	0.113	-0.142
-583.850	-132.606	-0.255	-0.033
-582.836	-125.624	0.176	-0.027
-581.821	-200.000	0.001	-0.105
-580.806	224.516	-0.075	0.121
-579.792	-95.605	-0.170	-0.046
-578.777	-34.601	0.123	-0.068
-577.763	-200.000	0.026	0.125
-576.748	-131.789	0.360	-0.047
-575.733	43.222	0.285	-0.262
-574.719	-91.073	-0.468	-0.135
-573.704	-13.950	0.158	0.102
-572.690	-173.183	-0.198	-0.006
-571.675	76.563	0.047	-0.050
-570.661	-115.549	-0.083	-0.016
-569.646	-83.005	0.044	-0.014
-568.631	-200.000	-0.022	-0.165
-567.617	221.684	-0.030	-0.048
-566.602	172.105	0.275	-0.396
-565.588	541.767	-0.123	0.294
-564.573	208.474	-0.148	0.233
-563.558	279.562	-0.139	0.249
-562.544	88.193	-0.202	-0.224
-561.529	800.000	0.083	-0.342
-560.515	-47.317	-0.115	0.056
-559.500	107.425	0.205	-0.245
-558.485	23.015	-0.152	-0.125
-557.471	-45.127	-0.317	-0.158
-556.456	800.000	0.042	0.135
-555.442	-40.953	-0.357	-0.185
-554.427	-39.564	0.056	0.029
-553.412	-67.636	0.121	-0.048
-552.398	7.711	0.329	0.247
-551.383	74.976	-0.134	0.141
-550.369	464.957	-0.085	-0.190
-549.354	-60.791	0.134	0.057
-548.339	-171.725	-0.364	0.012
-547.325	60.497	-0.249	-0.247
-546.310	-126.412	-0.198	-0.030
-545.296	-200.000	0.019	0.149
-544.281	347.602	0.030	-0.059
-543.266	800.000	0.048	-0.161
-542.252	137.787	0.092	-0.121
-541.237	-19.497	0.052	0.033
-540.223	-65.105	-0.245	-0.099
-539.208	-170.230	-0.061	0.002
-538.193	371.861	-0.090	0.182
-537.179	131.323	-0.081	-0.104
-536.164	120.463	0.304	-0.379
-535.150	228.683	0.035	0.058
-534.135	-61.794	0.259	-0.109
-533.121	-148.072	0.101	0.008
-532.106	-74.271	0.237	-0.086
-531.091	50.586	-0.174	0.165
-530.077	-80.145	-0.231	0.077
-529.062	-27.899	0.151	-0.088
-528.048	235.869	0.020	0.033
-527.033	344.685	-0.073	-0.144
-526.018	-200.000	0.009	0.167
-525.004	-141.946	0.493	0.049
-523.989	156.691	-0.177	-0.245
-522.975	29.358	-0.115	-0.098
-521.960	800.000	0.038	0.128
-520.945	109.155	-0.213	-0.255
-519.931	-200.000	0.056	-0.298
-518.916	49.710	0.163	0.154
-517.902	120.248	0.117	-0.145
-516.887	88.464	-0.107	0.119
-515.872	-150.826	-0.111	0.008
-514.858	159.898	-0.011	0.016
-513.843	-200.000	0.043	0.319
-512.829	-78.331	-0.184	-0.063
-511.814	112.588	0.143	0.173
-510.799	-200.000	-0.050	-0.330
-509.785	375.505	0.111	0.226
-508.770	-200.000	-0.025	-0.206
-507.756	-1.884	0.323	0.227
-506.741	800.000	-0.066	-0.185
-505.726	-200.000	0.036	0.166
-504.712	-139.828	-0.100	0.011
-503.697	482.451	-0.028	-0.064
-502.683	-139.476	0.381	-0.041
-501.668	16.736	0.309	-0.245
-500.653	-19.788	0.138	-0.085
-499.639	-4.670	-0.243	0.168
-498.624	-200.000	-0.014	-0.143
-497.610	716.521	0.050	-0.133
-496.595	-53.519	-0.267	0.122
-495.581	-66.293	-0.176	-0.070
-494.566	239.066	-0.118	-0.196
-493.551	-14.225	0.363	-0.234
-492.537	400.473	-0.095	0.200
-491.522	-48.003	-0.311	0.151
-490.508	181.175	0.069	0.101
-489.493	-82.979	-0.485	-0.156
-488.478	-200.000	-0.009	0.154
-487.464	800.000	0.047	-0.141
-486.449	529.751	-0.251	-0.594
-485.435	39.380	-0.151	-0.135
-484.420	9.198	-0.196	0.148
-483.405	800.000	-0.035	0.136
-482.391	-200.000	0.006	0.174
-481.376	70.672	-0.192	-0.199
-480.362	800.000	-0.036	0.147
-479.347	-200.000	0.016	-0.156
-478.332	-200.000	-0.027	-0.258
-477.318	-128.138	0.258	-0.037
-476.303	3.592	-0.099	-0.072
-475.289	-140.635	0.275	-0.028
-474.274	182.089	0.216	0.319
-473.259	206.759	-0.045	-0.070
-472.245	-22.500	-0.243	0.147
-471.230	-111.250	0.379	0.078
-470.216	278.540	0.031	-0.055
-469.201	112.158	-0.079	0.095
-468.186	-200.000	-0.022	-0.163
-467.172	266.646	-0.169	-0.295
-466.157	800.000	-0.126	-0.472
-465.143	-93.446	0.137	-0.038
-464.128	-6.914	-0.068	0.046
-463.113	73.968	-0.101	0.106
-462.099	14.349	-0.358	-0.279
-461.084	-73.930	-0.433	-0.157
-460.070	-79.844	-0.144	-0.048
-459.055	489.446	-0.040	-0.091
-458.040	130.438	0.236	-0.302
-457.026	-144.262	0.333	-0.031
-456.011	191.638	-0.208	-0.313
-454.997	-3.282	0.116	0.081
-453.982	-200.000	0.010	0.320
-452.968	310.525	-0.145	-0.272
-451.953	71.629	0.142	-0.147
-450.938	233.781	0.136	0.224
-449.924	-200.000	-0.001	-0.127
-448.909	73.704	-0.169	-0.177
-447.895	-8.647	-0.068	0.046
-446.880	-172.147	-0.245	-0.008
-445.865	115.996	0.230	0.281
-444.851	-16.026	0.283	0.180
-443.836	32.463	0.144	0.124
-442.822	82.471	0.104	-0.113
-441.807	3.636	-0.223	0.163
-440.792	-200.000	0.032	-0.148
-439.778	-62.700	0.224	0.093
-438.763	-200.000	-0.034	0.153
-437.749	-200.000	0.003	0.186
-436.734	18.519	-0.239	-0.191
-435.719	145.482	-0.069	0.092
-434.705	-76.828	0.335	0.117
-433.690	119.165	-0.159	-0.196
-432.676	800.000	0.107	-0.330
-431.661	-68.524	-0.191	0.074
-430.646	23.547	0.113	0.093
-429.632	497.383	-0.081	0.185
-428.617	-55.511	-0.091	0.041
-427.603	-200.000	0.008	-0.098
-426.588	-85.019	-0.303	-0.095
-425.573	142.189	0.256	-0.339
-424.559	-200.000	-0.014	-0.113
-423.544	-200.000	-0.043	0.200
-422.530	-85.435	-0.315	0.098
-421.515	754.459	-0.057	0.155
-420.500	-69.790	0.222	0.085
-419.486	-101.229	0.308	-0.075
-418.471	-43.268	-0.199	0.101
-417.457	800.000	0.136	0.385
-416.442	20.186	0.216	0.174
-415.428	-81.650	0.279	0.091
-414.413	-100.533	-0.373	-0.092
-413.398	800.000	0.144	-0.413
-412.384	73.115	0.174	0.181
-411.369	-110.783	-0.411	0.084
-410.355	-200.000	0.011	-0.153
-409.340	-40.368	0.317	0.164
-408.325	-200.000	0.019	0.151
-407.311	141.367	0.230	-0.304
-406.296	-200.000	-0.013	-0.137
-405.282	-200.000	-0.059	-0.345
-404.267	29.118	0.261	-0.221
-403.252	12.334	-0.194	0.149
-402.238	4.054	-0.388	0.283
-401.223	436.819	0.074	0.161
-400.209	63.767	0.102	-0.102
-399.194	-111.926	0.234	-0.047
-398.179	800.000	-0.023	0.091
-397.165	800.000	-0.035	-0.099
-396.150	188.700	-0.076	-0.114
-395.136	-200.000	-0.011	0.414
-394.121	46.540	-0.345	0.319
-393.106	-160.321	0.252	0.014
-392.092	-112.144	0.332	-0.066
-391.077	800.000	0.016	-0.054
-390.063	800.000	0.067	0.249
-389.048	56.281	-0.275	0.266
-388.033	-182.918	-0.432	-0.008
-387.019	800.000	-0.043	0.122
-386.004	294.944	-0.094	0.172
-384.990	-200.000	-0.028	0.221
-383.975	44.165	-0.182	0.167
-382.960	-200.000	-0.043	0.290
-381.946	256.029	0.123	-0.210
-380.931	-78.600	-0.130	-0.044
-379.917	79.814	-0.095	-0.102
-378.902	-65.479	-0.021	0.009
-377.888	-200.000	-0.023	0.133
-376.873	800.000	0.038	-0.110
-375.858	800.000	0.119	0.329
-374.844	-200.000	-0.006	0.090
-373.829	110.556	-0.224	-0.268
-372.815	-93.327	-0.174	-0.048
-371.800	688.294	0.087	-0.226
-370.785	-111.092	0.059	-0.012
-369.771	-75.795	-0.391	0.138
-368.756	154.478	0.133	0.182
-367.742	80.173	-0.132	0.141
-366.727	617.348	-0.160	-0.399
-365.712	-127.123	-0.352	0.051
-364.698	27.743	0.254	-0.213
-363.683	86.030	0.305	-0.335
-362.669	307.047	0.032	0.059
-361.654	256.286	0.199	0.340
-360.639	-170.595	0.239	-0.008
-359.625	-109.238	0.135	-0.028
-358.610	-21.549	-0.253	-0.154
-357.596	493.705	0.039	0.088
-356.581	78.972	-0.045	0.048
-355.566	800.000	-0.089	0.314
-354.552	96.745	0.045	0.051
-353.537	-12.912	-0.067	-0.044
-352.523	-40.948	-0.293	0.151
-351.508	28.490	-0.073	0.061
-350.493	15.237	-0.393	-0.307
-349.479	255.544	0.134	-0.229
-348.464	416.159	0.080	-0.169
-347.450	-133.570	-0.244	-0.030
-346.435	-138.470	0.123	0.013
-345.420	-200.000	-0.046	0.272
-344.406	-23.161	0.257	-0.154
-343.391	-200.000	-0.026	-0.154
-342.377	229.956	0.070	0.114
-341.362	156.190	-0.104	0.142
-340.348	29.363	-0.109	0.092
-339.333	800.000	-0.071	0.286
-338.318	-19.387	0.225	0.139
-337.304	-82.540	0.155	-0.050
-336.289	475.125	-0.088	-0.198
-335.275	27.299	-0.112	-0.093
-334.260	486.529	0.061	0.138
-333.245	6.070	0.020	0.015
-332.231	-102.609	0.107	-0.025
-331.216	800.000	-0.043	-0.168
-330.202	217.610	-0.036	0.057
-329.187	614.025	-0.130	0.325
-328.172	68.801	-0.035	0.036
-327.158	-6.501	0.203	-0.138
-326.143	800.000	-0.056	0.156
-325.129	-200.000	-0.027	-0.133
-324.114	505.011	-0.061	0.139
-323.099	-62.977	0.087	0.036
-322.085	-200.000	-0.035	-0.200
-321.070	96.247	0.046	-0.052
-320.056	48.526	0.069	0.064
-319.041	202.453	0.092	0.141
-318.026	240.131	0.049	0.081
-317.012	-87.103	0.436	0.132
-315.997	-124.472	0.156	0.024
-314.983	11.181	-0.151	-0.115
-313.968	-36.719	-0.302	0.161
-312.953	-17.686	-0.140	0.088
-311.939	-49.942	0.167	0.079
-310.924	-133.755	-0.025	-0.003
-309.910	-48.557	-0.439	0.210
-308.895	-68.742	0.210	-0.081
-307.880	593.584	-0.094	-0.231
-306.866	-200.000	-0.027	-0.207
-305.851	262.165	-0.071	-0.122
-304.837	405.032	0.151	-0.315
-303.822	-130.666	-0.149	0.020
-302.807	-77.752	0.222	0.076
-301.793	-18.809	0.219	0.135
-300.778	-200.000	0.035	0.291
-299.764	44.976	-0.305	0.279
-298.749	-135.483	0.097	-0.011
-297.735	89.008	-0.036	0.040
-296.720	-56.076	-0.026	0.011
-295.705	173.812	0.120	0.173
-294.691	800.000	0.122	0.440
-293.676	-55.961	0.147	0.065
-292.662	800.000	-0.073	-0.229
-291.647	-47.548	-0.235	-0.113
-290.632	-16.166	0.306	-0.193
-289.618	21.277	0.165	0.133
-288.603	-43.218	0.145	0.073
-287.589	-130.657	0.279	0.037
-286.574	-5.049	-0.216	-0.148
-285.559	-38.173	0.380	-0.200
-284.545	-67.331	0.171	-0.067
-283.530	800.000	0.113	0.325
-282.516	-200.000	-0.027	0.130
-281.501	564.838	-0.092	0.221
-280.486	30.357	0.089	-0.075
-279.472	800.000	0.070	0.217
-278.457	800.000	0.053	-0.199
-277.443	-65.500	0.124	0.050
-276.428	176.725	-0.091	-0.132
-275.413	389.694	-0.220	-0.453
-274.399	574.486	-0.095	-0.230
-273.384	218.260	-0.098	-0.155
-272.370	161.163	-0.079	0.110
-271.355	-85.078	-0.318	0.099
-270.340	36.556	0.343	0.300
-269.326	103.044	0.127	0.148
-268.311	-200.000	-0.078	0.372
-267.297	-200.000	0.018	0.135
-266.282	-200.000	-0.026	0.223
-265.267	352.179	-0.143	0.281
-264.253	-71.394	0.368	-0.137
-263.238	-21.164	-0.110	0.067
-262.224	214.816	0.175	-0.276
-261.209	-36.297	-0.057	-0.030
-260.195	-200.000	0.018	0.342
-259.180	800.000	-0.065	-0.179
-258.165	-119.208	0.462	0.080
-257.151	-111.362	0.239	0.048
-256.136	83.110	-0.149	-0.161
-255.122	319.499	-0.024	0.046
-254.107	-116.232	-0.037	0.007
-253.092	-200.000	-0.000	0.063
-252.078	173.934	-0.099	0.142
-251.063	38.142	0.337	-0.297
-250.049	-61.302	-0.451	-0.188
-249.034	800.000	0.019	-0.077
-248.019	-200.000	0.076	-0.349
-247.005	-200.000	0.072	0.404
-245.990	-17.398	-0.305	0.191
-244.976	800.000	-0.040	0.115
-243.961	66.763	-0.124	0.125
-242.946	62.521	0.013	-0.013
-241.932	-57.966	-0.062	0.027
-240.917	338.557	0.042	-0.081
-239.903	43.807	-0.115	-0.104
-238.888	35.981	-0.337	0.294
-237.873	-200.000	0.081	0.372
-236.859	251.707	-0.168	0.283
-235.844	11.960	0.249	0.190
-234.830	175.033	-0.174	-0.250
-233.815	-4.290	-0.378	0.259
-232.800	-132.962	-0.138	0.017
-231.786	-41.916	-0.296	0.150
-230.771	35.872	0.225	-0.196
-229.757	-14.762	0.198	0.126
-228.742	-138.579	-0.235	0.026
-227.727	-87.041	0.126	-0.038
-226.713	-117.247	-0.121	-0.022
-225.698	-113.500	-0.189	0.037
-224.684	800.000	0.082	-0.267
-223.669	109.970	-0.144	-0.171
-222.655	-200.000	-0.068	-0.413
-221.640	-200.000	-0.026	-0.133
-220.625	-85.625	0.121	0.037
-219.611	-200.000	0.043	0.235
-218.596	-108.100	0.146	-0.031
-217.582	513.163	-0.116	0.267
-216.567	800.000	0.089	-0.291
-215.552	800.000	0.056	0.156
-214.538	-83.441	-0.538	-0.170
-213.523	-200.000	0.023	-0.145
-212.509	-5.748	0.095	0.064
-211.494	-3.893	-0.206	-0.142
-210.479	-200.000	0.053	-0.232
-209.465	134.039	0.077	0.098
-208.450	-200.000	0.023	-0.126
-207.436	-54.753	0.359	-0.160
-206.421	33.787	0.181	0.156
-205.406	-200.000	-0.013	-0.085
-204.392	20.815	0.234	-0.187
-203.377	-71.464	-0.075	-0.028
-202.363	303.642	0.031	0.056
-201.348	207.828	0.106	-0.164
-200.333	108.769	0.056	0.067
-199.319	-12.525	0.150	-0.097
-198.304	-200.000	-0.036	-0.278
-197.290	-38.301	0.165	-0.086
-196.275	800.000	-0.052	-0.187
-195.260	137.080	0.118	0.153
-194.246	179.326	-0.200	0.290
-193.231	-200.000	-0.038	0.173
-192.217	71.243	-0.220	-0.225
-191.202	-104.451	-0.052	0.012
-190.187	306.479	0.039	0.072
-189.173	10.697	0.194	0.146
-188.158	-57.105	-0.168	0.073
-187.144	-143.388	-0.309	0.029
-186.129	-157.284	0.271	0.016
-185.114	789.553	-0.078	0.212
-184.100	800.000	0.042	-0.142
-183.085	-110.534	-0.270	0.055
-182.071	-200.000	-0.020	-0.151
-181.056	-51.558	-0.142	0.066
-180.042	-147.658	-0.295	0.025
-179.027	378.021	0.105	0.213
-178.012	188.099	0.159	-0.235
-176.998	-133.866	0.427	0.052
-175.983	-200.000	0.044	0.311
-174.969	-107.283	-0.215	0.047
-173.954	-100.712	0.392	0.095
-172.939	-6.000	-0.098	0.066
-171.925	-200.000	0.012	0.110
-170.910	687.322	-0.022	0.056
-169.896	-142.442	0.332	-0.032
-168.881	167.344	-0.171	-0.241
-167.866	24.491	0.148	0.121
-166.852	-200.000	-0.009	0.093
-165.837	800.000	-0.119	0.352
-164.823	-200.000	0.016	0.278
-163.808	-16.239	-0.194	-0.122
-162.793	-71.849	0.228	-0.084
-161.779	-190.395	0.103	0.001
-160.764	290.397	0.153	0.275
-159.750	-200.000	0.018	0.171
-158.735	-59.035	-0.177	0.075
-157.720	-200.000	0.021	-0.102
-156.706	39.412	-0.049	0.043
-155.691	-45.580	0.274	-0.134
-154.677	-200.000	0.001	0.015
-153.662	-26.076	0.163	0.095
-152.647	800.000	-0.038	0.144
-151.633	-78.212	-0.140	0.047
-150.618	684.596	-0.054	-0.138
-149.604	-42.474	-0.235	0.118
-148.589	-1.052	-0.270	-0.188
-147.574	-200.000	0.053	-0.246
-146.560	-73.430	0.089	-0.032
-145.545	-128.450	-0.286	0.040
-144.531	174.799	-0.115	0.164
-143.516	800.000	-0.029	0.088
-142.502	-76.668	0.117	-0.041
-141.487	-200.000	-0.021	0.127
-140.472	-136.699	-0.288	0.033
-139.458	307.752	0.166	0.306
-138.443	-113.273	0.198	-0.038
-137.429	327.177	-0.125	-0.237
-136.414	352.434	0.124	-0.242
-135.399	-200.000	0.030	0.154
-134.385	111.029	0.269	-0.320
-133.370	-98.834	-0.195	-0.049
-132.356	-200.000	0.000	0.226
-131.341	80.789	-0.279	0.297
-130.326	614.641	-0.013	0.032
-129.312	22.886	0.177	-0.143
-128.297	-119.600	0.217	-0.037
-127.283	28.729	0.228	0.190
-126.268	-26.526	0.255	-0.148
-125.253	28.599	-0.028	-0.023
-124.239	-76.233	0.106	0.037
-123.224	-94.781	0.304	-0.081
-122.210	-200.000	0.013	0.181
-121.195	800.000	-0.072	-0.271
-120.180	13.633	-0.331	-0.253
-119.166	-58.005	-0.273	-0.118
-118.151	800.000	0.082	0.312
-117.137	128.326	0.172	0.216
-116.122	69.593	0.305	0.310
-115.107	-200.000	0.017	0.107
-114.093	-200.000	-0.019	0.243
-113.078	318.227	0.104	0.193
-112.064	-200.000	-0.011	0.165
-111.049	-1.519	-0.201	0.140
-110.034	-70.233	-0.188	0.070
-109.020	346.098	-0.087	-0.169
-108.005	800.000	-0.077	0.292
-106.991	800.000	0.084	0.298
-105.976	-42.360	-0.079	-0.040
-104.962	15.434	-0.274	0.212
-103.947	-91.500	0.215	-0.060
-102.932	97.529	0.090	0.102
-101.918	686.004	0.144	0.371
-100.903	282.237	-0.121	0.214
-99.889	-149.156	-0.071	0.006
-98.874	73.214	0.250	-0.258
-97.859	150.511	0.124	0.165
-96.845	375.750	-0.085	0.171
-95.830	123.031	-0.210	0.258
-94.816	642.732	0.096	0.242
-93.801	800.000	0.086	0.256
-92.786	-78.881	-0.242	0.081
-91.772	-109.506	-0.162	0.034
-90.757	56.211	0.116	0.111
-89.743	-200.000	0.039	0.294
-88.728	-200.000	-0.040	0.262
-87.713	254.387	0.110	0.186
-86.699	25.408	0.085	0.070
-85.684	800.000	-0.091	0.273
-84.670	-38.282	0.417	-0.218
-83.655	-200.000	-0.001	-0.461
-82.640	645.414	0.204	-0.513
-81.626	-149.575	-0.021	-0.002
-80.611	25.165	0.099	-0.081
-79.597	-86.003	-0.236	-0.072
-78.582	97.900	0.119	-0.135
-77.567	800.000	-0.100	-0.361
-76.553	291.100	-0.111	-0.199
-75.538	-23.299	-0.079	-0.047
-74.524	-108.669	-0.144	-0.030
-73.509	-97.160	0.099	-0.026
-72.494	-16.398	-0.114	-0.071
-71.480	800.000	0.090	0.296
-70.465	-61.414	0.375	0.155
-69.451	376.974	-0.136	-0.274
-68.436	249.036	0.082	-0.136
-67.422	151.270	-0.108	0.145
-66.407	-200.000	-0.017	-0.190
-65.392	113.417	0.287	0.343
-64.378	800.000	0.042	-0.127
-63.363	48.063	0.188	0.173
-62.349	-121.528	0.261	0.043
-61.334	42.825	-0.904	-0.811
-60.319	144.340	0.402	0.528
-59.305	-200.000	0.014	-1.210
-58.290	162.799	0.594	0.821
-57.276	416.925	0.665	1.396
-56.261	-200.000	99.474	586.652
-55.246	506.193	1419.612	3236.426
-54.232	154.241	2602.200	3511.614
-53.217	110.322	2183.824	2579.977
-52.203	41.781	1713.822	1527.698
-51.188	34.194	1522.678	1305.480
-50.173	31.742	1495.468	1265.563
-49.159	51.627	1545.850	1445.215
-48.144	52.771	1563.829	1469.831
-47.130	34.466	1522.773	1307.223
-46.115	31.346	1507.568	1272.902
-45.100	31.028	1504.793	1268.343
-44.086	31.100	1502.042	1266.468
-43.071	30.999	1500.187	1264.166
-42.057	30.938	1499.471	1263.101
-41.042	30.975	1497.550	1261.680
-40.027	30.989	1495.896	1260.335
-39.013	30.959	1494.339	1258.770
-37.998	30.941	1493.284	1257.711
-36.984	30.857	1492.375	1256.328
-35.969	31.010	1490.415	1255.657
-34.954	30.909	1489.744	1254.363
-33.940	30.955	1488.152	1253.285
-32.925	30.966	1486.735	1252.114
-31.911	30.945	1485.405	1250.801
-30.896	31.107	1483.729	1250.425
-29.881	31.115	1482.766	1249.616
-28.867	31.055	1481.524	1248.119
-27.852	31.097	1479.526	1246.667
-26.838	31.009	1478.231	1244.939
-25.823	31.047	1476.773	1243.918
-24.809	31.037	1475.170	1242.448
-23.794	31.178	1473.400	1241.847
-22.779	31.017	1472.885	1240.291
-21.765	31.014	1471.836	1239.342
-20.750	31.142	1470.346	1238.891
-19.736	31.022	1469.383	1237.233
-18.721	30.995	1468.371	1236.151
-17.706	31.021	1467.256	1235.336
-16.692	31.079	1465.821	1234.460
-15.677	30.891	1465.067	1232.533
-14.663	31.022	1463.738	1232.231
-13.648	31.003	1462.408	1230.940
-12.633	30.947	1462.045	1230.218
-11.619	30.932	1461.185	1229.341
-10.604	31.034	1460.218	1229.155
-9.590	30.952	1459.331	1227.817
-8.575	30.999	1458.687	1227.537
-7.560	30.993	1457.660	1226.582
-6.546	31.046	1456.517	1225.920
-5.531	30.953	1456.168	1224.968
-4.517	30.919	1455.389	1224.044
-3.502	30.961	1454.334	1223.379
-2.487	30.939	1452.750	1221.857
-1.473	30.865	1452.464	1221.084
-0.458	30.971	1450.740	1220.279
0.556	29.671	1441.375	1210.679
1.571	27.005	1415.939	1172.026
2.586	23.498	1354.826	1099.642
3.600	21.707	1272.788	1022.519
4.615	20.408	1228.242	979.325
5.629	17.742	1171.869	919.931
6.644	9.054	1085.420	808.401
7.659	1.708	1044.121	741.879
8.673	0.589	1038.352	732.291
9.688	0.438	1035.593	729.550
10.702	0.372	1033.850	727.938
11.717	0.291	1032.134	726.278
12.731	3.021	1035.184	741.541
13.746	11.589	1046.520	791.236
14.761	17.470	1053.611	825.123
15.775	17.618	1052.592	824.967
16.790	16.810	1050.259	819.160
17.804	15.749	1048.224	812.380
18.819	14.863	1046.946	807.040
19.834	14.459	1045.089	803.589
20.848	14.067	1044.553	801.219
21.863	13.783	1043.677	799.108
22.877	13.555	1042.830	797.294
23.892	13.347	1042.218	795.755
24.907	13.276	1041.370	794.695
25.921	13.349	1040.527	794.332
26.936	13.289	1040.149	793.683
27.950	13.393	1039.164	793.363
28.965	13.503	1038.380	793.221
29.980	13.518	1037.640	792.653
30.994	13.592	1036.785	792.287
32.009	13.576	1035.708	791.318
33.023	13.585	1035.162	790.873
34.038	13.624	1034.181	790.240
35.053	13.639	1033.052	789.377
36.067	13.445	1032.522	787.979
37.082	13.450	1031.378	787.058
38.096	13.497	1030.648	786.659
39.111	13.622	1029.836	786.561
40.126	13.527	1029.222	785.573
41.140	13.492	1028.087	784.471
42.155	13.396	1027.004	783.118
43.169	13.315	1026.386	782.194
44.184	13.345	1025.613	781.680
45.199	13.296	1024.576	780.590
46.213	13.289	1023.311	779.521
47.228	13.353	1022.467	779.111
48.242	13.520	1020.748	778.518
49.257	13.401	1020.693	777.850
50.271	13.398	1019.556	776.898
51.286	13.403	1018.997	776.430
52.301	13.436	1018.314	775.996
53.315	13.432	1017.357	775.178
54.330	13.309	1016.773	774.090
55.344	13.409	1015.623	773.610
56.359	13.374	1014.579	772.583
57.374	13.384	1013.900	772.047
58.388	13.372	1012.767	771.060
59.403	13.504	1011.856	770.910
60.417	13.469	1011.081	770.088
61.432	13.317	1010.873	769.157
62.447	13.312	1010.302	768.629
63.461	13.345	1009.059	767.771
64.476	13.383	1007.962	767.044
65.490	13.233	1007.494	765.926
66.505	13.223	1006.768	765.257
67.520	13.278	1006.068	764.914
68.534	13.453	1004.573	764.516
69.549	13.267	1004.520	763.549
70.563	13.263	1004.067	763.119
71.578	13.294	1003.154	762.503
72.593	13.196	1002.201	761.257
73.607	13.241	1001.076	760.541
74.622	13.307	1000.000	759.961
75.636	13.255	999.593	759.345
76.651	13.291	998.543	758.646
77.666	13.181	998.252	757.854
78.680	13.284	997.200	757.460
79.695	13.200	996.758	756.671
80.709	13.307	996.141	756.628
81.724	13.372	994.941	755.945
82.739	13.350	994.483	755.433
83.753	13.320	994.130	754.958
84.768	13.526	992.458	754.563
85.782	13.406	992.388	753.894
86.797	13.553	991.342	753.703
87.812	13.482	990.498	752.671
88.826	13.415	989.723	751.713
89.841	13.427	989.166	751.277
90.855	13.464	987.982	750.476
91.870	13.531	987.338	750.223
92.884	13.570	986.469	749.675
93.899	13.632	986.282	749.749
94.914	13.581	985.532	748.883
95.928	13.567	985.016	748.358
96.943	13.564	984.235	747.685
97.957	13.614	983.500	747.287
98.972	13.590	982.510	746.359
99.987	13.625	981.500	745.686
101.001	13.588	980.774	744.900
102.016	13.490	980.351	744.071
103.030	13.587	979.061	743.465
104.045	13.516	978.311	742.508
105.060	13.594	977.192	741.944
106.074	13.592	975.986	740.953
107.089	13.500	975.456	740.073
108.103	13.509	974.518	739.338
109.118	13.416	973.671	738.215
110.133	13.481	972.536	737.579
111.147	13.409	971.967	736.762
112.162	13.343	970.745	735.479
113.176	13.505	969.663	735.311
114.191	13.419	969.154	734.477
115.206	13.390	968.504	733.793
116.220	13.597	967.282	733.719
117.235	13.481	966.610	732.629
118.249	13.391	966.336	731.960
119.264	13.447	965.109	731.215
120.279	13.510	964.450	730.927
121.293	13.445	963.674	729.989
122.308	13.413	963.058	729.317
123.322	13.403	962.487	728.774
124.337	13.365	961.183	727.554
125.352	13.438	959.782	726.750
126.366	13.370	959.127	725.891
127.381	13.369	958.198	725.122
128.395	13.410	956.818	724.193
129.410	13.333	955.864	723.071
130.424	13.438	955.126	722.904
131.439	13.356	954.463	721.982
132.454	13.460	953.226	721.438
133.468	13.572	952.522	721.326
134.483	13.466	952.035	720.433
135.497	13.449	951.220	719.677
136.512	13.488	950.388	719.152
137.527	13.621	949.281	718.830
138.541	13.456	948.648	717.571
139.556	13.461	948.223	717.210
140.570	13.584	947.164	716.879
141.585	13.447	947.004	716.098
142.600	13.588	946.063	715.934
143.614	13.581	945.298	715.260
144.629	13.567	944.533	714.557
145.643	13.573	944.047	714.152
146.658	13.798	942.470	713.864
147.673	13.698	942.124	713.110
148.687	13.548	941.294	711.774
149.702	13.517	940.472	710.955
150.716	13.401	939.835	709.913
151.731	13.469	938.885	709.427
152.746	13.591	937.915	709.152
153.760	13.511	937.273	708.263
154.775	13.616	936.329	707.934
155.789	13.688	935.640	707.658
156.804	13.661	934.837	706.874
157.819	13.628	934.230	706.213
158.833	13.664	933.605	705.829
159.848	13.680	933.174	705.510
160.862	13.744	932.468	705.184
161.877	13.675	931.327	703.969
162.892	13.516	930.863	702.881
163.906	13.579	929.590	702.122
164.921	13.719	928.242	701.634
165.935	13.654	927.955	701.080
166.950	13.692	926.890	700.377
167.964	13.691	925.814	699.498
168.979	13.602	925.115	698.531
169.994	13.722	923.994	698.127
171.008	13.632	923.515	697.323
172.023	13.703	922.549	696.831
173.037	13.793	921.998	696.731
174.052	13.752	921.168	695.874
175.067	13.751	920.586	695.367
176.081	13.721	920.071	694.790
177.096	13.670	919.179	693.840
178.110	13.647	918.113	692.878
179.125	13.776	917.190	692.661
180.140	13.894	916.391	692.490
181.154	13.646	916.313	691.334
182.169	13.760	915.291	690.977
183.183	13.802	914.747	690.680
184.198	13.806	913.726	689.866
185.213	13.895	913.336	689.876
186.227	13.896	912.656	689.309
187.242	13.931	912.539	689.304
188.256	14.018	911.715	688.980
189.271	14.077	910.726	688.418
190.286	14.053	910.111	687.791
191.300	13.884	909.398	686.495
192.315	13.880	908.475	685.717
193.329	13.907	907.779	685.242
194.344	13.889	907.396	684.823
195.359	13.799	906.763	683.911
196.373	13.858	906.338	683.772
197.388	13.912	905.992	683.676
198.402	14.002	905.534	683.639
199.417	14.040	904.850	683.217
200.432	14.189	903.984	683.114
201.446	14.187	903.782	682.892
202.461	14.185	903.223	682.404
203.475	14.277	902.648	682.285
204.490	14.324	901.833	681.802
205.504	14.226	901.322	680.955
206.519	14.239	900.720	680.493
207.534	14.159	899.757	679.375
208.548	14.236	898.779	678.891
209.563	14.120	898.507	678.152
210.577	14.262	897.480	677.896
211.592	14.269	896.914	677.437
212.607	14.221	896.694	677.015
213.621	14.274	896.231	676.822
214.636	14.358	894.932	676.121
215.650	14.345	894.395	675.604
216.665	14.333	894.096	675.270
217.680	14.403	893.483	675.031
218.694	14.417	892.996	674.659
219.709	14.458	892.540	674.421
220.723	14.500	891.589	673.814
221.738	14.543	890.811	673.338
222.753	14.466	890.159	672.475
223.767	14.360	889.739	671.673
224.782	14.530	888.973	671.719
225.796	14.417	888.335	670.724
226.811	14.488	887.686	670.457
227.826	14.549	887.022	670.142
228.840	14.702	885.953	669.889
229.855	14.526	885.660	668.904
230.869	14.606	884.717	668.453
231.884	14.447	884.322	667.460
232.899	14.462	883.741	667.022
233.913	14.401	883.108	666.241
234.928	14.475	882.045	665.675
235.942	14.467	881.606	665.251
236.957	14.457	881.043	664.730
237.972	14.648	880.068	664.697
238.986	14.608	878.967	663.644
240.001	14.582	878.871	663.411
241.015	14.525	878.107	662.548
242.030	14.676	877.514	662.644
243.045	14.672	877.010	662.186
244.059	14.718	876.647	662.035
245.074	14.675	876.022	661.336
246.088	14.626	875.038	660.340
247.103	14.831	874.415	660.622
248.117	14.915	873.803	660.433
249.132	14.704	873.819	659.552
250.147	14.848	873.235	659.623
251.161	14.999	872.357	659.498
252.176	14.934	871.864	658.810
253.190	14.944	871.012	658.148
254.205	14.934	870.422	657.606
255.220	15.061	870.532	658.126
256.234	15.142	868.976	657.212
257.249	15.022	868.611	656.406
258.263	15.037	867.905	655.874
259.278	15.205	867.510	656.176
260.293	15.009	867.203	655.117
261.307	15.172	866.393	655.087
262.322	15.138	865.808	654.452
263.336	15.308	865.130	654.544
264.351	15.314	864.490	654.027
265.366	15.153	864.093	653.040
266.380	15.233	863.432	652.795
267.395	15.171	862.372	651.695
268.409	15.162	861.842	651.203
269.424	15.203	861.155	650.782
270.439	15.195	860.788	650.417
271.453	15.167	859.580	649.341
272.468	15.097	859.141	648.679
273.482	15.232	858.732	648.836
274.497	15.242	858.006	648.269
275.512	15.237	857.258	647.626
276.526	15.185	856.937	647.126
277.541	15.257	855.920	646.580
278.555	15.479	855.124	646.774
279.570	15.414	854.806	646.228
280.585	15.409	854.532	645.942
281.599	15.417	853.707	645.294
282.614	15.482	853.141	645.059
283.628	15.524	852.041	644.333
284.643	15.470	851.655	643.776
285.657	15.459	851.215	643.343
286.672	15.454	850.808	642.959
287.687	15.408	850.790	642.714
288.701	15.256	850.380	641.765
289.716	15.468	849.344	641.736
290.730	15.603	848.426	641.501
291.745	15.629	848.064	641.270
292.760	15.605	847.353	640.585
293.774	15.565	846.992	640.102
294.789	15.638	846.342	639.833
295.803	15.551	846.146	639.295
296.818	15.641	844.923	638.658
297.833	15.583	844.654	638.178
298.847	15.616	843.786	637.592
299.862	15.690	843.113	637.305
300.876	15.765	842.346	636.953
301.891	15.637	841.797	635.996
302.906	15.730	840.981	635.676
303.920	15.834	840.504	635.652
304.935	15.826	839.840	635.065
305.949	15.770	839.355	634.431
306.964	15.907	838.605	634.322
307.979	16.063	837.832	634.270
308.993	15.836	837.570	633.161
310.008	15.897	836.629	632.621
311.022	15.967	836.295	632.576
312.037	15.899	836.104	632.121
313.052	15.866	835.404	631.411
314.066	15.817	834.990	630.862
315.081	15.928	833.980	630.455
316.095	15.881	833.991	630.233
317.110	15.768	833.104	629.085
318.125	15.950	832.675	629.384
319.139	15.874	831.995	628.532
320.154	15.960	831.864	628.697
321.168	15.927	831.386	628.158
322.183	16.003	830.495	627.712
323.197	16.108	829.922	627.615
324.212	15.921	829.463	626.515
325.227	15.983	828.922	626.284
326.241	16.156	828.611	626.636
327.256	15.986	827.980	625.471
328.270	15.982	827.561	625.083
329.285	15.950	826.999	624.488
330.300	15.923	826.469	623.929
331.314	16.008	825.856	623.727
332.329	15.980	825.015	622.934
333.343	15.936	824.789	622.546
334.358	16.118	823.833	622.442
335.373	16.156	823.066	621.947
336.387	16.182	822.810	621.793
337.402	16.223	822.412	621.587
338.416	16.152	822.063	621.008
339.431	16.262	821.302	620.783
340.446	16.231	820.746	620.195
341.460	16.460	820.018	620.430
342.475	16.411	819.502	619.805
343.489	16.380	818.961	619.225
344.504	16.359	818.561	618.793
345.519	16.554	817.761	618.847
346.533	16.485	817.459	618.310
347.548	16.396	817.087	617.649
348.562	16.458	816.567	617.429
349.577	16.342	816.446	616.857
350.592	16.248	815.643	615.853
351.606	16.369	815.184	615.896
352.621	16.290	814.733	615.212
353.635	16.502	814.195	615.524
354.650	16.452	813.979	615.124
355.665	16.497	813.420	614.810
356.679	16.490	812.785	614.249
357.694	16.564	812.314	614.108
358.708	16.620	811.254	613.457
359.723	16.517	811.174	612.969
360.738	16.465	810.567	612.268
361.752	16.460	810.242	611.947
362.767	16.628	809.670	612.069
363.781	16.687	809.426	612.046
364.796	16.754	809.251	612.102
365.810	16.620	808.675	611.128
366.825	16.558	808.588	610.782
367.840	16.785	807.901	611.028
368.854	16.744	807.393	610.442
369.869	16.809	806.626	610.043
370.883	16.668	806.372	609.290
371.898	16.847	805.790	609.440
372.913	16.764	805.272	608.697
373.927	16.876	804.566	608.511
374.942	16.833	803.663	607.619
375.956	16.873	803.399	607.509
376.971	16.966	803.178	607.622
377.986	16.953	802.381	606.920
379.000	17.042	801.871	606.797
380.015	17.055	801.395	606.431
381.029	17.110	801.027	606.296
382.044	17.009	800.167	605.229
383.059	16.968	799.854	604.792
384.073	17.018	799.502	604.651
385.088	17.042	798.634	604.027
386.102	17.042	798.366	603.770
387.117	16.892	797.538	602.559
388.132	16.930	797.242	602.415
389.146	16.999	796.775	602.255
390.161	17.083	796.356	602.183
391.175	17.068	796.338	602.064
392.190	17.077	795.753	601.598
393.205	17.139	795.449	601.534
394.219	17.087	794.393	600.501
395.234	17.231	793.854	600.548
396.248	17.120	793.918	600.152
397.263	17.102	793.270	599.544
398.278	17.096	792.883	599.178
399.292	17.023	792.328	598.449
400.307	17.113	791.893	598.385
401.321	17.139	791.352	598.013
402.336	17.186	791.206	598.015
403.350	17.314	790.469	597.856
404.365	17.254	790.533	597.640
405.380	17.306	789.740	597.170
406.394	17.296	789.914	597.215
407.409	17.304	789.143	596.605
408.423	17.320	788.523	596.142
409.438	17.368	788.051	595.899
410.453	17.351	787.541	595.402
411.467	17.352	787.291	595.162
412.482	17.498	786.904	595.328
413.496	17.453	786.494	594.808
414.511	17.487	786.023	594.520
415.526	17.474	785.543	594.057
416.540	17.506	785.506	594.089
417.555	17.544	784.905	593.714
418.569	17.615	784.111	593.309
419.584	17.589	783.898	593.004
420.599	17.660	783.070	592.572
421.613	108.815	1287.300	1463.633
422.628	93.206	1360.776	1463.731
