DTS Sentinel unit serial number:	SN413079Multiplexer serial number:	ORYXHardware model number:	OX4-SRSoftware version number:	ORYX F/W v4.00 Oryx Data Collector v3.7.2.0data status	okinstallation	princeton_trtdifferential loss correction	single-endedforward channel	channel 3reverse channel	N/Adate	2019/09/17time	13:28:34forward acquisition time	60.00reverse acquisition time	0.00gamma	496.2192k internal	0.2307k external	0.2307temperature offset calibration	0.9958default loss term (dB/km)	0.3790temperature slope calibration	1.0000multiplexer offset coefficient	1.0000multiplexer slope coefficient	1.0000fibre end	0.00T internal ref (°C)	34.50T ext. ref 1 (°C)	0.42T ext. ref 2 (°C)	31.41length (m)	temperature (°C)	Stokes	anti-Stokes-747.200	-154.781	-0.008	-0.001
-746.185	-20.506	0.419	0.262
-745.171	-200.000	-0.001	0.305
-744.156	-200.000	0.019	0.174
-743.142	17.158	-0.124	-0.100
-742.127	303.503	0.323	0.609
-741.112	69.001	-0.144	-0.151
-740.098	707.461	-0.082	0.220
-739.083	287.089	-0.171	0.315
-738.069	469.336	-0.130	0.297
-737.054	71.574	0.336	-0.355
-736.039	-4.974	-0.204	-0.143
-735.025	-25.973	0.328	0.196
-734.010	90.410	-0.083	0.095
-732.996	-74.632	-0.287	0.105
-731.981	-35.501	0.322	0.178
-730.966	800.000	-0.069	-0.270
-729.952	-200.000	0.006	-0.126
-728.937	-8.629	-0.168	0.114
-727.923	-14.458	0.204	-0.134
-726.908	-177.275	-0.234	-0.006
-725.894	126.767	-0.124	-0.159
-724.879	122.664	-0.218	0.276
-723.864	800.000	-0.066	0.201
-722.850	-200.000	-0.028	0.159
-721.835	-10.275	-0.218	-0.147
-720.821	400.391	0.026	0.054
-719.806	156.016	0.259	-0.363
-718.791	-200.000	-0.010	-0.126
-717.777	-63.616	0.285	0.119
-716.762	-78.256	0.293	0.102
-715.748	800.000	-0.029	-0.108
-714.733	190.756	-0.159	-0.242
-713.718	0.235	0.018	0.013
-712.704	-11.561	-0.087	-0.058
-711.689	-200.000	0.058	-0.309
-710.675	-200.000	-0.034	-0.434
-709.660	-68.055	-0.440	-0.174
-708.645	800.000	0.044	0.139
-707.631	35.135	-0.258	-0.229
-706.616	233.765	0.063	0.106
-705.602	-152.147	0.199	0.015
-704.587	-35.101	0.273	0.151
-703.572	-108.667	0.102	-0.022
-702.558	306.330	0.003	-0.006
-701.543	-47.310	0.039	-0.019
-700.529	-100.901	-0.621	-0.155
-699.514	-3.483	-0.044	0.031
-698.499	254.514	-0.065	0.112
-697.485	5.722	0.407	-0.306
-696.470	-104.028	0.166	-0.039
-695.456	-31.841	-0.285	-0.162
-694.441	-160.094	-0.334	0.018
-693.426	-200.000	0.034	-0.393
-692.412	-200.000	0.019	-0.117
-691.397	800.000	0.100	-0.296
-690.383	-64.703	0.228	0.094
-689.368	-15.264	-0.135	0.088
-688.354	-99.488	-0.115	0.029
-687.339	-200.000	0.003	-0.173
-686.324	800.000	-0.074	-0.304
-685.310	109.990	0.402	0.490
-684.295	61.557	-0.068	0.068
-683.281	-16.638	0.137	-0.088
-682.266	112.828	-0.120	-0.147
-681.251	-85.611	-0.196	-0.062
-680.237	10.290	0.292	0.225
-679.222	-118.191	-0.307	-0.056
-678.208	-69.834	-0.304	-0.118
-677.193	4.331	-0.180	0.134
-676.178	243.804	-0.138	0.234
-675.164	-158.652	0.346	-0.020
-674.149	59.697	0.168	-0.168
-673.135	669.845	-0.046	0.120
-672.120	-89.370	0.225	-0.067
-671.105	800.000	0.108	-0.338
-670.091	74.273	-0.067	0.071
-669.076	-200.000	-0.004	0.292
-668.062	-200.000	-0.028	-0.149
-667.047	800.000	0.047	-0.162
-666.032	-147.046	0.304	-0.026
-665.018	461.266	-0.211	0.477
-664.003	-200.000	0.011	0.347
-662.989	-130.357	0.398	-0.055
-661.974	46.730	-0.044	-0.042
-660.959	-32.277	0.223	0.126
-659.945	-51.722	-0.302	-0.143
-658.930	-200.000	-0.021	-0.252
-657.916	144.895	0.073	-0.100
-656.901	-7.770	-0.164	0.112
-655.886	-53.241	-0.178	-0.083
-654.872	96.981	0.050	0.058
-653.857	770.313	0.035	0.098
-652.843	-33.171	0.212	-0.119
-651.828	-200.000	-0.005	-0.174
-650.814	74.208	-0.168	-0.179
-649.799	-107.397	-0.264	0.059
-648.784	-115.312	-0.294	0.056
-647.770	-91.978	-0.180	0.052
-646.755	-2.230	-0.306	-0.218
-645.741	-152.962	0.217	-0.016
-644.726	-162.736	0.219	-0.011
-643.711	-200.000	-0.024	0.182
-642.697	-23.767	0.147	-0.089
-641.682	-64.919	-0.256	-0.105
-640.668	-200.000	0.514	-0.001
-639.653	335.339	0.138	-0.271
-638.638	-147.477	-0.215	0.018
-637.624	-200.000	-0.009	0.068
-636.609	-80.109	-0.184	-0.062
-635.595	12.028	-0.182	0.142
-634.580	-17.535	-0.042	-0.026
-633.565	800.000	-0.109	-0.396
-632.551	330.541	0.165	-0.321
-631.536	-31.434	-0.158	0.090
-630.522	181.087	-0.177	-0.263
-629.507	800.000	0.073	-0.207
-628.492	55.113	-0.298	-0.291
-627.478	307.194	0.081	-0.153
-626.463	320.466	-0.037	-0.071
-625.449	-9.734	-0.144	0.097
-624.434	-24.113	-0.381	0.230
-623.419	-37.913	0.094	-0.051
-622.405	213.049	0.108	0.173
-621.390	-22.992	0.145	0.088
-620.376	-9.678	0.394	0.266
-619.361	-47.455	-0.059	0.029
-618.346	800.000	-0.044	-0.167
-617.332	800.000	0.047	0.169
-616.317	541.128	-0.116	-0.280
-615.303	800.000	-0.047	-0.202
-614.288	170.216	0.116	0.168
-613.273	155.556	-0.338	-0.470
-612.259	92.925	-0.297	-0.340
-611.244	-181.597	0.237	0.005
-610.230	-63.092	-0.221	0.092
-609.215	-139.869	-0.188	0.020
-608.201	-146.705	0.121	-0.011
-607.186	-123.758	-0.056	-0.009
-606.171	-129.079	0.366	-0.052
-605.157	-46.075	-0.257	-0.128
-604.142	21.956	-0.327	0.269
-603.128	-42.842	-0.044	-0.023
-602.113	-200.000	-0.013	-0.110
-601.098	-24.710	-0.154	0.093
-600.084	-200.000	-0.002	-0.158
-599.069	-62.913	0.248	-0.104
-598.055	-89.572	0.200	-0.060
-597.040	800.000	0.074	-0.255
-596.025	-200.000	0.002	0.228
-595.011	-90.920	-0.310	0.090
-593.996	-69.951	0.117	-0.045
-592.982	76.216	-0.324	-0.347
-591.967	157.470	-0.101	0.142
-590.952	-109.894	-0.280	-0.059
-589.938	271.631	-0.044	0.079
-588.923	-119.495	-0.128	-0.022
-587.909	-200.000	0.026	0.154
-586.894	-138.683	0.303	-0.033
-585.879	714.418	-0.037	-0.100
-584.865	800.000	-0.078	0.264
-583.850	-99.942	0.099	0.025
-582.836	-200.000	0.011	0.085
-581.821	-32.841	-0.268	-0.151
-580.806	-134.749	-0.217	0.027
-579.792	24.262	0.078	-0.065
-578.777	15.741	-0.019	0.015
-577.763	-46.860	0.230	0.114
-576.748	-73.331	0.177	-0.065
-575.733	460.401	-0.147	0.331
-574.719	113.840	-0.215	0.264
-573.704	49.550	0.161	-0.153
-572.690	-200.000	0.032	0.439
-571.675	800.000	-0.042	0.159
-570.661	-85.890	0.117	-0.037
-569.646	800.000	-0.063	-0.274
-568.631	-200.000	-0.240	0.001
-567.617	-62.547	-0.161	-0.067
-566.602	800.000	-0.081	0.302
-565.588	-57.601	0.095	0.042
-564.573	800.000	-0.062	-0.208
-563.558	-18.470	0.212	0.134
-562.544	-200.000	0.029	0.338
-561.529	-200.000	0.012	0.220
-560.515	-104.353	0.146	-0.034
-559.500	-16.700	0.118	-0.075
-558.485	-93.802	0.301	-0.084
-557.471	244.632	0.023	-0.039
-556.456	199.610	-0.135	-0.209
-555.442	-200.000	-0.007	-0.089
-554.427	-17.116	-0.265	0.169
-553.412	-139.986	0.223	0.024
-552.398	149.979	-0.199	0.272
-551.383	-184.055	0.034	0.001
-550.369	-200.000	-0.002	-0.132
-549.354	-35.764	-0.129	0.070
-548.339	-200.000	-0.018	-0.228
-547.325	-26.594	-0.247	0.146
-546.310	-107.056	-0.151	0.034
-545.296	17.986	-0.061	0.049
-544.281	-191.461	0.141	-0.001
-543.266	-61.442	0.121	-0.052
-542.252	137.475	-0.168	-0.222
-541.237	-200.000	-0.042	-0.270
-540.223	259.850	-0.068	0.119
-539.208	-107.590	0.253	0.056
-538.193	470.091	0.050	-0.114
-537.179	443.523	-0.137	-0.303
-536.164	-200.000	-0.037	-0.390
-535.150	-200.000	-0.022	0.132
-534.135	-200.000	0.012	-0.338
-533.121	29.439	-0.371	0.318
-532.106	800.000	0.045	-0.181
-531.091	138.402	0.093	-0.123
-530.077	-35.448	0.143	-0.078
-529.062	-174.162	0.434	0.013
-528.048	414.151	0.053	-0.113
-527.033	-45.324	0.275	0.138
-526.018	-170.605	0.389	-0.014
-525.004	82.219	-0.226	-0.247
-523.989	-53.204	0.310	-0.144
-522.975	800.000	0.044	0.136
-521.960	70.340	-0.193	0.201
-520.945	281.299	-0.158	-0.286
-519.931	159.350	0.113	-0.159
-518.916	89.544	-0.202	-0.227
-517.902	7.372	0.141	-0.106
-516.887	54.632	-0.056	-0.054
-515.872	-144.661	-0.242	-0.022
-514.858	346.022	-0.196	0.389
-513.843	142.903	0.178	-0.239
-512.829	14.980	0.364	0.288
-511.814	-200.000	0.033	-0.159
-510.799	71.919	0.070	0.073
-509.785	800.000	0.015	0.049
-508.770	-33.256	0.184	-0.103
-507.756	-38.025	0.103	-0.055
-506.741	87.688	-0.297	0.331
-505.726	491.583	0.046	-0.107
-504.712	-200.000	0.023	0.216
-503.697	140.919	-0.185	-0.246
-502.683	117.004	0.218	0.270
-501.668	-165.893	0.351	0.015
-500.653	-106.546	-0.332	0.075
-499.639	8.896	0.124	-0.094
-498.624	800.000	0.037	0.142
-497.610	-64.090	-0.293	-0.120
-496.595	800.000	-0.066	0.212
-495.581	36.025	0.254	0.225
-494.566	-12.110	-0.317	0.209
-493.551	-72.237	-0.303	-0.113
-492.537	-74.432	0.371	0.135
-491.522	-9.524	-0.027	-0.018
-490.508	69.824	0.170	-0.177
-489.493	441.908	-0.044	0.096
-488.478	-158.780	-0.167	0.010
-487.464	473.840	0.048	-0.109
-486.449	383.112	0.112	-0.232
-485.435	110.390	0.280	-0.339
-484.420	-133.743	0.141	0.018
-483.405	121.145	-0.264	0.331
-482.391	-200.000	-0.013	0.226
-481.376	-69.217	-0.210	-0.081
-480.362	-200.000	-0.001	0.061
-479.347	-1.779	-0.234	0.166
-478.332	-200.000	-0.035	-0.250
-477.318	-15.904	-0.229	0.146
-476.303	79.673	-0.283	-0.306
-475.289	211.766	0.173	0.275
-474.274	108.569	0.104	0.125
-473.259	16.855	-0.151	0.120
-472.245	21.716	-0.170	0.139
-471.230	-1.144	-0.227	0.162
-470.216	-117.767	0.265	0.048
-469.201	-87.236	0.077	-0.023
-468.186	321.435	0.003	0.005
-467.172	800.000	-0.041	-0.129
-466.157	13.077	-0.150	-0.117
-465.143	77.001	-0.094	0.100
-464.128	722.658	0.110	0.294
-463.113	-95.386	0.304	0.082
-462.099	29.689	-0.083	0.071
-461.084	-81.761	0.204	-0.067
-460.070	-80.483	-0.238	0.080
-459.055	37.358	-0.156	-0.139
-458.040	52.485	-0.122	0.117
-457.026	-187.588	-0.174	-0.002
-456.011	-27.901	0.172	0.100
-454.997	29.969	0.245	0.210
-453.982	-200.000	0.003	0.037
-452.968	-119.620	0.526	-0.091
-451.953	-105.880	0.175	0.040
-450.938	249.143	0.261	-0.445
-449.924	467.007	0.061	-0.138
-448.909	0.772	-0.098	0.070
-447.895	-140.654	0.214	-0.022
-446.880	800.000	0.071	0.265
-445.865	-15.544	-0.114	0.073
-444.851	800.000	0.016	-0.069
-443.836	53.422	0.127	-0.123
-442.822	-71.159	0.144	-0.055
-441.807	-200.000	0.091	0.775
-440.792	-30.712	-0.260	0.148
-439.778	6.911	-0.365	0.273
-438.763	-143.620	0.209	0.020
-437.749	101.270	-0.013	-0.015
-436.734	-116.180	-0.424	0.079
-435.719	800.000	0.030	-0.094
-434.705	-200.000	0.025	0.261
-433.690	-200.000	0.012	-0.226
-432.676	-200.000	-0.026	0.118
-431.661	349.323	-0.041	0.081
-430.646	-119.239	0.256	-0.045
-429.632	25.580	0.084	0.071
-428.617	-33.434	0.107	0.059
-427.603	800.000	0.034	-0.127
-426.588	800.000	0.137	-0.543
-425.573	-200.000	-0.029	0.214
-424.559	57.361	-0.224	-0.220
-423.544	-173.466	0.353	-0.011
-422.530	468.686	0.021	-0.047
-421.515	-11.783	-0.206	0.136
-420.500	-81.628	-0.321	-0.106
-419.486	118.625	-0.033	0.041
-418.471	-200.000	-0.010	-0.055
-417.457	31.943	0.144	0.125
-416.442	800.000	0.050	0.147
-415.428	-104.631	0.426	-0.099
-414.413	25.246	-0.122	0.102
-413.398	715.000	0.063	-0.167
-412.384	13.885	-0.150	0.117
-411.369	-101.707	0.256	-0.062
-410.355	-200.000	-0.046	-0.208
-409.340	141.235	-0.167	0.222
-408.325	-200.000	0.055	0.242
-407.311	-152.144	-0.332	0.024
-406.296	244.863	0.220	-0.371
-405.282	223.114	0.119	0.193
-404.267	193.616	-0.078	0.118
-403.252	60.858	-0.057	0.057
-402.238	180.725	-0.181	-0.266
-401.223	57.173	0.129	0.126
-400.209	-200.000	-0.001	-0.044
-399.194	-133.898	-0.305	-0.038
-398.179	-7.552	-0.350	-0.237
-397.165	179.563	-0.157	-0.231
-396.150	189.867	-0.036	0.054
-395.136	-187.559	-0.035	-0.000
-394.121	800.000	0.048	0.210
-393.106	-120.714	-0.156	-0.026
-392.092	293.784	0.028	0.051
-391.077	800.000	-0.018	0.061
-390.063	-93.333	0.205	0.057
-389.048	-200.000	-0.067	-0.345
-388.033	-5.447	-0.179	0.123
-387.019	276.897	0.107	-0.192
-386.004	0.181	-0.395	-0.282
-384.990	-154.895	0.308	-0.020
-383.975	-200.000	-0.040	0.200
-382.960	-78.786	0.036	0.012
-381.946	168.147	0.091	-0.130
-380.931	-200.000	0.058	0.273
-379.917	-200.000	0.002	0.113
-378.902	-146.160	0.509	0.045
-377.888	-200.000	-0.088	0.412
-376.873	28.488	0.145	-0.123
-375.858	253.617	0.210	0.360
-374.844	128.050	-0.116	-0.147
-373.829	95.517	-0.080	-0.092
-372.815	8.779	0.201	-0.152
-371.800	-129.611	0.174	-0.024
-370.785	70.655	-0.149	0.155
-369.771	-121.935	0.307	-0.051
-368.756	800.000	0.029	0.116
-367.742	699.819	0.022	-0.058
-366.727	54.255	-0.165	-0.160
-365.712	46.485	-0.218	-0.202
-364.698	-37.906	0.197	0.105
-363.683	71.335	-0.357	0.371
-362.669	278.550	0.191	-0.342
-361.654	-110.787	0.224	0.046
-360.639	-146.191	0.473	0.042
-359.625	1.519	0.229	0.165
-358.610	-117.791	-0.111	-0.020
-357.596	-107.835	0.138	-0.030
-356.581	128.272	-0.105	-0.134
-355.566	800.000	-0.062	0.223
-354.552	800.000	0.049	-0.157
-353.537	-8.346	-0.084	0.057
-352.523	59.226	0.161	-0.159
-351.508	-81.860	0.198	-0.065
-350.493	-156.326	0.227	0.014
-349.479	-16.423	-0.136	0.086
-348.464	74.443	-0.080	0.084
-347.450	-91.957	0.356	0.101
-346.435	-6.112	-0.240	-0.164
-345.420	-43.027	-0.321	0.163
-344.406	361.978	-0.156	-0.312
-343.391	-25.307	-0.235	0.139
-342.377	202.589	-0.151	-0.234
-341.362	-200.000	0.011	-0.100
-340.348	51.418	0.178	-0.170
-339.333	-200.000	-0.012	0.205
-338.318	-76.677	0.113	-0.040
-337.304	231.127	0.191	-0.313
-336.289	800.000	0.030	0.106
-335.275	507.337	-0.038	-0.087
-334.260	169.265	-0.126	0.180
-333.245	134.721	-0.210	-0.273
-332.231	-163.718	0.072	0.003
-331.216	-99.553	-0.038	-0.009
-330.202	174.686	0.235	0.341
-329.187	40.472	-0.281	0.253
-328.172	-17.947	0.080	-0.050
-327.158	56.519	0.152	0.148
-326.143	-4.474	-0.186	-0.129
-325.129	-59.505	0.374	-0.161
-324.114	83.444	0.125	-0.136
-323.099	261.346	-0.043	-0.075
-322.085	16.385	0.222	-0.176
-321.070	8.134	0.400	-0.300
-320.056	65.020	-0.305	0.308
-319.041	-200.000	-0.006	0.111
-318.026	-200.000	-0.070	0.343
-317.012	115.181	0.133	0.163
-315.997	388.957	-0.091	-0.189
-314.983	220.960	0.200	-0.320
-313.968	800.000	0.061	0.257
-312.953	-51.876	-0.242	0.113
-311.939	330.643	-0.091	-0.175
-310.924	-200.000	-0.014	-0.110
-309.910	14.524	-0.271	-0.211
-308.895	201.040	0.311	0.479
-307.880	-116.778	0.157	0.029
-306.866	-67.788	-0.181	0.071
-305.851	800.000	0.117	0.373
-304.837	-137.833	0.130	0.015
-303.822	257.076	-0.114	0.196
-302.807	89.230	0.152	0.169
-301.793	22.020	0.166	0.135
-300.778	-200.000	0.011	-0.185
-299.764	-200.000	0.030	-0.135
-298.749	-34.009	0.080	-0.044
-297.735	646.538	0.044	0.113
-296.720	-114.748	-0.117	-0.022
-295.705	124.359	0.080	-0.101
-294.691	-187.777	0.211	-0.003
-293.676	56.222	-0.100	0.097
-292.662	-200.000	-0.022	-0.103
-291.647	25.808	-0.174	-0.145
-290.632	-200.000	0.026	0.156
-289.618	-200.000	-0.016	0.085
-288.603	800.000	0.090	-0.356
-287.589	587.295	0.155	-0.381
-286.574	-143.904	0.105	0.010
-285.559	-200.000	-0.014	-0.233
-284.545	57.791	-0.205	0.200
-283.530	-200.000	-0.022	0.404
-282.516	-29.792	-0.032	0.018
-281.501	151.513	0.251	-0.342
-280.486	-64.067	0.146	0.060
-279.472	-65.775	-0.409	0.163
-278.457	800.000	0.052	-0.209
-277.443	709.373	-0.042	-0.111
-276.428	-50.372	0.186	0.088
-275.413	-132.716	-0.318	0.041
-274.399	-159.669	-0.262	-0.014
-273.384	-115.577	-0.135	-0.025
-272.370	800.000	0.039	0.136
-271.355	-200.000	-0.004	-0.213
-270.340	-178.254	0.217	0.005
-269.326	-12.014	-0.117	0.076
-268.311	-189.707	0.134	0.002
-267.297	237.138	0.054	-0.090
-266.282	-96.015	0.173	-0.046
-265.267	-200.000	-0.026	-0.162
-264.253	-162.831	-0.264	-0.013
-263.238	800.000	-0.034	0.111
-262.224	149.160	-0.122	0.164
-261.209	20.243	-0.242	-0.195
-260.195	800.000	-0.058	0.233
-259.180	-99.344	0.165	0.042
-258.165	-143.440	-0.259	-0.025
-257.151	-200.000	0.015	-0.125
-256.136	82.363	-0.011	0.012
-255.122	-188.302	0.140	0.002
-254.107	-55.256	0.202	-0.090
-253.092	351.497	0.040	0.078
-252.078	637.870	0.104	0.263
-251.063	800.000	-0.041	0.163
-250.049	-200.000	-0.046	-0.226
-249.034	140.814	0.147	0.193
-248.019	75.301	-0.255	0.268
-247.005	-163.006	0.295	-0.014
-245.990	-110.304	0.482	-0.100
-244.976	434.731	0.096	-0.208
-243.961	34.381	0.163	-0.142
-242.946	-31.000	0.212	-0.119
-241.932	-2.192	-0.366	-0.256
-240.917	-35.062	-0.210	-0.114
-239.903	-37.145	0.341	-0.182
-238.888	-96.095	-0.220	-0.058
-237.873	800.000	0.039	0.140
-236.859	-200.000	0.054	0.351
-235.844	206.702	0.200	0.311
-234.830	-200.000	0.019	-0.156
-233.815	603.416	-0.057	0.142
-232.800	-50.602	0.108	-0.051
-231.786	89.188	0.137	-0.152
-230.771	-101.043	-0.093	0.023
-229.757	86.478	0.149	0.164
-228.742	185.306	-0.115	-0.170
-227.727	800.000	0.077	0.221
-226.713	267.859	-0.086	-0.150
-225.698	-171.767	0.387	0.013
-224.684	-132.503	-0.234	-0.030
-223.669	-108.049	-0.303	-0.066
-222.655	800.000	-0.012	-0.049
-221.640	-200.000	-0.014	0.078
-220.625	9.724	-0.221	-0.167
-219.611	192.172	-0.068	0.102
-218.596	800.000	0.047	-0.163
-217.582	226.610	0.223	-0.360
-216.567	56.831	0.110	-0.107
-215.552	82.933	0.046	-0.050
-214.538	-100.850	0.043	-0.011
-213.523	751.530	-0.021	0.056
-212.509	-108.026	-0.031	-0.007
-211.494	800.000	0.127	0.405
-210.479	176.625	0.261	-0.378
-209.465	-71.912	0.088	-0.032
-208.450	241.382	-0.119	0.198
-207.436	-86.532	-0.411	-0.125
-206.421	-200.000	-0.009	-0.165
-205.406	-25.995	0.218	-0.128
-204.392	57.705	0.115	0.112
-203.377	800.000	0.054	0.219
-202.363	-178.984	0.198	0.004
-201.348	10.650	0.185	0.140
-200.333	-44.532	-0.233	0.116
-199.319	-81.345	-0.279	-0.092
-198.304	-111.271	0.088	0.018
-197.290	-3.994	-0.332	0.229
-196.275	800.000	-0.009	0.032
-195.260	338.849	0.128	-0.249
-194.246	11.413	0.191	-0.146
-193.231	-53.352	0.131	-0.060
-192.217	-200.000	-0.017	0.092
-191.202	-133.968	-0.214	-0.026
-190.187	-3.161	0.248	-0.172
-189.173	95.128	0.141	0.160
-188.158	-112.778	-0.210	0.042
-187.144	-157.718	0.087	-0.005
-186.129	-196.151	-0.688	-0.005
-185.114	41.929	0.185	0.167
-184.100	-69.835	-0.251	-0.095
-183.085	-200.000	-0.014	0.085
-182.071	-27.002	-0.195	0.113
-181.056	106.446	-0.102	-0.121
-180.042	-200.000	0.014	-0.130
-179.027	-67.643	-0.402	0.157
-178.012	-32.423	-0.189	-0.105
-176.998	108.934	-0.064	-0.076
-175.983	-71.682	0.097	-0.036
-174.969	-185.384	-0.431	0.007
-173.954	800.000	-0.184	0.562
-172.939	-200.000	-0.029	0.336
-171.925	195.617	-0.076	-0.115
-170.910	649.909	-0.099	0.252
-169.896	-200.000	-0.010	-0.122
-168.881	32.398	0.149	-0.128
-167.866	-200.000	0.063	0.279
-166.852	283.222	-0.063	-0.112
-165.837	-200.000	0.058	-0.349
-164.823	254.925	0.084	0.144
-163.808	-200.000	0.008	-0.052
-162.793	-51.570	-0.167	0.078
-161.779	-187.899	0.197	-0.003
-160.764	350.415	-0.033	0.065
-159.750	9.568	-0.107	0.081
-158.735	6.190	-0.065	0.048
-157.720	-127.465	-0.113	0.016
-156.706	-96.850	0.398	-0.104
-155.691	-107.362	0.346	-0.076
-154.677	-80.932	0.228	-0.075
-153.662	-200.000	0.073	0.449
-152.647	-48.408	0.394	-0.189
-151.633	99.197	-0.086	0.099
-150.618	-89.801	0.483	-0.140
-149.604	71.943	-0.289	-0.299
-148.589	162.516	-0.124	0.173
-147.574	-95.411	0.317	-0.085
-146.560	-110.173	0.243	-0.050
-145.545	-200.000	0.046	0.279
-144.531	61.375	0.240	-0.237
-143.516	800.000	0.048	-0.157
-142.502	-79.405	-0.034	-0.011
-141.487	-110.200	0.264	0.055
-140.472	-200.000	-0.042	0.216
-139.458	-170.466	0.119	0.004
-138.443	-200.000	0.004	-0.119
-137.429	-161.864	-0.136	-0.007
-136.414	-200.000	-0.022	-0.095
-135.399	-198.277	-0.280	0.002
-134.385	621.910	-0.057	0.144
-133.370	800.000	0.030	-0.083
-132.356	178.311	-0.024	0.035
-131.341	355.547	-0.094	-0.185
-130.326	149.377	0.276	0.371
-129.312	352.885	0.151	0.298
-128.297	-200.000	-0.003	0.123
-127.283	-200.000	-0.005	-0.035
-126.268	-138.414	-0.295	0.032
-125.253	457.313	-0.180	0.397
-124.239	-200.000	-0.006	0.215
-123.224	14.862	0.236	-0.184
-122.210	2.487	-0.171	-0.123
-121.195	800.000	-0.025	0.069
-120.180	321.962	0.146	0.276
-119.166	-200.000	-0.025	0.330
-118.151	800.000	0.058	0.251
-117.137	800.000	0.044	-0.127
-116.122	739.940	-0.068	-0.181
-115.107	457.814	-0.026	0.058
-114.093	34.898	-0.161	0.140
-113.078	-72.514	0.336	0.123
-112.064	-101.276	0.084	0.020
-111.049	-42.283	0.206	0.105
-110.034	236.480	-0.103	0.170
-109.020	3.821	0.277	0.201
-108.005	82.816	0.146	-0.157
-106.991	-14.370	-0.214	0.137
-105.976	179.034	0.133	0.193
-104.962	370.849	0.209	-0.420
-103.947	-200.000	0.013	0.088
-102.932	338.573	-0.044	-0.084
-101.918	-124.605	-0.041	-0.006
-100.903	67.022	-0.189	0.190
-99.889	-200.000	0.018	-0.136
-98.874	318.893	0.148	0.278
-97.859	-59.336	0.414	0.176
-96.845	-118.823	0.283	-0.049
-95.830	1.762	-0.213	0.152
-94.816	-151.411	0.071	-0.005
-93.801	30.215	0.223	0.189
-92.786	8.372	-0.164	0.122
-91.772	800.000	-0.045	0.192
-90.757	89.880	-0.186	-0.206
-89.743	-161.231	-0.180	-0.009
-88.728	-31.405	-0.268	0.149
-87.713	284.116	-0.091	-0.162
-86.699	-72.039	-0.182	0.067
-85.684	121.386	0.123	-0.151
-84.670	125.896	-0.168	-0.210
-83.655	-106.476	0.088	0.019
-82.640	800.000	0.014	-0.062
-81.626	-88.530	-0.358	0.106
-80.611	137.411	0.072	-0.093
-79.597	552.621	0.063	0.149
-78.582	-171.969	-0.143	-0.005
-77.567	-200.000	0.044	0.321
-76.553	59.725	-0.163	-0.160
-75.538	-81.634	-0.481	0.156
-74.524	-200.000	-0.011	-0.059
-73.509	800.000	-0.135	-0.395
-72.494	800.000	-0.057	0.200
-71.480	-33.702	0.390	0.213
-70.465	-168.911	-0.139	0.005
-69.451	-15.005	0.220	0.140
-68.436	-59.741	0.088	-0.037
-67.422	-200.000	0.019	-0.277
-66.407	394.589	0.027	-0.056
-65.392	20.043	0.033	-0.026
-64.378	-159.341	0.235	0.013
-63.363	-145.386	-0.180	0.016
-62.349	429.504	0.108	0.230
-61.334	-29.274	-1.050	-0.595
-60.319	130.779	0.367	0.466
-59.305	800.000	-0.333	-1.129
-58.290	800.000	0.325	0.918
-57.276	800.000	0.501	1.686
-56.261	-200.000	94.808	548.946
-55.246	519.909	1398.880	3245.318
-54.232	148.013	2614.365	3490.387
-53.217	110.629	2234.677	2659.878
-52.203	44.717	1763.068	1604.946
-51.188	37.482	1571.547	1379.467
-50.173	35.150	1543.638	1338.638
-49.159	52.132	1592.701	1502.205
-48.144	54.986	1611.862	1540.516
-47.130	37.965	1567.562	1379.163
-46.115	34.688	1552.219	1342.620
-45.100	34.605	1549.020	1339.218
-44.086	34.474	1547.419	1336.858
-43.071	34.572	1545.134	1335.518
-42.057	34.452	1543.530	1333.242
-41.042	34.432	1542.153	1331.861
-40.027	34.598	1540.498	1331.534
-39.013	34.448	1539.331	1329.426
-37.998	34.524	1537.762	1328.548
-36.984	34.548	1536.617	1327.674
-35.969	34.516	1535.641	1326.556
-34.954	34.423	1534.558	1324.921
-33.940	34.452	1532.506	1323.301
-32.925	34.477	1531.326	1322.401
-31.911	34.461	1529.754	1320.879
-30.896	34.579	1528.427	1320.500
-29.881	34.600	1526.597	1319.012
-28.867	34.652	1525.142	1318.061
-27.852	34.516	1523.974	1316.063
-26.838	34.587	1522.475	1315.205
-25.823	34.591	1520.965	1313.871
-24.809	34.617	1519.105	1312.391
-23.794	34.595	1517.869	1311.126
-22.779	34.503	1516.910	1309.613
-21.765	34.514	1515.993	1308.841
-20.750	34.558	1514.349	1307.676
-19.736	34.596	1513.192	1306.879
-18.721	34.517	1512.344	1305.557
-17.706	34.487	1511.599	1304.659
-16.692	34.488	1510.036	1303.263
-15.677	34.411	1509.489	1302.216
-14.663	34.383	1508.667	1301.260
-13.648	34.466	1507.318	1300.616
-12.633	34.429	1506.468	1299.577
-11.619	34.567	1504.981	1299.179
-10.604	34.498	1503.876	1297.709
-9.590	34.464	1503.725	1297.290
-8.575	34.479	1502.525	1296.310
-7.560	34.476	1502.215	1295.967
-6.546	34.457	1501.189	1294.905
-5.531	34.368	1500.457	1293.617
-4.517	34.480	1498.527	1292.656
-3.502	34.463	1497.904	1291.958
-2.487	34.357	1497.407	1290.757
-1.473	34.403	1496.064	1289.858
-0.458	34.485	1494.270	1288.817
0.556	33.223	1485.537	1280.026
1.571	30.793	1459.234	1241.076
2.586	27.297	1395.807	1164.690
3.600	25.168	1309.652	1079.898
4.615	23.369	1262.368	1030.365
5.629	20.034	1204.255	964.315
6.644	10.210	1113.778	840.959
7.659	1.983	1068.908	765.837
8.673	0.722	1062.548	754.921
9.688	0.372	1059.876	751.210
10.702	0.300	1058.408	749.746
11.717	0.287	1056.701	748.407
12.731	3.205	1060.050	765.234
13.746	12.480	1072.964	820.991
14.761	18.373	1080.099	855.912
15.775	17.941	1077.847	851.894
16.790	16.766	1075.353	843.997
17.804	15.740	1073.251	837.172
18.819	14.799	1071.500	831.053
19.834	14.367	1070.215	827.835
20.848	14.107	1068.766	825.352
21.863	13.765	1068.039	823.020
22.877	13.515	1067.151	821.025
23.892	13.202	1066.686	819.040
24.907	13.305	1065.470	818.546
25.921	13.250	1065.159	817.962
26.936	13.164	1064.538	816.989
27.950	13.372	1063.624	817.241
28.965	13.334	1063.097	816.577
29.980	13.290	1061.866	815.344
30.994	13.330	1061.160	814.926
32.009	13.516	1059.974	814.861
33.023	13.551	1059.367	814.490
34.038	13.471	1058.446	813.316
35.053	13.543	1057.083	812.552
36.067	13.465	1056.615	811.735
37.082	13.375	1055.873	810.654
38.096	13.466	1054.967	810.333
39.111	13.530	1054.249	810.022
40.126	13.538	1053.195	809.183
41.140	13.507	1052.095	808.114
42.155	13.284	1051.538	806.528
43.169	13.220	1050.598	805.421
44.184	13.305	1049.072	804.595
45.199	13.220	1048.264	803.490
46.213	13.230	1047.760	803.079
47.228	13.316	1046.360	802.356
48.242	13.272	1045.266	801.231
49.257	13.457	1044.440	801.423
50.271	13.298	1044.006	800.247
51.286	13.401	1042.476	799.504
52.301	13.394	1041.903	798.958
53.315	13.358	1041.033	798.050
54.330	13.486	1040.343	798.064
55.344	13.346	1039.386	796.586
56.359	13.323	1038.566	795.779
57.374	13.371	1037.701	795.272
58.388	13.290	1036.826	794.143
59.403	13.330	1035.614	793.340
60.417	13.229	1035.062	792.360
61.432	13.345	1034.623	792.511
62.447	13.340	1033.598	791.630
63.461	13.201	1032.815	790.295
64.476	13.241	1031.354	789.301
65.490	13.232	1031.157	789.038
66.505	13.168	1029.991	787.768
67.520	13.196	1029.542	787.490
68.534	13.157	1028.907	786.750
69.549	13.337	1027.774	786.670
70.563	13.175	1026.998	785.236
71.578	13.252	1026.536	785.176
72.593	13.074	1025.948	783.815
73.607	13.045	1024.555	782.544
74.622	13.161	1023.683	782.357
75.636	13.270	1022.157	781.637
76.651	13.268	1021.717	781.220
77.666	13.205	1021.262	780.509
78.680	13.170	1020.328	779.559
79.695	13.225	1019.717	779.285
80.709	13.170	1019.160	778.529
81.724	13.235	1018.373	778.164
82.739	13.213	1017.732	777.502
83.753	13.240	1017.019	777.017
84.768	13.285	1016.326	776.629
85.782	13.477	1015.282	776.666
86.797	13.505	1014.574	776.186
87.812	13.484	1013.682	775.335
88.826	13.385	1012.666	774.028
89.841	13.323	1011.916	773.094
90.855	13.328	1011.195	772.498
91.870	13.552	1009.947	772.524
92.884	13.473	1009.431	771.691
93.899	13.448	1008.819	771.037
94.914	13.510	1007.748	770.441
95.928	13.515	1007.799	770.433
96.943	13.471	1006.589	769.235
97.957	13.556	1005.568	768.785
98.972	13.346	1005.138	767.413
99.987	13.448	1004.123	767.042
101.001	13.479	1003.493	766.636
102.016	13.492	1002.554	765.912
103.030	13.426	1001.596	764.807
104.045	13.559	1000.557	764.560
105.060	13.421	999.751	763.241
106.074	13.346	998.856	762.143
107.089	13.390	997.717	761.407
108.103	13.290	997.047	760.372
109.118	13.234	995.971	759.224
110.133	13.332	994.659	758.607
111.147	13.279	994.283	758.010
112.162	13.318	993.345	757.406
113.176	13.322	992.608	756.795
114.191	13.267	992.079	756.074
115.206	13.409	990.634	755.555
116.220	13.368	989.886	754.731
117.235	13.323	988.924	753.726
118.249	13.407	988.168	753.464
119.264	13.372	987.150	752.463
120.279	13.284	986.582	751.563
121.293	13.362	985.520	751.040
122.308	13.342	984.935	750.440
123.322	13.201	984.323	749.266
124.337	13.231	983.128	748.428
125.352	13.263	982.089	747.716
126.366	13.252	980.684	746.528
127.381	13.267	979.913	745.945
128.395	13.267	979.036	745.209
129.410	13.198	978.359	744.316
130.424	13.383	977.350	744.316
131.439	13.150	976.578	742.618
132.454	13.271	975.612	742.358
133.468	13.433	974.729	742.347
134.483	13.477	974.269	742.128
135.497	13.452	973.090	741.052
136.512	13.349	972.653	740.193
137.527	13.416	971.506	739.553
138.541	13.378	970.857	738.826
139.556	13.367	970.312	738.297
140.570	13.386	969.290	737.537
141.585	13.542	968.692	737.715
142.600	13.410	968.046	736.567
143.614	13.407	967.272	735.901
144.629	13.569	966.388	735.883
145.643	13.540	965.671	735.143
146.658	13.536	965.222	734.719
147.673	13.516	964.110	733.720
148.687	13.563	963.060	733.065
149.702	13.508	961.930	731.893
150.716	13.452	961.366	731.154
151.731	13.349	960.547	730.010
152.746	13.399	959.707	729.527
153.760	13.403	958.938	728.896
154.775	13.422	958.461	728.556
155.789	13.552	957.228	728.124
156.804	13.521	956.977	727.733
157.819	13.589	956.117	727.314
158.833	13.542	955.497	726.571
159.848	13.782	954.547	726.835
160.862	13.747	953.862	726.097
161.877	13.688	953.341	725.375
162.892	13.664	952.199	724.338
163.906	13.565	951.587	723.375
164.921	13.583	950.723	722.733
165.935	13.555	949.918	721.938
166.950	13.544	948.960	721.099
167.964	13.524	947.952	720.180
168.979	13.648	946.642	719.659
169.994	13.611	945.956	718.916
171.008	13.758	944.752	718.571
172.023	13.564	944.213	717.260
173.037	13.616	943.663	717.004
174.052	13.628	943.190	716.633
175.067	13.625	942.859	716.303
176.081	13.675	941.695	715.570
177.096	13.592	940.917	714.562
178.110	13.544	939.691	713.359
179.125	13.674	938.889	713.246
180.140	13.659	938.240	712.625
181.154	13.695	937.806	712.388
182.169	13.771	936.833	711.910
183.183	13.797	936.535	711.734
184.198	13.789	935.859	711.125
185.213	13.820	934.928	710.484
186.227	13.754	934.691	709.959
187.242	13.811	934.036	709.642
188.256	14.040	932.911	709.702
189.271	13.979	932.563	709.117
190.286	13.883	931.921	708.153
191.300	13.741	931.248	706.976
192.315	13.882	929.871	706.468
193.329	13.643	929.624	705.202
194.344	13.645	929.069	704.728
195.359	13.823	928.062	704.656
196.373	13.730	927.857	704.041
197.388	13.821	927.338	703.974
198.402	13.953	926.822	704.078
199.417	14.007	926.350	703.886
200.432	14.007	925.880	703.467
201.446	14.080	925.424	703.367
202.461	14.151	924.796	703.127
203.475	14.194	924.336	702.899
204.490	14.055	924.001	701.994
205.504	14.089	922.952	701.276
206.519	14.100	921.878	700.446
207.534	14.195	921.167	700.244
208.548	13.927	920.715	698.712
209.563	13.996	919.806	698.251
210.577	14.201	918.895	698.358
211.592	14.097	918.748	697.746
212.607	14.134	918.030	697.294
213.621	14.325	917.038	697.280
214.636	14.153	916.642	696.196
215.650	14.280	915.783	696.011
216.665	14.297	915.282	695.644
217.680	14.185	914.530	694.541
218.694	14.344	914.077	694.798
219.709	14.291	913.682	694.217
220.723	14.308	912.735	693.507
221.738	14.398	911.923	693.203
222.753	14.384	911.053	692.420
223.767	14.397	910.397	691.917
224.782	14.366	909.604	691.122
225.796	14.401	909.170	690.879
226.811	14.572	908.288	690.853
227.826	14.472	907.500	689.779
228.840	14.381	907.214	689.125
229.855	14.356	906.246	688.228
230.869	14.373	905.900	687.972
231.884	14.446	905.089	687.596
232.899	14.419	904.460	686.948
233.913	14.478	903.680	686.538
234.928	14.449	902.627	685.555
235.942	14.338	902.304	684.795
236.957	14.418	901.397	684.374
237.972	14.430	900.846	683.944
238.986	14.506	900.080	683.614
240.001	14.427	899.297	682.637
241.015	14.501	898.920	682.592
242.030	14.412	898.470	681.824
243.045	14.502	897.420	681.337
244.059	14.459	897.100	680.857
245.074	14.642	896.251	680.901
246.088	14.567	895.694	680.107
247.103	14.701	894.862	679.964
248.117	14.669	894.403	679.422
249.132	14.785	893.711	679.308
250.147	14.771	893.523	679.049
251.161	14.907	892.661	678.886
252.176	14.693	892.398	677.756
253.190	14.888	891.136	677.532
254.205	14.869	890.839	677.168
255.220	14.944	889.891	676.692
256.234	15.007	888.887	676.123
257.249	14.931	888.661	675.584
258.263	15.113	888.154	675.872
259.278	15.077	887.712	675.331
260.293	15.084	886.880	674.665
261.307	15.044	886.248	673.965
262.322	14.961	886.084	673.446
263.336	15.023	885.143	672.923
264.351	15.122	884.535	672.796
265.366	15.164	884.023	672.519
266.380	15.136	883.492	671.940
267.395	15.114	882.715	671.202
268.409	15.244	881.726	670.912
269.424	15.136	881.304	670.101
270.439	15.163	880.518	669.549
271.453	15.312	879.181	669.068
272.468	15.093	878.735	667.798
273.482	15.092	878.653	667.670
274.497	15.253	877.602	667.457
275.512	15.191	877.071	666.746
276.526	15.166	876.552	666.190
277.541	15.187	875.751	665.609
278.555	15.225	875.233	665.307
279.570	15.224	874.715	664.847
280.585	15.224	874.153	664.364
281.599	15.350	873.723	664.476
282.614	15.306	872.965	663.668
283.628	15.353	872.163	663.186
284.643	15.368	871.440	662.636
285.657	15.347	871.545	662.573
286.672	15.303	870.773	661.757
287.687	15.344	870.064	661.320
288.701	15.428	869.217	660.949
289.716	15.563	868.636	660.978
290.730	15.493	868.155	660.279
291.745	15.368	867.831	659.484
292.760	15.468	867.449	659.528
293.774	15.554	866.291	658.926
294.789	15.546	866.130	658.715
295.803	15.495	865.081	657.658
296.818	15.540	864.297	657.178
297.833	15.437	863.836	656.369
298.847	15.477	863.230	656.005
299.862	15.586	862.691	655.966
300.876	15.460	862.279	655.102
301.891	15.555	861.412	654.754
302.906	15.811	860.199	654.772
303.920	15.737	859.596	653.966
304.935	15.758	859.414	653.850
305.949	15.847	858.659	653.564
306.964	15.665	858.044	652.335
307.979	15.686	857.278	651.774
308.993	15.784	857.163	652.008
310.008	15.892	856.175	651.616
311.022	15.891	855.714	651.205
312.037	15.977	855.155	651.055
313.052	15.807	855.101	650.299
314.066	15.764	854.795	649.842
315.081	15.740	853.494	648.704
316.095	15.794	853.011	648.486
317.110	15.777	852.550	648.015
318.125	15.745	851.884	647.327
319.139	15.960	851.067	647.476
320.154	15.854	850.724	646.748
321.168	15.916	850.300	646.608
322.183	15.869	849.769	645.967
323.197	15.887	849.529	645.797
324.212	15.939	848.552	645.195
325.227	15.917	848.266	644.839
326.241	15.844	847.923	644.240
327.256	15.910	847.040	643.764
328.270	15.848	846.394	642.978
329.285	15.900	846.258	643.017
330.300	15.977	845.273	642.506
331.314	15.971	844.803	642.070
332.329	15.987	843.996	641.462
333.343	16.108	843.457	641.452
334.358	16.044	843.169	640.935
335.373	16.092	842.654	640.669
336.387	16.057	842.118	640.073
337.402	16.160	841.392	639.856
338.416	16.111	840.684	639.072
339.431	16.251	840.212	639.187
340.446	16.185	839.931	638.669
341.460	16.233	839.109	638.167
342.475	16.320	838.250	637.789
343.489	16.285	838.015	637.421
344.504	16.326	837.254	636.939
345.519	16.333	836.752	636.528
346.533	16.396	836.434	636.465
347.548	16.464	835.714	636.119
348.562	16.272	835.612	635.260
349.577	16.365	835.084	635.155
350.592	16.411	834.074	634.502
351.606	16.373	833.810	634.101
352.621	16.285	833.480	633.465
353.635	16.308	833.259	633.328
354.650	16.312	832.644	632.819
355.665	16.269	832.172	632.242
356.679	16.493	831.792	632.738
357.694	16.284	831.546	631.713
358.708	16.404	830.820	631.554
359.723	16.481	829.886	631.074
360.738	16.423	829.406	630.435
361.752	16.454	828.963	630.160
362.767	16.520	828.425	629.940
363.781	16.634	827.938	629.940
364.796	16.495	827.603	629.114
365.810	16.542	827.676	629.287
366.825	16.716	826.762	629.182
367.840	16.650	826.818	628.923
368.854	16.855	825.966	628.980
369.869	16.740	825.780	628.358
370.883	16.659	824.798	627.255
371.898	16.799	824.120	627.202
372.913	16.742	823.846	626.727
373.927	16.842	823.206	626.554
374.942	16.727	822.883	625.828
375.956	16.660	822.271	625.061
376.971	16.902	821.352	625.197
377.986	16.856	820.984	624.693
379.000	16.778	820.914	624.296
380.015	16.959	819.972	624.190
381.029	16.890	819.570	623.576
382.044	16.945	818.667	623.037
383.059	16.971	818.085	622.636
384.073	16.896	817.881	622.147
385.088	16.911	817.481	621.843
386.102	16.796	816.699	620.774
387.117	17.076	815.898	621.134
388.132	16.949	815.807	620.545
389.146	16.938	815.431	620.164
390.161	16.802	815.262	619.483
391.175	16.876	814.625	619.213
392.190	17.077	814.233	619.597
393.205	17.024	813.795	619.015
394.219	16.990	813.242	618.415
395.234	16.883	812.892	617.703
396.248	17.028	812.129	617.597
397.263	17.015	811.665	617.141
398.278	16.993	810.953	616.465
399.292	16.916	810.751	615.980
400.307	16.931	810.422	615.728
401.321	17.012	809.879	615.558
402.336	16.931	809.742	615.105
403.350	17.045	809.271	615.103
404.365	17.135	808.872	615.073
405.380	17.096	808.186	614.354
406.394	17.142	807.949	614.288
407.409	17.335	807.347	614.471
408.423	17.296	806.797	613.859
409.438	17.207	806.688	613.401
410.453	17.376	806.244	613.616
411.467	17.336	805.649	612.967
412.482	17.380	805.140	612.684
413.496	17.404	805.008	612.617
414.511	17.494	804.160	612.241
415.526	17.444	803.668	611.630
416.540	17.451	803.555	611.516
417.555	17.377	803.323	611.018
418.569	17.513	802.632	610.927
419.584	17.607	801.960	610.698
420.599	17.428	801.711	609.814
421.613	103.453	1283.861	1442.345
422.628	88.864	1354.113	1442.465
