DTS Sentinel unit serial number:	SN413079Multiplexer serial number:	ORYXHardware model number:	OX4-SRSoftware version number:	ORYX F/W v4.00 Oryx Data Collector v3.7.2.0data status	okinstallation	princeton_trtdifferential loss correction	single-endedforward channel	channel 3reverse channel	N/Adate	2019/09/13time	10:36:35forward acquisition time	60.00reverse acquisition time	0.00gamma	496.2192k internal	0.2320k external	0.2320temperature offset calibration	1.0144default loss term (dB/km)	0.3790temperature slope calibration	1.0000multiplexer offset coefficient	1.0000multiplexer slope coefficient	1.0000fibre end	0.00T internal ref (°C)	31.31T ext. ref 1 (°C)	4.56T ext. ref 2 (°C)	28.17length (m)	temperature (°C)	Stokes	anti-Stokes-747.200	-53.345	-0.139	0.064
-746.185	-106.161	0.255	0.058
-745.171	-57.729	0.107	0.047
-744.156	-162.621	-0.414	-0.021
-743.142	-64.589	0.148	-0.061
-742.127	-65.552	0.412	0.167
-741.112	-200.000	-0.020	0.102
-740.098	-130.084	-0.271	0.037
-739.083	-169.835	0.140	-0.005
-738.069	800.000	-0.125	0.474
-737.054	73.372	-0.074	-0.078
-736.039	92.627	-0.106	-0.121
-735.025	800.000	0.023	0.075
-734.010	-79.822	-0.113	-0.038
-732.996	-200.000	0.001	-0.158
-731.981	530.898	-0.020	0.048
-730.966	-57.406	0.079	0.035
-729.952	-64.041	-0.447	0.185
-728.937	-200.000	-0.026	-0.200
-727.923	118.981	-0.109	-0.136
-726.908	652.573	-0.027	-0.071
-725.894	-136.929	-0.281	-0.033
-724.879	-29.251	-0.128	0.074
-723.864	-78.561	0.134	0.046
-722.850	-101.070	-0.169	-0.042
-721.835	-155.983	-0.245	0.016
-720.821	131.800	-0.141	0.183
-719.806	-56.555	0.115	0.051
-718.791	-35.437	0.136	0.075
-717.777	237.434	0.148	0.249
-716.762	-127.356	0.066	0.010
-715.748	145.764	0.076	0.102
-714.733	377.961	0.046	0.095
-713.718	-78.050	-0.158	-0.055
-712.704	-200.000	0.054	-0.386
-711.689	18.333	0.073	-0.059
-710.675	7.361	0.362	0.273
-709.660	-48.503	0.125	0.061
-708.645	295.361	-0.166	0.307
-707.631	800.000	0.024	-0.103
-706.616	-79.885	-0.204	0.069
-705.602	510.769	0.108	-0.255
-704.587	54.673	-0.147	-0.143
-703.572	-68.985	0.278	0.108
-702.558	4.741	-0.268	0.199
-701.543	-29.384	-0.252	-0.146
-700.529	-56.794	-0.140	0.063
-699.514	397.390	0.073	0.155
-698.499	-112.309	-0.324	-0.066
-697.485	258.184	-0.241	-0.419
-696.470	-15.890	-0.007	-0.005
-695.456	12.978	-0.384	0.300
-694.441	-21.527	0.186	-0.115
-693.426	-200.000	-0.021	-0.102
-692.412	-200.000	0.004	-0.060
-691.397	299.607	0.078	-0.146
-690.383	-30.749	-0.158	-0.090
-689.368	177.865	0.151	0.222
-688.354	-200.000	0.045	-0.258
-687.339	800.000	0.038	0.140
-686.324	800.000	0.038	0.150
-685.310	-101.776	0.115	0.028
-684.295	-17.732	0.184	0.117
-683.281	-3.917	0.190	-0.133
-682.266	-131.705	-0.398	-0.053
-681.251	243.562	-0.078	-0.133
-680.237	-52.548	-0.123	0.057
-679.222	131.505	-0.087	-0.113
-678.208	56.260	-0.095	0.093
-677.193	-200.000	-0.073	-0.350
-676.178	-200.000	-0.076	0.346
-675.164	18.201	0.076	-0.061
-674.149	-109.794	0.280	0.059
-673.135	-200.000	-0.034	0.162
-672.120	-36.688	-0.206	-0.112
-671.105	407.889	-0.039	-0.084
-670.091	-200.000	-0.014	-0.372
-669.076	735.266	-0.075	0.202
-668.062	-130.169	-0.037	-0.005
-667.047	-200.000	-0.001	0.120
-666.032	800.000	-0.030	-0.095
-665.018	-82.587	-0.510	0.167
-664.003	-99.913	-0.177	0.045
-662.989	-55.006	0.069	0.031
-661.974	800.000	0.056	-0.201
-660.959	-21.113	0.275	-0.170
-659.945	101.651	-0.120	0.141
-658.930	-200.000	0.037	-0.252
-657.916	-21.525	-0.121	-0.074
-656.901	-200.000	0.001	-0.238
-655.886	76.343	0.160	-0.171
-654.872	-99.439	-0.156	0.040
-653.857	-71.376	0.107	-0.040
-652.843	-35.571	0.263	-0.144
-651.828	-200.000	-0.007	-0.160
-650.814	-2.444	0.085	0.060
-649.799	71.758	0.097	0.102
-648.784	-200.000	-0.014	0.174
-647.770	531.446	-0.065	0.155
-646.755	800.000	-0.097	0.374
-645.741	-18.501	0.095	0.060
-644.726	26.748	-0.128	0.108
-643.711	-152.395	0.113	-0.008
-642.697	-70.244	-0.180	-0.069
-641.682	-200.000	-0.005	-0.160
-640.668	241.402	0.206	0.347
-639.653	295.234	0.134	-0.247
-638.638	-90.321	0.282	-0.083
-637.624	11.422	-0.146	-0.113
-636.609	54.142	0.122	0.118
-635.595	-200.000	-0.015	-0.403
-634.580	-128.803	0.209	0.030
-633.565	264.796	0.168	0.295
-632.551	-52.469	0.101	-0.047
-631.536	245.351	0.224	-0.380
-630.522	701.191	-0.016	-0.042
-629.507	-145.938	-0.152	0.014
-628.492	35.304	-0.132	-0.117
-627.478	165.467	0.088	-0.125
-626.463	-200.000	0.025	0.371
-625.449	91.743	-0.120	-0.136
-624.434	-57.536	-0.257	-0.113
-623.419	-7.395	0.065	0.044
-622.405	253.551	0.148	0.254
-621.390	347.603	-0.011	0.022
-620.376	264.394	-0.121	-0.212
-619.361	-200.000	0.014	0.434
-618.346	-94.776	-0.275	0.075
-617.332	-131.134	0.258	0.034
-616.317	-129.128	-0.114	0.016
-615.303	30.329	-0.234	0.201
-614.288	-200.000	-0.002	0.062
-613.273	-144.178	-0.013	-0.001
-612.259	800.000	0.144	-0.408
-611.244	44.378	0.039	-0.036
-610.230	31.844	-0.132	0.115
-609.215	461.941	0.177	-0.397
-608.201	-190.653	-0.359	0.004
-607.186	97.794	0.094	-0.108
-606.171	419.471	-0.099	-0.213
-605.157	-86.098	0.334	-0.104
-604.142	-114.227	0.298	-0.058
-603.128	-200.000	-0.002	0.220
-602.113	800.000	-0.045	0.170
-601.098	-200.000	0.012	-0.118
-600.084	97.382	0.145	0.168
-599.069	589.361	0.075	0.186
-598.055	-38.954	-0.130	-0.069
-597.040	323.802	-0.125	-0.240
-596.025	50.132	0.052	-0.049
-595.011	209.735	-0.104	-0.164
-593.996	121.884	0.168	0.210
-592.982	-200.000	0.044	-0.311
-591.967	49.099	0.261	0.246
-590.952	-96.261	-0.270	0.072
-589.938	407.225	-0.066	-0.140
-588.923	-66.292	-0.221	-0.088
-587.909	-99.026	-0.399	0.102
-586.894	-189.208	0.231	0.003
-585.879	74.622	0.092	0.097
-584.865	54.386	-0.185	-0.179
-583.850	89.963	0.038	0.043
-582.836	800.000	0.079	-0.323
-581.821	29.870	0.319	-0.273
-580.806	17.219	-0.146	-0.116
-579.792	-66.681	0.348	-0.138
-578.777	-200.000	-0.002	0.097
-577.763	76.101	-0.250	-0.266
-576.748	800.000	0.150	0.419
-575.733	387.164	-0.082	-0.170
-574.719	197.858	-0.044	-0.067
-573.704	-132.280	-0.097	0.013
-572.690	800.000	-0.056	-0.189
-571.675	-200.000	-0.036	-0.227
-570.661	39.328	0.111	-0.100
-569.646	26.786	-0.143	0.121
-568.631	800.000	-0.065	0.206
-567.617	-200.000	-0.040	-0.362
-566.602	-200.000	-0.016	-0.286
-565.588	-200.000	0.036	0.328
-564.573	165.139	-0.175	-0.248
-563.558	-76.925	0.054	-0.019
-562.544	136.123	-0.014	0.018
-561.529	800.000	-0.056	-0.228
-560.515	145.103	0.144	-0.194
-559.500	-128.037	-0.225	0.032
-558.485	-200.000	-0.037	-0.316
-557.471	-69.710	0.287	0.110
-556.456	-55.789	-0.095	-0.042
-555.442	800.000	0.057	0.168
-554.427	119.297	-0.177	-0.220
-553.412	-19.899	-0.183	-0.113
-552.398	-200.000	0.101	0.446
-551.383	131.822	0.224	0.289
-550.369	-200.000	-0.015	0.080
-549.354	127.404	0.074	0.094
-548.339	-200.000	-0.007	-0.088
-547.325	-37.191	-0.172	-0.092
-546.310	-11.104	-0.269	0.178
-545.296	800.000	0.002	-0.010
-544.281	64.935	0.157	0.159
-543.266	-85.871	-0.371	-0.115
-542.252	-62.206	0.032	0.013
-541.237	-53.461	0.136	0.062
-540.223	286.177	0.079	0.144
-539.208	-54.241	-0.173	0.079
-538.193	283.013	0.047	0.085
-537.179	33.597	0.192	0.167
-536.164	-200.000	-0.027	-0.135
-535.150	-89.033	0.072	0.022
-534.135	800.000	0.088	0.346
-533.121	-28.446	0.169	-0.098
-532.106	-157.319	-0.096	-0.006
-531.091	-200.000	-0.016	-0.255
-530.077	135.071	0.122	0.159
-529.062	-75.786	-0.201	-0.071
-528.048	606.786	-0.100	0.251
-527.033	-9.697	0.203	0.135
-526.018	-200.000	0.029	0.318
-525.004	-131.071	0.244	-0.033
-523.989	-74.442	-0.182	0.066
-522.975	-18.495	-0.286	-0.179
-521.960	-200.000	0.003	-0.158
-520.945	-7.519	-0.064	-0.044
-519.931	-116.843	-0.255	0.047
-518.916	72.094	-0.159	0.166
-517.902	-77.414	0.247	-0.086
-516.887	-200.000	0.054	0.325
-515.872	34.903	-0.118	0.104
-514.858	800.000	-0.114	0.467
-513.843	-55.861	-0.051	0.023
-512.829	-44.205	0.090	-0.045
-511.814	-200.000	0.023	0.345
-510.799	-16.807	-0.070	-0.044
-509.785	-127.379	0.252	0.037
-508.770	-200.000	-0.018	-0.237
-507.756	-200.000	0.016	0.213
-506.741	-200.000	-0.036	-0.217
-505.726	-12.831	-0.084	0.055
-504.712	-200.000	0.010	0.045
-503.697	-200.000	0.031	0.000
-502.683	-200.000	-0.041	-0.206
-501.668	-133.752	0.312	-0.039
-500.653	-137.572	-0.243	0.027
-499.639	-93.714	0.257	-0.071
-498.624	800.000	0.102	-0.391
-497.610	148.242	0.152	-0.206
-496.595	-200.000	0.043	-0.278
-495.581	800.000	0.022	0.087
-494.566	800.000	0.077	-0.281
-493.551	-200.000	-0.030	-0.366
-492.537	563.852	0.187	-0.454
-491.522	-171.093	0.190	0.006
-490.508	-146.886	0.194	-0.017
-489.493	-48.767	0.178	-0.086
-488.478	-200.000	-0.035	-0.266
-487.464	149.776	-0.072	-0.097
-486.449	745.835	0.151	-0.408
-485.435	-88.324	-0.316	0.095
-484.420	192.097	0.092	0.139
-483.405	-82.848	0.029	0.009
-482.391	-200.000	0.067	0.312
-481.376	-52.136	-0.097	0.045
-480.362	-84.593	-0.293	0.093
-479.347	-44.962	-0.249	0.124
-478.332	341.659	0.114	-0.222
-477.318	-137.188	0.197	0.022
-476.303	56.756	-0.274	0.267
-475.289	131.923	-0.144	-0.185
-474.274	47.653	-0.148	-0.138
-473.259	-162.474	0.089	0.004
-472.245	-200.000	-0.034	0.334
-471.230	-113.562	-0.365	-0.071
-470.216	800.000	-0.056	-0.190
-469.201	800.000	0.056	0.178
-468.186	-99.953	-0.202	0.051
-467.172	-58.725	-0.107	0.046
-466.157	-65.866	-0.192	0.077
-465.143	-200.000	-0.030	0.198
-464.128	6.350	-0.299	0.222
-463.113	-200.000	-0.264	0.000
-462.099	436.397	0.087	0.188
-461.084	-31.390	0.269	0.151
-460.070	138.016	0.063	0.082
-459.055	-200.000	0.030	-0.295
-458.040	-0.085	-0.092	-0.065
-457.026	-49.845	0.453	0.215
-456.011	-78.391	0.210	0.072
-454.997	101.317	0.127	0.148
-453.982	38.272	0.110	0.098
-452.968	-48.245	-0.284	-0.137
-451.953	-139.725	0.163	-0.017
-450.938	-121.651	0.095	-0.016
-449.924	14.785	-0.232	-0.181
-448.909	33.829	-0.135	-0.117
-447.895	-20.216	0.158	0.097
-446.880	800.000	0.074	0.246
-445.865	274.512	-0.084	-0.149
-444.851	-29.634	-0.158	-0.090
-443.836	323.057	-0.181	-0.345
-442.822	-93.030	-0.279	-0.078
-441.807	-60.523	-0.216	0.092
-440.792	-84.184	-0.163	-0.052
-439.778	365.263	-0.178	0.359
-438.763	61.878	-0.062	0.062
-437.749	-88.182	0.060	0.018
-436.734	-154.552	-0.310	0.021
-435.719	165.617	-0.112	0.158
-434.705	177.493	0.252	-0.367
-433.690	37.821	-0.247	0.219
-432.676	-200.000	-0.041	0.187
-431.661	4.766	0.140	0.103
-430.646	-92.319	0.322	-0.091
-429.632	800.000	-0.052	0.206
-428.617	-151.788	-0.153	0.011
-427.603	57.588	0.060	-0.059
-426.588	-159.923	-0.066	-0.004
-425.573	322.777	-0.059	-0.113
-424.559	85.596	-0.085	0.094
-423.544	117.725	0.044	-0.054
-422.530	-35.111	-0.209	-0.114
-421.515	-200.000	0.020	0.145
-420.500	83.171	0.067	0.072
-419.486	-116.332	-0.245	-0.045
-418.471	-66.944	0.127	0.050
-417.457	22.395	-0.127	-0.104
-416.442	88.450	0.200	-0.221
-415.428	-200.000	-0.007	0.173
-414.413	52.658	0.087	0.083
-413.398	114.824	0.187	-0.228
-412.384	-42.025	0.165	0.084
-411.369	-9.180	-0.180	-0.120
-410.355	-98.586	-0.228	0.058
-409.340	65.836	-0.397	0.402
-408.325	218.838	0.046	0.074
-407.311	-200.000	-0.006	0.240
-406.296	-46.215	0.081	-0.040
-405.282	800.000	-0.087	0.326
-404.267	27.931	-0.257	0.216
-403.252	100.549	-0.068	0.079
-402.238	-7.200	0.264	0.179
-401.223	-103.686	0.291	0.068
-400.209	-200.000	-0.020	0.156
-399.194	-200.000	-0.034	0.390
-398.179	-200.000	0.011	-0.061
-397.165	-84.425	0.139	-0.044
-396.150	800.000	0.066	-0.191
-395.136	58.286	-0.158	0.154
-394.121	-36.074	0.164	-0.088
-393.106	800.000	0.142	0.448
-392.092	-126.065	-0.494	0.074
-391.077	210.864	0.045	0.071
-390.063	800.000	-0.047	-0.154
-389.048	121.812	0.241	-0.300
-388.033	-18.475	-0.450	-0.280
-387.019	14.524	0.192	0.149
-386.004	383.039	-0.037	0.076
-384.990	-22.529	0.092	0.056
-383.975	-76.384	0.248	0.087
-382.960	487.819	-0.034	0.077
-381.946	-200.000	0.004	0.051
-380.931	86.182	-0.108	-0.119
-379.917	-40.316	-0.151	0.078
-378.902	-120.516	-0.194	0.033
-377.888	-136.566	-0.284	-0.033
-376.873	-0.142	0.096	0.068
-375.858	-118.804	0.136	0.024
-374.844	-200.000	0.013	0.099
-373.829	-79.432	0.284	-0.096
-372.815	-177.011	-0.213	0.005
-371.800	-67.690	0.301	0.117
-370.785	3.224	-0.211	-0.153
-369.771	-200.000	-0.009	-0.300
-368.756	-124.172	0.050	0.008
-367.742	92.121	-0.029	0.033
-366.727	-200.000	0.016	-0.341
-365.712	19.442	0.026	-0.021
-364.698	192.849	-0.166	-0.250
-363.683	-200.000	0.012	0.228
-362.669	-58.559	0.294	-0.127
-361.654	-145.339	-0.164	-0.015
-360.639	35.366	0.074	0.064
-359.625	800.000	-0.081	-0.252
-358.610	406.156	-0.042	-0.089
-357.596	-69.212	0.254	0.097
-356.581	-126.387	0.175	-0.026
-355.566	410.221	0.048	-0.102
-354.552	111.604	0.104	-0.125
-353.537	-132.475	-0.523	-0.067
-352.523	29.061	-0.152	-0.129
-351.508	309.542	0.011	0.021
-350.493	-6.877	0.425	-0.288
-349.479	-35.132	0.055	-0.030
-348.464	-119.410	-0.087	-0.015
-347.450	-59.760	-0.162	0.069
-346.435	-200.000	0.021	0.241
-345.420	157.575	-0.181	-0.249
-344.406	-64.565	-0.164	-0.066
-343.391	59.667	0.126	-0.124
-342.377	482.148	-0.104	0.235
-341.362	364.603	0.012	-0.023
-340.348	800.000	-0.122	-0.516
-339.333	-74.778	-0.137	-0.049
-338.318	-92.801	0.336	-0.093
-337.304	18.191	-0.288	-0.229
-336.289	196.013	0.160	0.242
-335.275	485.875	0.080	0.182
-334.260	92.490	-0.138	0.155
-333.245	-38.331	-0.164	0.087
-332.231	75.216	-0.146	-0.153
-331.216	-102.678	0.231	-0.055
-330.202	-174.496	-0.270	-0.008
-329.187	800.000	0.051	0.164
-328.172	-200.000	0.015	-0.073
-327.158	189.126	0.088	0.131
-326.143	-18.013	0.183	0.114
-325.129	800.000	-0.045	0.128
-324.114	88.796	0.138	0.153
-323.099	-10.220	0.372	-0.246
-322.085	-103.274	-0.209	-0.049
-321.070	619.173	-0.109	0.272
-320.056	-120.886	0.259	0.043
-319.041	411.065	0.081	-0.171
-318.026	-182.800	-0.199	0.004
-317.012	-53.444	-0.117	-0.053
-315.997	-99.565	-0.183	-0.046
-314.983	74.891	-0.107	0.112
-313.968	-106.721	-0.070	0.016
-312.953	698.774	0.165	0.432
-311.939	800.000	0.089	0.274
-310.924	74.174	0.152	0.158
-309.910	18.868	0.124	-0.098
-308.895	-140.585	-0.209	0.022
-307.880	-127.965	0.162	0.023
-306.866	-165.499	-0.241	-0.010
-305.851	-200.000	-0.025	0.330
-304.837	-0.799	0.112	0.079
-303.822	55.773	-0.107	0.103
-302.807	800.000	0.077	-0.244
-301.793	3.101	-0.172	0.124
-300.778	-150.998	0.157	-0.012
-299.764	99.269	0.265	-0.305
-298.749	-1.811	-0.202	0.141
-297.735	-200.000	0.009	-0.046
-296.720	-85.887	-0.084	0.026
-295.705	299.417	0.178	0.325
-294.691	800.000	0.094	-0.274
-293.676	393.558	0.168	-0.348
-292.662	96.004	-0.201	-0.228
-291.647	232.117	-0.071	-0.116
-290.632	-200.000	0.017	0.077
-289.618	6.335	-0.023	0.017
-288.603	-200.000	-0.005	0.128
-287.589	-26.471	0.250	-0.145
-286.574	140.223	-0.092	-0.120
-285.559	173.832	-0.133	-0.191
-284.545	-143.553	0.300	0.028
-283.530	-200.000	0.029	-0.237
-282.516	291.715	0.146	0.264
-281.501	102.301	0.096	-0.112
-280.486	-51.257	0.054	0.025
-279.472	-200.000	0.010	0.103
-278.457	-200.000	0.037	0.242
-277.443	-83.355	0.289	0.092
-276.428	-200.000	0.014	0.112
-275.413	515.578	-0.054	-0.126
-274.399	-200.000	0.014	0.232
-273.384	407.965	-0.030	-0.063
-272.370	12.647	0.162	0.124
-271.355	-71.380	-0.384	-0.143
-270.340	-101.844	-0.177	0.042
-269.326	-200.000	0.021	0.161
-268.311	-157.251	-0.179	-0.011
-267.297	157.640	0.060	-0.083
-266.282	-93.863	0.121	0.033
-265.267	-49.307	-0.242	-0.115
-264.253	156.492	-0.085	0.116
-263.238	-40.257	-0.142	-0.074
-262.224	751.974	-0.039	0.104
-261.209	242.456	0.225	0.374
-260.195	4.261	0.237	-0.173
-259.180	341.615	-0.078	0.151
-258.165	-200.000	-0.027	-0.281
-257.151	-71.997	-0.029	-0.011
-256.136	-13.731	0.213	0.137
-255.122	338.767	-0.146	0.281
-254.107	-120.916	-0.178	-0.030
-253.092	-7.305	-0.216	0.145
-252.078	-10.404	0.171	0.112
-251.063	-109.952	-0.181	-0.038
-250.049	-122.689	-0.184	-0.030
-249.034	149.685	-0.217	-0.292
-248.019	800.000	0.058	-0.217
-247.005	-9.211	-0.078	0.051
-245.990	-191.133	0.136	-0.001
-244.976	800.000	0.054	-0.203
-243.961	-200.000	-0.002	0.143
-242.946	100.044	0.205	0.235
-241.932	112.906	0.157	-0.189
-240.917	-31.153	0.224	-0.125
-239.903	25.725	0.285	-0.236
-238.888	-164.719	0.096	-0.004
-237.873	800.000	0.051	-0.216
-236.859	-50.596	-0.098	0.046
-235.844	-65.156	0.124	-0.050
-234.830	-35.421	0.233	0.125
-233.815	800.000	-0.062	-0.173
-232.800	82.101	-0.200	0.215
-231.786	-200.000	-0.070	0.412
-230.771	74.677	0.108	-0.113
-229.757	712.883	-0.086	0.226
-228.742	-200.000	-0.071	0.401
-227.727	-59.441	-0.251	0.107
-226.713	301.470	0.035	-0.065
-225.698	79.911	0.178	-0.189
-224.684	164.311	0.125	0.174
-223.669	800.000	-0.122	0.430
-222.655	-120.884	0.145	-0.024
-221.640	-65.352	-0.275	-0.109
-220.625	-200.000	0.037	-0.639
-219.611	800.000	0.045	-0.132
-218.596	-124.612	0.171	0.026
-217.582	161.736	0.142	-0.197
-216.567	57.120	-0.142	-0.137
-215.552	-148.494	-0.138	-0.011
-214.538	116.756	0.157	-0.191
-213.523	-20.683	-0.447	-0.272
-212.509	70.280	0.110	-0.113
-211.494	391.441	0.045	-0.093
-210.479	187.367	-0.119	-0.175
-209.465	69.150	0.179	0.182
-208.450	-200.000	0.003	-0.032
-207.436	-100.421	-0.151	0.037
-206.421	-98.109	-0.145	0.037
-205.406	-62.769	0.203	-0.083
-204.392	-138.065	-0.277	0.031
-203.377	636.494	0.084	0.212
-202.363	-200.000	0.008	0.214
-201.348	-98.360	0.485	0.123
-200.333	557.033	0.057	0.135
-199.319	632.799	0.035	-0.088
-198.304	-39.915	0.268	0.138
-197.290	-170.670	0.167	0.006
-196.275	-17.924	-0.077	-0.048
-195.260	800.000	-0.080	0.288
-194.246	-127.957	-0.183	-0.026
-193.231	434.266	-0.099	-0.213
-192.217	239.911	0.036	-0.060
-191.202	326.827	0.167	0.317
-190.187	-200.000	0.005	-0.207
-189.173	-95.995	-0.066	0.017
-188.158	642.633	-0.048	-0.120
-187.144	-123.539	-0.383	0.060
-186.129	-105.393	0.267	0.060
-185.114	93.164	-0.187	-0.210
-184.100	8.391	0.177	0.132
-183.085	339.882	-0.118	0.228
-182.071	113.617	0.269	-0.323
-181.056	344.686	0.162	-0.314
-180.042	42.514	0.326	0.293
-179.027	-12.255	-0.095	-0.061
-178.012	634.360	0.186	-0.468
-176.998	-67.829	0.333	-0.129
-175.983	143.203	0.225	-0.296
-174.969	-152.046	-0.394	-0.028
-173.954	-200.000	-0.040	0.196
-172.939	-67.488	-0.057	0.022
-171.925	-64.188	-0.281	-0.113
-170.910	-200.000	0.002	-0.150
-169.896	-200.000	-0.019	0.207
-168.881	29.009	0.174	0.146
-167.866	31.593	0.104	0.088
-166.852	267.544	0.067	0.117
-165.837	-38.347	-0.280	-0.146
-164.823	-68.272	-0.167	-0.064
-163.808	-47.557	-0.181	-0.087
-162.793	-200.000	-0.016	-0.104
-161.779	-90.428	0.377	0.108
-160.764	440.171	0.049	0.107
-159.750	-152.224	0.412	-0.030
-158.735	-37.599	0.418	-0.220
-157.720	340.365	0.009	0.017
-156.706	-50.416	-0.165	0.077
-155.691	543.447	-0.030	-0.071
-154.677	371.926	-0.132	0.264
-153.662	-200.000	0.022	0.227
-152.647	12.369	0.106	-0.081
-151.633	292.003	0.155	-0.280
-150.618	-101.485	0.118	0.028
-149.604	-102.951	0.243	0.057
-148.589	-5.219	0.161	-0.109
-147.574	-44.583	0.174	0.086
-146.560	-200.000	-0.017	0.278
-145.545	139.103	0.116	0.150
-144.531	113.564	0.125	-0.150
-143.516	385.880	-0.105	0.214
-142.502	39.052	0.071	-0.063
-141.487	-4.304	-0.213	-0.145
-140.472	-58.017	-0.235	-0.101
-139.458	-32.024	0.311	-0.172
-138.443	31.233	0.030	-0.026
-137.429	-155.189	-0.039	0.003
-136.414	247.005	-0.031	-0.052
-135.399	-129.816	0.347	-0.047
-134.385	-200.000	-0.054	0.501
-133.370	800.000	0.063	0.186
-132.356	-65.172	0.125	0.050
-131.341	-96.485	-0.070	-0.018
-130.326	-200.000	-0.007	0.186
-129.312	-24.722	0.123	-0.072
-128.297	-15.242	0.170	0.107
-127.283	-156.529	-0.300	0.018
-126.268	-182.931	0.196	-0.003
-125.253	6.524	0.131	-0.096
-124.239	19.577	-0.194	-0.154
-123.224	-191.717	0.122	0.001
-122.210	-126.155	0.146	0.022
-121.195	-200.000	-0.015	-0.130
-120.180	-98.363	0.154	-0.039
-119.166	-133.042	-0.024	-0.003
-118.151	-168.584	0.361	-0.014
-117.137	87.190	0.186	0.203
-116.122	126.562	0.217	0.271
-115.107	-200.000	0.029	0.182
-114.093	-0.971	-0.060	-0.042
-113.078	73.116	-0.083	-0.086
-112.064	-106.070	-0.276	-0.061
-111.049	-32.725	0.039	0.021
-110.034	-51.419	0.388	0.179
-109.020	-200.000	0.065	-0.344
-108.005	60.523	0.026	0.025
-106.991	-200.000	-0.044	0.218
-105.976	-200.000	0.010	0.287
-104.962	35.080	0.368	0.318
-103.947	-200.000	0.039	-0.357
-102.932	262.302	0.145	-0.247
-101.918	144.958	0.230	0.303
-100.903	-38.215	-0.233	-0.122
-99.889	570.863	0.012	0.028
-98.874	-44.947	0.214	0.105
-97.859	800.000	0.027	-0.082
-96.845	-200.000	-0.018	0.332
-95.830	-200.000	-0.004	-0.091
-94.816	-47.132	0.114	0.055
-93.801	24.509	0.087	0.071
-92.786	128.224	0.044	-0.056
-91.772	-83.668	-0.164	-0.052
-90.757	-82.239	0.188	-0.060
-89.743	371.920	-0.080	0.161
-88.728	800.000	-0.139	0.393
-87.713	-20.667	0.019	0.011
-86.699	-11.178	0.162	-0.105
-85.684	246.641	0.007	-0.012
-84.670	-200.000	-0.011	0.071
-83.655	-171.523	0.175	0.006
-82.640	800.000	-0.046	0.169
-81.626	-133.855	-0.236	0.029
-80.611	-96.750	-0.234	0.061
-79.597	-170.524	0.529	-0.018
-78.582	109.919	-0.106	-0.126
-77.567	-200.000	0.018	-0.104
-76.553	800.000	0.020	0.067
-75.538	26.192	-0.155	0.127
-74.524	-25.302	-0.133	-0.077
-73.509	75.481	0.056	0.058
-72.494	34.898	-0.135	0.116
-71.480	800.000	-0.052	0.159
-70.465	212.259	-0.139	-0.216
-69.451	-66.172	-0.190	0.075
-68.436	-107.587	0.272	-0.059
-67.422	-48.923	0.335	-0.158
-66.407	-200.000	0.032	0.193
-65.392	29.368	-0.224	0.188
-64.378	-45.399	-0.391	-0.191
-63.363	-61.098	0.264	-0.110
-62.349	175.602	0.104	0.148
-61.334	29.489	-0.907	-0.760
-60.319	-35.096	0.814	0.437
-59.305	110.718	-0.653	-0.774
-58.290	136.413	0.774	0.994
-57.276	409.130	0.889	1.853
-56.261	-200.000	96.389	598.584
-55.246	629.468	1395.125	3472.767
-54.232	192.029	2588.789	3842.590
-53.217	119.350	2186.016	2663.045
-52.203	42.468	1722.105	1541.776
-51.188	34.528	1532.881	1317.749
-50.173	32.134	1506.524	1278.763
-49.159	51.845	1555.516	1457.085
-48.144	53.299	1572.731	1483.210
-47.130	34.825	1532.660	1319.399
-46.115	31.633	1518.471	1285.264
-45.100	31.323	1515.306	1280.408
-44.086	31.450	1512.582	1278.924
-43.071	31.357	1510.714	1276.660
-42.057	31.273	1509.741	1275.212
-41.042	31.355	1508.005	1274.255
-40.027	31.342	1506.409	1272.769
-39.013	31.364	1504.632	1271.367
-37.998	31.271	1503.342	1269.596
-36.984	31.302	1502.447	1268.995
-35.969	31.316	1500.995	1267.819
-34.954	31.289	1499.789	1266.567
-33.940	31.272	1498.089	1264.961
-32.925	31.308	1497.153	1264.367
-31.911	31.408	1495.356	1263.472
-30.896	31.392	1494.025	1262.191
-29.881	31.444	1492.461	1261.167
-28.867	31.428	1491.564	1260.254
-27.852	31.398	1490.104	1258.765
-26.838	31.372	1488.841	1257.478
-25.823	31.361	1486.690	1255.534
-24.809	31.435	1485.003	1254.557
-23.794	31.455	1484.252	1254.005
-22.779	31.333	1482.607	1251.751
-21.765	31.360	1481.901	1251.285
-20.750	31.320	1480.803	1250.040
-19.736	31.336	1479.574	1249.061
-18.721	31.321	1478.163	1247.724
-17.706	31.174	1477.463	1246.097
-16.692	31.227	1476.410	1245.514
-15.677	31.219	1475.233	1244.417
-14.663	31.289	1474.108	1243.888
-13.648	31.278	1472.680	1242.560
-12.633	31.272	1472.256	1242.114
-11.619	31.371	1470.867	1241.549
-10.604	31.314	1470.333	1240.672
-9.590	31.253	1469.754	1239.728
-8.575	31.252	1468.990	1239.027
-7.560	31.222	1467.956	1237.909
-6.546	31.262	1466.825	1237.170
-5.531	31.231	1466.061	1236.272
-4.517	31.199	1465.250	1235.326
-3.502	31.127	1464.098	1233.831
-2.487	31.212	1462.747	1233.202
-1.473	31.151	1461.766	1231.927
-0.458	31.180	1461.043	1231.461
0.556	33.336	1451.502	1221.756
1.571	30.368	1425.612	1181.007
2.586	26.776	1364.580	1108.431
3.600	25.171	1282.604	1032.520
4.615	23.302	1236.500	984.932
5.629	19.955	1179.547	921.697
6.644	12.008	1095.611	816.582
7.659	5.780	1055.592	756.705
8.673	4.783	1049.732	747.652
9.688	4.514	1046.751	744.177
10.702	4.469	1044.465	742.272
11.717	4.484	1043.488	741.583
12.731	7.505	1045.989	757.732
13.746	15.576	1056.957	804.401
14.761	21.256	1064.171	837.118
15.775	22.190	1064.743	841.971
16.790	21.707	1062.936	838.162
17.804	20.738	1061.078	831.990
18.819	19.920	1058.976	826.363
19.834	19.498	1057.941	823.473
20.848	19.300	1057.233	821.903
21.863	19.342	1056.339	821.333
22.877	18.978	1056.091	819.335
23.892	18.886	1055.045	818.017
24.907	18.773	1054.429	816.927
25.921	18.876	1053.395	816.541
26.936	18.756	1052.907	815.521
27.950	18.780	1051.743	814.663
28.965	18.828	1050.944	814.198
29.980	18.947	1049.514	813.582
30.994	19.021	1048.660	813.200
32.009	19.069	1047.780	812.670
33.023	19.228	1046.959	812.714
34.038	19.122	1046.466	811.760
35.053	19.046	1045.538	810.608
36.067	18.941	1044.045	808.885
37.082	18.881	1043.212	807.885
38.096	18.892	1042.390	807.230
39.111	18.999	1042.124	807.452
40.126	19.105	1041.024	807.026
41.140	18.957	1039.735	805.264
42.155	18.771	1038.817	803.610
43.169	18.559	1037.704	801.690
44.184	18.452	1036.422	800.127
45.199	18.516	1035.034	799.282
46.213	18.429	1034.652	798.511
47.228	18.493	1033.851	798.120
48.242	18.919	1032.906	799.301
49.257	18.838	1032.576	798.602
50.271	18.832	1031.033	797.307
51.286	18.853	1030.361	796.815
52.301	19.017	1029.544	796.875
53.315	18.937	1028.907	795.937
54.330	18.821	1027.687	794.389
55.344	18.744	1026.580	793.107
56.359	18.589	1026.325	792.122
57.374	18.689	1024.823	791.357
58.388	18.561	1024.121	790.153
59.403	18.328	1023.547	788.569
60.417	18.446	1022.533	788.258
61.432	18.480	1021.819	787.798
62.447	18.350	1021.095	786.571
63.461	18.358	1020.337	785.955
64.476	18.153	1019.448	784.261
65.490	18.242	1018.363	783.763
66.505	18.170	1017.293	782.540
67.520	18.144	1016.933	782.076
68.534	18.267	1015.747	781.655
69.549	18.359	1014.992	781.425
70.563	18.366	1014.107	780.708
71.578	18.272	1013.531	779.767
72.593	18.117	1012.926	778.529
73.607	18.080	1011.871	777.481
74.622	17.998	1010.303	775.835
75.636	18.112	1009.618	775.757
76.651	18.033	1008.883	774.766
77.666	17.991	1008.458	774.178
78.680	18.164	1007.759	774.357
79.695	18.117	1007.600	773.952
80.709	18.275	1006.788	773.976
81.724	18.358	1006.229	773.851
82.739	18.539	1005.160	773.777
83.753	18.537	1004.604	773.275
84.768	18.713	1004.216	773.701
85.782	19.067	1003.720	774.845
86.797	19.247	1003.264	775.233
87.812	19.271	1002.532	774.707
88.826	19.044	1001.513	772.830
89.841	19.059	1000.617	772.137
90.855	18.978	1000.141	771.338
91.870	19.184	998.858	771.203
92.884	19.143	998.680	770.816
93.899	19.074	998.200	770.067
94.914	19.102	997.026	769.221
95.928	19.148	996.190	768.714
96.943	19.194	995.680	768.457
97.957	19.159	994.739	767.504
98.972	19.040	993.666	766.081
99.987	19.011	992.790	765.208
101.001	19.049	992.250	764.893
102.016	19.097	991.308	764.312
103.030	19.073	990.343	763.392
104.045	19.080	989.388	762.619
105.060	19.089	988.962	762.266
106.074	18.936	987.681	760.533
107.089	18.796	986.478	758.920
108.103	18.528	985.413	756.852
109.118	18.297	984.813	755.307
110.133	18.359	983.581	754.569
111.147	18.339	982.691	753.729
112.162	18.334	982.128	753.208
113.176	18.252	981.379	752.205
114.191	18.517	980.283	752.465
115.206	18.584	979.738	752.270
116.220	18.584	978.948	751.601
117.235	18.548	977.918	750.585
118.249	18.308	977.495	749.142
119.264	18.367	976.042	748.221
120.279	18.443	975.117	747.778
121.293	18.249	974.621	746.487
122.308	18.249	973.691	745.708
123.322	18.165	973.248	744.938
124.337	18.031	971.800	743.178
125.352	18.037	970.842	742.407
126.366	18.104	969.814	741.844
127.381	18.019	969.050	740.826
128.395	17.889	968.264	739.599
129.410	18.108	966.870	739.415
130.424	18.265	965.885	739.274
131.439	18.134	965.484	738.338
132.454	18.481	964.507	739.019
133.468	18.430	964.077	738.405
134.483	18.503	963.418	738.149
135.497	18.397	962.785	737.145
136.512	18.610	961.884	737.304
137.527	18.489	961.117	736.131
138.541	18.427	960.672	735.460
139.556	18.566	959.708	735.253
140.570	18.457	959.259	734.374
141.585	18.686	958.350	734.596
142.600	18.878	957.944	735.040
143.614	18.882	957.121	734.360
144.629	18.930	956.730	734.202
145.643	19.097	955.682	734.045
146.658	19.124	954.638	733.292
147.673	18.850	953.488	731.178
148.687	18.640	953.081	729.907
149.702	18.637	951.892	728.919
150.716	18.572	950.545	727.549
151.731	18.494	949.987	726.728
152.746	18.429	949.227	725.804
153.760	18.589	949.035	726.270
154.775	18.674	947.810	725.628
155.789	18.609	947.275	724.883
156.804	18.762	946.857	725.143
157.819	18.676	945.928	724.006
158.833	18.914	945.039	724.264
159.848	18.880	944.869	723.924
160.862	19.084	943.820	723.917
161.877	19.133	942.997	723.428
162.892	18.837	942.005	721.357
163.906	18.528	941.076	719.286
164.921	18.327	940.627	718.039
165.935	18.395	939.080	717.080
166.950	18.542	938.276	717.016
167.964	18.713	937.419	717.010
168.979	18.656	936.383	715.917
169.994	18.625	935.340	714.929
171.008	18.613	934.805	714.405
172.023	18.694	933.598	713.757
173.037	18.891	932.853	713.944
174.052	19.130	932.321	714.466
175.067	19.164	931.508	713.921
176.081	18.745	931.108	711.812
177.096	18.481	930.007	709.816
178.110	18.368	929.190	708.663
179.125	18.605	928.314	708.908
180.140	18.546	927.927	708.308
181.154	18.612	927.252	708.004
182.169	18.763	926.460	707.959
183.183	18.906	926.488	708.507
184.198	19.151	925.543	708.730
185.213	19.061	924.635	707.602
186.227	19.059	923.802	706.892
187.242	19.040	924.028	706.924
188.256	19.078	923.114	706.320
189.271	19.178	922.859	706.471
190.286	19.289	921.821	706.071
191.300	19.073	920.853	704.380
192.315	18.613	919.663	701.530
193.329	18.374	918.888	699.897
194.344	18.563	917.625	699.647
195.359	18.619	917.395	699.639
196.373	18.878	916.848	700.214
197.388	18.967	916.862	700.526
198.402	18.969	916.461	700.165
199.417	19.236	916.118	700.927
200.432	19.376	915.751	701.151
201.446	19.401	915.671	701.129
202.461	19.598	915.245	701.543
203.475	19.591	914.383	700.792
204.490	19.544	913.969	700.221
205.504	19.264	912.810	698.140
206.519	19.263	911.542	697.104
207.534	19.107	911.161	696.118
208.548	19.096	910.304	695.358
209.563	19.197	909.357	694.982
210.577	19.250	909.070	694.915
211.592	19.328	908.139	694.455
212.607	19.352	908.028	694.403
213.621	19.362	907.872	694.262
214.636	19.575	906.477	693.993
215.650	19.459	906.215	693.263
216.665	19.470	905.401	692.622
217.680	19.464	905.366	692.513
218.694	19.639	904.924	692.815
219.709	19.797	904.228	692.855
220.723	19.606	903.919	691.792
221.738	19.662	902.630	690.966
222.753	19.415	902.230	689.611
223.767	19.670	901.450	689.972
224.782	19.565	900.814	689.005
225.796	19.694	900.116	688.925
226.811	19.832	899.353	688.830
227.826	19.649	898.889	687.686
228.840	19.386	897.826	685.767
229.855	19.501	896.807	685.384
230.869	19.515	896.518	685.160
231.884	19.431	896.110	684.453
232.899	19.429	895.421	683.856
233.913	19.252	894.474	682.371
234.928	19.181	893.718	681.454
235.942	19.249	892.985	681.102
236.957	19.242	892.042	680.297
237.972	19.139	891.514	679.428
238.986	19.249	890.997	679.408
240.001	19.196	890.405	678.689
241.015	19.225	889.620	678.143
242.030	19.378	889.141	678.320
243.045	19.427	888.522	677.980
244.059	19.366	888.442	677.618
245.074	19.544	887.407	677.469
246.088	19.548	886.914	677.047
247.103	19.642	886.547	677.075
248.117	19.631	886.174	676.688
249.132	19.798	885.389	676.682
250.147	20.037	885.094	677.331
251.161	20.337	884.568	678.041
252.176	20.452	883.838	677.871
253.190	20.466	883.133	677.325
254.205	20.359	883.064	676.792
255.220	20.593	882.340	677.091
256.234	20.548	881.544	676.245
257.249	20.333	881.087	675.000
258.263	20.472	880.127	674.743
259.278	20.493	879.442	674.241
260.293	20.339	879.614	673.713
261.307	20.428	878.681	673.284
262.322	20.546	878.276	673.373
263.336	20.599	877.640	673.030
264.351	20.546	877.286	672.496
265.366	20.649	876.501	672.232
266.380	20.555	876.031	671.450
267.395	20.718	874.725	671.014
268.409	20.560	874.078	669.852
269.424	20.442	873.383	668.808
270.439	20.384	873.192	668.377
271.453	20.474	871.925	667.696
272.468	20.258	871.202	666.250
273.482	20.160	870.792	665.504
274.497	20.192	870.300	665.193
275.512	20.332	869.734	665.236
276.526	20.291	868.465	664.050
277.541	20.323	868.081	663.819
278.555	20.265	867.531	663.119
279.570	20.445	867.163	663.465
280.585	20.714	866.747	664.115
281.599	20.634	866.338	663.438
282.614	20.605	865.308	662.480
283.628	20.497	864.618	661.482
284.643	20.383	864.320	660.762
285.657	20.406	863.959	660.515
286.672	20.384	862.873	659.542
287.687	20.434	862.401	659.316
288.701	20.514	861.853	659.141
289.716	20.387	861.399	658.254
290.730	20.382	861.002	657.872
291.745	20.611	860.149	658.028
292.760	20.527	859.712	657.318
293.774	20.686	859.199	657.471
294.789	20.891	858.435	657.599
295.803	20.759	858.307	656.947
296.818	20.774	856.925	655.885
297.833	20.536	856.787	654.828
298.847	20.402	855.914	653.596
299.862	20.568	855.027	653.486
300.876	20.542	854.648	653.043
301.891	20.760	854.168	653.433
302.906	20.883	853.460	653.296
303.920	20.980	852.905	653.179
304.935	21.066	852.610	653.217
305.949	21.228	851.985	653.284
306.964	20.996	851.532	652.014
307.979	20.859	850.797	650.880
308.993	20.881	850.037	650.322
310.008	21.025	849.670	650.524
311.022	21.008	849.137	649.993
312.037	21.031	848.689	649.680
313.052	20.863	848.124	648.564
314.066	20.884	847.072	647.778
315.081	20.502	846.589	645.935
316.095	20.567	845.875	645.574
317.110	20.556	845.507	645.193
318.125	20.525	844.916	644.570
319.139	20.568	844.335	644.230
320.154	20.643	844.014	644.207
321.168	20.497	843.296	643.062
322.183	20.698	842.634	643.241
323.197	20.802	842.073	643.141
324.212	20.830	841.526	642.768
325.227	20.724	841.260	642.119
326.241	20.731	840.603	641.586
327.256	20.652	840.407	641.088
328.270	20.665	839.773	640.596
329.285	20.735	839.001	640.207
330.300	20.640	838.436	639.370
331.314	20.767	837.764	639.269
332.329	20.572	837.363	638.190
333.343	20.799	836.846	638.573
334.358	20.928	836.645	638.834
335.373	21.014	835.679	638.355
336.387	21.146	834.912	638.196
337.402	20.986	834.790	637.461
338.416	21.119	834.175	637.421
339.431	21.363	833.545	637.773
340.446	21.407	833.222	637.631
341.460	21.492	832.790	637.552
342.475	21.489	832.559	637.308
343.489	21.578	831.629	636.866
344.504	21.563	831.508	636.659
345.519	21.669	830.846	636.482
346.533	21.808	830.438	636.620
347.548	21.732	829.579	635.630
348.562	21.462	829.107	634.230
349.577	21.266	828.472	632.980
350.592	21.197	827.926	632.255
351.606	21.086	827.259	631.289
352.621	20.991	826.576	630.368
353.635	21.014	826.406	630.267
354.650	21.127	826.156	630.427
355.665	21.185	825.779	630.295
356.679	21.158	825.188	629.690
357.694	21.495	824.764	630.527
358.708	21.339	824.322	629.569
359.723	21.298	823.858	629.011
360.738	21.230	823.497	628.437
361.752	21.359	822.719	628.249
362.767	21.497	822.292	628.364
363.781	21.527	821.789	628.033
364.796	21.754	821.482	628.555
365.810	21.935	820.811	628.637
366.825	22.015	820.802	628.859
367.840	22.047	820.572	628.743
368.854	21.967	820.196	628.114
369.869	21.945	819.163	627.186
370.883	21.822	818.687	626.328
371.898	21.850	817.912	625.779
372.913	21.891	817.716	625.721
373.927	21.964	817.490	625.754
374.942	21.781	816.489	624.281
375.956	21.686	815.658	623.252
376.971	22.105	814.981	624.168
377.986	22.152	814.445	623.869
379.000	22.142	814.583	623.885
380.015	22.324	814.021	624.045
381.029	22.112	813.390	622.752
382.044	22.084	812.508	621.926
383.059	22.083	812.275	621.687
384.073	22.099	811.802	621.326
385.088	21.995	810.787	620.128
386.102	21.890	810.428	619.428
387.117	21.638	809.961	618.126
388.132	21.642	809.447	617.692
389.146	21.776	808.451	617.349
390.161	21.705	808.853	617.351
391.175	21.935	808.233	617.633
392.190	22.038	808.078	617.824
393.205	21.900	807.407	616.773
394.219	21.843	806.974	616.185
395.234	21.831	806.242	615.528
396.248	21.787	805.701	614.909
397.263	21.669	805.098	613.978
398.278	21.497	804.725	613.039
399.292	21.500	803.783	612.277
400.307	21.476	803.808	612.158
401.321	21.569	803.189	611.957
402.336	21.654	802.955	612.021
403.350	21.682	802.601	611.794
404.365	21.910	802.050	612.119
405.380	21.870	802.048	611.922
406.394	22.210	801.344	612.514
407.409	22.190	801.051	612.168
408.423	22.345	800.469	612.208
409.438	22.401	800.432	612.321
410.453	22.532	799.658	612.129
411.467	22.585	799.465	612.112
412.482	22.477	799.000	611.324
413.496	22.627	798.311	611.266
414.511	22.639	798.101	611.091
415.526	22.731	797.965	611.251
416.540	22.703	797.307	610.596
417.555	22.512	796.769	609.473
418.569	22.444	796.422	608.915
419.584	22.568	795.957	608.937
420.599	22.419	795.500	608.017
421.613	162.656	1368.451	1795.097
422.628	141.159	1451.938	1795.194
