DTS Sentinel unit serial number:	SN413079Multiplexer serial number:	ORYXHardware model number:	OX4-SRSoftware version number:	ORYX F/W v4.00 Oryx Data Collector v3.7.2.0data status	okinstallation	princeton_trtdifferential loss correction	single-endedforward channel	channel 3reverse channel	N/Adate	2019/09/15time	00:16:35forward acquisition time	60.00reverse acquisition time	0.00gamma	496.2192k internal	0.2320k external	0.2320temperature offset calibration	0.9974default loss term (dB/km)	0.3790temperature slope calibration	1.0000multiplexer offset coefficient	1.0000multiplexer slope coefficient	1.0000fibre end	0.00T internal ref (°C)	32.19T ext. ref 1 (°C)	4.59T ext. ref 2 (°C)	27.17length (m)	temperature (°C)	Stokes	anti-Stokes-747.200	800.000	0.069	0.221
-746.185	56.696	-0.303	0.298
-745.171	145.027	-0.281	-0.380
-744.156	196.313	-0.147	-0.226
-743.142	-102.101	0.159	-0.039
-742.127	118.568	-0.173	0.216
-741.112	60.353	-0.110	-0.110
-740.098	-92.767	-0.074	-0.021
-739.083	-135.312	0.277	-0.034
-738.069	-126.812	-0.158	0.024
-737.054	-2.438	-0.231	0.164
-736.039	309.239	0.153	0.290
-735.025	-142.797	0.205	-0.020
-734.010	139.416	-0.188	-0.250
-732.996	-78.595	-0.630	0.218
-731.981	-200.000	0.191	0.001
-730.966	800.000	-0.058	-0.231
-729.952	-35.970	-0.097	-0.053
-728.937	151.259	-0.308	-0.424
-727.923	-66.379	0.210	-0.084
-726.908	-74.331	-0.148	-0.054
-725.894	-200.000	0.017	0.217
-724.879	120.468	-0.116	0.145
-723.864	-82.215	-0.213	0.070
-722.850	-97.857	-0.113	0.029
-721.835	378.666	-0.064	0.133
-720.821	-20.870	0.143	-0.089
-719.806	55.611	0.146	0.143
-718.791	184.595	0.057	0.086
-717.777	-23.090	-0.184	-0.112
-716.762	30.770	0.119	-0.103
-715.748	-200.000	-0.062	0.361
-714.733	-24.339	-0.397	-0.239
-713.718	-200.000	-0.020	-0.094
-712.704	-173.948	-0.129	0.004
-711.689	-28.290	-0.188	-0.110
-710.675	-29.469	0.073	-0.042
-709.660	-55.196	-0.119	0.054
-708.645	-91.348	0.185	-0.053
-707.631	-11.555	0.130	-0.086
-706.616	-98.466	-0.342	-0.088
-705.602	611.500	0.078	-0.196
-704.587	-96.620	0.224	-0.060
-703.572	2.904	-0.181	0.132
-702.558	12.368	0.138	-0.108
-701.543	642.985	-0.053	0.137
-700.529	121.076	-0.077	-0.096
-699.514	259.436	-0.103	-0.180
-698.499	86.578	0.133	-0.148
-697.485	-102.875	-0.290	0.070
-696.470	-39.594	0.238	-0.126
-695.456	-128.252	-0.226	0.032
-694.441	-149.373	-0.277	0.022
-693.426	-113.198	0.219	0.043
-692.412	-136.527	0.417	0.049
-691.397	-150.240	-0.106	0.008
-690.383	800.000	-0.025	0.107
-689.368	82.797	-0.051	-0.056
-688.354	586.523	0.068	-0.169
-687.339	-78.760	0.338	-0.116
-686.324	762.533	-0.057	0.155
-685.310	-200.000	-0.006	-0.325
-684.295	618.172	-0.102	-0.258
-683.281	800.000	0.079	0.283
-682.266	-200.000	0.018	0.189
-681.251	-147.890	0.026	-0.002
-680.237	800.000	0.056	-0.166
-679.222	43.933	0.165	-0.152
-678.208	-75.856	0.301	0.108
-677.193	-200.000	-0.003	-0.237
-676.178	-79.842	-0.274	-0.093
-675.164	-138.747	0.170	0.019
-674.149	-200.000	0.022	-0.226
-673.135	-200.000	-0.004	-0.240
-672.120	28.870	0.469	-0.401
-671.105	270.164	-0.019	0.033
-670.091	139.950	-0.121	-0.161
-669.076	56.807	-0.114	-0.112
-668.062	-5.905	0.085	0.059
-667.047	114.862	-0.171	0.211
-666.032	-96.926	0.186	0.049
-665.018	81.352	-0.146	-0.159
-664.003	-72.517	-0.473	0.176
-662.989	-200.000	-0.039	0.292
-661.974	89.350	-0.112	0.126
-660.959	73.209	-0.143	0.151
-659.945	-91.043	0.136	-0.039
-658.930	800.000	0.043	-0.177
-657.916	221.973	-0.023	-0.037
-656.901	800.000	-0.066	-0.263
-655.886	-200.000	0.005	0.174
-654.872	-85.096	-0.102	0.032
-653.857	-200.000	0.080	-0.379
-652.843	605.842	-0.049	-0.122
-651.828	129.965	0.207	-0.267
-650.814	-5.469	0.116	0.081
-649.799	-113.679	-0.216	-0.042
-648.784	-111.405	0.348	0.072
-647.770	-54.246	-0.407	-0.186
-646.755	-61.241	0.159	-0.068
-645.741	94.821	-0.077	0.089
-644.726	4.083	0.324	0.239
-643.711	77.865	0.320	-0.344
-642.697	-200.000	-0.059	-0.319
-641.682	-200.000	-0.019	-0.303
-640.668	-68.609	0.321	0.125
-639.653	-135.677	-0.216	0.026
-638.638	58.070	0.286	-0.282
-637.624	-200.000	-0.016	-0.081
-636.609	330.781	-0.185	-0.359
-635.595	131.509	0.098	-0.126
-634.580	-200.000	-0.039	0.188
-633.565	-99.315	0.148	0.038
-632.551	-200.000	0.033	-0.239
-631.536	-153.017	0.232	0.016
-630.522	28.032	-0.059	-0.050
-629.507	800.000	0.053	-0.195
-628.492	121.314	-0.078	-0.098
-627.478	118.139	-0.147	-0.183
-626.463	800.000	0.060	0.210
-625.449	-200.000	-0.004	0.086
-624.434	161.791	-0.081	-0.115
-623.419	240.005	0.025	0.041
-622.405	-86.258	-0.264	0.082
-621.390	765.573	0.041	0.113
-620.376	346.550	-0.012	-0.024
-619.361	348.874	0.143	0.284
-618.346	-200.000	-0.018	-0.235
-617.332	249.068	0.032	-0.055
-616.317	70.372	0.167	-0.173
-615.303	-28.733	0.167	0.097
-614.288	252.155	-0.106	-0.182
-613.273	-200.000	0.019	-0.109
-612.259	-13.974	0.180	-0.117
-611.244	800.000	-0.051	-0.149
-610.230	-8.506	0.297	-0.201
-609.215	-54.415	0.045	0.020
-608.201	-91.135	-0.349	-0.101
-607.186	-111.431	0.117	-0.024
-606.171	11.084	0.131	-0.101
-605.157	-30.382	-0.118	0.068
-604.142	-180.752	-0.355	-0.007
-603.128	-37.209	-0.354	0.190
-602.113	800.000	-0.093	0.286
-601.098	-124.987	-0.163	-0.025
-600.084	106.186	-0.089	-0.107
-599.069	-43.880	-0.063	0.032
-598.055	-131.036	0.312	0.042
-597.040	80.404	0.093	0.100
-596.025	11.702	0.187	-0.144
-595.011	-175.067	-0.142	0.004
-593.996	-94.545	-0.325	-0.089
-592.982	-182.518	-0.242	-0.004
-591.967	800.000	-0.044	0.145
-590.952	-98.565	0.204	0.052
-589.938	-51.822	-0.219	-0.103
-588.923	-93.038	-0.203	0.057
-587.909	14.129	-0.186	-0.145
-586.894	-149.319	0.245	-0.020
-585.879	400.866	0.051	0.108
-584.865	360.785	-0.225	-0.454
-583.850	-200.000	0.036	0.266
-582.836	75.139	-0.075	0.080
-581.821	-159.780	-0.502	0.028
-580.806	-138.124	0.377	0.042
-579.792	-200.000	0.026	-0.195
-578.777	-77.506	-0.048	-0.017
-577.763	-50.387	0.123	-0.058
-576.748	-200.000	0.038	0.228
-575.733	21.382	0.245	-0.200
-574.719	-76.174	-0.442	0.157
-573.704	187.987	0.054	0.081
-572.690	266.501	-0.087	0.154
-571.675	23.716	-0.166	0.138
-570.661	-200.000	0.044	-0.487
-569.646	66.431	0.156	0.159
-568.631	108.603	0.062	-0.074
-567.617	-117.629	0.149	-0.027
-566.602	-200.000	0.039	0.199
-565.588	-85.007	-0.032	-0.010
-564.573	-92.023	-0.233	0.066
-563.558	-9.012	0.094	0.063
-562.544	516.109	0.098	-0.229
-561.529	542.082	0.047	0.113
-560.515	375.538	0.266	-0.544
-559.500	523.614	0.085	0.201
-558.485	-132.033	0.173	-0.023
-557.471	-20.115	-0.086	0.053
-556.456	11.892	0.053	-0.041
-555.442	199.545	-0.086	0.132
-554.427	295.338	-0.052	0.095
-553.412	99.324	-0.178	0.206
-552.398	-59.264	0.311	0.135
-551.383	502.200	-0.064	-0.148
-550.369	800.000	0.045	-0.131
-549.354	218.799	0.068	-0.108
-548.339	73.430	0.169	0.178
-547.325	-148.181	0.184	0.015
-546.310	800.000	0.078	-0.256
-545.296	-69.970	0.135	0.052
-544.281	8.560	-0.137	-0.103
-543.266	-200.000	0.005	0.217
-542.252	-200.000	0.006	-0.173
-541.237	-200.000	0.016	-0.247
-540.223	137.408	0.140	-0.184
-539.208	-2.759	0.291	-0.204
-538.193	10.143	0.256	-0.195
-537.179	-19.912	-0.166	0.103
-536.164	800.000	0.073	-0.238
-535.150	136.534	-0.065	-0.086
-534.135	-133.607	-0.136	-0.017
-533.121	800.000	0.103	0.402
-532.106	-200.000	-0.042	-0.362
-531.091	-5.685	0.045	0.031
-530.077	-200.000	-0.035	0.202
-529.062	-200.000	-0.019	-0.156
-528.048	-1.112	-0.082	-0.058
-527.033	601.885	0.045	-0.113
-526.018	-200.000	0.002	-0.042
-525.004	-169.027	-0.238	0.009
-523.989	230.997	0.154	0.253
-522.975	364.143	-0.211	-0.426
-521.960	-86.916	-0.137	-0.042
-520.945	288.748	-0.098	0.178
-519.931	-200.000	-0.066	0.388
-518.916	100.550	-0.102	0.119
-517.902	-200.000	0.012	0.132
-516.887	-200.000	0.021	-0.287
-515.872	-171.748	-0.073	-0.002
-514.858	-67.584	0.359	0.141
-513.843	315.685	-0.064	0.122
-512.829	-59.421	0.215	-0.092
-511.814	8.657	-0.112	-0.085
-510.799	30.326	-0.197	0.169
-509.785	80.816	-0.062	-0.066
-508.770	-76.326	0.185	0.065
-507.756	-81.626	-0.142	-0.047
-506.741	-200.000	-0.002	-0.112
-505.726	-200.000	-0.028	0.154
-504.712	28.023	-0.266	-0.225
-503.697	-200.000	-0.008	0.042
-502.683	-119.837	0.063	-0.011
-501.668	-56.747	0.310	-0.138
-500.653	-91.278	0.119	-0.034
-499.639	-115.722	0.177	-0.033
-498.624	-200.000	-0.011	-0.077
-497.610	78.289	0.202	0.216
-496.595	124.930	0.185	0.234
-495.581	-177.109	-0.333	-0.008
-494.566	-7.522	0.152	-0.103
-493.551	210.604	0.023	-0.036
-492.537	175.082	-0.047	-0.068
-491.522	-9.521	-0.078	-0.052
-490.508	800.000	0.039	0.115
-489.493	-109.428	-0.208	0.044
-488.478	-117.171	0.055	-0.010
-487.464	-103.964	-0.086	0.020
-486.449	386.029	-0.050	0.104
-485.435	-200.000	-0.039	0.301
-484.420	270.983	-0.032	-0.056
-483.405	-200.000	0.036	-0.161
-482.391	217.727	0.092	0.147
-481.376	63.456	-0.183	0.184
-480.362	-99.255	-0.404	0.102
-479.347	132.366	-0.250	0.322
-478.332	160.767	0.096	0.134
-477.318	177.720	0.225	0.329
-476.303	-200.000	0.000	0.060
-475.289	-133.484	-0.227	0.028
-474.274	-200.000	0.001	0.045
-473.259	800.000	0.029	-0.090
-472.245	72.335	-0.220	0.230
-471.230	5.453	-0.154	0.113
-470.216	-7.565	-0.287	-0.194
-469.201	800.000	-0.031	-0.114
-468.186	-200.000	0.025	-0.281
-467.172	16.856	0.136	0.108
-466.157	-109.632	-0.207	0.044
-465.143	461.310	-0.065	-0.145
-464.128	-118.018	-0.140	0.025
-463.113	-95.798	0.257	-0.069
-462.099	95.682	0.106	-0.121
-461.084	-200.000	0.055	-0.391
-460.070	324.929	-0.041	-0.079
-459.055	-10.543	-0.311	0.206
-458.040	19.943	-0.186	0.150
-457.026	-200.000	0.030	0.176
-456.011	32.716	0.382	0.330
-454.997	-200.000	0.034	0.470
-453.982	78.838	-0.060	0.064
-452.968	-195.108	-0.310	0.002
-451.953	-80.764	-0.246	0.082
-450.938	-164.952	0.328	0.015
-449.924	800.000	0.039	-0.137
-448.909	-148.477	-0.012	0.001
-447.895	-200.000	-0.033	-0.219
-446.880	-133.882	0.294	-0.037
-445.865	-12.796	-0.193	-0.126
-444.851	499.038	0.101	-0.233
-443.836	-45.694	-0.126	0.062
-442.822	68.631	0.105	-0.107
-441.807	-200.000	-0.025	-0.239
-440.792	-87.102	-0.139	0.042
-439.778	-200.000	0.018	0.252
-438.763	162.577	-0.145	0.203
-437.749	183.032	-0.097	-0.144
-436.734	-11.605	-0.250	-0.164
-435.719	-59.163	0.024	-0.010
-434.705	-200.000	-0.012	-0.166
-433.690	-200.000	-0.009	-0.184
-432.676	291.066	-0.062	-0.112
-431.661	756.333	-0.078	-0.211
-430.646	211.140	-0.090	0.142
-429.632	-200.000	0.037	0.214
-428.617	360.883	0.039	0.078
-427.603	-26.331	0.061	0.036
-426.588	800.000	-0.023	-0.091
-425.573	148.644	-0.343	-0.462
-424.559	87.071	0.005	0.006
-423.544	228.887	-0.051	0.082
-422.530	47.904	0.278	-0.260
-421.515	-71.631	0.245	0.091
-420.500	-106.515	-0.146	0.032
-419.486	800.000	0.072	0.243
-418.471	-200.000	-0.012	0.245
-417.457	-200.000	-0.016	0.167
-416.442	800.000	0.059	0.191
-415.428	-125.011	-0.199	-0.031
-414.413	-125.632	-0.103	0.016
-413.398	-28.813	0.077	-0.044
-412.384	-200.000	-0.012	-0.275
-411.369	145.825	-0.081	0.109
-410.355	-67.338	0.040	0.016
-409.340	306.837	0.145	0.270
-408.325	-200.000	0.007	0.230
-407.311	-200.000	0.070	0.313
-406.296	-16.633	0.348	0.220
-405.282	-165.651	0.257	0.011
-404.267	88.076	0.165	-0.182
-403.252	-11.732	0.212	0.139
-402.238	66.775	-0.042	-0.043
-401.223	39.614	0.071	0.063
-400.209	-59.711	0.162	0.069
-399.194	-12.279	-0.239	-0.156
-398.179	-16.042	-0.247	-0.157
-397.165	-46.750	0.275	0.134
-396.150	-200.000	-0.051	0.511
-395.136	60.543	-0.121	-0.120
-394.121	-117.463	-0.144	-0.026
-393.106	-200.000	-0.012	-0.152
-392.092	800.000	0.075	-0.320
-391.077	-75.582	-0.331	-0.117
-390.063	-22.964	-0.161	0.097
-389.048	800.000	0.083	0.233
-388.033	-200.000	-0.006	0.307
-387.019	-124.673	0.265	0.041
-386.004	-16.613	-0.330	0.208
-384.990	-96.706	0.044	-0.012
-383.975	113.112	0.134	-0.162
-382.960	115.045	-0.179	-0.217
-381.946	200.830	0.198	-0.304
-380.931	-125.322	-0.089	0.014
-379.917	-200.000	0.041	0.285
-378.902	-130.077	-0.275	-0.037
-377.888	-81.453	-0.394	-0.129
-376.873	-134.483	0.158	0.019
-375.858	-41.060	0.160	-0.082
-374.844	-123.530	0.223	0.035
-373.829	-77.248	0.111	0.038
-372.815	-43.294	-0.161	-0.081
-371.800	231.580	0.137	0.224
-370.785	56.537	0.059	-0.057
-369.771	-107.804	0.167	-0.036
-368.756	309.239	0.054	0.101
-367.742	150.062	0.224	-0.303
-366.727	86.434	0.178	0.195
-365.712	92.486	-0.135	-0.151
-364.698	193.644	-0.052	-0.078
-363.683	419.736	-0.029	0.063
-362.669	-126.841	-0.085	0.012
-361.654	103.174	-0.164	-0.192
-360.639	800.000	-0.075	0.248
-359.625	-76.933	0.350	0.122
-358.610	-126.905	-0.389	-0.057
-357.596	1.060	-0.129	0.092
-356.581	-125.185	0.225	0.034
-355.566	32.434	-0.204	0.175
-354.552	384.595	0.013	-0.027
-353.537	-21.922	0.049	-0.029
-352.523	-35.767	-0.338	-0.182
-351.508	-40.593	-0.159	-0.082
-350.493	-77.161	-0.026	-0.009
-349.479	-148.946	0.033	0.003
-348.464	-200.000	-0.008	0.410
-347.450	-68.356	0.367	-0.142
-346.435	800.000	0.035	-0.130
-345.420	-181.492	0.381	0.007
-344.406	-200.000	0.002	-0.159
-343.391	-34.259	0.138	0.075
-342.377	-29.849	-0.081	0.046
-341.362	-200.000	0.051	-0.400
-340.348	-138.114	-0.156	-0.017
-339.333	-145.805	-0.176	0.016
-338.318	-200.000	0.006	0.209
-337.304	-200.000	-0.025	0.146
-336.289	286.104	-0.064	-0.114
-335.275	-16.015	-0.034	-0.021
-334.260	1.587	-0.255	-0.183
-333.245	236.865	-0.114	-0.188
-332.231	180.387	0.231	0.337
-331.216	-200.000	-0.020	-0.217
-330.202	800.000	-0.023	-0.098
-329.187	-200.000	-0.033	0.166
-328.172	-84.947	-0.340	0.106
-327.158	-69.343	-0.363	-0.139
-326.143	-115.052	0.145	-0.027
-325.129	-40.191	-0.225	-0.117
-324.114	196.357	0.223	0.337
-323.099	160.267	0.076	0.105
-322.085	794.171	0.068	-0.185
-321.070	-200.000	0.024	-0.307
-320.056	168.339	-0.092	0.130
-319.041	-200.000	0.011	-0.172
-318.026	-134.557	-0.373	-0.045
-317.012	97.212	-0.288	-0.329
-315.997	-200.000	0.015	0.232
-314.983	-62.038	0.136	-0.056
-313.968	-105.425	0.253	0.057
-312.953	136.080	-0.135	0.175
-311.939	-141.641	-0.040	0.004
-310.924	-6.612	-0.149	0.101
-309.910	296.971	0.130	-0.238
-308.895	-100.288	0.090	-0.022
-307.880	-146.087	0.081	-0.007
-306.866	-106.646	-0.129	-0.029
-305.851	-1.330	0.160	-0.112
-304.837	12.361	-0.130	0.100
-303.822	22.533	0.188	-0.152
-302.807	427.442	-0.059	-0.127
-301.793	-4.250	0.234	0.161
-300.778	800.000	-0.015	0.067
-299.764	674.152	0.111	0.286
-298.749	800.000	-0.139	0.426
-297.735	-96.654	-0.262	-0.069
-296.720	201.316	-0.171	-0.262
-295.705	-106.595	0.309	0.068
-294.691	800.000	0.064	0.176
-293.676	800.000	-0.109	0.389
-292.662	119.653	0.087	0.107
-291.647	-33.438	0.105	-0.058
-290.632	-200.000	0.011	-0.215
-289.618	202.740	0.133	0.204
-288.603	207.216	0.146	0.226
-287.589	232.898	0.101	0.166
-286.574	-147.085	-0.110	0.009
-285.559	-174.320	0.119	0.003
-284.545	475.712	0.091	-0.203
-283.530	-200.000	-0.013	-0.209
-282.516	-200.000	0.007	0.092
-281.501	399.761	0.114	-0.237
-280.486	-66.300	-0.157	-0.062
-279.472	424.485	0.149	-0.317
-278.457	95.075	0.258	-0.291
-277.443	83.779	-0.253	-0.274
-276.428	437.301	-0.095	0.205
-275.413	243.694	-0.049	-0.082
-274.399	-144.904	-0.134	-0.012
-273.384	-101.785	0.441	0.106
-272.370	124.415	-0.160	0.200
-271.355	-51.899	0.181	-0.084
-270.340	-82.013	-0.177	-0.057
-269.326	498.686	-0.023	0.053
-268.311	-104.466	0.101	-0.023
-267.297	48.260	0.088	-0.082
-266.282	604.285	-0.100	0.247
-265.267	-200.000	0.041	-0.189
-264.253	-57.378	-0.101	0.044
-263.238	30.829	-0.267	-0.227
-262.224	-187.868	0.205	0.003
-261.209	-93.279	0.122	-0.034
-260.195	258.124	-0.091	0.155
-259.180	800.000	0.106	-0.305
-258.165	-148.288	0.207	0.017
-257.151	-0.713	-0.027	-0.019
-256.136	57.377	0.062	-0.060
-255.122	-21.704	-0.126	-0.076
-254.107	-97.051	0.305	-0.079
-253.092	28.476	0.072	-0.060
-252.078	-122.636	0.019	-0.003
-251.063	-97.887	0.342	0.088
-250.049	-6.304	0.136	0.092
-249.034	625.277	0.048	-0.121
-248.019	39.373	-0.162	0.144
-247.005	98.409	0.079	0.090
-245.990	243.654	-0.064	-0.107
-244.976	-147.725	-0.316	-0.026
-243.961	-135.402	-0.022	0.003
-242.946	490.079	-0.087	0.196
-241.932	-166.901	0.197	-0.008
-240.917	51.417	0.309	-0.291
-239.903	800.000	0.060	0.208
-238.888	113.965	-0.095	-0.115
-237.873	-62.210	0.553	0.229
-236.859	-89.133	0.228	-0.067
-235.844	-200.000	-0.014	0.206
-234.830	189.649	0.086	0.128
-233.815	-200.000	0.390	-0.001
-232.800	5.553	-0.181	0.132
-231.786	-135.858	-0.351	0.041
-230.771	-35.018	0.099	-0.053
-229.757	625.329	0.059	-0.147
-228.742	-106.031	-0.120	-0.027
-227.727	17.349	0.276	-0.217
-226.713	-145.612	0.227	0.020
-225.698	238.457	-0.055	-0.091
-224.684	800.000	0.078	0.238
-223.669	-121.092	0.142	0.024
-222.655	-190.671	0.322	0.003
-221.640	166.740	-0.043	0.060
-220.625	29.607	-0.144	0.122
-219.611	-96.587	-0.201	-0.053
-218.596	64.662	-0.139	-0.139
-217.582	601.048	0.109	-0.269
-216.567	-84.941	0.235	0.073
-215.552	43.137	-0.165	0.149
-214.538	800.000	-0.061	-0.218
-213.523	-200.000	-0.001	0.239
-212.509	-200.000	0.016	0.271
-211.494	-200.000	-0.018	0.324
-210.479	-128.497	0.020	-0.003
-209.465	-42.180	0.048	-0.024
-208.450	-15.738	-0.036	0.023
-207.436	-11.205	0.043	-0.028
-206.421	-200.000	0.077	0.459
-205.406	201.344	-0.058	-0.088
-204.392	77.266	0.087	0.091
-203.377	800.000	-0.049	0.140
-202.363	-81.663	-0.224	0.073
-201.348	-110.591	0.163	0.033
-200.333	158.000	0.166	0.227
-199.319	-147.265	0.255	0.021
-198.304	-57.147	-0.365	0.159
-197.290	-200.000	0.016	-0.396
-196.275	165.273	0.252	-0.353
-195.260	800.000	-0.068	-0.197
-194.246	241.260	-0.107	-0.177
-193.231	173.874	0.178	0.254
-192.217	-71.481	-0.142	0.053
-191.202	-117.686	0.074	-0.013
-190.187	7.754	-0.349	0.259
-189.173	95.652	0.082	0.093
-188.158	800.000	-0.058	-0.204
-187.144	-0.465	0.065	0.045
-186.129	666.974	0.119	0.305
-185.114	800.000	-0.073	-0.264
-184.100	-23.079	-0.222	0.132
-183.085	-44.718	0.179	-0.089
-182.071	310.679	0.094	0.174
-181.056	800.000	0.137	0.589
-180.042	-200.000	0.009	0.161
-179.027	-100.550	0.113	-0.028
-178.012	-99.441	-0.263	-0.066
-176.998	210.333	0.154	0.239
-175.983	-64.325	-0.247	0.099
-174.969	62.745	-0.008	-0.007
-173.954	375.829	-0.090	-0.181
-172.939	41.999	-0.202	-0.181
-171.925	-200.000	0.003	-0.143
-170.910	77.563	-0.130	0.137
-169.896	146.748	-0.116	-0.154
-168.881	-12.291	-0.395	-0.255
-167.866	-93.275	-0.248	-0.068
-166.852	800.000	0.110	0.405
-165.837	463.361	0.057	0.125
-164.823	-85.541	-0.077	0.024
-163.808	-200.000	-0.018	-0.230
-162.793	800.000	-0.118	-0.357
-161.779	-200.000	0.051	0.305
-160.764	800.000	-0.143	0.545
-159.750	69.821	-0.165	0.168
-158.735	-200.000	0.039	-0.180
-157.720	-200.000	-0.019	0.090
-156.706	-200.000	0.027	-0.168
-155.691	-200.000	0.011	-0.096
-154.677	800.000	0.030	-0.120
-153.662	-200.000	0.057	-0.342
-152.647	-200.000	-0.019	0.223
-151.633	-120.731	0.166	-0.028
-150.618	232.190	-0.052	0.084
-149.604	800.000	-0.029	0.124
-148.589	53.254	0.329	0.311
-147.574	-152.122	0.196	-0.014
-146.560	-78.973	-0.385	-0.130
-145.545	-12.143	-0.522	0.338
-144.531	-200.000	-0.044	0.217
-143.516	-151.014	0.161	0.012
-142.502	4.389	0.159	-0.115
-141.487	-6.586	-0.193	0.130
-140.472	85.625	-0.172	0.187
-139.458	22.188	0.248	0.200
-138.443	101.185	0.069	0.079
-137.429	186.008	-0.139	-0.205
-136.414	-200.000	-0.037	0.246
-135.399	254.583	0.108	-0.182
-134.385	-47.537	-0.363	-0.174
-133.370	-136.662	-0.341	0.039
-132.356	800.000	-0.039	-0.123
-131.341	-200.000	-0.001	0.343
-130.326	34.620	-0.244	0.210
-129.312	121.690	-0.177	-0.218
-128.297	-57.675	0.327	0.141
-127.283	122.238	0.050	-0.062
-126.268	762.577	0.181	0.486
-125.253	-91.777	-0.075	-0.021
-124.239	-68.672	-0.361	0.138
-123.224	-90.961	0.298	0.085
-122.210	-200.000	0.023	0.162
-121.195	800.000	-0.027	0.107
-120.180	141.369	-0.157	0.205
-119.166	31.927	-0.090	0.076
-118.151	6.689	-0.065	0.047
-117.137	-176.920	-0.375	-0.009
-116.122	-86.811	0.251	0.076
-115.107	-79.677	-0.393	0.131
-114.093	-57.993	-0.168	0.072
-113.078	-56.252	-0.087	0.038
-112.064	110.381	0.070	0.083
-111.049	5.015	-0.122	-0.088
-110.034	68.697	-0.062	0.063
-109.020	-128.871	0.311	-0.043
-108.005	108.154	-0.242	0.285
-106.991	-179.087	0.054	0.001
-105.976	-200.000	-0.017	-0.197
-104.962	-90.527	-0.062	-0.018
-103.947	-200.000	0.035	-0.266
-102.932	-12.604	-0.214	-0.138
-101.918	473.002	-0.049	0.109
-100.903	-200.000	-0.044	0.225
-99.889	-38.599	0.268	0.139
-98.874	74.078	0.186	-0.193
-97.859	-46.719	0.297	-0.144
-96.845	81.926	-0.336	0.359
-95.830	-166.443	-0.204	0.008
-94.816	-200.000	-0.024	-0.180
-93.801	800.000	0.020	-0.057
-92.786	223.834	-0.116	0.185
-91.772	-150.988	-0.185	0.014
-90.757	117.546	0.233	0.283
-89.743	-112.246	0.260	0.051
-88.728	-12.179	0.143	-0.092
-87.713	800.000	-0.063	-0.203
-86.699	50.746	-0.153	0.143
-85.684	166.567	0.118	0.165
-84.670	792.965	0.031	0.083
-83.655	-125.773	0.355	-0.053
-82.640	-105.634	-0.489	-0.109
-81.626	-200.000	-0.019	-0.090
-80.611	800.000	-0.085	0.298
-79.597	352.922	0.051	0.100
-78.582	-151.477	0.333	0.024
-77.567	800.000	-0.027	0.103
-76.553	800.000	-0.073	0.311
-75.538	-87.931	-0.191	-0.057
-74.524	34.181	0.100	0.086
-73.509	-194.557	-0.244	0.002
-72.494	673.457	0.058	0.148
-71.480	108.990	0.254	-0.299
-70.465	-118.877	0.093	0.016
-69.451	-170.414	0.250	-0.009
-68.436	-71.036	0.227	0.084
-67.422	-55.417	-0.109	-0.048
-66.407	-47.469	0.513	0.245
-65.392	-103.648	0.179	0.041
-64.378	-138.453	0.220	-0.024
-63.363	-111.471	-0.334	-0.067
-62.349	259.874	-0.131	0.223
-61.334	67.473	-0.710	-0.714
-60.319	-200.000	0.163	0.766
-59.305	493.600	-0.511	-1.154
-58.290	800.000	0.268	0.847
-57.276	202.292	0.930	1.412
-56.261	-200.000	95.347	595.385
-55.246	671.522	1367.531	3488.183
-54.232	200.462	2540.378	3842.775
-53.217	121.303	2159.529	2647.120
-52.203	43.133	1706.085	1532.388
-51.188	35.279	1519.125	1310.976
-50.173	32.969	1492.253	1272.193
-49.159	52.368	1540.884	1446.830
-48.144	54.359	1558.522	1476.958
-47.130	35.596	1518.455	1312.356
-46.115	32.475	1503.978	1278.629
-45.100	32.264	1500.348	1274.063
-44.086	32.276	1498.623	1272.629
-43.071	32.315	1496.477	1271.019
-42.057	32.169	1495.122	1268.831
-41.042	32.188	1493.638	1267.650
-40.027	32.145	1492.280	1266.159
-39.013	32.176	1490.490	1264.798
-37.998	32.116	1489.842	1263.797
-36.984	32.182	1488.262	1262.849
-35.969	32.120	1486.859	1261.190
-34.954	32.122	1485.469	1259.974
-33.940	32.201	1484.051	1259.254
-32.925	32.177	1482.722	1257.915
-31.911	32.304	1481.237	1257.453
-30.896	32.280	1479.967	1256.163
-29.881	32.230	1478.782	1254.780
-28.867	32.210	1477.263	1253.302
-27.852	32.292	1475.818	1252.574
-26.838	32.276	1474.787	1251.547
-25.823	32.270	1472.903	1249.859
-24.809	32.215	1471.428	1248.186
-23.794	32.113	1470.087	1246.323
-22.779	32.280	1468.394	1245.949
-21.765	32.285	1467.353	1245.048
-20.750	32.226	1466.401	1243.797
-19.736	32.179	1465.382	1242.577
-18.721	32.107	1464.337	1241.162
-17.706	32.169	1462.905	1240.308
-16.692	32.209	1461.654	1239.461
-15.677	32.131	1460.916	1238.277
-14.663	32.202	1460.207	1238.094
-13.648	32.054	1459.072	1236.109
-12.633	32.184	1457.968	1235.978
-11.619	32.128	1457.302	1234.997
-10.604	32.181	1455.838	1234.052
-9.590	32.231	1455.245	1233.829
-8.575	32.189	1454.432	1232.814
-7.560	32.208	1453.599	1232.184
-6.546	32.200	1452.578	1231.221
-5.531	32.160	1452.110	1230.512
-4.517	32.103	1450.751	1228.940
-3.502	32.141	1449.623	1228.182
-2.487	32.182	1448.806	1227.713
-1.473	32.031	1448.339	1226.276
-0.458	32.138	1446.343	1225.236
0.556	30.988	1436.894	1214.737
1.571	28.116	1411.972	1175.141
2.586	24.663	1351.854	1103.725
3.600	22.990	1270.114	1027.182
4.615	21.589	1224.222	982.128
5.629	18.618	1168.403	921.334
6.644	11.245	1084.999	818.591
7.659	5.406	1046.013	760.766
8.673	4.785	1039.847	753.213
9.688	4.596	1037.417	750.472
10.702	4.474	1036.208	748.942
11.717	4.495	1033.636	747.120
12.731	6.633	1035.945	759.016
13.746	13.432	1045.823	799.111
14.761	18.545	1051.367	828.034
15.775	18.519	1050.198	826.913
16.790	17.505	1047.958	820.193
17.804	16.297	1046.166	812.908
18.819	15.463	1044.111	807.230
19.834	15.001	1043.166	804.206
20.848	14.786	1041.996	802.202
21.863	14.626	1040.597	800.286
22.877	14.209	1040.697	798.291
23.892	14.165	1039.470	797.068
24.907	14.229	1038.301	796.409
25.921	14.107	1038.048	795.559
26.936	14.226	1036.955	795.220
27.950	14.257	1035.907	794.496
28.965	14.054	1035.353	793.034
29.980	14.385	1033.949	793.461
30.994	14.466	1032.617	792.754
32.009	14.552	1031.932	792.566
33.023	14.485	1031.530	791.870
34.038	14.420	1030.473	790.681
35.053	14.285	1029.606	789.308
36.067	14.156	1028.713	787.943
37.082	14.352	1027.201	787.642
38.096	14.250	1026.755	786.746
39.111	14.422	1026.312	787.151
40.126	14.421	1025.180	786.209
41.140	14.304	1024.006	784.685
42.155	14.216	1022.996	783.430
43.169	14.086	1022.415	782.303
44.184	14.062	1020.763	780.855
45.199	14.015	1019.884	779.894
46.213	14.049	1019.051	779.348
47.228	14.102	1018.027	778.746
48.242	14.128	1017.172	778.143
49.257	14.264	1016.460	778.166
50.271	14.053	1015.534	776.403
51.286	14.197	1014.392	776.131
52.301	14.329	1013.364	775.892
53.315	14.166	1013.093	774.858
54.330	14.258	1012.091	774.451
55.344	13.975	1011.394	772.530
56.359	14.043	1010.182	771.855
57.374	14.134	1009.273	771.512
58.388	14.137	1008.431	770.816
59.403	14.049	1007.951	769.971
60.417	13.967	1006.983	768.783
61.432	14.117	1006.049	768.697
62.447	13.990	1005.309	767.479
63.461	13.920	1004.764	766.669
64.476	13.971	1003.820	766.116
65.490	13.892	1003.082	765.120
66.505	13.910	1001.931	764.259
67.520	13.874	1001.473	763.678
68.534	13.956	1000.436	763.193
69.549	13.929	999.846	762.552
70.563	14.097	999.261	762.810
71.578	14.070	998.046	761.690
72.593	13.946	997.521	760.658
73.607	13.834	996.298	759.144
74.622	13.754	995.774	758.312
75.636	13.794	995.182	757.975
76.651	13.865	993.902	757.257
77.666	13.759	993.812	756.640
78.680	13.815	992.812	756.066
79.695	13.880	991.934	755.628
80.709	13.946	991.618	755.618
81.724	13.815	991.100	754.563
82.739	14.009	990.341	754.799
83.753	14.053	989.290	754.130
84.768	14.133	988.625	753.919
85.782	14.310	987.906	754.106
86.797	14.447	987.317	754.209
87.812	14.293	986.698	752.976
88.826	14.180	985.813	751.720
89.841	14.194	984.835	750.971
90.855	14.273	984.219	750.791
91.870	14.371	983.291	750.459
92.884	14.353	982.512	749.719
93.899	14.203	982.099	748.661
94.914	14.236	981.593	748.356
95.928	14.533	980.170	748.538
96.943	14.381	979.703	747.436
97.957	14.388	978.827	746.733
98.972	14.447	978.333	746.555
99.987	14.317	977.730	745.445
101.001	14.335	977.064	744.952
102.016	14.323	976.081	744.083
103.030	14.368	974.740	743.195
104.045	14.378	973.963	742.584
105.060	14.397	972.759	741.685
106.074	14.389	971.877	740.911
107.089	14.188	971.084	739.346
108.103	14.220	970.071	738.654
109.118	13.944	969.665	737.050
110.133	13.961	968.526	736.195
111.147	13.996	967.577	735.564
112.162	14.119	966.631	735.327
113.176	13.998	966.022	734.262
114.191	14.030	965.476	733.924
115.206	14.101	964.194	733.199
116.220	14.173	963.447	732.881
117.235	14.052	962.865	731.844
118.249	14.126	961.740	731.246
119.264	14.163	960.693	730.547
120.279	14.097	960.112	729.753
121.293	13.970	959.440	728.620
122.308	14.017	958.319	727.910
123.322	14.037	957.311	727.169
124.337	13.887	956.524	725.848
125.352	13.952	955.296	725.140
126.366	14.050	953.976	724.499
127.381	13.891	953.672	723.511
128.395	13.973	952.312	722.774
129.410	13.955	951.674	722.145
130.424	14.032	950.840	721.781
131.439	13.934	950.248	720.846
132.454	14.085	949.366	720.765
133.468	14.153	948.268	720.165
134.483	14.118	947.549	719.405
135.497	14.239	947.088	719.512
136.512	14.145	946.364	718.492
137.527	14.061	945.790	717.629
138.541	14.166	945.045	717.453
139.556	14.129	944.397	716.739
140.570	14.173	943.743	716.371
141.585	14.242	942.684	715.797
142.600	14.319	942.072	715.600
143.614	14.306	941.689	715.189
144.629	14.303	940.739	714.392
145.643	14.328	939.886	713.790
146.658	14.514	938.902	713.775
147.673	14.425	937.669	712.395
148.687	14.292	937.178	711.389
149.702	14.242	935.902	710.145
150.716	14.152	935.475	709.374
151.731	14.009	934.970	708.320
152.746	14.249	933.659	708.285
153.760	14.154	933.264	707.521
154.775	14.273	932.245	707.188
155.789	14.343	931.443	706.814
156.804	14.369	931.005	706.530
157.819	14.259	930.321	705.482
158.833	14.368	929.422	705.199
159.848	14.327	928.903	704.572
160.862	14.435	928.438	704.613
161.877	14.522	927.508	704.210
162.892	14.312	926.350	702.383
163.906	14.177	925.943	701.447
164.921	14.317	924.841	701.135
165.935	14.258	923.603	699.888
166.950	14.364	922.902	699.741
167.964	14.269	922.475	698.955
168.979	14.430	920.920	698.392
169.994	14.416	920.025	697.592
171.008	14.357	919.061	696.552
172.023	14.438	918.565	696.451
173.037	14.492	918.059	696.235
174.052	14.439	917.479	695.510
175.067	14.546	916.651	695.266
176.081	14.461	915.968	694.336
177.096	14.291	915.160	692.951
178.110	14.296	914.503	692.415
179.125	14.239	913.751	691.549
180.140	14.443	912.818	691.629
181.154	14.379	912.351	690.946
182.169	14.378	911.823	690.482
183.183	14.485	911.010	690.248
184.198	14.696	910.327	690.543
185.213	14.554	909.890	689.563
186.227	14.651	909.148	689.341
187.242	14.603	908.670	688.718
188.256	14.807	907.534	688.637
189.271	14.733	907.226	688.037
190.286	14.927	906.283	688.057
191.300	14.478	906.019	685.953
192.315	14.494	904.466	684.780
193.329	14.299	904.182	683.704
194.344	14.399	903.351	683.427
195.359	14.409	902.948	683.100
196.373	14.462	902.584	682.982
197.388	14.638	901.477	682.803
198.402	14.792	901.643	683.501
199.417	14.750	901.097	682.852
200.432	14.968	900.444	683.188
201.446	14.993	900.304	683.125
202.461	15.008	899.718	682.681
203.475	15.040	899.309	682.442
204.490	15.161	898.456	682.227
205.504	14.940	897.467	680.514
206.519	14.888	896.951	679.851
207.534	14.833	896.311	679.082
208.548	14.792	895.879	678.531
209.563	14.851	894.870	677.946
210.577	14.867	894.287	677.508
211.592	14.882	893.577	676.972
212.607	14.989	893.118	676.996
213.621	15.137	892.416	677.003
214.636	15.029	891.869	676.092
215.650	15.021	891.134	675.444
216.665	15.039	890.660	675.093
217.680	15.074	890.025	674.696
218.694	15.102	889.991	674.723
219.709	15.179	889.080	674.284
220.723	15.041	888.806	673.458
221.738	14.979	888.244	672.725
222.753	15.099	887.071	672.260
223.767	15.177	886.212	671.860
224.782	15.118	885.763	671.226
225.796	15.227	885.063	671.070
226.811	15.399	884.116	670.982
227.826	15.275	883.789	670.177
228.840	15.268	882.447	669.073
229.855	15.060	882.482	668.209
230.869	15.117	881.845	667.896
231.884	15.163	881.116	667.469
232.899	14.923	880.781	666.200
233.913	15.075	879.674	665.907
234.928	14.984	879.144	665.086
235.942	15.058	878.038	664.484
236.957	14.999	877.419	663.725
237.972	14.984	876.812	663.144
238.986	15.023	876.343	662.886
240.001	15.144	875.422	662.610
241.015	15.103	874.771	661.897
242.030	15.321	873.854	662.007
243.045	15.157	873.613	661.117
244.059	15.112	873.037	660.445
245.074	15.287	872.421	660.609
246.088	15.170	871.887	659.686
247.103	15.294	871.417	659.760
248.117	15.420	870.812	659.738
249.132	15.456	870.044	659.241
250.147	15.497	869.709	659.091
251.161	15.675	869.267	659.393
252.176	15.778	868.645	659.268
253.190	15.772	867.836	658.571
254.205	15.789	867.324	658.191
255.220	15.868	866.392	657.735
256.234	15.854	865.936	657.276
257.249	15.896	865.431	656.998
258.263	15.854	864.959	656.417
259.278	15.959	864.215	656.203
260.293	15.956	863.507	655.598
261.307	15.937	863.023	655.098
262.322	15.932	862.959	654.970
263.336	15.950	862.120	654.348
264.351	15.959	861.593	653.923
265.366	16.034	860.615	653.414
266.380	16.123	860.034	653.263
267.395	16.045	859.377	652.404
268.409	16.019	858.636	651.682
269.424	15.972	858.334	651.214
270.439	15.933	857.240	650.176
271.453	15.889	856.906	649.693
272.468	15.874	856.020	648.906
273.482	15.887	855.619	648.595
274.497	16.041	854.628	648.381
275.512	16.001	854.030	647.716
276.526	16.010	853.230	647.086
277.541	15.979	852.363	646.251
278.555	16.065	852.207	646.407
279.570	15.993	851.997	645.914
280.585	16.039	851.606	645.737
281.599	16.290	850.599	645.875
282.614	16.183	850.331	645.204
283.628	15.979	849.605	643.818
284.643	15.928	849.096	643.181
285.657	15.988	848.273	642.730
286.672	16.144	847.396	642.601
287.687	16.145	847.306	642.480
288.701	16.065	846.565	641.559
289.716	16.160	846.286	641.651
290.730	16.055	845.818	640.839
291.745	16.228	844.947	640.782
292.760	16.213	844.261	640.147
293.774	16.219	843.881	639.825
294.789	16.198	843.570	639.451
295.803	16.215	842.875	638.933
296.818	16.364	841.777	638.609
297.833	16.134	841.551	637.513
298.847	16.294	840.710	637.422
299.862	16.386	840.062	637.219
300.876	16.337	839.637	636.658
301.891	16.281	839.002	635.909
302.906	16.454	838.305	635.974
303.920	16.557	837.552	635.735
304.935	16.573	836.954	635.287
305.949	16.429	836.658	634.462
306.964	16.457	835.751	633.822
307.979	16.580	834.892	633.578
308.993	16.633	834.747	633.609
310.008	16.548	834.229	632.841
311.022	16.474	834.314	632.575
312.037	16.552	833.317	632.054
313.052	16.521	832.924	631.584
314.066	16.541	832.102	630.978
315.081	16.426	831.580	630.100
316.095	16.593	830.420	629.787
317.110	16.453	830.080	628.952
318.125	16.542	829.764	628.986
319.139	16.411	829.302	628.095
320.154	16.431	828.930	627.831
321.168	16.476	828.260	627.435
322.183	16.477	828.029	627.209
323.197	16.558	827.280	626.886
324.212	16.574	826.668	626.425
325.227	16.478	826.328	625.756
326.241	16.560	825.852	625.645
327.256	16.453	825.320	624.792
328.270	16.529	824.572	624.452
329.285	16.551	823.951	624.006
330.300	16.606	823.406	623.742
331.314	16.584	823.239	623.477
332.329	16.575	822.389	622.745
333.343	16.666	821.628	622.449
334.358	16.589	821.386	621.928
335.373	16.676	821.054	621.940
336.387	16.836	819.980	621.661
337.402	16.721	819.411	620.750
338.416	16.875	819.100	621.026
339.431	16.885	818.793	620.774
340.446	16.882	818.115	620.193
341.460	16.897	817.954	620.072
342.475	17.089	816.842	619.874
343.489	17.149	816.155	619.519
344.504	17.022	815.635	618.606
345.519	17.115	815.680	618.925
346.533	17.218	814.847	618.612
347.548	17.179	814.220	617.938
348.562	17.087	813.743	617.188
349.577	17.025	813.269	616.550
350.592	16.928	812.759	615.757
351.606	16.949	812.271	615.406
352.621	16.839	811.973	614.728
353.635	17.046	811.154	614.806
354.650	16.982	810.992	614.396
355.665	17.011	810.662	614.196
356.679	17.065	809.834	613.711
357.694	17.277	809.250	613.978
358.708	17.052	809.275	613.128
359.723	16.996	808.707	612.445
360.738	17.054	807.965	612.038
361.752	17.043	807.654	611.706
362.767	17.136	807.083	611.555
363.781	17.206	807.070	611.745
364.796	17.177	806.552	611.194
365.810	17.385	806.111	611.550
366.825	17.546	805.486	611.603
367.840	17.555	805.132	611.312
368.854	17.499	804.627	610.673
369.869	17.491	804.106	610.195
370.883	17.455	803.552	609.593
371.898	17.465	803.002	609.156
372.913	17.434	802.778	608.820
373.927	17.530	801.839	608.399
374.942	17.560	801.172	607.946
375.956	17.560	800.558	607.424
376.971	17.527	800.416	607.149
377.986	17.499	799.812	606.536
379.000	17.599	799.344	606.484
380.015	17.783	798.706	606.600
381.029	17.679	798.040	605.671
382.044	17.658	797.731	605.306
383.059	17.668	797.103	604.811
384.073	17.660	796.603	604.352
385.088	17.715	795.985	604.024
386.102	17.702	795.358	603.450
387.117	17.534	795.317	602.771
388.132	17.419	794.572	601.746
389.146	17.671	794.179	602.285
390.161	17.569	793.995	601.730
391.175	17.703	793.567	601.829
392.190	17.761	793.015	601.560
393.205	17.706	792.389	600.838
394.219	17.643	792.071	600.322
395.234	17.623	791.424	599.709
396.248	17.555	791.181	599.233
397.263	17.700	790.382	599.083
398.278	17.496	789.868	597.922
399.292	17.578	789.761	598.077
400.307	17.678	788.996	597.796
401.321	17.587	788.878	597.335
402.336	17.613	788.583	597.151
403.350	17.595	788.065	596.643
404.365	17.554	788.152	596.512
405.380	17.797	787.443	596.771
406.394	17.715	787.019	596.112
407.409	17.933	786.657	596.546
408.423	17.946	786.077	596.099
409.438	18.039	785.463	595.906
410.453	18.085	785.252	595.854
411.467	17.883	785.026	594.924
412.482	18.001	784.416	594.819
413.496	18.137	783.807	594.778
414.511	18.076	783.615	594.366
415.526	18.187	783.185	594.376
416.540	18.074	782.796	593.635
417.555	17.946	782.661	593.035
418.569	18.155	781.691	592.972
419.584	18.083	781.742	592.710
420.599	18.171	780.927	592.344
421.613	156.124	1369.340	1795.419
422.628	134.751	1455.079	1795.553
