DTS Sentinel unit serial number:	SN413079Multiplexer serial number:	ORYXHardware model number:	OX4-SRSoftware version number:	ORYX F/W v4.00 Oryx Data Collector v3.7.2.0data status	okinstallation	princeton_trtdifferential loss correction	single-endedforward channel	channel 3reverse channel	N/Adate	2019/09/12time	16:38:11forward acquisition time	60.00reverse acquisition time	0.00gamma	496.2192k internal	0.2307k external	0.2307temperature offset calibration	1.0083default loss term (dB/km)	0.3790temperature slope calibration	1.0000multiplexer offset coefficient	1.0000multiplexer slope coefficient	1.0000fibre end	0.00T internal ref (°C)	36.86T ext. ref 1 (°C)	2.70T ext. ref 2 (°C)	29.64length (m)	temperature (°C)	Stokes	anti-Stokes-747.200	-156.735	0.180	0.011
-746.185	374.237	-0.152	0.315
-745.171	800.000	0.049	0.161
-744.156	-106.857	-0.162	-0.037
-743.142	-112.005	-0.314	0.064
-742.127	98.090	-0.117	0.137
-741.112	-200.000	0.017	-0.155
-740.098	501.831	-0.125	0.293
-739.083	800.000	-0.026	0.086
-738.069	45.886	0.159	0.150
-737.054	-57.094	-0.149	0.067
-736.039	-155.239	-0.344	-0.023
-735.025	-109.631	0.201	-0.043
-734.010	330.424	0.121	-0.238
-732.996	-200.000	-0.010	-0.096
-731.981	142.465	-0.142	-0.192
-730.966	800.000	0.146	-0.494
-729.952	-61.462	-0.261	0.112
-728.937	150.582	0.226	0.312
-727.923	129.363	-0.037	0.048
-726.908	459.171	0.024	-0.054
-725.894	100.213	-0.045	-0.053
-724.879	800.000	0.084	-0.283
-723.864	-200.000	0.048	-0.290
-722.850	-99.519	-0.477	0.122
-721.835	-31.839	-0.275	-0.157
-720.821	717.156	-0.101	0.272
-719.806	800.000	0.043	-0.165
-718.791	-49.710	-0.115	0.056
-717.777	133.717	-0.173	-0.227
-716.762	-106.104	0.054	0.012
-715.748	444.910	-0.141	-0.314
-714.733	534.976	-0.091	-0.220
-713.718	-172.764	0.207	0.007
-712.704	326.975	0.073	-0.142
-711.689	-20.399	0.089	-0.056
-710.675	-200.000	0.020	-0.146
-709.660	60.552	-0.191	-0.192
-708.645	-200.000	0.010	-0.210
-707.631	-4.724	-0.236	0.165
-706.616	736.526	-0.024	-0.065
-705.602	-123.177	0.490	0.080
-704.587	30.987	-0.010	-0.009
-703.572	-122.910	-0.217	0.036
-702.558	105.510	-0.113	-0.136
-701.543	244.300	-0.044	0.076
-700.529	197.231	0.091	0.140
-699.514	115.250	-0.120	0.149
-698.499	360.431	-0.107	-0.218
-697.485	-45.209	-0.202	0.102
-696.470	-116.607	-0.417	-0.078
-695.456	-93.331	0.195	0.055
-694.441	49.585	0.150	-0.143
-693.426	-200.000	-0.042	-0.260
-692.412	-45.852	0.077	-0.038
-691.397	299.945	0.065	0.122
-690.383	-200.000	-0.028	-0.211
-689.368	308.911	-0.164	-0.311
-688.354	-60.880	-0.127	0.055
-687.339	-121.041	-0.132	0.022
-686.324	-26.865	0.189	-0.112
-685.310	-3.569	-0.145	-0.102
-684.295	-21.991	-0.083	-0.051
-683.281	92.097	-0.323	-0.369
-682.266	-115.297	-0.156	-0.030
-681.251	-164.037	0.354	0.017
-680.237	800.000	0.106	0.298
-679.222	800.000	0.065	-0.248
-678.208	-105.787	-0.148	0.034
-677.193	50.065	-0.130	-0.124
-676.178	-156.938	0.140	-0.009
-675.164	-140.814	-0.247	0.026
-674.149	-89.399	0.162	-0.048
-673.135	-120.037	-0.153	-0.027
-672.120	107.171	-0.081	-0.098
-671.105	175.968	-0.184	-0.270
-670.091	-76.738	-0.151	0.054
-669.076	666.345	-0.091	-0.237
-668.062	-200.000	0.070	-0.358
-667.047	-86.765	0.177	-0.055
-666.032	800.000	-0.032	0.115
-665.018	144.171	0.116	0.157
-664.003	-108.398	-0.282	-0.062
-662.989	303.476	0.072	0.135
-661.974	-176.558	0.234	0.006
-660.959	-1.921	0.103	0.073
-659.945	-45.006	-0.146	-0.074
-658.930	436.363	-0.116	-0.256
-657.916	-200.000	0.018	-0.155
-656.901	390.708	-0.049	-0.102
-655.886	347.571	0.029	0.059
-654.872	-200.000	-0.024	0.162
-653.857	140.162	-0.150	0.201
-652.843	215.727	-0.212	0.341
-651.828	800.000	0.042	-0.134
-650.814	250.842	-0.094	-0.161
-649.799	385.718	-0.145	-0.303
-648.784	553.455	-0.121	0.295
-647.770	-200.000	0.037	-0.198
-646.755	-140.982	-0.219	-0.023
-645.741	-116.243	-0.160	-0.030
-644.726	55.372	-0.227	-0.222
-643.711	-200.000	-0.016	-0.253
-642.697	-35.832	0.194	0.106
-641.682	-79.995	-0.338	-0.115
-640.668	-200.000	-0.013	0.174
-639.653	-28.259	0.092	-0.054
-638.638	330.642	0.118	0.230
-637.624	276.700	0.146	-0.263
-636.609	-200.000	0.022	0.112
-635.595	-80.279	-0.230	-0.078
-634.580	14.236	-0.159	-0.126
-633.565	-200.000	-0.026	-0.223
-632.551	-75.623	0.080	-0.029
-631.536	-56.102	-0.262	-0.118
-630.522	-13.919	-0.316	0.207
-629.507	800.000	-0.095	0.287
-628.492	86.966	0.178	0.199
-627.478	-51.184	-0.214	-0.101
-626.463	683.853	0.095	-0.251
-625.449	-121.006	-0.120	-0.020
-624.434	-104.811	0.273	0.064
-623.419	-107.566	0.252	-0.056
-622.405	-94.917	0.311	0.085
-621.390	434.079	0.090	0.197
-620.376	-128.514	0.213	0.031
-619.361	256.603	0.128	0.222
-618.346	222.147	0.059	-0.096
-617.332	26.121	-0.111	-0.093
-616.317	22.241	0.258	0.213
-615.303	-200.000	-0.193	-0.000
-614.288	-113.006	-0.051	0.010
-613.273	-200.000	-0.015	0.159
-612.259	-200.000	0.024	0.110
-611.244	206.764	0.121	0.191
-610.230	-200.000	-0.020	0.129
-609.215	800.000	0.029	0.098
-608.201	16.218	0.173	0.138
-607.186	181.415	-0.106	0.158
-606.171	-172.395	0.223	0.007
-605.157	-200.000	-0.006	0.168
-604.142	800.000	0.099	0.411
-603.128	526.799	-0.048	0.114
-602.113	-1.574	0.264	-0.188
-601.098	-93.848	-0.258	-0.072
-600.084	40.532	0.108	0.098
-599.069	117.812	-0.065	0.081
-598.055	85.668	-0.071	-0.079
-597.040	800.000	0.048	0.139
-596.025	-54.254	0.027	-0.012
-595.011	-27.125	-0.220	0.130
-593.996	-200.000	0.002	-0.215
-592.982	-80.630	0.248	-0.083
-591.967	191.843	-0.132	-0.202
-590.952	127.427	0.186	0.238
-589.938	27.886	-0.310	-0.264
-588.923	196.588	-0.114	0.175
-587.909	-200.000	0.020	0.112
-586.894	588.373	0.025	-0.063
-585.879	118.311	0.103	-0.129
-584.865	-78.677	0.129	-0.044
-583.850	488.590	-0.054	0.125
-582.836	25.818	0.162	0.136
-581.821	800.000	-0.078	-0.323
-580.806	491.791	0.054	-0.125
-579.792	94.197	-0.055	0.063
-578.777	498.777	-0.061	-0.143
-577.763	363.600	0.044	0.089
-576.748	-129.219	0.319	-0.045
-575.733	-17.976	0.035	-0.022
-574.719	223.878	-0.027	-0.044
-573.704	-108.063	0.296	0.065
-572.690	214.867	-0.053	0.085
-571.675	-27.699	0.183	-0.107
-570.661	547.382	-0.130	-0.314
-569.646	-200.000	-0.007	0.151
-568.631	800.000	0.185	0.556
-567.617	800.000	0.038	0.136
-566.602	800.000	-0.006	-0.027
-565.588	-200.000	0.054	0.283
-564.573	-151.647	-0.442	0.033
-563.558	-1.737	0.250	-0.178
-562.544	30.562	0.059	-0.051
-561.529	-200.000	0.027	0.277
-560.515	317.995	0.045	-0.086
-559.500	422.164	0.087	0.189
-558.485	-200.000	-0.004	-0.143
-557.471	55.447	-0.086	-0.084
-556.456	-74.007	-0.080	0.029
-555.442	-200.000	-0.000	0.142
-554.427	95.164	0.109	0.125
-553.412	9.123	-0.106	0.081
-552.398	99.036	0.076	-0.089
-551.383	-52.323	-0.346	-0.162
-550.369	702.882	-0.038	-0.102
-549.354	-200.000	-0.003	-0.133
-548.339	1.182	0.348	0.252
-547.325	241.357	0.116	0.196
-546.310	70.815	0.316	0.330
-545.296	180.042	-0.210	-0.311
-544.281	-200.000	0.018	-0.210
-543.266	479.955	0.027	-0.062
-542.252	800.000	0.087	0.346
-541.237	-140.599	-0.403	-0.042
-540.223	800.000	0.075	-0.228
-539.208	125.562	0.058	-0.074
-538.193	43.359	0.189	-0.174
-537.179	63.152	-0.079	-0.080
-536.164	95.633	-0.129	0.149
-535.150	-94.807	0.226	0.062
-534.135	-46.766	-0.070	-0.035
-533.121	800.000	-0.082	-0.245
-532.106	-45.764	-0.154	0.077
-531.091	-0.358	-0.465	-0.333
-530.077	-69.223	-0.444	0.172
-529.062	390.475	0.155	0.324
-528.048	638.037	-0.137	-0.351
-527.033	-63.857	-0.319	0.131
-526.018	-69.403	-0.115	-0.045
-525.004	192.013	0.092	0.141
-523.989	-200.000	-0.017	0.232
-522.975	238.564	0.067	0.112
-521.960	-99.790	0.606	0.153
-520.945	42.265	-0.287	0.263
-519.931	14.931	0.159	-0.125
-518.916	175.271	-0.056	-0.081
-517.902	530.824	0.184	-0.439
-516.887	-9.576	-0.215	-0.145
-515.872	41.788	0.095	0.087
-514.858	42.469	0.188	-0.172
-513.843	-119.760	0.143	-0.025
-512.829	462.386	-0.029	0.065
-511.814	-200.000	-0.021	0.122
-510.799	-0.386	0.111	0.080
-509.785	227.978	-0.155	0.254
-508.770	-36.178	0.225	-0.122
-507.756	109.287	-0.223	0.269
-506.741	129.708	-0.097	0.125
-505.726	-123.858	-0.160	-0.025
-504.712	147.515	-0.119	-0.162
-503.697	64.758	0.129	-0.131
-502.683	-69.020	0.543	0.211
-501.668	-152.952	-0.067	0.005
-500.653	35.351	0.140	0.124
-499.639	800.000	0.037	-0.104
-498.624	28.282	-0.165	0.140
-497.610	122.093	0.164	0.206
-496.595	579.988	0.085	0.209
-495.581	-46.533	-0.303	0.150
-494.566	4.705	0.101	0.075
-493.551	-47.399	0.402	-0.197
-492.537	-200.000	-0.015	-0.295
-491.522	52.282	0.295	-0.283
-490.508	-4.932	-0.278	-0.193
-489.493	-200.000	0.010	-0.529
-488.478	-200.000	0.020	-0.115
-487.464	283.421	-0.166	-0.301
-486.449	-92.901	0.262	-0.074
-485.435	-102.282	-0.318	0.077
-484.420	-200.000	0.014	-0.164
-483.405	235.024	-0.134	0.223
-482.391	-67.955	0.473	-0.186
-481.376	-73.786	-0.121	0.044
-480.362	-74.342	-0.185	-0.067
-479.347	-102.359	0.095	-0.023
-478.332	-110.766	0.174	0.036
-477.318	-122.490	0.370	-0.061
-476.303	-200.000	0.023	-0.192
-475.289	199.782	-0.137	-0.212
-474.274	-200.000	-0.095	0.476
-473.259	800.000	0.079	-0.258
-472.245	-119.987	-0.277	-0.048
-471.230	404.634	0.092	-0.196
-470.216	520.175	-0.182	-0.430
-469.201	403.513	-0.107	-0.226
-468.186	466.844	0.224	0.505
-467.172	-39.954	-0.088	0.046
-466.157	-61.091	0.239	0.102
-465.143	-200.000	0.015	-0.171
-464.128	163.228	0.013	0.019
-463.113	254.319	-0.067	0.115
-462.099	-200.000	0.011	-0.050
-461.084	4.929	-0.173	0.128
-460.070	-138.002	-0.145	0.016
-459.055	-60.051	-0.303	0.130
-458.040	-143.421	-0.164	-0.016
-457.026	-160.712	-0.339	0.018
-456.011	-113.933	-0.087	0.017
-454.997	-123.612	-0.050	0.008
-453.982	106.637	-0.077	-0.091
-452.968	-46.975	-0.476	-0.234
-451.953	-200.000	0.041	-0.337
-450.938	800.000	-0.048	0.136
-449.924	536.814	-0.207	-0.495
-448.909	-142.658	0.054	-0.005
-447.895	-54.444	-0.216	0.098
-446.880	-49.040	-0.048	0.023
-445.865	302.813	0.104	-0.194
-444.851	800.000	0.028	-0.103
-443.836	-81.796	-0.220	0.073
-442.822	10.158	-0.169	-0.129
-441.807	-46.329	-0.144	-0.071
-440.792	800.000	0.104	-0.331
-439.778	107.366	-0.158	-0.189
-438.763	800.000	0.079	-0.338
-437.749	91.838	0.096	0.108
-436.734	37.686	-0.517	-0.461
-435.719	-154.689	0.323	-0.022
-434.705	800.000	0.060	0.179
-433.690	408.237	-0.048	0.102
-432.676	800.000	-0.058	-0.174
-431.661	-109.129	-0.284	-0.061
-430.646	-10.086	0.286	0.191
-429.632	-56.406	-0.146	0.065
-428.617	-42.792	0.239	-0.122
-427.603	255.911	0.139	0.239
-426.588	-191.133	0.112	-0.001
-425.573	52.640	-0.237	0.227
-424.559	419.128	0.037	0.080
-423.544	182.283	-0.097	0.144
-422.530	-35.388	0.131	0.071
-421.515	-126.591	0.217	0.032
-420.500	-123.558	0.296	0.047
-419.486	-82.594	-0.143	0.047
-418.471	-200.000	0.043	0.389
-417.457	-1.344	-0.157	-0.111
-416.442	-117.928	-0.346	-0.062
-415.428	800.000	0.150	-0.576
-414.413	354.295	-0.096	-0.191
-413.398	-145.147	0.119	0.011
-412.384	-70.910	0.185	0.070
-411.369	-197.010	-0.219	-0.001
-410.355	-130.025	-0.350	0.048
-409.340	-200.000	0.032	0.327
-408.325	203.425	-0.180	-0.280
-407.311	-200.000	-0.003	0.111
-406.296	-3.983	0.173	-0.120
-405.282	-68.992	0.479	-0.185
-404.267	800.000	-0.013	-0.048
-403.252	-43.745	-0.145	0.073
-402.238	588.112	-0.081	-0.200
-401.223	46.413	-0.189	0.176
-400.209	-200.000	-0.253	0.000
-399.194	-119.808	-0.097	0.017
-398.179	-5.459	-0.081	-0.056
-397.165	9.162	-0.141	0.107
-396.150	-15.837	0.210	0.134
-395.136	-74.517	0.061	-0.022
-394.121	171.117	-0.040	-0.058
-393.106	107.099	0.106	0.126
-392.092	-200.000	-0.018	-0.112
-391.077	800.000	0.052	-0.178
-390.063	800.000	-0.103	-0.341
-389.048	44.966	-0.228	-0.210
-388.033	100.384	-0.175	-0.203
-387.019	506.186	0.137	0.318
-386.004	800.000	-0.078	0.333
-384.990	-151.460	-0.333	0.025
-383.975	800.000	-0.046	-0.163
-382.960	800.000	-0.069	-0.223
-381.946	380.850	0.041	-0.085
-380.931	-39.950	0.195	-0.102
-379.917	231.989	0.068	-0.111
-378.902	-133.557	-0.283	-0.036
-377.888	-141.823	0.173	-0.017
-376.873	-1.554	-0.314	0.222
-375.858	244.022	-0.107	0.179
-374.844	-135.667	0.092	-0.011
-373.829	800.000	-0.078	-0.245
-372.815	-200.000	-0.024	0.175
-371.800	800.000	-0.047	0.200
-370.785	-133.608	-0.238	-0.030
-369.771	139.140	-0.202	0.267
-368.756	288.614	-0.025	-0.045
-367.742	-200.000	-0.002	0.362
-366.727	-182.407	-0.245	-0.005
-365.712	8.599	-0.194	-0.146
-364.698	800.000	-0.047	0.143
-363.683	-24.083	0.174	-0.104
-362.669	-70.230	-0.286	0.109
-361.654	-147.581	0.127	0.011
-360.639	21.089	-0.012	0.010
-359.625	109.098	0.051	-0.061
-358.610	-200.000	0.012	0.071
-357.596	5.102	0.244	0.180
-356.581	176.410	-0.169	-0.246
-355.566	-73.708	0.460	0.168
-354.552	-47.957	0.096	-0.046
-353.537	-84.397	-0.576	-0.182
-352.523	307.547	0.095	0.177
-351.508	23.734	0.038	0.032
-350.493	-41.322	0.382	0.197
-349.479	11.193	-0.413	0.317
-348.464	800.000	0.051	0.201
-347.450	47.488	0.094	0.088
-346.435	94.098	-0.234	-0.266
-345.420	76.641	-0.163	-0.174
-344.406	-28.060	0.187	0.108
-343.391	-200.000	-0.414	-0.002
-342.377	-200.000	0.022	-0.232
-341.362	165.753	0.092	-0.130
-340.348	-56.583	0.221	0.098
-339.333	72.189	0.045	0.046
-338.318	-200.000	-0.086	-0.488
-337.304	186.442	-0.089	-0.132
-336.289	55.225	-0.030	0.029
-335.275	-3.243	0.188	-0.131
-334.260	-50.875	-0.028	0.013
-333.245	-21.997	0.194	0.118
-332.231	246.546	-0.042	0.070
-331.216	-85.979	0.213	0.066
-330.202	60.534	0.162	0.160
-329.187	-32.835	-0.199	0.111
-328.172	5.052	0.083	-0.061
-327.158	-77.336	-0.222	-0.077
-326.143	-138.113	0.399	0.044
-325.129	219.269	0.147	-0.236
-324.114	800.000	-0.046	-0.194
-323.099	53.059	0.121	-0.116
-322.085	800.000	-0.073	0.296
-321.070	130.018	-0.175	0.223
-320.056	-134.735	0.136	-0.017
-319.041	-73.492	0.125	0.046
-318.026	-58.649	-0.270	-0.117
-317.012	-137.590	0.308	-0.035
-315.997	56.803	-0.099	-0.096
-314.983	-181.419	-0.296	0.006
-313.968	-51.242	0.318	-0.149
-312.953	-200.000	-0.002	-0.027
-311.939	-200.000	-0.025	0.146
-310.924	684.301	-0.144	0.376
-309.910	110.431	-0.121	-0.146
-308.895	-138.855	0.088	-0.010
-307.880	550.195	-0.149	0.356
-306.866	-200.000	-0.014	-0.275
-305.851	-200.000	0.055	-0.521
-304.837	31.451	-0.088	0.075
-303.822	15.093	-0.093	0.073
-302.807	-56.593	0.131	0.058
-301.793	-6.764	-0.132	0.090
-300.778	-112.746	0.153	-0.030
-299.764	-200.000	-0.015	0.076
-298.749	800.000	0.068	0.190
-297.735	66.621	-0.132	-0.134
-296.720	-200.000	0.038	-0.216
-295.705	-181.680	-0.057	0.001
-294.691	-35.096	0.333	0.181
-293.676	37.333	0.206	0.182
-292.662	-104.667	0.020	0.005
-291.647	166.405	0.196	-0.277
-290.632	-200.000	0.006	0.079
-289.618	69.654	-0.154	0.158
-288.603	-146.904	-0.053	-0.005
-287.589	-70.817	-0.290	-0.109
-286.574	149.670	0.204	0.276
-285.559	754.952	0.173	0.468
-284.545	288.550	-0.179	-0.324
-283.530	142.669	0.143	0.190
-282.516	-37.219	-0.047	0.025
-281.501	170.574	-0.278	-0.398
-280.486	424.259	0.056	-0.120
-279.472	-152.145	-0.396	-0.029
-278.457	-5.126	-0.166	0.114
-277.443	4.819	-0.208	-0.153
-276.428	-95.371	0.189	-0.051
-275.413	800.000	-0.155	-0.501
-274.399	-200.000	0.003	-0.053
-273.384	225.667	-0.056	0.091
-272.370	-76.011	0.412	0.146
-271.355	-48.108	-0.053	-0.026
-270.340	250.241	-0.053	0.091
-269.326	-200.000	-0.040	-0.216
-268.311	77.405	0.205	0.218
-267.297	99.781	0.047	-0.054
-266.282	-153.198	0.135	-0.009
-265.267	-200.000	0.017	-0.176
-264.253	105.968	0.017	-0.020
-263.238	800.000	-0.012	-0.039
-262.224	-183.882	-0.139	-0.002
-261.209	-200.000	-0.039	-0.241
-260.195	31.773	0.302	0.260
-259.180	388.662	-0.076	0.156
-258.165	800.000	-0.045	-0.144
-257.151	353.623	-0.089	0.176
-256.136	-200.000	0.049	0.279
-255.122	800.000	0.198	0.611
-254.107	-123.995	-0.086	-0.013
-253.092	-145.957	0.082	-0.007
-252.078	-138.669	-0.214	-0.023
-251.063	-120.184	-0.314	-0.053
-250.049	311.940	0.166	0.311
-249.034	-164.530	0.099	0.005
-248.019	-92.563	0.196	0.055
-247.005	-50.870	0.184	0.086
-245.990	116.185	-0.072	-0.088
-244.976	467.710	-0.169	-0.378
-243.961	-68.959	-0.153	0.059
-242.946	217.161	-0.038	-0.061
-241.932	-72.664	-0.141	-0.052
-240.917	190.196	0.043	0.064
-239.903	800.000	-0.077	-0.230
-238.888	198.792	0.085	0.129
-237.873	64.575	-0.017	0.017
-236.859	291.130	-0.096	0.175
-235.844	-120.656	-0.115	0.019
-234.830	15.302	0.170	-0.133
-233.815	74.909	-0.222	0.233
-232.800	-200.000	-0.005	-0.036
-231.786	287.235	0.117	0.211
-230.771	-200.000	0.059	-0.272
-229.757	351.572	0.015	0.030
-228.742	-20.021	0.188	-0.115
-227.727	-188.407	-0.211	-0.003
-226.713	73.543	-0.175	0.182
-225.698	-118.735	-0.057	0.010
-224.684	181.043	-0.075	0.110
-223.669	800.000	-0.024	0.092
-222.655	800.000	0.051	-0.158
-221.640	569.064	0.084	0.203
-220.625	12.718	0.280	0.215
-219.611	784.795	-0.053	-0.146
-218.596	254.779	0.090	0.154
-217.582	-150.331	0.544	-0.042
-216.567	-110.972	0.213	-0.044
-215.552	-128.826	-0.416	-0.058
-214.538	-43.041	-0.277	-0.140
-213.523	-54.521	0.137	0.062
-212.509	-200.000	-0.012	-0.220
-211.494	-90.990	0.118	0.034
-210.479	62.645	0.129	0.128
-209.465	44.761	-0.091	0.083
-208.450	800.000	-0.026	-0.085
-207.436	60.171	-0.247	0.243
-206.421	245.561	0.110	0.184
-205.406	-56.677	0.116	-0.051
-204.392	-200.000	0.013	-0.137
-203.377	-50.999	-0.095	-0.045
-202.363	-109.428	0.201	-0.042
-201.348	-66.909	-0.230	-0.090
-200.333	-164.011	-0.216	0.010
-199.319	-85.774	-0.044	0.014
-198.304	16.643	-0.250	0.197
-197.290	341.491	0.115	-0.223
-196.275	-27.558	-0.128	-0.074
-195.260	662.779	0.137	-0.352
-194.246	-34.413	0.296	-0.161
-193.231	-73.575	0.142	-0.052
-192.217	28.722	0.276	-0.233
-191.202	144.038	0.078	-0.103
-190.187	-200.000	-0.012	0.160
-189.173	-200.000	-0.021	0.302
-188.158	68.187	0.082	-0.084
-187.144	-132.578	-0.107	-0.014
-186.129	216.797	0.117	-0.185
-185.114	625.840	0.037	0.093
-184.100	-200.000	0.014	0.080
-183.085	-16.216	-0.199	0.126
-182.071	-56.203	0.036	-0.016
-181.056	-127.586	0.109	0.016
-180.042	-35.094	0.381	0.207
-179.027	800.000	0.006	0.019
-178.012	22.417	0.070	0.057
-176.998	-105.230	0.596	-0.135
-175.983	405.735	-0.224	-0.471
-174.969	129.580	-0.043	-0.054
-173.954	10.152	0.334	-0.252
-172.939	68.252	0.205	0.208
-171.925	-80.159	-0.166	0.055
-170.910	400.075	0.137	0.285
-169.896	-162.630	0.181	-0.009
-168.881	-200.000	-0.009	0.100
-167.866	116.097	-0.023	-0.028
-166.852	-78.390	0.203	0.069
-165.837	-99.826	-0.253	-0.063
-164.823	166.827	0.178	0.251
-163.808	-128.118	0.242	0.034
-162.793	130.929	-0.111	0.141
-161.779	-200.000	0.007	0.271
-160.764	10.323	0.255	-0.193
-159.750	800.000	-0.079	-0.274
-158.735	-7.132	-0.105	0.071
-157.720	-128.189	-0.107	0.015
-156.706	-42.777	0.252	0.127
-155.691	119.904	0.455	0.561
-154.677	-200.000	-0.013	-0.208
-153.662	60.789	-0.054	-0.053
-152.647	-154.085	0.303	-0.020
-151.633	79.174	0.234	0.250
-150.618	206.921	0.048	-0.074
-149.604	-136.256	0.178	-0.021
-148.589	-183.482	-0.249	-0.004
-147.574	-155.729	-0.083	-0.005
-146.560	-70.243	-0.181	-0.068
-145.545	-200.000	-0.169	0.001
-144.531	239.731	0.054	-0.090
-143.516	418.028	0.147	-0.313
-142.502	800.000	0.062	-0.234
-141.487	194.400	0.155	0.234
-140.472	142.866	-0.010	0.014
-139.458	354.971	-0.019	-0.037
-138.443	227.742	0.212	0.343
-137.429	164.313	-0.249	0.349
-136.414	24.570	-0.267	-0.219
-135.399	242.615	0.339	-0.564
-134.385	28.759	0.376	-0.316
-133.370	800.000	-0.074	0.261
-132.356	-113.120	-0.168	-0.033
-131.341	800.000	0.056	0.184
-130.326	87.289	-0.232	0.255
-129.312	-200.000	0.045	0.353
-128.297	-33.478	-0.147	0.081
-127.283	-17.883	-0.282	0.175
-126.268	800.000	-0.103	-0.359
-125.253	256.291	-0.027	-0.046
-124.239	-60.688	-0.188	0.079
-123.224	-96.612	-0.165	0.043
-122.210	396.620	-0.046	-0.095
-121.195	376.310	0.077	-0.157
-120.180	277.917	0.153	-0.270
-119.166	800.000	0.062	0.169
-118.151	61.575	-0.151	-0.149
-117.137	-200.000	0.008	-0.163
-116.122	800.000	-0.049	0.151
-115.107	420.385	0.084	0.178
-114.093	-86.722	0.234	-0.071
-113.078	-119.031	-0.242	0.042
-112.064	235.517	0.069	-0.113
-111.049	144.742	-0.199	-0.264
-110.034	68.955	0.266	-0.271
-109.020	561.045	-0.070	0.169
-108.005	-94.923	0.188	-0.050
-106.991	173.129	-0.098	-0.140
-105.976	800.000	-0.002	-0.007
-104.962	121.160	0.153	0.189
-103.947	-200.000	-0.006	-0.028
-102.932	-200.000	0.004	-0.038
-101.918	234.253	0.191	0.311
-100.903	-95.514	0.388	0.103
-99.889	-200.000	0.369	0.001
-98.874	-189.087	-0.217	0.003
-97.859	-181.440	-0.200	0.004
-96.845	178.358	0.067	-0.097
-95.830	87.731	0.107	0.117
-94.816	-61.426	-0.224	0.093
-93.801	-103.891	0.241	0.056
-92.786	-60.491	0.195	0.082
-91.772	46.911	-0.235	0.217
-90.757	679.870	-0.120	0.309
-89.743	-105.764	0.379	-0.085
-88.728	-123.123	-0.082	0.013
-87.713	-16.382	-0.207	0.130
-86.699	579.481	-0.019	0.046
-85.684	-162.574	-0.072	-0.004
-84.670	17.115	0.210	0.165
-83.655	17.919	0.395	-0.312
-82.640	-36.622	0.232	0.123
-81.626	-70.158	-0.155	0.058
-80.611	391.048	-0.150	0.308
-79.597	623.720	0.131	-0.326
-78.582	-200.000	-0.021	0.151
-77.567	17.947	-0.049	0.039
-76.553	-184.368	-0.124	-0.002
-75.538	-111.303	0.542	-0.110
-74.524	23.048	-0.225	-0.183
-73.509	-79.940	-0.374	0.124
-72.494	-200.000	-0.018	0.139
-71.480	503.609	-0.121	-0.277
-70.465	-200.000	-0.022	0.163
-69.451	800.000	0.010	0.040
-68.436	-55.395	0.137	0.061
-67.422	800.000	0.041	-0.160
-66.407	54.002	0.048	-0.046
-65.392	-200.000	-0.004	-0.061
-64.378	94.705	0.386	0.435
-63.363	-108.174	0.189	-0.041
-62.349	-70.165	-0.245	-0.092
-61.334	109.534	-0.699	-0.829
-60.319	-200.000	-0.025	0.417
-59.305	800.000	-0.291	-1.155
-58.290	257.365	0.545	0.928
-57.276	764.212	0.625	1.682
-56.261	-200.000	91.817	542.617
-55.246	521.680	1374.604	3193.843
-54.232	151.836	2577.039	3477.646
-53.217	115.954	2198.072	2663.339
-52.203	47.339	1733.899	1598.879
-51.188	40.125	1541.803	1371.887
-50.173	37.462	1514.925	1329.736
-49.159	55.506	1563.211	1497.845
-48.144	59.212	1583.116	1542.610
-47.130	40.379	1539.281	1371.184
-46.115	37.063	1524.095	1334.826
-45.100	36.861	1520.622	1330.347
-44.086	37.002	1518.255	1329.191
-43.071	36.903	1516.640	1327.043
-42.057	36.779	1514.981	1324.691
-41.042	36.744	1514.300	1323.805
-40.027	36.900	1512.336	1323.099
-39.013	36.876	1510.945	1321.670
-37.998	36.733	1509.956	1319.777
-36.984	36.698	1509.180	1318.807
-35.969	36.754	1507.427	1317.602
-34.954	36.766	1505.899	1316.297
-33.940	36.932	1504.188	1315.874
-32.925	36.960	1502.831	1314.825
-31.911	36.950	1501.767	1313.775
-30.896	36.937	1500.454	1312.485
-29.881	36.997	1499.109	1311.668
-28.867	36.851	1498.118	1309.758
-27.852	36.890	1496.277	1308.362
-26.838	36.962	1494.271	1307.038
-25.823	36.935	1493.039	1305.732
-24.809	36.876	1491.226	1303.697
-23.794	36.826	1490.318	1302.514
-22.779	36.907	1488.841	1301.715
-21.765	36.842	1488.081	1300.561
-20.750	37.082	1486.201	1300.475
-19.736	36.948	1485.355	1298.787
-18.721	36.929	1484.722	1298.051
-17.706	36.881	1483.557	1296.663
-16.692	36.865	1482.326	1295.430
-15.677	36.823	1481.425	1294.309
-14.663	36.810	1480.333	1293.214
-13.648	36.843	1479.369	1292.543
-12.633	36.849	1478.088	1291.411
-11.619	36.851	1477.078	1290.493
-10.604	36.771	1476.596	1289.490
-9.590	36.869	1475.395	1289.038
-8.575	36.754	1474.797	1287.701
-7.560	36.895	1473.859	1287.766
-6.546	36.796	1473.543	1286.781
-5.531	36.811	1471.776	1285.285
-4.517	36.822	1471.192	1284.802
-3.502	36.767	1470.233	1283.546
-2.487	36.767	1468.949	1282.373
-1.473	36.769	1468.260	1281.737
-0.458	36.836	1466.407	1280.508
0.556	37.382	1456.699	1267.050
1.571	33.441	1428.758	1217.370
2.586	28.949	1366.110	1136.213
3.600	26.738	1282.316	1053.587
4.615	24.919	1234.862	1004.315
5.629	20.973	1177.666	936.561
6.644	11.466	1091.423	820.340
7.659	4.161	1048.161	752.394
8.673	2.965	1042.721	742.644
9.688	2.759	1039.032	738.958
10.702	2.459	1038.224	736.872
11.717	2.638	1036.097	736.158
12.731	5.808	1039.050	753.439
13.746	15.303	1052.908	809.457
14.761	23.440	1063.814	857.291
15.775	25.842	1066.038	870.632
16.790	26.340	1065.711	872.689
17.804	26.174	1065.064	871.281
18.819	26.056	1064.316	870.024
19.834	26.107	1063.759	869.737
20.848	26.216	1063.345	869.850
21.863	26.275	1063.271	869.993
22.877	26.382	1062.422	869.736
23.892	26.295	1061.792	868.726
24.907	26.172	1061.068	867.465
25.921	26.249	1060.407	867.220
26.936	26.322	1059.447	866.706
27.950	26.164	1058.504	865.100
28.965	26.203	1057.370	864.285
29.980	26.070	1055.907	862.377
30.994	26.206	1054.418	861.737
32.009	26.303	1053.789	861.609
33.023	26.349	1053.691	861.671
34.038	26.141	1052.205	859.388
35.053	26.103	1051.495	858.551
36.067	26.318	1051.063	859.145
37.082	26.266	1050.289	858.186
38.096	26.396	1049.357	857.969
39.111	26.422	1048.857	857.607
40.126	26.627	1048.178	857.946
41.140	26.489	1046.721	856.026
42.155	26.097	1045.648	853.218
43.169	25.902	1044.485	851.273
44.184	25.844	1043.193	849.873
45.199	25.974	1042.050	849.478
46.213	25.860	1041.428	848.359
47.228	25.762	1040.166	846.793
48.242	25.943	1039.633	847.137
49.257	26.300	1038.434	847.760
50.271	26.120	1038.614	846.986
51.286	26.223	1037.693	846.645
52.301	26.332	1036.777	846.332
53.315	26.380	1036.010	845.857
54.330	26.348	1035.301	845.051
55.344	26.241	1034.502	843.828
56.359	26.147	1033.468	842.468
57.374	26.130	1032.964	841.903
58.388	26.117	1031.736	840.767
59.403	25.975	1031.443	839.796
60.417	26.072	1030.387	839.311
61.432	25.863	1029.565	837.595
62.447	25.778	1028.969	836.641
63.461	25.979	1028.426	837.058
64.476	25.962	1027.663	836.288
65.490	26.002	1026.624	835.553
66.505	25.889	1025.799	834.284
67.520	25.908	1025.138	833.760
68.534	26.050	1024.467	833.796
69.549	25.818	1024.079	832.334
70.563	25.518	1022.380	829.497
71.578	25.520	1021.119	828.407
72.593	25.438	1020.763	827.671
73.607	25.410	1019.606	826.529
74.622	25.310	1018.771	825.320
75.636	25.564	1018.123	825.887
76.651	25.810	1017.554	826.484
77.666	25.660	1016.765	825.083
78.680	25.567	1015.565	823.607
79.695	25.586	1015.123	823.266
80.709	25.634	1014.558	822.954
81.724	25.852	1013.699	823.180
82.739	25.771	1012.832	822.034
83.753	25.870	1012.195	821.894
84.768	26.112	1011.715	822.533
85.782	26.396	1011.117	823.267
86.797	26.691	1010.304	823.877
87.812	26.676	1008.969	822.647
88.826	26.344	1008.147	820.396
89.841	26.529	1007.561	820.685
90.855	26.472	1007.328	820.164
91.870	26.571	1006.583	819.937
92.884	26.510	1005.682	818.852
93.899	26.305	1004.606	816.978
94.914	26.184	1003.739	815.656
95.928	26.430	1003.076	816.153
96.943	26.497	1002.477	815.895
97.957	26.246	1000.922	813.427
98.972	26.084	999.618	811.566
99.987	25.734	998.977	809.402
101.001	25.872	998.353	809.443
102.016	26.238	998.031	810.756
103.030	26.228	996.969	809.775
104.045	26.173	995.919	808.605
105.060	25.999	994.647	806.722
106.074	25.782	993.862	805.044
107.089	25.997	992.726	805.015
108.103	26.179	992.762	805.784
109.118	26.322	991.718	805.502
110.133	25.921	990.655	802.782
111.147	25.932	989.457	801.788
112.162	25.765	988.255	800.002
113.176	25.668	987.383	798.793
114.191	25.926	986.313	799.003
115.206	26.011	985.529	798.671
116.220	25.681	984.583	796.375
117.235	25.321	984.112	794.333
118.249	25.510	983.384	794.511
119.264	25.830	982.119	794.831
120.279	25.573	981.549	793.163
121.293	25.554	980.839	792.437
122.308	25.586	980.302	792.073
123.322	25.652	979.203	791.406
124.337	25.576	978.439	790.384
125.352	25.478	976.946	788.677
126.366	25.018	975.406	785.352
127.381	24.787	973.943	783.090
128.395	25.319	974.080	785.462
129.410	25.884	973.725	787.577
130.424	26.053	972.818	787.508
131.439	26.133	972.397	787.445
132.454	26.053	971.423	786.242
133.468	26.189	970.401	785.935
134.483	26.014	969.408	784.304
135.497	26.011	969.059	783.934
136.512	26.277	968.732	784.759
137.527	26.427	967.587	784.411
138.541	26.393	966.957	783.682
139.556	26.359	966.474	783.076
140.570	26.397	964.956	781.943
141.585	26.369	964.921	781.721
142.600	26.546	964.093	781.746
143.614	26.448	962.790	780.200
144.629	26.520	962.491	780.199
145.643	26.620	961.971	780.138
146.658	26.505	960.863	778.676
147.673	26.409	959.470	777.063
148.687	26.437	958.345	776.206
149.702	26.254	957.591	774.740
150.716	26.018	956.570	772.835
151.731	26.079	955.645	772.282
152.746	26.229	954.861	772.219
153.760	26.367	954.461	772.418
154.775	26.448	954.010	772.332
155.789	26.477	952.672	771.304
156.804	26.637	951.433	770.912
157.819	26.533	950.745	769.845
158.833	26.408	950.315	768.896
159.848	26.533	949.808	768.949
160.862	26.660	948.736	768.555
161.877	26.500	947.955	767.173
162.892	26.359	947.130	765.842
163.906	26.622	946.268	766.189
164.921	26.553	945.134	764.912
165.935	26.534	943.972	763.822
166.950	26.557	943.301	763.310
167.964	26.568	942.458	762.606
168.979	26.530	941.168	761.336
169.994	26.416	940.226	760.027
171.008	26.444	939.195	759.245
172.023	26.547	938.614	759.137
173.037	26.710	937.904	759.183
174.052	26.375	937.248	757.181
175.067	26.205	935.970	755.369
176.081	26.236	935.245	754.847
177.096	26.343	934.572	754.685
178.110	26.327	933.838	753.957
179.125	26.111	933.065	752.365
180.140	25.981	931.543	750.534
181.154	25.826	931.214	749.557
182.169	25.891	931.076	749.648
183.183	26.168	930.823	750.532
184.198	26.608	929.826	751.484
185.213	26.585	929.135	750.765
186.227	26.409	928.521	749.474
187.242	26.504	928.407	749.710
188.256	26.599	927.260	749.109
189.271	26.511	926.931	748.416
190.286	26.573	926.116	747.944
191.300	26.501	925.143	746.798
192.315	25.917	923.778	743.221
193.329	25.064	922.160	738.343
194.344	24.760	920.586	735.764
195.359	25.365	921.239	738.711
196.373	26.222	921.631	742.486
197.388	26.533	921.304	743.435
198.402	26.393	921.023	742.566
199.417	26.304	920.177	741.455
200.432	26.344	920.317	741.666
201.446	26.443	918.970	740.920
202.461	26.011	918.222	738.483
203.475	26.089	917.803	738.401
204.490	25.623	916.329	735.245
205.504	24.582	913.974	729.042
206.519	24.801	914.485	730.281
207.534	25.841	914.522	734.488
208.548	25.920	914.016	734.339
209.563	26.332	913.536	735.565
210.577	26.291	913.191	735.057
211.592	26.072	912.433	733.488
212.607	26.505	912.355	735.123
213.621	26.601	911.855	735.043
214.636	26.618	910.847	734.235
215.650	26.602	910.416	733.759
216.665	26.564	909.853	733.084
217.680	26.600	909.543	732.917
218.694	26.585	908.997	732.349
219.709	26.327	908.256	730.648
220.723	25.940	907.229	728.193
221.738	26.253	906.728	728.990
222.753	26.274	906.340	728.700
223.767	26.261	905.565	727.957
224.782	26.378	905.047	727.948
225.796	26.640	903.990	728.088
226.811	26.753	903.505	728.085
227.826	26.280	902.684	725.463
228.840	25.646	901.026	721.522
229.855	25.458	900.210	720.051
230.869	25.685	899.577	720.392
231.884	25.406	898.621	718.447
232.899	25.369	898.666	718.272
233.913	26.083	898.764	721.141
234.928	26.364	898.466	721.959
235.942	26.165	897.566	720.377
236.957	26.168	896.892	719.784
237.972	25.941	895.739	717.892
238.986	25.939	895.435	717.579
240.001	25.872	895.223	717.078
241.015	25.974	894.534	716.869
242.030	26.079	893.742	716.589
243.045	26.251	892.982	716.597
244.059	26.363	892.680	716.734
245.074	26.503	892.288	716.913
246.088	26.390	892.001	716.170
247.103	26.047	890.947	713.902
248.117	26.081	890.097	713.292
249.132	26.578	890.058	715.164
250.147	27.105	889.942	717.086
251.161	27.003	889.609	716.353
252.176	27.327	888.890	716.988
253.190	27.227	888.252	716.016
254.205	27.350	887.811	716.082
255.220	27.432	887.834	716.358
256.234	27.526	886.598	715.668
257.249	27.447	885.822	714.667
258.263	27.089	885.790	713.175
259.278	27.108	884.886	712.456
260.293	27.246	884.399	712.542
261.307	27.243	884.026	712.166
262.322	27.308	883.370	711.829
263.336	27.179	882.511	710.570
264.351	26.828	880.818	707.775
265.366	25.614	879.136	701.628
266.380	25.197	878.184	699.182
267.395	26.183	878.428	703.157
268.409	26.848	878.790	705.972
269.424	26.740	877.732	704.642
270.439	26.949	877.731	705.391
271.453	27.134	876.954	705.422
272.468	27.028	876.691	704.735
273.482	27.225	875.766	704.695
274.497	27.378	875.836	705.280
275.512	27.124	874.542	703.195
276.526	26.520	873.808	700.205
277.541	26.642	873.082	700.033
278.555	27.137	873.026	701.837
279.570	26.927	872.311	700.392
280.585	26.738	871.605	699.033
281.599	26.869	870.826	698.850
282.614	27.144	870.311	699.434
283.628	26.553	869.414	696.381
284.643	26.168	868.542	694.138
285.657	26.543	868.780	695.709
286.672	26.426	867.820	694.429
287.687	26.058	866.505	691.904
288.701	26.372	866.995	693.438
289.716	26.757	866.266	694.271
290.730	26.270	865.744	691.927
291.745	26.251	864.789	691.027
292.760	26.179	863.637	689.771
293.774	25.996	863.130	688.607
294.789	26.853	863.850	692.395
295.803	27.710	863.600	695.403
296.818	27.575	863.334	694.611
297.833	27.692	862.929	694.669
298.847	27.391	862.150	692.834
299.862	27.103	860.911	690.685
300.876	27.365	860.348	691.165
301.891	27.493	860.465	691.685
302.906	27.594	859.979	691.616
303.920	27.250	858.444	689.020
304.935	27.162	857.874	688.165
305.949	27.429	857.811	689.065
306.964	27.567	857.477	689.257
307.979	27.322	856.828	687.751
308.993	27.281	856.036	686.899
310.008	27.732	855.633	688.215
311.022	27.845	855.025	688.090
312.037	27.715	854.759	687.326
313.052	27.308	854.093	685.197
314.066	27.049	853.476	683.669
315.081	26.454	851.772	680.007
316.095	25.838	850.456	676.584
317.110	26.372	850.503	678.563
318.125	27.167	850.821	681.742
319.139	26.860	849.974	679.853
320.154	25.699	847.903	673.793
321.168	25.213	847.044	671.234
322.183	25.821	847.339	673.681
323.197	26.711	847.979	677.458
324.212	26.935	848.016	678.266
325.227	27.320	847.179	678.974
326.241	27.244	846.999	678.486
327.256	27.291	846.031	677.826
328.270	27.138	845.655	676.895
329.285	27.124	844.802	676.101
330.300	27.014	844.159	675.116
331.314	26.662	843.227	673.005
332.329	26.653	842.995	672.727
333.343	27.197	842.597	674.366
334.358	27.440	842.317	674.983
335.373	27.470	841.793	674.617
336.387	27.551	841.237	674.409
337.402	27.827	840.617	674.874
338.416	27.888	840.526	674.968
339.431	27.842	839.630	674.018
340.446	27.945	839.595	674.312
341.460	28.263	838.732	674.732
342.475	28.136	838.342	673.890
343.489	27.822	837.796	672.233
344.504	27.992	837.050	672.199
345.519	28.124	836.962	672.555
346.533	28.118	836.602	672.187
347.548	28.442	836.037	672.861
348.562	28.414	835.684	672.415
349.577	28.471	834.687	671.762
350.592	28.207	834.401	670.507
351.606	28.105	833.917	669.685
352.621	28.162	833.433	669.444
353.635	28.141	832.904	668.886
354.650	27.961	832.475	667.821
355.665	27.738	831.437	666.116
356.679	26.763	829.522	660.971
357.694	26.534	828.839	659.532
358.708	27.146	829.245	662.030
359.723	27.071	828.724	661.281
360.738	27.426	828.244	662.130
361.752	27.755	828.681	663.619
362.767	27.837	828.456	663.678
363.781	28.178	827.946	664.448
364.796	28.652	827.634	665.859
365.810	28.778	827.095	665.824
366.825	28.653	827.154	665.360
367.840	28.654	826.418	664.710
368.854	28.484	825.886	663.608
369.869	28.031	824.945	661.157
370.883	27.878	824.156	659.911
371.898	27.933	823.967	659.901
372.913	27.903	823.205	659.125
373.927	28.013	822.772	659.117
374.942	28.179	821.684	658.785
375.956	28.160	821.542	658.542
376.971	28.173	821.026	658.120
377.986	28.380	820.456	658.348
379.000	28.579	820.029	658.662
380.015	28.515	820.094	658.424
381.029	28.434	819.164	657.329
382.044	28.307	818.532	656.309
383.059	28.508	817.885	656.453
384.073	28.688	816.965	656.299
385.088	28.572	817.079	655.917
386.102	28.575	816.181	655.149
387.117	28.373	815.447	653.783
388.132	28.303	814.743	652.909
389.146	28.113	814.263	651.792
390.161	27.578	813.157	648.944
391.175	27.547	812.816	648.504
392.190	28.227	813.057	651.059
393.205	28.149	812.419	650.212
394.219	27.285	810.668	645.687
395.234	25.430	808.614	637.419
396.248	24.682	807.621	633.929
397.263	25.852	808.076	638.379
398.278	27.589	809.866	645.898
399.292	28.071	809.583	647.323
400.307	27.820	808.625	645.610
401.321	27.744	808.461	645.154
402.336	27.723	808.285	644.883
403.350	28.130	807.872	645.936
404.365	28.590	808.086	647.673
405.380	28.848	807.580	648.121
406.394	29.408	807.507	649.977
407.409	29.433	807.291	649.834
408.423	29.247	806.741	648.678
409.438	29.106	805.803	647.372
410.453	29.391	805.380	647.976
411.467	29.284	805.186	647.386
412.482	29.278	804.587	646.826
413.496	29.278	803.917	646.231
414.511	29.392	803.919	646.575
415.526	29.306	803.525	645.900
416.540	29.377	802.796	645.504
417.555	29.198	802.494	644.579
418.569	28.899	801.727	642.860
419.584	28.905	801.195	642.398
420.599	29.154	800.755	642.856
421.613	105.517	1278.993	1429.568
422.628	90.832	1348.674	1429.699
