DTS Sentinel unit serial number:	SN413079Multiplexer serial number:	ORYXHardware model number:	OX4-SRSoftware version number:	ORYX F/W v4.00 Oryx Data Collector v3.7.2.0data status	okinstallation	princeton_trtdifferential loss correction	single-endedforward channel	channel 3reverse channel	N/Adate	2019/09/18time	06:32:35forward acquisition time	60.00reverse acquisition time	0.00gamma	496.2192k internal	0.2342k external	0.2342temperature offset calibration	0.9950default loss term (dB/km)	0.3790temperature slope calibration	1.0000multiplexer offset coefficient	1.0000multiplexer slope coefficient	1.0000fibre end	0.00T internal ref (°C)	23.25T ext. ref 1 (°C)	0.19T ext. ref 2 (°C)	17.35length (m)	temperature (°C)	Stokes	anti-Stokes-747.200	134.226	-0.273	0.354
-746.185	37.662	-0.100	0.089
-745.171	800.000	0.074	-0.217
-744.156	197.988	-0.220	0.337
-743.142	147.944	0.150	0.203
-742.127	-19.356	0.244	-0.151
-741.112	47.287	-0.072	-0.067
-740.098	-12.116	-0.287	0.189
-739.083	240.963	-0.111	0.186
-738.069	-200.000	-0.012	0.117
-737.054	-121.151	0.173	0.029
-736.039	435.601	-0.162	-0.352
-735.025	289.931	0.127	0.230
-734.010	-41.757	0.233	0.119
-732.996	-127.716	-0.347	0.050
-731.981	-200.000	0.020	-0.132
-730.966	156.961	0.092	-0.127
-729.952	202.328	-0.132	-0.204
-728.937	-200.000	-0.014	-0.292
-727.923	-200.000	-0.065	-0.363
-726.908	800.000	-0.038	-0.163
-725.894	175.668	-0.285	0.414
-724.879	52.404	-0.127	0.122
-723.864	678.674	0.112	-0.292
-722.850	53.527	-0.210	-0.202
-721.835	-87.219	-0.048	-0.015
-720.821	-152.154	0.285	-0.021
-719.806	800.000	-0.061	-0.223
-718.791	-38.738	-0.160	0.084
-717.777	-200.000	0.017	0.090
-716.762	800.000	-0.100	0.381
-715.748	711.751	0.017	0.045
-714.733	48.714	-0.217	0.204
-713.718	-55.581	-0.197	-0.088
-712.704	-200.000	-0.021	0.222
-711.689	-48.132	0.222	-0.107
-710.675	330.854	0.094	0.181
-709.660	391.713	-0.134	0.279
-708.645	6.588	0.191	0.142
-707.631	41.854	-0.090	0.082
-706.616	405.608	-0.056	0.119
-705.602	-109.239	0.254	0.054
-704.587	-80.251	-0.252	-0.084
-703.572	161.499	0.062	-0.087
-702.558	179.925	-0.077	-0.113
-701.543	186.764	-0.209	0.311
-700.529	-176.203	0.059	-0.002
-699.514	-90.535	-0.209	0.061
-698.499	7.549	0.059	0.044
-697.485	800.000	0.031	-0.093
-696.470	-124.658	-0.241	0.037
-695.456	800.000	0.048	0.177
-694.441	-200.000	0.082	0.404
-693.426	229.293	-0.127	0.208
-692.412	-140.226	0.305	0.032
-691.397	676.770	-0.166	-0.433
-690.383	-139.998	0.396	0.042
-689.368	217.890	0.307	-0.490
-688.354	123.188	-0.151	-0.189
-687.339	-57.942	0.148	0.065
-686.324	800.000	-0.032	0.106
-685.310	-143.009	0.127	-0.012
-684.295	735.396	0.095	-0.254
-683.281	127.644	0.080	0.101
-682.266	800.000	-0.038	-0.134
-681.251	-13.469	-0.263	0.171
-680.237	-159.066	0.348	-0.020
-679.222	346.303	-0.146	0.287
-678.208	84.775	0.082	0.090
-677.193	-200.000	0.337	0.001
-676.178	38.703	-0.099	0.088
-675.164	800.000	0.117	0.486
-674.149	234.842	-0.144	0.237
-673.135	39.926	0.223	-0.200
-672.120	-200.000	0.071	0.374
-671.105	118.686	0.129	0.159
-670.091	800.000	-0.060	0.187
-669.076	800.000	-0.098	-0.370
-668.062	-57.455	-0.303	0.133
-667.047	-136.424	0.074	0.009
-666.032	800.000	-0.014	-0.052
-665.018	-29.344	-0.217	0.124
-664.003	-200.000	-0.013	-0.156
-662.989	483.845	0.138	-0.314
-661.974	361.607	-0.052	0.104
-660.959	377.104	-0.077	0.158
-659.945	201.055	0.116	0.177
-658.930	470.199	0.110	0.246
-657.916	-77.143	-0.094	0.033
-656.901	17.860	-0.176	0.140
-655.886	-138.179	0.225	0.025
-654.872	36.331	0.026	0.023
-653.857	-179.014	-0.175	0.004
-652.843	302.461	-0.094	0.174
-651.828	-134.776	0.269	-0.033
-650.814	135.681	0.197	0.256
-649.799	49.172	-0.231	0.216
-648.784	-161.250	-0.137	-0.007
-647.770	66.702	0.187	0.190
-646.755	-50.868	-0.292	-0.137
-645.741	532.982	0.121	-0.286
-644.726	-200.000	-0.048	-0.256
-643.711	-14.613	-0.269	0.172
-642.697	800.000	-0.043	-0.130
-641.682	800.000	0.175	0.537
-640.668	-98.558	0.035	0.009
-639.653	-200.000	-0.034	-0.233
-638.638	800.000	-0.031	-0.086
-637.624	800.000	-0.088	-0.357
-636.609	-200.000	-0.062	-0.270
-635.595	-57.801	-0.094	-0.041
-634.580	-172.898	-0.115	0.004
-633.565	-147.741	0.175	-0.015
-632.551	1.602	-0.215	-0.154
-631.536	137.265	-0.058	-0.076
-630.522	274.475	-0.199	-0.351
-629.507	-200.000	-0.050	-0.376
-628.492	-56.991	-0.423	0.186
-627.478	796.584	0.086	-0.236
-626.463	-106.673	0.177	0.039
-625.449	183.263	-0.231	-0.340
-624.434	800.000	-0.088	0.356
-623.419	-76.480	-0.115	0.040
-622.405	30.987	-0.049	0.042
-621.390	211.886	-0.113	-0.178
-620.376	800.000	-0.072	0.209
-619.361	-133.243	-0.124	-0.016
-618.346	46.217	-0.141	0.130
-617.332	-19.186	0.203	-0.126
-616.317	800.000	-0.107	0.305
-615.303	96.533	0.069	0.079
-614.288	-200.000	0.003	-0.316
-613.273	-113.743	-0.155	0.030
-612.259	800.000	0.072	-0.266
-611.244	-200.000	0.005	0.177
-610.230	-200.000	0.037	-0.233
-609.215	-1.196	0.416	-0.293
-608.201	339.120	0.060	0.117
-607.186	-111.106	0.109	0.022
-606.171	439.888	0.100	0.218
-605.157	301.987	0.138	-0.254
-604.142	-20.434	-0.065	0.040
-603.128	-62.006	0.207	-0.086
-602.113	-200.000	-0.060	-0.289
-601.098	-200.000	0.003	0.230
-600.084	-3.919	0.228	-0.157
-599.069	-73.509	-0.119	-0.043
-598.055	-200.000	-0.010	-0.176
-597.040	-74.449	0.165	-0.059
-596.025	-56.534	-0.383	-0.169
-595.011	-53.401	0.285	-0.130
-593.996	34.346	-0.362	-0.315
-592.982	-83.935	-0.155	-0.049
-591.967	-200.000	-0.006	-0.089
-590.952	-152.532	-0.295	0.021
-589.938	66.582	-0.275	0.278
-588.923	-200.000	-0.020	-0.092
-587.909	-200.000	-0.044	-0.350
-586.894	-170.138	0.141	0.005
-585.879	800.000	0.072	-0.264
-584.865	-98.604	-0.315	-0.080
-583.850	-88.457	-0.298	0.089
-582.836	743.412	-0.115	-0.308
-581.821	800.000	0.059	0.229
-580.806	237.751	-0.073	0.121
-579.792	-111.161	0.292	0.060
-578.777	-200.000	0.038	0.232
-577.763	237.282	0.196	-0.324
-576.748	205.939	-0.066	0.102
-575.733	706.315	0.089	-0.235
-574.719	800.000	0.035	0.141
-573.704	-37.628	0.203	-0.107
-572.690	603.928	0.067	-0.167
-571.675	-200.000	0.044	0.318
-570.661	-64.500	-0.308	-0.124
-569.646	-200.000	0.015	-0.075
-568.631	-200.000	-0.045	-0.227
-567.617	-10.884	-0.283	-0.186
-566.602	-200.000	-0.024	-0.178
-565.588	-69.368	0.081	0.031
-564.573	92.562	0.212	0.238
-563.558	-84.517	0.177	0.056
-562.544	-148.676	0.140	-0.011
-561.529	-200.000	0.035	0.313
-560.515	-200.000	-0.052	-0.363
-559.500	-97.671	0.238	-0.061
-558.485	-153.345	0.217	-0.015
-557.471	169.430	0.072	0.102
-556.456	-200.000	0.043	0.308
-555.442	-55.735	0.137	0.061
-554.427	-114.924	-0.251	0.047
-553.412	17.392	0.127	-0.100
-552.398	-8.747	0.069	0.046
-551.383	-200.000	0.014	0.118
-550.369	-58.717	-0.309	0.133
-549.354	-200.000	0.035	0.244
-548.339	-200.000	-0.000	-0.032
-547.325	-43.653	-0.082	0.041
-546.310	415.521	0.116	-0.247
-545.296	-90.340	-0.399	-0.115
-544.281	-60.313	-0.157	-0.067
-543.266	97.728	0.121	0.139
-542.252	-92.465	0.125	-0.035
-541.237	800.000	-0.042	-0.182
-540.223	170.403	0.246	0.350
-539.208	800.000	0.078	-0.322
-538.193	65.252	-0.235	-0.236
-537.179	800.000	0.017	0.058
-536.164	109.010	0.235	0.279
-535.150	-104.830	-0.268	-0.061
-534.135	27.121	0.067	0.056
-533.121	-13.408	-0.103	-0.066
-532.106	288.553	0.019	0.034
-531.091	395.200	0.195	0.404
-530.077	-3.394	0.171	0.118
-529.062	310.413	0.098	0.183
-528.048	-200.000	0.136	0.677
-527.033	800.000	0.050	0.144
-526.018	144.025	0.045	0.060
-525.004	177.063	0.229	0.331
-523.989	549.462	-0.069	-0.165
-522.975	173.855	0.226	-0.324
-521.960	-19.141	0.258	-0.159
-520.945	-101.503	-0.193	0.047
-519.931	-200.000	-0.061	-0.339
-518.916	159.288	0.139	0.192
-517.902	-200.000	0.019	0.247
-516.887	336.594	-0.089	-0.172
-515.872	176.619	0.050	-0.073
-514.858	800.000	0.020	0.082
-513.843	-200.000	0.005	0.087
-512.829	800.000	-0.110	-0.400
-511.814	-122.503	-0.372	-0.060
-510.799	-159.850	-0.139	0.008
-509.785	77.172	-0.156	0.164
-508.770	-120.324	0.336	-0.057
-507.756	800.000	0.025	0.097
-506.741	550.237	-0.084	-0.200
-505.726	-200.000	-0.018	0.088
-504.712	-200.000	0.006	-0.186
-503.697	-76.580	0.209	0.073
-502.683	-70.122	-0.245	-0.092
-501.668	444.571	-0.021	-0.045
-500.653	68.061	-0.348	0.354
-499.639	-200.000	0.031	-0.203
-498.624	-145.041	0.038	0.003
-497.610	115.816	-0.013	-0.016
-496.595	-200.000	-0.048	0.257
-495.581	530.149	-0.063	-0.147
-494.566	-125.777	-0.370	0.056
-493.551	-90.806	-0.179	0.051
-492.537	-111.249	-0.217	0.044
-491.522	40.811	0.092	0.083
-490.508	192.301	-0.106	0.158
-489.493	36.829	-0.093	-0.082
-488.478	65.777	0.048	-0.048
-487.464	-73.057	0.125	-0.045
-486.449	-200.000	0.002	0.078
-485.435	159.510	0.231	-0.318
-484.420	-200.000	-0.008	-0.573
-483.405	15.675	0.136	-0.106
-482.391	-133.422	0.064	-0.008
-481.376	-127.117	0.281	-0.041
-480.362	19.546	-0.140	0.112
-479.347	-200.000	-0.022	-0.164
-478.332	49.288	0.126	-0.117
-477.318	3.067	-0.233	-0.168
-476.303	-200.000	-0.009	0.079
-475.289	800.000	0.053	0.151
-474.274	287.395	-0.119	-0.213
-473.259	-13.786	-0.109	-0.070
-472.245	143.962	0.104	-0.137
-471.230	45.911	-0.190	-0.174
-470.216	-104.234	-0.307	-0.071
-469.201	800.000	0.074	-0.205
-468.186	-94.990	0.361	-0.097
-467.172	57.382	0.145	0.140
-466.157	-112.324	-0.147	-0.029
-465.143	-45.518	0.269	-0.132
-464.128	342.576	0.090	0.174
-463.113	337.143	-0.275	0.529
-462.099	800.000	0.066	0.187
-461.084	106.909	-0.114	0.134
-460.070	604.587	0.086	0.211
-459.055	-69.144	-0.396	-0.151
-458.040	165.539	-0.204	-0.285
-457.026	-200.000	-0.017	0.365
-456.011	-200.000	-0.019	0.177
-454.997	6.386	-0.109	-0.080
-453.982	41.080	0.092	-0.082
-452.968	800.000	-0.089	-0.273
-451.953	-200.000	0.030	0.154
-450.938	82.933	-0.126	-0.136
-449.924	-200.000	0.020	-0.154
-448.909	196.668	0.113	0.171
-447.895	480.117	0.089	-0.200
-446.880	-80.051	0.236	-0.078
-445.865	267.349	0.083	0.144
-444.851	-131.383	0.202	0.027
-443.836	-188.657	0.304	-0.004
-442.822	-200.000	-0.007	-0.167
-441.807	800.000	-0.015	0.056
-440.792	-120.466	-0.372	-0.063
-439.778	-152.209	-0.068	-0.005
-438.763	-24.246	0.250	-0.148
-437.749	-200.000	0.021	0.423
-436.734	-3.381	0.156	-0.108
-435.719	800.000	0.056	-0.204
-434.705	79.886	-0.114	0.121
-433.690	-58.122	0.185	-0.080
-432.676	-82.596	0.140	-0.045
-431.661	-200.000	0.027	0.322
-430.646	800.000	-0.062	-0.189
-429.632	8.509	-0.206	0.153
-428.617	83.108	0.217	0.234
-427.603	-200.000	-0.033	-0.344
-426.588	36.773	-0.234	0.205
-425.573	207.882	0.074	0.114
-424.559	158.068	-0.199	-0.273
-423.544	-200.000	0.034	-0.152
-422.530	761.808	-0.112	-0.301
-421.515	335.029	0.062	-0.119
-420.500	-101.779	-0.110	-0.026
-419.486	-78.095	-0.302	-0.103
-418.471	-200.000	-0.006	0.049
-417.457	-69.697	0.214	0.081
-416.442	-8.667	-0.242	0.161
-415.428	800.000	0.091	-0.270
-414.413	-78.317	0.274	0.093
-413.398	-121.861	0.146	-0.024
-412.384	-103.996	0.372	0.086
-411.369	103.983	0.105	-0.122
-410.355	18.030	-0.206	-0.163
-409.340	-125.481	-0.118	0.018
-408.325	-200.000	0.047	0.355
-407.311	-200.000	-0.026	-0.220
-406.296	216.594	-0.169	-0.266
-405.282	-130.339	0.133	0.018
-404.267	142.916	0.297	0.391
-403.252	-89.978	0.142	-0.041
-402.238	800.000	0.080	0.344
-401.223	-142.288	-0.368	0.036
-400.209	31.333	0.121	0.103
-399.194	738.739	-0.115	0.304
-398.179	-91.036	-0.164	0.047
-397.165	123.708	-0.249	-0.309
-396.150	-200.000	-0.033	0.212
-395.136	1.574	-0.232	-0.165
-394.121	-168.909	0.186	0.007
-393.106	-137.659	-0.242	-0.027
-392.092	-13.905	0.156	-0.100
-391.077	-3.675	0.138	-0.094
-390.063	-152.591	-0.159	-0.011
-389.048	121.943	0.056	-0.069
-388.033	-34.569	-0.100	-0.054
-387.019	-28.118	0.329	0.188
-386.004	56.030	-0.163	0.156
-384.990	32.932	-0.089	0.076
-383.975	-200.000	-0.007	-0.249
-382.960	-58.803	-0.255	-0.109
-381.946	-40.492	-0.191	-0.098
-380.931	-120.139	-0.552	0.093
-379.917	-11.240	-0.270	0.176
-378.902	-168.173	-0.074	0.003
-377.888	-60.975	-0.133	-0.055
-376.873	-115.221	-0.255	-0.048
-375.858	-200.000	0.083	0.387
-374.844	314.635	-0.006	0.010
-373.829	-16.416	0.262	0.164
-372.815	-49.627	0.104	-0.049
-371.800	8.062	-0.181	0.134
-370.785	242.894	0.133	0.220
-369.771	800.000	0.049	-0.175
-368.756	263.380	0.340	0.584
-367.742	-75.896	-0.170	-0.059
-366.727	-200.000	0.023	-0.335
-365.712	35.127	0.097	0.084
-364.698	-140.247	0.182	0.019
-363.683	-200.000	0.031	-0.619
-362.669	-16.844	-0.168	-0.105
-361.654	-200.000	0.073	0.398
-360.639	-56.194	0.205	-0.090
-359.625	-56.708	-0.279	0.122
-358.610	113.310	-0.098	0.117
-357.596	-200.000	0.035	-0.170
-356.581	-163.153	0.288	-0.014
-355.566	82.694	-0.201	-0.216
-354.552	800.000	-0.087	-0.258
-353.537	80.322	0.238	-0.253
-352.523	-51.382	-0.176	-0.081
-351.508	800.000	-0.138	0.491
-350.493	-37.700	0.348	-0.183
-349.479	-55.589	-0.071	0.031
-348.464	-76.888	-0.079	0.027
-347.450	-167.937	0.328	-0.013
-346.435	21.201	0.177	-0.142
-345.420	-200.000	0.008	-0.147
-344.406	101.923	0.071	-0.082
-343.391	72.133	0.241	0.248
-342.377	3.924	-0.039	-0.028
-341.362	-23.341	0.249	0.147
-340.348	-200.000	-0.019	0.294
-339.333	668.344	-0.105	-0.268
-338.318	163.612	0.139	-0.192
-337.304	42.602	-0.207	0.186
-336.289	-2.539	0.169	-0.117
-335.275	145.776	0.017	-0.022
-334.260	140.849	0.132	-0.172
-333.245	-73.597	-0.215	0.077
-332.231	-200.000	0.030	-0.284
-331.216	-27.272	-0.121	-0.070
-330.202	194.502	-0.096	-0.143
-329.187	785.203	-0.103	-0.279
-328.172	351.612	-0.166	0.325
-327.158	71.099	0.030	0.031
-326.143	-105.914	-0.098	0.022
-325.129	119.035	0.118	0.144
-324.114	-200.000	-0.003	-0.179
-323.099	53.300	-0.121	0.114
-322.085	-120.795	-0.265	-0.044
-321.070	110.359	-0.099	-0.117
-320.056	-109.471	-0.056	-0.012
-319.041	-15.730	0.258	0.162
-318.026	341.076	0.066	-0.128
-317.012	-167.031	0.201	0.008
-315.997	470.996	0.116	0.258
-314.983	56.255	0.050	-0.048
-313.968	335.829	-0.140	0.268
-312.953	-55.574	-0.239	0.106
-311.939	9.134	0.114	0.085
-310.924	-200.000	0.028	-0.284
-309.910	-68.181	0.110	0.042
-308.895	-96.755	-0.265	0.069
-307.880	800.000	0.069	-0.265
-306.866	-74.871	-0.240	0.085
-305.851	-200.000	0.023	-0.393
-304.837	-139.527	-0.171	0.018
-303.822	-76.956	0.366	0.126
-302.807	-200.000	0.000	0.059
-301.793	-200.000	0.022	-0.099
-300.778	65.786	0.308	0.307
-299.764	-48.169	0.067	-0.032
-298.749	3.795	-0.283	-0.203
-297.735	800.000	0.117	-0.404
-296.720	49.242	0.027	0.025
-295.705	-148.208	0.091	-0.007
-294.691	379.407	0.085	-0.172
-293.676	-145.338	-0.226	-0.020
-292.662	526.057	-0.123	0.286
-291.647	-200.000	0.024	0.158
-290.632	-94.495	-0.258	0.069
-289.618	-17.596	0.187	-0.116
-288.603	800.000	0.092	0.295
-287.589	370.851	-0.071	-0.142
-286.574	-1.048	0.076	0.053
-285.559	800.000	0.015	0.057
-284.545	79.144	-0.024	0.025
-283.530	-120.258	0.235	-0.039
-282.516	-142.023	0.174	0.017
-281.501	577.538	0.089	0.213
-280.486	364.059	0.136	0.268
-279.472	-194.049	-0.384	-0.003
-278.457	800.000	-0.121	0.385
-277.443	-59.856	0.197	-0.083
-276.428	-9.041	0.327	0.215
-275.413	138.861	0.066	0.085
-274.399	698.052	-0.067	-0.174
-273.384	-200.000	0.035	0.321
-272.370	-200.000	-0.050	0.293
-271.355	-134.980	0.161	-0.019
-270.340	-31.772	-0.059	0.033
-269.326	-125.996	0.206	0.030
-268.311	-128.728	-0.078	0.011
-267.297	-120.609	-0.113	-0.019
-266.282	-140.790	0.100	-0.010
-265.267	-78.866	0.169	-0.057
-264.253	800.000	0.073	-0.223
-263.238	73.250	0.187	-0.193
-262.224	-68.070	0.426	-0.163
-261.209	-200.000	0.001	-0.220
-260.195	-93.890	0.089	0.024
-259.180	270.177	0.124	0.214
-258.165	-180.679	0.211	0.004
-257.151	800.000	0.058	0.195
-256.136	18.728	0.037	0.029
-255.122	87.198	-0.153	0.167
-254.107	17.384	0.075	0.059
-253.092	-95.708	-0.161	0.042
-252.078	-92.337	0.356	0.098
-251.063	408.694	-0.061	0.127
-250.049	412.200	-0.078	0.163
-249.034	-148.461	0.347	-0.028
-248.019	-45.422	-0.265	-0.129
-247.005	-80.203	0.182	0.060
-245.990	189.935	-0.117	0.172
-244.976	-26.975	0.152	-0.087
-243.961	-61.894	0.052	-0.021
-242.946	-86.655	-0.213	0.064
-241.932	-64.541	0.230	-0.092
-240.917	127.441	-0.304	0.379
-239.903	7.087	0.198	-0.145
-238.888	-163.683	-0.276	-0.013
-237.873	8.370	0.117	-0.086
-236.859	-187.216	0.033	-0.000
-235.844	69.057	0.135	0.136
-234.830	79.717	0.201	0.212
-233.815	-200.000	-0.029	-0.154
-232.800	-81.127	-0.169	-0.055
-231.786	-54.710	0.249	0.111
-230.771	-200.000	0.039	0.339
-229.757	-200.000	0.006	-0.074
-228.742	-200.000	-0.035	0.258
-227.727	279.311	0.115	0.202
-226.713	-8.664	0.049	-0.032
-225.698	14.786	-0.097	-0.075
-224.684	256.961	-0.022	-0.037
-223.669	27.814	-0.200	0.166
-222.655	332.240	-0.012	0.022
-221.640	250.328	-0.062	-0.103
-220.625	-200.000	0.023	0.130
-219.611	-200.000	0.029	0.190
-218.596	-194.574	-0.134	-0.001
-217.582	-76.737	-0.236	0.081
-216.567	-88.157	-0.196	0.058
-215.552	6.848	0.126	-0.092
-214.538	800.000	0.046	0.132
-213.523	589.619	0.035	0.085
-212.509	256.145	0.159	-0.268
-211.494	-97.174	-0.155	0.040
-210.479	-13.110	0.324	0.206
-209.465	-135.829	-0.171	-0.020
-208.450	281.202	0.063	0.111
-207.436	-8.703	0.285	-0.188
-206.421	-200.000	-0.019	-0.183
-205.406	44.060	0.198	-0.178
-204.392	800.000	0.025	0.104
-203.377	-39.968	-0.203	-0.104
-202.363	-127.670	-0.224	-0.032
-201.348	-62.722	0.202	-0.082
-200.333	800.000	0.072	0.198
-199.319	-200.000	-0.050	0.248
-198.304	-20.356	-0.071	-0.043
-197.290	534.979	0.158	-0.368
-196.275	71.439	0.246	0.250
-195.260	324.082	-0.107	0.200
-194.246	-31.017	0.273	0.151
-193.231	-75.462	-0.237	-0.083
-192.217	232.463	-0.078	0.125
-191.202	96.639	0.076	0.085
-190.187	-139.901	0.216	0.022
-189.173	-141.849	-0.036	0.003
-188.158	-93.931	-0.201	-0.054
-187.144	10.195	0.363	-0.271
-186.129	800.000	-0.083	-0.237
-185.114	-119.083	0.159	-0.027
-184.100	800.000	0.021	-0.060
-183.085	127.628	0.064	-0.079
-182.071	-54.289	0.240	0.107
-181.056	800.000	-0.058	-0.214
-180.042	800.000	-0.054	0.167
-179.027	40.953	-0.186	0.164
-178.012	800.000	0.059	0.225
-176.998	-89.295	0.065	0.019
-175.983	800.000	-0.012	-0.042
-174.969	800.000	-0.077	-0.260
-173.954	-200.000	0.007	-0.042
-172.939	-200.000	-0.301	0.001
-171.925	121.820	-0.184	0.225
-170.910	-17.394	0.198	0.122
-169.896	-158.712	-0.029	0.002
-168.881	-200.000	0.004	-0.275
-167.866	183.882	0.076	0.110
-166.852	-18.534	0.025	0.015
-165.837	-5.277	-0.129	0.087
-164.823	372.033	0.126	0.250
-163.808	135.812	-0.266	0.339
-162.793	352.926	-0.119	-0.231
-161.779	662.171	0.124	0.313
-160.764	800.000	-0.086	-0.308
-159.750	-23.868	0.043	-0.025
-158.735	-200.000	-0.021	0.315
-157.720	-200.000	0.015	-0.067
-156.706	-81.323	-0.199	0.064
-155.691	800.000	-0.045	0.192
-154.677	-57.583	-0.286	-0.123
-153.662	-105.442	0.233	0.052
-152.647	-5.682	-0.282	0.189
-151.633	-94.456	0.166	-0.044
-150.618	-5.857	0.140	0.094
-149.604	-200.000	-0.042	0.261
-148.589	-200.000	-0.022	-0.210
-147.574	426.453	-0.093	-0.196
-146.560	124.049	-0.181	-0.222
-145.545	800.000	0.056	-0.160
-144.531	609.386	-0.050	0.123
-143.516	-158.693	0.360	-0.020
-142.502	-107.458	0.083	0.018
-141.487	-24.285	-0.118	-0.069
-140.472	81.741	0.185	-0.195
-139.458	-200.000	0.041	0.305
-138.443	-113.775	0.346	0.066
-137.429	-200.000	0.021	0.234
-136.414	125.454	-0.067	0.083
-135.399	-17.788	0.472	0.290
-134.385	800.000	-0.009	0.030
-133.370	417.803	-0.099	-0.206
-132.356	-13.153	0.271	0.172
-131.341	-27.245	-0.306	0.174
-130.326	-181.308	0.181	-0.003
-129.312	-64.804	0.238	0.094
-128.297	-157.500	0.189	0.011
-127.283	-38.070	-0.161	0.084
-126.268	-63.774	-0.203	-0.081
-125.253	233.291	-0.082	0.132
-124.239	-107.491	-0.191	0.041
-123.224	-110.232	0.474	-0.097
-122.210	40.191	0.319	0.280
-121.195	-85.165	-0.062	-0.019
-120.180	800.000	-0.043	0.148
-119.166	25.504	0.188	0.153
-118.151	-139.850	0.316	0.033
-117.137	800.000	-0.112	-0.307
-116.122	24.422	-0.218	0.176
-115.107	241.657	-0.043	0.071
-114.093	800.000	0.031	-0.092
-113.078	-109.317	0.269	-0.056
-112.064	-124.947	0.360	0.054
-111.049	-116.881	0.064	0.011
-110.034	76.695	0.318	-0.329
-109.020	-200.000	-0.004	-0.111
-108.005	45.874	0.158	-0.143
-106.991	-82.703	0.189	0.060
-105.976	-171.939	-0.413	-0.013
-104.962	110.594	-0.194	0.228
-103.947	283.102	0.072	0.127
-102.932	91.818	0.095	-0.105
-101.918	260.204	0.197	0.333
-100.903	-42.086	0.154	0.077
-99.889	-200.000	-0.030	-0.144
-98.874	126.106	-0.181	-0.223
-97.859	-200.000	-0.028	0.349
-96.845	186.819	-0.081	-0.117
-95.830	-200.000	0.042	0.314
-94.816	60.268	-0.090	0.087
-93.801	-53.276	-0.001	0.001
-92.786	-200.000	0.026	-0.325
-91.772	6.129	-0.358	-0.259
-90.757	109.127	0.188	-0.220
-89.743	-20.392	-0.112	-0.067
-88.728	54.247	0.107	0.100
-87.713	344.798	-0.127	0.243
-86.699	-85.110	0.338	0.103
-85.684	46.606	0.153	0.139
-84.670	-16.324	-0.208	-0.129
-83.655	-157.389	0.304	0.018
-82.640	-179.291	0.240	0.005
-81.626	-101.288	0.220	0.052
-80.611	-174.291	-0.110	0.003
-79.597	202.480	0.153	0.231
-78.582	-11.639	-0.071	0.045
-77.567	-200.000	0.117	-0.573
-76.553	800.000	0.064	0.249
-75.538	-108.619	0.204	0.043
-74.524	318.595	-0.052	-0.096
-73.509	-48.354	-0.314	0.148
-72.494	217.615	0.067	0.104
-71.480	155.498	0.215	-0.289
-70.465	800.000	0.030	-0.108
-69.451	-145.371	-0.321	-0.028
-68.436	-117.057	-0.126	-0.022
-67.422	-20.944	-0.149	0.089
-66.407	-54.886	-0.315	0.139
-65.392	83.418	0.140	-0.149
-64.378	113.924	0.064	0.076
-63.363	-83.788	0.280	0.087
-62.349	424.290	0.076	0.160
-61.334	176.419	-0.838	-1.188
-60.319	88.632	0.800	0.867
-59.305	372.247	-0.529	-1.049
-58.290	153.066	0.838	1.118
-57.276	576.305	0.727	1.731
-56.261	-200.000	124.913	647.161
-55.246	403.659	1573.828	3230.260
-54.232	142.126	2732.979	3534.831
-53.217	93.946	2188.082	2419.183
-52.203	33.655	1704.636	1444.964
-51.188	26.108	1522.664	1239.075
-50.173	24.311	1499.157	1207.734
-49.159	48.593	1570.156	1434.592
-48.144	45.915	1583.301	1427.937
-47.130	26.349	1532.127	1248.243
-46.115	23.560	1515.627	1215.665
-45.100	23.435	1512.210	1212.021
-44.086	23.300	1510.734	1209.868
-43.071	23.307	1508.720	1208.259
-42.057	23.243	1506.847	1206.270
-41.042	23.245	1505.482	1205.145
-40.027	23.249	1504.023	1203.957
-39.013	23.235	1502.618	1202.692
-37.998	23.206	1501.396	1201.466
-36.984	23.109	1500.503	1200.050
-35.969	23.204	1498.904	1199.367
-34.954	23.220	1497.246	1198.101
-33.940	23.109	1496.157	1196.426
-32.925	23.236	1494.709	1196.084
-31.911	23.394	1492.776	1195.555
-30.896	23.270	1492.381	1194.353
-29.881	23.320	1490.685	1193.284
-28.867	23.308	1489.322	1192.063
-27.852	23.278	1487.949	1190.719
-26.838	23.245	1486.563	1189.341
-25.823	23.301	1484.979	1188.400
-24.809	23.307	1483.312	1187.060
-23.794	23.289	1481.999	1185.841
-22.779	23.291	1480.521	1184.627
-21.765	23.270	1479.414	1183.553
-20.750	23.284	1478.538	1182.896
-19.736	23.212	1477.307	1181.387
-18.721	23.295	1476.233	1181.033
-17.706	23.251	1474.945	1179.661
-16.692	23.297	1474.035	1179.194
-15.677	23.182	1473.558	1178.001
-14.663	23.243	1472.374	1177.412
-13.648	23.241	1471.818	1176.909
-12.633	23.205	1470.938	1175.918
-11.619	23.294	1469.323	1175.173
-10.604	23.274	1468.667	1174.468
-9.590	23.285	1468.089	1174.035
-8.575	23.171	1467.300	1172.598
-7.560	23.179	1466.030	1171.591
-6.546	23.393	1465.330	1172.403
-5.531	23.338	1464.139	1171.041
-4.517	23.298	1463.099	1169.896
-3.502	23.148	1462.824	1168.638
-2.487	23.209	1461.579	1168.001
-1.473	23.222	1460.850	1167.455
-0.458	23.239	1459.588	1166.511
0.556	21.453	1449.381	1154.206
1.571	18.445	1424.829	1115.010
2.586	15.072	1363.780	1046.100
3.600	13.611	1279.635	972.901
4.615	12.641	1236.586	934.580
5.629	11.115	1179.662	883.209
6.644	5.504	1097.688	793.380
7.659	0.886	1062.153	744.932
8.673	0.245	1057.069	738.164
9.688	0.256	1053.806	735.870
10.702	0.058	1052.796	734.134
11.717	0.202	1050.197	732.957
12.731	1.929	1051.411	742.153
13.746	8.109	1059.392	777.951
14.761	14.298	1067.288	814.021
15.775	16.520	1069.732	826.688
16.790	16.433	1068.443	825.197
17.804	15.349	1066.147	818.066
18.819	14.645	1064.173	813.049
19.834	14.096	1063.610	809.876
20.848	13.976	1062.332	808.247
21.863	13.685	1061.373	806.031
22.877	13.396	1060.798	804.116
23.892	13.137	1059.941	802.138
24.907	13.254	1058.653	801.661
25.921	13.165	1058.242	800.848
26.936	13.157	1057.813	800.414
27.950	13.113	1057.655	800.009
28.965	13.210	1056.421	799.473
29.980	13.195	1055.938	798.967
30.994	13.309	1054.299	798.205
32.009	13.404	1053.465	797.960
33.023	13.377	1053.005	797.415
34.038	13.343	1051.887	796.331
35.053	13.330	1051.601	795.985
36.067	13.249	1051.139	795.173
37.082	13.220	1049.910	794.032
38.096	13.384	1048.810	793.918
39.111	13.242	1048.332	792.807
40.126	13.249	1047.549	792.176
41.140	13.250	1046.646	791.430
42.155	13.315	1045.296	790.648
43.169	13.098	1044.881	789.227
44.184	13.268	1043.186	788.690
45.199	13.175	1042.719	787.820
46.213	13.179	1041.364	786.748
47.228	13.220	1040.375	786.124
48.242	13.187	1039.648	785.349
49.257	13.289	1038.102	784.597
50.271	13.189	1037.726	783.767
51.286	13.073	1036.705	782.377
52.301	13.292	1035.828	782.685
53.315	13.310	1035.117	782.165
54.330	13.205	1034.168	780.878
55.344	13.097	1033.399	779.723
56.359	13.255	1031.997	779.341
57.374	13.203	1031.247	778.457
58.388	13.172	1030.739	777.860
59.403	13.096	1029.691	776.642
60.417	13.235	1028.596	776.401
61.432	13.126	1028.134	775.473
62.447	13.117	1027.275	774.713
63.461	13.018	1027.112	774.057
64.476	13.042	1025.736	773.064
65.490	12.985	1025.016	772.189
66.505	13.032	1023.855	771.462
67.520	13.157	1023.287	771.550
68.534	13.065	1022.678	770.596
69.549	13.095	1022.120	770.247
70.563	13.042	1020.995	769.081
71.578	13.137	1020.311	768.943
72.593	13.081	1019.595	768.072
73.607	13.025	1018.441	766.875
74.622	13.126	1017.329	766.443
75.636	13.034	1016.890	765.615
76.651	12.919	1016.220	764.507
77.666	13.101	1015.293	764.586
78.680	13.135	1013.971	763.682
79.695	13.138	1013.445	763.229
80.709	13.052	1013.549	762.843
81.724	13.143	1012.217	762.195
82.739	13.183	1011.506	761.777
83.753	13.260	1010.620	761.396
84.768	13.215	1010.142	760.760
85.782	13.251	1009.457	760.342
86.797	13.326	1008.618	759.991
87.812	13.317	1007.462	759.008
88.826	13.212	1007.102	758.190
89.841	13.198	1006.021	757.246
90.855	13.248	1005.356	756.906
91.870	13.268	1004.469	756.262
92.884	13.355	1003.453	755.829
93.899	13.323	1002.931	755.225
94.914	13.435	1001.984	754.954
95.928	13.358	1001.274	754.001
96.943	13.434	1000.280	753.534
97.957	13.413	999.840	753.037
98.972	13.353	999.028	752.087
99.987	13.365	998.563	751.723
101.001	13.366	997.537	750.891
102.016	13.380	996.478	750.092
103.030	13.361	995.928	749.525
104.045	13.339	995.026	748.678
105.060	13.382	993.709	747.815
106.074	13.411	992.868	747.248
107.089	13.378	991.770	746.208
108.103	13.187	991.422	745.019
109.118	13.183	990.541	744.273
110.133	13.149	989.909	743.580
111.147	13.202	988.667	742.816
112.162	13.191	988.003	742.205
113.176	13.170	987.423	741.607
114.191	13.350	985.529	740.927
115.206	13.281	985.233	740.328
116.220	13.286	984.524	739.753
117.235	13.304	983.379	738.909
118.249	13.223	982.734	737.996
119.264	13.252	981.982	737.497
120.279	13.287	981.196	736.997
121.293	13.209	980.537	736.087
122.308	13.262	979.523	735.498
123.322	13.233	978.572	734.592
124.337	13.258	977.836	734.082
125.352	13.235	976.463	732.884
126.366	13.205	975.201	731.740
127.381	13.245	974.144	731.061
128.395	13.207	973.029	729.991
129.410	13.298	971.867	729.457
130.424	13.190	971.545	728.675
131.439	13.243	970.422	728.002
132.454	13.254	969.683	727.428
133.468	13.260	968.691	726.650
134.483	13.256	968.306	726.278
135.497	13.227	968.147	725.968
136.512	13.327	966.841	725.361
137.527	13.149	966.599	724.335
138.541	13.272	965.564	724.036
139.556	13.290	964.608	723.332
140.570	13.356	963.814	722.961
141.585	13.395	963.103	722.535
142.600	13.357	962.568	721.905
143.614	13.315	961.810	721.086
144.629	13.405	960.826	720.677
145.643	13.387	960.411	720.226
146.658	13.450	959.387	719.666
147.673	13.508	958.348	719.075
148.687	13.494	957.661	718.436
149.702	13.342	957.100	717.292
150.716	13.396	955.878	716.545
151.731	13.496	954.774	716.089
152.746	13.389	954.428	715.302
153.760	13.440	953.722	714.931
154.775	13.357	953.382	714.253
155.789	13.473	952.156	713.773
156.804	13.444	951.660	713.212
157.819	13.627	950.188	712.834
158.833	13.583	949.974	712.419
159.848	13.626	949.315	712.049
160.862	13.636	948.635	711.518
161.877	13.507	948.110	710.508
162.892	13.515	947.175	709.779
163.906	13.517	946.751	709.406
164.921	13.438	945.887	708.358
165.935	13.482	944.471	707.422
166.950	13.497	943.233	706.497
167.964	13.593	942.758	706.488
168.979	13.530	941.507	705.222
169.994	13.504	940.945	704.626
171.008	13.555	939.645	703.810
172.023	13.606	938.947	703.440
173.037	13.640	938.557	703.230
174.052	13.716	937.214	702.482
175.067	13.573	937.137	701.759
176.081	13.625	935.926	701.007
177.096	13.702	934.793	700.421
178.110	13.611	934.299	699.605
179.125	13.572	933.770	698.983
180.140	13.605	932.802	698.335
181.154	13.682	932.118	698.087
182.169	13.646	931.858	697.679
183.183	13.740	931.333	697.618
184.198	13.772	930.218	696.859
185.213	13.847	929.426	696.517
186.227	13.850	928.890	696.066
187.242	13.850	928.557	695.755
188.256	13.967	927.590	695.461
189.271	14.050	926.592	694.995
190.286	13.831	925.769	693.400
191.300	13.894	925.345	693.285
192.315	13.692	924.658	691.868
193.329	13.703	923.795	691.206
194.344	13.700	923.285	690.751
195.359	13.733	923.120	690.705
196.373	13.735	922.772	690.390
197.388	13.858	921.661	690.008
198.402	13.931	921.370	690.034
199.417	13.927	921.254	689.868
200.432	14.106	920.139	689.715
201.446	13.966	919.954	688.936
202.461	13.986	919.770	688.821
203.475	14.115	918.528	688.363
204.490	14.165	918.117	688.201
205.504	14.156	917.496	687.636
206.519	14.076	916.460	686.470
207.534	14.114	915.752	686.036
208.548	14.130	915.139	685.580
209.563	14.054	914.762	684.927
210.577	14.040	913.695	684.009
211.592	14.001	913.389	683.560
212.607	14.143	912.476	683.399
213.621	14.188	911.906	683.093
214.636	14.091	911.424	682.274
215.650	14.250	910.784	682.387
216.665	14.279	909.832	681.735
217.680	14.388	909.484	681.860
218.694	14.296	908.914	680.994
219.709	14.292	908.845	680.864
220.723	14.387	908.012	680.570
221.738	14.214	907.444	679.377
222.753	14.221	906.237	678.441
223.767	14.324	905.649	678.363
224.782	14.328	905.028	677.854
225.796	14.449	904.106	677.593
226.811	14.324	903.435	676.523
227.826	14.419	902.647	676.259
228.840	14.414	901.816	675.554
229.855	14.358	901.496	675.029
230.869	14.434	900.858	674.801
231.884	14.410	900.302	674.226
232.899	14.455	899.480	673.734
233.913	14.409	898.821	672.992
234.928	14.317	898.320	672.191
235.942	14.433	897.536	672.008
236.957	14.442	896.682	671.347
237.972	14.561	895.848	671.143
238.986	14.452	895.618	670.472
240.001	14.388	895.212	669.851
241.015	14.562	894.372	669.863
242.030	14.584	893.628	669.333
243.045	14.507	892.968	668.473
244.059	14.627	892.145	668.277
245.074	14.532	891.877	667.639
246.088	14.609	891.069	667.280
247.103	14.611	890.844	667.063
248.117	14.619	890.166	666.527
249.132	14.688	889.478	666.228
250.147	14.769	888.827	666.005
251.161	14.843	887.671	665.376
252.176	14.704	887.196	664.408
253.190	14.923	886.443	664.654
254.205	14.798	886.181	663.902
255.220	14.970	885.517	664.027
256.234	14.924	884.624	663.116
257.249	14.886	884.269	662.644
258.263	15.038	883.625	662.702
259.278	15.118	883.137	662.597
260.293	15.007	882.465	661.594
261.307	15.057	881.927	661.329
262.322	15.052	881.460	660.899
263.336	15.036	880.871	660.338
264.351	15.165	880.182	660.273
265.366	15.231	879.255	659.776
266.380	15.179	878.745	659.133
267.395	15.175	878.157	658.617
268.409	15.085	877.649	657.825
269.424	15.288	876.494	657.695
270.439	15.147	876.282	656.927
271.453	15.085	875.088	655.731
272.468	15.070	874.538	655.203
273.482	15.061	873.963	654.676
274.497	15.030	873.618	654.240
275.512	15.268	872.357	654.164
276.526	15.266	871.946	653.790
277.541	15.275	871.224	653.228
278.555	15.117	870.955	652.354
279.570	15.308	869.857	652.215
280.585	15.303	869.567	651.921
281.599	15.315	868.902	651.412
282.614	15.284	868.759	651.125
283.628	15.315	867.955	650.588
284.643	15.346	867.445	650.268
285.657	15.332	866.760	649.643
286.672	15.227	866.691	649.124
287.687	15.354	865.352	648.555
288.701	15.422	864.739	648.303
289.716	15.392	864.673	648.080
290.730	15.380	863.852	647.363
291.745	15.428	863.160	646.968
292.760	15.563	862.444	646.894
293.774	15.541	861.937	646.373
294.789	15.432	861.553	645.608
295.803	15.537	860.757	645.360
296.818	15.548	860.437	645.106
297.833	15.535	859.497	644.292
298.847	15.390	859.130	643.404
299.862	15.548	858.175	643.238
300.876	15.681	857.527	643.203
301.891	15.524	856.637	641.878
302.906	15.682	856.217	642.113
303.920	15.702	855.618	641.680
304.935	15.696	854.895	641.060
305.949	15.613	854.404	640.318
306.964	15.752	853.795	640.335
307.979	15.842	852.957	639.991
308.993	15.830	852.481	639.534
310.008	15.887	852.054	639.373
311.022	15.793	851.519	638.557
312.037	15.904	850.924	638.474
313.052	15.664	850.780	637.402
314.066	15.899	849.721	637.442
315.081	15.705	849.308	636.342
316.095	15.738	848.986	636.170
317.110	15.799	848.133	635.703
318.125	15.773	847.657	635.194
319.139	15.772	846.899	634.565
320.154	15.726	846.663	634.157
321.168	15.838	846.303	634.254
322.183	16.012	845.197	634.022
323.197	15.906	844.926	633.366
324.212	16.018	843.923	632.978
325.227	15.874	843.810	632.298
326.241	16.073	843.246	632.566
327.256	15.931	842.901	631.718
328.270	15.938	842.104	631.091
329.285	15.962	841.562	630.716
330.300	15.935	840.879	630.050
331.314	15.928	840.342	629.566
332.329	15.963	839.567	629.061
333.343	16.010	838.739	628.560
334.358	16.099	838.697	628.805
335.373	16.084	837.962	628.140
336.387	16.141	837.385	627.865
337.402	16.092	837.303	627.565
338.416	16.114	836.606	627.070
339.431	16.249	835.862	626.960
340.446	16.232	835.183	626.330
341.460	16.364	834.688	626.393
342.475	16.271	834.384	625.764
343.489	16.241	833.832	625.184
344.504	16.370	833.005	624.985
345.519	16.342	832.511	624.456
346.533	16.558	832.036	624.845
347.548	16.421	831.753	624.068
348.562	16.375	831.205	623.434
349.577	16.308	830.617	622.691
350.592	16.439	829.798	622.505
351.606	16.390	829.478	622.029
352.621	16.359	829.283	621.714
353.635	16.477	828.654	621.621
354.650	16.563	828.286	621.604
355.665	16.224	828.300	620.315
356.679	16.269	827.410	619.757
357.694	16.497	826.728	620.029
358.708	16.433	826.094	619.266
359.723	16.375	826.025	618.947
360.738	16.401	825.461	618.564
361.752	16.414	825.017	618.224
362.767	16.549	824.364	618.171
363.781	16.549	823.995	617.841
364.796	16.622	823.575	617.739
365.810	16.632	822.959	617.260
366.825	16.705	822.397	617.048
367.840	16.849	822.056	617.263
368.854	16.616	822.090	616.383
369.869	16.713	821.163	615.987
370.883	16.809	820.878	616.069
371.898	16.668	819.834	614.720
372.913	16.819	819.267	614.786
373.927	16.881	818.872	614.659
374.942	16.820	818.200	613.881
375.956	16.732	817.618	613.073
376.971	16.854	817.100	613.068
377.986	16.926	816.461	612.796
379.000	16.906	816.092	612.393
380.015	16.995	815.658	612.335
381.029	16.944	815.291	611.820
382.044	16.958	814.814	611.460
383.059	16.943	814.028	610.763
384.073	17.056	813.312	610.578
385.088	16.910	813.084	609.825
386.102	16.863	812.713	609.325
387.117	16.921	812.169	609.071
388.132	16.805	811.503	608.101
389.146	16.981	810.623	608.020
390.161	16.873	810.756	607.680
391.175	17.130	810.430	608.301
392.190	16.945	810.193	607.407
393.205	16.922	809.610	606.833
394.219	16.962	808.948	606.427
395.234	16.933	808.754	606.123
396.248	17.130	807.969	606.186
397.263	17.000	807.598	605.388
398.278	17.073	807.043	605.181
399.292	17.006	806.565	604.530
400.307	17.139	806.136	604.628
401.321	16.874	806.242	603.710
402.336	17.004	805.445	603.524
403.350	16.962	805.130	603.084
404.365	17.013	804.800	602.966
405.380	17.247	804.016	603.154
406.394	17.095	803.593	602.246
407.409	17.298	803.032	602.490
408.423	17.326	802.642	602.244
409.438	17.297	802.100	601.680
410.453	17.282	802.027	601.520
411.467	17.377	801.155	601.150
412.482	17.385	800.840	600.887
413.496	17.480	800.096	600.611
414.511	17.448	799.896	600.294
415.526	17.458	799.725	600.150
416.540	17.419	799.635	599.891
417.555	17.456	798.984	599.479
418.569	17.430	798.268	598.797
419.584	17.512	797.686	598.596
420.599	17.385	797.616	598.044
421.613	113.607	1297.539	1487.865
422.628	97.860	1370.331	1487.921
