DTS Sentinel unit serial number:	SN413079Multiplexer serial number:	ORYXHardware model number:	OX4-SRSoftware version number:	ORYX F/W v4.00 Oryx Data Collector v3.7.2.0data status	okinstallation	princeton_trtdifferential loss correction	single-endedforward channel	channel 3reverse channel	N/Adate	2019/09/13time	02:36:34forward acquisition time	60.00reverse acquisition time	0.00gamma	496.2192k internal	0.2335k external	0.2335temperature offset calibration	1.0135default loss term (dB/km)	0.3790temperature slope calibration	1.0000multiplexer offset coefficient	1.0000multiplexer slope coefficient	1.0000fibre end	0.00T internal ref (°C)	27.47T ext. ref 1 (°C)	3.99T ext. ref 2 (°C)	22.23length (m)	temperature (°C)	Stokes	anti-Stokes-747.200	103.005	-0.099	-0.116
-746.185	-92.545	0.080	-0.023
-745.171	800.000	-0.063	-0.202
-744.156	800.000	-0.083	0.286
-743.142	604.110	-0.094	-0.236
-742.127	-46.286	-0.274	0.135
-741.112	-200.000	0.055	0.337
-740.098	800.000	0.021	-0.076
-739.083	141.313	-0.304	-0.404
-738.069	-41.598	-0.173	0.089
-737.054	-154.886	-0.082	0.005
-736.039	111.121	0.016	0.019
-735.025	-132.186	0.146	-0.019
-734.010	59.999	0.136	-0.135
-732.996	800.000	0.097	-0.287
-731.981	-68.263	-0.276	0.108
-730.966	-93.070	-0.145	-0.041
-729.952	-138.226	0.123	0.014
-728.937	-200.000	-0.010	0.130
-727.923	368.626	0.054	-0.109
-726.908	-119.141	-0.226	-0.040
-725.894	22.805	-0.070	0.058
-724.879	-34.308	-0.098	-0.054
-723.864	419.864	0.029	0.062
-722.850	-189.659	-0.312	-0.004
-721.835	220.884	0.134	-0.216
-720.821	-109.069	-0.380	0.081
-719.806	-68.851	0.200	0.078
-718.791	-200.000	0.045	0.259
-717.777	29.583	-0.180	0.154
-716.762	-55.362	0.198	-0.089
-715.748	800.000	0.088	-0.297
-714.733	-200.000	0.115	-0.540
-713.718	178.752	-0.125	0.184
-712.704	800.000	-0.021	-0.066
-711.689	-47.754	-0.106	-0.052
-710.675	-52.407	-0.304	-0.141
-709.660	225.075	0.091	0.147
-708.645	-200.000	-0.014	-0.242
-707.631	-18.461	0.253	0.159
-706.616	800.000	0.053	0.226
-705.602	-141.726	0.021	0.002
-704.587	222.276	-0.192	-0.310
-703.572	-200.000	-0.069	-0.408
-702.558	247.318	0.080	0.136
-701.543	234.170	0.081	-0.133
-700.529	43.119	0.272	-0.249
-699.514	-106.091	0.274	0.062
-698.499	-114.779	-0.280	-0.054
-697.485	23.597	-0.244	-0.202
-696.470	596.319	-0.082	0.203
-695.456	497.514	0.179	0.412
-694.441	-29.806	-0.187	0.107
-693.426	-155.656	-0.205	-0.013
-692.412	31.004	-0.210	-0.181
-691.397	-70.047	0.090	-0.034
-690.383	-3.936	-0.133	0.092
-689.368	-53.212	0.142	-0.065
-688.354	-19.188	-0.377	-0.235
-687.339	116.951	-0.014	-0.017
-686.324	800.000	-0.012	0.034
-685.310	15.718	0.155	-0.122
-684.295	-125.818	-0.234	0.035
-683.281	-153.466	0.186	0.013
-682.266	12.500	-0.258	-0.200
-681.251	-94.492	0.351	0.096
-680.237	1.949	-0.245	0.177
-679.222	-132.951	0.107	-0.014
-678.208	800.000	0.041	-0.133
-677.193	518.677	-0.050	0.116
-676.178	800.000	-0.077	0.271
-675.164	-200.000	-0.041	-0.368
-674.149	-200.000	-0.002	0.045
-673.135	23.426	0.120	0.099
-672.120	-153.766	-0.235	0.016
-671.105	-79.941	-0.312	-0.105
-670.091	54.126	-0.289	0.279
-669.076	-126.039	-0.480	-0.072
-668.062	-100.501	-0.057	-0.014
-667.047	-59.591	-0.264	-0.113
-666.032	-200.000	0.019	-0.303
-665.018	-25.381	-0.413	0.245
-664.003	800.000	0.122	-0.362
-662.989	-125.120	-0.267	-0.041
-661.974	-200.000	-0.010	-0.109
-660.959	-105.717	-0.161	0.036
-659.945	69.245	0.217	0.223
-658.930	-159.606	-0.125	-0.007
-657.916	-143.776	-0.396	-0.038
-656.901	-182.306	-0.319	0.006
-655.886	-143.680	0.235	-0.022
-654.872	471.261	-0.136	-0.307
-653.857	61.857	0.176	0.175
-652.843	-200.000	0.030	0.272
-651.828	800.000	-0.073	0.268
-650.814	-9.550	-0.368	0.246
-649.799	-47.817	0.149	0.072
-648.784	800.000	-0.098	0.405
-647.770	-73.639	0.027	-0.010
-646.755	44.954	-0.065	0.059
-645.741	-200.000	-0.006	0.042
-644.726	-200.000	0.006	-0.197
-643.711	40.921	0.064	-0.057
-642.697	-51.673	-0.139	-0.065
-641.682	-136.192	-0.186	0.022
-640.668	-171.931	-0.286	-0.009
-639.653	62.018	0.091	-0.091
-638.638	-200.000	0.004	-0.092
-637.624	800.000	-0.041	-0.172
-636.609	-38.672	0.226	-0.119
-635.595	-163.883	-0.317	0.015
-634.580	55.719	-0.225	-0.219
-633.565	-200.000	0.077	-0.385
-632.551	800.000	0.089	-0.266
-631.536	218.796	-0.073	-0.116
-630.522	80.557	0.141	-0.152
-629.507	-40.127	-0.053	0.028
-628.492	17.835	0.109	0.087
-627.478	-155.106	0.255	0.017
-626.463	-84.307	0.126	0.040
-625.449	-93.120	-0.207	0.058
-624.434	147.000	-0.113	-0.152
-623.419	-78.288	-0.121	-0.041
-622.405	-200.000	-0.004	-0.213
-621.390	534.229	-0.128	-0.303
-620.376	-24.775	0.233	-0.138
-619.361	-17.609	0.328	0.206
-618.346	-200.000	0.019	-0.162
-617.332	-51.810	0.110	0.051
-616.317	-141.376	0.241	-0.024
-615.303	-95.365	0.119	0.032
-614.288	273.161	-0.201	0.355
-613.273	800.000	-0.077	0.294
-612.259	133.459	0.118	0.153
-611.244	-200.000	0.026	-0.341
-610.230	240.180	-0.190	-0.317
-609.215	-140.078	-0.289	0.030
-608.201	-13.579	-0.141	0.092
-607.186	-135.280	0.384	-0.046
-606.171	-200.000	-0.033	-0.157
-605.157	-1.951	-0.360	-0.253
-604.142	-108.825	-0.199	0.043
-603.128	-193.004	0.161	0.001
-602.113	-200.000	0.017	0.247
-601.098	162.982	-0.196	0.275
-600.084	-25.720	0.058	0.034
-599.069	800.000	0.109	-0.301
-598.055	160.155	-0.052	-0.072
-597.040	59.410	-0.230	-0.227
-596.025	8.113	-0.020	0.015
-595.011	-37.605	0.198	-0.106
-593.996	-94.761	0.237	-0.064
-592.982	-92.429	0.160	-0.045
-591.967	-109.382	-0.247	-0.052
-590.952	-200.000	0.014	-0.374
-589.938	-25.382	-0.288	-0.170
-588.923	-121.351	0.327	-0.054
-587.909	72.519	-0.285	-0.297
-586.894	-90.466	-0.165	-0.048
-585.879	-7.942	-0.348	-0.234
-584.865	-77.084	-0.298	0.104
-583.850	-33.132	-0.192	-0.106
-582.836	-18.815	-0.273	0.170
-581.821	-100.000	0.102	0.025
-580.806	-200.000	-0.016	-0.189
-579.792	-99.455	-0.146	0.037
-578.777	-15.314	-0.043	-0.028
-577.763	78.175	-0.145	0.155
-576.748	-200.000	0.011	-0.067
-575.733	-36.073	-0.260	0.140
-574.719	661.071	-0.051	-0.131
-573.704	6.506	-0.439	0.325
-572.690	-115.200	-0.194	-0.037
-571.675	-200.000	0.004	-0.194
-570.661	-33.345	-0.125	-0.069
-569.646	-200.000	0.033	0.257
-568.631	-121.471	0.107	-0.018
-567.617	-70.204	-0.353	-0.134
-566.602	800.000	0.017	-0.060
-565.588	-6.638	0.267	0.182
-564.573	-7.617	-0.090	0.061
-563.558	361.882	-0.094	0.188
-562.544	12.423	-0.083	0.064
-561.529	-200.000	-0.004	0.021
-560.515	-200.000	0.010	0.379
-559.500	484.002	0.129	0.292
-558.485	-61.881	-0.044	-0.018
-557.471	471.840	-0.055	0.125
-556.456	17.409	-0.232	0.184
-555.442	-96.855	-0.172	0.045
-554.427	-200.000	0.007	0.217
-553.412	-18.133	-0.334	-0.208
-552.398	-78.036	-0.220	-0.076
-551.383	-110.048	0.138	-0.029
-550.369	507.133	-0.053	-0.123
-549.354	53.199	-0.196	-0.187
-548.339	-200.000	0.028	-0.430
-547.325	-80.169	0.230	-0.077
-546.310	-165.128	0.237	0.010
-545.296	-130.663	-0.272	0.036
-544.281	-125.385	-0.238	0.036
-543.266	-83.744	-0.123	0.039
-542.252	54.748	0.180	-0.173
-541.237	38.065	0.117	-0.103
-540.223	84.826	-0.229	0.250
-539.208	483.721	0.165	0.375
-538.193	-23.926	0.039	-0.023
-537.179	-200.000	0.011	-0.254
-536.164	-200.000	0.005	0.091
-535.150	-25.391	0.078	0.046
-534.135	-24.550	0.291	0.172
-533.121	269.831	-0.099	0.173
-532.106	-200.000	-0.117	0.538
-531.091	-44.517	0.030	0.015
-530.077	34.434	0.166	-0.144
-529.062	-200.000	0.001	0.110
-528.048	-70.451	0.201	0.076
-527.033	-153.981	0.186	0.013
-526.018	-200.000	0.005	0.185
-525.004	-36.115	0.324	0.174
-523.989	-200.000	-0.023	0.117
-522.975	144.115	0.013	0.018
-521.960	-11.463	0.263	-0.173
-520.945	60.128	0.085	0.084
-519.931	256.203	0.106	0.182
-518.916	-197.027	-0.389	-0.003
-517.902	753.898	0.079	-0.212
-516.887	265.078	-0.037	-0.065
-515.872	-62.148	0.239	0.099
-514.858	800.000	0.056	0.177
-513.843	-88.281	0.282	-0.084
-512.829	-7.165	0.144	0.097
-511.814	-164.753	0.252	-0.011
-510.799	241.404	0.087	0.145
-509.785	350.180	-0.213	0.419
-508.770	26.183	-0.114	0.095
-507.756	193.082	0.144	0.217
-506.741	-200.000	0.004	0.054
-505.726	-200.000	-0.068	0.352
-504.712	-200.000	0.011	0.139
-503.697	800.000	0.063	0.179
-502.683	800.000	-0.027	-0.080
-501.668	446.738	-0.046	0.100
-500.653	189.418	0.085	0.127
-499.639	-200.000	-0.014	-0.255
-498.624	800.000	-0.011	0.047
-497.610	116.917	0.132	0.161
-496.595	198.707	0.081	0.124
-495.581	249.382	-0.069	-0.116
-494.566	800.000	0.087	0.327
-493.551	317.151	0.124	0.234
-492.537	-135.470	-0.321	0.038
-491.522	-96.939	0.359	0.094
-490.508	25.966	-0.139	0.116
-489.493	39.695	-0.178	-0.159
-488.478	-35.261	-0.082	-0.044
-487.464	-187.023	-0.084	0.001
-486.449	-138.506	-0.423	0.046
-485.435	-200.000	0.000	-0.040
-484.420	-94.642	0.239	-0.065
-483.405	800.000	-0.070	0.207
-482.391	15.902	-0.051	0.040
-481.376	486.118	-0.116	0.263
-480.362	759.279	-0.025	0.067
-479.347	-116.570	0.145	0.027
-478.332	-174.289	0.083	0.002
-477.318	72.980	0.276	-0.287
-476.303	-101.942	0.051	0.012
-475.289	108.901	0.101	0.121
-474.274	-180.131	-0.220	0.005
-473.259	123.319	0.149	-0.185
-472.245	168.469	-0.096	-0.136
-471.230	800.000	0.084	-0.238
-470.216	-90.159	-0.143	0.041
-469.201	-36.004	-0.153	-0.082
-468.186	-200.000	-0.003	-0.240
-467.172	692.005	0.092	-0.240
-466.157	-200.000	-0.028	0.214
-465.143	25.946	-0.221	0.184
-464.128	-173.480	-0.183	-0.005
-463.113	78.313	0.184	0.196
-462.099	770.616	0.008	0.021
-461.084	-108.673	0.134	-0.029
-460.070	800.000	0.110	-0.330
-459.055	-200.000	-0.055	-0.279
-458.040	131.343	-0.078	-0.099
-457.026	18.243	-0.211	0.167
-456.011	32.265	0.152	0.130
-454.997	-10.067	-0.083	-0.055
-453.982	602.872	0.077	-0.190
-452.968	-147.651	0.342	0.029
-451.953	-184.363	-0.238	0.004
-450.938	-105.123	-0.178	-0.041
-449.924	-89.366	-0.409	-0.120
-448.909	-43.474	-0.539	0.270
-447.895	-50.807	-0.317	-0.148
-446.880	-22.134	0.205	-0.124
-445.865	-106.893	0.161	-0.035
-444.851	-68.769	-0.244	-0.094
-443.836	800.000	-0.070	0.203
-442.822	-200.000	0.030	0.220
-441.807	203.640	0.298	0.457
-440.792	-134.431	0.136	0.017
-439.778	109.463	0.242	-0.288
-438.763	-200.000	0.051	0.278
-437.749	18.657	0.331	0.263
-436.734	-85.338	-0.269	0.083
-435.719	-200.000	-0.039	0.217
-434.705	35.896	0.280	0.244
-433.690	-10.464	0.222	-0.146
-432.676	-200.000	0.010	0.068
-431.661	635.815	0.062	-0.157
-430.646	-34.344	0.138	0.075
-429.632	77.996	-0.050	-0.053
-428.617	250.022	-0.059	-0.099
-427.603	-123.791	0.343	0.054
-426.588	800.000	-0.068	-0.240
-425.573	-200.000	0.002	0.196
-424.559	156.611	0.176	-0.241
-423.544	-46.993	-0.115	0.056
-422.530	213.660	-0.096	-0.151
-421.515	-200.000	0.036	-0.162
-420.500	-200.000	0.021	0.095
-419.486	-147.543	-0.303	0.025
-418.471	-200.000	-0.008	0.122
-417.457	-171.605	-0.059	0.002
-416.442	176.833	-0.105	0.151
-415.428	21.755	-0.074	0.060
-414.413	28.425	-0.335	-0.281
-413.398	800.000	-0.014	-0.041
-412.384	-85.811	-0.039	-0.012
-411.369	-72.185	-0.033	0.012
-410.355	-200.000	-0.002	-0.037
-409.340	388.452	-0.202	-0.414
-408.325	16.731	-0.321	0.252
-407.311	-39.596	0.116	-0.060
-406.296	-11.046	-0.175	-0.115
-405.282	-200.000	0.011	-0.136
-404.267	-27.073	0.099	0.057
-403.252	369.459	-0.054	-0.109
-402.238	481.310	0.061	-0.137
-401.223	23.326	-0.205	-0.167
-400.209	358.568	-0.071	-0.140
-399.194	9.041	0.246	-0.184
-398.179	-6.009	-0.254	0.172
-397.165	800.000	-0.054	0.158
-396.150	668.057	-0.106	-0.272
-395.136	337.231	-0.089	0.171
-394.121	28.406	0.095	-0.079
-393.106	800.000	-0.082	-0.256
-392.092	79.339	0.127	-0.135
-391.077	800.000	0.013	-0.042
-390.063	50.363	0.156	-0.146
-389.048	-93.543	-0.077	0.021
-388.033	56.057	-0.185	0.177
-387.019	-148.483	0.170	0.014
-386.004	-200.000	0.006	0.311
-384.990	-64.961	-0.388	-0.155
-383.975	-200.000	0.074	0.000
-382.960	21.364	-0.046	0.037
-381.946	-108.422	0.109	-0.023
-380.931	141.062	-0.115	0.151
-379.917	127.208	0.128	0.161
-378.902	-200.000	0.028	-0.268
-377.888	-69.524	-0.291	-0.110
-376.873	-126.262	0.239	-0.035
-375.858	201.295	0.091	-0.138
-374.844	212.296	0.072	0.112
-373.829	151.300	-0.104	0.140
-372.815	800.000	0.047	-0.133
-371.800	-174.745	0.356	-0.010
-370.785	-93.769	0.109	0.030
-369.771	800.000	0.045	-0.190
-368.756	-151.115	0.323	-0.024
-367.742	800.000	-0.079	0.252
-366.727	739.837	0.048	-0.126
-365.712	-15.183	0.101	0.064
-364.698	-200.000	-0.027	-0.239
-363.683	800.000	0.035	-0.141
-362.669	37.217	-0.219	-0.192
-361.654	-34.195	-0.324	0.176
-360.639	800.000	0.013	-0.039
-359.625	94.156	0.164	0.184
-358.610	-200.000	0.029	-0.225
-357.596	-165.010	0.056	0.002
-356.581	-12.629	-0.328	0.212
-355.566	-125.450	0.328	-0.049
-354.552	-89.765	0.396	-0.115
-353.537	82.885	0.109	0.118
-352.523	50.031	0.152	0.142
-351.508	-200.000	0.038	0.190
-350.493	147.081	-0.141	0.188
-349.479	286.009	-0.235	-0.420
-348.464	-152.430	-0.250	0.018
-347.450	-50.758	-0.292	0.136
-346.435	150.481	0.189	-0.254
-345.420	-200.000	-0.020	-0.252
-344.406	800.000	0.067	-0.224
-343.391	-17.740	-0.341	-0.212
-342.377	-68.762	0.088	0.034
-341.362	88.298	0.057	0.063
-340.348	800.000	0.034	-0.127
-339.333	-200.000	0.048	-0.296
-338.318	144.998	-0.164	0.217
-337.304	-71.713	-0.184	0.068
-336.289	629.733	0.106	-0.265
-335.275	-200.000	0.024	-0.170
-334.260	709.734	-0.046	0.120
-333.245	-200.000	-0.001	0.077
-332.231	-176.776	0.189	0.005
-331.216	-116.880	0.188	-0.034
-330.202	-200.000	-0.022	-0.113
-329.187	181.938	0.048	-0.070
-328.172	-86.738	0.033	0.010
-327.158	-62.711	-0.061	0.025
-326.143	800.000	0.136	0.420
-325.129	18.914	0.112	0.089
-324.114	-200.000	-0.017	0.149
-323.099	-87.976	-0.306	0.091
-322.085	-200.000	-0.024	-0.103
-321.070	-28.089	0.206	0.118
-320.056	800.000	-0.117	0.337
-319.041	20.503	-0.127	0.102
-318.026	-200.000	0.049	-0.257
-317.012	-51.655	-0.130	0.060
-315.997	-51.757	0.200	-0.092
-314.983	-200.000	-0.016	-0.075
-313.968	303.209	0.171	-0.313
-312.953	-165.413	0.561	0.024
-311.939	-130.578	-0.274	0.036
-310.924	-65.476	0.125	-0.049
-309.910	77.571	0.204	-0.214
-308.895	-16.760	0.229	-0.143
-307.880	-91.562	0.195	-0.055
-306.866	181.447	-0.160	0.232
-305.851	-105.189	0.231	-0.052
-304.837	708.865	-0.078	-0.204
-303.822	-200.000	-0.031	-0.153
-302.807	42.268	0.178	0.160
-301.793	-200.000	-0.011	0.154
-300.778	164.613	0.167	0.233
-299.764	800.000	0.031	0.113
-298.749	512.354	-0.010	-0.022
-297.735	117.591	-0.062	0.075
-296.720	11.107	-0.167	0.126
-295.705	-200.000	0.003	-0.291
-294.691	165.778	0.120	0.167
-293.676	-81.328	-0.323	0.105
-292.662	146.572	0.118	-0.156
-291.647	-61.669	0.156	-0.065
-290.632	-200.000	-0.082	-0.357
-289.618	-132.761	0.164	-0.021
-288.603	-103.486	0.053	0.012
-287.589	-200.000	-0.020	-0.297
-286.574	-5.134	-0.322	0.219
-285.559	800.000	-0.068	-0.292
-284.545	-200.000	-0.035	-0.266
-283.530	-200.000	-0.016	0.254
-282.516	2.609	0.157	-0.113
-281.501	118.909	0.175	-0.213
-280.486	-170.846	-0.242	-0.008
-279.472	-200.000	0.011	-0.257
-278.457	79.788	-0.197	0.209
-277.443	-200.000	0.016	-0.126
-276.428	800.000	0.065	0.223
-275.413	-200.000	0.018	0.166
-274.399	12.377	-0.047	-0.036
-273.384	-117.973	0.206	-0.036
-272.370	-5.828	-0.252	0.171
-271.355	-45.553	0.032	-0.016
-270.340	800.000	-0.110	0.379
-269.326	-86.328	-0.215	0.065
-268.311	-164.049	-0.124	-0.006
-267.297	6.468	-0.219	0.160
-266.282	-2.528	-0.129	0.089
-265.267	-120.833	-0.159	-0.026
-264.253	-176.959	-0.187	-0.005
-263.238	-18.168	-0.382	0.236
-262.224	15.288	-0.124	-0.096
-261.209	-154.631	0.226	-0.015
-260.195	-71.316	0.239	0.088
-259.180	18.534	0.129	0.101
-258.165	-37.993	0.140	0.074
-257.151	-136.255	0.331	0.038
-256.136	40.945	0.337	0.300
-255.122	719.197	-0.034	-0.089
-254.107	-200.000	0.008	-0.190
-253.092	800.000	-0.063	0.187
-252.078	-116.727	0.140	-0.025
-251.063	-200.000	-0.076	0.327
-250.049	800.000	0.015	-0.057
-249.034	-181.021	0.136	0.003
-248.019	-38.235	-0.293	-0.153
-247.005	-75.541	0.067	0.024
-245.990	192.979	0.058	-0.087
-244.976	174.472	0.118	0.168
-243.961	150.649	-0.085	-0.114
-242.946	-137.147	-0.140	0.016
-241.932	688.486	0.060	-0.154
-240.917	75.898	0.167	-0.174
-239.903	18.521	-0.078	0.061
-238.888	-132.931	0.432	0.054
-237.873	72.467	-0.035	0.036
-236.859	71.820	0.093	0.095
-235.844	481.456	-0.062	0.138
-234.830	234.238	0.230	0.374
-233.815	-200.000	0.027	0.175
-232.800	-200.000	0.008	-0.171
-231.786	-28.394	0.117	0.067
-230.771	61.197	-0.034	0.034
-229.757	-200.000	-0.031	-0.399
-228.742	-200.000	-0.012	0.136
-227.727	-56.215	-0.170	0.074
-226.713	-64.514	0.150	-0.060
-225.698	-63.127	-0.343	-0.139
-224.684	27.213	-0.237	-0.196
-223.669	-200.000	-0.042	-0.234
-222.655	-64.768	-0.255	0.102
-221.640	24.762	0.085	-0.069
-220.625	-74.989	0.460	0.162
-219.611	-176.082	0.147	0.004
-218.596	-200.000	-0.031	0.239
-217.582	141.221	-0.087	-0.113
-216.567	-26.290	0.428	-0.247
-215.552	-10.339	-0.243	0.159
-214.538	7.352	0.264	-0.194
-213.523	75.842	0.244	-0.254
-212.509	-96.286	-0.212	-0.055
-211.494	-50.724	0.192	0.089
-210.479	195.071	0.163	-0.243
-209.465	79.914	0.288	-0.304
-208.450	800.000	0.040	0.137
-207.436	-43.222	0.126	-0.063
-206.421	320.460	-0.138	0.258
-205.406	-200.000	0.025	0.188
-204.392	-134.848	-0.046	0.006
-203.377	-200.000	-0.040	0.228
-202.363	-200.000	-0.001	0.045
-201.348	-200.000	0.005	-0.377
-200.333	92.577	0.299	0.332
-199.319	272.913	-0.047	0.081
-198.304	91.962	0.245	-0.271
-197.290	123.187	0.051	0.063
-196.275	-194.592	-0.322	-0.003
-195.260	-37.686	0.152	0.080
-194.246	206.242	0.084	0.128
-193.231	668.827	0.095	0.242
-192.217	-79.624	0.405	-0.134
-191.202	-200.000	-0.058	-0.263
-190.187	-78.192	-0.086	0.029
-189.173	-87.286	-0.229	-0.068
-188.158	800.000	0.101	0.310
-187.144	-51.306	-0.120	0.055
-186.129	124.255	0.125	-0.155
-185.114	-35.107	-0.011	0.006
-184.100	-200.000	0.056	-0.255
-183.085	39.807	0.151	0.133
-182.071	-200.000	-0.008	-0.094
-181.056	251.463	-0.060	-0.101
-180.042	186.872	0.274	0.402
-179.027	26.752	0.211	0.174
-178.012	27.325	0.069	-0.057
-176.998	46.628	0.082	-0.075
-175.983	-200.000	0.045	0.291
-174.969	-200.000	0.049	-0.386
-173.954	-176.078	-0.205	-0.005
-172.939	462.210	-0.035	0.078
-171.925	279.338	-0.175	0.307
-170.910	-200.000	-0.012	0.110
-169.896	-200.000	-0.004	-0.105
-168.881	1.919	0.137	-0.097
-167.866	68.061	0.110	-0.111
-166.852	800.000	0.026	0.078
-165.837	-62.523	-0.236	0.096
-164.823	-119.045	-0.187	0.032
-163.808	207.623	0.076	-0.117
-162.793	-200.000	-0.029	-0.325
-161.779	593.688	-0.117	0.283
-160.764	56.390	-0.134	-0.128
-159.750	-100.100	0.125	-0.031
-158.735	171.567	0.128	0.181
-157.720	-108.514	0.160	-0.034
-156.706	-118.714	-0.235	-0.041
-155.691	50.050	0.129	-0.120
-154.677	-49.901	0.103	0.048
-153.662	-95.216	-0.138	0.036
-152.647	-5.874	0.285	0.191
-151.633	185.065	-0.037	-0.054
-150.618	-176.525	0.365	-0.009
-149.604	-136.654	0.416	0.047
-148.589	520.711	0.065	-0.150
-147.574	-63.256	-0.208	-0.084
-146.560	218.056	0.181	0.283
-145.545	-164.742	-0.346	0.015
-144.531	-54.216	0.230	0.103
-143.516	41.703	0.144	0.128
-142.502	-131.535	-0.118	0.015
-141.487	388.419	-0.194	0.394
-140.472	-200.000	0.016	-0.151
-139.458	-149.189	0.328	-0.026
-138.443	28.008	-0.179	-0.148
-137.429	86.545	0.022	0.024
-136.414	-200.000	0.015	-0.132
-135.399	264.770	0.080	0.137
-134.385	-177.644	0.148	0.004
-133.370	-139.937	0.017	-0.002
-132.356	-189.167	-0.048	0.001
-131.341	300.944	-0.102	0.185
-130.326	-41.790	0.152	0.077
-129.312	523.663	0.044	-0.101
-128.297	-200.000	-0.016	-0.216
-127.283	-104.241	-0.113	0.026
-126.268	408.199	-0.040	0.083
-125.253	-111.103	-0.039	-0.008
-124.239	129.911	-0.201	0.252
-123.224	-50.656	-0.175	0.081
-122.210	-86.647	-0.372	0.112
-121.195	5.954	-0.216	-0.157
-120.180	59.901	0.169	0.164
-119.166	11.395	-0.256	-0.193
-118.151	800.000	0.031	0.083
-117.137	-51.805	0.237	0.108
-116.122	-127.499	-0.157	-0.022
-115.107	68.117	-0.163	0.163
-114.093	-2.244	0.082	-0.057
-113.078	286.506	-0.191	0.338
-112.064	-21.747	-0.188	-0.112
-111.049	44.038	-0.242	-0.217
-110.034	-44.976	-0.310	0.151
-109.020	158.275	0.061	-0.082
-108.005	-117.502	-0.260	-0.046
-106.991	-64.582	-0.131	0.052
-105.976	329.735	-0.291	-0.548
-104.962	80.668	0.135	0.143
-103.947	181.481	0.037	-0.054
-102.932	208.366	0.185	-0.284
-101.918	-65.085	-0.618	-0.244
-100.903	-99.414	0.120	-0.029
-99.889	644.560	0.042	0.104
-98.874	236.516	-0.065	0.106
-97.859	-200.000	-0.019	-0.123
-96.845	230.495	-0.171	-0.274
-95.830	800.000	-0.029	0.117
-94.816	61.540	0.011	-0.011
-93.801	800.000	0.096	0.277
-92.786	79.258	0.158	0.166
-91.772	-5.773	-0.194	0.130
-90.757	800.000	0.072	0.242
-89.743	-150.862	0.272	-0.020
-88.728	-61.075	-0.080	-0.033
-87.713	67.683	0.232	0.233
-86.699	800.000	-0.031	0.115
-85.684	-200.000	-0.022	0.311
-84.670	374.480	0.195	0.390
-83.655	-200.000	-0.044	0.231
-82.640	-77.267	0.383	-0.131
-81.626	800.000	-0.079	0.309
-80.611	-200.000	-0.021	0.124
-79.597	702.590	0.157	0.405
-78.582	328.330	0.115	-0.215
-77.567	-200.000	-0.029	0.247
-76.553	345.997	0.060	0.116
-75.538	-134.704	0.130	-0.015
-74.524	89.962	0.138	-0.151
-73.509	43.112	0.136	0.121
-72.494	152.280	-0.170	0.227
-71.480	58.868	-0.288	0.277
-70.465	-200.000	-0.032	-0.190
-69.451	39.625	0.280	0.245
-68.436	-45.935	-0.134	0.065
-67.422	437.264	-0.105	0.225
-66.407	153.909	0.114	0.153
-65.392	106.044	-0.083	-0.096
-64.378	249.345	0.217	-0.360
-63.363	100.617	0.022	-0.025
-62.349	-64.084	-0.125	-0.050
-61.334	36.817	-1.183	-1.023
-60.319	-61.536	0.977	0.401
-59.305	446.206	-0.402	-0.864
-58.290	278.255	0.618	1.077
-57.276	245.848	0.835	1.375
-56.261	-200.000	114.762	655.272
-55.246	538.200	1524.725	3544.940
-54.232	179.162	2687.372	3844.926
-53.217	107.940	2170.589	2529.741
-52.203	37.950	1697.837	1476.233
-51.188	30.481	1516.703	1267.950
-50.173	28.405	1491.852	1233.173
-49.159	52.278	1550.844	1446.353
-48.144	50.743	1566.387	1450.270
-47.130	30.732	1522.555	1274.359
-46.115	27.754	1507.149	1241.191
-45.100	27.526	1504.205	1237.166
-44.086	27.559	1501.131	1234.819
-43.071	27.518	1500.023	1233.576
-42.057	27.437	1498.440	1231.682
-41.042	27.528	1496.991	1231.055
-40.027	27.563	1495.636	1230.125
-39.013	27.439	1493.889	1227.809
-37.998	27.439	1492.694	1226.775
-36.984	27.447	1491.578	1225.863
-35.969	27.345	1490.327	1224.097
-34.954	27.491	1489.074	1224.002
-33.940	27.404	1487.891	1222.399
-32.925	27.461	1486.246	1221.380
-31.911	27.465	1484.658	1220.051
-30.896	27.514	1483.718	1219.560
-29.881	27.619	1481.781	1218.622
-28.867	27.424	1481.550	1217.083
-27.852	27.613	1479.757	1216.818
-26.838	27.540	1478.406	1215.172
-25.823	27.440	1477.175	1213.447
-24.809	27.572	1475.314	1212.752
-23.794	27.536	1473.704	1211.141
-22.779	27.535	1472.805	1210.347
-21.765	27.427	1472.096	1208.999
-20.750	27.557	1470.722	1208.686
-19.736	27.523	1470.157	1207.948
-18.721	27.417	1468.953	1206.207
-17.706	27.401	1467.496	1204.856
-16.692	27.511	1466.458	1204.684
-15.677	27.455	1465.512	1203.491
-14.663	27.475	1464.843	1203.026
-13.648	27.520	1463.529	1202.191
-12.633	27.441	1462.961	1201.155
-11.619	27.541	1461.661	1200.704
-10.604	27.406	1461.634	1199.743
-9.590	27.454	1460.284	1198.902
-8.575	27.502	1459.405	1198.450
-7.560	27.412	1458.810	1197.325
-6.546	27.465	1457.267	1196.353
-5.531	27.378	1456.945	1195.472
-4.517	27.410	1456.121	1194.958
-3.502	27.370	1454.940	1193.683
-2.487	27.570	1453.471	1193.737
-1.473	27.476	1452.751	1192.483
-0.458	27.525	1451.530	1191.754
0.556	29.116	1441.307	1179.600
1.571	26.135	1416.963	1140.768
2.586	22.618	1360.138	1073.547
3.600	21.079	1279.130	1000.699
4.615	19.856	1233.292	957.983
5.629	17.326	1176.638	900.516
6.644	10.252	1094.397	802.537
7.659	4.837	1056.541	748.734
8.673	4.123	1051.580	741.733
9.688	4.066	1047.716	738.671
10.702	3.869	1046.110	736.533
11.717	3.922	1043.867	735.144
12.731	6.312	1046.372	748.216
13.746	13.923	1056.334	791.676
14.761	20.652	1065.487	830.708
15.775	22.689	1067.550	841.980
16.790	22.401	1065.764	839.121
17.804	21.454	1063.878	833.056
18.819	20.693	1062.650	828.399
19.834	20.443	1060.817	825.708
20.848	20.268	1060.546	824.593
21.863	20.304	1060.237	824.452
22.877	20.089	1060.106	823.253
23.892	19.995	1058.682	821.628
24.907	19.897	1057.836	820.435
25.921	19.844	1056.938	819.418
26.936	19.822	1056.365	818.794
27.950	19.864	1055.052	817.905
28.965	19.885	1053.592	816.798
29.980	19.831	1052.946	815.969
30.994	20.072	1051.740	816.097
32.009	20.204	1050.987	816.066
33.023	20.387	1050.459	816.444
34.038	20.405	1049.635	815.815
35.053	19.983	1049.010	813.277
36.067	19.970	1047.255	811.782
37.082	19.926	1046.834	811.175
38.096	19.951	1045.788	810.412
39.111	20.197	1045.023	810.896
40.126	20.160	1045.013	810.648
41.140	20.136	1043.429	809.231
42.155	19.655	1042.320	806.057
43.169	19.362	1041.391	803.900
44.184	19.375	1040.050	802.856
45.199	19.297	1039.002	801.611
46.213	19.270	1037.975	800.623
47.228	19.606	1037.415	801.683
48.242	19.930	1036.262	802.222
49.257	20.124	1036.093	802.917
50.271	20.070	1034.836	801.622
51.286	19.961	1034.167	800.528
52.301	20.196	1033.318	800.889
53.315	20.031	1032.769	799.631
54.330	19.929	1032.146	798.606
55.344	19.630	1031.375	796.562
56.359	19.548	1030.172	795.185
57.374	19.645	1028.921	794.596
58.388	19.747	1027.935	794.232
59.403	19.469	1027.396	792.465
60.417	19.273	1026.792	791.031
61.432	19.304	1026.004	790.497
62.447	19.293	1025.382	789.895
63.461	19.356	1024.212	789.216
64.476	19.320	1023.020	788.063
65.490	19.207	1022.380	786.980
66.505	19.200	1022.017	786.602
67.520	19.176	1020.965	785.613
68.534	19.128	1020.780	785.182
69.549	19.222	1019.744	784.743
70.563	19.200	1018.658	783.739
71.578	19.066	1018.188	782.699
72.593	19.036	1016.351	781.082
73.607	18.745	1015.922	779.360
74.622	18.724	1014.724	778.278
75.636	18.792	1014.252	778.155
76.651	18.997	1013.364	778.334
77.666	18.987	1012.442	777.512
78.680	18.971	1012.345	777.294
79.695	19.097	1011.677	777.280
80.709	19.180	1010.651	776.800
81.724	19.225	1010.411	776.748
82.739	19.460	1009.480	777.021
83.753	19.523	1009.138	776.973
84.768	19.782	1008.479	777.563
85.782	20.038	1008.435	778.610
86.797	20.347	1007.773	779.418
87.812	20.485	1006.561	779.034
88.826	20.227	1005.472	776.965
89.841	20.077	1004.788	775.696
90.855	20.212	1003.922	775.560
91.870	20.327	1003.483	775.669
92.884	20.419	1002.657	775.370
93.899	20.359	1002.154	774.644
94.914	20.255	1001.150	773.340
95.928	20.341	1000.482	773.137
96.943	20.307	999.616	772.248
97.957	20.203	998.571	770.909
98.972	20.181	997.464	769.891
99.987	19.963	997.022	768.512
101.001	20.342	996.181	769.476
102.016	20.111	995.541	767.892
103.030	20.179	994.415	767.256
104.045	19.991	993.827	765.903
105.060	20.181	992.927	765.982
106.074	20.010	991.885	764.354
107.089	19.912	990.237	762.585
108.103	19.440	989.522	759.890
109.118	19.407	988.200	758.663
110.133	19.251	987.349	757.256
111.147	19.236	986.135	756.192
112.162	19.030	985.610	754.820
113.176	19.182	984.866	754.850
114.191	19.440	984.026	755.267
115.206	19.448	983.670	754.962
116.220	19.499	982.726	754.392
117.235	19.283	982.410	753.140
118.249	19.287	981.157	752.133
119.264	19.313	980.374	751.579
120.279	19.220	979.441	750.390
121.293	19.151	978.619	749.391
122.308	19.002	978.034	748.230
123.322	19.007	976.763	747.213
124.337	18.896	975.619	745.792
125.352	18.874	974.395	744.694
126.366	18.769	973.896	743.793
127.381	18.903	972.686	743.384
128.395	18.878	971.833	742.559
129.410	18.942	970.967	742.104
130.424	18.925	970.387	741.523
131.439	19.034	969.181	741.004
132.454	19.209	968.444	741.131
133.468	19.294	968.079	741.152
134.483	19.328	967.527	740.810
135.497	19.415	966.729	740.505
136.512	19.310	966.167	739.559
137.527	19.440	965.191	739.304
138.541	19.410	964.613	738.665
139.556	19.314	964.195	737.871
140.570	19.684	962.785	738.308
141.585	19.676	962.838	738.247
142.600	19.810	962.313	738.354
143.614	19.990	961.488	738.423
144.629	20.109	960.770	738.314
145.643	20.274	960.381	738.649
146.658	20.155	959.598	737.476
147.673	19.881	957.946	734.978
148.687	19.773	956.904	733.657
149.702	19.687	955.689	732.294
150.716	19.422	955.310	730.817
151.731	19.460	954.626	730.389
152.746	19.450	953.774	729.632
153.760	19.461	952.604	728.720
154.775	19.570	951.777	728.480
155.789	19.658	951.150	728.308
156.804	19.738	950.436	728.033
157.819	19.851	949.720	727.896
158.833	19.862	949.028	727.348
159.848	20.044	948.558	727.685
160.862	20.190	948.052	727.845
161.877	20.256	947.110	727.338
162.892	19.786	945.831	724.321
163.906	19.362	944.955	721.813
164.921	19.295	943.792	720.582
165.935	19.340	942.610	719.802
166.950	19.437	941.372	719.197
167.964	19.585	940.867	719.365
168.979	19.624	940.140	718.907
169.994	19.584	938.558	717.469
171.008	19.435	938.119	716.448
172.023	19.615	937.036	716.308
173.037	19.820	936.703	716.838
174.052	20.103	936.305	717.642
175.067	19.947	935.282	716.149
176.081	19.568	934.558	713.965
177.096	19.360	933.174	711.985
178.110	19.139	932.828	710.745
179.125	19.405	931.690	710.913
180.140	19.456	931.183	710.675
181.154	19.534	930.541	710.441
182.169	19.765	930.033	710.939
183.183	20.016	929.646	711.614
184.198	20.061	929.218	711.408
185.213	20.096	928.344	710.819
186.227	19.986	927.877	709.948
187.242	20.087	927.333	709.880
188.256	20.132	926.712	709.528
189.271	20.197	925.889	709.101
190.286	20.364	925.018	709.052
191.300	20.023	924.259	707.017
192.315	19.505	922.938	703.832
193.329	19.108	921.793	701.281
194.344	19.260	921.661	701.735
195.359	19.310	921.082	701.437
196.373	19.471	921.016	701.982
197.388	19.641	920.420	702.153
198.402	19.964	919.808	702.938
199.417	20.136	919.426	703.282
200.432	20.450	919.153	704.285
201.446	20.658	918.559	704.609
202.461	20.515	918.775	704.133
203.475	20.805	918.083	704.711
204.490	20.509	917.705	703.161
205.504	20.280	916.121	700.961
206.519	20.039	915.189	699.214
207.534	19.991	914.508	698.440
208.548	19.906	914.001	697.645
209.563	20.027	912.519	696.942
210.577	20.086	912.137	696.827
211.592	20.130	911.726	696.627
212.607	20.220	911.629	696.851
213.621	20.475	911.238	697.514
214.636	20.470	910.621	696.960
215.650	20.234	909.934	695.430
216.665	20.347	909.310	695.342
217.680	20.446	908.671	695.187
218.694	20.676	907.968	695.508
219.709	20.702	908.109	695.660
220.723	20.623	906.739	694.233
221.738	20.457	906.141	693.049
222.753	20.554	905.007	692.507
223.767	20.361	904.554	691.331
224.782	20.523	904.128	691.590
225.796	20.568	903.551	691.267
226.811	20.713	902.985	691.347
227.826	20.659	902.008	690.325
228.840	20.484	901.043	688.833
229.855	20.226	900.945	687.672
230.869	20.281	899.980	687.093
231.884	20.200	899.436	686.297
232.899	20.221	898.431	685.551
233.913	20.105	897.529	684.345
234.928	20.105	896.664	683.623
235.942	20.004	896.373	682.945
236.957	19.904	895.233	681.621
237.972	19.919	894.589	681.132
238.986	19.928	893.938	680.611
240.001	19.783	893.578	679.703
241.015	19.996	892.787	679.880
242.030	20.031	892.444	679.695
243.045	20.235	891.504	679.718
244.059	20.240	891.415	679.610
245.074	20.286	890.752	679.225
246.088	20.325	890.367	679.024
247.103	20.399	890.316	679.212
248.117	20.692	889.579	679.739
249.132	20.972	888.669	680.074
250.147	20.942	889.256	680.347
251.161	21.358	888.443	681.284
252.176	21.452	887.990	681.244
253.190	21.595	887.209	681.142
254.205	21.577	886.750	680.658
255.220	21.715	886.465	680.917
256.234	21.497	885.560	679.314
257.249	21.395	884.995	678.425
258.263	21.425	884.327	677.970
259.278	21.446	883.432	677.302
260.293	21.416	883.028	676.819
261.307	21.425	882.817	676.632
262.322	21.543	882.187	676.545
263.336	21.615	881.785	676.456
264.351	21.699	881.024	676.135
265.366	21.691	879.874	675.161
266.380	21.430	879.850	674.076
267.395	21.691	879.157	674.492
268.409	21.452	878.177	672.760
269.424	21.446	877.119	671.868
270.439	21.490	876.127	671.220
271.453	21.355	875.740	670.345
272.468	21.283	874.815	669.301
273.482	21.111	874.376	668.247
274.497	21.075	873.962	667.734
275.512	21.096	873.165	667.146
276.526	21.293	872.504	667.335
277.541	21.278	871.416	666.385
278.555	21.235	871.006	665.850
279.570	21.436	870.574	666.227
280.585	21.575	870.934	666.972
281.599	21.668	870.033	666.577
282.614	21.432	869.651	665.329
283.628	21.331	868.306	663.858
284.643	21.214	867.925	663.061
285.657	21.140	867.619	662.491
286.672	21.273	866.814	662.321
287.687	21.183	866.426	661.625
288.701	21.317	866.118	661.836
289.716	21.494	865.111	661.679
290.730	21.323	864.721	660.675
291.745	21.254	864.315	660.047
292.760	21.448	863.365	659.997
293.774	21.333	862.974	659.206
294.789	21.734	862.634	660.397
295.803	21.708	862.168	659.884
296.818	21.523	861.088	658.305
297.833	21.333	860.646	657.192
298.847	21.295	859.712	656.280
299.862	21.352	858.708	655.670
300.876	21.421	858.296	655.557
301.891	21.439	858.269	655.544
302.906	21.834	857.464	656.349
303.920	21.822	857.217	656.057
304.935	22.127	856.632	656.692
305.949	22.020	856.260	655.947
306.964	22.009	855.392	655.184
307.979	21.764	854.708	653.688
308.993	21.702	853.980	652.844
310.008	21.722	853.695	652.642
311.022	21.985	853.330	653.284
312.037	21.933	852.689	652.542
313.052	21.651	852.065	650.958
314.066	21.383	851.014	649.104
315.081	21.300	850.061	648.012
316.095	21.301	849.552	647.570
317.110	21.265	849.113	647.046
318.125	21.312	848.891	646.991
319.139	21.278	848.010	646.139
320.154	21.246	847.595	645.646
321.168	21.170	847.251	645.047
322.183	21.362	846.192	644.892
323.197	21.438	846.179	645.104
324.212	21.449	845.605	644.650
325.227	21.245	845.338	643.638
326.241	21.453	844.368	643.608
327.256	21.484	843.766	643.205
328.270	21.327	843.426	642.312
329.285	21.400	842.781	642.035
330.300	21.350	842.032	641.224
331.314	21.231	841.521	640.340
332.329	21.361	841.226	640.535
333.343	21.562	840.545	640.697
334.358	21.638	840.342	640.763
335.373	21.668	840.226	640.728
336.387	21.748	839.312	640.266
337.402	21.866	838.729	640.195
338.416	22.048	838.092	640.317
339.431	22.041	838.210	640.326
340.446	22.402	837.236	640.839
341.460	22.430	836.752	640.514
342.475	22.461	836.328	640.244
343.489	22.425	836.009	639.813
344.504	22.542	835.836	640.047
345.519	22.617	835.453	639.973
346.533	22.762	834.732	639.888
347.548	22.710	833.695	638.847
348.562	22.366	833.079	637.074
349.577	22.032	832.533	635.392
350.592	21.885	831.703	634.171
351.606	21.771	831.310	633.403
352.621	21.812	830.526	632.898
353.635	21.796	830.108	632.466
354.650	21.960	829.644	632.647
355.665	21.907	829.393	632.210
356.679	22.058	828.940	632.352
357.694	22.131	828.582	632.285
358.708	22.273	828.035	632.323
359.723	22.238	826.819	631.212
360.738	22.208	826.666	630.932
361.752	22.173	826.377	630.528
362.767	22.130	825.940	629.988
363.781	22.176	825.928	630.086
364.796	22.509	825.425	630.841
365.810	22.608	825.139	630.922
366.825	22.772	824.824	631.211
367.840	22.887	824.598	631.392
368.854	22.868	824.144	630.919
369.869	22.701	823.319	629.639
370.883	22.532	822.579	628.414
371.898	22.518	821.969	627.841
372.913	22.795	821.428	628.358
373.927	22.852	820.920	628.117
374.942	22.821	820.005	627.252
375.956	22.620	819.666	626.223
376.971	22.631	819.512	626.089
377.986	22.862	818.832	626.332
379.000	22.988	818.485	626.459
380.015	22.932	818.289	626.056
381.029	22.935	817.384	625.318
382.044	22.888	816.927	624.745
383.059	23.033	815.696	624.262
384.073	23.063	815.461	624.134
385.088	22.887	814.766	622.925
386.102	22.688	813.760	621.398
387.117	22.498	813.213	620.258
388.132	22.366	812.773	619.405
389.146	22.431	812.413	619.304
390.161	22.432	812.490	619.312
391.175	22.728	811.936	619.872
392.190	22.849	811.746	620.097
393.205	22.824	811.211	619.548
394.219	22.587	810.190	617.882
395.234	22.488	809.903	617.260
396.248	22.439	808.971	616.324
397.263	22.503	808.395	616.055
398.278	22.228	807.926	614.683
399.292	22.145	807.417	613.951
400.307	22.214	806.947	613.779
401.321	22.204	806.485	613.340
402.336	22.199	806.587	613.346
403.350	22.369	806.215	613.601
404.365	22.535	805.705	613.736
405.380	22.859	805.116	614.362
406.394	23.059	805.196	615.063
407.409	23.093	804.897	614.900
408.423	23.002	804.592	614.296
409.438	23.182	804.125	614.511
410.453	23.481	803.470	614.992
411.467	23.436	803.246	614.609
412.482	23.310	802.566	613.597
413.496	23.498	802.257	613.960
414.511	23.523	801.678	613.550
415.526	23.531	801.574	613.443
416.540	23.405	801.287	612.733
417.555	23.100	800.870	611.307
418.569	23.429	799.869	611.623
419.584	23.438	799.325	611.182
420.599	23.481	799.200	611.181
421.613	164.842	1371.093	1798.964
422.628	143.211	1454.414	1799.052
