DTS Sentinel unit serial number:	SN413079Multiplexer serial number:	ORYXHardware model number:	OX4-SRSoftware version number:	ORYX F/W v4.00 Oryx Data Collector v3.7.2.0data status	okinstallation	princeton_trtdifferential loss correction	single-endedforward channel	channel 3reverse channel	N/Adate	2019/09/12time	10:38:11forward acquisition time	60.00reverse acquisition time	0.00gamma	496.2192k internal	0.2296k external	0.2296temperature offset calibration	1.0033default loss term (dB/km)	0.3790temperature slope calibration	1.0000multiplexer offset coefficient	1.0000multiplexer slope coefficient	1.0000fibre end	0.00T internal ref (°C)	37.37T ext. ref 1 (°C)	1.89T ext. ref 2 (°C)	35.73length (m)	temperature (°C)	Stokes	anti-Stokes-747.200	668.572	0.176	0.465
-746.185	-8.191	0.328	0.226
-745.171	-24.251	0.242	0.147
-744.156	14.225	-0.057	0.046
-743.142	231.833	-0.072	-0.121
-742.127	52.634	-0.060	0.059
-741.112	-161.306	-0.027	0.001
-740.098	230.196	-0.175	0.293
-739.083	800.000	-0.087	0.326
-738.069	35.877	0.201	-0.180
-737.054	-63.291	-0.175	0.074
-736.039	-0.301	-0.459	-0.333
-735.025	-124.468	0.188	0.030
-734.010	-34.018	-0.207	0.117
-732.996	46.266	-0.215	0.204
-731.981	36.170	-0.174	0.157
-730.966	60.318	0.217	-0.219
-729.952	20.314	0.266	-0.219
-728.937	15.372	0.218	-0.174
-727.923	-42.769	-0.604	-0.313
-726.908	9.158	-0.185	0.143
-725.894	-200.000	0.008	-0.214
-724.879	-200.000	0.052	-0.266
-723.864	-104.668	-0.087	-0.020
-722.850	-127.763	-0.232	0.034
-721.835	19.694	0.077	0.063
-720.821	-38.540	0.277	0.149
-719.806	-112.925	-0.175	-0.035
-718.791	-86.837	-0.144	0.045
-717.777	-0.767	0.050	-0.036
-716.762	77.898	0.066	-0.072
-715.748	11.368	0.058	0.045
-714.733	-200.000	0.027	0.163
-713.718	221.893	-0.151	-0.248
-712.704	-31.929	0.054	-0.031
-711.689	-2.345	0.202	0.145
-710.675	87.970	0.136	0.154
-709.660	-200.000	-0.021	-0.121
-708.645	-85.915	0.338	0.107
-707.631	-200.000	0.015	0.090
-706.616	-17.275	-0.234	-0.151
-705.602	-116.602	-0.117	0.022
-704.587	-1.214	-0.193	0.139
-703.572	703.570	-0.074	-0.199
-702.558	-98.394	-0.157	-0.041
-701.543	84.994	-0.306	-0.342
-700.529	-200.000	0.010	-0.309
-699.514	-160.742	-0.238	0.013
-698.499	509.407	0.081	0.192
-697.485	301.847	0.077	-0.146
-696.470	236.281	0.125	0.211
-695.456	800.000	0.112	-0.359
-694.441	60.190	-0.268	0.271
-693.426	800.000	-0.138	-0.409
-692.412	-200.000	0.027	0.210
-691.397	-41.294	-0.418	-0.220
-690.383	152.642	-0.098	0.136
-689.368	-200.000	0.069	0.507
-688.354	-200.000	0.026	0.349
-687.339	-50.333	-0.035	-0.017
-686.324	-200.000	0.065	0.302
-685.310	-44.077	0.122	-0.062
-684.295	93.762	-0.167	-0.193
-683.281	-84.894	-0.171	0.055
-682.266	169.332	-0.101	-0.147
-681.251	3.900	-0.072	-0.054
-680.237	187.906	0.198	0.301
-679.222	131.550	0.029	-0.037
-678.208	132.559	0.120	0.157
-677.193	268.442	-0.182	-0.326
-676.178	11.246	-0.192	-0.150
-675.164	-200.000	0.009	0.072
-674.149	-78.370	0.313	-0.110
-673.135	32.697	0.302	-0.266
-672.120	800.000	-0.095	0.308
-671.105	-200.000	-0.018	0.083
-670.091	21.209	0.067	0.055
-669.076	-27.733	0.107	0.063
-668.062	-200.000	0.020	0.192
-667.047	-131.857	0.151	-0.020
-666.032	240.006	-0.114	-0.193
-665.018	-53.827	-0.060	0.028
-664.003	152.149	0.066	-0.092
-662.989	181.202	-0.087	-0.130
-661.974	-109.962	-0.119	-0.025
-660.959	800.000	-0.053	-0.179
-659.945	-3.132	-0.265	0.188
-658.930	-15.865	0.301	0.195
-657.916	-200.000	0.014	-0.215
-656.901	69.713	0.110	-0.115
-655.886	-129.270	-0.155	0.022
-654.872	-63.365	-0.166	-0.070
-653.857	-115.328	-0.229	-0.044
-652.843	6.770	0.088	0.067
-651.828	-99.665	-0.259	0.066
-650.814	-84.323	0.457	0.147
-649.799	-85.047	0.205	0.065
-648.784	-200.000	0.052	0.303
-647.770	-19.441	0.228	-0.144
-646.755	-125.534	-0.268	0.042
-645.741	156.495	-0.125	-0.176
-644.726	-32.121	-0.284	0.162
-643.711	-200.000	0.012	-0.333
-642.697	25.484	-0.026	-0.022
-641.682	231.890	-0.060	0.101
-640.668	-44.802	-0.032	0.016
-639.653	29.489	-0.229	0.198
-638.638	-89.346	-0.167	-0.050
-637.624	-31.497	0.352	-0.201
-636.609	-144.957	-0.220	0.020
-635.595	-200.000	0.045	0.203
-634.580	142.045	-0.044	-0.060
-633.565	454.135	-0.203	-0.458
-632.551	-95.144	-0.181	-0.050
-631.536	-195.297	-0.205	-0.002
-630.522	-98.501	-0.165	0.043
-629.507	-108.010	-0.129	0.028
-628.492	-19.744	-0.075	0.047
-627.478	-138.493	-0.302	-0.034
-626.463	-150.842	0.077	-0.006
-625.449	-200.000	0.031	-0.227
-624.434	-200.000	0.064	-0.502
-623.419	-200.000	-0.018	0.219
-622.405	-173.820	-0.187	0.006
-621.390	800.000	-0.065	0.216
-620.376	800.000	0.047	0.163
-619.361	-200.000	0.100	0.452
-618.346	-28.000	0.145	-0.086
-617.332	-200.000	0.009	-0.153
-616.317	-80.460	-0.119	0.040
-615.303	84.782	0.072	-0.081
-614.288	82.456	0.110	-0.121
-613.273	58.228	-0.150	0.150
-612.259	-97.904	-0.342	0.090
-611.244	417.989	-0.079	0.173
-610.230	-200.000	0.004	0.156
-609.215	562.318	-0.065	-0.161
-608.201	-134.536	0.179	-0.022
-607.186	-200.000	-0.006	-0.030
-606.171	256.043	-0.145	-0.253
-605.157	-200.000	0.004	-0.623
-604.142	-121.649	-0.170	-0.029
-603.128	243.128	-0.063	0.108
-602.113	-54.834	0.149	-0.069
-601.098	-200.000	-0.035	-0.388
-600.084	-12.847	0.189	0.125
-599.069	-32.843	0.146	-0.082
-598.055	151.385	-0.053	-0.073
-597.040	-166.003	-0.179	0.008
-596.025	800.000	-0.030	-0.105
-595.011	-200.000	0.024	-0.185
-593.996	128.890	-0.140	-0.181
-592.982	-20.856	0.157	0.098
-591.967	-113.034	0.509	-0.102
-590.952	56.619	-0.096	0.095
-589.938	-109.818	-0.352	0.075
-588.923	75.054	-0.208	0.222
-587.909	157.002	-0.039	-0.055
-586.894	-87.603	-0.197	0.060
-585.879	56.324	-0.075	-0.074
-584.865	-26.731	0.409	0.243
-583.850	253.268	0.039	0.068
-582.836	-200.000	0.010	0.133
-581.821	-200.000	-0.045	-0.456
-580.806	-200.000	-0.005	-0.472
-579.792	751.002	0.105	0.287
-578.777	800.000	0.050	-0.151
-577.763	-200.000	-0.036	-0.163
-576.748	-116.098	0.179	-0.034
-575.733	109.049	0.302	0.367
-574.719	-200.000	0.018	-0.168
-573.704	136.764	0.104	-0.137
-572.690	-96.350	-0.330	-0.089
-571.675	88.302	0.227	0.256
-570.661	-46.967	0.318	-0.158
-569.646	283.630	-0.170	-0.311
-568.631	-156.055	-0.301	0.019
-567.617	-15.885	0.157	0.101
-566.602	35.449	-0.215	-0.191
-565.588	-200.000	-0.015	-0.116
-564.573	44.744	-0.235	0.219
-563.558	-14.234	-0.099	-0.065
-562.544	2.726	-0.152	-0.112
-561.529	-24.213	0.057	0.034
-560.515	-122.837	0.238	-0.039
-559.500	92.219	-0.162	-0.185
-558.485	85.392	0.049	0.054
-557.471	9.774	-0.093	0.072
-556.456	-200.000	0.028	0.236
-555.442	38.162	0.141	0.127
-554.427	-200.000	-0.028	-0.217
-553.412	-200.000	-0.014	0.269
-552.398	800.000	-0.140	-0.402
-551.383	-99.185	-0.089	-0.023
-550.369	-3.129	0.097	-0.068
-549.354	-50.695	0.331	0.158
-548.339	-0.927	-0.185	-0.133
-547.325	109.333	0.066	-0.080
-546.310	-73.594	-0.080	0.029
-545.296	800.000	0.043	0.166
-544.281	-0.352	0.197	0.142
-543.266	277.382	0.015	0.027
-542.252	-101.541	0.149	0.037
-541.237	800.000	-0.092	-0.260
-540.223	181.481	0.153	-0.229
-539.208	116.331	0.164	0.204
-538.193	800.000	0.082	0.260
-537.179	13.118	0.055	0.043
-536.164	204.162	-0.090	-0.141
-535.150	-190.368	-0.308	0.003
-534.135	-154.674	-0.283	0.019
-533.121	-154.774	0.387	-0.026
-532.106	118.124	0.161	-0.202
-531.091	2.594	-0.300	-0.220
-530.077	-29.778	0.125	-0.072
-529.062	-121.512	0.197	0.033
-528.048	800.000	0.045	0.150
-527.033	-200.000	0.001	0.009
-526.018	99.010	0.124	-0.145
-525.004	800.000	0.041	0.166
-523.989	800.000	-0.029	0.095
-522.975	800.000	-0.082	-0.263
-521.960	-59.003	0.275	0.120
-520.945	27.089	-0.291	0.247
-519.931	44.314	0.147	0.137
-518.916	-151.758	0.120	-0.009
-517.902	-200.000	-0.022	0.138
-516.887	-71.245	-0.159	-0.061
-515.872	-163.367	0.152	0.007
-514.858	-35.875	-0.057	0.031
-513.843	-78.194	0.022	0.007
-512.829	491.229	-0.016	0.037
-511.814	-143.316	-0.073	0.007
-510.799	-105.632	-0.131	0.030
-509.785	1.403	-0.246	0.179
-508.770	176.018	-0.071	-0.105
-507.756	162.287	0.071	-0.101
-506.741	317.080	-0.130	0.248
-505.726	800.000	0.052	0.208
-504.712	-200.000	0.002	0.154
-503.697	188.504	-0.184	0.279
-502.683	293.358	-0.042	-0.078
-501.668	-49.196	-0.160	-0.077
-500.653	-200.000	-0.003	0.188
-499.639	151.045	0.070	0.096
-498.624	136.699	-0.182	-0.240
-497.610	800.000	-0.010	0.044
-496.595	-200.000	-0.021	-0.098
-495.581	-176.326	-0.340	-0.009
-494.566	79.350	0.067	0.073
-493.551	800.000	-0.052	-0.162
-492.537	108.032	0.131	-0.158
-491.522	-98.298	0.069	0.018
-490.508	-115.143	0.197	0.038
-489.493	155.981	-0.066	0.092
-488.478	-97.484	-0.178	0.047
-487.464	-200.000	0.043	-0.228
-486.449	170.569	0.062	-0.090
-485.435	-105.148	0.376	-0.087
-484.420	45.075	0.241	-0.224
-483.405	800.000	-0.097	-0.285
-482.391	-168.408	0.214	0.008
-481.376	800.000	0.024	0.080
-480.362	-107.411	0.151	-0.034
-479.347	158.054	0.205	-0.288
-478.332	-16.212	0.254	0.163
-477.318	800.000	-0.025	-0.071
-476.303	-103.576	-0.191	-0.045
-475.289	-147.490	0.359	-0.031
-474.274	347.855	0.073	-0.145
-473.259	-66.937	0.309	-0.123
-472.245	161.077	0.187	-0.265
-471.230	-200.000	-0.019	-0.182
-470.216	-101.341	-0.337	-0.083
-469.201	309.944	0.087	-0.164
-468.186	-110.052	0.027	0.006
-467.172	134.113	-0.315	-0.413
-466.157	-32.509	-0.286	0.161
-465.143	-123.147	-0.102	0.017
-464.128	-5.897	0.196	-0.136
-463.113	-200.000	0.039	-0.362
-462.099	5.007	0.301	-0.224
-461.084	662.556	-0.113	-0.294
-460.070	31.829	-0.253	0.220
-459.055	-200.000	-0.026	-0.292
-458.040	-200.000	0.011	0.217
-457.026	-189.486	-0.233	0.003
-456.011	74.157	0.084	0.090
-454.997	149.881	-0.110	0.151
-453.982	311.837	0.117	0.222
-452.968	800.000	0.034	0.131
-451.953	-56.489	-0.120	0.054
-450.938	-132.961	-0.223	0.029
-449.924	-81.492	-0.349	0.116
-448.909	-47.378	0.053	0.026
-447.895	219.537	-0.132	-0.213
-446.880	-90.706	-0.139	-0.041
-445.865	83.905	-0.024	0.026
-444.851	303.657	-0.201	-0.377
-443.836	134.747	0.096	-0.125
-442.822	97.302	0.121	0.141
-441.807	-18.159	-0.359	-0.227
-440.792	800.000	0.048	0.190
-439.778	-16.381	0.179	-0.115
-438.763	50.653	0.159	-0.152
-437.749	-200.000	0.006	-0.405
-436.734	-200.000	-0.089	-0.463
-435.719	-29.294	-0.243	-0.141
-434.705	193.351	0.135	-0.206
-433.690	88.988	-0.083	0.093
-432.676	-200.000	-0.039	0.217
-431.661	444.143	0.080	0.176
-430.646	15.395	0.144	0.114
-429.632	-29.264	-0.272	0.157
-428.617	262.330	0.131	0.229
-427.603	-200.000	-0.018	0.166
-426.588	800.000	0.143	0.456
-425.573	173.124	0.147	0.214
-424.559	-200.000	0.032	-0.330
-423.544	-200.000	0.072	0.374
-422.530	-110.989	-0.258	-0.053
-421.515	-28.386	-0.082	0.048
-420.500	-200.000	0.029	0.171
-419.486	375.202	0.177	-0.363
-418.471	252.865	0.103	-0.177
-417.457	800.000	-0.130	0.429
-416.442	-42.910	-0.103	-0.053
-415.428	386.063	0.044	0.091
-414.413	138.901	0.171	-0.227
-413.398	176.741	0.083	0.122
-412.384	-105.216	0.131	-0.030
-411.369	-200.000	0.083	0.000
-410.355	361.288	-0.141	0.285
-409.340	170.653	0.082	-0.118
-408.325	-127.961	-0.340	-0.049
-407.311	-150.384	0.386	-0.030
-406.296	800.000	0.070	-0.235
-405.282	-21.137	0.159	-0.098
-404.267	15.054	-0.071	-0.056
-403.252	4.181	-0.526	-0.388
-402.238	-200.000	0.028	-0.275
-401.223	-59.160	-0.192	-0.084
-400.209	308.569	-0.084	0.158
-399.194	-77.072	0.328	0.115
-398.179	238.726	-0.031	-0.052
-397.165	14.133	0.361	0.283
-396.150	355.585	-0.060	0.120
-395.136	197.506	-0.192	-0.296
-394.121	-142.836	0.300	-0.029
-393.106	-33.641	-0.161	0.090
-392.092	203.281	0.087	0.136
-391.077	113.190	-0.127	-0.155
-390.063	5.769	-0.435	0.325
-389.048	-90.041	0.611	0.180
-388.033	-199.595	-0.128	0.001
-387.019	-200.000	0.018	-0.135
-386.004	-98.587	-0.264	0.068
-384.990	-91.881	-0.078	0.022
-383.975	-200.000	-0.186	0.000
-382.960	-200.000	-0.002	0.049
-381.946	-126.392	-0.022	-0.003
-380.931	5.511	0.340	-0.253
-379.917	232.935	0.044	-0.072
-378.902	268.886	0.095	-0.168
-377.888	-40.540	-0.250	0.131
-376.873	274.031	-0.081	0.144
-375.858	-110.377	0.208	0.044
-374.844	-200.000	0.046	0.370
-373.829	-48.611	-0.300	0.145
-372.815	-117.076	0.459	-0.084
-371.800	-200.000	-0.054	-0.398
-370.785	-200.000	-0.009	0.091
-369.771	543.590	-0.005	0.013
-368.756	-200.000	-0.025	-0.155
-367.742	-109.061	-0.260	0.056
-366.727	-137.332	-0.291	-0.033
-365.712	321.020	-0.066	0.127
-364.698	-39.439	-0.374	-0.197
-363.683	-75.788	-0.078	0.028
-362.669	35.666	-0.151	0.134
-361.654	-3.630	-0.253	-0.177
-360.639	-200.000	0.021	-0.095
-359.625	-200.000	0.007	0.091
-358.610	-101.193	-0.251	0.062
-357.596	-58.504	0.172	0.075
-356.581	-200.000	-0.015	0.122
-355.566	-165.537	0.235	0.010
-354.552	-30.369	0.137	0.078
-353.537	800.000	-0.066	0.200
-352.523	-101.933	-0.127	0.031
-351.508	726.628	0.054	0.146
-350.493	800.000	0.026	-0.086
-349.479	342.779	-0.052	0.102
-348.464	800.000	-0.046	-0.130
-347.450	-62.484	0.272	0.114
-346.435	-43.757	-0.232	0.117
-345.420	-77.784	0.139	0.048
-344.406	-128.711	0.341	-0.048
-343.391	-45.360	-0.082	0.041
-342.377	-200.000	-0.001	-0.020
-341.362	-200.000	0.009	-0.143
-340.348	161.558	0.071	-0.100
-339.333	343.380	0.109	0.215
-338.318	75.565	0.286	0.304
-337.304	800.000	-0.017	0.061
-336.289	345.680	-0.146	-0.289
-335.275	-6.019	-0.093	-0.064
-334.260	66.802	-0.046	0.047
-333.245	-2.278	-0.114	0.080
-332.231	124.526	-0.112	-0.142
-331.216	-200.000	-0.066	0.436
-330.202	-85.532	0.190	0.059
-329.187	101.536	0.159	0.187
-328.172	800.000	-0.079	0.226
-327.158	165.955	0.074	0.106
-326.143	-65.413	0.165	0.067
-325.129	25.019	0.252	0.211
-324.114	-3.567	0.104	0.073
-323.099	-54.494	-0.466	0.212
-322.085	-84.252	-0.195	0.062
-321.070	-47.824	-0.119	-0.058
-320.056	-136.040	-0.451	0.053
-319.041	-159.002	0.207	-0.012
-318.026	-73.436	-0.330	0.121
-317.012	-166.531	-0.150	-0.006
-315.997	-34.404	0.187	-0.103
-314.983	800.000	0.053	0.207
-313.968	-176.686	-0.335	-0.009
-312.953	-56.003	0.155	-0.070
-311.939	342.736	-0.047	0.092
-310.924	800.000	0.071	0.243
-309.910	-141.071	0.376	0.039
-308.895	-126.534	-0.208	0.031
-307.880	-200.000	0.010	0.115
-306.866	155.801	0.226	0.312
-305.851	-200.000	-0.027	-0.375
-304.837	16.676	0.109	0.086
-303.822	-13.750	-0.115	-0.075
-302.807	-62.210	-0.336	-0.141
-301.793	487.714	-0.087	-0.198
-300.778	-200.000	0.013	-0.233
-299.764	-81.634	0.062	0.020
-298.749	2.968	0.372	0.271
-297.735	591.051	0.072	-0.179
-296.720	-200.000	0.027	0.185
-295.705	61.481	0.031	-0.031
-294.691	-0.393	0.338	0.241
-293.676	-200.000	0.017	0.223
-292.662	-200.000	0.055	0.263
-291.647	-200.000	0.001	-0.262
-290.632	48.860	-0.296	-0.279
-289.618	-200.000	-0.002	-0.376
-288.603	-0.367	0.186	-0.133
-287.589	251.499	-0.178	0.304
-286.574	523.504	0.173	0.408
-285.559	243.984	0.100	-0.168
-284.545	-139.563	0.174	0.019
-283.530	-42.062	0.113	-0.058
-282.516	-6.376	0.151	0.103
-281.501	-86.738	0.078	0.024
-280.486	602.465	0.102	-0.255
-279.472	204.987	-0.150	-0.233
-278.457	-160.062	-0.159	-0.009
-277.443	-185.953	0.130	-0.002
-276.428	329.336	0.066	-0.128
-275.413	110.817	0.094	-0.114
-274.399	-25.956	0.451	0.266
-273.384	-200.000	0.029	-0.315
-272.370	16.600	0.112	-0.089
-271.355	372.026	0.074	-0.150
-270.340	285.746	0.149	-0.269
-269.326	416.021	-0.021	0.045
-268.311	29.131	-0.065	-0.056
-267.297	63.059	-0.209	-0.210
-266.282	286.296	-0.142	0.257
-265.267	-29.218	-0.220	0.126
-264.253	-193.498	-0.249	-0.002
-263.238	-123.897	-0.233	-0.037
-262.224	-23.780	-0.314	0.189
-261.209	-77.291	-0.238	0.083
-260.195	-200.000	-0.027	0.459
-259.180	-0.109	-0.177	0.126
-258.165	-84.487	0.170	-0.054
-257.151	262.973	-0.078	0.136
-256.136	-129.201	-0.307	0.043
-255.122	800.000	-0.059	0.193
-254.107	24.664	-0.270	0.224
-253.092	800.000	-0.047	-0.194
-252.078	-152.414	-0.260	0.019
-251.063	-200.000	0.032	-0.162
-250.049	-131.719	-0.385	0.051
-249.034	-161.860	-0.146	0.007
-248.019	-68.051	0.184	-0.072
-247.005	177.689	0.072	0.105
-245.990	183.176	0.071	0.106
-244.976	800.000	0.042	0.133
-243.961	-140.376	0.158	0.017
-242.946	800.000	0.097	0.318
-241.932	800.000	0.141	0.416
-240.917	-200.000	-0.028	0.158
-239.903	-116.974	0.047	0.009
-238.888	-200.000	0.023	0.253
-237.873	10.827	0.325	-0.249
-236.859	88.078	-0.148	0.165
-235.844	-200.000	-0.006	0.178
-234.830	175.200	0.140	0.203
-233.815	-200.000	-0.006	-0.051
-232.800	800.000	0.038	0.141
-231.786	-200.000	0.054	0.343
-230.771	-26.820	0.293	0.172
-229.757	-132.096	-0.238	-0.031
-228.742	-73.103	0.292	0.107
-227.727	-135.455	0.161	0.019
-226.713	-109.187	0.387	0.082
-225.698	-0.694	0.137	0.098
-224.684	257.990	0.018	0.030
-223.669	-200.000	0.000	-0.278
-222.655	-153.899	0.223	0.015
-221.640	2.144	0.211	-0.153
-220.625	271.983	0.126	-0.222
-219.611	89.221	-0.044	0.049
-218.596	-25.684	0.125	-0.074
-217.582	504.500	0.137	-0.318
-216.567	-45.838	-0.167	0.083
-215.552	-32.710	0.106	-0.059
-214.538	-50.555	0.077	-0.036
-213.523	37.173	0.276	-0.244
-212.509	-120.958	0.207	0.035
-211.494	90.114	0.072	-0.080
-210.479	-200.000	-0.006	-0.126
-209.465	116.970	-0.085	-0.104
-208.450	-200.000	-0.068	-0.381
-207.436	-83.467	0.137	0.044
-206.421	-62.094	-0.261	0.109
-205.406	800.000	0.067	-0.213
-204.392	-118.732	0.091	0.016
-203.377	30.459	-0.080	0.069
-202.363	45.589	-0.103	0.095
-201.348	26.044	0.157	0.131
-200.333	-174.200	0.275	0.008
-199.319	-200.000	-0.042	-0.419
-198.304	-63.726	0.471	0.193
-197.290	-145.816	0.381	-0.034
-196.275	0.861	-0.235	0.169
-195.260	149.109	0.083	-0.113
-194.246	-200.000	0.003	-0.169
-193.231	-120.150	-0.310	-0.053
-192.217	171.036	0.223	0.320
-191.202	112.726	-0.117	-0.142
-190.187	17.696	0.124	0.098
-189.173	185.994	-0.197	0.292
-188.158	144.365	-0.102	0.136
-187.144	-32.455	0.166	-0.093
-186.129	50.009	-0.156	-0.147
-185.114	-128.479	-0.334	-0.047
-184.100	800.000	0.068	0.187
-183.085	95.174	-0.146	0.166
-182.071	-146.975	0.401	0.034
-181.056	91.098	0.121	0.136
-180.042	264.923	0.081	0.142
-179.027	346.813	-0.192	0.377
-178.012	95.824	-0.124	0.142
-176.998	-200.000	0.026	-0.181
-175.983	-158.047	0.146	0.009
-174.969	740.971	0.053	0.143
-173.954	800.000	0.049	-0.197
-172.939	262.132	-0.120	-0.208
-171.925	80.260	-0.028	-0.030
-170.910	191.803	0.086	0.130
-169.896	-5.468	0.259	-0.178
-168.881	168.083	0.226	-0.321
-167.866	-18.855	-0.124	-0.077
-166.852	800.000	-0.049	0.208
-165.837	-88.575	-0.220	0.065
-164.823	28.901	0.094	-0.080
-163.808	-114.541	-0.198	0.038
-162.793	800.000	0.056	0.241
-161.779	128.009	-0.181	-0.230
-160.764	273.644	0.062	0.109
-159.750	15.667	0.150	-0.118
-158.735	800.000	0.081	-0.252
-157.720	-82.059	0.267	-0.087
-156.706	-45.280	-0.178	0.088
-155.691	-24.563	0.081	0.048
-154.677	800.000	-0.073	0.278
-153.662	-45.771	-0.165	-0.081
-152.647	-59.054	0.220	-0.095
-151.633	-16.405	-0.137	0.087
-150.618	-83.061	0.140	-0.045
-149.604	3.546	-0.306	-0.222
-148.589	40.901	-0.080	-0.072
-147.574	-200.000	-0.073	-0.381
-146.560	-200.000	0.037	0.188
-145.545	83.755	-0.152	0.165
-144.531	340.114	0.080	-0.157
-143.516	121.720	-0.124	0.154
-142.502	-47.307	0.206	-0.100
-141.487	210.388	0.066	-0.104
-140.472	-175.226	-0.256	-0.007
-139.458	226.240	0.085	-0.138
-138.443	97.829	0.253	-0.291
-137.429	-45.866	0.358	0.177
-136.414	-171.335	0.557	0.019
-135.399	299.627	-0.040	0.073
-134.385	55.650	0.344	-0.333
-133.370	178.413	-0.170	-0.248
-132.356	-200.000	0.046	0.356
-131.341	-83.389	0.159	0.051
-130.326	-200.000	-0.004	0.076
-129.312	-200.000	0.007	0.059
-128.297	-50.396	0.285	0.134
-127.283	-164.505	0.157	-0.007
-126.268	6.444	0.241	0.179
-125.253	214.994	0.226	-0.357
-124.239	-152.620	0.426	-0.030
-123.224	313.973	-0.040	-0.075
-122.210	-97.453	-0.115	0.030
-121.195	627.994	-0.131	0.331
-120.180	83.754	-0.070	-0.076
-119.166	-38.428	-0.272	0.144
-118.151	159.590	-0.043	-0.060
-117.137	-52.926	0.214	-0.098
-116.122	-85.471	0.287	-0.089
-115.107	-132.333	-0.431	-0.055
-114.093	800.000	-0.018	0.055
-113.078	-200.000	0.040	-0.209
-112.064	21.344	0.160	-0.130
-111.049	426.463	0.090	-0.193
-110.034	361.688	-0.070	0.140
-109.020	800.000	-0.090	0.268
-108.005	-200.000	0.032	0.360
-106.991	101.238	0.057	0.066
-105.976	62.959	0.100	-0.099
-104.962	549.677	0.045	0.107
-103.947	-181.593	-0.050	-0.001
-102.932	137.847	0.065	0.085
-101.918	364.893	-0.085	-0.170
-100.903	800.000	0.101	0.278
-99.889	-6.655	0.231	-0.157
-98.874	-15.380	-0.126	-0.081
-97.859	77.331	0.329	0.349
-96.845	29.339	-0.258	-0.218
-95.830	-200.000	-0.041	0.198
-94.816	351.382	-0.082	-0.161
-93.801	231.958	-0.147	-0.241
-92.786	587.514	0.094	-0.231
-91.772	-105.552	0.241	0.054
-90.757	-200.000	0.065	0.313
-89.743	77.314	0.206	0.219
-88.728	239.697	-0.152	-0.252
-87.713	-125.314	0.360	0.055
-86.699	538.172	-0.051	0.121
-85.684	358.332	0.113	-0.224
-84.670	-17.018	-0.209	-0.131
-83.655	-45.300	-0.078	0.039
-82.640	-200.000	0.055	-0.469
-81.626	358.501	-0.086	-0.171
-80.611	-200.000	0.011	0.129
-79.597	800.000	0.052	-0.182
-78.582	-52.347	-0.193	-0.089
-77.567	-67.383	0.076	-0.030
-76.553	64.720	0.128	-0.128
-75.538	-167.704	-0.276	-0.011
-74.524	800.000	0.031	0.106
-73.509	-200.000	0.009	-0.233
-72.494	800.000	0.124	0.384
-71.480	-34.304	-0.162	-0.089
-70.465	-103.330	-0.375	-0.088
-69.451	-140.348	0.346	-0.036
-68.436	126.425	0.168	-0.212
-67.422	-143.225	0.362	0.035
-66.407	-142.903	-0.114	0.011
-65.392	-18.958	0.127	-0.079
-64.378	317.735	-0.141	0.265
-63.363	-12.070	0.219	-0.143
-62.349	-49.615	0.380	0.180
-61.334	-79.576	-0.875	-0.294
-60.319	-31.338	0.552	0.309
-59.305	-200.000	-0.136	-0.674
-58.290	274.582	0.478	0.843
-57.276	179.180	0.937	1.363
-56.261	-200.000	85.545	499.526
-55.246	455.229	1391.098	3067.818
-54.232	144.496	2608.964	3465.713
-53.217	109.270	2249.140	2677.894
-52.203	46.926	1773.762	1640.176
-51.188	40.429	1579.545	1414.364
-50.173	37.872	1552.056	1371.732
-49.159	54.324	1595.364	1527.616
-48.144	58.197	1615.222	1574.209
-47.130	41.002	1574.627	1413.812
-46.115	37.723	1559.141	1376.720
-45.100	37.533	1555.905	1372.468
-44.086	37.446	1554.071	1370.186
-43.071	37.359	1551.801	1367.512
-42.057	37.306	1550.823	1366.224
-41.042	37.321	1549.190	1364.839
-40.027	37.351	1547.547	1363.544
-39.013	37.326	1545.956	1361.913
-37.998	37.346	1544.598	1360.802
-36.984	37.353	1543.362	1359.708
-35.969	37.341	1541.961	1358.337
-34.954	37.303	1540.614	1356.831
-33.940	37.415	1538.754	1355.923
-32.925	37.450	1538.052	1355.492
-31.911	37.445	1536.621	1354.148
-30.896	37.443	1535.232	1352.855
-29.881	37.519	1533.571	1351.868
-28.867	37.521	1532.407	1350.801
-27.852	37.412	1530.708	1348.488
-26.838	37.299	1529.744	1346.804
-25.823	37.436	1527.659	1345.866
-24.809	37.399	1526.303	1344.362
-23.794	37.503	1524.705	1343.620
-22.779	37.494	1523.260	1342.227
-21.765	37.515	1522.082	1341.285
-20.750	37.482	1521.305	1340.318
-19.736	37.421	1520.801	1339.397
-18.721	37.364	1519.509	1337.815
-17.706	37.407	1517.907	1336.645
-16.692	37.349	1517.128	1335.513
-15.677	37.317	1515.934	1334.186
-14.663	37.276	1514.879	1332.924
-13.648	37.268	1513.538	1331.633
-12.633	37.420	1512.501	1331.711
-11.619	37.324	1512.031	1330.587
-10.604	37.382	1511.112	1330.127
-9.590	37.347	1510.097	1328.940
-8.575	37.315	1509.429	1328.078
-7.560	37.367	1507.941	1327.071
-6.546	37.263	1507.320	1325.762
-5.531	37.180	1506.618	1324.529
-4.517	37.254	1505.562	1324.047
-3.502	37.269	1504.734	1323.371
-2.487	37.312	1503.247	1322.305
-1.473	37.337	1502.273	1321.567
-0.458	37.288	1501.052	1320.103
0.556	37.634	1491.555	1311.719
1.571	35.429	1465.455	1274.029
2.586	32.134	1404.506	1199.924
3.600	30.519	1320.459	1118.311
4.615	28.696	1271.952	1066.557
5.629	23.609	1210.942	987.098
6.644	11.972	1118.670	851.649
7.659	3.465	1072.715	774.036
8.673	2.190	1066.654	763.228
9.688	1.815	1063.979	759.378
10.702	1.823	1062.042	757.965
11.717	1.723	1060.248	756.120
12.731	5.086	1064.587	775.898
13.746	15.791	1080.035	840.848
14.761	23.744	1090.796	889.126
15.775	25.188	1091.599	896.931
16.790	25.168	1091.364	896.560
17.804	25.132	1090.311	895.433
18.819	25.013	1089.318	893.945
19.834	25.139	1088.960	894.199
20.848	25.186	1088.320	893.831
21.863	25.286	1088.068	894.043
22.877	25.247	1087.808	893.553
23.892	25.207	1087.122	892.714
24.907	25.162	1086.131	891.595
25.921	25.273	1085.118	891.237
26.936	25.121	1084.798	890.143
27.950	25.257	1082.855	889.142
28.965	25.136	1082.144	887.882
29.980	24.949	1080.880	885.840
30.994	25.000	1079.337	884.752
32.009	25.144	1079.038	885.135
33.023	25.297	1078.077	885.027
34.038	25.047	1076.976	882.813
35.053	25.148	1075.880	882.331
36.067	25.207	1075.587	882.302
37.082	25.185	1074.787	881.461
38.096	25.229	1074.062	881.007
39.111	25.355	1073.715	881.262
40.126	25.508	1072.793	881.178
41.140	25.481	1071.574	879.964
42.155	25.151	1070.380	877.294
43.169	24.687	1068.954	873.776
44.184	24.756	1067.440	872.799
45.199	24.916	1066.818	872.997
46.213	24.720	1066.213	871.466
47.228	24.817	1065.214	871.044
48.242	24.984	1064.059	870.836
49.257	24.965	1063.576	870.273
50.271	25.173	1062.586	870.396
51.286	25.201	1062.289	870.210
52.301	25.263	1061.468	869.758
53.315	25.307	1060.373	868.999
54.330	25.236	1059.544	867.903
55.344	25.170	1058.753	866.855
56.359	25.189	1058.017	866.267
57.374	25.106	1057.627	865.474
58.388	25.106	1056.585	864.542
59.403	24.851	1055.768	862.571
60.417	24.857	1055.377	862.202
61.432	24.795	1054.133	860.814
62.447	24.761	1053.550	860.097
63.461	24.993	1053.061	860.737
64.476	24.987	1052.287	859.997
65.490	24.801	1051.466	858.358
66.505	24.958	1049.983	857.824
67.520	24.916	1049.421	857.089
68.534	24.870	1048.837	856.315
69.549	24.682	1048.156	854.783
70.563	24.489	1046.718	852.612
71.578	24.446	1045.834	851.613
72.593	24.462	1045.126	851.038
73.607	24.387	1043.711	849.454
74.622	24.343	1042.763	848.397
75.636	24.476	1042.493	848.737
76.651	24.703	1041.576	848.994
77.666	24.611	1041.011	848.019
78.680	24.571	1039.663	846.655
79.695	24.504	1039.400	846.051
80.709	24.544	1038.942	845.790
81.724	24.728	1038.047	845.858
82.739	24.840	1036.813	845.306
83.753	24.762	1036.166	844.335
84.768	24.948	1035.861	844.890
85.782	25.395	1035.282	846.449
86.797	25.568	1034.536	846.580
87.812	25.450	1034.004	845.514
88.826	25.410	1032.378	843.923
89.841	25.206	1032.208	842.754
90.855	25.411	1031.274	842.877
91.870	25.454	1030.383	842.277
92.884	25.436	1029.353	841.277
93.899	25.408	1028.549	840.413
94.914	25.249	1027.402	838.655
95.928	25.274	1027.109	838.460
96.943	25.431	1026.027	838.237
97.957	25.099	1024.785	835.599
98.972	24.788	1023.704	833.195
99.987	24.635	1022.648	831.550
101.001	24.714	1022.193	831.474
102.016	25.060	1021.651	832.570
103.030	25.115	1020.615	831.903
104.045	25.134	1019.171	830.743
105.060	25.006	1018.405	829.453
106.074	24.809	1017.142	827.439
107.089	24.899	1016.447	827.217
108.103	25.111	1016.234	827.949
109.118	25.285	1015.286	827.908
110.133	24.938	1013.962	825.157
111.147	24.936	1013.053	824.331
112.162	24.633	1012.189	822.165
113.176	24.581	1010.644	820.595
114.191	24.567	1010.400	820.261
115.206	24.919	1009.409	820.999
116.220	24.592	1008.117	818.378
117.235	24.299	1007.522	816.481
118.249	24.356	1007.293	816.483
119.264	24.362	1005.983	815.377
120.279	24.441	1004.920	814.807
121.293	24.433	1003.951	813.911
122.308	24.505	1003.390	813.713
123.322	24.636	1002.852	813.801
124.337	24.495	1001.875	812.296
125.352	24.370	1000.542	810.573
126.366	24.015	999.017	807.653
127.381	23.713	997.381	804.891
128.395	24.157	997.432	806.875
129.410	24.742	997.429	809.451
130.424	25.121	996.011	809.938
131.439	24.986	995.601	808.925
132.454	24.959	994.381	807.740
133.468	25.004	993.651	807.278
134.483	24.868	993.148	806.185
135.497	24.923	992.173	805.570
136.512	25.273	991.421	806.460
137.527	25.263	990.520	805.612
138.541	25.389	989.590	805.348
139.556	25.351	989.215	804.804
140.570	25.189	988.381	803.329
141.585	25.333	987.482	803.171
142.600	25.412	986.865	802.953
143.614	25.355	986.006	801.926
144.629	25.449	985.181	801.603
145.643	25.637	984.575	801.876
146.658	25.556	983.310	800.416
147.673	25.315	982.008	798.215
148.687	25.127	981.257	796.696
149.702	25.060	979.997	795.308
150.716	25.005	978.997	794.182
151.731	24.965	977.969	793.098
152.746	25.085	977.458	793.145
153.760	25.144	977.403	793.293
154.775	25.313	976.395	793.149
155.789	25.388	975.578	792.746
156.804	25.460	974.313	791.968
157.819	25.272	973.309	790.253
158.833	25.304	972.382	789.574
159.848	25.357	972.046	789.461
160.862	25.698	970.700	789.795
161.877	25.434	969.963	787.970
162.892	25.256	969.378	786.643
163.906	25.424	968.432	786.541
164.921	25.309	967.450	785.172
165.935	25.307	966.531	784.349
166.950	25.333	965.164	783.281
167.964	25.390	964.455	782.886
168.979	25.479	963.113	782.116
169.994	25.204	962.574	780.413
171.008	25.059	961.658	778.968
172.023	25.347	960.874	779.519
173.037	25.564	959.965	779.649
174.052	25.211	959.268	777.488
175.067	25.127	957.951	775.989
176.081	25.007	957.001	774.629
177.096	25.166	956.557	774.887
178.110	25.143	955.747	774.064
179.125	24.951	954.902	772.482
180.140	24.726	953.200	770.070
181.154	24.671	952.776	769.422
182.169	24.723	952.415	769.287
183.183	25.043	952.153	770.383
184.198	25.400	951.571	771.375
185.213	25.273	950.799	770.139
186.227	25.286	950.189	769.632
187.242	25.259	949.767	769.104
188.256	25.378	949.001	768.929
189.271	25.376	948.112	768.132
190.286	25.509	947.495	768.131
191.300	25.451	946.125	766.704
192.315	24.638	945.627	762.763
193.329	23.872	943.651	757.841
194.344	23.552	942.443	755.439
195.359	24.085	942.621	757.787
196.373	24.931	943.038	761.653
197.388	25.332	943.056	763.304
198.402	25.237	942.304	762.224
199.417	25.030	941.831	760.897
200.432	25.301	941.270	761.527
201.446	25.239	940.350	760.454
202.461	24.845	939.539	758.061
203.475	24.833	939.246	757.706
204.490	24.561	937.450	755.041
205.504	23.191	935.709	747.788
206.519	23.557	935.427	749.039
207.534	24.718	935.503	753.934
208.548	24.799	935.002	753.806
209.563	25.113	934.862	754.948
210.577	25.177	934.020	754.471
211.592	24.912	933.144	752.583
212.607	25.222	933.417	754.039
213.621	25.435	932.924	754.467
214.636	25.272	932.198	753.132
215.650	25.481	931.378	753.279
216.665	25.444	930.759	752.557
217.680	25.458	930.357	752.224
218.694	25.583	930.051	752.432
219.709	25.192	928.975	749.860
220.723	24.737	928.087	747.178
221.738	24.955	927.907	747.874
222.753	25.155	927.237	748.106
223.767	25.038	926.668	747.089
224.782	25.303	925.517	747.202
225.796	25.536	924.982	747.672
226.811	25.547	924.729	747.446
227.826	25.157	923.191	744.519
228.840	24.388	921.740	740.094
229.855	24.149	921.462	738.814
230.869	24.519	920.784	739.737
231.884	24.090	920.115	737.357
232.899	24.168	919.557	737.172
233.913	24.900	919.842	740.360
234.928	25.219	918.949	740.895
235.942	24.966	918.636	739.531
236.957	25.057	917.785	739.158
237.972	24.862	916.766	737.468
238.986	24.666	916.173	736.118
240.001	24.906	915.411	736.429
241.015	24.660	915.203	735.182
242.030	24.909	914.381	735.481
243.045	25.192	913.778	736.093
244.059	25.155	913.550	735.694
245.074	25.346	913.288	736.200
246.088	25.232	912.370	734.927
247.103	24.877	911.208	732.476
248.117	25.034	910.734	732.669
249.132	25.473	910.636	734.321
250.147	25.886	910.486	735.820
251.161	25.976	909.733	735.513
252.176	26.137	909.224	735.694
253.190	26.190	908.650	735.381
254.205	26.000	908.431	734.364
255.220	26.280	907.922	735.026
256.234	26.238	907.416	734.381
257.249	26.175	906.533	733.347
258.263	26.046	905.871	732.223
259.278	25.977	905.240	731.366
260.293	26.051	904.956	731.373
261.307	26.124	904.806	731.484
262.322	26.170	903.658	730.676
263.336	25.958	903.059	729.272
264.351	25.519	901.949	726.538
265.366	24.497	899.518	720.393
266.380	24.088	898.590	717.938
267.395	24.896	899.084	721.526
268.409	25.609	899.447	724.626
269.424	25.607	898.393	723.705
270.439	25.678	898.351	723.892
271.453	25.875	897.782	724.164
272.468	25.853	896.840	723.252
273.482	25.893	896.859	723.364
274.497	26.183	895.973	723.746
275.512	26.037	894.785	722.139
276.526	25.522	893.142	718.691
277.541	25.622	893.397	719.232
278.555	26.078	892.750	720.467
279.570	25.887	892.456	719.405
280.585	25.569	891.908	717.631
281.599	25.727	891.088	717.538
282.614	25.868	890.728	717.746
283.628	25.484	889.629	715.267
284.643	25.113	888.796	713.058
285.657	25.572	888.706	714.749
286.672	25.409	887.990	713.464
287.687	24.942	886.650	710.470
288.701	25.177	886.724	711.402
289.716	25.601	886.469	712.813
290.730	25.208	885.922	710.751
291.745	25.149	884.740	709.510
292.760	25.017	883.954	708.296
293.774	24.879	883.486	707.311
294.789	25.846	883.873	711.378
295.803	26.542	884.097	714.245
296.818	26.397	883.307	712.971
297.833	26.653	882.892	713.582
298.847	26.174	882.050	710.950
299.862	25.914	880.928	708.961
300.876	26.140	880.475	709.424
301.891	26.539	879.960	710.512
302.906	26.449	879.450	709.683
303.920	25.978	878.877	707.313
304.935	25.827	877.886	705.861
305.949	26.287	877.583	707.355
306.964	26.434	877.411	707.729
307.979	26.143	876.350	705.674
308.993	26.112	875.618	704.900
310.008	26.411	875.507	705.918
311.022	26.494	875.649	706.294
312.037	26.356	874.527	704.786
313.052	26.135	874.144	703.554
314.066	26.061	873.170	702.422
315.081	25.425	871.409	698.470
316.095	24.653	870.278	694.501
317.110	25.048	870.556	696.196
318.125	26.037	870.553	699.974
319.139	25.597	869.621	697.456
320.154	24.439	867.904	691.533
321.168	24.107	866.552	689.112
322.183	24.670	866.986	691.574
323.197	25.576	867.367	695.320
324.212	25.984	867.198	696.702
325.227	25.989	867.183	696.648
326.241	26.154	866.791	696.906
327.256	26.051	866.032	695.839
328.270	25.970	865.108	694.722
329.285	25.827	864.523	693.639
330.300	25.718	863.948	692.697
331.314	25.559	862.832	691.132
332.329	25.569	862.512	690.852
333.343	25.942	862.228	691.995
334.358	26.230	861.840	692.728
335.373	26.227	861.251	692.180
336.387	26.256	860.956	691.992
337.402	26.493	860.498	692.473
338.416	26.701	860.007	692.811
339.431	26.732	859.699	692.619
340.446	26.611	859.154	691.657
341.460	26.897	858.750	692.364
342.475	26.906	857.665	691.462
343.489	26.607	857.074	689.783
344.504	26.641	856.404	689.314
345.519	26.891	856.226	690.060
346.533	27.076	856.066	690.573
347.548	27.119	855.700	690.381
348.562	27.031	855.266	689.635
349.577	27.161	854.292	689.280
350.592	27.034	853.658	688.230
351.606	26.919	853.519	687.618
352.621	27.033	852.854	687.454
353.635	26.886	852.555	686.596
354.650	26.907	851.741	685.957
355.665	26.534	850.803	683.736
356.679	25.531	848.850	678.323
357.694	25.362	848.244	677.142
358.708	26.098	848.128	679.763
359.723	25.938	847.655	678.719
360.738	26.188	847.499	679.478
361.752	26.660	847.384	681.100
362.767	26.623	847.273	680.810
363.781	26.968	846.988	681.817
364.796	27.196	846.999	682.622
365.810	27.431	846.556	683.086
366.825	27.546	846.093	683.085
367.840	27.388	845.852	682.236
368.854	27.392	844.965	681.476
369.869	26.679	844.007	677.976
370.883	26.771	843.450	677.812
371.898	26.876	842.646	677.498
372.913	26.746	842.339	676.705
373.927	26.727	841.331	675.765
374.942	26.922	840.830	676.028
375.956	26.989	840.611	676.043
376.971	27.086	840.107	675.938
377.986	27.131	839.479	675.540
379.000	27.407	839.437	676.475
380.015	27.453	838.570	675.887
381.029	27.221	837.805	674.349
382.044	27.260	837.518	674.203
383.059	27.359	836.790	673.925
384.073	27.459	836.054	673.642
385.088	27.437	835.643	673.168
386.102	27.465	835.090	672.766
387.117	27.189	834.680	671.359
388.132	27.081	833.781	670.177
389.146	26.852	833.263	668.858
390.161	26.311	832.048	665.831
391.175	26.352	831.903	665.805
392.190	26.967	831.869	667.986
393.205	27.111	831.306	668.003
394.219	26.007	829.607	662.526
395.234	24.488	827.000	654.818
396.248	23.569	826.140	650.709
397.263	24.708	826.851	655.393
398.278	26.532	828.318	663.187
399.292	26.969	828.204	664.636
400.307	26.623	827.622	662.846
401.321	26.513	827.113	661.975
402.336	26.734	826.593	662.309
403.350	26.846	826.823	662.844
404.365	27.379	826.880	664.777
405.380	27.758	826.529	665.819
406.394	28.043	826.080	666.440
407.409	28.199	825.924	666.822
408.423	28.120	825.448	666.093
409.438	28.002	824.748	665.038
410.453	28.101	824.225	664.917
411.467	28.144	823.957	664.799
412.482	28.018	823.176	663.653
413.496	27.941	823.008	663.178
414.511	28.078	822.549	663.249
415.526	28.029	822.220	662.748
416.540	28.101	821.870	662.666
417.555	28.123	821.200	662.146
418.569	27.726	820.622	660.185
419.584	27.628	819.741	659.064
420.599	27.773	819.569	659.393
421.613	100.899	1276.642	1417.732
422.628	87.135	1343.215	1417.824
