DTS Sentinel unit serial number:	SN413079Multiplexer serial number:	ORYXHardware model number:	OX4-SRSoftware version number:	ORYX F/W v4.00 Oryx Data Collector v3.7.2.0data status	okinstallation	princeton_trtdifferential loss correction	single-endedforward channel	channel 3reverse channel	N/Adate	2019/09/12time	17:26:11forward acquisition time	60.00reverse acquisition time	0.00gamma	496.2192k internal	0.2314k external	0.2314temperature offset calibration	1.0093default loss term (dB/km)	0.3790temperature slope calibration	1.0000multiplexer offset coefficient	1.0000multiplexer slope coefficient	1.0000fibre end	0.00T internal ref (°C)	34.75T ext. ref 1 (°C)	2.89T ext. ref 2 (°C)	28.72length (m)	temperature (°C)	Stokes	anti-Stokes-747.200	-101.206	-0.166	-0.041
-746.185	-200.000	-0.028	-0.130
-745.171	3.535	0.105	0.078
-744.156	-200.000	-0.022	0.222
-743.142	-200.000	-0.048	-0.290
-742.127	88.058	0.141	0.159
-741.112	695.212	0.198	-0.526
-740.098	-200.000	0.028	-0.153
-739.083	80.754	-0.136	-0.149
-738.069	-26.586	0.199	0.118
-737.054	-127.957	0.127	0.018
-736.039	800.000	0.018	-0.078
-735.025	99.801	0.158	-0.185
-734.010	800.000	-0.049	-0.173
-732.996	800.000	-0.095	-0.410
-731.981	-200.000	0.015	-0.413
-730.966	-200.000	0.026	-0.186
-729.952	-200.000	-0.030	-0.183
-728.937	-159.664	-0.035	-0.002
-727.923	800.000	-0.090	-0.284
-726.908	-20.261	-0.224	-0.140
-725.894	424.747	0.044	0.097
-724.879	67.598	0.317	0.328
-723.864	147.963	-0.058	-0.079
-722.850	36.842	0.169	0.151
-721.835	140.341	-0.094	0.125
-720.821	-125.871	-0.245	0.037
-719.806	-10.485	0.337	-0.226
-718.791	-60.180	-0.101	0.044
-717.777	-171.366	0.345	-0.012
-716.762	4.075	-0.043	-0.032
-715.748	-5.572	0.110	-0.076
-714.733	-90.963	0.142	0.041
-713.718	800.000	-0.118	0.400
-712.704	800.000	-0.037	-0.114
-711.689	-200.000	-0.348	0.000
-710.675	114.788	-0.183	0.225
-709.660	248.053	-0.174	-0.298
-708.645	43.409	0.195	-0.180
-707.631	-148.290	0.241	0.020
-706.616	-200.000	0.147	0.000
-705.602	64.291	0.151	0.154
-704.587	-27.422	-0.207	0.122
-703.572	-200.000	0.041	-0.192
-702.558	-200.000	-0.027	-0.140
-701.543	56.724	0.080	-0.079
-700.529	-165.080	0.212	-0.010
-699.514	-82.793	0.273	-0.089
-698.499	-33.663	0.366	-0.204
-697.485	705.975	-0.079	-0.212
-696.470	-200.000	0.026	-0.116
-695.456	-129.422	-0.251	0.035
-694.441	20.587	-0.121	0.099
-693.426	-161.247	0.278	-0.015
-692.412	-200.000	-0.059	-0.363
-691.397	-181.691	-0.329	0.006
-690.383	-112.396	0.181	-0.037
-689.368	341.402	-0.052	0.102
-688.354	-117.414	0.230	-0.042
-687.339	-110.339	0.240	0.050
-686.324	-200.000	-0.066	-0.338
-685.310	5.175	0.214	0.160
-684.295	-200.000	0.039	-0.275
-683.281	8.656	0.241	-0.183
-682.266	92.810	0.184	-0.210
-681.251	-200.000	0.029	0.155
-680.237	-121.944	-0.266	-0.044
-679.222	-178.698	0.152	-0.004
-678.208	-1.402	0.091	-0.065
-677.193	-200.000	0.010	0.197
-676.178	-200.000	-0.014	0.167
-675.164	-32.093	-0.199	-0.112
-674.149	-152.274	-0.235	0.017
-673.135	-200.000	0.002	-0.098
-672.120	207.536	-0.149	-0.235
-671.105	-200.000	0.048	-0.352
-670.091	54.535	0.123	-0.120
-669.076	-43.188	-0.398	0.203
-668.062	-64.737	-0.178	0.073
-667.047	-144.184	-0.266	0.025
-666.032	264.168	0.085	0.150
-665.018	13.252	-0.044	0.035
-664.003	187.075	0.061	-0.092
-662.989	-200.000	0.056	0.249
-661.974	365.947	-0.184	0.374
-660.959	-141.947	-0.236	-0.024
-659.945	-2.675	-0.155	0.109
-658.930	82.757	0.253	-0.278
-657.916	15.886	-0.132	-0.105
-656.901	-20.144	0.188	0.117
-655.886	-102.240	0.094	0.023
-654.872	-64.463	-0.341	0.140
-653.857	-99.413	0.014	-0.004
-652.843	800.000	0.084	0.295
-651.828	240.088	0.091	-0.153
-650.814	198.491	0.020	0.031
-649.799	-104.168	0.219	-0.052
-648.784	614.638	-0.092	-0.232
-647.770	2.995	0.113	-0.083
-646.755	176.460	-0.223	0.327
-645.741	662.081	0.052	-0.134
-644.726	-65.838	-0.218	0.088
-643.711	69.156	-0.250	-0.260
-642.697	676.961	0.065	-0.170
-641.682	625.022	0.103	0.263
-640.668	3.790	0.131	-0.097
-639.653	-104.477	-0.164	-0.038
-638.638	-57.559	-0.107	-0.047
-637.624	800.000	0.018	-0.059
-636.609	122.072	0.276	0.347
-635.595	-39.765	-0.257	-0.136
-634.580	-200.000	0.023	-0.180
-633.565	-164.484	0.334	0.015
-632.551	12.670	-0.180	-0.140
-631.536	800.000	-0.059	-0.226
-630.522	58.043	0.006	0.006
-629.507	-143.621	0.209	-0.020
-628.492	-44.201	0.166	0.084
-627.478	180.504	0.206	0.305
-626.463	-200.000	0.062	-0.337
-625.449	-15.265	0.202	0.130
-624.434	-61.857	0.118	0.050
-623.419	800.000	-0.058	-0.167
-622.405	-200.000	-0.005	-0.323
-621.390	206.059	-0.042	0.065
-620.376	35.920	-0.093	-0.082
-619.361	34.421	0.213	-0.187
-618.346	-46.754	0.322	0.159
-617.332	-185.852	0.312	0.005
-616.317	-200.000	-0.099	-0.449
-615.303	-200.000	0.060	-0.327
-614.288	-12.834	0.263	-0.173
-613.273	438.502	0.190	0.419
-612.259	-10.616	-0.087	0.058
-611.244	-80.123	-0.245	0.083
-610.230	-200.000	-0.037	-0.473
-609.215	800.000	-0.044	0.183
-608.201	-59.191	0.081	0.035
-607.186	-200.000	0.024	0.202
-606.171	-81.666	0.307	0.101
-605.157	-0.732	0.056	0.040
-604.142	-200.000	-0.010	-0.194
-603.128	-90.210	-0.036	-0.010
-602.113	-57.390	0.340	-0.151
-601.098	-200.000	-0.049	0.251
-600.084	-178.204	-0.139	0.003
-599.069	-191.414	-0.154	0.002
-598.055	-11.204	0.300	0.199
-597.040	117.962	-0.089	-0.111
-596.025	243.605	0.037	0.063
-595.011	516.394	0.183	-0.431
-593.996	-102.058	0.056	0.014
-592.982	132.343	0.175	0.227
-591.967	-97.237	-0.111	0.029
-590.952	800.000	0.082	0.287
-589.938	800.000	0.049	0.155
-588.923	-6.495	-0.233	-0.160
-587.909	50.466	-0.084	0.080
-586.894	-200.000	0.042	-0.250
-585.879	-55.618	-0.102	0.046
-584.865	-111.670	0.415	-0.085
-583.850	37.455	-0.082	0.073
-582.836	-10.256	-0.160	0.107
-581.821	-180.964	0.207	0.004
-580.806	111.653	0.137	0.166
-579.792	-200.000	-0.013	-0.102
-578.777	-22.419	-0.147	-0.090
-577.763	-25.393	-0.114	0.068
-576.748	-128.914	-0.177	0.025
-575.733	-158.374	0.110	0.006
-574.719	-200.000	-0.007	-0.166
-573.704	-200.000	0.086	-0.400
-572.690	-200.000	0.072	-0.410
-571.675	-200.000	-0.002	0.106
-570.661	252.884	0.142	-0.244
-569.646	255.689	0.041	0.070
-568.631	-42.904	0.321	0.164
-567.617	188.581	-0.175	-0.264
-566.602	412.874	-0.102	-0.218
-565.588	-94.210	0.168	0.046
-564.573	68.390	-0.279	-0.288
-563.558	-28.838	0.134	-0.077
-562.544	-200.000	-0.002	-0.095
-561.529	-17.371	-0.053	0.034
-560.515	287.003	0.088	-0.159
-559.500	-60.026	-0.136	-0.058
-558.485	-6.590	-0.318	-0.218
-557.471	-130.411	0.366	0.050
-556.456	39.663	-0.285	0.257
-555.442	62.775	-0.104	-0.105
-554.427	-200.000	0.005	-0.402
-553.412	-16.016	-0.054	-0.035
-552.398	-200.000	0.007	-0.094
-551.383	23.318	-0.020	0.017
-550.369	-87.720	0.180	0.055
-549.354	89.912	0.121	0.135
-548.339	636.446	0.058	-0.148
-547.325	-143.792	-0.106	-0.010
-546.310	17.890	-0.096	0.077
-545.296	41.733	0.212	0.193
-544.281	279.271	0.101	-0.182
-543.266	597.270	0.166	-0.414
-542.252	-200.000	-0.128	0.000
-541.237	-72.850	-0.454	0.168
-540.223	-161.888	-0.109	0.006
-539.208	-153.833	0.223	-0.015
-538.193	101.060	-0.194	0.227
-537.179	-129.055	0.179	0.025
-536.164	46.047	0.040	-0.037
-535.150	-56.235	-0.108	-0.048
-534.135	75.790	0.094	-0.100
-533.121	800.000	-0.030	-0.122
-532.106	800.000	0.045	0.176
-531.091	94.206	-0.159	-0.182
-530.077	112.188	0.111	0.135
-529.062	121.337	0.158	-0.198
-528.048	-37.167	0.017	-0.009
-527.033	168.241	-0.170	-0.243
-526.018	800.000	-0.071	-0.277
-525.004	254.784	-0.136	0.234
-523.989	359.246	-0.022	0.045
-522.975	133.790	-0.157	-0.204
-521.960	-118.446	-0.630	-0.112
-520.945	-200.000	-0.003	0.138
-519.931	331.189	0.090	-0.175
-518.916	-147.417	-0.256	-0.022
-517.902	50.418	0.104	0.099
-516.887	206.380	-0.102	0.159
-515.872	214.136	-0.038	-0.061
-514.858	-1.635	-0.196	0.139
-513.843	-200.000	0.007	0.399
-512.829	-164.039	0.309	0.014
-511.814	-200.000	0.028	-0.226
-510.799	-195.007	-0.159	0.001
-509.785	66.386	0.112	-0.114
-508.770	-200.000	-0.022	0.210
-507.756	800.000	0.069	0.199
-506.741	150.322	-0.157	0.214
-505.726	-5.791	-0.171	-0.118
-504.712	-193.751	-0.284	0.002
-503.697	-22.463	0.184	-0.112
-502.683	116.255	-0.064	-0.079
-501.668	58.942	0.134	-0.133
-500.653	-115.179	-0.225	-0.043
-499.639	87.575	-0.118	0.131
-498.624	-67.777	-0.148	-0.058
-497.610	63.103	-0.252	0.253
-496.595	155.687	0.086	-0.119
-495.581	21.582	-0.169	-0.138
-494.566	-93.490	-0.146	0.041
-493.551	-97.609	0.159	0.041
-492.537	-23.706	-0.244	-0.147
-491.522	67.803	0.335	0.343
-490.508	47.702	-0.159	0.149
-489.493	-137.132	-0.293	0.034
-488.478	144.166	0.151	-0.202
-487.464	34.469	0.200	0.176
-486.449	-62.653	0.336	0.140
-485.435	-82.167	-0.273	0.089
-484.420	800.000	-0.076	-0.242
-483.405	-17.014	0.109	0.069
-482.391	-200.000	0.005	0.302
-481.376	-200.000	0.008	-0.091
-480.362	-184.189	-0.105	-0.002
-479.347	-82.194	-0.195	0.064
-478.332	133.478	-0.184	-0.239
-477.318	53.181	-0.213	0.205
-476.303	-60.890	-0.366	0.155
-475.289	-141.328	-0.281	-0.029
-474.274	4.752	0.294	-0.217
-473.259	-65.888	-0.113	0.045
-472.245	-200.000	-0.031	0.498
-471.230	-120.989	0.210	-0.035
-470.216	-55.270	-0.123	0.055
-469.201	-107.482	0.219	0.048
-468.186	141.422	0.069	0.092
-467.172	-200.000	-0.006	-0.131
-466.157	-115.055	0.139	-0.027
-465.143	-127.863	-0.296	0.043
-464.128	438.320	-0.069	0.151
-463.113	362.591	0.279	-0.561
-462.099	-100.924	-0.172	-0.042
-461.084	394.734	-0.060	-0.125
-460.070	-87.309	-0.200	-0.061
-459.055	3.083	-0.314	0.229
-458.040	144.582	0.165	0.221
-457.026	-168.348	-0.355	-0.014
-456.011	-32.807	0.164	-0.092
-454.997	-200.000	-0.032	0.180
-453.982	347.609	0.097	-0.192
-452.968	-200.000	0.009	-0.170
-451.953	42.757	-0.167	-0.153
-450.938	171.167	0.013	0.019
-449.924	165.094	0.136	0.192
-448.909	283.303	-0.130	-0.234
-447.895	-200.000	-0.018	-0.117
-446.880	-153.546	-0.067	-0.005
-445.865	131.680	0.073	0.094
-444.851	22.253	0.222	-0.181
-443.836	12.559	-0.554	-0.428
-442.822	-200.000	0.051	-0.330
-441.807	758.164	0.124	0.336
-440.792	678.375	0.157	-0.409
-439.778	-200.000	-0.015	0.316
-438.763	74.982	-0.092	-0.097
-437.749	-200.000	-0.002	-0.339
-436.734	180.717	-0.081	0.119
-435.719	800.000	-0.055	-0.224
-434.705	402.241	-0.076	0.159
-433.690	-77.099	0.101	-0.035
-432.676	144.496	0.092	0.123
-431.661	-62.379	0.279	-0.116
-430.646	-121.954	0.240	-0.040
-429.632	-55.851	-0.120	0.054
-428.617	-86.882	-0.213	0.065
-427.603	15.983	-0.057	-0.045
-426.588	87.026	0.252	-0.279
-425.573	117.247	-0.091	0.112
-424.559	-61.769	0.244	0.102
-423.544	235.639	-0.121	0.200
-422.530	-42.126	-0.125	0.064
-421.515	198.705	0.162	0.248
-420.500	68.000	0.276	0.283
-419.486	-200.000	-0.007	0.035
-418.471	-111.396	0.074	-0.015
-417.457	-0.872	0.327	0.232
-416.442	-200.000	0.048	0.305
-415.428	-158.616	-0.330	0.019
-414.413	432.859	0.113	-0.246
-413.398	-2.310	-0.115	-0.081
-412.384	-200.000	-0.101	0.558
-411.369	667.172	0.114	0.295
-410.355	-52.124	0.098	-0.045
-409.340	101.397	-0.092	0.107
-408.325	796.308	-0.025	0.068
-407.311	-109.826	0.272	-0.057
-406.296	-0.034	-0.198	-0.141
-405.282	-76.147	-0.178	-0.063
-404.267	180.798	-0.075	-0.111
-403.252	-66.279	0.298	0.119
-402.238	-96.127	-0.297	0.079
-401.223	800.000	-0.048	-0.133
-400.209	190.375	0.019	0.029
-399.194	242.999	-0.128	0.214
-398.179	-200.000	0.018	-0.143
-397.165	64.139	0.071	-0.071
-396.150	-28.748	-0.295	0.170
-395.136	800.000	0.062	0.267
-394.121	420.257	-0.186	0.397
-393.106	-10.947	-0.222	-0.146
-392.092	47.252	0.162	0.150
-391.077	-23.286	0.074	0.044
-390.063	99.996	-0.039	-0.045
-389.048	-151.354	-0.312	-0.023
-388.033	5.001	0.171	0.126
-387.019	-200.000	0.055	0.264
-386.004	800.000	0.027	0.107
-384.990	-8.996	0.148	-0.099
-383.975	191.277	-0.115	0.173
-382.960	-119.922	-0.267	-0.046
-381.946	-200.000	0.007	-0.304
-380.931	256.205	-0.274	-0.470
-379.917	-30.090	0.343	0.195
-378.902	67.529	0.252	0.257
-377.888	800.000	-0.055	-0.225
-376.873	25.001	0.194	0.160
-375.858	99.909	0.329	-0.381
-374.844	9.385	-0.458	-0.346
-373.829	-132.620	-0.324	-0.042
-372.815	217.155	0.166	-0.265
-371.800	-50.737	-0.479	0.225
-370.785	-200.000	-0.030	0.282
-369.771	-15.510	0.192	0.122
-368.756	-69.005	-0.239	-0.092
-367.742	800.000	0.103	0.448
-366.727	-200.000	-0.020	-0.266
-365.712	-84.522	-0.363	0.115
-364.698	-168.130	0.242	0.009
-363.683	108.186	-0.243	-0.290
-362.669	-79.149	0.096	0.033
-361.654	99.681	0.076	-0.088
-360.639	-131.841	0.262	-0.034
-359.625	-119.157	-0.046	0.008
-358.610	32.939	-0.254	0.220
-357.596	-200.000	-0.014	-0.093
-356.581	-200.000	-0.017	-0.192
-355.566	-169.228	0.279	-0.010
-354.552	-28.473	0.122	-0.070
-353.537	546.985	0.014	0.034
-352.523	120.706	0.035	0.044
-351.508	144.330	0.142	0.189
-350.493	-200.000	-0.045	-0.280
-349.479	-119.715	0.245	0.042
-348.464	146.560	0.119	0.160
-347.450	195.632	-0.167	0.253
-346.435	-200.000	0.029	0.280
-345.420	800.000	-0.015	0.060
-344.406	35.549	0.114	-0.100
-343.391	-121.733	-0.217	-0.036
-342.377	24.428	0.249	0.205
-341.362	117.622	0.086	0.105
-340.348	225.589	-0.088	-0.143
-339.333	-28.069	0.080	0.046
-338.318	-125.356	-0.441	-0.067
-337.304	-200.000	-0.019	0.191
-336.289	290.331	-0.069	-0.125
-335.275	-200.000	0.073	-0.484
-334.260	-83.661	0.317	-0.101
-333.245	800.000	-0.022	-0.095
-332.231	-62.019	-0.206	0.086
-331.216	-114.462	0.251	-0.048
-330.202	341.446	-0.158	0.308
-329.187	-200.000	0.017	0.192
-328.172	372.839	0.092	0.187
-327.158	77.879	0.150	0.160
-326.143	-156.146	-0.157	-0.010
-325.129	-100.436	-0.202	-0.050
-324.114	24.675	0.296	-0.244
-323.099	-49.689	0.361	0.171
-322.085	-200.000	0.056	0.285
-321.070	-13.181	-0.183	0.119
-320.056	-200.000	0.003	0.077
-319.041	-116.311	-0.181	0.033
-318.026	-200.000	-0.005	0.265
-317.012	-31.582	0.143	-0.080
-315.997	-200.000	-0.027	-0.358
-314.983	-200.000	-0.066	-0.458
-313.968	-4.397	0.162	-0.111
-312.953	27.026	-0.475	0.397
-311.939	-99.489	0.109	-0.027
-310.924	430.453	0.116	-0.250
-309.910	-9.265	-0.018	-0.012
-308.895	475.804	0.057	0.129
-307.880	302.589	-0.082	-0.152
-306.866	-71.819	0.375	0.139
-305.851	-200.000	-0.006	-0.053
-304.837	264.647	0.056	-0.097
-303.822	-90.721	0.153	0.044
-302.807	-87.801	0.277	0.083
-301.793	-127.970	0.194	0.028
-300.778	56.506	-0.207	0.201
-299.764	800.000	0.055	-0.161
-298.749	-200.000	-0.016	-0.148
-297.735	800.000	0.044	0.126
-296.720	-200.000	0.018	0.301
-295.705	-200.000	-0.012	0.295
-294.691	281.941	-0.172	0.307
-293.676	-200.000	0.080	0.422
-292.662	-179.901	-0.102	0.002
-291.647	385.327	0.076	0.157
-290.632	-107.164	0.239	-0.052
-289.618	-120.922	0.221	0.037
-288.603	-200.000	-0.012	0.433
-287.589	156.335	0.048	-0.065
-286.574	455.909	-0.033	0.073
-285.559	-10.780	0.008	-0.005
-284.545	-53.196	0.318	0.146
-283.530	-159.449	0.403	-0.022
-282.516	515.346	0.155	0.361
-281.501	-81.624	0.089	-0.029
-280.486	500.416	-0.192	-0.441
-279.472	-129.334	0.104	0.014
-278.457	93.522	0.093	-0.105
-277.443	-200.000	-0.005	-0.113
-276.428	46.873	0.143	-0.133
-275.413	-131.854	-0.094	0.012
-274.399	-15.233	-0.275	0.175
-273.384	-200.000	0.017	-0.201
-272.370	378.781	-0.102	-0.207
-271.355	-92.247	-0.157	-0.044
-270.340	800.000	-0.045	0.126
-269.326	-193.436	0.297	0.003
-268.311	-200.000	-0.004	-0.052
-267.297	298.486	-0.113	-0.207
-266.282	800.000	0.071	-0.253
-265.267	154.396	0.050	0.068
-264.253	-51.933	0.239	0.111
-263.238	-44.779	-0.033	0.016
-262.224	23.351	-0.069	0.056
-261.209	800.000	0.044	0.127
-260.195	-200.000	0.063	-0.276
-259.180	800.000	-0.109	-0.388
-258.165	176.089	-0.093	-0.135
-257.151	-200.000	-0.009	-0.039
-256.136	-71.744	0.317	0.118
-255.122	-99.241	-0.304	0.076
-254.107	-35.038	0.417	-0.226
-253.092	-200.000	-0.012	0.072
-252.078	-47.488	-0.094	-0.046
-251.063	27.476	0.121	0.101
-250.049	-200.000	0.004	0.156
-249.034	-200.000	0.066	0.423
-248.019	120.972	-0.070	0.087
-247.005	-200.000	-0.013	-0.228
-245.990	800.000	0.066	0.230
-244.976	-200.000	0.008	0.082
-243.961	242.134	-0.155	0.258
-242.946	-49.641	-0.251	-0.119
-241.932	453.050	-0.125	-0.276
-240.917	-132.361	-0.263	0.034
-239.903	156.687	0.012	-0.017
-238.888	-52.792	-0.201	0.092
-237.873	-77.895	-0.402	-0.138
-236.859	800.000	0.051	-0.166
-235.844	-200.000	-0.005	-0.111
-234.830	-200.000	0.026	-0.194
-233.815	-66.947	-0.293	0.115
-232.800	-12.848	0.223	0.144
-231.786	-161.079	-0.116	0.006
-230.771	-72.358	-0.427	-0.157
-229.757	3.495	-0.459	0.332
-228.742	-200.000	0.007	0.215
-227.727	110.420	-0.041	0.049
-226.713	65.365	-0.185	0.186
-225.698	273.394	-0.161	-0.282
-224.684	17.498	-0.301	-0.238
-223.669	-145.475	-0.180	-0.016
-222.655	150.772	-0.143	0.193
-221.640	66.447	-0.100	-0.100
-220.625	-200.000	0.001	-0.042
-219.611	37.173	-0.125	0.110
-218.596	-139.753	-0.270	-0.028
-217.582	135.294	-0.080	0.104
-216.567	280.712	0.073	-0.130
-215.552	-129.614	0.413	0.057
-214.538	146.631	0.220	0.293
-213.523	800.000	-0.021	-0.066
-212.509	-130.380	0.082	0.011
-211.494	-200.000	0.092	-0.406
-210.479	-200.000	-0.043	-0.285
-209.465	-14.638	-0.075	0.048
-208.450	800.000	-0.008	-0.023
-207.436	122.139	-0.028	-0.035
-206.421	26.937	-0.168	-0.140
-205.406	-200.000	-0.041	0.300
-204.392	-1.966	0.101	0.070
-203.377	-44.636	0.488	-0.242
-202.363	157.774	-0.020	0.028
-201.348	-165.862	0.548	-0.023
-200.333	68.381	-0.071	0.072
-199.319	800.000	-0.015	-0.050
-198.304	-36.499	0.352	0.188
-197.290	-10.516	-0.267	0.176
-196.275	-72.662	0.177	-0.065
-195.260	93.079	0.156	-0.175
-194.246	-32.562	0.260	0.144
-193.231	140.435	-0.380	0.497
-192.217	162.160	-0.184	-0.255
-191.202	71.000	-0.210	0.216
-190.187	-17.177	0.167	-0.104
-189.173	46.844	-0.054	-0.050
-188.158	-200.000	-0.006	-0.156
-187.144	-20.162	0.291	0.178
-186.129	395.586	-0.125	-0.259
-185.114	37.502	-0.145	0.127
-184.100	32.805	-0.141	0.121
-183.085	-79.255	0.175	0.059
-182.071	524.581	-0.043	0.100
-181.056	115.697	-0.073	-0.089
-180.042	-148.576	0.163	-0.013
-179.027	180.577	0.252	-0.366
-178.012	-45.809	0.240	-0.118
-176.998	285.047	-0.108	0.192
-175.983	-14.709	0.145	0.092
-174.969	242.775	0.129	-0.215
-173.954	99.100	0.115	-0.132
-172.939	35.797	0.038	0.033
-171.925	-49.138	0.158	-0.075
-170.910	186.531	0.087	-0.129
-169.896	256.262	0.007	0.012
-168.881	20.840	0.125	-0.100
-167.866	549.546	0.110	0.262
-166.852	191.010	0.068	0.101
-165.837	77.015	-0.144	0.152
-164.823	561.656	-0.143	-0.342
-163.808	-200.000	0.004	0.350
-162.793	17.542	0.189	0.149
-161.779	132.244	-0.092	0.118
-160.764	172.910	0.045	-0.064
-159.750	65.340	0.068	-0.068
-158.735	278.015	-0.116	-0.205
-157.720	-200.000	-0.041	0.373
-156.706	216.406	-0.113	0.178
-155.691	-200.000	-0.230	0.001
-154.677	-200.000	-0.060	-0.286
-153.662	-119.259	0.231	-0.040
-152.647	26.453	0.169	0.140
-151.633	-200.000	0.005	0.194
-150.618	36.069	-0.188	0.164
-149.604	31.216	-0.229	0.195
-148.589	-108.892	-0.161	-0.034
-147.574	-85.855	0.032	0.010
-146.560	-117.337	0.177	-0.032
-145.545	-32.706	0.065	0.036
-144.531	-95.781	0.289	0.076
-143.516	800.000	0.063	-0.178
-142.502	20.701	-0.287	-0.230
-141.487	800.000	-0.013	0.048
-140.472	13.363	0.290	-0.222
-139.458	-200.000	-0.012	-0.075
-138.443	-22.307	0.241	-0.145
-137.429	-200.000	0.007	-0.225
-136.414	163.370	0.113	-0.157
-135.399	-200.000	-0.033	0.220
-134.385	800.000	0.042	-0.119
-133.370	-160.993	0.091	-0.005
-132.356	800.000	0.104	0.299
-131.341	-8.048	0.196	-0.130
-130.326	-83.578	0.161	0.051
-129.312	800.000	0.037	0.103
-128.297	-110.108	0.085	-0.018
-127.283	800.000	-0.049	0.153
-126.268	100.570	0.094	-0.108
-125.253	52.734	0.091	0.086
-124.239	-76.005	0.133	-0.046
-123.224	-79.984	0.205	0.068
-122.210	-200.000	-0.008	-0.120
-121.195	-200.000	-0.039	-0.426
-120.180	466.736	0.079	-0.174
-119.166	-69.504	0.101	0.038
-118.151	-66.753	0.160	0.063
-117.137	800.000	0.069	0.252
-116.122	800.000	-0.007	-0.018
-115.107	-200.000	-0.011	-0.139
-114.093	-120.706	0.438	0.073
-113.078	239.958	-0.128	-0.210
-112.064	242.697	-0.065	-0.108
-111.049	218.053	0.082	0.130
-110.034	-96.014	-0.157	-0.041
-109.020	800.000	-0.061	0.182
-108.005	-36.601	0.206	-0.109
-106.991	-200.000	0.017	0.118
-105.976	-134.825	0.336	0.040
-104.962	-12.850	0.043	0.027
-103.947	207.581	-0.148	-0.228
-102.932	-83.486	-0.207	0.065
-101.918	-14.164	-0.183	-0.117
-100.903	194.259	-0.043	0.064
-99.889	17.036	0.088	0.069
-98.874	93.069	0.065	0.073
-97.859	800.000	0.067	0.230
-96.845	-200.000	-0.027	-0.200
-95.830	-5.820	-0.203	-0.137
-94.816	-153.300	-0.245	-0.017
-93.801	-200.000	-0.030	-0.404
-92.786	-174.816	0.310	0.009
-91.772	-200.000	-0.012	-0.068
-90.757	-200.000	0.010	0.186
-89.743	-126.482	-0.147	0.022
-88.728	291.364	-0.069	-0.125
-87.713	-42.794	0.220	0.110
-86.699	125.055	0.057	0.071
-85.684	-120.205	-0.180	-0.030
-84.670	-87.753	-0.167	0.050
-83.655	1.729	0.261	0.186
-82.640	-85.272	-0.373	0.115
-81.626	27.286	-0.227	0.188
-80.611	-4.778	0.309	0.210
-79.597	77.149	0.110	0.115
-78.582	-200.000	-0.027	-0.384
-77.567	237.544	0.111	0.182
-76.553	-200.000	-0.052	0.527
-75.538	657.160	-0.085	0.216
-74.524	-200.000	0.029	-0.188
-73.509	698.841	-0.100	-0.260
-72.494	107.846	0.211	-0.248
-71.480	202.722	0.082	0.126
-70.465	28.305	0.198	-0.165
-69.451	197.104	0.091	-0.138
-68.436	118.766	-0.181	-0.220
-67.422	-200.000	0.006	0.052
-66.407	-87.447	0.080	-0.024
-65.392	-200.000	0.021	0.227
-64.378	16.032	0.080	0.062
-63.363	-200.000	0.016	-0.166
-62.349	-50.286	-0.088	0.041
-61.334	30.422	-0.863	-0.728
-60.319	50.214	0.510	0.475
-59.305	-200.000	-0.143	-1.013
-58.290	505.410	0.555	1.268
-57.276	347.663	0.808	1.572
-56.261	-200.000	97.477	587.512
-55.246	560.739	1381.883	3294.879
-54.232	155.157	2573.881	3493.149
-53.217	114.434	2173.101	2611.115
-52.203	45.153	1713.100	1557.716
-51.188	37.885	1525.127	1337.132
-50.173	35.388	1498.526	1296.901
-49.159	55.255	1548.692	1477.222
-48.144	58.425	1568.633	1517.956
-47.130	38.243	1523.511	1337.953
-46.115	35.085	1507.901	1302.747
-45.100	34.745	1505.158	1298.018
-44.086	34.757	1503.135	1296.305
-43.071	34.803	1500.960	1294.686
-42.057	34.739	1499.464	1292.913
-41.042	34.726	1498.308	1291.777
-40.027	34.754	1496.822	1290.635
-39.013	34.722	1495.036	1288.829
-37.998	34.648	1494.320	1287.658
-36.984	34.820	1492.698	1287.366
-35.969	34.727	1491.597	1285.745
-34.954	34.754	1490.502	1284.932
-33.940	34.726	1488.882	1283.296
-32.925	34.808	1487.533	1282.632
-31.911	34.764	1486.638	1281.514
-30.896	34.780	1485.000	1280.156
-29.881	34.758	1483.022	1278.257
-28.867	34.855	1482.051	1278.015
-27.852	34.838	1480.452	1276.472
-26.838	34.807	1479.083	1275.031
-25.823	34.811	1477.773	1273.879
-24.809	34.791	1476.496	1272.596
-23.794	34.736	1475.185	1271.050
-22.779	34.764	1473.779	1269.974
-21.765	34.760	1473.026	1269.246
-20.750	34.786	1471.376	1267.948
-19.736	34.666	1471.197	1266.951
-18.721	34.838	1469.661	1266.716
-17.706	34.758	1468.530	1265.160
-16.692	34.754	1467.166	1263.906
-15.677	34.763	1466.268	1263.144
-14.663	34.776	1465.630	1262.628
-13.648	34.707	1464.730	1261.350
-12.633	34.802	1463.447	1260.823
-11.619	34.868	1462.499	1260.388
-10.604	34.715	1461.563	1258.523
-9.590	34.683	1461.023	1257.799
-8.575	34.679	1459.964	1256.810
-7.560	34.760	1459.031	1256.488
-6.546	34.642	1458.760	1255.432
-5.531	34.683	1457.484	1254.554
-4.517	34.735	1456.260	1253.794
-3.502	34.717	1455.404	1252.886
-2.487	34.680	1454.528	1251.841
-1.473	34.680	1453.852	1251.208
-0.458	34.737	1452.007	1249.942
0.556	35.567	1442.369	1237.443
1.571	32.125	1415.677	1192.624
2.586	27.984	1354.827	1116.029
3.600	25.944	1272.964	1036.786
4.615	24.327	1226.938	990.240
5.629	20.566	1170.462	924.616
6.644	11.324	1084.495	810.876
7.659	4.216	1042.959	745.663
8.673	3.161	1037.660	736.760
9.688	2.856	1034.139	732.737
10.702	2.746	1032.782	731.186
11.717	2.818	1031.149	730.310
12.731	5.876	1034.394	747.121
13.746	15.323	1047.457	801.857
14.761	23.636	1058.174	849.971
15.775	26.051	1061.246	863.941
16.790	26.514	1060.960	865.851
17.804	26.355	1060.260	864.441
18.819	26.278	1059.300	863.214
19.834	26.461	1058.649	863.479
20.848	26.480	1058.401	863.293
21.863	26.557	1058.195	863.416
22.877	26.573	1057.722	863.032
23.892	26.502	1056.878	861.926
24.907	26.467	1056.098	861.046
25.921	26.380	1055.413	860.001
26.936	26.472	1054.224	859.390
27.950	26.524	1053.357	858.857
28.965	26.420	1052.463	857.556
29.980	26.279	1051.086	855.692
30.994	26.356	1049.580	854.755
32.009	26.383	1048.908	854.259
33.023	26.690	1048.404	855.222
34.038	26.491	1047.323	853.328
35.053	26.367	1046.336	851.862
36.067	26.464	1045.868	851.865
37.082	26.570	1045.290	851.817
38.096	26.608	1043.841	850.737
39.111	26.715	1043.826	851.153
40.126	26.866	1042.969	851.090
41.140	26.707	1041.674	849.209
42.155	26.427	1040.144	846.579
43.169	26.121	1039.411	844.475
44.184	26.169	1038.092	843.555
45.199	26.130	1037.138	842.522
46.213	26.068	1036.635	841.748
47.228	26.086	1035.344	840.708
48.242	26.276	1034.603	840.916
49.257	26.431	1033.657	840.794
50.271	26.408	1033.193	840.237
51.286	26.443	1033.401	840.493
52.301	26.643	1032.071	840.264
53.315	26.546	1031.397	839.192
54.330	26.500	1030.430	838.118
55.344	26.374	1029.968	837.084
56.359	26.400	1028.769	836.157
57.374	26.549	1027.948	836.106
58.388	26.242	1027.273	834.066
59.403	26.120	1026.608	832.890
60.417	26.149	1026.012	832.463
61.432	26.123	1025.058	831.496
62.447	25.977	1024.794	830.536
63.461	26.135	1024.581	831.019
64.476	26.184	1023.192	830.043
65.490	26.294	1021.843	829.382
66.505	26.037	1021.361	827.734
67.520	26.103	1020.503	827.270
68.534	26.269	1019.887	827.458
69.549	26.026	1018.866	825.446
70.563	25.793	1017.683	823.348
71.578	25.756	1016.410	822.078
72.593	25.774	1015.598	821.428
73.607	25.677	1014.507	820.031
74.622	25.670	1013.719	819.293
75.636	25.929	1013.073	819.873
76.651	25.970	1012.738	819.720
77.666	25.895	1011.773	818.524
78.680	25.829	1010.649	817.240
79.695	25.804	1010.386	816.844
80.709	25.918	1009.776	816.793
81.724	26.143	1009.031	817.139
82.739	26.072	1007.999	815.911
83.753	26.091	1007.450	815.478
84.768	26.345	1007.138	816.300
85.782	26.607	1006.686	817.045
86.797	26.867	1006.229	817.774
87.812	26.823	1004.882	816.408
88.826	26.536	1004.349	814.614
89.841	26.646	1003.117	814.034
90.855	26.767	1002.372	813.902
91.870	26.903	1001.614	813.825
92.884	26.677	1001.509	812.654
93.899	26.627	1000.250	811.336
94.914	26.625	999.249	810.442
95.928	26.603	998.828	809.930
96.943	26.641	998.048	809.398
97.957	26.465	996.430	807.229
98.972	26.195	995.409	805.126
99.987	25.934	994.585	803.225
101.001	26.049	994.241	803.389
102.016	26.362	993.594	804.189
103.030	26.501	992.775	804.073
104.045	26.362	992.005	802.760
105.060	26.290	990.720	801.328
106.074	26.023	989.508	799.094
107.089	26.149	989.108	799.261
108.103	26.547	988.710	800.627
109.118	26.524	987.715	799.648
110.133	26.195	986.988	797.537
111.147	26.276	985.536	796.653
112.162	26.095	984.592	795.018
113.176	25.825	983.668	793.017
114.191	26.021	983.280	793.496
115.206	26.101	982.202	792.906
116.220	25.852	980.653	790.493
117.235	25.658	979.975	789.026
118.249	25.875	979.524	789.542
119.264	25.949	978.450	788.935
120.279	25.755	977.484	787.235
121.293	25.739	977.336	786.976
122.308	25.888	976.529	786.906
123.322	25.784	975.753	785.760
124.337	25.696	974.905	784.623
125.352	25.621	973.523	783.114
126.366	25.447	971.609	780.752
127.381	25.032	970.508	777.994
128.395	25.446	970.693	779.872
129.410	26.175	969.923	782.345
130.424	26.363	969.035	782.372
131.439	26.240	968.573	781.397
132.454	26.234	967.323	780.293
133.468	26.366	966.651	780.254
134.483	26.322	965.747	779.267
135.497	26.369	965.163	778.929
136.512	26.565	964.638	779.280
137.527	26.613	963.796	778.735
138.541	26.574	963.389	778.170
139.556	26.717	962.476	777.976
140.570	26.572	961.834	776.769
141.585	26.691	960.899	776.455
142.600	26.603	960.464	775.657
143.614	26.496	959.276	774.171
144.629	26.676	958.783	774.476
145.643	26.978	957.840	774.934
146.658	26.820	957.131	773.616
147.673	26.776	955.565	772.096
148.687	26.539	954.655	770.286
149.702	26.458	953.667	769.077
150.716	26.326	952.309	767.353
151.731	26.375	951.342	766.711
152.746	26.413	951.326	766.793
153.760	26.573	950.524	766.757
154.775	26.686	949.832	766.607
155.789	26.817	949.163	766.554
156.804	26.784	947.718	765.181
157.819	26.734	946.535	763.945
158.833	26.490	946.716	762.994
159.848	26.876	945.572	763.631
160.862	26.923	944.597	762.974
161.877	26.831	943.722	761.813
162.892	26.569	943.168	760.198
163.906	26.685	942.412	760.010
164.921	26.822	940.956	759.341
165.935	26.733	939.688	757.877
166.950	26.728	939.021	757.251
167.964	26.867	938.051	756.985
168.979	26.743	937.094	755.629
169.994	26.548	936.300	754.111
171.008	26.452	935.333	752.865
172.023	26.665	934.926	753.354
173.037	26.840	933.958	753.237
174.052	26.530	932.994	751.107
175.067	26.432	931.940	749.785
176.081	26.333	931.237	748.740
177.096	26.470	930.279	748.470
178.110	26.599	929.482	748.296
179.125	26.251	928.762	746.214
180.140	26.067	927.716	744.549
181.154	26.125	926.670	743.884
182.169	26.217	926.411	743.987
183.183	26.471	926.018	744.651
184.198	26.706	925.950	745.497
185.213	26.622	925.163	744.453
186.227	26.461	924.786	743.423
187.242	26.491	924.537	743.282
188.256	26.786	923.537	743.621
189.271	26.781	922.722	742.877
190.286	26.901	922.068	742.776
191.300	26.600	921.083	740.686
192.315	26.159	919.619	737.644
193.329	25.328	917.936	732.836
194.344	24.799	917.469	730.241
195.359	25.600	917.337	733.337
196.373	26.415	917.838	736.997
197.388	26.811	917.600	738.353
198.402	26.739	916.837	737.382
199.417	26.517	916.520	736.156
200.432	26.661	916.171	736.399
201.446	26.569	915.212	735.189
202.461	26.286	914.374	733.301
203.475	26.260	914.331	733.098
204.490	25.776	913.022	730.023
205.504	24.796	910.631	724.082
206.519	25.044	910.575	724.976
207.534	25.995	911.100	729.175
208.548	26.242	910.422	729.569
209.563	26.533	910.032	730.367
210.577	26.626	909.066	729.901
211.592	26.354	908.270	728.101
212.607	26.685	908.455	729.517
213.621	26.944	907.560	729.777
214.636	26.812	907.330	728.997
215.650	26.859	907.004	728.859
216.665	26.766	905.763	727.424
217.680	26.790	905.675	727.384
218.694	26.881	905.383	727.452
219.709	26.516	904.189	724.966
220.723	26.112	903.292	722.565
221.738	26.351	902.992	723.216
222.753	26.631	902.458	723.845
223.767	26.541	901.740	722.845
224.782	26.636	900.957	722.533
225.796	26.864	900.487	722.999
226.811	26.959	899.825	722.782
227.826	26.470	898.508	719.717
228.840	25.583	897.681	715.462
229.855	25.581	896.933	714.795
230.869	26.006	896.568	716.131
231.884	25.649	895.550	713.837
232.899	25.587	894.638	712.801
233.913	26.378	895.142	716.275
234.928	26.694	894.394	716.862
235.942	26.514	893.797	715.609
236.957	26.460	893.464	715.067
237.972	26.232	892.581	713.398
238.986	26.134	891.386	711.993
240.001	26.299	891.225	712.450
241.015	26.148	890.672	711.351
242.030	26.296	890.146	711.449
243.045	26.528	889.653	711.906
244.059	26.571	888.944	711.446
245.074	26.838	888.505	712.079
246.088	26.580	887.921	710.536
247.103	26.405	886.798	708.890
248.117	26.273	886.431	708.017
249.132	26.890	886.573	710.482
250.147	27.261	886.140	711.525
251.161	27.363	885.761	711.556
252.176	27.613	885.516	712.274
253.190	27.628	884.569	711.508
254.205	27.610	884.205	711.082
255.220	27.694	884.062	711.232
256.234	27.626	883.547	710.489
257.249	27.624	882.743	709.771
258.263	27.460	881.807	708.318
259.278	27.436	881.203	707.678
260.293	27.620	880.768	707.980
261.307	27.672	880.116	707.595
262.322	27.546	879.683	706.696
263.336	27.312	879.166	705.309
264.351	26.962	877.739	702.748
265.366	25.840	875.698	696.717
266.380	25.336	875.058	694.196
267.395	26.302	875.144	697.936
268.409	27.257	875.441	701.799
269.424	27.063	874.484	700.224
270.439	27.174	874.428	700.545
271.453	27.182	874.078	700.232
272.468	27.234	872.973	699.483
273.482	27.485	872.664	700.139
274.497	27.557	872.160	699.950
275.512	27.525	871.111	698.923
276.526	26.763	870.162	695.178
277.541	27.086	869.389	695.737
278.555	27.529	869.300	697.301
279.570	27.258	868.969	695.937
280.585	27.046	868.028	694.312
281.599	27.131	867.132	693.856
282.614	27.290	866.769	694.114
283.628	26.777	865.654	691.202
284.643	26.468	864.996	689.438
285.657	26.656	865.144	690.213
286.672	26.603	864.617	689.528
287.687	26.245	863.269	687.031
288.701	26.671	863.180	688.521
289.716	26.950	863.241	689.567
290.730	26.535	862.372	687.236
291.745	26.564	861.409	686.520
292.760	26.278	860.597	684.726
293.774	26.152	859.975	683.693
294.789	27.255	860.175	687.968
295.803	27.892	860.306	690.420
296.818	27.749	860.451	689.935
297.833	27.904	859.442	689.651
298.847	27.611	858.745	687.926
299.862	27.271	857.624	685.685
300.876	27.463	857.385	686.154
301.891	27.871	856.829	687.186
302.906	27.952	856.460	687.133
303.920	27.433	855.173	684.093
304.935	27.356	854.522	683.220
305.949	27.698	854.388	684.338
306.964	27.813	853.875	684.296
307.979	27.537	853.488	682.891
308.993	27.391	853.134	682.002
310.008	27.824	852.503	683.057
311.022	28.219	851.936	684.018
312.037	27.856	851.452	682.212
313.052	27.560	850.936	680.633
314.066	27.486	850.052	679.589
315.081	26.846	848.702	676.065
316.095	26.096	847.039	671.889
317.110	26.596	847.860	674.345
318.125	27.566	847.698	677.766
319.139	26.956	846.899	674.802
320.154	25.832	844.990	669.047
321.168	25.363	843.867	666.359
322.183	26.124	844.542	669.660
323.197	27.009	844.871	673.143
324.212	27.416	844.248	674.096
325.227	27.484	844.301	674.328
326.241	27.588	844.173	674.552
327.256	27.576	842.911	673.440
328.270	27.261	842.725	672.069
329.285	27.161	842.279	671.282
330.300	27.188	841.022	670.320
331.314	26.803	840.404	668.349
332.329	26.992	839.679	668.410
333.343	27.421	839.278	669.609
334.358	27.899	838.676	670.826
335.373	27.629	838.733	669.823
336.387	27.647	838.519	669.658
337.402	27.799	838.168	669.875
338.416	28.135	837.387	670.425
339.431	28.070	836.746	669.614
340.446	28.110	836.360	669.392
341.460	28.240	836.004	669.521
342.475	28.352	835.358	669.356
343.489	28.070	834.478	667.561
344.504	28.019	834.309	667.183
345.519	28.362	833.751	667.926
346.533	28.606	833.582	668.621
347.548	28.767	832.554	668.322
348.562	28.638	832.549	667.792
349.577	28.487	832.032	666.769
350.592	28.485	831.341	666.147
351.606	28.411	830.663	665.277
352.621	28.448	830.464	665.192
353.635	28.329	829.773	664.152
354.650	28.259	829.417	663.553
355.665	27.903	828.346	661.349
356.679	27.017	826.549	656.651
357.694	26.712	826.518	655.467
358.708	27.346	826.619	657.781
359.723	27.318	825.848	657.007
360.738	27.562	825.727	657.735
361.752	28.074	825.564	659.396
362.767	28.064	825.312	659.097
363.781	28.512	824.779	660.226
364.796	28.805	825.042	661.434
365.810	28.697	824.973	660.931
366.825	28.927	823.953	660.883
367.840	28.925	823.577	660.517
368.854	28.755	823.167	659.516
369.869	28.442	822.217	657.574
370.883	28.163	821.286	655.772
371.898	28.243	820.974	655.754
372.913	28.146	819.985	654.558
373.927	28.275	819.458	654.540
374.942	28.378	819.143	654.597
375.956	28.547	818.314	654.483
376.971	28.579	817.969	654.263
377.986	28.749	817.221	654.209
379.000	28.888	817.031	654.496
380.015	28.810	816.749	653.935
381.029	28.632	816.144	652.760
382.044	28.708	815.195	652.211
383.059	28.805	814.946	652.301
384.073	29.002	814.482	652.571
385.088	28.931	813.889	651.785
386.102	28.630	813.575	650.410
387.117	28.703	812.772	649.968
388.132	28.585	812.119	648.970
389.146	28.064	811.827	646.840
390.161	27.730	810.583	644.609
391.175	27.749	810.307	644.399
392.190	28.433	810.357	646.799
393.205	28.465	809.715	646.342
394.219	27.439	807.964	641.275
395.234	25.749	805.565	633.373
396.248	25.116	804.357	630.145
397.263	26.092	805.586	634.487
398.278	27.874	806.609	641.499
399.292	28.336	806.929	643.323
400.307	28.097	806.441	642.038
401.321	28.002	805.610	640.985
402.336	28.131	805.111	640.985
403.350	28.671	805.057	642.774
404.365	28.810	805.235	643.346
405.380	29.140	804.997	644.256
406.394	29.551	804.588	645.308
407.409	29.570	804.753	645.450
408.423	29.477	804.181	644.607
409.438	29.341	803.615	643.622
410.453	29.491	803.157	643.721
411.467	29.643	802.491	643.661
412.482	29.544	802.023	642.884
413.496	29.426	801.523	642.017
414.511	29.623	801.439	642.578
415.526	29.584	800.549	641.671
416.540	29.668	800.367	641.762
417.555	29.429	799.943	640.534
418.569	29.233	799.198	639.199
419.584	29.096	798.530	638.134
420.599	29.321	797.821	638.290
421.613	109.007	1283.125	1445.132
422.628	93.888	1353.852	1445.250
