DTS Sentinel unit serial number:	SN413079Multiplexer serial number:	ORYXHardware model number:	OX4-SRSoftware version number:	ORYX F/W v4.00 Oryx Data Collector v3.7.2.0data status	okinstallation	princeton_trtdifferential loss correction	single-endedforward channel	channel 3reverse channel	N/Adate	2019/09/13time	00:44:34forward acquisition time	60.00reverse acquisition time	0.00gamma	496.2192k internal	0.2331k external	0.2331temperature offset calibration	1.0124default loss term (dB/km)	0.3790temperature slope calibration	1.0000multiplexer offset coefficient	1.0000multiplexer slope coefficient	1.0000fibre end	0.00T internal ref (°C)	28.20T ext. ref 1 (°C)	3.69T ext. ref 2 (°C)	22.77length (m)	temperature (°C)	Stokes	anti-Stokes-747.200	69.484	-0.138	0.143
-746.185	-74.440	-0.107	-0.039
-745.171	-200.000	-0.019	0.279
-744.156	800.000	0.067	-0.194
-743.142	-200.000	-0.040	0.225
-742.127	169.407	-0.182	0.262
-741.112	552.385	-0.073	-0.176
-740.098	-26.256	-0.127	-0.075
-739.083	50.139	0.307	0.292
-738.069	229.100	0.140	0.230
-737.054	-200.000	-0.002	0.099
-736.039	-200.000	-0.047	-0.313
-735.025	-200.000	0.036	-0.170
-734.010	132.487	0.186	0.241
-732.996	401.170	0.075	-0.159
-731.981	21.335	-0.169	-0.138
-730.966	800.000	0.034	-0.110
-729.952	6.683	0.007	-0.006
-728.937	175.484	-0.144	0.210
-727.923	674.281	0.078	-0.204
-726.908	198.253	-0.168	-0.258
-725.894	434.478	-0.071	0.155
-724.879	-200.000	-0.027	0.229
-723.864	255.420	-0.099	0.170
-722.850	-200.000	-0.004	-0.066
-721.835	112.358	-0.055	0.067
-720.821	321.783	0.117	-0.224
-719.806	-10.970	0.172	-0.114
-718.791	152.769	-0.117	-0.161
-717.777	720.096	0.010	-0.027
-716.762	503.583	-0.114	0.265
-715.748	-200.000	0.024	-0.445
-714.733	330.418	-0.113	-0.218
-713.718	323.765	-0.103	-0.198
-712.704	96.377	0.141	-0.162
-711.689	123.384	0.147	0.185
-710.675	-167.068	-0.431	-0.018
-709.660	8.759	0.201	0.152
-708.645	-22.374	0.147	0.089
-707.631	44.705	0.251	0.232
-706.616	-142.160	0.113	0.011
-705.602	101.847	-0.093	-0.109
-704.587	-200.000	0.001	-0.027
-703.572	226.131	-0.214	0.349
-702.558	52.788	-0.161	-0.155
-701.543	-121.131	-0.139	0.023
-700.529	42.563	0.083	-0.076
-699.514	96.030	0.228	0.262
-698.499	-39.658	-0.037	0.020
-697.485	-200.000	-0.039	-0.244
-696.470	25.796	-0.114	-0.095
-695.456	800.000	0.115	-0.403
-694.441	-72.152	-0.190	-0.071
-693.426	164.031	-0.106	0.151
-692.412	-124.187	0.143	0.023
-691.397	-25.417	0.177	-0.105
-690.383	-83.880	-0.166	0.053
-689.368	-122.853	0.104	0.017
-688.354	800.000	-0.073	-0.309
-687.339	-200.000	0.010	-0.331
-686.324	702.157	-0.081	-0.215
-685.310	-122.989	0.195	-0.032
-684.295	-43.864	-0.152	0.077
-683.281	-200.000	-0.042	-0.199
-682.266	50.681	0.207	-0.197
-681.251	-30.837	-0.389	-0.221
-680.237	800.000	-0.088	-0.330
-679.222	-21.729	-0.127	-0.078
-678.208	-30.537	-0.118	-0.067
-677.193	-2.958	0.104	-0.073
-676.178	-200.000	0.025	0.166
-675.164	-27.080	-0.327	-0.191
-674.149	-137.490	-0.357	-0.041
-673.135	-59.546	0.269	-0.116
-672.120	800.000	0.073	-0.208
-671.105	-84.216	-0.184	0.059
-670.091	-9.648	-0.124	-0.083
-669.076	77.769	0.169	0.181
-668.062	4.051	-0.031	-0.022
-667.047	235.191	-0.076	0.126
-666.032	26.185	-0.346	-0.290
-665.018	-23.283	0.259	-0.156
-664.003	260.200	-0.052	0.091
-662.989	238.334	-0.067	-0.112
-661.974	66.828	0.097	-0.099
-660.959	226.404	-0.195	-0.318
-659.945	800.000	-0.043	0.142
-658.930	28.593	0.083	0.071
-657.916	-200.000	0.004	-0.322
-656.901	-34.403	-0.129	-0.071
-655.886	224.841	-0.082	-0.133
-654.872	800.000	0.030	-0.100
-653.857	-30.718	-0.249	0.141
-652.843	-200.000	-0.035	-0.170
-651.828	-152.415	-0.185	-0.013
-650.814	800.000	0.083	-0.328
-649.799	234.276	0.092	0.152
-648.784	-128.644	0.365	0.052
-647.770	-137.305	0.107	-0.012
-646.755	149.344	0.216	-0.293
-645.741	-198.225	-0.098	0.001
-644.726	-200.000	0.080	-0.395
-643.711	-200.000	0.002	0.222
-642.697	358.403	0.065	-0.130
-641.682	129.082	0.021	-0.027
-640.668	-43.704	-0.265	-0.134
-639.653	2.146	-0.136	0.098
-638.638	19.389	-0.206	-0.166
-637.624	-88.560	0.242	0.072
-636.609	252.696	-0.141	0.241
-635.595	-138.696	-0.032	0.004
-634.580	54.326	0.160	-0.154
-633.565	-57.329	0.429	-0.189
-632.551	63.852	-0.144	-0.145
-631.536	283.956	-0.044	-0.079
-630.522	-29.021	-0.207	0.119
-629.507	-144.268	-0.218	-0.020
-628.492	15.480	-0.104	-0.082
-627.478	-108.817	-0.313	0.067
-626.463	-24.812	0.021	0.012
-625.449	192.046	-0.032	-0.048
-624.434	800.000	-0.090	-0.350
-623.419	800.000	-0.022	-0.083
-622.405	7.548	0.128	-0.096
-621.390	-200.000	-0.021	-0.197
-620.376	130.252	0.099	0.127
-619.361	-200.000	0.006	0.112
-618.346	-113.539	0.323	-0.063
-617.332	-200.000	-0.024	0.235
-616.317	-34.411	-0.194	-0.107
-615.303	-124.583	-0.157	-0.024
-614.288	-128.099	-0.375	0.054
-613.273	291.305	0.203	-0.370
-612.259	107.864	0.073	0.087
-611.244	-200.000	0.031	0.188
-610.230	87.549	0.059	-0.066
-609.215	-100.734	0.328	-0.081
-608.201	-106.946	-0.114	-0.025
-607.186	52.211	-0.212	0.202
-606.171	123.521	-0.158	0.199
-605.157	-20.205	-0.306	-0.189
-604.142	671.799	-0.099	-0.257
-603.128	800.000	0.081	0.249
-602.113	-145.251	0.370	0.034
-601.098	-200.000	0.003	-0.083
-600.084	-200.000	-0.005	0.237
-599.069	223.997	-0.206	-0.333
-598.055	214.067	0.114	-0.180
-597.040	236.274	0.058	0.097
-596.025	27.366	0.303	-0.255
-595.011	62.342	0.163	-0.163
-593.996	-88.460	-0.102	0.030
-592.982	-110.678	-0.156	0.032
-591.967	-89.331	-0.255	-0.075
-590.952	-200.000	0.000	0.379
-589.938	192.412	0.107	-0.161
-588.923	-11.341	0.203	0.134
-587.909	-200.000	-0.023	0.272
-586.894	-155.513	0.081	-0.005
-585.879	110.622	0.124	-0.149
-584.865	800.000	-0.111	-0.411
-583.850	277.568	0.112	0.200
-582.836	21.298	0.019	-0.015
-581.821	-62.993	0.124	-0.051
-580.806	225.624	0.073	-0.119
-579.792	552.124	-0.110	-0.265
-578.777	-93.836	0.186	-0.051
-577.763	379.576	-0.061	0.124
-576.748	-86.857	0.281	-0.086
-575.733	106.547	0.081	0.096
-574.719	434.322	0.109	0.236
-573.704	14.686	-0.037	-0.029
-572.690	254.562	0.066	-0.112
-571.675	-31.780	0.114	-0.064
-570.661	-200.000	-0.051	-0.251
-569.646	-108.868	-0.114	-0.024
-568.631	83.999	0.149	-0.162
-567.617	-200.000	-0.049	0.493
-566.602	-135.546	-0.385	0.046
-565.588	-77.315	0.291	0.101
-564.573	-80.157	0.277	-0.093
-563.558	79.378	-0.202	0.216
-562.544	325.123	-0.048	0.091
-561.529	31.218	0.350	0.300
-560.515	800.000	-0.181	0.653
-559.500	1.033	-0.063	-0.045
-558.485	178.027	-0.408	-0.594
-557.471	367.229	-0.128	0.258
-556.456	57.092	-0.201	-0.196
-555.442	92.312	0.172	0.193
-554.427	30.851	0.078	-0.067
-553.412	-160.366	0.249	0.013
-552.398	172.081	0.166	-0.239
-551.383	-22.502	-0.142	0.086
-550.369	800.000	-0.037	0.146
-549.354	219.922	-0.069	-0.111
-548.339	56.874	0.226	-0.220
-547.325	348.050	-0.100	0.197
-546.310	11.818	0.439	0.337
-545.296	-183.812	-0.584	-0.010
-544.281	-43.659	0.034	0.017
-543.266	-29.764	0.262	-0.149
-542.252	-200.000	-0.004	0.116
-541.237	-39.546	-0.039	0.020
-540.223	-158.367	0.097	-0.006
-539.208	-200.000	-0.048	0.236
-538.193	752.912	0.076	0.206
-537.179	-50.679	0.308	0.145
-536.164	800.000	0.049	0.140
-535.150	229.048	0.085	0.139
-534.135	-65.776	0.263	0.105
-533.121	502.426	0.047	-0.109
-532.106	800.000	0.024	0.103
-531.091	679.067	0.045	-0.118
-530.077	-23.891	0.089	-0.053
-529.062	-109.521	0.232	0.049
-528.048	-200.000	0.009	-0.055
-527.033	235.091	-0.065	0.107
-526.018	-200.000	-0.004	0.018
-525.004	-139.553	-0.126	-0.013
-523.989	3.261	-0.298	-0.217
-522.975	-28.778	0.179	0.103
-521.960	-85.154	0.237	0.074
-520.945	-200.000	0.050	0.259
-519.931	-124.164	0.464	0.072
-518.916	602.352	0.099	-0.246
-517.902	-135.327	-0.360	-0.043
-516.887	46.546	-0.168	-0.156
-515.872	800.000	-0.071	0.278
-514.858	-71.068	-0.107	0.040
-513.843	-52.681	-0.189	0.087
-512.829	-200.000	0.036	0.372
-511.814	92.234	-0.115	-0.129
-510.799	178.215	0.148	0.215
-509.785	58.244	-0.091	-0.089
-508.770	85.786	0.037	0.040
-507.756	800.000	0.032	0.114
-506.741	492.154	0.070	0.159
-505.726	164.334	-0.115	0.162
-504.712	-157.953	-0.319	-0.019
-503.697	-136.851	0.102	0.012
-502.683	395.359	-0.069	0.143
-501.668	-200.000	0.003	-0.187
-500.653	-200.000	0.035	-0.273
-499.639	-200.000	0.004	0.118
-498.624	119.161	0.061	-0.076
-497.610	-155.482	0.058	-0.004
-496.595	69.491	-0.107	-0.109
-495.581	82.012	-0.154	0.166
-494.566	800.000	0.032	0.125
-493.551	-200.000	0.041	0.234
-492.537	460.978	-0.086	0.190
-491.522	-200.000	-0.007	-0.194
-490.508	-17.177	-0.104	0.065
-489.493	-117.228	0.173	0.031
-488.478	94.718	0.357	-0.404
-487.464	-40.153	-0.099	-0.051
-486.449	169.307	0.054	-0.077
-485.435	130.173	-0.193	-0.246
-484.420	208.438	-0.030	-0.046
-483.405	445.999	-0.084	0.183
-482.391	-162.378	-0.212	-0.010
-481.376	-57.033	0.289	0.127
-480.362	249.377	0.142	0.239
-479.347	-115.106	-0.066	0.012
-478.332	-200.000	-0.003	0.113
-477.318	407.176	0.071	-0.149
-476.303	384.136	0.061	-0.124
-475.289	197.626	0.070	-0.106
-474.274	43.854	0.057	-0.052
-473.259	184.440	-0.067	-0.100
-472.245	-200.000	0.012	-0.307
-471.230	-173.579	-0.183	0.005
-470.216	800.000	0.040	0.155
-469.201	-98.549	-0.098	0.025
-468.186	-21.330	-0.212	-0.129
-467.172	-200.000	0.044	-0.219
-466.157	-93.538	-0.070	0.019
-465.143	-132.651	-0.122	0.016
-464.128	-138.264	0.232	-0.026
-463.113	-25.776	-0.271	0.159
-462.099	137.308	-0.296	0.385
-461.084	-28.269	-0.485	0.279
-460.070	-0.975	-0.142	-0.100
-459.055	444.290	0.123	0.269
-458.040	800.000	-0.049	-0.167
-457.026	171.318	0.093	0.133
-456.011	50.704	0.164	0.155
-454.997	611.260	0.123	-0.307
-453.982	149.761	-0.077	0.104
-452.968	-200.000	-0.011	-0.138
-451.953	297.863	0.205	0.375
-450.938	78.707	-0.275	0.293
-449.924	-14.159	-0.434	-0.278
-448.909	-200.000	0.010	0.181
-447.895	-136.560	0.324	-0.037
-446.880	173.137	0.054	0.077
-445.865	71.413	0.077	0.080
-444.851	-83.080	-0.135	-0.043
-443.836	331.480	0.079	0.151
-442.822	-200.000	0.034	-0.171
-441.807	-200.000	0.045	0.337
-440.792	-93.470	-0.252	-0.069
-439.778	149.473	-0.159	-0.215
-438.763	286.219	-0.122	-0.219
-437.749	-119.273	0.223	0.039
-436.734	78.117	0.213	0.226
-435.719	800.000	-0.056	0.180
-434.705	-120.583	0.160	0.027
-433.690	1.677	0.203	0.145
-432.676	-143.338	0.404	0.039
-431.661	-99.355	0.210	0.053
-430.646	-200.000	-0.015	-0.128
-429.632	800.000	0.014	-0.040
-428.617	278.268	-0.048	-0.085
-427.603	800.000	0.039	-0.146
-426.588	186.997	-0.104	0.155
-425.573	26.899	0.248	0.207
-424.559	-200.000	-0.010	-0.332
-423.544	50.260	0.143	-0.134
-422.530	149.631	-0.059	-0.079
-421.515	-128.662	0.447	0.063
-420.500	800.000	0.037	-0.119
-419.486	-87.210	0.358	-0.108
-418.471	415.702	-0.107	0.228
-417.457	-200.000	-0.040	0.258
-416.442	12.393	-0.028	-0.021
-415.428	383.174	-0.147	0.301
-414.413	147.766	0.105	-0.141
-413.398	35.551	-0.240	-0.209
-412.384	800.000	-0.045	-0.173
-411.369	-167.747	-0.142	-0.006
-410.355	-176.148	0.164	0.004
-409.340	175.013	0.113	-0.163
-408.325	26.319	0.294	-0.244
-407.311	-200.000	-0.007	0.162
-406.296	-200.000	0.018	0.288
-405.282	-88.408	-0.393	-0.117
-404.267	105.780	0.162	-0.190
-403.252	5.811	0.179	0.132
-402.238	-139.398	-0.010	-0.001
-401.223	800.000	-0.014	-0.052
-400.209	64.665	0.067	0.068
-399.194	-48.621	-0.063	-0.030
-398.179	-200.000	-0.030	0.393
-397.165	-200.000	0.039	0.235
-396.150	-200.000	0.009	-0.321
-395.136	-104.800	0.202	-0.046
-394.121	-162.794	-0.406	0.020
-393.106	-200.000	-0.011	-0.161
-392.092	95.593	0.258	-0.293
-391.077	7.972	0.179	-0.133
-390.063	-80.444	-0.083	-0.027
-389.048	-42.918	-0.049	-0.025
-388.033	800.000	-0.072	-0.276
-387.019	-119.057	0.160	0.028
-386.004	352.978	0.139	-0.273
-384.990	-30.312	-0.180	-0.102
-383.975	-200.000	-0.040	-0.301
-382.960	-200.000	-0.010	0.308
-381.946	800.000	0.016	-0.049
-380.931	136.798	-0.222	-0.288
-379.917	-200.000	-0.046	0.254
-378.902	-139.865	0.151	-0.016
-377.888	152.812	0.086	0.117
-376.873	-200.000	-0.049	0.308
-375.858	447.729	-0.041	0.090
-374.844	-16.118	-0.250	-0.158
-373.829	-200.000	-0.017	0.357
-372.815	800.000	0.015	-0.053
-371.800	-92.413	-0.202	-0.056
-370.785	-200.000	0.068	0.386
-369.771	-200.000	0.010	-0.254
-368.756	75.508	-0.192	-0.201
-367.742	-98.070	-0.287	0.073
-366.727	31.704	-0.195	-0.167
-365.712	-136.158	0.167	-0.019
-364.698	-108.104	0.461	-0.099
-363.683	-90.794	0.060	-0.017
-362.669	-200.000	0.314	0.000
-361.654	-51.949	-0.035	-0.016
-360.639	-72.226	-0.205	-0.075
-359.625	-77.561	-0.368	0.126
-358.610	583.148	-0.099	0.241
-357.596	-74.985	-0.067	-0.024
-356.581	238.389	-0.097	0.160
-355.566	-180.059	0.212	-0.004
-354.552	214.739	-0.116	-0.183
-353.537	-171.055	0.189	0.006
-352.523	800.000	-0.015	-0.048
-351.508	13.581	-0.437	-0.336
-350.493	-117.468	0.262	-0.047
-349.479	-200.000	0.025	-0.247
-348.464	-200.000	-0.025	-0.252
-347.450	800.000	-0.073	0.290
-346.435	69.690	0.174	0.178
-345.420	93.372	0.209	0.234
-344.406	-115.521	-0.205	0.038
-343.391	380.948	0.114	0.232
-342.377	-97.608	-0.247	-0.064
-341.362	-164.145	0.285	-0.013
-340.348	52.523	-0.154	-0.146
-339.333	100.148	0.006	-0.007
-338.318	-200.000	0.021	-0.313
-337.304	23.360	-0.042	0.034
-336.289	-140.592	-0.127	0.013
-335.275	-16.724	0.347	0.217
-334.260	172.051	0.066	0.095
-333.245	-103.565	0.200	-0.047
-332.231	114.915	0.085	0.103
-331.216	800.000	0.080	0.229
-330.202	3.121	0.196	-0.141
-329.187	-200.000	-0.031	0.147
-328.172	-84.037	-0.179	0.056
-327.158	-200.000	-0.000	-0.124
-326.143	-84.247	-0.430	-0.135
-325.129	-53.517	-0.097	0.044
-324.114	-87.262	-0.439	0.132
-323.099	25.595	0.145	0.120
-322.085	186.925	-0.017	-0.025
-321.070	190.044	-0.100	0.149
-320.056	-200.000	0.010	0.104
-319.041	135.238	0.027	-0.035
-318.026	253.064	-0.111	-0.187
-317.012	-156.168	-0.143	-0.009
-315.997	-200.000	0.052	-0.335
-314.983	-162.897	-0.238	-0.011
-313.968	-86.104	-0.236	-0.072
-312.953	-200.000	0.018	-0.296
-311.939	4.423	0.266	-0.193
-310.924	-4.229	0.242	-0.166
-309.910	70.794	0.340	-0.349
-308.895	800.000	0.044	0.177
-307.880	-116.709	0.098	-0.018
-306.866	-200.000	-0.022	0.153
-305.851	552.884	-0.161	0.383
-304.837	135.731	-0.100	0.129
-303.822	388.549	-0.111	0.228
-302.807	209.572	-0.183	0.284
-301.793	-200.000	0.037	0.290
-300.778	-57.348	0.219	0.095
-299.764	-192.050	0.083	0.001
-298.749	11.411	0.038	0.029
-297.735	800.000	0.045	-0.162
-296.720	-200.000	-0.004	-0.028
-295.705	800.000	0.053	-0.214
-294.691	-200.000	0.035	-0.169
-293.676	217.259	-0.272	0.429
-292.662	-141.816	0.227	0.023
-291.647	-44.514	0.268	0.133
-290.632	-200.000	-0.103	0.484
-289.618	239.833	-0.143	0.236
-288.603	458.227	0.051	-0.113
-287.589	106.329	0.262	-0.307
-286.574	-90.679	-0.227	-0.065
-285.559	15.477	-0.132	-0.102
-284.545	-76.896	0.053	-0.018
-283.530	679.356	-0.162	-0.417
-282.516	544.994	0.074	-0.174
-281.501	577.637	0.202	-0.488
-280.486	24.582	-0.320	0.262
-279.472	-2.406	0.237	0.164
-278.457	-81.367	0.174	-0.057
-277.443	-106.293	0.209	0.046
-276.428	-31.193	-0.077	-0.043
-275.413	-200.000	-0.052	-0.245
-274.399	372.168	-0.072	-0.145
-273.384	-92.062	-0.153	-0.043
-272.370	-12.476	-0.193	-0.124
-271.355	106.417	0.057	-0.066
-270.340	-132.700	-0.102	0.013
-269.326	-200.000	-0.025	-0.150
-268.311	-200.000	0.039	0.442
-267.297	355.640	0.015	0.029
-266.282	-105.504	-0.236	0.053
-265.267	-81.347	0.286	-0.093
-264.253	-44.671	-0.234	0.115
-263.238	89.172	-0.145	-0.159
-262.224	-200.000	0.004	0.160
-261.209	800.000	-0.057	0.162
-260.195	-107.303	0.253	-0.055
-259.180	91.323	-0.242	-0.268
-258.165	-105.054	-0.200	-0.045
-257.151	-193.842	0.262	-0.002
-256.136	800.000	0.070	-0.296
-255.122	-18.724	0.057	-0.035
-254.107	-120.011	0.241	-0.041
-253.092	8.420	-0.250	0.185
-252.078	604.941	0.087	-0.214
-251.063	-200.000	0.005	0.107
-250.049	-47.052	-0.084	-0.041
-249.034	-200.000	-0.012	0.078
-248.019	74.870	-0.237	0.246
-247.005	-145.032	-0.541	0.049
-245.990	11.150	0.081	-0.061
-244.976	-146.077	-0.325	-0.028
-243.961	-61.444	-0.146	0.060
-242.946	-94.881	0.068	0.018
-241.932	-135.611	0.265	0.031
-240.917	179.432	-0.098	0.142
-239.903	800.000	0.034	-0.123
-238.888	33.598	-0.311	-0.266
-237.873	-120.523	-0.231	0.039
-236.859	-200.000	-0.023	-0.165
-235.844	32.747	0.214	-0.183
-234.830	-200.000	-0.011	-0.093
-233.815	-3.313	0.139	-0.096
-232.800	-200.000	-0.074	-0.448
-231.786	681.648	-0.113	0.289
-230.771	-75.241	0.091	0.032
-229.757	-86.399	-0.283	-0.086
-228.742	-200.000	0.065	0.377
-227.727	-55.885	-0.142	-0.063
-226.713	0.008	-0.131	0.092
-225.698	339.135	-0.149	-0.286
-224.684	-26.257	0.352	-0.204
-223.669	384.982	-0.054	0.110
-222.655	-133.733	-0.166	0.020
-221.640	510.966	0.179	0.412
-220.625	-200.000	0.025	0.200
-219.611	-73.451	-0.145	-0.052
-218.596	800.000	0.106	0.307
-217.582	-31.666	0.093	-0.051
-216.567	-141.860	0.492	0.049
-215.552	242.337	0.185	0.306
-214.538	-101.177	0.158	-0.038
-213.523	-26.999	-0.178	-0.103
-212.509	-200.000	-0.008	0.049
-211.494	14.924	-0.205	-0.158
-210.479	800.000	0.038	-0.143
-209.465	-200.000	0.002	0.291
-208.450	145.008	-0.180	-0.237
-207.436	-80.936	0.101	0.033
-206.421	-29.732	-0.244	0.137
-205.406	758.928	-0.040	0.108
-204.392	371.520	-0.067	0.134
-203.377	41.924	0.136	0.122
-202.363	-57.716	0.115	-0.049
-201.348	1.655	0.199	0.141
-200.333	-17.467	-0.198	0.123
-199.319	168.459	0.122	-0.172
-198.304	-133.850	-0.134	0.016
-197.290	166.899	0.091	0.128
-196.275	-200.000	-0.010	-0.116
-195.260	800.000	-0.062	-0.249
-194.246	-200.000	0.016	0.224
-193.231	258.722	0.113	-0.192
-192.217	-86.122	-0.043	-0.013
-191.202	296.934	-0.078	0.142
-190.187	405.046	-0.098	-0.203
-189.173	82.613	-0.124	-0.132
-188.158	-157.518	0.377	0.022
-187.144	-111.871	-0.302	0.060
-186.129	137.169	-0.240	-0.309
-185.114	-164.619	-0.143	-0.006
-184.100	-89.567	-0.162	0.047
-183.085	-200.000	0.017	0.203
-182.071	-84.742	-0.096	-0.030
-181.056	800.000	-0.053	-0.145
-180.042	350.565	-0.090	0.175
-179.027	800.000	-0.056	-0.188
-178.012	-200.000	-0.060	-0.287
-176.998	511.320	-0.192	-0.441
-175.983	248.917	0.162	-0.270
-174.969	-88.286	0.077	0.023
-173.954	781.534	-0.031	0.085
-172.939	-103.164	0.331	-0.077
-171.925	-25.204	-0.164	0.095
-170.910	-66.105	0.182	0.072
-169.896	-9.785	-0.158	-0.104
-168.881	1.012	-0.016	-0.011
-167.866	397.915	-0.064	-0.132
-166.852	-9.643	-0.121	-0.079
-165.837	-58.979	0.290	-0.123
-164.823	-0.596	0.014	-0.010
-163.808	-200.000	0.042	0.368
-162.793	800.000	0.073	0.208
-161.779	-27.972	-0.016	0.009
-160.764	-13.870	0.111	-0.070
-159.750	449.838	0.158	0.342
-158.735	425.091	-0.136	-0.289
-157.720	492.566	-0.090	0.204
-156.706	130.052	0.202	-0.254
-155.691	-51.833	0.262	-0.120
-154.677	-200.000	-0.029	0.179
-153.662	711.423	-0.108	0.280
-152.647	30.962	0.113	-0.096
-151.633	205.998	-0.024	0.037
-150.618	800.000	0.058	-0.215
-149.604	-37.769	0.325	0.170
-148.589	-24.607	-0.070	-0.041
-147.574	-55.936	0.189	-0.083
-146.560	800.000	-0.035	0.106
-145.545	29.601	-0.144	0.120
-144.531	320.704	0.084	0.156
-143.516	-153.408	0.303	-0.021
-142.502	249.292	-0.099	0.164
-141.487	232.488	0.147	0.238
-140.472	9.607	-0.051	-0.038
-139.458	20.391	-0.133	0.106
-138.443	171.644	-0.058	0.081
-137.429	342.212	-0.021	-0.040
-136.414	-200.000	-0.016	-0.189
-135.399	-138.639	0.605	0.065
-134.385	45.099	-0.223	0.202
-133.370	-97.543	-0.178	-0.045
-132.356	271.260	0.103	-0.178
-131.341	206.196	0.150	-0.230
-130.326	-200.000	-0.010	-0.377
-129.312	-200.000	0.076	0.453
-128.297	-160.475	0.079	-0.004
-127.283	-115.109	0.218	-0.041
-126.268	514.931	0.066	-0.150
-125.253	-88.156	-0.371	-0.109
-124.239	-192.459	0.115	-0.001
-123.224	393.727	-0.098	0.200
-122.210	-23.267	-0.299	0.177
-121.195	-195.214	0.334	-0.002
-120.180	-200.000	0.001	0.094
-119.166	-83.688	0.056	0.018
-118.151	-42.774	-0.293	-0.146
-117.137	-95.220	-0.222	0.059
-116.122	446.775	-0.065	-0.141
-115.107	78.107	0.218	-0.229
-114.093	30.168	-0.216	-0.181
-113.078	-200.000	-0.030	-0.195
-112.064	68.068	0.148	-0.148
-111.049	-71.880	-0.269	0.098
-110.034	-115.166	0.269	0.050
-109.020	161.745	0.075	0.103
-108.005	800.000	-0.112	-0.340
-106.991	1.029	0.317	-0.223
-105.976	23.224	0.206	0.166
-104.962	-57.973	-0.180	-0.077
-103.947	91.317	0.185	0.204
-102.932	-132.326	-0.147	-0.019
-101.918	-188.533	0.339	0.004
-100.903	-200.000	0.032	0.204
-99.889	143.664	-0.077	-0.101
-98.874	-7.385	-0.135	-0.090
-97.859	-142.468	0.059	-0.006
-96.845	800.000	-0.044	0.122
-95.830	288.521	0.007	-0.013
-94.816	-175.064	0.143	0.004
-93.801	-40.137	-0.152	0.078
-92.786	800.000	-0.115	0.360
-91.772	-52.883	0.254	-0.115
-90.757	-133.310	-0.294	0.036
-89.743	44.777	0.257	-0.232
-88.728	800.000	-0.057	0.207
-87.713	-12.333	0.108	0.070
-86.699	-119.457	0.327	-0.056
-85.684	-51.927	0.197	0.090
-84.670	-200.000	0.028	0.379
-83.655	102.310	-0.058	0.066
-82.640	224.765	0.110	-0.175
-81.626	800.000	0.029	0.100
-80.611	-133.469	0.149	-0.018
-79.597	89.863	0.239	0.262
-78.582	-140.826	0.117	-0.012
-77.567	-122.011	0.098	0.016
-76.553	800.000	-0.062	-0.204
-75.538	-146.357	-0.144	-0.012
-74.524	120.341	-0.196	0.238
-73.509	800.000	0.117	-0.372
-72.494	39.979	0.150	0.132
-71.480	-62.257	0.325	0.133
-70.465	237.309	0.180	-0.292
-69.451	84.805	-0.223	0.239
-68.436	-114.194	-0.284	0.054
-67.422	36.652	-0.151	0.131
-66.407	-135.796	0.418	0.048
-65.392	-17.782	-0.344	-0.212
-64.378	-200.000	0.028	-0.433
-63.363	413.378	-0.062	-0.129
-62.349	-200.000	-0.004	-0.046
-61.334	98.561	-1.122	-1.268
-60.319	17.708	0.723	0.564
-59.305	425.175	-0.557	-1.175
-58.290	800.000	0.370	1.137
-57.276	800.000	0.405	1.399
-56.261	-200.000	113.016	640.875
-55.246	528.990	1517.434	3509.323
-54.232	178.838	2684.272	3844.069
-53.217	109.738	2169.822	2548.732
-52.203	38.702	1699.839	1486.216
-51.188	31.381	1519.052	1278.256
-50.173	29.139	1494.210	1242.200
-49.159	52.258	1552.922	1450.644
-48.144	51.429	1568.104	1459.072
-47.130	31.531	1524.401	1283.580
-46.115	28.433	1509.862	1250.199
-45.100	28.304	1506.610	1246.575
-44.086	28.277	1504.693	1244.756
-43.071	28.256	1502.713	1242.927
-42.057	28.180	1501.342	1241.226
-41.042	28.213	1499.330	1239.741
-40.027	28.242	1498.256	1238.996
-39.013	28.179	1496.395	1236.980
-37.998	28.129	1495.512	1235.867
-36.984	28.168	1494.364	1235.131
-35.969	28.167	1492.892	1233.857
-34.954	28.120	1491.875	1232.656
-33.940	28.113	1490.332	1231.284
-32.925	28.196	1488.799	1230.525
-31.911	28.192	1487.358	1229.259
-30.896	28.234	1486.358	1228.667
-29.881	28.287	1484.840	1227.720
-28.867	28.258	1483.454	1226.329
-27.852	28.258	1482.426	1225.427
-26.838	28.185	1480.921	1223.651
-25.823	28.220	1479.516	1222.675
-24.809	28.283	1477.934	1221.738
-23.794	28.244	1476.369	1220.136
-22.779	28.174	1476.053	1219.357
-21.765	28.229	1474.825	1218.663
-20.750	28.297	1473.680	1218.123
-19.736	28.292	1472.404	1216.987
-18.721	28.225	1471.405	1215.663
-17.706	28.249	1470.075	1214.681
-16.692	28.239	1469.104	1213.760
-15.677	28.264	1467.916	1212.894
-14.663	28.284	1466.997	1212.220
-13.648	28.178	1466.421	1210.994
-12.633	28.181	1465.421	1210.141
-11.619	28.209	1464.565	1209.574
-10.604	28.195	1463.594	1208.628
-9.590	28.113	1462.841	1207.421
-8.575	28.162	1461.630	1206.692
-7.560	28.268	1460.276	1206.224
-6.546	28.155	1460.111	1205.298
-5.531	28.191	1459.063	1204.620
-4.517	28.042	1458.722	1203.315
-3.502	28.215	1457.022	1202.999
-2.487	28.211	1456.035	1202.110
-1.473	28.118	1455.170	1200.738
-0.458	28.209	1453.858	1200.206
0.556	29.581	1444.395	1188.368
1.571	26.436	1419.477	1147.842
2.586	22.872	1361.505	1079.127
3.600	21.105	1280.245	1004.468
4.615	19.694	1234.161	960.394
5.629	17.336	1178.048	904.123
6.644	10.235	1095.507	805.473
7.659	4.772	1057.241	750.972
8.673	3.817	1052.229	742.761
9.688	3.692	1048.383	739.382
10.702	3.566	1046.674	737.509
11.717	3.684	1044.648	736.578
12.731	6.237	1047.180	750.488
13.746	13.718	1058.327	794.366
14.761	20.690	1066.641	834.077
15.775	22.876	1068.429	845.884
16.790	22.480	1067.351	843.058
17.804	21.683	1065.510	837.719
18.819	20.873	1064.156	832.712
19.834	20.587	1062.679	830.116
20.848	20.501	1062.387	829.404
21.863	20.610	1061.603	829.241
22.877	20.675	1061.340	829.273
23.892	20.325	1060.630	826.974
24.907	20.199	1059.483	825.409
25.921	20.153	1058.933	824.690
26.936	20.203	1057.768	823.945
27.950	20.112	1057.022	822.857
28.965	20.116	1055.981	821.996
29.980	20.209	1054.688	821.357
30.994	20.261	1053.406	820.532
32.009	20.425	1052.982	820.902
33.023	20.567	1052.325	820.987
34.038	20.636	1051.204	820.367
35.053	20.382	1050.574	818.605
36.067	20.354	1049.472	817.543
37.082	20.081	1048.594	815.500
38.096	20.151	1047.943	815.253
39.111	20.410	1047.141	815.775
40.126	20.448	1046.448	815.340
41.140	20.324	1044.828	813.424
42.155	19.957	1044.011	810.996
43.169	19.738	1042.473	808.705
44.184	19.691	1041.413	807.592
45.199	19.650	1040.542	806.656
46.213	19.673	1039.760	806.085
47.228	19.723	1038.408	805.197
48.242	20.234	1038.159	807.312
49.257	20.426	1037.459	807.591
50.271	20.365	1036.684	806.634
51.286	20.342	1035.753	805.731
52.301	20.411	1035.663	805.908
53.315	20.420	1034.756	805.174
54.330	20.377	1033.466	803.898
55.344	20.227	1032.173	802.130
56.359	20.096	1031.386	800.841
57.374	20.001	1030.441	799.598
58.388	19.801	1030.175	798.396
59.403	19.785	1029.217	797.509
60.417	19.735	1028.095	796.341
61.432	19.651	1027.599	795.498
62.447	19.653	1026.808	794.825
63.461	19.695	1025.840	794.200
64.476	19.508	1025.055	792.661
65.490	19.325	1024.175	791.071
66.505	19.476	1023.113	790.873
67.520	19.447	1022.707	790.356
68.534	19.535	1021.907	790.071
69.549	19.456	1021.039	788.967
70.563	19.454	1020.340	788.352
71.578	19.278	1019.827	787.082
72.593	19.129	1018.636	785.409
73.607	19.052	1017.287	783.953
74.622	19.006	1016.551	783.103
75.636	18.956	1015.939	782.335
76.651	19.271	1014.806	782.826
77.666	19.228	1014.280	782.154
78.680	19.298	1013.843	782.069
79.695	19.256	1013.335	781.415
80.709	19.356	1012.476	781.138
81.724	19.523	1012.091	781.526
82.739	19.692	1011.012	781.387
83.753	19.688	1010.866	781.189
84.768	19.931	1010.435	781.885
85.782	20.427	1009.877	783.620
86.797	20.733	1009.355	784.525
87.812	20.863	1008.420	784.315
88.826	20.598	1007.218	782.122
89.841	20.438	1006.875	781.066
90.855	20.627	1005.754	780.976
91.870	20.546	1005.526	780.364
92.884	20.734	1004.715	780.509
93.899	20.550	1004.402	779.372
94.914	20.527	1002.980	778.096
95.928	20.589	1002.085	777.611
96.943	20.667	1001.826	777.690
97.957	20.465	1000.581	775.752
98.972	20.430	999.642	774.801
99.987	20.454	998.964	774.312
101.001	20.647	997.963	774.328
102.016	20.449	997.964	773.379
103.030	20.377	997.066	772.295
104.045	20.551	995.700	771.941
105.060	20.544	994.760	771.112
106.074	20.385	994.012	769.758
107.089	19.987	993.210	767.307
108.103	19.701	991.837	764.913
109.118	19.644	990.457	763.529
110.133	19.570	989.611	762.486
111.147	19.530	988.331	761.253
112.162	19.394	987.765	760.152
113.176	19.539	986.575	759.805
114.191	19.589	986.671	760.035
115.206	19.698	985.904	759.855
116.220	19.666	984.856	758.838
117.235	19.615	983.930	757.833
118.249	19.620	983.111	757.161
119.264	19.477	982.133	755.714
120.279	19.392	981.372	754.687
121.293	19.275	980.741	753.623
122.308	19.296	979.523	752.711
123.322	19.291	978.298	751.683
124.337	18.952	977.885	749.823
125.352	19.034	976.194	748.817
126.366	19.096	975.527	748.506
127.381	19.162	974.412	747.873
128.395	19.176	973.495	747.162
129.410	19.175	972.973	746.691
130.424	19.226	971.911	746.034
131.439	19.334	971.062	745.780
132.454	19.503	970.484	746.001
133.468	19.503	970.052	745.605
134.483	19.691	969.415	745.859
135.497	19.644	968.683	745.030
136.512	19.680	967.761	744.409
137.527	19.694	966.850	743.703
138.541	19.667	966.401	743.176
139.556	19.726	965.634	742.772
140.570	19.687	965.184	742.195
141.585	19.873	964.393	742.315
142.600	20.176	963.899	743.171
143.614	20.258	963.212	742.927
144.629	20.512	962.549	743.434
145.643	20.470	962.217	742.933
146.658	20.451	961.136	741.952
147.673	20.336	959.630	740.232
148.687	20.018	958.876	738.231
149.702	19.888	957.217	736.336
150.716	19.710	956.619	735.052
151.731	19.682	955.715	734.175
152.746	19.788	955.037	734.041
153.760	19.859	954.140	733.584
154.775	19.925	953.156	733.044
155.789	20.031	952.614	733.012
156.804	20.006	952.266	732.572
157.819	20.085	951.624	732.348
158.833	20.135	950.710	731.790
159.848	20.260	950.246	731.896
160.862	20.511	949.406	732.243
161.877	20.258	949.151	730.913
162.892	20.067	947.481	728.760
163.906	19.779	946.200	726.499
164.921	19.728	945.149	725.414
165.935	19.689	944.066	724.358
166.950	19.715	943.137	723.688
167.964	19.910	942.268	723.774
168.979	19.904	941.474	723.074
169.994	19.735	940.534	721.583
171.008	19.789	939.674	721.084
172.023	19.887	938.834	720.786
173.037	20.153	938.536	721.598
174.052	20.346	938.077	721.987
175.067	20.293	937.028	720.893
176.081	19.831	935.932	718.070
177.096	19.502	934.656	715.664
178.110	19.526	933.681	714.954
179.125	19.644	933.151	714.973
180.140	19.695	932.229	714.414
181.154	19.841	931.532	714.421
182.169	20.050	931.783	715.412
183.183	20.156	931.443	715.523
184.198	20.283	930.686	715.402
185.213	20.294	929.513	714.482
186.227	20.378	928.961	714.341
187.242	20.348	928.465	713.774
188.256	20.285	928.633	713.579
189.271	20.439	927.859	713.555
190.286	20.652	926.970	713.682
191.300	20.252	926.218	711.399
192.315	19.751	924.440	707.920
193.329	19.405	923.983	706.091
194.344	19.498	922.745	705.464
195.359	19.723	922.613	706.220
196.373	19.812	922.131	706.152
197.388	20.004	921.468	706.365
198.402	20.069	921.856	706.864
199.417	20.309	921.183	707.266
200.432	20.719	921.187	708.874
201.446	20.884	920.663	709.081
202.461	20.910	920.585	709.063
203.475	20.946	920.109	708.782
204.490	20.884	919.310	707.852
205.504	20.665	917.475	705.489
206.519	20.368	916.954	703.821
207.534	20.232	916.217	702.643
208.548	20.288	915.173	702.008
209.563	20.305	914.766	701.700
210.577	20.365	914.177	701.429
211.592	20.361	913.002	700.450
212.607	20.480	913.186	701.009
213.621	20.775	912.723	701.781
214.636	20.724	911.947	700.917
215.650	20.466	911.543	699.504
216.665	20.597	910.827	699.421
217.680	20.670	910.110	699.101
218.694	20.817	909.982	699.531
219.709	20.806	909.632	699.158
220.723	20.712	908.896	698.151
221.738	20.703	907.933	697.316
222.753	20.665	907.030	696.406
223.767	20.612	906.622	695.820
224.782	20.606	906.090	695.327
225.796	21.003	904.907	695.943
226.811	20.977	904.592	695.534
227.826	21.015	903.744	694.973
228.840	20.603	902.997	692.695
229.855	20.416	902.635	691.612
230.869	20.531	901.670	691.270
231.884	20.481	901.231	690.672
232.899	20.509	900.159	689.900
233.913	20.262	899.816	688.597
234.928	20.314	898.567	687.786
235.942	20.176	898.491	687.119
236.957	20.183	897.258	686.146
237.972	20.134	896.682	685.450
238.986	20.038	895.967	684.462
240.001	20.104	895.447	684.266
241.015	20.139	894.830	683.872
242.030	20.153	894.678	683.748
243.045	20.205	894.210	683.537
244.059	20.323	893.672	683.531
245.074	20.428	892.974	683.348
246.088	20.579	892.390	683.436
247.103	20.656	891.997	683.376
248.117	20.818	891.597	683.645
249.132	20.981	891.340	684.027
250.147	21.366	890.815	685.073
251.161	21.664	891.035	686.349
252.176	21.792	890.153	686.109
253.190	21.869	889.408	685.777
254.205	21.703	889.039	684.781
255.220	22.007	888.644	685.604
256.234	21.878	887.605	684.238
257.249	21.607	887.165	682.784
258.263	21.593	886.695	682.308
259.278	21.683	885.644	681.789
260.293	21.712	885.582	681.791
261.307	21.772	884.824	681.383
262.322	21.676	884.350	680.583
263.336	21.854	883.691	680.706
264.351	21.727	883.180	679.762
265.366	21.835	882.642	679.703
266.380	21.817	881.813	678.938
267.395	21.758	881.492	678.402
268.409	21.798	880.327	677.598
269.424	21.678	879.551	676.480
270.439	21.657	878.808	675.766
271.453	21.543	878.309	674.883
272.468	21.373	877.608	673.630
273.482	21.314	876.812	672.730
274.497	21.387	875.842	672.207
275.512	21.342	875.134	671.431
276.526	21.330	874.675	670.973
277.541	21.312	873.987	670.318
278.555	21.414	873.950	670.622
279.570	21.688	873.894	671.572
280.585	21.935	873.277	671.983
281.599	21.928	872.853	671.569
282.614	21.583	872.278	669.750
283.628	21.439	870.907	668.085
284.643	21.418	870.366	667.532
285.657	21.429	869.473	666.832
286.672	21.480	869.612	667.072
287.687	21.482	868.711	666.330
288.701	21.467	868.218	665.837
289.716	21.687	867.316	665.921
290.730	21.556	867.016	665.133
291.745	21.516	866.980	664.895
292.760	21.685	865.767	664.548
293.774	21.615	865.845	664.284
294.789	22.064	865.304	665.513
295.803	22.062	864.723	664.999
296.818	21.697	863.802	662.849
297.833	21.522	863.032	661.540
298.847	21.553	862.015	660.819
299.862	21.531	861.485	660.271
300.876	21.745	860.721	660.435
301.891	21.601	860.504	659.665
302.906	21.829	860.721	660.634
303.920	22.116	859.651	660.835
304.935	22.300	859.039	660.995
305.949	22.465	858.957	661.493
306.964	22.340	858.102	660.308
307.979	22.007	857.073	658.210
308.993	21.987	856.696	657.787
310.008	22.072	856.369	657.795
311.022	22.183	855.743	657.674
312.037	22.018	855.072	656.480
313.052	22.001	854.557	655.963
314.066	21.643	853.669	653.887
315.081	21.504	852.335	652.291
316.095	21.337	852.232	651.532
317.110	21.455	851.903	651.663
318.125	21.376	851.235	650.801
319.139	21.533	850.259	650.579
320.154	21.364	849.943	649.653
321.168	21.333	849.250	648.949
322.183	21.330	848.838	648.567
323.197	21.533	848.721	649.172
324.212	21.561	848.284	648.885
325.227	21.654	847.393	648.490
326.241	21.741	846.782	648.287
327.256	21.462	846.273	646.809
328.270	21.502	845.930	646.639
329.285	21.513	845.068	645.963
330.300	21.493	844.515	645.409
331.314	21.403	844.010	644.631
332.329	21.518	843.180	644.367
333.343	21.611	843.023	644.532
334.358	21.984	842.677	645.583
335.373	21.984	841.952	644.970
336.387	21.901	841.516	644.271
337.402	22.099	841.027	644.567
338.416	22.169	840.532	644.389
339.431	22.300	840.180	644.541
340.446	22.576	839.944	645.315
341.460	22.579	839.757	645.124
342.475	22.775	838.588	644.885
343.489	22.629	838.735	644.406
344.504	22.802	837.968	644.393
345.519	22.840	837.688	644.257
346.533	23.016	836.909	644.245
347.548	22.904	836.363	643.360
348.562	22.598	835.002	641.144
349.577	22.303	834.899	639.936
350.592	22.170	833.914	638.640
351.606	21.980	833.276	637.405
352.621	21.975	832.783	636.954
353.635	21.909	832.380	636.348
354.650	22.070	832.143	636.695
355.665	21.965	832.003	636.149
356.679	22.156	831.418	636.338
357.694	22.183	831.320	636.306
358.708	22.337	830.148	635.910
359.723	22.213	829.646	635.021
360.738	22.251	829.029	634.628
361.752	22.492	828.518	635.050
362.767	22.200	828.470	633.905
363.781	22.609	827.918	634.900
364.796	22.783	827.838	635.408
365.810	22.864	827.579	635.444
366.825	23.096	827.177	635.915
367.840	23.178	826.743	635.820
368.854	23.140	825.996	635.053
369.869	22.828	825.781	633.709
370.883	22.654	824.909	632.361
371.898	22.573	824.223	631.488
372.913	22.852	823.704	632.035
373.927	22.886	823.406	631.870
374.942	22.851	822.566	631.045
375.956	22.729	821.831	629.992
376.971	22.913	821.461	630.309
377.986	22.955	821.112	630.136
379.000	23.295	820.729	630.995
380.015	23.268	820.254	630.478
381.029	23.131	819.512	629.367
382.044	23.020	819.093	628.592
383.059	23.205	818.152	628.473
384.073	23.225	817.738	628.169
385.088	22.965	817.419	626.947
386.102	22.845	816.005	625.383
387.117	22.670	815.333	624.193
388.132	22.539	814.974	623.398
389.146	22.524	814.771	623.136
390.161	22.502	814.759	622.993
391.175	22.939	813.753	623.711
392.190	23.045	813.504	623.840
393.205	22.982	813.078	623.237
394.219	22.725	812.656	621.950
395.234	22.559	812.024	620.827
396.248	22.531	811.242	620.076
397.263	22.463	810.715	619.380
398.278	22.305	810.273	618.431
399.292	22.154	810.050	617.675
400.307	22.350	808.917	617.445
401.321	22.322	809.041	617.388
402.336	22.298	808.753	617.027
403.350	22.374	808.206	616.822
404.365	22.622	807.889	617.395
405.380	23.052	807.457	618.513
406.394	23.279	807.122	618.998
407.409	23.409	807.004	619.305
408.423	23.378	807.268	619.344
409.438	23.368	806.309	618.521
410.453	23.610	805.625	618.785
411.467	23.566	805.638	618.586
412.482	23.506	804.668	617.579
413.496	23.701	804.270	617.895
414.511	23.703	804.331	617.895
415.526	23.790	803.764	617.707
416.540	23.548	803.317	616.467
417.555	23.499	802.460	615.588
418.569	23.545	802.320	615.583
419.584	23.302	802.051	614.480
420.599	23.619	800.925	614.662
421.613	163.707	1370.463	1797.781
422.628	142.252	1453.460	1797.856
