DTS Sentinel unit serial number:	SN413079Multiplexer serial number:	ORYXHardware model number:	OX4-SRSoftware version number:	ORYX F/W v4.00 Oryx Data Collector v3.7.2.0data status	okinstallation	princeton_trtdifferential loss correction	single-endedforward channel	channel 3reverse channel	N/Adate	2019/09/19time	10:04:35forward acquisition time	60.00reverse acquisition time	0.00gamma	496.2192k internal	0.2342k external	0.2342temperature offset calibration	0.9979default loss term (dB/km)	0.3790temperature slope calibration	1.0000multiplexer offset coefficient	1.0000multiplexer slope coefficient	1.0000fibre end	0.00T internal ref (°C)	23.81T ext. ref 1 (°C)	0.68T ext. ref 2 (°C)	19.63length (m)	temperature (°C)	Stokes	anti-Stokes-747.200	53.886	0.098	-0.095
-746.185	-200.000	-0.034	-0.269
-745.171	-200.000	-0.013	-0.067
-744.156	800.000	-0.139	0.425
-743.142	416.393	0.082	-0.175
-742.127	1.436	-0.272	0.196
-741.112	93.348	0.319	-0.361
-740.098	405.598	0.055	-0.115
-739.083	156.034	0.065	0.090
-738.069	-42.577	0.081	-0.041
-737.054	800.000	-0.033	-0.126
-736.039	129.000	-0.056	0.072
-735.025	-77.439	0.299	0.104
-734.010	318.745	-0.174	-0.329
-732.996	-92.955	0.105	0.029
-731.981	332.336	0.040	0.078
-730.966	1.217	-0.433	-0.311
-729.952	-200.000	0.007	-0.080
-728.937	101.673	-0.418	-0.488
-727.923	711.629	-0.040	-0.107
-726.908	94.725	-0.210	0.239
-725.894	-70.817	-0.191	0.072
-724.879	463.678	0.168	-0.376
-723.864	186.939	0.047	-0.070
-722.850	-196.107	-0.096	-0.001
-721.835	-200.000	-0.010	-0.088
-720.821	535.381	-0.129	-0.306
-719.806	-147.099	-0.094	0.008
-718.791	32.471	-0.334	-0.289
-717.777	-115.753	-0.067	0.012
-716.762	-17.601	0.355	0.223
-715.748	193.079	-0.009	0.014
-714.733	-106.085	0.072	0.016
-713.718	-200.000	-0.052	0.422
-712.704	110.018	0.204	-0.245
-711.689	202.846	0.115	-0.178
-710.675	-160.136	0.427	-0.023
-709.660	-25.329	-0.133	0.078
-708.645	800.000	0.087	0.248
-707.631	140.424	0.088	-0.116
-706.616	-200.000	-0.038	-0.276
-705.602	10.771	-0.135	0.103
-704.587	-182.107	0.161	0.003
-703.572	-3.614	-0.083	0.058
-702.558	800.000	-0.060	0.230
-701.543	-39.704	0.258	0.135
-700.529	170.737	0.061	0.087
-699.514	126.563	-0.234	0.296
-698.499	-160.371	0.120	-0.006
-697.485	231.422	0.114	-0.187
-696.470	245.717	-0.127	-0.213
-695.456	183.613	0.116	-0.172
-694.441	66.453	-0.129	-0.131
-693.426	50.593	-0.071	0.068
-692.412	115.664	0.075	-0.091
-691.397	-149.078	-0.414	0.033
-690.383	-168.314	-0.040	0.002
-689.368	-200.000	-0.156	-0.000
-688.354	-46.970	-0.349	0.170
-687.339	-14.685	0.154	0.099
-686.324	93.248	0.070	-0.079
-685.310	-172.234	-0.223	0.007
-684.295	51.698	-0.183	0.174
-683.281	36.086	-0.168	-0.148
-682.266	-9.354	-0.095	0.063
-681.251	-79.811	0.254	-0.086
-680.237	-11.027	-0.179	0.118
-679.222	106.934	-0.132	-0.156
-678.208	-190.956	-0.163	0.002
-677.193	-68.700	-0.360	-0.139
-676.178	56.869	-0.039	0.038
-675.164	800.000	0.029	0.112
-674.149	800.000	-0.061	0.183
-673.135	144.125	0.189	-0.252
-672.120	-68.892	-0.053	0.020
-671.105	800.000	-0.075	-0.209
-670.091	404.759	0.019	0.041
-669.076	-158.176	0.218	-0.013
-668.062	-47.602	0.265	-0.128
-667.047	-60.269	-0.190	0.081
-666.032	-156.398	0.265	0.017
-665.018	-41.755	0.093	0.048
-664.003	15.259	0.061	0.048
-662.989	-41.610	-0.312	0.160
-661.974	800.000	-0.087	-0.367
-660.959	-62.840	-0.314	0.130
-659.945	-200.000	-0.014	-0.218
-658.930	-65.749	-0.415	-0.166
-657.916	67.301	-0.129	0.131
-656.901	-200.000	-0.055	0.260
-655.886	-94.267	0.221	-0.060
-654.872	800.000	0.060	0.197
-653.857	-200.000	0.029	0.273
-652.843	-178.324	-0.217	0.005
-651.828	196.229	0.219	-0.333
-650.814	800.000	-0.062	-0.192
-649.799	363.767	0.088	0.177
-648.784	-29.328	0.260	-0.149
-647.770	82.304	-0.095	0.103
-646.755	77.624	-0.266	0.283
-645.741	-99.329	-0.295	0.074
-644.726	-109.023	0.118	0.025
-643.711	-106.254	-0.050	0.011
-642.697	800.000	-0.093	-0.275
-641.682	-48.955	-0.320	-0.153
-640.668	343.532	0.153	-0.299
-639.653	-200.000	0.015	0.195
-638.638	-62.885	0.212	-0.088
-637.624	-200.000	0.030	0.287
-636.609	101.805	-0.122	-0.142
-635.595	800.000	-0.019	-0.058
-634.580	-39.714	-0.121	0.063
-633.565	-10.349	-0.337	-0.223
-632.551	-200.000	-0.029	-0.150
-631.536	-200.000	0.001	0.165
-630.522	163.731	-0.179	0.251
-629.507	135.124	0.091	-0.118
-628.492	54.146	-0.318	-0.305
-627.478	-75.220	0.035	-0.013
-626.463	-200.000	-0.026	-0.382
-625.449	-108.363	-0.166	-0.036
-624.434	25.103	-0.056	-0.047
-623.419	-173.562	0.339	0.010
-622.405	-60.412	-0.059	-0.025
-621.390	9.546	-0.068	0.052
-620.376	-14.237	0.143	0.092
-619.361	41.833	0.160	-0.145
-618.346	-200.000	0.005	-0.105
-617.332	-36.239	-0.288	-0.155
-616.317	204.249	-0.181	-0.279
-615.303	-73.587	-0.129	-0.047
-614.288	-186.486	-0.252	0.004
-613.273	-200.000	0.001	-0.315
-612.259	-33.153	-0.184	-0.101
-611.244	-57.472	0.332	0.145
-610.230	7.176	-0.219	-0.163
-609.215	-29.917	-0.247	0.140
-608.201	-1.043	-0.145	-0.102
-607.186	-200.000	-0.067	0.326
-606.171	114.069	0.180	0.218
-605.157	-80.960	-0.049	0.016
-604.142	107.929	0.375	-0.445
-603.128	2.801	-0.035	-0.025
-602.113	-135.685	-0.209	0.025
-601.098	-147.487	0.174	0.015
-600.084	7.524	0.254	0.189
-599.069	136.163	-0.124	0.161
-598.055	-58.382	-0.292	-0.127
-597.040	-86.627	-0.238	0.073
-596.025	405.648	0.067	-0.141
-595.011	325.269	-0.118	0.225
-593.996	-200.000	-0.013	-0.177
-592.982	302.761	0.130	0.239
-591.967	800.000	0.053	0.196
-590.952	436.207	0.103	0.224
-589.938	-200.000	0.000	-0.159
-588.923	149.414	-0.156	0.210
-587.909	210.622	0.055	0.086
-586.894	-100.690	-0.130	0.032
-585.879	-163.373	-0.459	-0.022
-584.865	-98.836	-0.102	-0.026
-583.850	293.221	-0.103	0.188
-582.836	-3.855	-0.329	-0.228
-581.821	-133.936	-0.395	-0.049
-580.806	-35.686	-0.215	0.116
-579.792	387.455	0.098	0.201
-578.777	234.274	0.084	0.138
-577.763	207.398	0.072	0.112
-576.748	340.307	0.263	-0.510
-575.733	248.546	0.224	-0.377
-574.719	-152.602	0.448	-0.032
-573.704	-136.590	-0.083	0.010
-572.690	-175.848	-0.115	-0.003
-571.675	95.167	-0.066	-0.075
-570.661	-200.000	-0.055	0.370
-569.646	-200.000	0.021	0.169
-568.631	-144.577	0.188	-0.017
-567.617	216.036	-0.026	0.042
-566.602	471.580	-0.086	-0.193
-565.588	-200.000	0.004	-0.110
-564.573	-162.818	-0.075	-0.004
-563.558	-9.331	-0.213	-0.141
-562.544	123.953	-0.129	-0.161
-561.529	-161.435	0.271	-0.014
-560.515	-20.614	-0.284	0.174
-559.500	25.448	-0.259	-0.214
-558.485	-200.000	0.007	-0.062
-557.471	100.651	-0.132	-0.153
-556.456	271.233	0.084	0.146
-555.442	747.115	-0.081	-0.216
-554.427	18.186	0.126	-0.100
-553.412	672.398	0.090	-0.233
-552.398	-107.118	-0.136	0.030
-551.383	-123.822	-0.159	0.025
-550.369	-111.900	-0.285	0.057
-549.354	106.498	0.226	-0.266
-548.339	0.112	-0.067	-0.047
-547.325	-200.000	0.017	-0.080
-546.310	208.537	0.083	-0.129
-545.296	47.877	0.078	-0.073
-544.281	231.254	0.208	0.339
-543.266	-200.000	-0.053	-0.278
-542.252	-113.081	-0.194	0.038
-541.237	127.968	0.058	0.073
-540.223	389.444	-0.182	0.376
-539.208	-200.000	-0.014	0.189
-538.193	378.371	0.158	-0.321
-537.179	-103.011	-0.350	-0.082
-536.164	396.205	0.156	-0.323
-535.150	-132.057	-0.080	-0.010
-534.135	88.248	0.062	0.069
-533.121	9.500	-0.191	0.144
-532.106	800.000	-0.046	0.165
-531.091	-200.000	0.081	0.000
-530.077	-18.712	0.169	-0.105
-529.062	16.280	-0.082	0.064
-528.048	14.273	0.142	0.110
-527.033	-200.000	0.020	0.171
-526.018	-94.355	-0.394	0.107
-525.004	-25.884	0.368	-0.215
-523.989	-96.392	-0.116	-0.030
-522.975	130.084	-0.103	-0.130
-521.960	-96.501	0.175	0.046
-520.945	-200.000	-0.034	0.241
-519.931	177.025	0.195	-0.281
-518.916	-49.482	-0.366	-0.173
-517.902	66.620	0.077	0.078
-516.887	-112.843	0.280	0.055
-515.872	-84.874	0.254	-0.079
-514.858	-71.771	0.175	-0.065
-513.843	-200.000	-0.040	-0.231
-512.829	-146.551	0.249	-0.021
-511.814	69.260	-0.127	-0.130
-510.799	-200.000	0.054	0.566
-509.785	-100.817	0.182	-0.044
-508.770	-200.000	-0.038	-0.315
-507.756	-85.248	0.163	0.051
-506.741	-200.000	-0.007	0.050
-505.726	-66.738	0.328	-0.129
-504.712	-200.000	0.009	0.111
-503.697	8.790	0.163	-0.122
-502.683	334.940	-0.191	0.368
-501.668	800.000	0.071	-0.244
-500.653	9.333	0.307	-0.230
-499.639	106.156	0.258	0.303
-498.624	-25.146	-0.222	0.131
-497.610	271.535	0.191	-0.334
-496.595	-142.128	-0.315	0.031
-495.581	800.000	-0.053	0.227
-494.566	262.978	0.188	-0.324
-493.551	-200.000	-0.020	-0.131
-492.537	-137.754	0.304	0.034
-491.522	-68.129	-0.208	-0.080
-490.508	39.920	0.161	0.143
-489.493	-76.291	-0.274	0.096
-488.478	104.239	0.046	-0.054
-487.464	-200.000	0.003	0.358
-486.449	800.000	0.084	-0.279
-485.435	-19.861	-0.219	-0.134
-484.420	-200.000	-0.044	0.425
-483.405	365.388	-0.181	-0.362
-482.391	8.324	-0.294	-0.219
-481.376	100.591	0.311	-0.358
-480.362	298.387	-0.109	0.199
-479.347	371.605	-0.118	-0.238
-478.332	-159.121	0.194	0.011
-477.318	216.341	0.037	0.058
-476.303	-200.000	-0.010	0.127
-475.289	-117.771	0.326	0.058
-474.274	-200.000	-0.023	0.163
-473.259	-110.587	-0.243	-0.050
-472.245	109.261	-0.295	-0.350
-471.230	-136.944	-0.168	0.019
-470.216	-200.000	0.026	0.132
-469.201	-43.620	0.382	-0.191
-468.186	-47.425	-0.117	-0.056
-467.172	-60.042	0.137	0.058
-466.157	81.277	0.148	0.159
-465.143	573.475	-0.098	0.236
-464.128	43.564	-0.155	0.140
-463.113	17.394	0.279	0.220
-462.099	-106.474	0.088	-0.019
-461.084	-46.847	0.339	-0.164
-460.070	282.448	0.046	-0.082
-459.055	-200.000	-0.051	-0.249
-458.040	586.408	0.096	0.233
-457.026	-200.000	0.000	0.102
-456.011	-106.169	0.175	0.039
-454.997	65.942	-0.205	-0.206
-453.982	-200.000	0.006	0.218
-452.968	-190.561	-0.049	-0.001
-451.953	155.776	-0.095	-0.129
-450.938	-200.000	0.020	-0.324
-449.924	125.275	0.113	-0.142
-448.909	-52.339	-0.342	-0.157
-447.895	-33.428	0.263	-0.144
-446.880	21.645	-0.046	0.037
-445.865	-132.700	0.320	0.041
-444.851	281.203	-0.099	-0.176
-443.836	-200.000	0.039	0.267
-442.822	565.219	-0.173	-0.416
-441.807	585.543	0.024	-0.059
-440.792	-64.957	0.191	-0.076
-439.778	22.355	0.087	0.071
-438.763	-85.561	0.374	0.115
-437.749	23.220	-0.093	-0.076
-436.734	-200.000	-0.009	0.076
-435.719	-200.000	-0.006	0.070
-434.705	59.866	0.193	-0.189
-433.690	-46.156	-0.368	0.179
-432.676	-51.137	0.245	0.114
-431.661	-25.014	0.230	-0.135
-430.646	800.000	0.055	0.171
-429.632	-157.874	0.271	0.016
-428.617	114.489	-0.075	0.091
-427.603	182.431	-0.108	0.158
-426.588	800.000	-0.030	-0.089
-425.573	-200.000	0.052	0.447
-424.559	278.429	0.076	0.134
-423.544	-81.918	0.309	-0.100
-422.530	-200.000	0.010	-0.112
-421.515	-149.065	-0.054	0.004
-420.500	-141.484	-0.053	0.005
-419.486	65.301	0.117	-0.117
-418.471	99.793	-0.271	0.311
-417.457	-112.768	-0.124	-0.024
-416.442	10.778	0.152	-0.114
-415.428	135.136	-0.239	0.307
-414.413	0.328	-0.123	-0.087
-413.398	63.310	-0.341	0.338
-412.384	75.623	0.094	-0.099
-411.369	11.683	-0.156	-0.118
-410.355	580.307	-0.069	-0.167
-409.340	-2.203	-0.220	-0.153
-408.325	800.000	-0.034	0.112
-407.311	65.727	-0.351	-0.351
-406.296	44.352	-0.024	-0.022
-405.282	-132.726	0.436	-0.055
-404.267	160.584	-0.240	0.330
-403.252	53.006	0.098	-0.093
-402.238	126.785	-0.033	0.042
-401.223	-200.000	0.029	0.201
-400.209	131.752	-0.164	0.208
-399.194	-200.000	0.009	0.066
-398.179	-37.210	-0.298	-0.157
-397.165	38.821	-0.090	-0.079
-396.150	-91.539	0.374	-0.105
-395.136	-86.556	-0.091	-0.028
-394.121	352.007	0.064	0.125
-393.106	800.000	0.071	0.283
-392.092	-152.112	0.294	0.021
-391.077	800.000	0.121	0.418
-390.063	13.448	0.095	0.073
-389.048	143.827	0.113	-0.149
-388.033	-110.138	0.035	-0.007
-387.019	35.592	0.065	-0.056
-386.004	800.000	0.062	0.190
-384.990	-19.624	0.137	0.084
-383.975	140.952	0.057	0.075
-382.960	800.000	0.107	-0.318
-381.946	403.717	-0.110	-0.229
-380.931	-32.074	-0.118	-0.065
-379.917	601.558	0.046	-0.113
-378.902	-200.000	0.006	-0.286
-377.888	-177.484	0.126	-0.003
-376.873	-177.117	0.115	0.003
-375.858	-131.600	-0.385	-0.050
-374.844	-200.000	0.000	0.076
-373.829	-88.181	0.432	-0.128
-372.815	-29.851	-0.142	0.080
-371.800	678.420	-0.047	-0.122
-370.785	1.731	0.053	-0.038
-369.771	40.890	0.165	0.147
-368.756	-200.000	0.003	-0.222
-367.742	-200.000	-0.030	0.168
-366.727	800.000	0.039	-0.165
-365.712	135.324	0.050	-0.065
-364.698	74.898	-0.231	0.240
-363.683	-81.747	-0.324	0.105
-362.669	-10.124	-0.377	0.247
-361.654	49.261	-0.213	0.198
-360.639	-200.000	0.077	0.351
-359.625	-200.000	0.085	-0.492
-358.610	800.000	0.017	0.058
-357.596	-102.004	-0.365	-0.087
-356.581	555.528	-0.116	0.275
-355.566	83.367	0.271	-0.291
-354.552	-107.076	0.197	-0.043
-353.537	800.000	-0.054	0.156
-352.523	418.860	0.127	-0.269
-351.508	800.000	-0.031	0.134
-350.493	-200.000	0.018	0.217
-349.479	10.605	-0.163	0.122
-348.464	-102.343	0.149	0.035
-347.450	6.400	-0.125	0.092
-346.435	-78.289	0.444	-0.150
-345.420	-9.707	0.200	0.131
-344.406	-80.794	0.204	0.067
-343.391	-12.487	-0.150	-0.097
-342.377	291.987	-0.081	0.145
-341.362	-112.341	-0.196	0.039
-340.348	-135.446	-0.135	0.016
-339.333	-28.513	0.194	0.110
-338.318	-88.366	-0.293	-0.086
-337.304	-102.359	0.085	-0.020
-336.289	104.928	-0.234	0.273
-335.275	7.344	0.081	-0.060
-334.260	800.000	0.024	0.096
-333.245	-143.276	0.212	-0.020
-332.231	-65.434	-0.270	-0.107
-331.216	-81.820	0.032	-0.010
-330.202	-200.000	0.032	0.139
-329.187	800.000	0.079	0.326
-328.172	-200.000	-0.022	0.130
-327.158	13.636	-0.167	-0.128
-326.143	800.000	-0.019	-0.075
-325.129	-132.504	0.279	0.035
-324.114	800.000	0.043	-0.182
-323.099	-26.342	-0.095	0.055
-322.085	-137.593	-0.111	0.012
-321.070	-200.000	0.037	-0.260
-320.056	-100.572	0.352	-0.086
-319.041	-105.718	-0.109	0.024
-318.026	800.000	0.094	-0.261
-317.012	787.055	0.131	-0.354
-315.997	49.113	0.240	-0.222
-314.983	199.620	-0.250	0.378
-313.968	681.028	-0.064	-0.164
-312.953	-200.000	-0.013	0.092
-311.939	323.837	-0.036	0.068
-310.924	126.213	-0.082	0.102
-309.910	-16.841	0.384	-0.239
-308.895	-113.241	0.431	-0.083
-307.880	-80.696	0.153	-0.050
-306.866	434.167	0.095	-0.203
-305.851	155.221	0.170	0.230
-304.837	-25.862	0.277	-0.161
-303.822	800.000	-0.045	-0.125
-302.807	-126.385	-0.323	0.047
-301.793	-85.267	-0.038	0.012
-300.778	800.000	-0.116	0.391
-299.764	-200.000	0.025	0.142
-298.749	89.106	-0.094	0.103
-297.735	464.400	0.062	-0.137
-296.720	52.992	0.109	0.103
-295.705	-96.861	-0.146	-0.038
-294.691	29.053	0.055	-0.046
-293.676	800.000	0.012	-0.043
-292.662	189.221	0.118	-0.174
-291.647	800.000	0.032	0.114
-290.632	800.000	0.027	0.091
-289.618	11.769	0.198	-0.149
-288.603	800.000	0.087	-0.289
-287.589	-74.031	-0.153	0.055
-286.574	-200.000	0.020	-0.163
-285.559	-200.000	-0.025	0.228
-284.545	429.982	-0.069	0.146
-283.530	26.136	0.234	0.192
-282.516	-59.241	0.364	-0.154
-281.501	38.160	-0.219	0.192
-280.486	-44.345	0.216	-0.106
-279.472	349.131	0.130	0.252
-278.457	-40.598	-0.280	0.143
-277.443	198.977	0.169	-0.255
-276.428	329.111	-0.186	0.352
-275.413	536.009	0.107	-0.250
-274.399	-117.224	-0.251	-0.045
-273.384	-200.000	0.024	0.323
-272.370	346.348	-0.114	0.220
-271.355	22.352	0.194	0.156
-270.340	130.594	0.233	-0.294
-269.326	505.827	-0.153	0.348
-268.311	-179.253	-0.316	-0.007
-267.297	1.372	0.123	0.087
-266.282	-116.027	0.261	0.048
-265.267	-200.000	-0.080	0.371
-264.253	800.000	-0.054	0.162
-263.238	163.217	-0.105	0.144
-262.224	16.737	0.069	-0.053
-261.209	37.758	-0.110	0.096
-260.195	-175.096	0.312	0.009
-259.180	287.541	-0.174	-0.309
-258.165	20.293	0.288	0.229
-257.151	-200.000	-0.008	-0.040
-256.136	800.000	0.014	-0.058
-255.122	111.374	-0.105	0.125
-254.107	-200.000	-0.004	-0.453
-253.092	-112.297	0.141	0.028
-252.078	-200.000	0.003	-0.306
-251.063	-39.850	-0.165	0.084
-250.049	-130.416	0.295	0.039
-249.034	800.000	0.023	-0.076
-248.019	-15.844	-0.050	0.032
-247.005	20.292	0.226	-0.179
-245.990	-200.000	-0.039	-0.368
-244.976	-200.000	-0.031	-0.291
-243.961	168.863	0.101	0.141
-242.946	-1.040	-0.107	0.075
-241.932	-200.000	0.044	0.227
-240.917	-200.000	0.015	-0.122
-239.903	-200.000	-0.096	0.000
-238.888	-200.000	-0.024	0.255
-237.873	79.736	0.076	0.081
-236.859	125.418	0.173	-0.214
-235.844	-23.619	0.322	-0.189
-234.830	119.198	-0.160	0.195
-233.815	-197.505	-0.086	-0.001
-232.800	-12.717	0.087	-0.056
-231.786	800.000	0.078	0.332
-230.771	357.467	0.132	0.259
-229.757	-200.000	-0.063	0.323
-228.742	800.000	-0.100	0.321
-227.727	-200.000	-0.014	0.283
-226.713	-176.804	-0.061	0.002
-225.698	-2.382	-0.144	0.099
-224.684	15.413	0.076	0.058
-223.669	-200.000	-0.048	0.238
-222.655	308.487	-0.038	0.070
-221.640	-112.090	0.277	0.055
-220.625	252.732	0.160	0.267
-219.611	-200.000	-0.014	0.252
-218.596	-40.242	-0.387	-0.197
-217.582	800.000	0.091	-0.307
-216.567	284.823	-0.007	-0.013
-215.552	9.376	-0.215	0.159
-214.538	131.542	-0.196	0.247
-213.523	-25.645	-0.068	0.039
-212.509	-64.485	-0.092	-0.037
-211.494	-72.400	-0.433	-0.157
-210.479	-200.000	0.011	-0.243
-209.465	29.665	0.135	0.113
-208.450	-76.760	-0.133	0.046
-207.436	60.783	0.101	-0.099
-206.421	800.000	0.047	-0.146
-205.406	63.004	-0.140	0.138
-204.392	-58.598	-0.179	0.076
-203.377	300.961	0.082	0.149
-202.363	-143.323	-0.243	-0.023
-201.348	800.000	0.082	-0.287
-200.333	-163.997	0.349	0.016
-199.319	-41.562	-0.227	-0.114
-198.304	-200.000	-0.025	-0.191
-197.290	-10.403	-0.276	0.179
-196.275	226.117	0.187	0.297
-195.260	800.000	0.121	-0.350
-194.246	-200.000	0.017	0.233
-193.231	-200.000	0.060	0.325
-192.217	-200.000	0.002	0.020
-191.202	-111.823	0.094	-0.019
-190.187	189.193	0.120	-0.176
-189.173	-200.000	-0.071	0.387
-188.158	-200.000	-0.017	-0.169
-187.144	36.472	-0.310	-0.268
-186.129	800.000	0.038	-0.124
-185.114	144.290	0.070	-0.091
-184.100	800.000	-0.016	-0.056
-183.085	-200.000	-0.042	0.219
-182.071	273.854	-0.194	0.336
-181.056	-45.544	0.122	-0.059
-180.042	533.118	-0.104	-0.240
-179.027	-157.468	-0.145	-0.009
-178.012	-145.636	0.401	0.035
-176.998	113.868	0.064	-0.076
-175.983	133.536	0.142	-0.180
-174.969	800.000	0.074	0.224
-173.954	158.061	0.221	-0.300
-172.939	-58.030	-0.196	-0.084
-171.925	-61.838	0.368	0.151
-170.910	-52.390	0.205	-0.093
-169.896	800.000	0.049	0.209
-168.881	-178.070	-0.169	-0.004
-167.866	-74.901	-0.351	0.123
-166.852	-200.000	0.071	0.000
-165.837	726.152	-0.025	0.064
-164.823	-134.488	-0.439	-0.053
-163.808	97.944	-0.264	0.297
-162.793	-45.932	-0.134	0.065
-161.779	-200.000	-0.064	-0.321
-160.764	-200.000	0.002	-0.072
-159.750	-200.000	-0.010	-0.076
-158.735	-80.811	-0.126	0.041
-157.720	28.371	0.249	0.206
-156.706	-200.000	-0.021	-0.300
-155.691	800.000	0.033	-0.093
-154.677	373.596	0.121	-0.240
-153.662	697.012	0.023	-0.059
-152.647	800.000	0.054	0.149
-151.633	-200.000	0.074	-0.351
-150.618	-30.111	0.296	0.165
-149.604	175.754	-0.102	0.144
-148.589	243.660	-0.104	0.172
-147.574	554.051	-0.074	-0.173
-146.560	-200.000	0.034	0.261
-145.545	-117.873	0.171	-0.030
-144.531	-200.000	0.054	0.247
-143.516	-58.454	0.230	-0.098
-142.502	45.755	0.113	0.102
-141.487	-68.286	0.113	-0.043
-140.472	-200.000	0.010	0.378
-139.458	11.407	-0.092	-0.069
-138.443	-95.914	0.189	0.049
-137.429	800.000	-0.024	0.076
-136.414	-76.179	0.211	0.073
-135.399	-159.944	0.451	-0.024
-134.385	-31.221	0.081	-0.045
-133.370	-21.364	0.134	0.080
-132.356	-140.535	-0.147	-0.015
-131.341	-120.282	-0.352	-0.059
-130.326	800.000	0.016	0.058
-129.312	6.664	-0.264	0.192
-128.297	800.000	0.028	0.100
-127.283	-132.368	-0.422	-0.053
-126.268	-200.000	-0.006	0.073
-125.253	121.655	0.103	0.126
-124.239	453.761	0.027	0.058
-123.224	-200.000	0.025	0.112
-122.210	-94.640	0.072	-0.019
-121.195	-165.597	-0.104	-0.004
-120.180	244.400	-0.213	0.350
-119.166	96.919	-0.132	0.148
-118.151	-1.324	-0.051	0.035
-117.137	-153.855	0.082	-0.005
-116.122	668.788	-0.097	-0.245
-115.107	-74.782	-0.469	-0.165
-114.093	121.717	0.176	0.214
-113.078	-32.057	-0.048	0.026
-112.064	-200.000	-0.008	0.527
-111.049	-157.689	0.257	-0.015
-110.034	-67.436	0.202	0.078
-109.020	-200.000	-0.003	-0.021
-108.005	800.000	0.079	-0.269
-106.991	181.229	0.105	-0.151
-105.976	35.403	0.102	0.087
-104.962	-97.949	-0.267	0.067
-103.947	47.113	0.088	0.080
-102.932	800.000	0.069	0.251
-101.918	-200.000	-0.001	-0.138
-100.903	-98.157	-0.067	-0.017
-99.889	13.631	0.016	0.012
-98.874	66.791	-0.027	0.027
-97.859	-200.000	0.027	-0.266
-96.845	182.153	-0.160	-0.230
-95.830	-104.554	-0.133	0.030
-94.816	348.610	0.017	0.032
-93.801	-200.000	-0.029	-0.133
-92.786	800.000	-0.075	0.213
-91.772	-200.000	-0.019	-0.102
-90.757	-141.633	0.250	-0.025
-89.743	-126.082	-0.280	-0.041
-88.728	-32.138	-0.186	0.102
-87.713	-8.399	0.213	-0.140
-86.699	-200.000	0.030	0.252
-85.684	70.444	-0.211	0.213
-84.670	-84.571	0.194	0.060
-83.655	438.807	0.034	-0.072
-82.640	-96.771	-0.236	-0.061
-81.626	-200.000	-0.048	0.408
-80.611	311.470	0.126	0.230
-79.597	800.000	0.080	0.293
-78.582	24.145	-0.179	0.144
-77.567	-200.000	0.027	0.208
-76.553	135.102	-0.126	-0.160
-75.538	270.982	0.114	0.196
-74.524	-200.000	-0.026	0.293
-73.509	-95.182	-0.123	0.032
-72.494	-100.989	0.098	0.023
-71.480	146.550	0.071	-0.093
-70.465	453.159	-0.147	-0.318
-69.451	96.856	-0.090	0.101
-68.436	-104.110	-0.222	-0.050
-67.422	430.944	-0.061	0.129
-66.407	800.000	0.090	-0.308
-65.392	49.260	-0.086	0.079
-64.378	55.369	-0.042	0.040
-63.363	34.698	-0.207	0.177
-62.349	-30.849	0.095	-0.053
-61.334	172.096	-1.134	-1.590
-60.319	413.630	0.504	1.045
-59.305	488.705	-0.586	-1.306
-58.290	305.523	0.678	1.229
-57.276	329.221	0.736	1.380
-56.261	-200.000	121.972	619.122
-55.246	388.026	1568.704	3163.747
-54.232	140.965	2742.377	3534.376
-53.217	93.795	2204.876	2435.888
-52.203	34.524	1717.715	1462.405
-51.188	26.908	1533.830	1253.427
-50.173	24.799	1509.840	1219.416
-49.159	47.918	1579.342	1438.008
-48.144	45.383	1592.289	1432.019
-47.130	26.905	1542.469	1260.269
-46.115	24.025	1526.461	1227.310
-45.100	23.832	1522.603	1222.830
-44.086	23.846	1521.037	1221.621
-43.071	23.808	1519.067	1219.732
-42.057	23.793	1517.044	1217.951
-41.042	23.776	1516.068	1217.005
-40.027	23.822	1514.476	1215.991
-39.013	23.729	1513.105	1214.209
-37.998	23.797	1511.521	1213.356
-36.984	23.782	1510.598	1212.462
-35.969	23.801	1509.023	1211.280
-34.954	23.811	1507.493	1210.069
-33.940	23.745	1506.286	1208.608
-32.925	23.840	1504.781	1207.999
-31.911	23.866	1503.158	1206.825
-30.896	23.878	1502.385	1206.236
-29.881	23.950	1500.878	1205.462
-28.867	23.905	1499.855	1204.291
-27.852	23.797	1498.612	1202.512
-26.838	23.886	1496.818	1201.627
-25.823	23.897	1495.127	1200.298
-24.809	23.846	1493.956	1198.964
-23.794	23.827	1492.078	1197.285
-22.779	23.835	1491.134	1196.533
-21.765	23.882	1489.716	1195.665
-20.750	23.822	1489.380	1194.942
-19.736	23.848	1487.750	1193.764
-18.721	23.852	1486.646	1192.858
-17.706	23.744	1485.980	1191.548
-16.692	23.728	1485.086	1190.677
-15.677	23.855	1483.764	1190.418
-14.663	23.793	1482.728	1189.129
-13.648	23.713	1481.769	1187.773
-12.633	23.779	1480.801	1187.392
-11.619	23.878	1479.882	1187.271
-10.604	23.823	1479.088	1186.223
-9.590	23.770	1478.346	1185.227
-8.575	23.721	1477.159	1183.900
-7.560	23.836	1476.395	1184.008
-6.546	23.816	1475.130	1182.813
-5.531	23.786	1474.382	1181.963
-4.517	23.753	1473.509	1180.999
-3.502	23.761	1472.652	1180.316
-2.487	23.839	1471.801	1180.107
-1.473	23.726	1470.525	1178.288
-0.458	23.779	1469.142	1177.485
0.556	22.723	1459.734	1167.204
1.571	19.975	1435.321	1129.679
2.586	16.900	1373.217	1061.480
3.600	15.426	1288.442	987.197
4.615	14.239	1245.365	947.355
5.629	12.633	1188.318	895.151
6.644	6.464	1104.823	800.907
7.659	1.459	1068.359	749.760
8.673	0.811	1063.273	742.940
9.688	0.675	1060.105	739.993
10.702	0.630	1058.347	738.482
11.717	0.595	1056.749	737.130
12.731	2.611	1057.887	747.703
13.746	9.100	1066.061	785.235
14.761	14.999	1073.493	819.614
15.775	17.076	1076.043	831.678
16.790	16.943	1074.556	829.800
17.804	15.898	1072.589	823.101
18.819	14.979	1071.172	817.457
19.834	14.411	1070.155	813.833
20.848	14.374	1068.481	812.308
21.863	13.986	1068.145	810.091
22.877	13.747	1067.494	808.361
23.892	13.554	1066.433	806.547
24.907	13.464	1065.067	805.002
25.921	13.612	1063.800	804.694
26.936	13.584	1064.216	804.801
27.950	13.536	1063.398	803.877
28.965	13.605	1062.419	803.400
29.980	13.723	1061.272	803.033
30.994	13.803	1060.285	802.605
32.009	13.880	1059.479	802.293
33.023	13.898	1058.661	801.691
34.038	13.777	1057.995	800.531
35.053	13.687	1057.583	799.714
36.067	13.669	1056.458	798.704
37.082	13.679	1055.479	797.942
38.096	13.725	1054.495	797.351
39.111	13.734	1053.937	796.901
40.126	13.772	1052.782	796.139
41.140	13.636	1051.856	794.718
42.155	13.589	1051.040	793.804
43.169	13.611	1049.977	793.038
44.184	13.572	1049.341	792.301
45.199	13.559	1048.103	791.235
46.213	13.628	1046.613	790.369
47.228	13.692	1045.608	789.845
48.242	13.597	1044.687	788.627
49.257	13.697	1044.137	788.616
50.271	13.596	1043.022	787.226
51.286	13.580	1042.158	786.428
52.301	13.770	1040.871	786.287
53.315	13.630	1040.764	785.471
54.330	13.610	1039.901	784.659
55.344	13.638	1038.625	783.756
56.359	13.576	1037.629	782.643
57.374	13.724	1036.958	782.769
58.388	13.665	1035.517	781.332
59.403	13.584	1034.765	780.312
60.417	13.507	1034.271	779.509
61.432	13.482	1033.356	778.634
62.447	13.594	1032.678	778.582
63.461	13.564	1031.463	777.452
64.476	13.529	1030.867	776.773
65.490	13.411	1030.236	775.675
66.505	13.597	1028.886	775.460
67.520	13.484	1028.815	774.810
68.534	13.549	1027.686	774.194
69.549	13.529	1026.846	773.402
70.563	13.469	1026.818	773.032
71.578	13.551	1025.513	772.364
72.593	13.642	1024.642	772.060
73.607	13.479	1023.672	770.502
74.622	13.486	1022.807	769.817
75.636	13.415	1022.069	768.864
76.651	13.444	1021.123	768.217
77.666	13.422	1020.494	767.575
78.680	13.551	1019.506	767.365
79.695	13.447	1019.130	766.531
80.709	13.462	1018.830	766.307
81.724	13.684	1017.257	766.079
82.739	13.535	1017.005	765.135
83.753	13.680	1015.802	764.832
84.768	13.665	1015.382	764.380
85.782	13.720	1014.682	764.035
86.797	13.668	1013.683	762.979
87.812	13.687	1013.012	762.492
88.826	13.677	1011.626	761.338
89.841	13.674	1010.987	760.772
90.855	13.707	1010.372	760.398
91.870	13.639	1009.781	759.569
92.884	13.720	1008.893	759.207
93.899	13.707	1008.108	758.489
94.914	13.864	1007.100	758.382
95.928	13.748	1007.003	757.711
96.943	13.717	1005.900	756.673
97.957	13.818	1005.271	756.593
98.972	13.766	1004.149	755.443
99.987	13.738	1003.567	754.814
101.001	13.754	1003.035	754.420
102.016	13.757	1002.046	753.622
103.030	13.751	1001.148	752.850
104.045	13.722	999.900	751.717
105.060	13.839	998.967	751.479
106.074	13.870	998.079	750.884
107.089	13.724	997.131	749.445
108.103	13.749	996.782	749.228
109.118	13.617	995.637	747.706
110.133	13.759	994.349	747.312
111.147	13.522	994.201	746.068
112.162	13.679	992.965	745.782
113.176	13.675	991.821	744.838
114.191	13.673	991.065	744.196
115.206	13.857	989.949	744.114
116.220	13.773	989.237	743.140
117.235	13.682	988.805	742.343
118.249	13.739	987.698	741.697
119.264	13.776	986.415	740.834
120.279	13.753	986.062	740.400
121.293	13.742	985.420	739.803
122.308	13.772	984.410	739.116
123.322	13.648	983.804	738.043
124.337	13.637	982.554	736.990
125.352	13.578	981.780	736.081
126.366	13.658	980.635	735.514
127.381	13.691	979.306	734.599
128.395	13.612	978.326	733.447
129.410	13.695	977.080	732.815
130.424	13.683	976.450	732.226
131.439	13.660	975.233	731.149
132.454	13.706	974.424	730.678
133.468	13.892	973.573	730.795
134.483	13.765	973.428	730.061
135.497	13.796	972.413	729.374
136.512	13.655	971.780	728.215
137.527	13.650	971.105	727.624
138.541	13.778	970.379	727.576
139.556	13.665	969.446	726.318
140.570	13.724	968.791	726.020
141.585	13.809	967.571	725.415
142.600	13.858	967.307	725.365
143.614	13.940	966.562	725.098
144.629	13.907	965.710	724.253
145.643	13.882	964.853	723.438
146.658	13.911	963.963	722.830
147.673	13.795	963.024	721.560
148.687	13.858	962.125	721.097
149.702	13.762	960.986	719.763
150.716	13.949	960.122	719.863
151.731	13.903	959.565	719.183
152.746	13.859	958.709	718.287
153.760	13.967	957.977	718.138
154.775	13.848	957.312	717.064
155.789	13.917	956.265	716.513
156.804	13.895	955.858	716.053
157.819	13.813	955.599	715.439
158.833	14.030	954.374	715.393
159.848	14.043	953.435	714.684
160.862	14.059	952.905	714.289
161.877	14.088	951.779	713.509
162.892	13.997	951.358	712.737
163.906	14.061	950.546	712.342
164.921	13.987	949.478	711.163
165.935	13.931	948.739	710.306
166.950	13.992	947.541	709.605
167.964	14.064	946.585	709.137
168.979	14.101	945.957	708.759
169.994	13.981	944.574	707.149
171.008	13.996	944.086	706.785
172.023	14.073	943.205	706.393
173.037	14.200	942.605	706.417
174.052	14.175	941.522	705.436
175.067	14.121	941.286	704.972
176.081	14.061	940.232	703.864
177.096	14.007	939.631	703.125
178.110	14.121	938.785	702.911
179.125	14.252	937.796	702.662
180.140	14.040	937.202	701.259
181.154	14.051	936.866	700.994
182.169	14.282	935.454	700.846
183.183	14.132	935.537	700.215
184.198	14.304	934.260	699.918
185.213	14.338	933.568	699.481
186.227	14.276	933.523	699.127
187.242	14.255	933.193	698.729
188.256	14.329	932.267	698.286
189.271	14.265	931.094	697.076
190.286	14.334	930.414	696.796
191.300	14.241	930.054	696.072
192.315	14.175	929.476	695.304
193.329	14.172	928.519	694.515
194.344	14.225	928.073	694.341
195.359	14.304	927.403	694.108
196.373	14.362	926.602	693.687
197.388	14.467	926.125	693.707
198.402	14.398	925.890	693.179
199.417	14.324	925.514	692.530
200.432	14.547	924.922	692.954
201.446	14.453	924.396	692.109
202.461	14.584	923.827	692.163
203.475	14.461	923.385	691.263
204.490	14.770	922.196	691.589
205.504	14.624	921.578	690.462
206.519	14.442	921.190	689.355
207.534	14.487	920.373	688.868
208.548	14.406	919.835	688.073
209.563	14.451	919.140	687.678
210.577	14.569	918.073	687.305
211.592	14.517	918.117	687.061
212.607	14.895	916.519	687.359
213.621	14.667	916.377	686.252
214.636	14.675	915.947	685.905
215.650	14.623	915.086	684.987
216.665	14.513	915.066	684.461
217.680	14.650	914.386	684.452
218.694	14.668	913.998	684.173
219.709	14.722	913.211	683.744
220.723	14.734	912.663	683.325
221.738	14.781	911.793	682.805
222.753	14.763	910.807	681.930
223.767	14.834	909.590	681.248
224.782	14.904	909.380	681.318
225.796	14.901	908.763	680.783
226.811	14.966	907.942	680.371
227.826	14.841	907.201	679.250
228.840	14.958	906.805	679.367
229.855	14.919	906.490	678.912
230.869	14.883	905.178	677.724
231.884	14.995	904.584	677.671
232.899	14.829	903.690	676.273
233.913	14.833	903.119	675.799
234.928	14.883	902.657	675.595
235.942	14.858	901.945	674.903
236.957	14.905	900.997	674.322
237.972	14.865	900.646	673.839
238.986	14.743	900.021	672.821
240.001	14.799	899.275	672.431
241.015	14.929	898.814	672.548
242.030	15.020	897.685	672.008
243.045	14.981	897.399	671.579
244.059	14.924	896.813	670.855
245.074	14.981	896.055	670.456
246.088	14.951	895.511	669.869
247.103	14.917	894.925	669.237
248.117	15.108	894.314	669.481
249.132	14.981	893.770	668.509
250.147	15.204	892.914	668.698
251.161	15.195	892.348	668.180
252.176	15.306	891.364	667.828
253.190	15.241	890.979	667.219
254.205	15.322	890.280	666.960
255.220	15.307	889.938	666.584
256.234	15.259	889.446	665.965
257.249	15.284	888.728	665.468
258.263	15.291	887.746	664.702
259.278	15.380	887.254	664.628
260.293	15.476	886.642	664.491
261.307	15.506	886.238	664.249
262.322	15.534	885.827	663.992
263.336	15.437	885.096	663.003
264.351	15.672	884.144	663.157
265.366	15.754	883.449	662.899
266.380	15.569	883.225	661.944
267.395	15.557	882.601	661.370
268.409	15.682	881.380	660.889
269.424	15.529	880.898	659.868
270.439	15.564	880.372	659.553
271.453	15.559	879.404	658.751
272.468	15.665	878.658	658.550
273.482	15.600	878.065	657.793
274.497	15.551	877.406	657.047
275.512	15.605	876.600	656.599
276.526	15.518	876.281	655.959
277.541	15.609	875.512	655.682
278.555	15.622	874.805	655.146
279.570	15.614	874.405	654.755
280.585	15.693	873.690	654.473
281.599	15.910	872.658	654.485
282.614	15.837	872.242	653.830
283.628	15.870	872.020	653.732
284.643	15.798	871.287	652.849
285.657	15.699	871.002	652.193
286.672	15.695	870.594	651.814
287.687	15.885	869.998	652.044
288.701	15.829	869.456	651.366
289.716	15.776	868.841	650.641
290.730	15.719	868.566	650.156
291.745	15.868	867.647	649.988
292.760	15.805	866.827	649.072
293.774	16.002	865.650	648.891
294.789	15.955	865.425	648.486
295.803	16.048	865.291	648.687
296.818	15.968	864.370	647.629
297.833	15.911	863.626	646.796
298.847	15.981	863.191	646.682
299.862	16.051	861.939	645.953
300.876	15.992	861.399	645.266
301.891	16.107	860.744	645.158
302.906	16.060	860.463	644.712
303.920	16.252	859.881	644.952
304.935	16.308	858.750	644.262
305.949	16.082	858.899	643.453
306.964	16.227	857.704	643.055
307.979	16.198	857.022	642.376
308.993	16.231	856.995	642.423
310.008	16.124	856.600	641.662
311.022	16.291	855.889	641.711
312.037	16.224	855.614	641.193
313.052	16.419	854.464	641.014
314.066	16.232	854.360	640.171
315.081	16.304	853.277	639.572
316.095	16.435	852.739	639.608
317.110	16.240	852.289	638.477
318.125	16.278	851.662	638.096
319.139	16.364	850.998	637.866
320.154	16.280	851.043	637.526
321.168	16.194	850.619	636.829
322.183	16.235	849.958	636.432
323.197	16.414	848.947	636.290
324.212	16.394	848.311	635.682
325.227	16.420	848.136	635.594
326.241	16.371	847.490	634.868
327.256	16.304	847.124	634.288
328.270	16.462	846.555	634.399
329.285	16.246	846.274	633.320
330.300	16.308	845.606	632.996
331.314	16.417	844.608	632.602
332.329	16.437	843.977	632.148
333.343	16.372	843.493	631.488
334.358	16.537	842.841	631.558
335.373	16.422	842.365	630.716
336.387	16.602	841.725	630.853
337.402	16.576	841.208	630.314
338.416	16.629	840.603	630.003
339.431	16.563	840.318	629.486
340.446	16.709	839.385	629.274
341.460	16.732	838.776	628.847
342.475	16.799	838.252	628.646
343.489	16.668	837.980	627.903
344.504	16.799	837.326	627.842
345.519	16.973	836.421	627.753
346.533	16.848	836.095	626.988
347.548	16.918	835.706	626.900
348.562	16.872	834.896	626.066
349.577	16.776	834.923	625.680
350.592	16.789	834.365	625.254
351.606	16.812	833.410	624.568
352.621	16.825	833.250	624.441
353.635	16.830	832.766	624.039
354.650	16.885	832.418	623.925
355.665	16.885	832.132	623.657
356.679	16.911	831.540	623.253
357.694	16.732	831.145	622.245
358.708	17.000	830.120	622.408
359.723	17.008	829.533	621.940
360.738	17.006	829.077	621.535
361.752	17.006	828.344	620.931
362.767	17.001	828.210	620.756
363.781	16.890	827.872	620.045
364.796	16.990	827.650	620.187
365.810	16.946	827.360	619.756
366.825	17.075	826.628	619.623
367.840	17.024	826.131	619.009
368.854	17.160	825.903	619.279
369.869	17.228	825.109	618.876
370.883	17.205	824.537	618.311
371.898	17.220	823.895	617.828
372.913	17.158	823.402	617.179
373.927	17.102	823.132	616.716
374.942	17.229	822.578	616.709
375.956	17.180	821.959	616.013
376.971	17.230	821.261	615.616
377.986	17.253	821.144	615.558
379.000	17.305	820.670	615.337
380.015	17.258	820.020	614.625
381.029	17.391	819.288	614.501
382.044	17.385	818.621	613.926
383.059	17.409	818.000	613.490
384.073	17.387	817.865	613.256
385.088	17.483	817.155	613.015
386.102	17.463	816.283	612.235
387.117	17.412	815.735	611.587
388.132	17.407	815.610	611.420
389.146	17.496	814.975	611.211
390.161	17.376	815.100	610.820
391.175	17.417	814.757	610.655
392.190	17.522	814.096	610.483
393.205	17.550	813.483	610.068
394.219	17.459	813.037	609.356
395.234	17.488	812.364	608.901
396.248	17.691	811.589	608.990
397.263	17.634	811.132	608.391
398.278	17.475	811.455	608.012
399.292	17.313	811.058	607.082
400.307	17.543	810.011	607.064
401.321	17.621	809.804	607.134
402.336	17.512	809.381	606.374
403.350	17.622	808.660	606.170
404.365	17.623	808.681	606.137
405.380	17.624	808.040	605.608
406.394	17.696	807.334	605.281
407.409	17.707	807.365	605.289
408.423	17.828	806.424	604.957
409.438	17.893	806.182	604.954
410.453	17.768	805.627	604.043
411.467	17.748	805.546	603.855
412.482	17.822	804.679	603.416
413.496	17.924	804.254	603.402
414.511	17.784	804.064	602.712
415.526	17.950	803.543	602.855
416.540	17.911	803.432	602.579
417.555	17.953	802.679	602.111
418.569	17.882	802.481	601.659
419.584	17.995	801.988	601.634
420.599	17.977	801.440	601.104
421.613	114.419	1297.733	1487.401
422.628	98.718	1370.001	1487.469
