DTS Sentinel unit serial number:	SN413079Multiplexer serial number:	ORYXHardware model number:	OX4-SRSoftware version number:	ORYX F/W v4.00 Oryx Data Collector v3.7.2.0data status	okinstallation	princeton_trtdifferential loss correction	single-endedforward channel	channel 3reverse channel	N/Adate	2019/09/16time	05:28:35forward acquisition time	60.00reverse acquisition time	0.00gamma	496.2192k internal	0.2335k external	0.2335temperature offset calibration	0.9959default loss term (dB/km)	0.3790temperature slope calibration	1.0000multiplexer offset coefficient	1.0000multiplexer slope coefficient	1.0000fibre end	0.00T internal ref (°C)	27.27T ext. ref 1 (°C)	11.11T ext. ref 2 (°C)	22.09length (m)	temperature (°C)	Stokes	anti-Stokes-747.200	37.340	-0.034	0.030
-746.185	-121.468	-0.088	0.015
-745.171	55.683	-0.111	-0.108
-744.156	-60.384	0.062	0.026
-743.142	-105.209	-0.143	-0.033
-742.127	-200.000	-0.050	0.285
-741.112	-175.318	-0.153	-0.004
-740.098	-200.000	0.062	-0.343
-739.083	86.174	0.164	0.182
-738.069	-125.515	-0.114	0.017
-737.054	625.384	0.050	0.126
-736.039	-148.401	-0.226	0.019
-735.025	-35.436	-0.056	0.031
-734.010	-135.141	-0.112	-0.014
-732.996	-200.000	0.041	-0.197
-731.981	800.000	-0.025	0.101
-730.966	-147.539	0.117	0.010
-729.952	-200.000	-0.074	0.344
-728.937	15.981	0.138	-0.109
-727.923	-28.208	-0.277	-0.161
-726.908	90.427	-0.346	-0.389
-725.894	800.000	-0.058	0.181
-724.879	106.423	-0.318	0.379
-723.864	305.831	-0.109	0.204
-722.850	-112.603	-0.058	-0.012
-721.835	272.178	-0.066	-0.117
-720.821	190.682	-0.100	0.151
-719.806	441.385	-0.169	-0.371
-718.791	-18.869	-0.206	-0.129
-717.777	-118.113	0.107	0.019
-716.762	-200.000	-0.014	-0.121
-715.748	-200.000	0.010	0.105
-714.733	123.539	0.125	0.158
-713.718	-200.000	-0.022	-0.183
-712.704	800.000	0.030	0.113
-711.689	800.000	-0.096	-0.349
-710.675	-200.000	0.022	-0.180
-709.660	127.169	-0.085	-0.109
-708.645	214.023	0.107	0.171
-707.631	-44.196	-0.021	0.011
-706.616	267.957	-0.072	-0.126
-705.602	255.710	-0.182	0.314
-704.587	37.841	-0.064	-0.057
-703.572	-54.965	-0.191	0.086
-702.558	63.113	0.175	-0.176
-701.543	-0.941	0.074	0.052
-700.529	-34.136	-0.052	0.029
-699.514	27.866	0.103	-0.087
-698.499	464.368	-0.057	0.127
-697.485	225.542	0.157	-0.255
-696.470	237.103	0.189	-0.315
-695.456	-82.960	-0.241	0.078
-694.441	-177.762	0.518	-0.013
-693.426	518.629	0.097	0.228
-692.412	430.127	0.112	-0.243
-691.397	-200.000	0.021	-0.209
-690.383	800.000	-0.087	-0.263
-689.368	800.000	0.004	0.017
-688.354	-31.695	0.469	-0.264
-687.339	4.521	-0.307	-0.226
-686.324	-63.751	0.085	-0.035
-685.310	-200.000	0.006	0.107
-684.295	160.326	-0.198	-0.277
-683.281	-138.920	-0.186	0.020
-682.266	-200.000	0.011	-0.111
-681.251	103.098	-0.090	-0.106
-680.237	-200.000	0.018	0.178
-679.222	92.364	-0.139	0.157
-678.208	-200.000	0.050	-0.341
-677.193	706.562	0.079	-0.210
-676.178	20.032	-0.231	0.187
-675.164	-38.193	0.052	-0.028
-674.149	11.933	0.296	0.228
-673.135	-200.000	-0.100	-0.000
-672.120	-200.000	-0.004	0.053
-671.105	-8.859	0.170	0.114
-670.091	398.322	-0.067	-0.141
-669.076	800.000	-0.132	-0.366
-668.062	800.000	0.125	0.497
-667.047	371.642	-0.089	0.181
-666.032	800.000	-0.069	0.211
-665.018	-200.000	-0.003	-0.038
-664.003	93.914	0.133	-0.151
-662.989	-200.000	-0.048	-0.389
-661.974	631.645	0.115	0.291
-660.959	-65.041	-0.126	0.051
-659.945	13.045	0.243	-0.189
-658.930	95.286	0.181	0.206
-657.916	-200.000	-0.038	-0.306
-656.901	-93.294	0.375	-0.104
-655.886	63.696	-0.110	-0.110
-654.872	-173.418	-0.300	-0.009
-653.857	-20.332	0.110	-0.068
-652.843	800.000	-0.095	-0.317
-651.828	-200.000	-0.060	-0.391
-650.814	-200.000	-0.009	-0.180
-649.799	614.189	0.113	-0.284
-648.784	-16.552	-0.079	-0.050
-647.770	456.139	0.104	0.231
-646.755	372.660	-0.174	0.354
-645.741	280.808	0.054	-0.096
-644.726	212.175	0.074	-0.117
-643.711	-67.116	0.230	0.091
-642.697	56.909	-0.357	-0.349
-641.682	800.000	0.081	0.299
-640.668	58.835	-0.045	-0.044
-639.653	-67.341	0.072	-0.028
-638.638	-90.017	-0.362	-0.106
-637.624	-200.000	-0.030	0.204
-636.609	-82.721	-0.085	0.027
-635.595	-200.000	-0.002	0.025
-634.580	-200.000	0.010	-0.121
-633.565	51.217	-0.292	-0.278
-632.551	794.766	0.167	-0.460
-631.536	800.000	0.027	-0.118
-630.522	-200.000	0.025	-0.175
-629.507	296.756	0.142	-0.260
-628.492	70.283	-0.222	-0.230
-627.478	800.000	0.043	0.166
-626.463	-200.000	0.028	-0.139
-625.449	492.225	-0.058	0.134
-624.434	-165.518	0.404	0.018
-623.419	-124.938	-0.263	-0.041
-622.405	800.000	-0.056	0.202
-621.390	800.000	-0.100	-0.340
-620.376	136.702	0.252	0.329
-619.361	-75.834	-0.057	-0.020
-618.346	-200.000	0.013	-0.322
-617.332	-200.000	-0.044	-0.262
-616.317	81.881	-0.220	-0.239
-615.303	39.249	-0.079	-0.070
-614.288	800.000	-0.098	0.391
-613.273	800.000	0.045	0.178
-612.259	-41.253	0.135	-0.070
-611.244	800.000	-0.009	-0.030
-610.230	202.405	0.106	-0.163
-609.215	-58.523	-0.158	-0.069
-608.201	50.496	0.101	-0.095
-607.186	-30.443	0.118	-0.067
-606.171	97.403	-0.218	0.251
-605.157	-75.563	-0.266	0.094
-604.142	-113.430	-0.352	-0.069
-603.128	-48.940	-0.214	0.102
-602.113	800.000	0.088	0.251
-601.098	-76.376	0.086	0.030
-600.084	-148.222	-0.262	0.022
-599.069	409.007	-0.185	-0.392
-598.055	125.044	-0.049	0.061
-597.040	-45.236	-0.163	-0.081
-596.025	2.722	-0.291	-0.211
-595.011	-97.601	0.123	0.032
-593.996	-125.637	-0.475	0.072
-592.982	-200.000	-0.029	-0.381
-591.967	14.826	0.142	-0.111
-590.952	-147.160	-0.359	-0.031
-589.938	-30.079	0.223	-0.127
-588.923	-105.058	0.181	-0.041
-587.909	800.000	0.068	-0.228
-586.894	265.887	0.149	-0.259
-585.879	800.000	-0.052	0.181
-584.865	336.909	-0.050	-0.096
-583.850	-71.847	0.222	-0.083
-582.836	124.065	0.088	-0.110
-581.821	122.385	-0.069	-0.087
-580.806	-134.449	-0.145	-0.018
-579.792	-78.308	0.114	-0.039
-578.777	-40.247	-0.261	-0.135
-577.763	-62.316	0.478	0.199
-576.748	25.132	-0.231	-0.191
-575.733	55.388	0.134	0.130
-574.719	-104.378	0.027	0.006
-573.704	-114.916	0.003	-0.000
-572.690	218.700	0.119	0.190
-571.675	-23.026	-0.316	0.190
-570.661	13.887	0.166	0.129
-569.646	-2.957	0.047	-0.033
-568.631	142.234	0.183	0.242
-567.617	800.000	-0.044	0.168
-566.602	45.371	0.021	-0.019
-565.588	800.000	-0.061	-0.169
-564.573	50.481	0.471	0.444
-563.558	800.000	-0.024	-0.075
-562.544	-200.000	0.004	0.163
-561.529	65.634	-0.061	0.062
-560.515	-102.743	-0.265	-0.063
-559.500	-200.000	-0.001	-0.038
-558.485	-200.000	-0.010	-0.091
-557.471	2.755	-0.178	0.129
-556.456	91.734	-0.138	-0.155
-555.442	800.000	-0.167	0.475
-554.427	16.416	-0.115	0.091
-553.412	-99.408	0.203	-0.051
-552.398	-3.070	0.041	0.029
-551.383	-150.529	-0.119	-0.009
-550.369	-98.391	-0.284	-0.073
-549.354	12.407	0.151	0.116
-548.339	665.003	0.052	0.135
-547.325	459.461	0.077	0.172
-546.310	-200.000	-0.007	-0.108
-545.296	-200.000	0.045	0.407
-544.281	-35.125	-0.221	0.120
-543.266	-200.000	-0.015	-0.189
-542.252	694.015	-0.188	-0.492
-541.237	66.292	-0.206	0.208
-540.223	-159.779	0.150	-0.008
-539.208	-136.040	0.141	0.017
-538.193	-200.000	-0.033	-0.250
-537.179	800.000	0.099	0.293
-536.164	-69.328	0.110	-0.042
-535.150	478.515	0.241	0.544
-534.135	-175.288	-0.213	-0.006
-533.121	1.217	0.120	0.086
-532.106	239.430	0.113	-0.188
-531.091	73.922	0.272	-0.284
-530.077	28.731	0.297	0.251
-529.062	208.600	0.017	-0.027
-528.048	113.888	-0.137	0.166
-527.033	32.662	0.188	0.162
-526.018	117.674	-0.060	-0.074
-525.004	520.618	0.098	0.229
-523.989	-200.000	0.015	0.134
-522.975	-15.796	0.085	-0.054
-521.960	800.000	-0.034	-0.127
-520.945	-200.000	0.053	0.317
-519.931	-13.214	-0.123	-0.080
-518.916	122.847	-0.085	0.106
-517.902	23.292	-0.046	0.038
-516.887	-166.804	-0.222	-0.009
-515.872	-88.318	0.191	0.057
-514.858	303.397	-0.097	-0.179
-513.843	166.246	0.281	-0.397
-512.829	-200.000	0.078	-0.413
-511.814	-49.815	0.531	0.251
-510.799	800.000	-0.067	0.200
-509.785	795.281	-0.087	-0.238
-508.770	188.824	0.102	0.152
-507.756	111.265	-0.337	0.405
-506.741	-29.568	-0.279	-0.158
-505.726	-147.314	-0.166	0.014
-504.712	-54.661	-0.425	0.191
-503.697	-101.399	0.154	-0.037
-502.683	200.938	0.210	0.321
-501.668	-200.000	0.050	0.308
-500.653	-123.245	-0.270	0.043
-499.639	462.352	-0.131	-0.292
-498.624	384.484	-0.070	-0.143
-497.610	800.000	0.097	0.306
-496.595	89.718	-0.280	0.311
-495.581	-113.805	-0.192	-0.037
-494.566	123.595	0.078	-0.097
-493.551	-46.988	0.394	-0.191
-492.537	800.000	0.021	0.063
-491.522	-146.776	0.118	0.010
-490.508	3.011	0.068	-0.049
-489.493	-144.581	-0.569	-0.052
-488.478	-99.665	-0.238	-0.059
-487.464	-127.519	0.366	-0.053
-486.449	-75.974	-0.146	-0.051
-485.435	4.097	-0.384	-0.279
-484.420	-200.000	0.036	-0.326
-483.405	-29.533	0.134	0.076
-482.391	800.000	-0.095	-0.396
-481.376	256.900	0.074	0.127
-480.362	-68.177	-0.263	0.102
-479.347	66.744	0.418	-0.423
-478.332	8.000	-0.105	-0.078
-477.318	800.000	-0.058	-0.245
-476.303	9.333	0.080	-0.060
-475.289	-40.173	0.189	0.098
-474.274	30.671	-0.098	0.083
-473.259	227.263	-0.049	0.079
-472.245	193.457	0.063	0.095
-471.230	715.588	0.037	0.096
-470.216	-200.000	0.013	-0.062
-469.201	-79.594	-0.217	0.073
-468.186	-35.389	0.182	-0.099
-467.172	-16.924	-0.221	-0.139
-466.157	-154.505	-0.180	0.012
-465.143	800.000	-0.080	-0.284
-464.128	-200.000	0.008	-0.244
-463.113	-9.565	0.010	0.006
-462.099	-122.506	0.221	-0.036
-461.084	159.071	0.199	-0.275
-460.070	25.819	-0.054	-0.045
-459.055	-171.983	0.127	0.004
-458.040	226.234	-0.179	-0.288
-457.026	-39.480	0.198	-0.103
-456.011	7.003	0.108	-0.080
-454.997	61.815	-0.252	-0.250
-453.982	-91.348	0.302	-0.086
-452.968	344.901	0.116	0.225
-451.953	-108.458	-0.027	0.006
-450.938	-152.999	0.194	0.014
-449.924	-27.143	-0.092	-0.053
-448.909	35.919	0.112	-0.098
-447.895	-126.786	-0.369	-0.054
-446.880	-0.485	-0.298	-0.210
-445.865	-119.387	-0.236	-0.041
-444.851	-50.569	0.139	0.065
-443.836	-200.000	0.010	0.057
-442.822	-200.000	0.002	0.277
-441.807	-41.720	0.248	0.126
-440.792	-200.000	0.009	-0.308
-439.778	495.617	0.093	0.212
-438.763	-81.065	0.362	0.119
-437.749	158.597	-0.067	-0.092
-436.734	-71.561	0.211	0.078
-435.719	-53.167	0.548	0.250
-434.705	800.000	-0.040	0.125
-433.690	-133.813	0.389	-0.048
-432.676	-97.210	-0.124	-0.032
-431.661	351.223	0.053	0.104
-430.646	-157.154	-0.173	0.010
-429.632	-56.122	0.389	0.172
-428.617	-159.189	-0.174	-0.010
-427.603	612.639	-0.107	-0.266
-426.588	10.449	-0.104	0.078
-425.573	-200.000	0.003	-0.195
-424.559	800.000	-0.106	-0.335
-423.544	487.685	-0.052	0.117
-422.530	800.000	0.016	0.043
-421.515	-65.700	0.127	-0.051
-420.500	-99.815	0.232	-0.058
-419.486	306.812	-0.120	0.221
-418.471	153.816	-0.138	0.187
-417.457	-26.586	-0.181	-0.105
-416.442	-59.712	-0.016	-0.007
-415.428	-196.826	-0.378	0.002
-414.413	267.794	-0.194	0.337
-413.398	-200.000	0.001	-0.320
-412.384	94.427	-0.022	-0.025
-411.369	-20.657	0.203	-0.124
-410.355	-34.443	-0.126	0.068
-409.340	-85.870	0.337	-0.103
-408.325	800.000	-0.034	0.122
-407.311	-158.745	0.140	0.008
-406.296	-91.443	-0.389	0.110
-405.282	162.970	0.197	-0.275
-404.267	-200.000	-0.003	0.037
-403.252	412.911	-0.101	-0.214
-402.238	-136.266	0.356	0.041
-401.223	-200.000	0.018	0.262
-400.209	323.486	0.128	-0.241
-399.194	-200.000	-0.007	-0.056
-398.179	-119.326	-0.234	-0.040
-397.165	-200.000	-0.027	-0.194
-396.150	6.172	-0.066	0.048
-395.136	-186.915	0.068	-0.001
-394.121	626.570	-0.114	0.285
-393.106	-200.000	0.033	-0.318
-392.092	99.871	-0.226	0.260
-391.077	800.000	-0.026	0.076
-390.063	10.007	0.306	0.230
-389.048	-200.000	-0.026	-0.158
-388.033	81.183	-0.252	0.270
-387.019	-88.516	-0.251	-0.074
-386.004	-30.655	0.093	0.052
-384.990	800.000	0.079	-0.257
-383.975	-200.000	0.009	0.062
-382.960	-200.000	0.048	-0.220
-381.946	-200.000	0.009	0.338
-380.931	-86.031	-0.296	0.091
-379.917	-200.000	-0.054	0.377
-378.902	310.729	0.134	-0.249
-377.888	-149.922	0.281	0.022
-376.873	-104.122	0.451	-0.104
-375.858	-185.023	-0.424	0.007
-374.844	-47.527	0.078	-0.038
-373.829	334.476	0.092	-0.176
-372.815	297.746	-0.060	0.109
-371.800	-164.935	-0.219	-0.010
-370.785	186.624	0.143	-0.211
-369.771	158.302	-0.126	-0.172
-368.756	800.000	0.034	-0.097
-367.742	612.410	-0.044	-0.109
-366.727	-42.103	-0.320	0.162
-365.712	31.421	0.325	-0.276
-364.698	-58.102	0.134	-0.058
-363.683	-95.663	0.275	-0.073
-362.669	60.680	0.018	-0.018
-361.654	-200.000	-0.017	0.102
-360.639	-20.294	-0.266	0.162
-359.625	-74.307	0.313	-0.112
-358.610	759.543	0.057	0.153
-357.596	-176.332	-0.100	-0.003
-356.581	7.151	0.087	0.064
-355.566	6.125	0.134	-0.098
-354.552	-200.000	0.001	0.055
-353.537	134.575	-0.089	0.115
-352.523	-102.501	-0.284	0.067
-351.508	-108.584	-0.390	0.083
-350.493	-39.197	-0.136	-0.071
-349.479	-117.681	-0.379	-0.068
-348.464	-114.300	0.100	0.019
-347.450	136.086	-0.224	0.289
-346.435	106.457	-0.111	-0.130
-345.420	-6.896	-0.195	0.131
-344.406	-61.131	-0.321	0.134
-343.391	52.602	0.218	0.206
-342.377	-33.242	-0.123	0.067
-341.362	800.000	0.052	0.187
-340.348	-96.317	0.143	0.037
-339.333	227.194	0.164	-0.264
-338.318	-118.585	0.281	-0.049
-337.304	147.586	-0.251	0.334
-336.289	800.000	-0.049	0.140
-335.275	-115.646	0.218	0.040
-334.260	-155.747	0.207	-0.013
-333.245	71.376	-0.075	-0.077
-332.231	174.695	-0.204	-0.292
-331.216	77.260	0.246	0.258
-330.202	-33.206	-0.187	-0.103
-329.187	-118.725	0.054	0.009
-328.172	116.327	0.241	0.292
-327.158	-200.000	-0.004	0.107
-326.143	-131.289	-0.204	0.027
-325.129	-179.286	0.572	-0.013
-324.114	-74.969	-0.339	0.120
-323.099	-127.316	-0.212	-0.031
-322.085	13.302	0.150	0.115
-321.070	-169.536	0.126	0.005
-320.056	1.094	-0.183	-0.130
-319.041	-176.153	-0.140	-0.004
-318.026	134.896	-0.102	-0.131
-317.012	286.232	0.129	-0.229
-315.997	284.366	-0.142	0.252
-314.983	120.873	0.139	0.170
-313.968	-185.283	-0.239	0.004
-312.953	-200.000	-0.004	-0.207
-311.939	-200.000	0.003	-0.108
-310.924	64.386	0.187	0.186
-309.910	-200.000	0.011	0.135
-308.895	365.572	0.060	-0.119
-307.880	800.000	-0.104	0.293
-306.866	-200.000	0.009	0.053
-305.851	-44.915	-0.178	0.088
-304.837	-200.000	0.064	-0.463
-303.822	-108.036	0.061	0.013
-302.807	-117.036	-0.247	-0.045
-301.793	-170.219	0.067	0.002
-300.778	366.059	0.063	-0.126
-299.764	189.569	0.048	0.071
-298.749	46.755	0.104	0.096
-297.735	-102.988	-0.242	0.057
-296.720	-123.117	0.130	0.021
-295.705	-200.000	-0.046	0.257
-294.691	174.686	-0.154	0.220
-293.676	199.503	-0.174	-0.263
-292.662	-42.062	-0.168	0.085
-291.647	800.000	0.091	-0.256
-290.632	-157.526	0.274	-0.016
-289.618	-85.183	-0.249	0.077
-288.603	-18.416	0.123	0.076
-287.589	-200.000	-0.003	0.071
-286.574	-75.493	0.090	-0.032
-285.559	-200.000	-0.020	-0.103
-284.545	-9.453	0.216	-0.142
-283.530	800.000	-0.019	0.065
-282.516	800.000	0.059	0.218
-281.501	-81.587	0.345	-0.112
-280.486	800.000	0.065	0.230
-279.472	249.402	-0.052	-0.087
-278.457	-20.586	-0.163	-0.099
-277.443	60.556	-0.187	0.182
-276.428	49.769	-0.264	-0.245
-275.413	800.000	0.027	-0.105
-274.399	-124.561	-0.296	-0.045
-273.384	267.609	0.157	-0.271
-272.370	800.000	-0.040	0.134
-271.355	75.017	0.037	-0.038
-270.340	-120.379	0.113	0.019
-269.326	164.750	0.208	0.290
-268.311	337.088	0.198	0.380
-267.297	244.840	-0.105	-0.175
-266.282	199.448	-0.147	-0.223
-265.267	-110.921	0.064	-0.013
-264.253	-149.003	0.272	0.022
-263.238	235.500	0.196	-0.319
-262.224	800.000	-0.028	-0.104
-261.209	-77.107	0.115	0.040
-260.195	587.286	0.013	0.030
-259.180	800.000	0.106	0.380
-258.165	39.390	-0.026	0.023
-257.151	138.663	-0.085	0.110
-256.136	24.643	-0.082	0.067
-255.122	119.893	0.237	0.290
-254.107	22.548	-0.175	-0.141
-253.092	-179.089	-0.264	-0.006
-252.078	83.587	-0.118	0.127
-251.063	3.558	0.162	0.117
-250.049	615.529	-0.158	0.389
-249.034	-200.000	0.028	0.128
-248.019	-110.350	0.076	-0.016
-247.005	364.655	-0.107	0.211
-245.990	302.415	-0.128	0.234
-244.976	800.000	0.083	0.336
-243.961	-69.184	0.244	-0.093
-242.946	-158.263	0.094	-0.005
-241.932	-200.000	0.093	-0.442
-240.917	-7.868	0.179	-0.119
-239.903	-0.767	0.060	0.042
-238.888	90.834	0.111	0.123
-237.873	-52.896	-0.205	0.093
-236.859	-3.854	-0.196	0.134
-235.844	-200.000	0.026	0.235
-234.830	-59.687	0.130	-0.055
-233.815	-200.000	-0.012	0.104
-232.800	-67.503	0.070	0.027
-231.786	298.139	-0.057	0.103
-230.771	-115.041	-0.111	-0.021
-229.757	545.373	0.095	-0.224
-228.742	-99.471	-0.168	-0.042
-227.727	175.743	-0.204	-0.291
-226.713	-80.210	0.139	-0.046
-225.698	-200.000	0.074	-0.500
-224.684	194.761	0.135	-0.202
-223.669	-113.769	-0.196	0.038
-222.655	-200.000	0.044	0.202
-221.640	-30.957	0.073	-0.041
-220.625	800.000	-0.075	0.310
-219.611	-200.000	0.054	-0.260
-218.596	221.942	0.083	-0.131
-217.582	-200.000	0.000	-0.244
-216.567	-2.643	0.152	-0.104
-215.552	-87.027	0.378	0.113
-214.538	-200.000	0.008	-0.105
-213.523	-31.715	0.168	-0.093
-212.509	-200.000	-0.067	0.380
-211.494	800.000	-0.092	-0.275
-210.479	332.713	-0.053	-0.100
-209.465	-73.090	0.143	-0.052
-208.450	-200.000	-0.086	-0.452
-207.436	-92.098	-0.234	-0.065
-206.421	-50.430	0.337	0.156
-205.406	-55.023	0.309	0.137
-204.392	-200.000	-0.048	-0.292
-203.377	-200.000	0.045	0.252
-202.363	81.633	-0.131	-0.140
-201.348	-179.039	0.332	0.007
-200.333	-110.977	0.232	0.047
-199.319	-200.000	0.109	0.000
-198.304	-118.597	0.307	-0.053
-197.290	800.000	0.008	0.034
-196.275	167.018	-0.067	-0.094
-195.260	-200.000	-0.052	-0.241
-194.246	73.802	0.293	0.302
-193.231	22.723	-0.145	-0.117
-192.217	800.000	0.111	-0.407
-191.202	35.676	0.211	0.182
-190.187	-200.000	-0.044	0.198
-189.173	-98.821	0.220	0.055
-188.158	-200.000	0.003	0.334
-187.144	-42.342	0.057	0.028
-186.129	149.804	0.043	0.057
-185.114	-99.180	0.325	0.081
-184.100	-116.070	-0.261	-0.048
-183.085	-84.559	-0.038	0.012
-182.071	-119.863	0.082	0.014
-181.056	-16.569	-0.077	-0.048
-180.042	114.502	-0.118	0.142
-179.027	-48.141	0.186	0.088
-178.012	405.570	-0.081	0.169
-176.998	156.397	0.228	0.309
-175.983	-160.443	-0.215	-0.011
-174.969	11.319	-0.249	0.187
-173.954	-56.846	0.355	-0.154
-172.939	-128.566	-0.206	-0.029
-171.925	-57.903	0.242	-0.104
-170.910	29.418	0.286	0.239
-169.896	757.585	0.133	0.354
-168.881	-200.000	0.052	-0.238
-167.866	122.037	-0.163	0.200
-166.852	-16.827	-0.293	0.182
-165.837	68.505	0.139	-0.140
-164.823	53.968	-0.076	0.072
-163.808	-57.756	-0.270	-0.116
-162.793	91.901	-0.207	0.229
-161.779	-5.571	0.176	-0.119
-160.764	158.068	-0.163	-0.222
-159.750	-200.000	0.057	-0.296
-158.735	-158.999	0.172	0.010
-157.720	-75.420	0.064	0.022
-156.706	260.345	-0.227	0.386
-155.691	-1.584	0.194	0.134
-154.677	22.373	-0.254	0.204
-153.662	-200.000	-0.040	-0.342
-152.647	552.327	-0.104	-0.245
-151.633	-12.529	0.077	0.049
-150.618	800.000	-0.133	0.473
-149.604	124.791	0.148	0.183
-148.589	-15.042	0.192	-0.120
-147.574	165.159	0.158	0.219
-146.560	-38.392	-0.094	-0.049
-145.545	-70.183	0.105	-0.039
-144.531	-90.087	0.252	-0.072
-143.516	800.000	-0.048	0.137
-142.502	94.520	-0.097	0.108
-141.487	-107.992	0.126	0.027
-140.472	-17.704	0.079	-0.048
-139.458	-200.000	-0.042	0.238
-138.443	466.818	-0.108	0.238
-137.429	-200.000	-0.034	0.192
-136.414	-3.252	-0.185	0.127
-135.399	-200.000	-0.087	-0.413
-134.385	-98.941	0.073	-0.018
-133.370	381.594	-0.149	-0.301
-132.356	-26.554	-0.325	-0.186
-131.341	-0.148	0.138	-0.096
-130.326	5.098	-0.310	0.224
-129.312	800.000	-0.084	-0.309
-128.297	-111.365	-0.166	0.033
-127.283	-1.258	-0.288	-0.200
-126.268	-128.967	-0.257	-0.035
-125.253	650.232	0.160	0.400
-124.239	800.000	0.089	-0.382
-123.224	23.509	0.251	0.202
-122.210	342.415	0.144	-0.277
-121.195	230.887	-0.282	0.452
-120.180	-61.198	0.165	0.068
-119.166	-200.000	0.002	0.014
-118.151	380.392	-0.126	0.253
-117.137	163.072	-0.051	0.071
-116.122	-7.158	0.331	-0.220
-115.107	635.166	0.035	0.087
-114.093	-51.663	0.257	-0.118
-113.078	-200.000	0.024	0.112
-112.064	-74.342	-0.147	0.052
-111.049	11.691	-0.108	0.081
-110.034	-164.067	0.410	-0.019
-109.020	99.367	0.215	-0.244
-108.005	-200.000	0.004	-0.115
-106.991	-130.552	0.151	0.020
-105.976	-200.000	-0.047	-0.218
-104.962	107.440	-0.281	0.328
-103.947	-116.032	-0.109	0.020
-102.932	-117.390	-0.158	0.028
-101.918	-52.524	0.110	-0.050
-100.903	-36.057	0.039	0.021
-99.889	376.439	-0.060	0.120
-98.874	-171.633	0.228	0.007
-97.859	-96.518	0.138	-0.036
-96.845	-52.075	0.230	-0.105
-95.830	-129.543	0.138	0.019
-94.816	-95.398	0.011	0.003
-93.801	-55.341	0.109	0.048
-92.786	-76.723	0.022	-0.008
-91.772	-186.570	-0.058	-0.001
-90.757	-2.694	-0.322	-0.221
-89.743	800.000	-0.009	-0.030
-88.728	-71.440	0.044	0.016
-87.713	-200.000	0.200	0.000
-86.699	-21.668	-0.221	-0.132
-85.684	-156.760	0.536	-0.032
-84.670	211.881	0.069	0.106
-83.655	45.747	-0.125	-0.113
-82.640	288.779	0.059	0.104
-81.626	-200.000	-0.016	-0.175
-80.611	-141.946	0.175	-0.017
-79.597	-20.028	-0.207	0.125
-78.582	-200.000	0.006	0.260
-77.567	319.020	-0.152	0.282
-76.553	101.128	-0.160	0.183
-75.538	164.644	0.071	0.098
-74.524	28.354	0.076	-0.063
-73.509	-116.407	0.296	0.054
-72.494	-200.000	-0.030	0.258
-71.480	19.059	0.119	0.094
-70.465	49.380	0.211	0.194
-69.451	-88.799	-0.560	0.163
-68.436	460.141	0.123	0.269
-67.422	-6.090	0.168	-0.112
-66.407	-139.313	-0.372	0.039
-65.392	-28.331	0.056	-0.032
-64.378	-103.744	0.332	0.076
-63.363	-91.442	-0.149	0.042
-62.349	664.594	0.090	-0.226
-61.334	31.818	-1.143	-0.963
-60.319	-38.099	0.927	0.481
-59.305	800.000	-0.377	-1.029
-58.290	293.429	0.688	1.228
-57.276	687.162	0.546	1.395
-56.261	-200.000	114.835	644.398
-55.246	465.107	1511.161	3306.699
-54.232	147.217	2678.079	3524.858
-53.217	102.184	2178.105	2488.114
-52.203	37.564	1703.714	1478.286
-51.188	30.363	1520.381	1270.111
-50.173	28.225	1495.832	1235.148
-49.159	52.193	1553.415	1448.055
-48.144	50.697	1569.244	1452.484
-47.130	30.641	1525.446	1276.049
-46.115	27.477	1510.859	1242.257
-45.100	27.403	1506.973	1238.510
-44.086	27.350	1504.777	1236.296
-43.071	27.256	1503.553	1234.599
-42.057	27.278	1501.591	1233.088
-41.042	27.237	1500.201	1231.625
-40.027	27.265	1498.829	1230.637
-39.013	27.346	1496.818	1229.487
-37.998	27.225	1495.762	1227.752
-36.984	27.164	1494.911	1226.595
-35.969	27.286	1493.101	1225.882
-34.954	27.310	1491.606	1224.763
-33.940	27.175	1491.140	1223.429
-32.925	27.194	1489.834	1222.435
-31.911	27.272	1488.047	1221.443
-30.896	27.329	1486.627	1220.612
-29.881	27.329	1485.338	1219.507
-28.867	27.374	1484.080	1218.724
-27.852	27.333	1482.925	1217.451
-26.838	27.317	1481.296	1215.957
-25.823	27.317	1479.759	1214.652
-24.809	27.275	1478.286	1213.112
-23.794	27.319	1476.716	1212.068
-22.779	27.394	1475.445	1211.480
-21.765	27.315	1475.241	1210.734
-20.750	27.276	1473.624	1209.104
-19.736	27.396	1472.474	1208.907
-18.721	27.277	1471.958	1207.647
-17.706	27.238	1470.446	1206.100
-16.692	27.292	1469.179	1205.371
-15.677	27.268	1468.164	1204.327
-14.663	27.309	1467.000	1203.599
-13.648	27.240	1466.741	1202.880
-12.633	27.175	1465.907	1201.720
-11.619	27.197	1465.107	1201.160
-10.604	27.192	1464.404	1200.508
-9.590	27.247	1462.893	1199.583
-8.575	27.272	1462.125	1199.067
-7.560	27.217	1461.190	1197.892
-6.546	27.243	1460.379	1197.352
-5.531	27.149	1459.521	1195.982
-4.517	27.255	1458.386	1195.701
-3.502	27.193	1457.653	1194.646
-2.487	27.279	1456.561	1194.267
-1.473	27.148	1455.763	1192.704
-0.458	27.199	1454.120	1191.646
0.556	25.718	1444.470	1180.701
1.571	22.825	1420.280	1142.138
2.586	19.786	1361.165	1075.634
3.600	18.177	1279.179	1001.347
4.615	17.162	1234.028	960.177
5.629	16.623	1181.034	915.949
6.644	13.955	1105.508	843.764
7.659	11.568	1071.119	805.684
8.673	11.168	1066.319	800.038
9.688	11.106	1063.097	797.248
10.702	11.093	1061.265	795.737
11.717	11.093	1059.448	794.308
12.731	12.075	1058.932	798.632
13.746	14.823	1061.882	814.194
14.761	17.217	1064.929	828.141
15.775	17.736	1065.047	830.686
16.790	17.103	1062.831	825.809
17.804	15.908	1060.617	818.209
18.819	15.202	1058.134	812.800
19.834	14.626	1057.400	809.370
20.848	14.258	1056.342	806.709
21.863	14.024	1055.795	805.085
22.877	13.811	1054.877	803.283
23.892	13.728	1053.555	801.805
24.907	13.496	1053.224	800.360
25.921	13.437	1052.336	799.331
26.936	13.585	1051.343	799.217
27.950	13.541	1051.100	798.752
28.965	13.799	1049.454	798.671
29.980	13.629	1048.387	796.972
30.994	13.809	1047.333	796.964
32.009	13.833	1045.988	795.986
33.023	13.877	1045.501	795.755
34.038	13.865	1044.654	794.981
35.053	13.798	1043.825	793.959
36.067	13.736	1043.569	793.399
37.082	13.721	1042.123	792.158
38.096	13.818	1041.057	791.739
39.111	13.760	1040.458	790.939
40.126	13.768	1039.603	790.257
41.140	13.740	1038.174	788.966
42.155	13.637	1037.565	787.944
43.169	13.524	1036.490	786.522
44.184	13.591	1035.527	786.037
45.199	13.535	1034.404	784.854
46.213	13.574	1033.184	784.042
47.228	13.525	1032.452	783.184
48.242	13.624	1031.854	783.130
49.257	13.596	1030.578	781.959
50.271	13.655	1029.111	781.057
51.286	13.660	1028.735	780.723
52.301	13.645	1028.164	780.151
53.315	13.723	1027.068	779.619
54.330	13.573	1026.298	778.260
55.344	13.568	1025.338	777.438
56.359	13.520	1023.986	776.121
57.374	13.660	1023.179	776.097
58.388	13.598	1022.304	775.073
59.403	13.598	1021.691	774.542
60.417	13.444	1021.389	773.524
61.432	13.536	1019.934	772.782
62.447	13.560	1019.399	772.422
63.461	13.502	1018.582	771.464
64.476	13.325	1018.037	770.155
65.490	13.513	1016.702	769.954
66.505	13.455	1016.052	769.125
67.520	13.561	1014.945	768.709
68.534	13.509	1014.333	767.937
69.549	13.509	1013.538	767.267
70.563	13.542	1012.857	766.838
71.578	13.432	1012.559	766.036
72.593	13.462	1011.480	765.289
73.607	13.472	1010.197	764.295
74.622	13.377	1009.390	763.180
75.636	13.413	1008.491	762.598
76.651	13.376	1007.896	761.912
77.666	13.437	1007.203	761.600
78.680	13.379	1006.621	760.827
79.695	13.437	1005.767	760.378
80.709	13.473	1005.341	760.154
81.724	13.548	1004.167	759.546
82.739	13.584	1003.128	758.854
83.753	13.666	1002.875	758.974
84.768	13.645	1002.219	758.316
85.782	13.738	1001.390	758.046
86.797	13.734	1000.532	757.311
87.812	13.775	999.717	756.813
88.826	13.637	998.785	755.412
89.841	13.650	998.069	754.863
90.855	13.721	996.755	754.125
91.870	13.735	996.532	753.954
92.884	13.789	995.392	753.267
93.899	13.794	994.937	752.880
94.914	13.771	994.103	752.077
95.928	13.796	993.591	751.736
96.943	13.870	992.977	751.542
97.957	13.788	992.109	750.446
98.972	13.872	990.631	749.643
99.987	13.846	990.082	749.042
101.001	13.829	989.686	748.601
102.016	13.750	988.844	747.543
103.030	13.822	987.634	746.885
104.045	13.834	987.125	746.489
105.060	13.813	985.730	745.272
106.074	13.821	984.428	744.256
107.089	13.747	984.028	743.557
108.103	13.669	983.309	742.599
109.118	13.427	982.447	740.798
110.133	13.531	981.644	740.596
111.147	13.415	981.021	739.538
112.162	13.553	979.477	738.924
113.176	13.528	978.981	738.373
114.191	13.707	977.763	738.189
115.206	13.834	976.621	737.826
116.220	13.689	976.559	737.067
117.235	13.703	975.867	736.544
118.249	13.683	974.727	735.527
119.264	13.579	974.307	734.688
120.279	13.714	972.592	733.926
121.293	13.635	972.184	733.201
122.308	13.689	971.335	732.737
123.322	13.592	970.748	731.799
124.337	13.710	969.309	731.173
125.352	13.476	968.509	729.471
126.366	13.516	967.518	728.836
127.381	13.420	966.837	727.839
128.395	13.457	965.556	726.971
129.410	13.517	964.566	726.426
130.424	13.501	963.541	725.520
131.439	13.503	963.223	725.225
132.454	13.522	962.251	724.510
133.468	13.598	961.335	724.090
134.483	13.609	960.760	723.639
135.497	13.636	959.955	723.087
136.512	13.664	959.006	722.429
137.527	13.709	958.253	721.995
138.541	13.616	957.562	721.006
139.556	13.587	956.991	720.386
140.570	13.650	956.263	720.049
141.585	13.621	955.670	719.413
142.600	13.761	955.280	719.662
143.614	13.847	954.083	719.071
144.629	13.850	953.378	718.486
145.643	13.887	953.107	718.380
146.658	13.758	952.091	716.993
147.673	13.759	950.728	715.909
148.687	13.742	950.265	715.422
149.702	13.650	949.386	714.302
150.716	13.572	948.431	713.183
151.731	13.663	947.776	713.018
152.746	13.811	946.522	712.647
153.760	13.679	946.503	712.002
154.775	13.783	945.511	711.642
155.789	13.874	944.439	711.159
156.804	13.821	943.660	710.286
157.819	13.853	943.188	710.003
158.833	14.054	942.007	709.908
159.848	14.012	941.314	709.146
160.862	13.882	941.220	708.458
161.877	13.977	940.038	707.910
162.892	13.827	939.504	706.808
163.906	13.744	938.495	705.631
164.921	13.745	938.133	705.302
165.935	13.884	936.568	704.653
166.950	13.803	935.726	703.612
167.964	13.847	934.994	703.186
168.979	14.016	933.948	703.055
169.994	13.921	932.627	701.595
171.008	13.992	931.891	701.280
172.023	13.854	931.228	700.134
173.037	14.046	930.399	700.260
174.052	14.133	929.864	700.163
175.067	14.084	929.267	699.443
176.081	14.052	928.484	698.658
177.096	13.948	927.591	697.486
178.110	13.869	926.800	696.499
179.125	13.954	926.237	696.372
180.140	13.990	925.249	695.717
181.154	13.930	925.012	695.228
182.169	13.938	924.240	694.620
183.183	14.054	923.458	694.454
184.198	13.959	923.099	693.726
185.213	14.199	921.580	693.522
186.227	14.215	921.324	693.336
187.242	14.165	921.265	693.021
188.256	14.251	920.043	692.400
189.271	14.309	919.412	692.105
190.286	14.300	918.668	691.446
191.300	14.205	918.014	690.496
192.315	13.983	916.979	688.739
193.329	13.875	916.458	687.837
194.344	14.045	915.565	687.810
195.359	14.129	914.794	687.518
196.373	14.079	914.656	687.149
197.388	14.177	914.030	687.022
198.402	14.350	913.375	687.183
199.417	14.451	912.776	687.084
200.432	14.313	912.910	686.556
201.446	14.438	912.247	686.513
202.461	14.509	911.530	686.205
203.475	14.527	911.185	685.957
204.490	14.426	910.765	685.166
205.504	14.530	909.410	684.514
206.519	14.403	908.913	683.556
207.534	14.409	908.101	682.909
208.548	14.413	907.376	682.321
209.563	14.454	906.609	681.850
210.577	14.411	906.292	681.377
211.592	14.561	905.135	681.060
212.607	14.518	905.052	680.764
213.621	14.566	904.640	680.587
214.636	14.557	903.755	679.824
215.650	14.517	903.318	679.273
216.665	14.663	902.646	679.301
217.680	14.669	901.794	678.625
218.694	14.612	901.357	678.004
219.709	14.762	900.986	678.275
220.723	14.633	900.297	677.171
221.738	14.680	899.651	676.818
222.753	14.703	899.127	676.456
223.767	14.662	898.081	675.443
224.782	14.707	897.104	674.831
225.796	14.739	896.552	674.485
226.811	14.772	895.978	674.125
227.826	14.850	895.553	674.064
228.840	14.661	894.959	672.791
229.855	14.828	893.965	672.658
230.869	14.837	893.699	672.437
231.884	14.714	892.767	671.180
232.899	14.772	892.067	670.827
233.913	14.592	891.468	669.597
234.928	14.627	890.838	669.201
235.942	14.772	889.710	668.879
236.957	14.738	889.078	668.205
237.972	14.588	888.638	667.215
238.986	14.734	887.776	667.092
240.001	14.715	887.368	666.654
241.015	14.807	886.574	666.363
242.030	14.803	885.742	665.664
243.045	14.836	885.312	665.414
244.059	14.815	884.879	664.946
245.074	14.873	884.068	664.507
246.088	14.721	883.481	663.403
247.103	15.025	882.719	663.978
248.117	14.910	882.325	663.166
249.132	14.949	881.608	662.726
250.147	15.034	880.928	662.491
251.161	15.300	880.258	662.979
252.176	15.290	879.678	662.447
253.190	15.335	879.086	662.118
254.205	15.248	879.021	661.668
255.220	15.242	878.220	660.982
256.234	15.237	877.654	660.479
257.249	15.223	877.249	660.061
258.263	15.205	876.411	659.301
259.278	15.309	875.563	659.014
260.293	15.294	875.237	658.650
261.307	15.389	874.074	658.088
262.322	15.402	873.844	657.911
263.336	15.358	873.808	657.653
264.351	15.508	872.509	657.202
265.366	15.566	871.984	656.977
266.380	15.344	871.758	655.880
267.395	15.413	871.126	655.615
268.409	15.587	869.844	655.270
269.424	15.387	869.170	653.927
270.439	15.491	868.425	653.713
271.453	15.433	867.913	653.045
272.468	15.526	867.187	652.802
273.482	15.529	866.431	652.187
274.497	15.411	866.046	651.383
275.512	15.563	865.334	651.375
276.526	15.469	864.996	650.702
277.541	15.598	863.727	650.187
278.555	15.398	863.560	649.231
279.570	15.710	862.877	649.867
280.585	15.572	862.709	649.149
281.599	15.714	861.833	648.980
282.614	15.830	861.301	648.971
283.628	15.751	860.396	647.926
284.643	15.680	860.103	647.374
285.657	15.687	859.452	646.854
286.672	15.688	859.113	646.547
287.687	15.715	858.731	646.303
288.701	15.655	858.420	645.783
289.716	15.702	857.312	645.073
290.730	15.806	856.723	644.970
291.745	15.652	856.403	644.081
292.760	15.912	855.246	644.152
293.774	15.820	854.700	643.330
294.789	15.881	854.511	643.363
295.803	15.763	853.850	642.358
296.818	15.745	853.102	641.670
297.833	15.971	852.053	641.686
298.847	16.017	851.418	641.328
299.862	15.907	851.053	640.576
300.876	15.900	850.187	639.843
301.891	15.959	849.495	639.489
302.906	15.909	849.039	638.898
303.920	15.983	848.442	638.675
304.935	15.922	847.970	638.032
305.949	16.100	847.099	637.990
306.964	16.020	846.615	637.270
307.979	16.190	845.804	637.246
308.993	16.082	845.783	636.764
310.008	16.102	845.217	636.358
311.022	16.037	844.599	635.589
312.037	16.223	843.714	635.567
313.052	16.131	843.688	635.145
314.066	16.089	842.768	634.240
315.081	16.078	842.245	633.750
316.095	15.963	841.717	632.862
317.110	16.108	841.308	633.043
318.125	15.984	840.627	632.010
319.139	16.001	840.240	631.729
320.154	16.094	839.450	631.427
321.168	16.069	839.147	631.047
322.183	16.208	838.707	631.180
323.197	16.072	838.162	630.208
324.212	16.230	837.558	630.286
325.227	16.258	836.618	629.627
326.241	16.131	836.667	629.135
327.256	16.217	835.884	628.811
328.270	16.275	835.104	628.385
329.285	16.156	834.742	627.617
330.300	16.206	833.919	627.125
331.314	16.170	833.544	626.656
332.329	16.135	833.300	626.287
333.343	16.326	832.201	626.113
334.358	16.346	832.028	626.003
335.373	16.342	831.381	625.446
336.387	16.426	830.970	625.392
337.402	16.389	830.076	624.528
338.416	16.432	829.429	624.144
339.431	16.325	829.278	623.580
340.446	16.467	828.745	623.648
341.460	16.725	827.732	623.780
342.475	16.562	827.752	623.138
343.489	16.665	827.217	623.061
344.504	16.715	826.285	622.488
345.519	16.582	826.403	622.032
346.533	16.733	825.452	621.816
347.548	16.636	825.388	621.357
348.562	16.747	824.536	621.067
349.577	16.610	824.088	620.171
350.592	16.668	823.444	619.846
351.606	16.549	822.859	618.913
352.621	16.585	822.733	618.895
353.635	16.597	822.005	618.337
354.650	16.578	821.915	618.145
355.665	16.822	821.097	618.369
356.679	16.603	820.755	617.255
357.694	16.770	820.200	617.393
358.708	16.871	819.571	617.232
359.723	16.742	819.230	616.453
360.738	16.778	818.848	616.241
361.752	16.819	818.115	615.782
362.767	16.803	818.028	615.606
363.781	16.825	817.208	615.013
364.796	17.000	816.941	615.393
365.810	16.863	816.396	614.432
366.825	16.988	816.065	614.582
367.840	16.927	815.846	614.141
368.854	17.014	815.311	613.999
369.869	16.939	814.940	613.392
370.883	17.042	814.181	613.140
371.898	16.987	813.621	612.465
372.913	17.001	812.989	611.987
373.927	17.175	812.347	612.077
374.942	17.155	811.654	611.426
375.956	17.178	810.878	610.869
376.971	17.034	810.490	610.006
377.986	17.103	810.293	610.052
379.000	17.120	809.780	609.675
380.015	17.128	809.247	609.247
381.029	17.115	808.783	608.796
382.044	17.244	808.233	608.790
383.059	17.389	807.265	608.527
384.073	17.349	806.724	607.922
385.088	17.293	806.560	607.545
386.102	17.122	805.825	606.326
387.117	17.135	805.337	605.954
388.132	17.159	804.964	605.705
389.146	17.140	804.479	605.219
390.161	17.233	804.248	605.323
391.175	17.159	803.761	604.639
392.190	17.289	803.587	604.917
393.205	17.289	802.741	604.227
394.219	17.309	802.373	603.965
395.234	17.240	801.828	603.260
396.248	17.296	801.268	602.981
397.263	17.138	800.695	601.938
398.278	17.104	800.153	601.358
399.292	17.228	799.716	601.414
400.307	17.342	799.551	601.639
401.321	17.334	799.194	601.290
402.336	17.303	798.509	600.611
403.350	17.410	798.167	600.680
404.365	17.369	798.252	600.544
405.380	17.420	797.220	599.896
406.394	17.591	796.892	600.198
407.409	17.470	796.625	599.518
408.423	17.625	795.761	599.358
409.438	17.620	795.685	599.232
410.453	17.680	795.239	599.053
411.467	17.880	794.500	599.144
412.482	17.745	794.252	598.432
413.496	17.724	793.912	598.049
414.511	17.703	793.551	597.652
415.526	17.871	792.740	597.575
416.540	17.822	792.770	597.375
417.555	17.956	791.996	597.206
418.569	17.777	791.604	596.234
419.584	17.769	791.523	596.090
420.599	17.759	790.947	595.568
421.613	111.808	1293.315	1477.185
422.628	96.084	1366.495	1477.273
