DTS Sentinel unit serial number:	SN413079Multiplexer serial number:	ORYXHardware model number:	OX4-SRSoftware version number:	ORYX F/W v4.00 Oryx Data Collector v3.7.2.0data status	okinstallation	princeton_trtdifferential loss correction	single-endedforward channel	channel 3reverse channel	N/Adate	2019/09/12time	15:22:11forward acquisition time	60.00reverse acquisition time	0.00gamma	496.2192k internal	0.2292k external	0.2292temperature offset calibration	1.0058default loss term (dB/km)	0.3790temperature slope calibration	1.0000multiplexer offset coefficient	1.0000multiplexer slope coefficient	1.0000fibre end	0.00T internal ref (°C)	40.77T ext. ref 1 (°C)	2.42T ext. ref 2 (°C)	35.79length (m)	temperature (°C)	Stokes	anti-Stokes-747.200	347.939	-0.053	0.107
-746.185	-45.605	-0.450	0.228
-745.171	3.047	0.088	-0.065
-744.156	800.000	0.046	-0.133
-743.142	-75.845	-0.114	0.041
-742.127	123.921	-0.230	0.296
-741.112	-14.366	0.022	0.015
-740.098	72.936	0.062	0.066
-739.083	-139.347	0.164	0.018
-738.069	-35.607	0.161	0.090
-737.054	210.765	-0.253	-0.406
-736.039	141.653	-0.145	-0.196
-735.025	-184.679	-0.142	-0.002
-734.010	-30.654	-0.226	0.131
-732.996	800.000	-0.148	-0.490
-731.981	-200.000	0.012	-0.182
-730.966	99.956	0.201	-0.238
-729.952	-55.995	-0.078	-0.036
-728.937	-200.000	-0.033	-0.210
-727.923	-64.381	-0.212	-0.088
-726.908	-128.931	0.170	-0.024
-725.894	-152.106	-0.253	-0.019
-724.879	-103.078	-0.240	-0.058
-723.864	800.000	-0.059	0.187
-722.850	-30.037	0.147	-0.085
-721.835	32.811	-0.169	-0.150
-720.821	800.000	0.088	-0.261
-719.806	-131.122	0.287	-0.039
-718.791	-114.433	0.408	0.080
-717.777	-200.000	0.037	-0.433
-716.762	46.253	-0.134	-0.127
-715.748	-114.142	0.430	-0.085
-714.733	44.473	-0.366	0.344
-713.718	-23.601	-0.130	-0.080
-712.704	229.773	0.139	-0.232
-711.689	207.908	-0.020	0.032
-710.675	175.428	0.085	-0.126
-709.660	134.550	0.067	-0.089
-708.645	43.853	-0.177	-0.166
-707.631	219.623	0.089	0.145
-706.616	-200.000	-0.046	0.216
-705.602	79.877	0.108	-0.119
-704.587	-112.537	-0.087	0.018
-703.572	-200.000	0.029	-0.324
-702.558	-200.000	0.177	0.001
-701.543	800.000	0.049	-0.212
-700.529	-200.000	0.093	-0.485
-699.514	-79.688	0.140	0.048
-698.499	217.065	0.054	-0.088
-697.485	800.000	-0.059	-0.250
-696.470	188.902	-0.084	-0.129
-695.456	142.573	-0.101	-0.136
-694.441	756.643	0.075	0.208
-693.426	332.992	0.113	-0.224
-692.412	-85.753	0.184	0.058
-691.397	-200.000	0.016	0.314
-690.383	-3.774	-0.235	-0.167
-689.368	-37.932	0.118	-0.064
-688.354	352.623	0.086	-0.174
-687.339	-200.000	-0.029	0.139
-686.324	74.516	-0.258	-0.278
-685.310	165.841	-0.197	-0.285
-684.295	223.733	-0.058	-0.096
-683.281	-200.000	0.001	-0.111
-682.266	91.635	0.120	-0.138
-681.251	800.000	-0.059	-0.229
-680.237	800.000	-0.110	0.340
-679.222	34.908	-0.296	0.265
-678.208	800.000	0.056	0.207
-677.193	40.178	-0.306	-0.281
-676.178	-18.291	0.106	-0.068
-675.164	504.398	-0.065	0.154
-674.149	42.647	-0.056	0.052
-673.135	9.567	-0.145	-0.112
-672.120	-14.682	-0.186	-0.122
-671.105	167.889	0.097	0.142
-670.091	-126.066	0.053	0.008
-669.076	141.071	-0.052	-0.070
-668.062	-28.777	0.035	-0.021
-667.047	-147.070	0.241	-0.021
-666.032	-200.000	0.362	0.001
-665.018	-12.918	-0.141	0.094
-664.003	800.000	0.046	-0.131
-662.989	192.830	0.210	-0.324
-661.974	559.379	-0.055	-0.136
-660.959	154.875	-0.232	0.325
-659.945	-36.295	-0.172	-0.095
-658.930	-41.681	-0.082	0.043
-657.916	-115.542	-0.249	-0.048
-656.901	135.448	-0.220	-0.292
-655.886	-200.000	-0.005	-0.025
-654.872	-78.301	-0.222	-0.078
-653.857	-85.307	-0.158	-0.050
-652.843	-36.280	0.197	-0.109
-651.828	-14.545	-0.091	-0.060
-650.814	-200.000	-0.064	-0.372
-649.799	-90.966	-0.266	-0.078
-648.784	293.290	0.025	-0.047
-647.770	4.537	-0.286	0.214
-646.755	-144.718	-0.181	0.017
-645.741	-200.000	0.093	-0.527
-644.726	800.000	0.113	0.345
-643.711	632.621	-0.027	0.069
-642.697	-200.000	-0.008	0.069
-641.682	800.000	-0.056	0.249
-640.668	-200.000	-0.005	-0.189
-639.653	35.449	-0.144	-0.129
-638.638	-186.965	0.139	0.002
-637.624	-85.367	-0.058	0.019
-636.609	-200.000	0.016	0.120
-635.595	48.134	0.118	-0.113
-634.580	-7.023	-0.111	0.077
-633.565	800.000	-0.032	-0.114
-632.551	126.318	0.108	-0.139
-631.536	-157.127	-0.261	0.016
-630.522	-84.465	-0.135	0.043
-629.507	19.442	0.237	-0.194
-628.492	204.679	0.182	0.287
-627.478	-200.000	-0.000	-0.008
-626.463	153.127	-0.071	0.098
-625.449	-200.000	0.005	-0.292
-624.434	322.189	0.086	-0.166
-623.419	44.105	-0.112	0.105
-622.405	-200.000	-0.011	0.134
-621.390	800.000	0.024	0.086
-620.376	2.550	-0.251	0.185
-619.361	-74.024	-0.222	0.082
-618.346	-12.860	0.357	-0.237
-617.332	-200.000	0.006	-0.103
-616.317	-200.000	-0.020	-0.139
-615.303	225.310	-0.065	0.107
-614.288	193.763	0.092	0.141
-613.273	576.016	0.107	0.267
-612.259	-200.000	-0.014	-0.106
-611.244	585.608	-0.152	-0.380
-610.230	665.560	-0.070	-0.184
-609.215	550.046	-0.058	-0.141
-608.201	277.021	-0.184	-0.333
-607.186	-200.000	0.011	-0.088
-606.171	-94.420	-0.262	0.073
-605.157	-63.333	-0.385	-0.161
-604.142	-67.598	0.201	-0.080
-603.128	-200.000	-0.011	0.310
-602.113	-52.701	-0.275	-0.129
-601.098	-108.916	0.105	0.023
-600.084	-200.000	0.077	0.383
-599.069	-200.000	-0.028	0.154
-598.055	126.205	-0.136	-0.175
-597.040	-200.000	-0.011	-0.069
-596.025	-9.667	-0.174	-0.118
-595.011	413.937	0.128	-0.276
-593.996	-200.000	0.028	-0.141
-592.982	138.979	0.046	-0.062
-591.967	-200.000	-0.026	0.140
-590.952	608.230	-0.026	-0.066
-589.938	800.000	-0.129	0.525
-588.923	-200.000	-0.039	0.213
-587.909	-91.938	0.210	0.061
-586.894	-200.000	-0.024	-0.154
-585.879	59.115	-0.123	-0.123
-584.865	-200.000	0.060	0.313
-583.850	-101.727	-0.525	-0.129
-582.836	-200.000	0.021	-0.280
-581.821	-77.807	0.151	-0.053
-580.806	-35.963	0.317	0.175
-579.792	6.293	-0.035	0.027
-578.777	-38.847	-0.207	0.111
-577.763	800.000	0.053	0.170
-576.748	254.874	-0.128	0.222
-575.733	-13.988	0.273	0.179
-574.719	-109.253	0.374	0.081
-573.704	-115.537	0.244	0.047
-572.690	-164.331	-0.074	0.003
-571.675	37.438	-0.294	-0.265
-570.661	-200.000	0.000	-0.202
-569.646	209.402	0.046	0.073
-568.631	-35.059	-0.154	0.085
-567.617	-61.011	0.088	-0.038
-566.602	800.000	-0.068	-0.202
-565.588	67.064	-0.183	0.190
-564.573	-122.782	0.057	0.009
-563.558	800.000	0.051	-0.149
-562.544	-38.158	-0.238	0.128
-561.529	7.010	0.094	-0.071
-560.515	-200.000	-0.012	-0.059
-559.500	279.674	0.109	-0.199
-558.485	-63.102	-0.099	-0.041
-557.471	668.299	-0.061	-0.160
-556.456	-200.000	-0.006	0.109
-555.442	-111.657	-0.142	0.029
-554.427	800.000	-0.103	-0.434
-553.412	-29.980	0.282	-0.163
-552.398	15.384	0.242	-0.193
-551.383	-56.103	0.157	0.071
-550.369	-44.272	0.236	-0.120
-549.354	244.937	0.063	-0.108
-548.339	-200.000	0.011	0.131
-547.325	-200.000	-0.030	0.170
-546.310	335.045	-0.043	-0.084
-545.296	800.000	-0.043	-0.175
-544.281	-45.137	-0.381	0.193
-543.266	-176.629	-0.161	0.004
-542.252	-200.000	-0.025	0.343
-541.237	5.106	0.246	-0.184
-540.223	184.154	0.157	-0.235
-539.208	413.637	-0.094	0.203
-538.193	-110.983	-0.049	0.010
-537.179	800.000	-0.052	-0.190
-536.164	-156.894	-0.247	-0.015
-535.150	-20.169	0.152	-0.095
-534.135	-169.853	-0.174	-0.006
-533.121	121.948	-0.088	-0.111
-532.106	0.944	0.195	0.142
-531.091	1.645	-0.190	-0.139
-530.077	197.407	-0.133	0.206
-529.062	-78.209	0.309	-0.108
-528.048	-173.721	-0.040	0.001
-527.033	33.065	-0.187	-0.165
-526.018	-200.000	0.028	-0.302
-525.004	656.207	0.025	0.065
-523.989	-155.348	-0.509	0.034
-522.975	800.000	-0.027	-0.096
-521.960	-200.000	-0.006	0.131
-520.945	-200.000	0.025	-0.263
-519.931	-112.154	0.154	0.031
-518.916	228.067	-0.204	-0.338
-517.902	800.000	0.051	-0.171
-516.887	728.443	-0.087	-0.235
-515.872	800.000	0.010	-0.028
-514.858	38.835	-0.161	-0.146
-513.843	-129.630	0.363	-0.051
-512.829	-80.690	-0.311	-0.105
-511.814	-82.177	-0.505	0.167
-510.799	800.000	-0.074	-0.296
-509.785	-139.130	0.135	-0.015
-508.770	-132.953	0.272	-0.035
-507.756	-95.887	0.196	0.053
-506.741	-16.975	0.126	0.081
-505.726	800.000	-0.090	-0.265
-504.712	-21.929	0.045	-0.028
-503.697	-1.505	-0.077	0.055
-502.683	488.704	0.107	-0.247
-501.668	-200.000	-0.002	0.103
-500.653	-200.000	0.062	-0.275
-499.639	463.123	0.065	-0.148
-498.624	114.314	-0.104	-0.128
-497.610	711.140	0.079	-0.213
-496.595	-200.000	0.047	0.299
-495.581	-200.000	-0.016	0.124
-494.566	-200.000	0.002	0.119
-493.551	465.008	0.162	-0.366
-492.537	-200.000	-0.002	0.262
-491.522	-200.000	0.056	-0.354
-490.508	96.621	-0.201	0.233
-489.493	9.941	-0.152	0.117
-488.478	-48.029	0.339	0.166
-487.464	321.776	0.019	-0.037
-486.449	-121.224	-0.215	-0.036
-485.435	-200.000	-0.047	0.322
-484.420	800.000	0.053	-0.200
-483.405	-128.317	0.314	-0.045
-482.391	800.000	0.044	0.164
-481.376	-200.000	-0.028	0.179
-480.362	126.712	-0.172	0.221
-479.347	149.657	-0.306	-0.420
-478.332	-171.212	0.114	0.004
-477.318	244.365	0.062	0.105
-476.303	468.826	0.108	-0.245
-475.289	40.727	0.149	0.136
-474.274	98.914	0.076	0.089
-473.259	136.917	0.119	-0.157
-472.245	800.000	0.003	0.012
-471.230	36.358	-0.479	0.428
-470.216	-24.015	0.307	-0.186
-469.201	800.000	-0.171	0.617
-468.186	349.283	0.051	0.101
-467.172	2.951	0.263	0.194
-466.157	52.452	-0.104	0.101
-465.143	-200.000	-0.064	0.369
-464.128	-2.112	-0.143	-0.102
-463.113	-200.000	0.058	-0.349
-462.099	-23.866	0.211	-0.128
-461.084	220.972	0.118	-0.191
-460.070	284.078	0.119	-0.216
-459.055	405.962	0.127	0.270
-458.040	800.000	-0.160	-0.593
-457.026	158.304	-0.264	0.370
-456.011	-77.382	-0.023	-0.008
-454.997	-110.743	0.161	0.034
-453.982	31.943	0.194	-0.169
-452.968	8.427	0.241	-0.183
-451.953	783.640	-0.054	0.150
-450.938	234.074	0.057	0.095
-449.924	274.828	0.177	0.317
-448.909	13.296	0.217	-0.171
-447.895	800.000	-0.062	0.184
-446.880	-184.151	0.355	0.006
-445.865	63.974	0.158	-0.161
-444.851	-159.326	0.436	-0.025
-443.836	189.971	-0.062	-0.093
-442.822	87.923	0.151	-0.169
-441.807	-101.700	0.127	-0.031
-440.792	-66.165	0.282	0.114
-439.778	95.447	-0.135	-0.156
-438.763	-133.304	-0.324	0.041
-437.749	-200.000	-0.012	-0.104
-436.734	311.832	0.106	-0.202
-435.719	-3.635	0.097	0.068
-434.705	218.712	-0.092	-0.149
-433.690	-103.714	0.060	-0.014
-432.676	-61.343	-0.273	-0.116
-431.661	-200.000	0.030	0.143
-430.646	-20.916	0.172	-0.107
-429.632	223.841	-0.161	0.262
-428.617	33.936	-0.136	0.120
-427.603	114.440	-0.042	0.052
-426.588	800.000	-0.079	0.344
-425.573	119.276	0.071	0.089
-424.559	-63.418	0.046	-0.019
-423.544	-46.200	-0.098	0.049
-422.530	-63.538	0.407	0.169
-421.515	-200.000	0.026	0.192
-420.500	-91.113	-0.058	0.017
-419.486	-113.327	0.229	0.045
-418.471	338.878	0.181	-0.357
-417.457	-14.320	0.079	0.051
-416.442	333.632	-0.092	-0.180
-415.428	226.803	0.189	0.311
-414.413	-200.000	-0.012	-0.205
-413.398	-191.190	-0.225	-0.002
-412.384	455.456	-0.126	0.282
-411.369	272.703	0.160	-0.285
-410.355	800.000	0.106	0.393
-409.340	-9.299	-0.101	0.068
-408.325	-149.838	0.116	-0.009
-407.311	56.201	-0.130	0.128
-406.296	28.068	-0.082	-0.070
-405.282	721.899	-0.074	-0.198
-404.267	47.296	-0.147	0.138
-403.252	81.043	-0.122	0.133
-402.238	-87.717	-0.209	0.064
-401.223	-200.000	-0.026	-0.367
-400.209	510.897	0.139	0.327
-399.194	-182.797	0.498	0.009
-398.179	472.644	0.041	-0.093
-397.165	-189.221	0.257	-0.003
-396.150	52.016	0.282	-0.271
-395.136	-1.277	-0.144	-0.103
-394.121	-200.000	0.006	0.074
-393.106	33.282	0.174	-0.153
-392.092	-21.083	0.218	0.135
-391.077	629.509	0.034	0.087
-390.063	428.043	0.126	-0.274
-389.048	5.632	0.229	-0.171
-388.033	704.339	0.079	0.212
-387.019	55.476	0.162	0.159
-386.004	-200.000	-0.020	0.310
-384.990	-13.043	0.124	0.082
-383.975	586.488	-0.045	-0.111
-382.960	-200.000	0.006	0.245
-381.946	114.784	-0.032	-0.039
-380.931	-11.062	-0.173	0.115
-379.917	145.110	-0.087	-0.117
-378.902	114.415	-0.074	0.091
-377.888	-109.603	0.212	0.045
-376.873	-128.522	0.238	-0.034
-375.858	-148.065	-0.138	-0.012
-374.844	383.996	0.068	0.142
-373.829	800.000	-0.072	0.226
-372.815	-155.972	-0.417	0.027
-371.800	-148.591	-0.142	-0.012
-370.785	44.329	-0.142	0.131
-369.771	-200.000	-0.017	0.211
-368.756	-200.000	0.016	0.227
-367.742	-132.004	-0.458	-0.060
-366.727	15.281	0.137	-0.108
-365.712	-69.962	-0.066	0.025
-364.698	800.000	-0.097	0.312
-363.683	80.781	-0.028	-0.031
-362.669	-19.507	-0.204	0.127
-361.654	-117.762	0.141	0.026
-360.639	76.294	0.187	0.200
-359.625	295.682	0.070	0.128
-358.610	678.762	-0.041	0.107
-357.596	605.218	-0.078	0.196
-356.581	-55.823	0.174	-0.079
-355.566	142.657	-0.122	0.163
-354.552	-173.651	-0.159	0.005
-353.537	-95.854	0.199	-0.054
-352.523	-136.613	0.065	0.008
-351.508	-8.350	-0.142	0.096
-350.493	-200.000	0.004	0.235
-349.479	133.557	0.100	0.130
-348.464	-145.549	0.233	0.021
-347.450	800.000	-0.094	0.356
-346.435	-6.303	0.169	0.116
-345.420	-131.251	0.540	-0.072
-344.406	-200.000	0.081	-0.374
-343.391	-132.662	-0.359	-0.046
-342.377	-162.448	-0.204	-0.010
-341.362	800.000	-0.049	-0.193
-340.348	-27.819	-0.019	0.011
-339.333	800.000	-0.132	0.374
-338.318	-114.182	-0.092	0.018
-337.304	-30.597	0.303	0.173
-336.289	260.908	0.108	0.187
-335.275	-18.898	0.260	0.163
-334.260	800.000	0.032	0.098
-333.245	-200.000	-0.004	-0.281
-332.231	-121.860	0.298	0.049
-331.216	606.299	0.044	-0.111
-330.202	73.050	0.449	-0.473
-329.187	-129.415	-0.177	-0.025
-328.172	-100.165	0.043	0.011
-327.158	-0.431	-0.091	-0.065
-326.143	-200.000	-0.023	0.114
-325.129	-94.267	0.010	-0.003
-324.114	-200.000	0.010	-0.323
-323.099	-200.000	-0.026	-0.185
-322.085	-4.884	0.318	0.221
-321.070	-11.569	-0.058	-0.038
-320.056	-103.611	0.077	0.018
-319.041	127.122	-0.135	0.173
-318.026	1.310	0.015	0.011
-317.012	157.485	0.143	0.199
-315.997	-53.165	0.212	0.098
-314.983	-21.406	-0.120	0.074
-313.968	-154.984	-0.248	-0.016
-312.953	350.478	0.089	0.178
-311.939	-101.793	0.007	-0.002
-310.924	-167.686	0.281	-0.011
-309.910	-117.283	-0.252	-0.046
-308.895	-200.000	-0.025	-0.206
-307.880	-85.401	-0.087	-0.027
-306.866	485.941	-0.027	0.062
-305.851	-80.607	0.128	0.043
-304.837	-200.000	0.079	0.499
-303.822	-156.580	-0.085	-0.005
-302.807	-73.032	0.272	-0.101
-301.793	-18.412	-0.185	0.116
-300.778	-150.251	-0.142	0.011
-299.764	78.311	-0.276	-0.296
-298.749	278.363	-0.332	-0.595
-297.735	-200.000	-0.059	-0.272
-296.720	-166.641	-0.116	-0.005
-295.705	-152.748	0.283	0.020
-294.691	31.163	0.192	-0.166
-293.676	-153.302	-0.164	-0.012
-292.662	176.330	0.169	-0.247
-291.647	648.095	-0.113	-0.290
-290.632	85.781	-0.247	0.273
-289.618	-1.923	-0.287	0.203
-288.603	-200.000	0.001	0.037
-287.589	687.363	0.111	0.292
-286.574	91.364	0.079	0.090
-285.559	21.860	0.275	0.225
-284.545	88.199	-0.161	-0.180
-283.530	-79.244	-0.235	0.080
-282.516	-93.958	-0.273	-0.075
-281.501	-60.330	0.158	0.068
-280.486	-113.801	-0.080	0.016
-279.472	800.000	0.042	0.149
-278.457	135.081	-0.049	0.064
-277.443	-139.520	0.046	0.005
-276.428	88.503	-0.096	0.107
-275.413	-121.251	0.245	-0.041
-274.399	-200.000	0.020	0.193
-273.384	-92.507	0.158	0.045
-272.370	-67.654	0.246	0.097
-271.355	269.728	-0.242	-0.428
-270.340	-200.000	0.049	0.306
-269.326	-200.000	0.038	0.279
-268.311	-200.000	0.050	-0.271
-267.297	-200.000	-0.072	0.404
-266.282	539.792	-0.133	0.318
-265.267	258.840	0.101	0.175
-264.253	-119.264	-0.178	0.031
-263.238	73.358	0.071	-0.075
-262.224	159.312	0.185	-0.258
-261.209	-93.566	-0.193	0.054
-260.195	800.000	-0.103	-0.318
-259.180	665.978	-0.097	-0.251
-258.165	160.057	0.145	-0.203
-257.151	-103.716	-0.272	-0.064
-256.136	-200.000	-0.025	-0.212
-255.122	800.000	-0.038	0.145
-254.107	26.956	-0.027	-0.023
-253.092	64.459	0.162	0.164
-252.078	-82.496	0.159	-0.052
-251.063	631.234	-0.166	0.422
-250.049	-39.697	-0.246	0.129
-249.034	32.273	-0.250	0.216
-248.019	-200.000	-0.025	-0.140
-247.005	71.967	-0.195	0.203
-245.990	716.977	0.150	-0.400
-244.976	-200.000	0.022	0.112
-243.961	-200.000	-0.016	0.144
-242.946	563.889	-0.192	-0.468
-241.932	800.000	-0.051	-0.211
-240.917	60.282	0.115	-0.114
-239.903	-29.937	-0.163	0.093
-238.888	122.150	0.124	-0.155
-237.873	-200.000	0.006	0.185
-236.859	-200.000	-0.031	0.270
-235.844	268.714	-0.078	0.136
-234.830	-200.000	0.016	-0.162
-233.815	-74.096	-0.404	-0.147
-232.800	-61.738	0.140	-0.059
-231.786	-33.594	0.185	-0.102
-230.771	105.341	-0.045	-0.053
-229.757	111.991	0.102	-0.123
-228.742	-200.000	-0.003	-0.051
-227.727	343.559	-0.081	0.160
-226.713	-147.093	-0.427	0.037
-225.698	208.610	-0.098	0.154
-224.684	633.382	0.107	0.272
-223.669	86.354	0.110	0.122
-222.655	266.720	-0.107	0.188
-221.640	626.564	-0.154	-0.390
-220.625	-200.000	0.008	0.076
-219.611	-158.064	0.350	0.021
-218.596	-200.000	-0.023	0.377
-217.582	701.964	0.021	0.056
-216.567	-200.000	-0.001	-0.076
-215.552	112.188	0.118	-0.143
-214.538	22.721	-0.183	-0.150
-213.523	147.783	0.139	-0.187
-212.509	-200.000	0.005	0.142
-211.494	74.997	-0.035	0.037
-210.479	800.000	-0.106	0.320
-209.465	-192.881	0.380	0.003
-208.450	800.000	-0.078	-0.232
-207.436	-200.000	0.048	-0.255
-206.421	19.133	-0.354	-0.284
-205.406	-74.990	0.339	-0.122
-204.392	800.000	-0.045	-0.133
-203.377	607.440	-0.052	-0.130
-202.363	800.000	0.047	-0.198
-201.348	800.000	-0.039	0.126
-200.333	-200.000	-0.004	0.243
-199.319	-87.804	0.121	-0.036
-198.304	800.000	0.073	-0.286
-197.290	800.000	0.069	-0.293
-196.275	800.000	-0.047	0.138
-195.260	-200.000	0.024	0.275
-194.246	681.747	0.129	-0.336
-193.231	800.000	0.027	-0.078
-192.217	-200.000	0.005	0.042
-191.202	-25.310	-0.330	0.196
-190.187	-145.070	-0.303	0.028
-189.173	-103.737	0.221	0.052
-188.158	218.864	-0.127	-0.204
-187.144	-200.000	0.007	-0.060
-186.129	-116.773	-0.224	-0.041
-185.114	-66.383	0.238	0.095
-184.100	-78.704	-0.186	-0.064
-183.085	-200.000	-0.039	-0.347
-182.071	575.392	0.087	-0.213
-181.056	-152.018	0.120	0.009
-180.042	373.702	0.109	-0.221
-179.027	-19.898	-0.142	-0.088
-178.012	-116.354	0.515	0.095
-176.998	472.636	0.080	-0.180
-175.983	-85.309	0.244	0.076
-174.969	800.000	0.094	0.327
-173.954	-200.000	0.013	0.132
-172.939	-200.000	0.036	0.194
-171.925	-132.402	0.264	0.034
-170.910	2.041	0.186	-0.135
-169.896	-43.416	0.106	-0.054
-168.881	328.895	0.093	0.178
-167.866	138.895	-0.133	-0.175
-166.852	-200.000	0.049	-0.309
-165.837	800.000	-0.124	0.360
-164.823	217.159	-0.209	-0.333
-163.808	53.104	0.108	-0.103
-162.793	-31.658	-0.383	0.215
-161.779	-60.133	-0.392	0.167
-160.764	-1.821	-0.112	0.079
-159.750	-100.496	0.309	0.077
-158.735	366.560	0.135	-0.272
-157.720	-33.634	-0.200	0.110
-156.706	-200.000	-0.030	0.261
-155.691	-161.518	-0.076	0.004
-154.677	0.262	-0.217	0.155
-153.662	435.541	-0.048	0.104
-152.647	142.904	-0.083	0.111
-151.633	221.254	-0.147	-0.237
-150.618	-49.252	-0.105	-0.050
-149.604	472.860	0.099	0.223
-148.589	-152.332	0.413	-0.030
-147.574	800.000	-0.115	-0.340
-146.560	-146.244	0.105	0.009
-145.545	36.528	0.069	0.061
-144.531	134.422	0.231	-0.300
-143.516	42.417	0.271	0.247
-142.502	-124.174	0.244	-0.038
-141.487	795.544	-0.097	-0.266
-140.472	63.743	-0.131	-0.132
-139.458	83.178	-0.091	-0.099
-138.443	-79.174	0.194	-0.066
-137.429	-135.653	-0.249	-0.029
-136.414	614.749	0.019	0.047
-135.399	-38.945	0.172	-0.091
-134.385	-27.183	-0.112	-0.065
-133.370	-71.617	-0.206	0.077
-132.356	-11.763	0.337	0.221
-131.341	-200.000	-0.015	-0.307
-130.326	800.000	0.057	-0.230
-129.312	105.645	0.105	0.124
-128.297	129.182	-0.056	0.071
-127.283	-43.228	-0.084	0.043
-126.268	-166.188	-0.066	-0.003
-125.253	-106.294	0.400	-0.089
-124.239	-68.003	0.098	0.038
-123.224	-78.164	-0.336	-0.115
-122.210	491.479	0.100	-0.228
-121.195	-200.000	-0.043	0.256
-120.180	-26.157	-0.177	-0.104
-119.166	-200.000	-0.003	0.228
-118.151	800.000	-0.060	-0.216
-117.137	-67.088	-0.297	-0.117
-116.122	-92.065	-0.054	0.015
-115.107	800.000	-0.047	-0.149
-114.093	80.120	-0.118	-0.126
-113.078	399.989	-0.111	-0.233
-112.064	-200.000	-0.014	-0.228
-111.049	-26.825	-0.181	-0.105
-110.034	-200.000	0.017	-0.191
-109.020	-200.000	0.003	-0.063
-108.005	-78.177	-0.202	0.069
-106.991	-125.660	0.257	-0.039
-105.976	159.868	-0.126	-0.175
-104.962	508.739	0.178	-0.413
-103.947	-200.000	0.003	0.152
-102.932	800.000	-0.049	-0.161
-101.918	-200.000	0.061	-0.302
-100.903	56.335	-0.079	-0.077
-99.889	-98.568	-0.121	0.031
-98.874	149.732	0.110	-0.149
-97.859	-112.032	-0.154	0.031
-96.845	-33.627	0.213	-0.117
-95.830	800.000	0.038	-0.110
-94.816	-134.467	0.233	-0.028
-93.801	68.141	0.032	-0.033
-92.786	800.000	0.011	-0.046
-91.772	-55.658	-0.181	-0.081
-90.757	-28.434	0.174	0.100
-89.743	293.442	0.176	-0.321
-88.728	-182.405	-0.103	-0.002
-87.713	302.784	-0.160	0.295
-86.699	-200.000	0.042	-0.296
-85.684	-200.000	0.042	-0.316
-84.670	-8.103	0.064	0.043
-83.655	-28.161	-0.107	-0.062
-82.640	246.957	-0.113	-0.190
-81.626	-36.780	-0.047	-0.025
-80.611	609.806	0.057	-0.142
-79.597	-125.694	0.187	-0.028
-78.582	604.136	-0.114	-0.283
-77.567	-102.695	0.198	-0.047
-76.553	303.833	-0.075	0.139
-75.538	-144.567	-0.288	-0.027
-74.524	-114.978	-0.243	0.046
-73.509	-200.000	-0.059	0.326
-72.494	-200.000	-0.051	0.597
-71.480	-101.468	-0.326	0.079
-70.465	-74.660	-0.195	0.070
-69.451	22.900	-0.220	0.180
-68.436	51.651	-0.185	-0.176
-67.422	69.746	-0.198	-0.203
-66.407	-43.290	0.193	-0.097
-65.392	170.956	0.067	0.096
-64.378	324.608	0.062	0.119
-63.363	245.236	-0.065	-0.109
-62.349	68.032	0.119	0.121
-61.334	-23.727	-1.064	-0.636
-60.319	-167.622	0.203	0.008
-59.305	349.813	-0.392	-0.772
-58.290	-200.000	0.171	0.753
-57.276	389.027	0.790	1.630
-56.261	-200.000	76.276	512.733
-55.246	517.715	1324.040	3086.787
-54.232	147.208	2551.788	3421.805
-53.217	116.232	2240.099	2734.494
-52.203	51.193	1765.355	1668.946
-51.188	44.107	1564.651	1429.455
-50.173	41.479	1534.823	1383.948
-49.159	57.604	1571.698	1530.406
-48.144	63.457	1591.652	1590.736
-47.130	44.713	1554.815	1424.482
-46.115	41.082	1540.528	1386.110
-45.100	40.911	1537.379	1382.028
-44.086	40.848	1535.031	1379.426
-43.071	40.785	1532.986	1377.096
-42.057	40.749	1531.719	1375.655
-41.042	40.701	1530.101	1373.817
-40.027	40.819	1527.960	1372.654
-39.013	40.778	1526.837	1371.310
-37.998	40.770	1525.397	1369.908
-36.984	40.682	1524.689	1368.607
-35.969	40.775	1523.174	1367.832
-34.954	40.724	1521.793	1366.188
-33.940	40.789	1519.978	1364.953
-32.925	40.793	1518.675	1363.757
-31.911	40.796	1516.985	1362.202
-30.896	40.665	1516.033	1360.395
-29.881	40.796	1514.814	1360.147
-28.867	40.901	1513.006	1359.187
-27.852	40.921	1511.607	1358.012
-26.838	40.868	1510.318	1356.438
-25.823	40.867	1508.538	1354.784
-24.809	40.806	1506.967	1352.900
-23.794	40.787	1505.415	1351.323
-22.779	40.832	1504.255	1350.532
-21.765	40.827	1503.338	1349.622
-20.750	40.883	1501.982	1348.734
-19.736	40.919	1501.022	1348.063
-18.721	40.757	1500.107	1346.091
-17.706	40.714	1499.031	1344.776
-16.692	40.847	1497.587	1344.333
-15.677	40.692	1496.789	1342.513
-14.663	40.637	1495.934	1341.318
-13.648	40.714	1494.274	1340.299
-12.633	40.784	1493.393	1339.925
-11.619	40.769	1493.218	1339.614
-10.604	40.669	1492.198	1337.975
-9.590	40.796	1491.072	1337.764
-8.575	40.685	1490.267	1336.244
-7.560	40.754	1489.138	1335.643
-6.546	40.702	1488.622	1334.776
-5.531	40.590	1487.857	1333.286
-4.517	40.679	1486.636	1332.734
-3.502	40.759	1485.627	1332.316
-2.487	40.750	1484.785	1331.448
-1.473	40.739	1483.484	1330.153
-0.458	40.771	1482.392	1329.337
0.556	41.203	1472.726	1317.936
1.571	37.948	1444.845	1271.694
2.586	33.562	1380.748	1187.764
3.600	31.215	1296.615	1101.464
4.615	29.167	1247.579	1048.074
5.629	24.139	1188.722	971.203
6.644	12.902	1097.539	839.723
7.659	4.043	1051.472	761.020
8.673	2.730	1045.342	750.101
9.688	2.429	1042.652	746.637
10.702	2.193	1041.271	744.428
11.717	2.329	1038.987	743.391
12.731	5.730	1044.059	763.546
13.746	16.378	1059.072	826.831
14.761	24.432	1069.265	874.347
15.775	25.776	1069.835	881.314
16.790	25.977	1069.550	881.989
17.804	25.800	1068.938	880.539
18.819	25.585	1067.919	878.572
19.834	25.630	1067.180	878.105
20.848	25.755	1066.802	878.328
21.863	25.946	1066.218	878.698
22.877	25.853	1065.986	877.978
23.892	25.826	1065.210	877.126
24.907	25.734	1064.352	875.899
25.921	25.778	1063.878	875.642
26.936	25.853	1063.297	875.453
27.950	25.708	1061.864	873.493
28.965	25.815	1060.490	872.800
29.980	25.592	1059.321	870.684
30.994	25.568	1058.189	869.559
32.009	25.695	1057.621	869.629
33.023	25.965	1056.455	869.896
34.038	25.662	1055.417	867.504
35.053	25.577	1055.189	866.829
36.067	25.733	1054.545	866.979
37.082	25.784	1053.653	866.410
38.096	25.750	1052.498	865.222
39.111	25.993	1052.231	866.095
40.126	26.010	1051.372	865.392
41.140	25.986	1050.006	864.074
42.155	25.658	1048.680	861.339
43.169	25.434	1047.391	859.131
44.184	25.377	1046.336	857.920
45.199	25.413	1045.508	857.336
46.213	25.280	1044.628	855.906
47.228	25.436	1043.290	855.472
48.242	25.675	1042.423	855.827
49.257	25.567	1042.431	855.243
50.271	25.643	1041.588	854.836
51.286	25.714	1041.061	854.667
52.301	25.815	1040.221	854.377
53.315	25.780	1039.415	853.476
54.330	25.791	1038.625	852.805
55.344	25.682	1037.665	851.426
56.359	25.675	1037.033	850.795
57.374	25.821	1036.388	850.883
58.388	25.612	1035.449	849.050
59.403	25.429	1034.954	847.707
60.417	25.522	1034.021	847.305
61.432	25.298	1033.163	845.470
62.447	25.311	1032.800	845.162
63.461	25.463	1032.108	845.235
64.476	25.373	1031.356	844.122
65.490	25.466	1030.671	843.924
66.505	25.393	1029.232	842.328
67.520	25.470	1028.452	841.975
68.534	25.477	1027.754	841.363
69.549	25.354	1027.258	840.306
70.563	25.072	1025.597	837.553
71.578	24.999	1025.193	836.811
72.593	24.982	1023.836	835.549
73.607	24.826	1022.886	833.973
74.622	24.875	1022.281	833.635
75.636	25.142	1021.532	834.194
76.651	25.214	1020.975	833.996
77.666	25.173	1020.377	833.247
78.680	25.118	1019.223	831.976
79.695	25.096	1018.432	831.153
80.709	25.174	1018.049	831.127
81.724	25.252	1017.610	831.056
82.739	25.418	1015.976	830.415
83.753	25.355	1015.533	829.692
84.768	25.595	1014.900	830.208
85.782	25.951	1014.534	831.479
86.797	25.920	1014.288	831.061
87.812	25.970	1012.970	830.134
88.826	25.840	1012.209	828.841
89.841	25.839	1011.036	827.800
90.855	25.997	1009.786	827.431
91.870	26.053	1009.902	827.711
92.884	25.910	1009.296	826.482
93.899	25.919	1007.867	825.282
94.914	25.886	1006.685	824.092
95.928	25.932	1006.348	823.951
96.943	26.047	1005.280	823.529
97.957	25.647	1004.092	820.658
98.972	25.342	1003.633	818.819
99.987	25.197	1002.418	817.097
101.001	25.327	1001.650	816.988
102.016	25.593	1001.586	818.076
103.030	25.722	1000.820	817.964
104.045	25.526	999.459	815.889
105.060	25.448	998.451	814.641
106.074	25.399	997.303	813.412
107.089	25.269	996.632	812.203
108.103	25.604	995.893	813.041
109.118	25.789	995.217	813.254
110.133	25.437	994.086	810.670
111.147	25.535	992.892	810.067
112.162	25.369	991.625	808.213
113.176	25.063	991.059	806.304
114.191	25.232	990.173	806.272
115.206	25.355	989.367	806.097
116.220	25.040	988.459	803.875
117.235	24.882	987.393	802.225
118.249	25.113	986.820	802.726
119.264	25.121	985.868	801.914
120.279	24.938	984.896	800.237
121.293	24.926	984.576	799.852
122.308	25.176	983.429	799.965
123.322	25.157	982.438	799.001
124.337	25.044	981.959	798.041
125.352	24.991	980.562	796.598
126.366	24.702	979.028	793.998
127.381	24.363	977.561	791.236
128.395	24.661	977.780	792.664
129.410	25.340	977.732	795.564
130.424	25.532	976.499	795.340
131.439	25.562	975.640	794.701
132.454	25.647	974.496	794.074
133.468	25.694	974.028	793.832
134.483	25.524	973.252	792.381
135.497	25.610	972.343	791.948
136.512	25.890	971.988	792.822
137.527	25.885	971.399	792.247
138.541	25.881	970.380	791.331
139.556	25.956	969.877	791.177
140.570	25.898	969.040	790.171
141.585	25.912	968.432	789.665
142.600	25.934	967.780	789.162
143.614	25.871	966.670	787.913
144.629	26.016	965.809	787.772
145.643	26.206	965.360	788.168
146.658	26.126	964.206	786.805
147.673	25.907	963.111	784.891
148.687	25.924	961.663	783.713
149.702	25.737	960.723	782.068
150.716	25.703	959.908	781.186
151.731	25.618	958.836	779.876
152.746	25.614	958.489	779.507
153.760	26.019	957.627	780.489
154.775	25.936	957.068	779.605
155.789	25.957	956.765	779.383
156.804	26.064	954.959	778.303
157.819	25.917	954.464	777.196
158.833	26.022	954.063	777.256
159.848	26.131	953.287	777.024
160.862	26.074	952.731	776.256
161.877	26.074	951.676	775.325
162.892	25.896	950.690	773.690
163.906	25.904	949.946	773.053
164.921	26.011	948.997	772.668
165.935	25.907	947.784	771.168
166.950	25.976	946.833	770.621
167.964	25.983	945.821	769.760
168.979	25.936	945.157	768.951
169.994	25.926	943.933	767.843
171.008	25.723	943.151	766.274
172.023	25.944	942.418	766.551
173.037	26.121	941.405	766.414
174.052	25.850	940.796	764.699
175.067	25.754	939.568	763.224
176.081	25.731	938.664	762.325
177.096	25.750	938.083	761.868
178.110	25.731	937.349	761.126
179.125	25.535	936.156	759.261
180.140	25.327	935.225	757.562
181.154	25.332	934.895	757.246
182.169	25.427	934.323	757.115
183.183	25.654	934.095	757.822
184.198	26.033	933.615	758.960
185.213	26.005	932.748	758.072
186.227	25.902	932.071	757.019
187.242	25.954	931.947	757.073
188.256	26.017	931.471	756.882
189.271	26.041	930.060	755.768
190.286	26.093	929.805	755.713
191.300	25.951	928.490	753.983
192.315	25.383	927.372	750.635
193.329	24.640	925.904	746.279
194.344	24.187	924.370	743.090
195.359	24.695	924.766	745.460
196.373	25.643	925.264	749.747
197.388	25.832	925.110	750.345
198.402	25.717	924.647	749.422
199.417	25.801	923.818	749.035
200.432	25.930	923.377	749.147
201.446	25.861	922.764	748.298
202.461	25.609	921.739	746.356
203.475	25.531	921.469	745.746
204.490	25.165	919.738	742.762
205.504	24.150	917.938	737.045
206.519	24.279	918.024	737.585
207.534	25.315	918.223	741.965
208.548	25.471	917.406	741.880
209.563	25.729	917.549	742.994
210.577	25.879	916.734	742.888
211.592	25.501	915.750	740.467
212.607	25.946	915.785	742.263
213.621	26.045	915.789	742.608
214.636	25.991	914.810	741.526
215.650	26.030	914.218	741.143
216.665	25.827	913.602	739.743
217.680	25.937	913.433	739.992
218.694	25.942	913.010	739.607
219.709	25.721	911.852	737.696
220.723	25.511	910.616	735.771
221.738	25.581	910.348	735.777
222.753	25.737	909.945	736.024
223.767	25.862	909.019	735.719
224.782	25.918	908.598	735.543
225.796	25.959	908.053	735.202
226.811	26.320	907.358	736.047
227.826	25.810	906.034	732.833
228.840	25.091	904.475	728.585
229.855	24.866	904.048	727.264
230.869	25.102	903.890	728.031
231.884	24.734	903.037	725.785
232.899	24.819	902.470	725.612
233.913	25.584	902.476	728.653
234.928	25.940	901.691	729.393
235.942	25.598	901.414	727.723
236.957	25.687	900.872	727.581
237.972	25.446	899.904	725.760
238.986	25.279	899.129	724.399
240.001	25.451	898.474	724.500
241.015	25.431	897.600	723.647
242.030	25.517	897.481	723.836
243.045	25.686	896.848	723.941
244.059	25.881	896.211	724.146
245.074	26.091	895.665	724.484
246.088	25.840	895.193	723.031
247.103	25.495	894.473	721.001
248.117	25.638	893.858	721.015
249.132	26.180	893.484	722.820
250.147	26.507	893.558	724.126
251.161	26.590	893.107	724.028
252.176	26.733	892.728	724.227
253.190	26.895	891.389	723.723
254.205	26.763	891.396	723.138
255.220	26.892	891.200	723.431
256.234	26.901	890.773	723.057
257.249	26.879	889.800	722.116
258.263	26.798	888.694	720.830
259.278	26.728	888.348	720.208
260.293	26.681	888.411	720.011
261.307	26.831	887.776	720.024
262.322	26.744	886.635	718.691
263.336	26.697	886.044	717.963
264.351	26.253	884.899	715.217
265.366	25.147	883.039	709.277
266.380	24.632	881.833	706.209
267.395	25.654	882.026	710.340
268.409	26.365	882.029	713.085
269.424	26.225	881.796	712.279
270.439	26.370	881.489	712.542
271.453	26.628	880.792	712.929
272.468	26.380	880.355	711.538
273.482	26.604	879.855	711.950
274.497	26.882	879.243	712.487
275.512	26.598	878.409	710.635
276.526	26.118	876.625	707.247
277.541	26.316	875.946	707.411
278.555	26.705	876.313	709.168
279.570	26.483	875.705	707.742
280.585	26.256	875.463	706.597
281.599	26.390	874.285	706.110
282.614	26.660	873.944	706.823
283.628	25.994	872.879	703.305
284.643	25.636	872.092	701.213
285.657	26.028	872.133	702.710
286.672	26.158	870.997	702.241
287.687	25.414	870.351	698.764
288.701	25.859	870.135	700.256
289.716	26.053	870.373	701.142
290.730	25.889	869.180	699.480
291.745	25.754	868.506	698.355
292.760	25.623	867.643	697.093
293.774	25.524	866.915	696.062
294.789	26.314	867.593	699.603
295.803	26.957	867.708	702.124
296.818	27.109	867.146	702.195
297.833	27.121	866.570	701.711
298.847	26.819	865.437	699.566
299.862	26.481	864.553	697.486
300.876	26.889	864.081	698.616
301.891	26.958	863.823	698.609
302.906	27.044	863.477	698.602
303.920	26.810	861.935	696.393
304.935	26.591	861.038	694.764
305.949	26.954	861.015	696.080
306.964	27.067	860.609	696.122
307.979	26.888	860.134	694.992
308.993	26.839	859.521	694.245
310.008	27.141	859.261	695.131
311.022	27.369	858.424	695.263
312.037	27.165	857.999	694.079
313.052	26.865	857.493	692.461
314.066	26.673	856.996	691.267
315.081	26.152	855.005	687.616
316.095	25.325	853.778	683.420
317.110	25.732	854.347	685.366
318.125	26.711	854.530	689.177
319.139	26.395	853.341	686.958
320.154	25.039	851.922	680.608
321.168	24.619	850.860	678.107
322.183	25.264	851.059	680.652
323.197	26.181	851.552	684.463
324.212	26.503	851.440	685.532
325.227	26.733	850.829	685.849
326.241	26.824	850.307	685.715
327.256	26.764	849.825	685.037
328.270	26.614	849.242	683.939
329.285	26.609	848.304	683.104
330.300	26.305	847.663	681.382
331.314	26.315	846.651	680.547
332.329	26.199	846.458	679.897
333.343	26.699	846.233	681.537
334.358	27.055	845.774	682.445
335.373	27.055	845.313	682.011
336.387	27.011	844.806	681.376
337.402	27.110	844.543	681.476
338.416	27.300	843.964	681.661
339.431	27.443	843.504	681.763
340.446	27.317	843.316	681.078
341.460	27.537	842.845	681.462
342.475	27.507	841.942	680.560
343.489	27.344	841.309	679.380
344.504	27.230	840.841	678.516
345.519	27.508	840.406	679.139
346.533	27.704	840.385	679.795
347.548	27.777	839.892	679.606
348.562	27.680	839.415	678.801
349.577	27.870	838.562	678.758
350.592	27.672	837.950	677.468
351.606	27.696	837.417	677.066
352.621	27.566	837.251	676.387
353.635	27.547	836.564	675.702
354.650	27.417	836.314	674.960
355.665	27.218	834.818	672.955
356.679	26.161	833.297	667.761
357.694	25.990	832.783	666.659
358.708	26.614	832.917	669.014
359.723	26.550	832.788	668.615
360.738	26.677	832.280	668.618
361.752	27.286	831.996	670.574
362.767	27.313	831.951	670.577
363.781	27.687	831.473	671.513
364.796	28.025	831.061	672.363
365.810	28.137	831.007	672.670
366.825	28.093	830.533	672.066
367.840	28.069	830.113	671.579
368.854	27.916	829.483	670.449
369.869	27.609	828.066	668.119
370.883	27.338	827.834	666.880
371.898	27.364	827.818	666.904
372.913	27.504	826.576	666.357
373.927	27.381	825.947	665.340
374.942	27.494	825.632	665.440
375.956	27.478	825.292	665.047
376.971	27.648	824.579	665.036
377.986	27.799	824.215	665.232
379.000	28.130	823.550	665.844
380.015	28.209	822.799	665.465
381.029	27.966	822.553	664.323
382.044	27.835	821.897	663.260
383.059	28.009	821.341	663.382
384.073	28.003	820.944	662.980
385.088	28.016	820.489	662.602
386.102	28.109	819.594	662.158
387.117	27.813	819.089	660.618
388.132	27.758	818.469	659.863
389.146	27.468	817.707	658.143
390.161	26.964	817.100	655.774
391.175	27.125	816.859	656.106
392.190	27.566	816.916	657.686
393.205	27.722	816.401	657.773
394.219	26.747	814.731	652.860
395.234	25.061	812.218	644.731
396.248	24.196	811.285	640.822
397.263	25.257	811.967	645.120
398.278	27.072	813.367	652.706
399.292	27.728	813.198	654.866
400.307	27.508	812.392	653.371
401.321	27.201	812.323	652.156
402.336	27.397	811.720	652.317
403.350	27.675	811.943	653.435
404.365	28.093	811.897	654.839
405.380	28.327	811.635	655.406
406.394	28.634	811.273	656.153
407.409	28.733	811.062	656.278
408.423	28.891	810.375	656.230
409.438	28.606	809.817	654.700
410.453	28.713	809.496	654.767
411.467	28.845	809.009	654.785
412.482	28.700	808.335	653.663
413.496	28.702	807.577	653.001
414.511	28.763	807.813	653.351
415.526	28.652	807.721	652.825
416.540	28.654	807.203	652.355
417.555	28.732	806.378	651.905
418.569	28.479	805.505	650.248
419.584	28.445	805.027	649.683
420.599	28.551	804.261	649.384
421.613	95.357	1262.800	1373.705
422.628	81.813	1329.633	1373.851
