DTS Sentinel unit serial number:	SN413079Multiplexer serial number:	ORYXHardware model number:	OX4-SRSoftware version number:	ORYX F/W v4.00 Oryx Data Collector v3.7.2.0data status	okinstallation	princeton_trtdifferential loss correction	single-endedforward channel	channel 3reverse channel	N/Adate	2019/09/18time	12:40:35forward acquisition time	60.00reverse acquisition time	0.00gamma	496.2192k internal	0.2317k external	0.2317temperature offset calibration	0.9964default loss term (dB/km)	0.3790temperature slope calibration	1.0000multiplexer offset coefficient	1.0000multiplexer slope coefficient	1.0000fibre end	0.00T internal ref (°C)	32.69T ext. ref 1 (°C)	0.54T ext. ref 2 (°C)	31.31length (m)	temperature (°C)	Stokes	anti-Stokes-747.200	-126.859	-0.175	0.026
-746.185	24.508	0.092	0.077
-745.171	-61.615	0.188	-0.080
-744.156	-126.223	-0.338	0.051
-743.142	208.695	0.174	0.275
-742.127	251.327	-0.112	-0.193
-741.112	-162.787	-0.154	0.008
-740.098	-200.000	-0.038	0.267
-739.083	-200.000	0.011	0.094
-738.069	114.696	-0.028	0.035
-737.054	-14.161	-0.234	-0.153
-736.039	-200.000	0.026	0.144
-735.025	560.902	0.087	0.213
-734.010	17.326	0.062	0.050
-732.996	-94.845	-0.276	0.076
-731.981	691.553	-0.100	0.265
-730.966	290.419	0.026	0.048
-729.952	-200.000	-0.013	-0.061
-728.937	-200.000	-0.023	-0.127
-727.923	-28.666	-0.129	0.075
-726.908	397.322	0.168	0.355
-725.894	-189.002	-0.121	0.001
-724.879	185.354	-0.060	-0.090
-723.864	-117.762	-0.426	0.077
-722.850	-37.087	0.081	-0.044
-721.835	-119.637	-0.674	-0.118
-720.821	-50.185	-0.074	-0.036
-719.806	-156.651	-0.130	-0.008
-718.791	94.215	-0.078	0.090
-717.777	113.529	-0.228	0.280
-716.762	239.244	-0.085	0.143
-715.748	-115.620	-0.105	0.020
-714.733	-200.000	0.012	-0.175
-713.718	34.473	-0.131	-0.116
-712.704	-6.421	0.112	-0.077
-711.689	800.000	-0.101	-0.435
-710.675	-140.714	-0.171	0.018
-709.660	63.311	0.142	-0.144
-708.645	-185.169	0.088	0.001
-707.631	63.694	0.165	-0.168
-706.616	-137.594	-0.328	-0.037
-705.602	34.317	0.185	-0.163
-704.587	-200.000	-0.021	-0.361
-703.572	800.000	0.074	0.213
-702.558	98.949	-0.082	-0.095
-701.543	-149.916	0.073	0.006
-700.529	150.303	0.158	-0.216
-699.514	-122.121	0.303	-0.050
-698.499	-129.002	-0.159	0.022
-697.485	87.449	-0.099	0.110
-696.470	28.055	0.098	0.083
-695.456	-73.307	-0.060	-0.022
-694.441	-62.069	0.203	-0.086
-693.426	-136.506	0.271	-0.032
-692.412	61.233	0.079	-0.079
-691.397	-79.639	0.370	0.126
-690.383	-200.000	-0.034	0.305
-689.368	58.223	-0.327	-0.324
-688.354	-135.303	0.225	0.027
-687.339	-74.260	-0.135	-0.049
-686.324	-87.326	0.417	-0.128
-685.310	247.810	0.078	-0.134
-684.295	800.000	0.059	0.228
-683.281	-200.000	-0.002	-0.062
-682.266	200.344	0.208	-0.323
-681.251	-200.000	-0.042	0.314
-680.237	231.900	0.095	-0.157
-679.222	-200.000	-0.033	-0.328
-678.208	67.626	0.094	-0.097
-677.193	134.121	-0.230	0.301
-676.178	-200.000	0.042	-0.393
-675.164	197.426	-0.065	0.100
-674.149	800.000	-0.059	-0.167
-673.135	68.574	-0.219	0.227
-672.120	-139.102	-0.042	-0.005
-671.105	96.786	-0.121	0.140
-670.091	-200.000	0.026	0.340
-669.076	87.885	-0.281	0.315
-668.062	-141.221	0.291	0.030
-667.047	-115.724	0.231	0.044
-666.032	186.168	-0.125	-0.188
-665.018	115.228	0.171	-0.211
-664.003	-200.000	-0.062	-0.300
-662.989	419.436	0.028	0.061
-661.974	-200.000	0.029	0.208
-660.959	47.534	0.277	0.261
-659.945	-74.503	0.139	0.051
-658.930	800.000	-0.081	-0.299
-657.916	266.483	-0.069	0.121
-656.901	-141.466	-0.236	-0.024
-655.886	33.339	0.092	0.081
-654.872	800.000	-0.062	-0.248
-653.857	800.000	0.030	-0.095
-652.843	-124.527	-0.259	-0.041
-651.828	-32.323	-0.235	0.132
-650.814	-15.221	-0.117	0.075
-649.799	43.861	0.117	0.109
-648.784	408.903	0.022	-0.048
-647.770	-51.632	0.081	-0.038
-646.755	-23.183	0.062	-0.038
-645.741	800.000	-0.048	-0.163
-644.726	-47.398	-0.223	-0.109
-643.711	-69.906	-0.282	0.109
-642.697	147.971	-0.036	-0.049
-641.682	89.257	-0.333	-0.375
-640.668	-117.003	-0.138	0.025
-639.653	-200.000	-0.034	-0.332
-638.638	9.930	0.064	-0.049
-637.624	100.906	0.134	-0.157
-636.609	-200.000	0.026	0.228
-635.595	-42.374	0.134	0.069
-634.580	179.906	-0.130	-0.193
-633.565	800.000	-0.069	-0.273
-632.551	173.323	-0.085	0.123
-631.536	34.804	-0.089	-0.078
-630.522	45.191	-0.206	-0.192
-629.507	-200.000	0.024	-0.110
-628.492	122.625	-0.092	-0.115
-627.478	-5.458	-0.268	-0.186
-626.463	652.534	0.074	-0.192
-625.449	800.000	0.026	-0.103
-624.434	132.465	-0.117	-0.153
-623.419	-200.000	-0.034	0.271
-622.405	-200.000	0.048	-0.536
-621.390	12.198	-0.320	0.249
-620.376	-57.512	-0.104	0.046
-619.361	-59.405	0.241	0.104
-618.346	-97.545	0.070	0.018
-617.332	-73.313	0.215	-0.079
-616.317	800.000	0.055	-0.155
-615.303	359.974	0.088	-0.178
-614.288	554.285	0.022	-0.054
-613.273	580.838	-0.029	-0.072
-612.259	-200.000	0.059	-0.349
-611.244	85.047	0.100	-0.110
-610.230	-105.810	0.191	-0.043
-609.215	-94.954	-0.247	-0.067
-608.201	-134.401	-0.312	0.039
-607.186	-200.000	0.003	-0.121
-606.171	-20.072	0.288	0.179
-605.157	51.476	-0.289	-0.276
-604.142	-105.271	-0.206	-0.047
-603.128	162.326	0.108	-0.153
-602.113	-147.348	0.208	0.018
-601.098	-75.284	-0.204	-0.073
-600.084	176.481	-0.163	0.239
-599.069	-200.000	-0.054	0.363
-598.055	33.781	0.116	-0.101
-597.040	-55.849	-0.193	0.087
-596.025	-110.017	0.466	0.098
-595.011	-148.228	-0.326	0.027
-593.996	-200.000	0.017	0.157
-592.982	1.644	-0.164	-0.119
-591.967	75.550	0.052	0.055
-590.952	800.000	-0.055	-0.159
-589.938	-165.079	-0.186	-0.008
-588.923	381.139	-0.153	-0.316
-587.909	404.422	0.125	0.265
-586.894	25.124	-0.087	-0.073
-585.879	-64.227	0.215	0.088
-584.865	-22.140	0.188	-0.115
-583.850	-84.401	-0.229	0.073
-582.836	16.081	0.092	-0.073
-581.821	55.986	-0.083	0.081
-580.806	800.000	0.025	0.082
-579.792	111.425	0.065	0.079
-578.777	24.792	0.193	-0.161
-577.763	118.165	0.080	-0.099
-576.748	-200.000	0.024	-0.478
-575.733	800.000	0.054	-0.178
-574.719	-29.274	-0.312	-0.180
-573.704	-200.000	0.046	0.408
-572.690	267.196	0.203	0.357
-571.675	-6.012	0.327	-0.225
-570.661	-0.749	-0.235	0.167
-569.646	-112.993	0.056	0.011
-568.631	-200.000	0.038	-0.293
-567.617	-137.826	-0.413	-0.046
-566.602	-91.122	-0.149	0.043
-565.588	-200.000	-0.014	-0.083
-564.573	-155.646	0.339	0.022
-563.558	212.626	0.190	0.302
-562.544	800.000	-0.119	0.470
-561.529	-67.219	-0.333	-0.132
-560.515	-15.419	-0.104	-0.067
-559.500	-32.142	0.246	-0.138
-558.485	250.619	0.089	0.152
-557.471	800.000	-0.063	-0.196
-556.456	800.000	-0.022	-0.071
-555.442	184.099	-0.211	-0.314
-554.427	108.059	0.155	0.186
-553.412	-105.387	0.101	0.023
-552.398	17.313	0.057	0.045
-551.383	183.256	0.093	-0.139
-550.369	258.288	-0.099	-0.171
-549.354	43.004	0.057	0.052
-548.339	246.843	-0.117	-0.199
-547.325	-93.361	0.397	0.111
-546.310	-173.993	-0.486	-0.014
-545.296	133.027	-0.221	0.287
-544.281	2.435	0.271	0.197
-543.266	-9.828	0.146	0.098
-542.252	-200.000	0.073	-0.325
-541.237	-19.388	-0.021	-0.013
-540.223	-193.841	0.204	-0.002
-539.208	-200.000	0.015	0.317
-538.193	-96.549	0.227	-0.060
-537.179	-113.440	0.081	-0.016
-536.164	268.186	-0.065	0.115
-535.150	-200.000	0.031	-0.178
-534.135	-131.536	0.269	-0.036
-533.121	800.000	-0.068	0.192
-532.106	202.941	-0.036	0.056
-531.091	-175.677	0.318	0.009
-530.077	59.086	-0.310	-0.306
-529.062	-200.000	0.043	-0.386
-528.048	-97.121	0.127	0.033
-527.033	93.822	-0.375	0.427
-526.018	253.323	-0.046	-0.079
-525.004	533.596	0.095	0.226
-523.989	-89.288	-0.094	0.028
-522.975	-101.194	0.207	0.051
-521.960	-200.000	-0.022	-0.114
-520.945	-100.241	-0.287	0.072
-519.931	-41.605	-0.307	-0.159
-518.916	-26.605	-0.206	-0.121
-517.902	-200.000	-0.113	-0.499
-516.887	-200.000	0.048	-0.388
-515.872	18.107	0.085	-0.068
-514.858	702.398	0.024	0.062
-513.843	44.346	0.162	-0.149
-512.829	800.000	0.027	0.090
-511.814	-137.797	-0.429	0.048
-510.799	260.647	-0.025	-0.044
-509.785	171.801	0.075	-0.108
-508.770	230.050	-0.118	0.194
-507.756	-4.559	0.355	-0.246
-506.741	-53.109	-0.241	-0.111
-505.726	-200.000	-0.064	-0.399
-504.712	-200.000	0.065	-0.742
-503.697	201.679	0.184	-0.285
-502.683	57.876	0.119	-0.117
-501.668	800.000	0.033	0.143
-500.653	28.407	-0.206	0.175
-499.639	-200.000	-0.021	0.357
-498.624	800.000	-0.042	0.126
-497.610	733.613	-0.040	0.107
-496.595	-47.949	-0.387	-0.188
-495.581	6.831	-0.303	-0.226
-494.566	24.868	0.099	0.083
-493.551	112.871	0.113	-0.138
-492.537	16.522	-0.215	-0.170
-491.522	-162.090	-0.057	0.003
-490.508	-114.975	-0.027	0.005
-489.493	-31.779	-0.294	0.165
-488.478	-200.000	-0.024	-0.140
-487.464	800.000	0.049	0.166
-486.449	-200.000	0.016	-0.100
-485.435	782.960	0.119	-0.327
-484.420	-200.000	-0.008	-0.164
-483.405	-182.966	0.127	0.002
-482.391	-86.307	-0.164	0.051
-481.376	-200.000	0.262	0.001
-480.362	-28.551	0.106	-0.061
-479.347	459.276	0.068	0.151
-478.332	-35.765	0.073	0.039
-477.318	-36.122	0.206	0.111
-476.303	-84.751	0.090	0.028
-475.289	800.000	-0.090	0.352
-474.274	-61.649	-0.446	0.188
-473.259	-185.697	0.082	0.001
-472.245	208.579	0.027	0.042
-471.230	-42.549	0.105	-0.054
-470.216	-130.064	-0.360	0.049
-469.201	20.664	0.166	0.135
-468.186	800.000	-0.027	0.076
-467.172	-150.061	-0.132	0.010
-466.157	-29.684	0.150	0.086
-465.143	-111.612	0.304	0.062
-464.128	-22.113	0.285	0.173
-463.113	381.560	0.080	-0.165
-462.099	-119.282	-0.267	-0.047
-461.084	-24.699	0.128	-0.076
-460.070	25.112	-0.053	-0.044
-459.055	204.472	0.016	0.025
-458.040	-200.000	-0.095	0.512
-457.026	800.000	-0.079	0.321
-456.011	313.512	-0.116	-0.218
-454.997	-200.000	0.012	0.194
-453.982	-116.319	-0.180	-0.033
-452.968	-76.261	0.161	0.057
-451.953	-200.000	-0.010	0.218
-450.938	135.327	-0.142	0.185
-449.924	800.000	-0.062	0.207
-448.909	-200.000	-0.008	0.038
-447.895	380.321	-0.169	-0.347
-446.880	-200.000	-0.017	-0.100
-445.865	-200.000	-0.000	-0.093
-444.851	-86.772	-0.086	-0.026
-443.836	-200.000	0.043	-0.323
-442.822	40.225	0.269	0.242
-441.807	114.118	0.149	0.181
-440.792	521.925	0.209	-0.492
-439.778	-109.605	-0.244	-0.052
-438.763	800.000	-0.160	0.449
-437.749	800.000	-0.042	-0.134
-436.734	-200.000	0.051	0.252
-435.719	-66.969	0.113	0.045
-434.705	-33.335	-0.116	-0.064
-433.690	-152.294	0.392	0.028
-432.676	800.000	0.026	0.109
-431.661	-28.583	-0.171	0.099
-430.646	-117.161	-0.221	-0.040
-429.632	-63.568	0.117	0.048
-428.617	-32.901	0.233	0.129
-427.603	800.000	0.062	0.266
-426.588	451.335	-0.064	-0.142
-425.573	-8.648	-0.144	0.096
-424.559	-93.294	-0.284	0.079
-423.544	-200.000	0.045	-0.420
-422.530	12.813	0.121	0.093
-421.515	11.465	0.175	-0.134
-420.500	587.013	0.047	0.115
-419.486	-33.828	0.019	-0.011
-418.471	-114.712	0.360	-0.069
-417.457	-200.000	0.039	0.175
-416.442	337.643	-0.109	-0.213
-415.428	145.402	-0.135	0.181
-414.413	800.000	-0.034	-0.132
-413.398	-81.571	0.346	-0.114
-412.384	-18.765	0.240	0.149
-411.369	-28.411	-0.052	-0.030
-410.355	-200.000	-0.038	0.233
-409.340	-45.052	0.135	0.067
-408.325	60.932	-0.090	0.089
-407.311	149.401	-0.065	0.088
-406.296	125.278	-0.178	0.224
-405.282	61.587	0.206	0.204
-404.267	-49.143	0.135	-0.064
-403.252	-103.934	0.223	0.052
-402.238	95.296	0.054	-0.061
-401.223	800.000	0.105	-0.437
-400.209	-49.959	0.086	-0.041
-399.194	18.228	0.050	0.040
-398.179	-200.000	0.001	-0.217
-397.165	-62.541	0.377	0.156
-396.150	-131.711	-0.325	0.043
-395.136	102.738	0.113	0.133
-394.121	419.819	0.133	0.285
-393.106	238.648	0.099	-0.165
-392.092	-41.594	0.221	-0.113
-391.077	-46.720	-0.144	0.070
-390.063	-130.098	-0.120	-0.016
-389.048	-133.785	0.334	0.042
-388.033	255.520	0.022	-0.038
-387.019	-18.111	-0.047	0.030
-386.004	-200.000	0.055	0.410
-384.990	314.874	-0.216	-0.406
-383.975	109.502	0.178	0.213
-382.960	-200.000	-0.253	-0.001
-381.946	-101.269	0.193	0.047
-380.931	800.000	-0.056	-0.156
-379.917	-157.695	-0.173	0.010
-378.902	-200.000	0.007	0.235
-377.888	-86.393	0.356	0.109
-376.873	-99.781	0.506	0.127
-375.858	68.319	-0.065	0.066
-374.844	-147.932	-0.062	0.005
-373.829	-200.000	-0.038	-0.434
-372.815	-24.360	-0.308	-0.183
-371.800	-48.237	0.250	-0.120
-370.785	220.234	0.041	0.066
-369.771	263.151	0.072	0.124
-368.756	-148.636	-0.210	0.017
-367.742	-164.217	-0.406	-0.019
-366.727	316.297	0.048	0.091
-365.712	61.626	0.250	-0.248
-364.698	-86.434	-0.132	0.040
-363.683	-78.627	0.067	-0.023
-362.669	26.068	0.043	0.036
-361.654	-67.054	0.201	0.079
-360.639	-150.834	-0.320	-0.024
-359.625	-52.225	-0.098	0.045
-358.610	-13.733	0.037	0.024
-357.596	183.419	-0.081	-0.119
-356.581	282.132	0.254	0.454
-355.566	280.646	-0.099	-0.177
-354.552	66.276	0.164	-0.167
-353.537	8.323	-0.426	-0.319
-352.523	98.002	0.072	0.082
-351.508	-200.000	0.000	-0.169
-350.493	-73.952	0.250	0.090
-349.479	-200.000	-0.056	-0.363
-348.464	286.348	-0.263	-0.474
-347.450	-10.832	-0.265	0.175
-346.435	-108.185	0.250	0.054
-345.420	194.769	-0.125	0.189
-344.406	-44.105	-0.141	-0.071
-343.391	279.124	0.246	0.437
-342.377	-71.408	-0.120	0.045
-341.362	-24.987	0.023	0.014
-340.348	-200.000	0.004	-0.107
-339.333	61.648	-0.090	-0.089
-338.318	-200.000	0.025	-0.152
-337.304	19.625	0.254	0.204
-336.289	-130.287	0.049	-0.007
-335.275	-200.000	-0.068	0.493
-334.260	90.188	0.100	0.112
-333.245	87.535	0.183	0.201
-332.231	-156.530	0.204	-0.013
-331.216	-154.202	0.206	0.014
-330.202	-139.273	-0.262	-0.028
-329.187	800.000	0.023	0.083
-328.172	-72.572	-0.350	0.129
-327.158	183.727	-0.007	0.011
-326.143	-200.000	-0.042	0.290
-325.129	-122.578	0.300	0.049
-324.114	151.780	0.071	-0.096
-323.099	-156.399	0.269	-0.017
-322.085	-200.000	-0.050	0.232
-321.070	-98.987	0.182	0.046
-320.056	-21.670	-0.075	-0.046
-319.041	126.134	0.028	-0.035
-318.026	-110.463	0.356	-0.074
-317.012	-97.181	0.055	0.014
-315.997	-186.039	0.263	0.004
-314.983	-59.843	-0.211	0.090
-313.968	-28.947	-0.088	0.051
-312.953	-1.987	-0.435	-0.304
-311.939	-28.338	-0.089	0.051
-310.924	-48.894	0.288	-0.137
-309.910	-200.000	0.015	-0.183
-308.895	111.616	0.098	0.118
-307.880	138.153	-0.148	0.193
-306.866	548.355	-0.059	-0.141
-305.851	-64.694	-0.102	-0.041
-304.837	508.851	-0.029	0.066
-303.822	167.856	0.137	-0.193
-302.807	72.889	-0.143	0.148
-301.793	436.260	0.135	-0.292
-300.778	98.500	-0.212	0.244
-299.764	-61.046	0.117	-0.049
-298.749	-105.894	0.123	0.028
-297.735	-127.783	-0.255	0.037
-296.720	35.910	0.070	-0.061
-295.705	-200.000	0.005	0.310
-294.691	396.607	-0.094	-0.196
-293.676	-200.000	0.019	0.111
-292.662	-46.142	-0.126	-0.062
-291.647	800.000	-0.070	-0.203
-290.632	-200.000	0.030	-0.213
-289.618	-200.000	-0.024	0.165
-288.603	291.180	-0.052	-0.093
-287.589	369.485	0.081	-0.163
-286.574	-99.028	-0.070	0.018
-285.559	63.488	-0.082	-0.081
-284.545	800.000	-0.089	0.311
-283.530	-200.000	-0.006	0.071
-282.516	-30.759	-0.142	-0.080
-281.501	258.606	0.213	-0.366
-280.486	-200.000	0.014	0.106
-279.472	800.000	0.064	0.275
-278.457	63.043	0.180	0.179
-277.443	313.587	0.070	-0.132
-276.428	100.012	0.096	-0.110
-275.413	262.317	-0.044	0.077
-274.399	8.564	-0.067	0.050
-273.384	-108.634	-0.134	0.029
-272.370	-200.000	-0.010	0.165
-271.355	-114.631	-0.346	0.066
-270.340	57.417	0.142	-0.137
-269.326	-200.000	-0.023	-0.542
-268.311	738.588	-0.102	0.272
-267.297	-141.664	0.401	-0.040
-266.282	-152.229	-0.051	-0.004
-265.267	-74.129	-0.287	0.103
-264.253	10.968	-0.056	-0.043
-263.238	67.685	0.196	-0.199
-262.224	635.496	0.129	0.327
-261.209	712.525	0.145	-0.381
-260.195	-107.656	-0.291	-0.063
-259.180	189.677	0.102	0.152
-258.165	38.574	-0.180	-0.159
-257.151	-83.369	-0.509	0.162
-256.136	-200.000	0.024	0.144
-255.122	-185.459	0.147	-0.002
-254.107	-12.618	0.098	0.063
-253.092	116.637	0.089	0.108
-252.078	-200.000	0.063	-0.315
-251.063	-117.930	0.208	0.037
-250.049	18.362	0.198	-0.157
-249.034	-127.800	-0.254	0.036
-248.019	23.744	0.309	-0.253
-247.005	81.005	-0.214	0.230
-245.990	-183.229	0.343	0.006
-244.976	230.540	0.142	-0.231
-243.961	-0.415	-0.316	0.223
-242.946	-200.000	0.045	-0.355
-241.932	275.959	0.084	-0.148
-240.917	-102.484	-0.195	0.046
-239.903	800.000	-0.081	0.247
-238.888	257.176	-0.018	0.031
-237.873	313.630	0.144	0.269
-236.859	-172.219	0.215	-0.007
-235.844	-90.145	0.245	0.071
-234.830	-143.035	-0.088	0.008
-233.815	-99.198	-0.162	-0.041
-232.800	-200.000	0.044	-0.224
-231.786	-150.466	0.097	-0.007
-230.771	-86.178	0.173	-0.053
-229.757	-200.000	-0.018	0.232
-228.742	-128.340	0.290	-0.041
-227.727	-200.000	0.015	0.000
-226.713	-166.018	0.143	0.006
-225.698	169.531	-0.110	-0.155
-224.684	341.359	-0.047	0.092
-223.669	-44.515	-0.132	0.065
-222.655	-178.204	0.375	-0.009
-221.640	800.000	-0.070	0.274
-220.625	-100.135	-0.334	0.082
-219.611	128.146	0.048	-0.061
-218.596	800.000	-0.142	0.522
-217.582	90.703	0.156	0.173
-216.567	410.676	-0.161	0.339
-215.552	303.278	0.083	-0.152
-214.538	340.788	-0.064	-0.124
-213.523	-60.261	-0.197	0.083
-212.509	18.211	0.276	-0.218
-211.494	-107.162	0.181	-0.040
-210.479	-200.000	-0.026	0.286
-209.465	180.268	-0.144	-0.209
-208.450	-89.849	0.321	0.093
-207.436	339.759	0.127	0.245
-206.421	800.000	-0.013	-0.042
-205.406	107.956	-0.223	-0.264
-204.392	-200.000	0.008	-0.251
-203.377	800.000	-0.091	-0.286
-202.363	800.000	0.033	0.135
-201.348	59.641	-0.033	-0.032
-200.333	-200.000	0.052	-0.233
-199.319	313.863	0.178	-0.331
-198.304	55.122	0.031	-0.030
-197.290	114.781	0.082	0.100
-196.275	-128.068	0.136	-0.019
-195.260	106.519	0.154	0.181
-194.246	-100.486	0.134	0.033
-193.231	197.783	0.150	0.227
-192.217	536.965	-0.164	0.387
-191.202	-200.000	0.017	0.150
-190.187	-93.706	-0.464	-0.127
-189.173	-68.447	0.130	-0.050
-188.158	-200.000	-0.065	0.298
-187.144	-200.000	0.024	-0.112
-186.129	-164.462	0.102	0.005
-185.114	-200.000	-0.024	0.267
-184.100	-74.901	-0.217	-0.077
-183.085	9.309	-0.133	0.100
-182.071	-200.000	-0.002	-0.039
-181.056	-74.247	0.211	0.075
-180.042	124.444	0.214	-0.266
-179.027	-81.447	-0.352	-0.115
-178.012	-90.919	0.034	0.010
-176.998	262.033	0.120	0.207
-175.983	-84.028	0.104	0.033
-174.969	504.078	0.120	0.276
-173.954	-95.337	0.153	-0.041
-172.939	800.000	0.017	-0.058
-171.925	120.204	-0.240	0.295
-170.910	658.360	0.087	0.223
-169.896	-65.071	-0.205	0.082
-168.881	296.996	-0.149	0.270
-167.866	-200.000	0.001	-0.165
-166.852	259.408	-0.221	-0.377
-165.837	-97.858	0.080	-0.020
-164.823	167.603	-0.040	0.057
-163.808	543.921	0.043	0.103
-162.793	53.722	-0.099	0.094
-161.779	194.846	0.191	0.286
-160.764	-111.490	-0.323	0.065
-159.750	800.000	-0.175	0.584
-158.735	800.000	0.129	0.366
-157.720	13.050	-0.207	0.158
-156.706	-103.892	-0.232	0.054
-155.691	-33.493	-0.231	-0.126
-154.677	161.757	-0.142	-0.196
-153.662	-52.141	0.147	0.068
-152.647	800.000	-0.016	-0.050
-151.633	132.237	-0.070	-0.089
-150.618	800.000	0.071	-0.283
-149.604	211.921	0.073	0.114
-148.589	-107.139	0.300	-0.065
-147.574	39.073	-0.212	0.188
-146.560	-130.612	0.625	-0.083
-145.545	404.703	-0.075	0.156
-144.531	359.478	0.086	0.170
-143.516	800.000	0.093	0.319
-142.502	-106.501	-0.254	-0.056
-141.487	238.007	-0.303	0.497
-140.472	400.457	-0.132	0.275
-139.458	150.826	-0.128	-0.172
-138.443	61.164	-0.065	-0.064
-137.429	-34.517	-0.358	0.194
-136.414	800.000	0.022	-0.089
-135.399	591.344	-0.087	0.213
-134.385	459.104	-0.121	-0.266
-133.370	-190.499	-0.167	-0.002
-132.356	-200.000	0.011	0.093
-131.341	-177.642	0.112	-0.003
-130.326	-71.643	-0.359	0.132
-129.312	-200.000	-0.001	0.458
-128.297	154.393	0.163	-0.221
-127.283	-200.000	0.039	0.176
-126.268	-200.000	0.014	-0.154
-125.253	67.879	-0.149	0.150
-124.239	51.903	-0.231	0.218
-123.224	-24.731	-0.276	-0.162
-122.210	120.547	-0.095	0.117
-121.195	229.509	0.110	-0.177
-120.180	-70.474	0.494	-0.185
-119.166	-87.626	0.096	0.029
-118.151	-29.414	-0.112	-0.063
-117.137	131.590	-0.089	-0.114
-116.122	150.743	-0.210	0.282
-115.107	509.404	-0.054	0.124
-114.093	-179.590	0.452	-0.010
-113.078	158.200	0.301	0.412
-112.064	385.604	-0.174	0.354
-111.049	120.826	-0.104	-0.128
-110.034	-200.000	-0.026	-0.175
-109.020	60.112	0.213	0.208
-108.005	134.257	0.216	-0.276
-106.991	372.272	0.083	-0.167
-105.976	-23.037	-0.051	-0.030
-104.962	-100.921	-0.093	0.023
-103.947	800.000	-0.003	-0.010
-102.932	-6.505	-0.369	-0.249
-101.918	359.480	0.067	-0.133
-100.903	-200.000	0.023	-0.258
-99.889	-53.365	0.292	0.132
-98.874	738.345	0.065	-0.172
-97.859	237.485	0.068	-0.111
-96.845	-200.000	-0.001	-0.316
-95.830	-146.911	-0.181	0.015
-94.816	-28.041	-0.148	-0.084
-93.801	-119.762	0.171	0.029
-92.786	42.368	0.207	0.186
-91.772	272.949	-0.038	0.066
-90.757	-22.981	0.299	-0.178
-89.743	-49.872	-0.158	0.074
-88.728	-200.000	0.037	0.348
-87.713	8.764	-0.078	-0.058
-86.699	-49.753	-0.308	0.144
-85.684	800.000	-0.041	-0.147
-84.670	800.000	0.043	0.168
-83.655	-41.209	0.064	-0.032
-82.640	45.991	-0.176	-0.161
-81.626	-200.000	-0.016	0.071
-80.611	-200.000	0.004	0.035
-79.597	-120.185	-0.224	0.038
-78.582	47.991	-0.105	-0.097
-77.567	-99.920	-0.156	0.038
-76.553	-200.000	0.021	0.154
-75.538	-141.915	0.296	-0.029
-74.524	-200.000	0.029	0.388
-73.509	143.543	0.106	-0.140
-72.494	-65.619	-0.027	-0.011
-71.480	-199.371	0.182	0.001
-70.465	261.966	0.074	0.127
-69.451	374.005	-0.075	-0.150
-68.436	11.894	-0.182	0.138
-67.422	800.000	-0.059	0.183
-66.407	412.972	0.040	0.085
-65.392	-96.506	0.473	0.123
-64.378	23.755	-0.356	0.289
-63.363	800.000	0.017	-0.062
-62.349	-32.415	-0.144	-0.079
-61.334	41.505	-0.906	-0.809
-60.319	205.459	0.391	0.599
-59.305	369.899	-0.330	-0.659
-58.290	406.178	0.534	1.112
-57.276	800.000	0.455	1.693
-56.261	-200.000	95.145	543.299
-55.246	481.632	1438.566	3219.468
-54.232	147.312	2641.181	3504.377
-53.217	108.266	2233.829	2626.491
-52.203	42.939	1756.709	1578.470
-51.188	35.837	1564.540	1355.918
-50.173	33.371	1537.020	1314.920
-49.159	51.915	1584.180	1486.326
-48.144	54.004	1602.843	1518.511
-47.130	36.030	1562.822	1355.576
-46.115	32.966	1547.628	1320.953
-45.100	32.854	1543.860	1316.900
-44.086	32.844	1542.251	1315.408
-43.071	32.724	1540.438	1312.974
-42.057	32.707	1539.078	1311.641
-41.042	32.723	1536.969	1309.907
-40.027	32.750	1535.914	1309.144
-39.013	32.645	1534.748	1307.366
-37.998	32.660	1533.232	1306.125
-36.984	32.720	1532.030	1305.470
-35.969	32.750	1530.674	1304.471
-34.954	32.690	1529.254	1302.795
-33.940	32.693	1527.961	1301.661
-32.925	32.725	1526.169	1300.301
-31.911	32.708	1525.254	1299.353
-30.896	32.845	1522.942	1298.271
-29.881	32.786	1522.076	1297.079
-28.867	32.695	1521.243	1295.690
-27.852	32.748	1518.915	1294.020
-26.838	32.739	1517.609	1292.799
-25.823	32.709	1516.442	1291.547
-24.809	32.700	1514.314	1289.619
-23.794	32.750	1512.475	1288.347
-22.779	32.745	1511.696	1287.596
-21.765	32.778	1510.534	1286.783
-20.750	32.698	1509.592	1285.377
-19.736	32.726	1508.742	1284.795
-18.721	32.690	1507.679	1283.596
-17.706	32.719	1506.043	1282.352
-16.692	32.683	1505.191	1281.328
-15.677	32.674	1504.028	1280.226
-14.663	32.568	1503.728	1279.197
-13.648	32.663	1502.581	1278.815
-12.633	32.511	1501.862	1277.122
-11.619	32.574	1500.843	1276.633
-10.604	32.739	1499.972	1276.959
-9.590	32.624	1499.238	1275.506
-8.575	32.660	1498.119	1274.749
-7.560	32.666	1497.238	1273.991
-6.546	32.708	1495.910	1273.091
-5.531	32.612	1495.172	1271.761
-4.517	32.628	1494.405	1271.167
-3.502	32.674	1492.958	1270.196
-2.487	32.633	1492.276	1269.288
-1.473	32.676	1490.903	1268.364
-0.458	32.682	1489.676	1267.309
0.556	31.654	1480.854	1259.371
1.571	29.471	1455.679	1223.398
2.586	26.366	1393.136	1150.998
3.600	24.305	1308.503	1068.645
4.615	22.318	1261.152	1018.390
5.629	18.849	1202.979	952.145
6.644	9.758	1113.246	834.221
7.659	1.882	1070.083	762.525
8.673	0.720	1064.119	752.425
9.688	0.538	1061.182	749.381
10.702	0.457	1059.783	747.926
11.717	0.455	1058.092	746.657
12.731	3.187	1060.791	762.035
13.746	11.716	1072.639	813.037
14.761	17.338	1079.613	846.304
15.775	17.520	1078.606	846.348
16.790	16.730	1076.231	840.487
17.804	15.675	1074.728	834.009
18.819	14.703	1073.036	827.806
19.834	14.404	1071.318	824.929
20.848	14.021	1070.135	822.049
21.863	13.730	1069.583	820.114
22.877	13.534	1068.471	818.220
23.892	13.357	1067.848	816.798
24.907	13.183	1066.995	815.215
25.921	13.266	1065.997	814.787
26.936	13.247	1065.334	814.115
27.950	13.202	1065.149	813.682
28.965	13.418	1064.016	813.807
29.980	13.414	1063.452	813.281
30.994	13.429	1061.924	812.114
32.009	13.522	1061.173	811.927
33.023	13.533	1060.215	811.175
34.038	13.455	1059.693	810.323
35.053	13.595	1058.455	809.985
36.067	13.364	1057.964	808.414
37.082	13.464	1056.625	807.808
38.096	13.519	1055.759	807.338
39.111	13.531	1055.301	806.975
40.126	13.531	1054.661	806.418
41.140	13.381	1053.334	804.602
42.155	13.254	1052.862	803.551
43.169	13.294	1051.525	802.656
44.184	13.327	1050.418	801.898
45.199	13.378	1049.046	801.029
46.213	13.381	1048.249	800.360
47.228	13.348	1047.090	799.248
48.242	13.327	1046.235	798.419
49.257	13.366	1045.710	798.138
50.271	13.342	1044.420	796.970
51.286	13.370	1043.855	796.601
52.301	13.441	1042.632	795.940
53.315	13.533	1041.626	795.540
54.330	13.308	1041.364	794.189
55.344	13.385	1039.964	793.421
56.359	13.318	1039.469	792.654
57.374	13.283	1038.693	791.823
58.388	13.190	1037.820	790.646
59.403	13.293	1036.736	790.241
60.417	13.250	1036.067	789.453
61.432	13.270	1035.560	789.092
62.447	13.195	1034.955	788.203
63.461	13.188	1034.108	787.457
64.476	13.275	1032.599	786.651
65.490	13.256	1031.722	785.825
66.505	13.117	1031.118	784.634
67.520	13.133	1030.601	784.248
68.534	13.301	1029.458	784.104
69.549	13.390	1028.647	783.840
70.563	13.314	1027.884	782.828
71.578	13.268	1027.384	782.160
72.593	13.162	1025.976	780.518
73.607	13.127	1025.510	779.930
74.622	13.150	1024.465	779.177
75.636	13.273	1023.274	778.779
76.651	13.153	1022.969	777.914
77.666	13.162	1022.177	777.284
78.680	13.177	1021.207	776.549
79.695	13.249	1020.700	776.432
80.709	13.296	1020.550	776.473
81.724	13.219	1019.355	775.130
82.739	13.305	1018.526	774.836
83.753	13.396	1017.674	774.548
84.768	13.324	1017.203	773.781
85.782	13.347	1016.411	773.218
86.797	13.378	1015.810	772.839
87.812	13.408	1014.939	772.248
88.826	13.290	1013.913	770.847
89.841	13.399	1013.112	770.678
90.855	13.201	1012.702	769.376
91.870	13.399	1011.774	769.524
92.884	13.402	1011.090	768.950
93.899	13.420	1010.106	768.214
94.914	13.372	1009.411	767.396
95.928	13.443	1008.511	766.973
96.943	13.426	1008.239	766.621
97.957	13.408	1007.165	765.655
98.972	13.448	1006.455	765.231
99.987	13.394	1005.493	764.182
101.001	13.382	1005.039	763.715
102.016	13.469	1004.023	763.273
103.030	13.473	1003.012	762.457
104.045	13.486	1002.288	761.901
105.060	13.527	1000.751	760.852
106.074	13.410	1000.013	759.687
107.089	13.408	999.722	759.388
108.103	13.308	998.458	757.905
109.118	13.281	997.749	757.174
110.133	13.388	996.661	756.773
111.147	13.305	996.085	755.890
112.162	13.263	995.014	754.819
113.176	13.345	994.390	754.651
114.191	13.296	993.461	753.653
115.206	13.412	992.585	753.451
116.220	13.322	991.657	752.273
117.235	13.310	990.955	751.619
118.249	13.312	990.196	750.984
119.264	13.337	989.017	750.138
120.279	13.349	988.428	749.678
121.293	13.452	987.632	749.476
122.308	13.430	986.804	748.680
123.322	13.381	985.910	747.714
124.337	13.350	984.870	746.721
125.352	13.313	983.828	745.700
126.366	13.274	982.624	744.546
127.381	13.355	981.938	744.323
128.395	13.256	981.200	743.252
129.410	13.314	980.206	742.692
130.424	13.390	978.951	742.018
131.439	13.416	977.747	741.157
132.454	13.310	977.362	740.324
133.468	13.415	976.263	739.895
134.483	13.387	976.066	739.557
135.497	13.316	975.761	738.942
136.512	13.525	974.142	738.586
137.527	13.348	973.794	737.465
138.541	13.467	972.750	737.141
139.556	13.504	971.895	736.591
140.570	13.442	971.163	735.695
141.585	13.467	970.684	735.376
142.600	13.485	969.664	734.620
143.614	13.614	968.912	734.557
144.629	13.651	967.823	733.830
145.643	13.584	967.552	733.265
146.658	13.515	966.494	732.093
147.673	13.505	965.483	731.218
148.687	13.448	964.986	730.527
149.702	13.444	964.175	729.828
150.716	13.461	963.432	729.276
151.731	13.477	962.512	728.586
152.746	13.426	961.720	727.700
153.760	13.400	960.860	726.867
154.775	13.503	960.367	726.883
155.789	13.594	959.239	726.365
156.804	13.678	958.203	725.882
157.819	13.598	957.579	724.995
158.833	13.523	957.091	724.236
159.848	13.507	956.944	723.988
160.862	13.719	955.865	724.035
161.877	13.576	955.358	722.961
162.892	13.666	954.186	722.406
163.906	13.504	953.503	721.117
164.921	13.617	952.585	720.852
165.935	13.615	951.574	720.012
166.950	13.570	950.564	718.990
167.964	13.587	950.049	718.611
168.979	13.656	948.540	717.705
169.994	13.614	947.727	716.843
171.008	13.664	946.911	716.379
172.023	13.524	946.398	715.323
173.037	13.725	945.530	715.469
174.052	13.703	945.049	714.950
175.067	13.631	944.174	713.913
176.081	13.665	943.068	713.160
177.096	13.595	942.868	712.644
178.110	13.619	941.895	711.949
179.125	13.628	941.050	711.289
180.140	13.678	940.399	710.946
181.154	13.690	939.486	710.245
182.169	13.681	939.230	709.949
183.183	13.909	938.283	710.147
184.198	13.837	937.473	709.165
185.213	13.890	937.043	709.001
186.227	13.880	935.996	708.104
187.242	13.904	935.628	707.867
188.256	14.055	934.672	707.721
189.271	13.967	933.919	706.714
190.286	14.007	933.452	706.470
191.300	13.942	932.740	705.591
192.315	13.792	931.840	704.210
193.329	13.710	931.464	703.516
194.344	13.735	930.624	702.926
195.359	13.879	929.873	702.907
196.373	13.831	929.479	702.342
197.388	13.898	929.330	702.451
198.402	13.967	928.709	702.214
199.417	14.075	927.962	702.043
200.432	14.095	927.233	701.513
201.446	14.200	927.024	701.733
202.461	14.094	926.396	700.753
203.475	14.103	925.883	700.337
204.490	14.097	925.503	699.966
205.504	14.234	924.008	699.346
206.519	14.182	923.688	698.824
207.534	14.188	922.631	697.988
208.548	14.093	921.926	696.994
209.563	14.149	921.467	696.820
210.577	14.055	920.625	695.728
211.592	14.323	919.875	696.220
212.607	14.216	919.453	695.394
213.621	14.240	918.952	695.054
214.636	14.277	918.031	694.449
215.650	14.287	917.384	693.939
216.665	14.200	917.054	693.267
217.680	14.309	916.618	693.330
218.694	14.168	916.460	692.563
219.709	14.215	915.812	692.207
220.723	14.302	914.843	691.775
221.738	14.288	914.269	691.221
222.753	14.346	913.462	690.788
223.767	14.265	913.031	690.065
224.782	14.326	911.964	689.453
225.796	14.361	911.170	688.936
226.811	14.477	910.119	688.561
227.826	14.577	909.036	688.090
228.840	14.526	908.973	687.774
229.855	14.513	908.315	687.161
230.869	14.419	907.894	686.393
231.884	14.434	907.198	685.867
232.899	14.434	906.663	685.402
233.913	14.538	905.650	685.002
234.928	14.536	905.117	684.533
235.942	14.395	904.706	683.583
236.957	14.374	903.695	682.671
237.972	14.411	903.090	682.306
238.986	14.468	902.577	682.092
240.001	14.563	901.836	681.859
241.015	14.486	901.483	681.219
242.030	14.557	900.283	680.540
243.045	14.672	899.445	680.315
244.059	14.566	899.311	679.722
245.074	14.583	898.458	679.085
246.088	14.580	897.699	678.438
247.103	14.691	897.113	678.389
248.117	14.784	896.688	678.385
249.132	14.605	896.338	677.331
250.147	14.762	895.520	677.292
251.161	14.713	895.110	676.723
252.176	14.835	894.050	676.356
253.190	14.801	893.487	675.731
254.205	14.893	893.127	675.772
255.220	15.020	892.364	675.647
256.234	15.041	891.702	675.171
257.249	15.089	891.150	674.887
258.263	14.993	890.551	673.986
259.278	15.135	889.808	673.936
260.293	15.060	889.203	673.116
261.307	15.094	888.944	672.998
262.322	15.082	888.094	672.247
263.336	15.086	887.848	672.016
264.351	15.128	887.113	671.569
265.366	15.193	886.384	671.219
266.380	15.132	885.805	670.477
267.395	15.245	885.214	670.424
268.409	15.135	884.562	669.429
269.424	15.187	883.805	669.005
270.439	15.085	883.465	668.282
271.453	15.082	882.730	667.656
272.468	15.146	881.909	667.229
273.482	15.091	881.395	666.564
274.497	15.377	880.458	666.933
275.512	15.253	879.882	665.944
276.526	15.274	878.749	665.111
277.541	15.152	878.212	664.164
278.555	15.313	877.631	664.300
279.570	15.211	876.920	663.303
280.585	15.365	876.507	663.539
281.599	15.397	876.198	663.374
282.614	15.242	875.847	662.436
283.628	15.344	875.052	662.180
284.643	15.325	874.615	661.716
285.657	15.303	874.219	661.269
286.672	15.464	873.388	661.217
287.687	15.509	873.044	661.076
288.701	15.559	872.559	660.846
289.716	15.427	871.809	659.701
290.730	15.631	871.042	659.861
291.745	15.485	870.803	659.052
292.760	15.429	870.010	658.171
293.774	15.635	868.917	658.095
294.789	15.581	868.606	657.588
295.803	15.626	867.867	657.149
296.818	15.492	867.525	656.307
297.833	15.625	866.793	656.214
298.847	15.608	865.951	655.452
299.862	15.510	865.322	654.537
300.876	15.534	864.771	654.153
301.891	15.816	864.258	654.808
302.906	15.579	863.578	653.312
303.920	15.671	863.219	653.341
304.935	15.810	861.987	652.890
305.949	15.755	861.817	652.489
306.964	15.959	860.621	652.315
307.979	15.902	860.161	651.689
308.993	15.834	860.199	651.398
310.008	15.788	859.601	650.707
311.022	15.953	858.719	650.622
312.037	16.015	858.199	650.410
313.052	15.876	857.888	649.578
314.066	15.877	857.186	648.993
315.081	15.905	856.727	648.697
316.095	15.908	855.828	647.972
317.110	15.868	855.184	647.271
318.125	15.872	854.667	646.839
319.139	15.835	854.541	646.544
320.154	15.833	853.972	646.049
321.168	15.816	853.220	645.356
322.183	15.905	852.829	645.343
323.197	16.000	852.238	645.204
324.212	15.959	851.413	644.364
325.227	16.038	851.390	644.594
326.241	15.865	850.696	643.351
327.256	15.906	850.406	643.230
328.270	15.932	849.534	642.613
329.285	16.032	848.919	642.471
330.300	16.017	847.984	641.651
331.314	15.985	847.720	641.271
332.329	15.896	847.579	640.772
333.343	16.036	846.593	640.500
334.358	16.073	846.103	640.212
335.373	16.182	845.215	639.898
336.387	16.160	844.793	639.438
337.402	16.124	844.302	638.875
338.416	16.337	843.750	639.205
339.431	16.310	843.165	638.603
340.446	16.323	842.305	637.947
341.460	16.329	841.708	637.459
342.475	16.376	841.391	637.341
343.489	16.413	840.789	636.969
344.504	16.440	840.049	636.451
345.519	16.375	839.711	635.895
346.533	16.503	839.303	636.013
347.548	16.506	838.665	635.482
348.562	16.403	838.229	634.711
349.577	16.343	837.770	634.081
350.592	16.407	837.272	633.886
351.606	16.366	836.687	633.237
352.621	16.454	836.167	633.114
353.635	16.488	835.746	632.870
354.650	16.412	835.457	632.307
355.665	16.402	835.014	631.880
356.679	16.512	834.532	631.871
357.694	16.680	833.808	631.894
358.708	16.534	833.181	630.818
359.723	16.439	832.761	630.091
360.738	16.431	832.300	629.654
361.752	16.510	831.629	629.384
362.767	16.535	831.658	629.447
363.781	16.514	831.304	629.042
364.796	16.595	830.677	628.813
365.810	16.783	829.784	628.783
366.825	16.768	829.645	628.565
367.840	16.714	829.397	628.120
368.854	16.746	828.397	627.428
369.869	16.952	828.124	627.926
370.883	16.876	827.242	626.921
371.898	16.855	827.251	626.794
372.913	16.816	826.655	626.142
373.927	16.776	826.059	625.488
374.942	16.795	825.329	624.950
375.956	16.817	824.821	624.593
376.971	16.863	824.373	624.367
377.986	16.978	823.874	624.357
379.000	16.806	823.375	623.291
380.015	16.871	823.065	623.242
381.029	16.892	822.369	622.736
382.044	16.887	821.600	622.080
383.059	17.006	821.022	622.024
384.073	17.151	820.399	622.025
385.088	16.946	820.123	621.013
386.102	17.079	819.491	620.966
387.117	17.050	818.824	620.301
388.132	16.958	818.552	619.700
389.146	16.826	818.263	618.945
390.161	17.153	817.085	619.194
391.175	16.999	817.114	618.599
392.190	17.103	816.715	618.620
393.205	17.118	816.833	618.709
394.219	17.096	816.084	618.006
395.234	17.042	815.328	617.183
396.248	17.147	814.969	617.241
397.263	17.044	814.470	616.431
398.278	17.118	813.539	615.943
399.292	17.207	813.029	615.824
400.307	17.095	812.968	615.318
401.321	16.930	812.820	614.554
402.336	17.097	812.206	614.641
403.350	17.194	811.866	614.677
404.365	17.216	811.196	614.196
405.380	17.133	811.100	613.770
406.394	17.149	810.270	613.146
407.409	17.392	809.772	613.590
408.423	17.384	809.685	613.441
409.438	17.520	808.613	613.064
410.453	17.398	808.379	612.394
411.467	17.445	807.836	612.098
412.482	17.594	807.507	612.328
413.496	17.403	807.190	611.347
414.511	17.397	806.957	611.098
415.526	17.383	806.931	610.972
416.540	17.461	806.112	610.577
417.555	17.428	805.904	610.250
418.569	17.425	805.306	609.729
419.584	17.583	804.537	609.660
420.599	17.629	804.212	609.525
421.613	106.522	1288.757	1456.377
422.628	91.689	1359.327	1456.504
