DTS Sentinel unit serial number:	SN413079Multiplexer serial number:	ORYXHardware model number:	OX4-SRSoftware version number:	ORYX F/W v4.00 Oryx Data Collector v3.7.2.0data status	okinstallation	princeton_trtdifferential loss correction	single-endedforward channel	channel 3reverse channel	N/Adate	2019/09/14time	04:52:35forward acquisition time	60.00reverse acquisition time	0.00gamma	496.2192k internal	0.2338k external	0.2338temperature offset calibration	1.0053default loss term (dB/km)	0.3790temperature slope calibration	1.0000multiplexer offset coefficient	1.0000multiplexer slope coefficient	1.0000fibre end	0.00T internal ref (°C)	26.87T ext. ref 1 (°C)	3.35T ext. ref 2 (°C)	21.99length (m)	temperature (°C)	Stokes	anti-Stokes-747.200	-57.151	-0.072	0.032
-746.185	800.000	-0.096	0.301
-745.171	-108.416	0.430	-0.093
-744.156	626.247	-0.179	0.454
-743.142	258.240	-0.093	-0.161
-742.127	-168.684	-0.208	-0.008
-741.112	-200.000	0.025	-0.150
-740.098	-114.534	-0.330	-0.064
-739.083	-200.000	0.016	0.648
-738.069	-37.610	-0.390	0.209
-737.054	94.339	0.126	-0.143
-736.039	-200.000	0.017	-0.294
-735.025	-200.000	-0.001	0.118
-734.010	800.000	0.046	-0.190
-732.996	48.799	-0.092	-0.086
-731.981	113.785	-0.105	-0.128
-730.966	-118.013	-0.362	-0.065
-729.952	145.204	-0.179	-0.240
-728.937	-200.000	0.080	-0.467
-727.923	-94.008	0.388	-0.107
-726.908	-73.790	-0.189	-0.069
-725.894	-6.682	0.119	-0.081
-724.879	250.100	-0.106	-0.180
-723.864	-87.603	0.105	-0.032
-722.850	-111.083	-0.213	-0.044
-721.835	-104.603	-0.390	-0.090
-720.821	-200.000	-0.001	0.176
-719.806	6.782	0.111	0.083
-718.791	800.000	0.035	-0.106
-717.777	72.681	0.084	-0.087
-716.762	-200.000	-0.003	-0.294
-715.748	800.000	0.022	-0.068
-714.733	-200.000	-0.081	-0.405
-713.718	118.573	0.125	-0.155
-712.704	-14.050	-0.214	0.139
-711.689	-78.995	-0.125	-0.042
-710.675	-59.566	0.143	0.062
-709.660	-200.000	0.037	-0.195
-708.645	243.390	-0.295	-0.495
-707.631	-33.229	-0.160	-0.089
-706.616	113.663	-0.157	-0.191
-705.602	335.170	0.175	-0.340
-704.587	-200.000	0.002	0.160
-703.572	-47.056	-0.103	0.050
-702.558	-106.558	0.057	-0.013
-701.543	-200.000	-0.009	0.094
-700.529	-190.404	-0.255	0.003
-699.514	-200.000	0.055	-0.370
-698.499	-69.974	0.228	0.087
-697.485	24.252	0.058	-0.048
-696.470	74.267	-0.135	-0.142
-695.456	15.170	-0.142	-0.111
-694.441	53.278	-0.203	0.194
-693.426	800.000	-0.040	0.112
-692.412	372.656	0.092	-0.187
-691.397	-23.006	-0.150	-0.091
-690.383	-200.000	-0.048	-0.233
-689.368	73.379	0.029	0.031
-688.354	-42.952	0.228	0.116
-687.339	399.149	-0.088	-0.185
-686.324	-5.625	0.175	-0.120
-685.310	-118.569	-0.187	0.033
-684.295	-72.592	-0.150	0.055
-683.281	677.350	0.050	-0.130
-682.266	800.000	-0.061	0.168
-681.251	434.742	0.057	-0.124
-680.237	240.119	0.054	-0.090
-679.222	24.791	0.146	0.121
-678.208	-132.079	0.205	0.027
-677.193	69.540	-0.255	0.263
-676.178	-99.759	-0.175	0.044
-675.164	-3.703	-0.229	0.159
-674.149	-86.216	-0.264	-0.081
-673.135	168.830	0.250	-0.356
-672.120	-185.567	0.066	0.001
-671.105	140.631	-0.135	-0.179
-670.091	527.563	0.113	-0.266
-669.076	-85.077	-0.204	0.064
-668.062	93.564	-0.323	-0.366
-667.047	185.753	0.070	0.104
-666.032	-102.715	0.347	0.083
-665.018	44.278	0.068	0.063
-664.003	7.056	-0.049	-0.037
-662.989	-57.590	0.174	-0.076
-661.974	800.000	0.079	0.251
-660.959	-4.447	0.196	-0.136
-659.945	-114.882	-0.371	-0.071
-658.930	-20.786	0.143	0.087
-657.916	-36.783	-0.033	-0.018
-656.901	-186.832	-0.273	0.004
-655.886	-25.775	-0.309	-0.182
-654.872	-82.158	-0.190	-0.062
-653.857	766.270	0.125	-0.340
-652.843	290.748	0.180	-0.327
-651.828	78.256	0.189	-0.202
-650.814	-200.000	-0.025	-0.142
-649.799	-99.347	0.083	0.021
-648.784	-39.267	-0.062	-0.033
-647.770	-200.000	0.030	-0.213
-646.755	-80.574	-0.237	0.079
-645.741	384.987	0.063	-0.129
-644.726	800.000	-0.008	0.033
-643.711	324.319	-0.100	-0.190
-642.697	-114.335	0.539	0.104
-641.682	137.872	-0.047	0.062
-640.668	-13.565	0.151	-0.098
-639.653	-200.000	-0.011	0.327
-638.638	-39.709	0.187	-0.098
-637.624	130.026	-0.088	-0.113
-636.609	-109.245	0.160	-0.034
-635.595	51.377	0.012	-0.011
-634.580	9.439	-0.281	-0.213
-633.565	418.214	-0.033	-0.072
-632.551	50.527	-0.101	-0.096
-631.536	-200.000	-0.006	-0.327
-630.522	-102.746	0.326	0.078
-629.507	-200.000	0.032	0.374
-628.492	25.175	-0.177	0.146
-627.478	-51.725	0.232	-0.108
-626.463	252.927	-0.142	-0.243
-625.449	63.831	-0.351	0.352
-624.434	-105.983	-0.345	0.078
-623.419	-123.915	0.283	-0.045
-622.405	618.465	0.018	-0.045
-621.390	800.000	-0.102	0.379
-620.376	178.360	-0.052	0.076
-619.361	-23.904	-0.244	0.146
-618.346	83.835	0.134	0.146
-617.332	-77.350	0.276	-0.096
-616.317	189.945	0.017	-0.025
-615.303	-131.310	0.177	0.023
-614.288	53.473	0.030	0.029
-613.273	-9.646	-0.236	-0.157
-612.259	146.877	-0.209	-0.280
-611.244	30.134	-0.263	-0.224
-610.230	-31.270	-0.152	0.086
-609.215	1.770	0.154	-0.111
-608.201	11.713	-0.244	0.187
-607.186	-64.842	0.134	-0.054
-606.171	106.307	0.142	-0.168
-605.157	151.961	-0.048	0.066
-604.142	38.150	0.224	0.199
-603.128	-136.121	-0.267	0.031
-602.113	-84.425	-0.239	-0.076
-601.098	800.000	-0.069	-0.222
-600.084	323.992	0.113	-0.214
-599.069	-78.635	0.318	-0.108
-598.055	-142.538	-0.196	-0.019
-597.040	-95.051	0.081	-0.022
-596.025	-129.478	-0.496	-0.069
-595.011	-200.000	-0.035	0.240
-593.996	-170.057	-0.212	0.008
-592.982	128.301	0.063	0.080
-591.967	264.998	-0.153	0.266
-590.952	-54.838	0.134	0.060
-589.938	-63.712	-0.298	0.122
-588.923	34.799	-0.083	-0.073
-587.909	4.616	0.080	0.058
-586.894	88.320	-0.123	-0.137
-585.879	4.439	-0.050	0.037
-584.865	800.000	0.087	-0.263
-583.850	538.203	0.081	-0.191
-582.836	446.132	0.027	-0.059
-581.821	800.000	-0.064	-0.225
-580.806	670.151	-0.054	-0.139
-579.792	-82.196	0.225	0.073
-578.777	-200.000	0.073	0.382
-577.763	288.636	-0.084	0.152
-576.748	78.108	-0.225	-0.239
-575.733	-200.000	0.015	-0.162
-574.719	800.000	0.058	0.186
-573.704	284.582	-0.217	-0.389
-572.690	-185.572	-0.277	-0.004
-571.675	-134.494	0.144	-0.018
-570.661	-173.003	-0.150	-0.005
-569.646	-164.858	0.273	-0.012
-568.631	12.481	-0.123	-0.094
-567.617	-31.161	-0.183	0.103
-566.602	1.743	0.343	0.246
-565.588	-58.246	-0.136	0.059
-564.573	156.654	0.215	0.296
-563.558	-200.000	0.051	0.395
-562.544	800.000	-0.051	0.213
-561.529	31.278	-0.186	0.159
-560.515	-200.000	-0.197	0.000
-559.500	42.010	-0.312	-0.282
-558.485	-20.388	-0.080	-0.049
-557.471	-83.464	0.073	0.023
-556.456	-200.000	0.053	-0.320
-555.442	-15.792	0.350	-0.222
-554.427	-89.221	-0.159	0.047
-553.412	286.918	0.190	0.342
-552.398	-186.128	-0.211	0.003
-551.383	501.623	-0.013	0.030
-550.369	43.795	-0.133	0.121
-549.354	-1.240	0.090	-0.063
-548.339	-58.091	-0.252	0.109
-547.325	-200.000	-0.064	-0.339
-546.310	-110.890	-0.239	0.049
-545.296	3.895	-0.251	0.183
-544.281	109.457	0.062	-0.073
-543.266	-120.447	0.125	0.021
-542.252	-100.154	0.284	0.070
-541.237	-20.840	-0.098	-0.060
-540.223	-200.000	0.041	0.223
-539.208	341.882	0.093	-0.181
-538.193	231.447	-0.071	-0.115
-537.179	-127.694	-0.308	-0.044
-536.164	-106.127	0.104	0.023
-535.150	33.653	-0.041	0.035
-534.135	-200.000	-0.063	-0.367
-533.121	169.298	-0.225	-0.320
-532.106	557.410	0.079	-0.190
-531.091	147.383	0.086	-0.116
-530.077	315.086	0.039	0.073
-529.062	111.340	0.241	-0.290
-528.048	-20.328	0.415	0.254
-527.033	-200.000	-0.004	0.236
-526.018	-200.000	-0.036	-0.337
-525.004	44.311	-0.189	-0.173
-523.989	-74.018	-0.172	0.062
-522.975	-200.000	0.036	0.544
-521.960	130.736	-0.185	-0.236
-520.945	-200.000	0.052	0.319
-519.931	46.997	-0.242	0.224
-518.916	-200.000	0.018	-0.108
-517.902	-200.000	0.034	-0.215
-516.887	-110.324	-0.308	-0.064
-515.872	-63.704	-0.325	-0.132
-514.858	-30.427	-0.078	0.044
-513.843	800.000	0.091	0.326
-512.829	207.728	-0.084	-0.130
-511.814	800.000	0.085	-0.242
-510.799	800.000	0.025	-0.087
-509.785	-80.094	0.097	0.032
-508.770	455.347	0.119	-0.263
-507.756	-94.043	0.499	-0.136
-506.741	125.276	-0.023	0.029
-505.726	-33.653	-0.231	-0.127
-504.712	39.268	-0.050	0.044
-503.697	-200.000	0.026	-0.150
-502.683	-20.818	0.039	-0.024
-501.668	240.304	-0.094	-0.155
-500.653	531.615	0.140	0.329
-499.639	-63.528	0.182	-0.074
-498.624	-60.564	0.378	0.160
-497.610	-28.291	-0.237	0.136
-496.595	291.111	0.216	-0.390
-495.581	-200.000	-0.053	0.239
-494.566	24.358	-0.090	0.074
-493.551	-126.798	-0.187	-0.027
-492.537	-3.693	-0.110	0.076
-491.522	800.000	0.083	-0.263
-490.508	136.023	-0.164	0.212
-489.493	-1.079	0.177	0.124
-488.478	6.767	0.294	0.217
-487.464	-200.000	-0.057	-0.442
-486.449	-200.000	-0.030	0.320
-485.435	-55.848	-0.132	0.059
-484.420	75.072	0.128	0.134
-483.405	-33.002	-0.308	0.170
-482.391	604.698	0.124	0.307
-481.376	-22.134	-0.121	0.073
-480.362	42.568	0.295	-0.266
-479.347	-7.935	-0.323	-0.217
-478.332	800.000	0.045	-0.125
-477.318	-200.000	0.050	0.267
-476.303	-200.000	0.062	-0.337
-475.289	-200.000	-0.029	0.321
-474.274	-57.103	0.400	0.175
-473.259	88.910	0.205	-0.226
-472.245	-51.350	-0.057	-0.026
-471.230	202.768	-0.223	-0.342
-470.216	-66.819	-0.052	0.020
-469.201	-71.136	0.343	-0.128
-468.186	85.654	0.098	-0.107
-467.172	-58.125	-0.169	-0.073
-466.157	-81.064	-0.101	-0.033
-465.143	800.000	-0.079	0.250
-464.128	-64.744	0.503	0.202
-463.113	-87.822	-0.138	-0.041
-462.099	-31.229	-0.203	0.113
-461.084	-200.000	0.030	0.163
-460.070	572.320	0.137	0.330
-459.055	-1.698	0.237	0.166
-458.040	-200.000	-0.015	-0.243
-457.026	-44.373	-0.347	0.172
-456.011	101.260	-0.093	0.107
-454.997	-37.188	0.330	-0.175
-453.982	800.000	-0.032	0.108
-452.968	-200.000	0.051	0.298
-451.953	-200.000	0.000	-0.050
-450.938	-19.528	-0.420	0.258
-449.924	-200.000	0.065	0.348
-448.909	-200.000	0.016	0.232
-447.895	204.417	-0.173	0.267
-446.880	279.697	-0.058	0.103
-445.865	108.931	0.087	0.103
-444.851	-122.683	-0.083	0.013
-443.836	-59.602	-0.187	0.080
-442.822	134.681	0.133	0.172
-441.807	493.862	-0.031	0.071
-440.792	216.166	0.209	0.330
-439.778	-200.000	-0.028	-0.313
-438.763	72.552	0.256	-0.265
-437.749	267.449	0.060	0.105
-436.734	16.735	-0.322	0.252
-435.719	152.733	-0.165	-0.223
-434.705	219.832	-0.133	-0.211
-433.690	800.000	-0.073	0.252
-432.676	52.301	-0.251	0.237
-431.661	-55.208	-0.062	-0.027
-430.646	130.142	0.173	0.219
-429.632	447.010	-0.057	0.124
-428.617	-21.961	0.230	-0.138
-427.603	148.775	0.151	-0.202
-426.588	800.000	0.060	-0.208
-425.573	-46.156	0.085	-0.041
-424.559	29.547	-0.151	-0.127
-423.544	193.026	-0.156	0.233
-422.530	-44.432	-0.302	-0.150
-421.515	-52.231	-0.187	0.086
-420.500	-47.355	-0.335	-0.162
-419.486	348.004	-0.116	0.226
-418.471	231.902	-0.161	0.262
-417.457	-111.898	-0.392	0.078
-416.442	-166.629	-0.226	0.009
-415.428	104.167	0.033	0.038
-414.413	-200.000	0.013	-0.225
-413.398	800.000	-0.070	-0.208
-412.384	205.757	-0.047	-0.072
-411.369	-200.000	-0.017	0.172
-410.355	142.615	0.220	-0.289
-409.340	-26.519	0.111	-0.064
-408.325	800.000	0.083	-0.236
-407.311	528.365	0.102	-0.238
-406.296	-133.796	0.539	-0.066
-405.282	-122.327	-0.459	0.074
-404.267	56.264	0.248	0.239
-403.252	-200.000	0.060	0.474
-402.238	-17.757	0.179	-0.111
-401.223	-200.000	-0.212	-0.001
-400.209	-41.151	-0.065	-0.033
-399.194	6.871	0.300	-0.221
-398.179	114.728	-0.177	-0.213
-397.165	800.000	0.066	-0.221
-396.150	-200.000	0.017	-0.226
-395.136	-16.966	0.021	0.013
-394.121	179.405	-0.122	0.176
-393.106	-77.077	0.231	-0.080
-392.092	120.928	0.180	0.222
-391.077	-10.186	0.092	-0.061
-390.063	-70.162	-0.140	-0.053
-389.048	129.367	0.147	-0.186
-388.033	-59.183	-0.089	-0.038
-387.019	800.000	0.076	0.294
-386.004	-69.924	0.229	-0.086
-384.990	239.386	0.073	0.119
-383.975	-63.761	0.146	0.059
-382.960	-200.000	-0.043	0.283
-381.946	-200.000	-0.042	0.322
-380.931	224.416	-0.104	0.167
-379.917	-188.397	0.098	-0.001
-378.902	-200.000	-0.030	0.141
-377.888	-200.000	-0.011	-0.127
-376.873	259.393	-0.028	0.047
-375.858	800.000	0.109	0.409
-374.844	800.000	0.086	0.240
-373.829	26.844	-0.165	0.137
-372.815	-200.000	-0.023	0.253
-371.800	143.217	-0.131	0.172
-370.785	-103.756	-0.246	-0.057
-369.771	140.457	-0.136	-0.177
-368.756	-121.968	0.130	0.021
-367.742	493.157	0.065	-0.148
-366.727	132.040	0.161	-0.205
-365.712	-200.000	-0.016	-0.166
-364.698	-69.083	0.190	-0.072
-363.683	-53.423	-0.074	0.034
-362.669	800.000	0.048	0.143
-361.654	-79.075	-0.161	0.054
-360.639	236.391	-0.057	-0.093
-359.625	59.387	-0.194	0.189
-358.610	-1.149	0.407	0.285
-357.596	-100.739	-0.045	-0.011
-356.581	-6.001	-0.063	0.042
-355.566	800.000	-0.089	-0.251
-354.552	48.561	-0.049	-0.045
-353.537	508.227	-0.077	0.177
-352.523	307.579	-0.226	0.416
-351.508	390.609	0.175	0.358
-350.493	295.039	-0.234	0.423
-349.479	65.869	0.162	-0.162
-348.464	31.882	0.051	0.044
-347.450	182.776	-0.093	0.136
-346.435	-98.462	-0.165	-0.042
-345.420	800.000	0.042	-0.147
-344.406	-42.835	0.271	-0.136
-343.391	-19.038	0.281	-0.173
-342.377	-156.816	-0.197	0.012
-341.362	-55.410	0.381	-0.169
-340.348	-141.441	-0.072	-0.007
-339.333	83.609	0.063	0.067
-338.318	-92.750	-0.132	0.036
-337.304	-200.000	-0.034	0.331
-336.289	19.323	0.148	-0.118
-335.275	-185.579	-0.146	0.002
-334.260	-158.042	0.205	-0.012
-333.245	-112.293	0.233	0.046
-332.231	-80.582	0.292	0.096
-331.216	-38.873	0.140	0.073
-330.202	-91.148	0.356	-0.101
-329.187	73.327	0.105	0.109
-328.172	462.469	-0.182	-0.401
-327.158	409.125	0.016	-0.034
-326.143	137.886	-0.129	-0.167
-325.129	-200.000	-0.005	-0.167
-324.114	-200.000	-0.016	0.209
-323.099	-81.464	-0.067	0.022
-322.085	385.512	-0.079	0.161
-321.070	-89.404	-0.149	0.043
-320.056	-200.000	-0.044	-0.242
-319.041	-180.717	-0.097	-0.002
-318.026	118.315	-0.055	0.067
-317.012	101.346	0.206	0.237
-315.997	-200.000	-0.036	-0.248
-314.983	-146.877	-0.420	0.036
-313.968	-38.946	0.133	0.069
-312.953	-107.280	-0.191	0.041
-311.939	-63.661	0.461	-0.187
-310.924	115.499	0.089	-0.108
-309.910	36.633	-0.176	-0.153
-308.895	-143.077	0.099	0.009
-307.880	-200.000	-0.041	0.410
-306.866	-14.531	-0.072	-0.046
-305.851	161.718	-0.071	-0.098
-304.837	106.913	-0.074	-0.087
-303.822	800.000	0.044	0.128
-302.807	-10.330	-0.076	0.050
-301.793	79.366	-0.111	0.117
-300.778	-91.771	-0.205	0.058
-299.764	314.981	0.099	0.183
-298.749	76.443	0.217	-0.227
-297.735	381.293	-0.105	0.213
-296.720	-200.000	-0.075	-0.353
-295.705	-200.000	0.027	-0.125
-294.691	86.002	0.193	-0.210
-293.676	-56.930	0.097	-0.042
-292.662	404.556	-0.102	0.212
-291.647	90.183	0.151	0.167
-290.632	53.405	-0.184	0.174
-289.618	800.000	0.063	-0.190
-288.603	1.961	0.086	0.061
-287.589	-79.889	0.189	-0.062
-286.574	165.744	0.205	0.286
-285.559	104.053	0.015	0.018
-284.545	133.210	-0.104	-0.132
-283.530	-191.799	0.088	0.001
-282.516	114.204	0.117	-0.140
-281.501	280.972	-0.202	-0.356
-280.486	-200.000	-0.019	0.336
-279.472	-24.494	0.151	-0.089
-278.457	-200.000	0.017	0.079
-277.443	18.838	-0.165	0.130
-276.428	-200.000	0.006	-0.301
-275.413	-100.676	0.209	-0.051
-274.399	5.662	-0.179	-0.131
-273.384	-71.310	0.164	-0.061
-272.370	-59.462	0.251	0.106
-271.355	-48.841	-0.437	-0.206
-270.340	189.566	0.152	-0.225
-269.326	-200.000	-0.003	-0.503
-268.311	226.038	0.214	-0.342
-267.297	-200.000	-0.002	-0.122
-266.282	-8.523	0.148	-0.098
-265.267	91.325	0.096	0.106
-264.253	78.286	0.035	-0.036
-263.238	-83.408	-0.372	-0.117
-262.224	-200.000	0.005	0.135
-261.209	-138.899	-0.279	0.030
-260.195	800.000	0.058	0.188
-259.180	203.001	0.149	-0.227
-258.165	408.745	-0.080	0.166
-257.151	150.775	-0.120	-0.161
-256.136	55.847	-0.123	-0.117
-255.122	176.352	0.120	-0.171
-254.107	12.210	-0.078	-0.059
-253.092	741.202	-0.138	0.366
-252.078	123.683	-0.055	0.068
-251.063	42.722	-0.162	-0.146
-250.049	-200.000	0.010	0.223
-249.034	21.746	0.202	-0.162
-248.019	111.641	-0.131	-0.155
-247.005	-200.000	-0.038	-0.293
-245.990	91.149	0.150	0.165
-244.976	800.000	-0.102	-0.377
-243.961	-192.318	-0.418	-0.004
-242.946	68.701	0.195	-0.197
-241.932	499.471	0.038	0.087
-240.917	-84.354	-0.145	0.045
-239.903	-160.129	-0.210	0.011
-238.888	310.189	-0.057	0.105
-237.873	273.660	-0.231	0.401
-236.859	-97.852	-0.189	-0.048
-235.844	-70.848	-0.310	0.115
-234.830	20.190	0.304	0.241
-233.815	27.958	0.273	-0.226
-232.800	-24.652	0.106	0.062
-231.786	89.011	0.161	-0.176
-230.771	-162.824	-0.259	0.012
-229.757	149.411	-0.109	-0.145
-228.742	54.114	-0.159	0.151
-227.727	800.000	0.027	-0.103
-226.713	384.107	0.115	-0.233
-225.698	-42.292	0.110	-0.055
-224.684	256.870	0.077	-0.129
-223.669	147.978	0.149	0.198
-222.655	-56.746	-0.248	0.108
-221.640	408.603	-0.083	0.173
-220.625	-88.845	0.311	-0.091
-219.611	53.717	0.167	-0.157
-218.596	-44.874	0.265	-0.130
-217.582	-70.008	0.090	-0.034
-216.567	-108.453	0.249	0.053
-215.552	-27.542	-0.299	0.171
-214.538	205.066	0.062	0.094
-213.523	-81.044	0.152	-0.049
-212.509	-132.318	0.378	0.048
-211.494	-200.000	-0.041	-0.238
-210.479	-84.076	-0.048	0.015
-209.465	800.000	0.057	-0.189
-208.450	-200.000	-0.011	0.188
-207.436	-74.312	-0.031	0.011
-206.421	-200.000	-0.016	-0.121
-205.406	-200.000	-0.030	0.287
-204.392	282.245	-0.196	0.345
-203.377	800.000	-0.011	0.039
-202.363	-33.883	-0.180	-0.097
-201.348	-60.603	0.102	0.043
-200.333	1.704	-0.205	-0.145
-199.319	-200.000	-0.003	0.135
-198.304	-158.271	0.147	0.008
-197.290	-134.348	-0.243	-0.029
-196.275	-188.709	-0.083	0.001
-195.260	-78.755	0.137	0.046
-194.246	-17.323	0.144	-0.089
-193.231	-31.517	0.313	0.173
-192.217	-71.480	-0.234	0.086
-191.202	-12.589	-0.044	-0.028
-190.187	7.410	-0.044	-0.032
-189.173	0.724	0.254	0.178
-188.158	-200.000	-0.077	-0.495
-187.144	333.303	-0.147	0.279
-186.129	33.225	0.327	-0.279
-185.114	-84.897	0.510	-0.157
-184.100	8.728	0.068	-0.051
-183.085	-200.000	0.051	-0.263
-182.071	36.087	-0.168	-0.145
-181.056	53.756	-0.095	-0.089
-180.042	208.541	0.136	-0.208
-179.027	-134.601	-0.294	-0.035
-178.012	-200.000	-0.021	0.262
-176.998	-28.012	0.048	0.027
-175.983	130.584	0.121	-0.152
-174.969	450.866	-0.042	0.091
-173.954	229.546	0.050	0.081
-172.939	-92.985	0.481	0.132
-171.925	800.000	-0.085	0.235
-170.910	45.601	-0.160	0.145
-169.896	-145.229	-0.182	-0.016
-168.881	289.274	0.234	-0.416
-167.866	-74.079	0.176	0.063
-166.852	-7.144	-0.199	0.132
-165.837	-52.131	-0.115	0.052
-164.823	53.603	0.229	0.216
-163.808	-143.905	0.356	0.033
-162.793	-121.170	0.455	-0.075
-161.779	47.417	0.059	-0.054
-160.764	337.381	0.159	-0.304
-159.750	-43.896	0.042	-0.021
-158.735	-75.084	0.356	-0.125
-157.720	-42.760	-0.127	0.063
-156.706	95.617	0.196	-0.219
-155.691	-179.649	-0.165	0.004
-154.677	-52.314	-0.023	0.010
-153.662	-12.388	0.125	-0.080
-152.647	10.572	-0.192	-0.143
-151.633	-200.000	0.013	-0.144
-150.618	-145.381	0.256	0.023
-149.604	135.969	0.103	0.132
-148.589	-180.551	0.200	-0.004
-147.574	-61.579	-0.187	-0.077
-146.560	800.000	-0.084	0.332
-145.545	-28.525	0.241	0.136
-144.531	498.142	0.092	-0.207
-143.516	800.000	0.060	0.188
-142.502	124.919	0.285	0.351
-141.487	-156.246	-0.297	-0.018
-140.472	-193.204	-0.236	0.002
-139.458	-200.000	-0.019	-0.242
-138.443	103.157	-0.118	-0.136
-137.429	-68.988	-0.353	-0.134
-136.414	-25.669	0.212	0.122
-135.399	-61.205	0.034	0.014
-134.385	-92.897	0.070	-0.019
-133.370	800.000	-0.081	-0.328
-132.356	-81.014	-0.173	-0.056
-131.341	47.592	0.131	-0.120
-130.326	-107.607	0.390	0.084
-129.312	486.429	-0.044	0.098
-128.297	-7.767	0.081	0.054
-127.283	156.195	0.143	0.193
-126.268	-200.000	0.064	0.319
-125.253	-200.000	-0.005	-0.360
-124.239	-200.000	0.003	-0.356
-123.224	16.349	0.100	-0.077
-122.210	-149.344	0.238	-0.019
-121.195	311.515	0.054	0.100
-120.180	-200.000	0.007	-0.101
-119.166	54.094	-0.071	0.067
-118.151	-72.555	0.168	0.061
-117.137	-200.000	0.022	0.144
-116.122	283.198	0.145	-0.255
-115.107	-200.000	-0.028	0.155
-114.093	107.249	0.295	0.344
-113.078	-74.671	0.115	-0.040
-112.064	-26.619	-0.516	-0.296
-111.049	21.892	-0.150	0.120
-110.034	260.078	0.165	-0.279
-109.020	-141.884	-0.268	0.026
-108.005	725.386	0.051	-0.133
-106.991	-142.087	0.128	-0.012
-105.976	-200.000	0.003	-0.133
-104.962	244.175	-0.020	0.033
-103.947	84.791	0.229	0.246
-102.932	319.726	0.085	-0.158
-101.918	109.600	-0.214	-0.251
-100.903	800.000	-0.059	0.172
-99.889	43.415	-0.260	-0.233
-98.874	-200.000	-0.048	0.208
-97.859	-79.466	0.269	0.089
-96.845	-200.000	0.036	0.163
-95.830	-200.000	-0.027	0.165
-94.816	88.809	-0.180	0.196
-93.801	-200.000	-0.017	-0.230
-92.786	343.448	0.174	-0.333
-91.772	800.000	0.055	-0.184
-90.757	-144.712	0.208	-0.019
-89.743	61.640	0.314	-0.306
-88.728	388.830	0.022	-0.044
-87.713	-19.932	0.034	-0.021
-86.699	-124.032	0.379	0.058
-85.684	80.843	-0.115	-0.121
-84.670	-94.087	-0.158	-0.042
-83.655	84.815	-0.333	0.356
-82.640	144.708	0.220	0.287
-81.626	-52.841	-0.068	-0.031
-80.611	-19.346	0.201	0.122
-79.597	181.035	-0.026	-0.037
-78.582	-200.000	-0.004	-0.025
-77.567	547.184	0.076	0.178
-76.553	271.665	-0.092	0.158
-75.538	323.876	0.147	-0.275
-74.524	-93.505	-0.129	0.035
-73.509	631.162	-0.120	-0.297
-72.494	-68.213	0.456	0.173
-71.480	89.579	-0.062	0.068
-70.465	-63.754	0.324	0.130
-69.451	-128.373	0.434	0.060
-68.436	57.396	-0.066	-0.063
-67.422	267.155	0.098	-0.168
-66.407	115.663	-0.064	0.076
-65.392	217.571	0.059	0.092
-64.378	800.000	0.095	0.269
-63.363	29.598	-0.227	0.189
-62.349	-34.782	-0.249	-0.133
-61.334	24.068	-1.130	-0.911
-60.319	9.706	0.749	0.555
-59.305	333.130	-0.404	-0.763
-58.290	201.219	0.843	1.268
-57.276	539.311	0.644	1.498
-56.261	-200.000	115.984	658.534
-55.246	530.664	1532.854	3538.901
-54.232	176.352	2707.714	3842.599
-53.217	107.938	2182.964	2540.873
-52.203	37.783	1700.931	1475.755
-51.188	29.985	1516.444	1262.719
-50.173	27.845	1491.347	1227.403
-49.159	52.292	1550.973	1444.706
-48.144	50.194	1566.316	1444.577
-47.130	30.177	1521.591	1268.116
-46.115	27.133	1506.479	1234.826
-45.100	26.929	1503.144	1230.658
-44.086	26.942	1500.884	1228.848
-43.071	26.893	1499.085	1226.996
-42.057	26.788	1497.551	1224.977
-41.042	26.817	1496.387	1224.178
-40.027	26.907	1494.266	1222.996
-39.013	26.881	1493.003	1221.742
-37.998	26.874	1491.716	1220.589
-36.984	26.833	1490.964	1219.651
-35.969	26.902	1489.767	1219.088
-34.954	26.893	1487.787	1217.361
-33.940	26.846	1487.056	1216.396
-32.925	26.870	1485.048	1214.867
-31.911	26.888	1483.818	1213.933
-30.896	26.885	1482.864	1213.086
-29.881	26.911	1481.353	1211.973
-28.867	26.891	1480.197	1210.849
-27.852	26.959	1478.956	1210.239
-26.838	26.906	1477.842	1208.926
-25.823	26.964	1476.033	1207.785
-24.809	26.984	1474.451	1206.573
-23.794	26.894	1473.067	1204.794
-22.779	26.942	1471.612	1203.879
-21.765	26.932	1470.980	1203.247
-20.750	26.851	1470.083	1201.926
-19.736	26.854	1468.803	1200.851
-18.721	26.839	1467.520	1199.659
-17.706	26.864	1466.708	1199.109
-16.692	26.942	1465.284	1198.413
-15.677	26.868	1464.547	1197.276
-14.663	26.868	1463.322	1196.223
-13.648	26.799	1462.624	1195.151
-12.633	26.750	1462.012	1194.284
-11.619	26.832	1461.098	1194.031
-10.604	26.807	1460.199	1193.085
-9.590	26.936	1459.003	1192.904
-8.575	26.908	1458.237	1192.047
-7.560	26.896	1457.173	1191.055
-6.546	26.877	1456.453	1190.291
-5.531	26.840	1455.795	1189.461
-4.517	26.845	1454.625	1188.492
-3.502	26.811	1453.770	1187.527
-2.487	26.788	1452.643	1186.410
-1.473	26.828	1451.820	1185.949
-0.458	26.982	1450.116	1185.516
0.556	27.100	1440.835	1174.200
1.571	24.223	1415.744	1135.352
2.586	20.854	1354.405	1065.495
3.600	19.165	1271.428	990.421
4.615	18.029	1226.331	948.905
5.629	15.552	1169.587	891.779
6.644	8.824	1088.398	796.459
7.659	4.036	1051.596	746.422
8.673	3.445	1046.454	739.870
9.688	3.240	1043.564	736.780
10.702	3.307	1042.207	736.076
11.717	3.419	1039.550	734.673
12.731	5.297	1040.786	744.433
13.746	11.844	1049.583	782.028
14.761	17.957	1057.807	817.433
15.775	19.600	1059.200	826.305
16.790	19.024	1057.699	822.310
17.804	18.145	1055.908	816.649
18.819	17.250	1053.861	810.724
19.834	16.788	1052.733	807.583
20.848	16.630	1051.558	805.856
21.863	16.626	1050.881	805.251
22.877	16.295	1050.471	803.290
23.892	16.096	1049.657	801.651
24.907	15.971	1048.912	800.414
25.921	16.076	1047.863	800.044
26.936	16.080	1047.241	799.516
27.950	16.141	1046.720	799.335
28.965	16.089	1045.109	797.788
29.980	16.082	1044.401	797.145
30.994	16.281	1042.973	796.926
32.009	16.380	1042.183	796.718
33.023	16.475	1041.407	796.503
34.038	16.340	1040.849	795.370
35.053	16.362	1039.678	794.508
36.067	16.159	1039.235	793.142
37.082	16.162	1037.693	791.911
38.096	16.245	1036.804	791.550
39.111	16.240	1036.679	791.361
40.126	16.425	1035.299	791.105
41.140	16.241	1034.476	789.545
42.155	16.111	1033.129	787.839
43.169	15.819	1032.454	785.891
44.184	15.859	1030.689	784.667
45.199	15.884	1029.746	783.997
46.213	15.916	1028.967	783.480
47.228	15.934	1027.945	782.718
48.242	16.143	1027.226	783.072
49.257	16.218	1026.259	782.614
50.271	16.301	1025.196	782.119
51.286	16.221	1024.266	780.967
52.301	16.223	1023.472	780.302
53.315	16.289	1022.627	779.895
54.330	16.045	1022.387	778.517
55.344	16.003	1021.453	777.542
56.359	15.954	1020.147	776.253
57.374	16.067	1019.245	776.018
58.388	16.042	1018.305	775.119
59.403	15.976	1017.524	774.152
60.417	15.938	1016.458	773.101
61.432	15.977	1016.002	772.862
62.447	15.824	1015.673	771.844
63.461	15.759	1014.725	770.756
64.476	15.727	1013.356	769.500
65.490	15.751	1012.793	769.116
66.505	15.817	1011.438	768.319
67.520	15.877	1010.803	768.042
68.534	15.801	1010.499	767.396
69.549	15.890	1009.325	766.842
70.563	15.841	1008.598	765.999
71.578	15.752	1008.191	765.218
72.593	15.712	1006.853	763.954
73.607	15.669	1005.841	762.921
74.622	15.655	1004.996	762.153
75.636	15.646	1004.584	761.730
76.651	15.650	1003.513	760.871
77.666	15.582	1003.246	760.293
78.680	15.702	1001.950	759.784
79.695	15.684	1001.576	759.351
80.709	15.792	1000.795	759.181
81.724	15.758	1000.292	758.580
82.739	15.877	999.773	758.654
83.753	16.001	999.115	758.645
84.768	16.097	998.208	758.320
85.782	16.280	997.599	758.614
86.797	16.366	996.730	758.273
87.812	16.461	995.769	757.901
88.826	16.277	995.410	756.735
89.841	16.297	994.350	755.951
90.855	16.323	993.662	755.480
91.870	16.367	992.362	754.622
92.884	16.343	992.199	754.321
93.899	16.378	991.525	753.900
94.914	16.196	990.970	752.598
95.928	16.389	990.131	752.754
96.943	16.443	989.334	752.321
97.957	16.367	988.179	751.041
98.972	16.200	987.744	749.903
99.987	16.450	986.624	750.093
101.001	16.387	986.061	749.319
102.016	16.335	985.373	748.501
103.030	16.282	984.357	747.426
104.045	16.345	983.737	747.169
105.060	16.329	982.263	745.915
106.074	16.277	981.116	744.748
107.089	16.246	980.289	743.916
108.103	15.901	979.505	741.736
109.118	15.923	978.736	741.185
110.133	15.766	978.111	739.954
111.147	15.909	976.607	739.379
112.162	15.854	976.171	738.746
113.176	15.989	975.251	738.572
114.191	16.007	974.235	737.819
115.206	16.041	973.692	737.489
116.220	16.016	972.845	736.674
117.235	15.939	971.885	735.546
118.249	15.943	971.250	735.020
119.264	15.998	970.200	734.396
120.279	15.873	969.693	733.403
121.293	15.807	968.982	732.516
122.308	15.784	968.195	731.753
123.322	15.701	967.515	730.816
124.337	15.746	965.992	729.795
125.352	15.713	965.152	728.955
126.366	15.730	963.811	727.951
127.381	15.732	962.861	727.177
128.395	15.696	961.995	726.303
129.410	15.720	960.940	725.544
130.424	15.908	959.702	725.357
131.439	15.918	958.872	724.706
132.454	15.844	958.907	724.353
133.468	15.973	957.494	723.773
134.483	15.971	957.066	723.379
135.497	15.986	956.363	722.848
136.512	16.035	955.329	722.214
137.527	15.900	954.952	721.283
138.541	15.977	954.235	721.010
139.556	15.994	952.993	720.081
140.570	16.035	952.422	719.759
141.585	16.036	952.245	719.565
142.600	16.152	951.854	719.702
143.614	16.357	950.783	719.702
144.629	16.471	950.213	719.691
145.643	16.326	949.884	718.763
146.658	16.454	948.578	718.253
147.673	16.218	947.822	716.616
148.687	16.073	947.141	715.422
149.702	16.023	945.916	714.222
150.716	16.035	944.632	713.240
151.731	15.950	944.529	712.740
152.746	16.063	943.293	712.221
153.760	16.012	942.865	711.620
154.775	16.039	942.051	711.057
155.789	16.302	940.834	711.183
156.804	16.340	940.463	711.000
157.819	16.277	939.906	710.250
158.833	16.229	939.051	709.341
159.848	16.320	938.721	709.409
160.862	16.503	938.089	709.638
161.877	16.537	936.898	708.817
162.892	16.417	935.963	707.544
163.906	16.302	935.064	706.323
164.921	16.084	934.726	705.093
165.935	16.157	933.356	704.300
166.950	16.164	932.448	703.583
167.964	16.376	931.075	703.368
168.979	16.255	930.541	702.399
169.994	16.235	929.785	701.683
171.008	16.135	928.998	700.612
172.023	16.194	927.962	700.012
173.037	16.473	927.299	700.609
174.052	16.512	926.735	700.280
175.067	16.552	925.968	699.802
176.081	16.328	924.767	697.908
177.096	16.065	924.457	696.524
178.110	16.091	923.320	695.717
179.125	16.185	922.616	695.509
180.140	16.278	921.936	695.318
181.154	16.353	920.918	694.797
182.169	16.377	920.996	694.894
183.183	16.394	920.444	694.489
184.198	16.359	920.061	693.993
185.213	16.614	918.798	694.023
186.227	16.569	918.515	693.565
187.242	16.485	918.072	692.825
188.256	16.601	917.349	692.693
189.271	16.573	917.262	692.453
190.286	16.716	916.112	692.107
191.300	16.571	915.174	690.744
192.315	16.301	914.293	688.916
193.329	16.221	913.179	687.690
194.344	16.243	912.589	687.275
195.359	16.346	912.377	687.474
196.373	16.418	911.520	687.060
197.388	16.495	911.326	687.165
198.402	16.619	910.759	687.182
199.417	16.736	910.508	687.405
200.432	16.906	910.158	687.773
201.446	16.901	909.677	687.327
202.461	16.859	909.338	686.838
203.475	17.094	908.715	687.258
204.490	17.007	908.162	686.429
205.504	16.969	906.864	685.233
206.519	16.762	906.132	683.783
207.534	16.692	905.517	682.975
208.548	16.666	904.502	682.047
209.563	16.760	904.010	681.993
210.577	16.745	903.342	681.370
211.592	16.763	902.559	680.789
212.607	16.947	902.088	681.113
213.621	16.918	902.158	680.991
214.636	16.852	901.122	679.882
215.650	16.957	900.029	679.418
216.665	16.959	900.244	679.527
217.680	17.018	899.443	679.101
218.694	17.104	899.083	679.112
219.709	17.079	898.267	678.337
220.723	17.088	897.810	677.968
221.738	17.011	897.291	677.206
222.753	17.062	896.155	676.493
223.767	17.011	895.856	676.006
224.782	17.091	894.992	675.610
225.796	17.175	894.346	675.395
226.811	17.198	893.739	674.971
227.826	17.363	892.660	674.750
228.840	17.157	891.967	673.351
229.855	17.101	891.477	672.699
230.869	17.094	890.550	671.912
231.884	16.963	890.114	671.004
232.899	16.947	889.468	670.397
233.913	16.982	888.630	669.845
234.928	16.943	888.258	669.351
235.942	16.910	887.511	668.598
236.957	16.859	886.812	667.810
237.972	16.931	886.025	667.443
238.986	16.887	885.539	666.844
240.001	16.982	884.972	666.734
241.015	16.994	884.271	666.194
242.030	17.054	883.467	665.763
243.045	17.063	882.895	665.309
244.059	17.081	882.829	665.270
245.074	17.333	881.729	665.367
246.088	17.153	881.649	664.544
247.103	17.181	880.865	664.006
248.117	17.380	879.975	664.051
249.132	17.245	880.122	663.576
250.147	17.531	879.041	663.819
251.161	17.658	878.582	663.907
252.176	17.777	878.348	664.136
253.190	17.648	877.777	663.145
254.205	17.793	876.973	663.043
255.220	17.871	876.396	662.849
256.234	17.841	875.671	662.124
257.249	17.894	875.095	661.835
258.263	17.835	874.594	661.171
259.278	17.915	873.767	660.797
260.293	17.912	873.200	660.297
261.307	17.824	872.837	659.625
262.322	17.901	872.579	659.670
263.336	18.001	871.622	659.274
264.351	18.064	871.235	659.165
265.366	17.913	870.576	658.025
266.380	17.986	870.399	658.114
267.395	17.955	869.421	657.197
268.409	17.924	868.409	656.257
269.424	17.839	867.629	655.283
270.439	17.832	867.417	655.037
271.453	17.918	865.973	654.217
272.468	17.873	865.042	653.285
273.482	17.888	864.662	652.998
274.497	17.814	864.350	652.423
275.512	17.788	863.601	651.698
276.526	17.743	863.102	651.093
277.541	17.809	862.297	650.681
278.555	17.930	861.670	650.611
279.570	18.012	861.241	650.542
280.585	18.008	860.430	649.856
281.599	18.029	860.234	649.728
282.614	18.024	859.713	649.258
283.628	17.963	858.644	648.162
284.643	17.910	858.024	647.437
285.657	17.938	857.751	647.278
286.672	18.018	857.424	647.278
287.687	18.088	856.569	646.840
288.701	18.117	856.050	646.502
289.716	18.072	855.319	645.723
290.730	18.116	854.955	645.557
291.745	18.015	854.464	644.749
292.760	18.015	853.654	644.079
293.774	18.267	853.168	644.606
294.789	18.160	852.666	643.765
295.803	18.348	852.008	643.921
296.818	18.188	851.019	642.515
297.833	18.277	850.181	642.159
298.847	18.004	849.939	640.893
299.862	18.159	849.059	640.756
300.876	18.201	848.376	640.339
301.891	18.238	848.207	640.293
302.906	18.302	847.445	639.903
303.920	18.373	846.897	639.696
304.935	18.594	846.364	640.062
305.949	18.544	845.953	639.510
306.964	18.392	845.513	638.554
307.979	18.417	844.782	638.038
308.993	18.344	844.360	637.390
310.008	18.453	843.684	637.229
311.022	18.516	842.821	636.756
312.037	18.651	842.343	636.838
313.052	18.461	841.928	635.763
314.066	18.330	841.201	634.673
315.081	18.162	840.411	633.398
316.095	18.173	839.974	633.055
317.110	18.398	839.494	633.468
318.125	18.306	839.222	632.866
319.139	18.381	838.412	632.477
320.154	18.331	837.722	631.718
321.168	18.394	837.468	631.702
322.183	18.446	837.222	631.650
323.197	18.503	836.177	631.015
324.212	18.572	835.863	630.979
325.227	18.413	835.448	630.023
326.241	18.368	834.735	629.265
327.256	18.415	834.207	628.984
328.270	18.477	833.892	628.917
329.285	18.426	833.237	628.182
330.300	18.395	832.625	627.552
331.314	18.340	832.103	626.901
332.329	18.422	831.376	626.599
333.343	18.485	830.980	626.475
334.358	18.473	830.744	626.195
335.373	18.505	830.193	625.844
336.387	18.556	829.553	625.490
337.402	18.535	829.201	625.092
338.416	18.708	828.231	624.937
339.431	18.892	827.494	624.995
340.446	18.885	827.209	624.698
341.460	18.919	826.847	624.493
342.475	18.921	826.327	624.053
343.489	19.022	825.633	623.839
344.504	19.116	824.974	623.625
345.519	19.009	824.763	623.023
346.533	19.299	824.051	623.481
347.548	19.215	823.556	622.747
348.562	18.971	823.426	621.711
349.577	18.976	822.137	620.701
350.592	18.837	821.707	619.822
351.606	18.758	821.356	619.216
352.621	18.614	820.868	618.277
353.635	18.753	820.637	618.546
354.650	18.834	820.080	618.364
355.665	18.937	819.389	618.160
356.679	18.984	819.164	618.104
357.694	19.020	818.838	617.933
358.708	19.114	817.885	617.494
359.723	18.998	817.455	616.698
360.738	19.039	816.969	616.425
361.752	18.906	816.790	615.760
362.767	19.124	816.375	616.172
363.781	19.227	815.739	616.008
364.796	19.369	815.172	616.032
365.810	19.213	815.235	615.466
366.825	19.425	814.716	615.777
367.840	19.406	814.784	615.707
368.854	19.467	814.138	615.380
369.869	19.245	813.163	613.801
370.883	19.296	812.931	613.749
371.898	19.357	812.250	613.401
372.913	19.276	811.799	612.717
373.927	19.554	810.908	612.979
374.942	19.402	810.650	612.187
375.956	19.463	809.749	611.671
376.971	19.489	809.547	611.555
377.986	19.480	808.926	611.001
379.000	19.739	808.331	611.412
380.015	19.764	807.991	611.190
381.029	19.609	807.421	610.157
382.044	19.552	806.363	609.102
383.059	19.635	806.252	609.257
384.073	19.643	805.593	608.735
385.088	19.693	805.096	608.482
386.102	19.579	804.094	607.268
387.117	19.538	803.830	606.872
388.132	19.498	803.493	606.424
389.146	19.270	803.102	605.272
390.161	19.562	802.554	605.830
391.175	19.640	802.416	605.949
392.190	19.730	801.954	605.862
393.205	19.550	801.514	604.844
394.219	19.557	801.061	604.474
395.234	19.674	800.256	604.223
396.248	19.528	799.742	603.271
397.263	19.426	799.661	602.799
398.278	19.540	798.725	602.439
399.292	19.216	798.709	601.242
400.307	19.367	798.133	601.283
401.321	19.389	797.585	600.892
402.336	19.348	797.575	600.689
403.350	19.410	797.042	600.449
404.365	19.520	796.665	600.494
405.380	19.457	796.349	599.985
406.394	19.591	796.241	600.315
407.409	19.812	795.512	600.482
408.423	19.707	795.339	599.933
409.438	19.875	794.826	600.074
410.453	20.086	793.968	600.106
411.467	20.185	793.507	600.046
412.482	20.135	793.369	599.717
413.496	20.248	792.645	599.507
414.511	20.023	792.668	598.693
415.526	20.139	792.224	598.705
416.540	20.089	791.721	598.100
417.555	20.052	791.241	597.555
418.569	20.085	790.470	597.036
419.584	20.085	790.140	596.733
420.599	20.077	789.854	596.436
421.613	161.899	1370.560	1796.643
422.628	140.247	1455.141	1796.741
