DTS Sentinel unit serial number:	SN413079Multiplexer serial number:	ORYXHardware model number:	OX4-SRSoftware version number:	ORYX F/W v4.00 Oryx Data Collector v3.7.2.0data status	okinstallation	princeton_trtdifferential loss correction	single-endedforward channel	channel 3reverse channel	N/Adate	2019/09/16time	02:24:34forward acquisition time	60.00reverse acquisition time	0.00gamma	496.2192k internal	0.2335k external	0.2335temperature offset calibration	0.9949default loss term (dB/km)	0.3790temperature slope calibration	1.0000multiplexer offset coefficient	1.0000multiplexer slope coefficient	1.0000fibre end	0.00T internal ref (°C)	27.62T ext. ref 1 (°C)	10.23T ext. ref 2 (°C)	22.63length (m)	temperature (°C)	Stokes	anti-Stokes-747.200	317.978	0.100	-0.191
-746.185	132.346	0.133	0.173
-745.171	51.054	-0.043	0.041
-744.156	487.374	0.151	0.346
-743.142	-200.000	-0.004	0.039
-742.127	-70.094	0.297	0.114
-741.112	-200.000	0.000	0.026
-740.098	-9.060	-0.207	0.139
-739.083	-33.003	-0.108	0.060
-738.069	75.353	-0.148	0.157
-737.054	203.454	0.025	0.038
-736.039	434.207	-0.020	0.044
-735.025	-70.655	0.671	0.255
-734.010	29.584	-0.239	-0.204
-732.996	800.000	-0.027	-0.084
-731.981	-184.735	-0.171	0.003
-730.966	711.517	0.095	0.253
-729.952	340.974	-0.158	0.310
-728.937	-91.869	-0.183	-0.052
-727.923	-200.000	-0.014	-0.325
-726.908	-2.527	0.103	-0.073
-725.894	-126.771	-0.268	-0.040
-724.879	696.958	0.028	-0.075
-723.864	-55.472	-0.098	0.044
-722.850	-85.818	-0.433	0.135
-721.835	-24.638	0.171	0.102
-720.821	83.069	0.205	-0.224
-719.806	800.000	-0.030	0.106
-718.791	276.871	0.089	0.160
-717.777	-128.829	0.030	-0.004
-716.762	800.000	-0.047	-0.185
-715.748	182.840	0.078	-0.116
-714.733	245.493	-0.105	-0.177
-713.718	-118.681	-0.142	0.025
-712.704	-168.351	0.247	-0.010
-711.689	11.796	0.167	-0.128
-710.675	404.081	0.103	0.219
-709.660	-200.000	0.018	-0.098
-708.645	-85.891	-0.190	-0.059
-707.631	-126.187	-0.406	0.061
-706.616	45.705	-0.224	0.207
-705.602	-53.211	0.220	0.101
-704.587	-163.159	-0.146	0.007
-703.572	170.197	-0.071	0.103
-702.558	421.542	0.180	0.387
-701.543	800.000	0.026	0.100
-700.529	-200.000	-0.030	0.208
-699.514	-182.535	-0.157	-0.003
-698.499	70.159	-0.129	-0.134
-697.485	-200.000	-0.013	0.148
-696.470	-38.306	0.284	0.151
-695.456	-45.740	-0.378	0.187
-694.441	-86.482	-0.197	-0.061
-693.426	-200.000	0.031	-0.281
-692.412	-200.000	-0.035	-0.244
-691.397	-129.648	0.153	-0.021
-690.383	-113.223	-0.067	0.013
-689.368	-19.488	-0.125	-0.078
-688.354	-200.000	-0.014	-0.157
-687.339	704.060	-0.050	-0.133
-686.324	-46.716	-0.241	-0.119
-685.310	-200.000	0.025	0.483
-684.295	-123.864	0.224	0.035
-683.281	-141.580	-0.148	0.015
-682.266	-77.105	0.227	-0.079
-681.251	178.008	0.192	-0.280
-680.237	614.452	-0.029	0.073
-679.222	285.952	-0.167	-0.302
-678.208	11.987	0.137	-0.105
-677.193	-0.734	0.082	0.058
-676.178	74.476	0.133	0.140
-675.164	678.089	0.059	0.153
-674.149	-172.007	0.093	-0.003
-673.135	-5.438	-0.169	-0.116
-672.120	800.000	-0.100	0.290
-671.105	792.436	-0.078	0.216
-670.091	-77.738	-0.184	-0.064
-669.076	-139.795	-0.295	0.031
-668.062	-34.067	-0.184	0.101
-667.047	1.323	0.170	-0.122
-666.032	159.233	0.139	-0.193
-665.018	-200.000	-0.053	0.413
-664.003	241.611	-0.144	0.240
-662.989	-41.109	-0.246	-0.127
-661.974	601.901	-0.112	-0.280
-660.959	-92.384	-0.273	-0.077
-659.945	-200.000	-0.010	0.043
-658.930	6.512	0.102	-0.076
-657.916	-59.835	-0.314	-0.135
-656.901	430.172	-0.176	-0.381
-655.886	-87.957	-0.369	-0.111
-654.872	125.950	-0.172	-0.217
-653.857	-29.352	-0.147	0.084
-652.843	800.000	-0.081	0.240
-651.828	-170.934	-0.145	-0.005
-650.814	-64.085	-0.153	-0.062
-649.799	-171.767	-0.084	0.003
-648.784	543.159	-0.048	0.116
-647.770	-110.300	-0.123	-0.026
-646.755	167.024	0.150	0.213
-645.741	-200.000	0.004	-0.062
-644.726	-91.032	0.180	0.052
-643.711	-137.585	-0.396	-0.045
-642.697	-200.000	0.016	0.111
-641.682	-150.723	0.141	-0.011
-640.668	800.000	0.117	-0.333
-639.653	-8.544	0.030	0.020
-638.638	48.776	-0.129	-0.121
-637.624	189.798	-0.263	-0.394
-636.609	-200.000	-0.025	-0.186
-635.595	800.000	-0.050	-0.188
-634.580	275.080	0.184	0.327
-633.565	109.705	-0.179	-0.215
-632.551	4.405	0.072	-0.053
-631.536	65.357	0.072	0.073
-630.522	-47.565	-0.167	-0.081
-629.507	-170.963	0.301	-0.010
-628.492	-102.967	0.131	-0.031
-627.478	-200.000	-0.049	-0.286
-626.463	193.347	0.089	-0.134
-625.449	87.741	-0.175	0.194
-624.434	-161.729	0.226	0.012
-623.419	-183.484	-0.166	-0.003
-622.405	104.281	-0.075	0.089
-621.390	-46.934	0.055	0.027
-620.376	-62.571	0.218	0.090
-619.361	-134.180	0.163	-0.020
-618.346	-90.263	-0.132	-0.038
-617.332	307.535	0.097	-0.182
-616.317	-81.373	-0.444	-0.146
-615.303	-63.358	-0.156	-0.064
-614.288	609.783	-0.085	-0.213
-613.273	288.054	0.153	0.277
-612.259	-127.575	-0.217	-0.032
-611.244	-200.000	-0.013	0.126
-610.230	296.987	-0.064	0.117
-609.215	-200.000	-0.145	-0.000
-608.201	-141.257	0.154	-0.016
-607.186	693.291	-0.195	0.512
-606.171	38.812	0.035	0.032
-605.157	11.390	0.150	-0.115
-604.142	-115.068	0.297	-0.056
-603.128	-141.949	0.182	-0.018
-602.113	800.000	0.114	-0.351
-601.098	-29.659	0.245	-0.140
-600.084	-94.790	0.289	0.078
-599.069	-86.264	0.133	-0.041
-598.055	-11.193	0.086	-0.057
-597.040	-171.298	-0.178	-0.006
-596.025	-7.254	-0.183	0.124
-595.011	800.000	0.096	0.366
-593.996	10.827	0.156	-0.119
-592.982	-9.283	0.022	0.015
-591.967	250.845	-0.131	-0.222
-590.952	25.340	0.155	-0.129
-589.938	-34.498	0.215	0.118
-588.923	518.498	-0.057	-0.134
-587.909	-153.637	0.309	-0.021
-586.894	-137.173	0.257	-0.029
-585.879	-41.972	-0.232	-0.119
-584.865	68.849	0.155	-0.159
-583.850	-68.745	-0.164	0.063
-582.836	-56.342	0.105	0.046
-581.821	-134.980	-0.143	0.017
-580.806	-37.125	0.040	0.021
-579.792	374.302	0.009	-0.019
-578.777	-200.000	0.008	0.090
-577.763	800.000	0.040	-0.172
-576.748	-140.371	0.016	-0.002
-575.733	-86.172	-0.107	0.033
-574.719	196.697	-0.181	0.275
-573.704	-200.000	0.011	-0.082
-572.690	-37.337	-0.077	-0.041
-571.675	24.371	-0.300	-0.247
-570.661	-200.000	-0.009	-0.191
-569.646	-0.799	-0.246	0.174
-568.631	-74.706	0.183	-0.066
-567.617	-74.672	-0.365	-0.131
-566.602	10.174	0.022	0.017
-565.588	430.219	-0.081	0.175
-564.573	55.197	0.027	-0.026
-563.558	5.905	0.059	0.044
-562.544	-200.000	-0.043	0.233
-561.529	800.000	-0.102	-0.296
-560.515	800.000	-0.073	-0.210
-559.500	-42.420	0.343	0.175
-558.485	-27.723	-0.109	0.063
-557.471	-200.000	-0.006	0.071
-556.456	192.329	0.090	-0.136
-555.442	709.466	0.106	-0.280
-554.427	38.456	-0.052	-0.046
-553.412	-75.054	-0.462	0.165
-552.398	89.524	0.363	-0.404
-551.383	78.826	0.177	-0.189
-550.369	-138.015	-0.335	0.037
-549.354	-25.401	0.365	-0.215
-548.339	-200.000	-0.003	-0.126
-547.325	-108.298	0.224	-0.048
-546.310	288.035	0.145	0.261
-545.296	-200.000	0.267	-0.001
-544.281	-11.223	0.024	-0.015
-543.266	-135.582	-0.056	-0.007
-542.252	328.178	0.193	0.369
-541.237	800.000	-0.047	-0.194
-540.223	-34.387	0.144	0.079
-539.208	-200.000	0.019	-0.090
-538.193	259.279	0.072	-0.123
-537.179	291.711	-0.106	-0.192
-536.164	152.585	-0.104	0.142
-535.150	-200.000	0.015	-0.201
-534.135	-200.000	0.007	-0.261
-533.121	-127.427	-0.172	0.025
-532.106	-69.751	0.043	-0.016
-531.091	-200.000	0.287	0.000
-530.077	800.000	-0.098	-0.340
-529.062	-200.000	-0.012	0.240
-528.048	-175.937	-0.248	-0.007
-527.033	-200.000	0.028	-0.194
-526.018	800.000	0.060	-0.218
-525.004	-111.174	0.185	0.038
-523.989	-41.199	-0.162	-0.083
-522.975	-10.381	-0.318	0.210
-521.960	-100.102	-0.341	0.085
-520.945	-159.152	0.247	-0.014
-519.931	189.484	-0.133	0.199
-518.916	-200.000	-0.001	0.232
-517.902	243.488	0.140	-0.234
-516.887	48.523	0.141	-0.132
-515.872	-116.090	0.081	0.015
-514.858	24.002	0.032	-0.026
-513.843	25.459	-0.077	-0.064
-512.829	83.698	-0.233	-0.254
-511.814	800.000	0.021	0.080
-510.799	-200.000	0.016	0.153
-509.785	139.351	0.037	0.048
-508.770	-200.000	0.004	-0.191
-507.756	-86.240	0.206	0.063
-506.741	-200.000	0.030	0.281
-505.726	255.071	-0.063	-0.108
-504.712	-150.170	-0.291	-0.022
-503.697	106.417	0.201	-0.237
-502.683	-52.057	0.051	0.024
-501.668	-59.763	0.072	0.031
-500.653	-200.000	0.015	-0.218
-499.639	-97.363	-0.344	0.089
-498.624	-200.000	0.014	0.254
-497.610	558.606	-0.109	0.263
-496.595	10.426	-0.266	-0.202
-495.581	-64.837	0.227	0.091
-494.566	-7.021	-0.257	-0.173
-493.551	-200.000	0.031	-0.276
-492.537	-200.000	0.012	0.105
-491.522	-200.000	0.004	0.099
-490.508	54.978	-0.153	-0.147
-489.493	-200.000	0.035	-0.240
-488.478	-200.000	-0.021	-0.244
-487.464	800.000	0.043	-0.169
-486.449	800.000	0.014	-0.055
-485.435	-54.477	-0.312	-0.140
-484.420	537.560	0.140	-0.332
-483.405	-137.918	-0.259	-0.029
-482.391	146.136	-0.108	0.144
-481.376	25.359	-0.033	-0.027
-480.362	-91.310	0.256	0.073
-479.347	222.529	-0.131	0.209
-478.332	-200.000	-0.018	-0.372
-477.318	460.916	0.070	0.155
-476.303	55.060	0.380	0.365
-475.289	-200.000	0.048	0.410
-474.274	-200.000	0.017	0.162
-473.259	452.297	-0.148	0.324
-472.245	445.462	0.142	0.310
-471.230	-21.088	0.026	-0.016
-470.216	800.000	-0.040	-0.142
-469.201	-200.000	0.002	0.228
-468.186	55.155	0.169	0.162
-467.172	-200.000	-0.016	0.160
-466.157	150.534	0.156	0.211
-465.143	290.959	-0.107	0.194
-464.128	224.723	0.098	-0.158
-463.113	-200.000	-0.021	-0.314
-462.099	18.400	0.077	0.061
-461.084	366.104	-0.039	-0.078
-460.070	144.137	0.095	-0.126
-459.055	95.062	0.137	-0.155
-458.040	-71.963	-0.157	0.058
-457.026	-78.222	0.410	0.140
-456.011	499.098	-0.106	-0.242
-454.997	800.000	0.037	0.147
-453.982	-115.796	-0.159	-0.030
-452.968	-50.390	-0.163	-0.076
-451.953	91.700	0.076	-0.085
-450.938	-183.528	-0.127	0.002
-449.924	321.245	-0.076	0.144
-448.909	-111.279	-0.367	-0.074
-447.895	127.291	0.197	-0.248
-446.880	-135.627	-0.454	0.053
-445.865	-138.641	0.242	-0.026
-444.851	6.208	-0.164	-0.121
-443.836	0.792	0.202	-0.144
-442.822	-200.000	-0.042	-0.188
-441.807	6.810	-0.173	-0.128
-440.792	115.501	-0.198	0.240
-439.778	276.006	-0.133	-0.235
-438.763	-56.481	-0.140	-0.062
-437.749	800.000	0.008	0.031
-436.734	25.538	0.126	-0.104
-435.719	0.361	0.200	-0.142
-434.705	-58.080	0.184	0.080
-433.690	370.804	0.014	0.028
-432.676	637.595	-0.058	-0.147
-431.661	1.539	0.070	0.050
-430.646	88.243	-0.035	-0.039
-429.632	-200.000	-0.004	-0.349
-428.617	-10.197	0.074	0.049
-427.603	464.603	0.006	-0.014
-426.588	-116.694	-0.222	0.040
-425.573	421.902	0.047	0.100
-424.559	-200.000	0.028	-0.198
-423.544	-200.000	-0.040	-0.220
-422.530	-88.983	0.229	-0.067
-421.515	-200.000	0.037	0.163
-420.500	-200.000	-0.004	0.274
-419.486	105.065	0.131	-0.154
-418.471	-46.672	0.292	-0.142
-417.457	43.773	-0.168	0.153
-416.442	-131.326	-0.090	0.012
-415.428	346.324	-0.076	-0.149
-414.413	-200.000	-0.068	-0.309
-413.398	-200.000	0.036	0.285
-412.384	-52.001	0.151	0.070
-411.369	78.122	-0.147	0.156
-410.355	60.937	0.215	0.212
-409.340	210.347	-0.164	0.256
-408.325	487.236	0.016	0.036
-407.311	-113.095	-0.110	0.021
-406.296	-174.721	-0.167	0.005
-405.282	-13.551	-0.288	0.185
-404.267	36.625	-0.233	0.204
-403.252	-174.975	-0.228	0.006
-402.238	-200.000	0.027	-0.116
-401.223	-104.552	0.272	0.062
-400.209	-59.096	0.404	-0.173
-399.194	-89.936	-0.255	0.074
-398.179	162.480	0.113	0.157
-397.165	-200.000	0.072	0.427
-396.150	280.584	-0.069	0.122
-395.136	-162.008	-0.141	-0.007
-394.121	109.835	-0.168	0.200
-393.106	351.384	0.171	0.336
-392.092	-73.466	-0.411	0.149
-391.077	14.941	0.144	0.112
-390.063	29.356	-0.336	0.283
-389.048	-200.000	-0.017	0.299
-388.033	150.004	0.124	-0.167
-387.019	633.391	-0.018	-0.045
-386.004	-146.480	0.184	-0.016
-384.990	3.587	-0.176	-0.127
-383.975	-85.149	-0.559	-0.173
-382.960	222.048	-0.135	0.215
-381.946	65.417	0.274	-0.275
-380.931	295.043	0.060	-0.109
-379.917	-200.000	-0.020	0.376
-378.902	-68.271	0.111	0.043
-377.888	-66.416	-0.338	-0.133
-376.873	7.478	0.068	0.050
-375.858	51.337	-0.114	-0.107
-374.844	-200.000	0.092	-0.508
-373.829	-122.946	-0.083	-0.013
-372.815	-55.125	0.171	0.076
-371.800	278.566	-0.063	-0.112
-370.785	-148.408	0.268	0.022
-369.771	-75.763	0.257	0.090
-368.756	-107.148	0.079	-0.017
-367.742	-200.000	-0.053	0.231
-366.727	-200.000	0.014	0.195
-365.712	-82.152	-0.336	0.108
-364.698	-200.000	0.013	0.097
-363.683	800.000	0.049	-0.190
-362.669	24.318	-0.116	0.095
-361.654	-7.000	-0.183	0.123
-360.639	-96.430	-0.120	-0.032
-359.625	132.979	0.270	0.345
-358.610	9.417	-0.108	-0.081
-357.596	28.896	0.282	-0.237
-356.581	25.702	-0.338	-0.278
-355.566	-137.400	0.236	-0.026
-354.552	249.227	0.126	0.212
-353.537	800.000	0.042	0.146
-352.523	224.342	0.355	0.569
-351.508	245.488	0.087	0.145
-350.493	119.513	-0.174	-0.213
-349.479	-57.169	-0.290	0.126
-348.464	-51.310	-0.162	-0.075
-347.450	505.652	0.173	-0.397
-346.435	709.773	-0.067	-0.176
-345.420	-200.000	0.005	-0.106
-344.406	-102.031	-0.176	0.042
-343.391	-131.715	0.161	0.021
-342.377	16.954	0.288	-0.225
-341.362	-105.908	0.135	-0.030
-340.348	-48.497	0.143	-0.068
-339.333	486.597	0.101	0.227
-338.318	-200.000	-0.064	0.297
-337.304	800.000	0.035	-0.101
-336.289	-52.382	-0.198	0.091
-335.275	-200.000	0.022	0.201
-334.260	-6.469	-0.132	-0.089
-333.245	-49.368	0.090	-0.042
-332.231	80.432	-0.008	-0.009
-331.216	-200.000	-0.015	-0.292
-330.202	88.617	0.246	0.271
-329.187	-17.980	0.274	-0.170
-328.172	26.085	0.052	0.043
-327.158	345.159	-0.192	0.372
-326.143	692.649	-0.123	-0.318
-325.129	800.000	0.002	-0.006
-324.114	-88.069	0.244	-0.072
-323.099	-10.566	0.128	0.084
-322.085	-75.807	-0.255	0.089
-321.070	204.535	-0.079	0.121
-320.056	332.791	-0.097	-0.185
-319.041	-20.996	0.353	-0.214
-318.026	-200.000	0.005	-0.104
-317.012	-43.395	-0.210	-0.105
-315.997	157.798	-0.115	-0.158
-314.983	657.040	-0.108	-0.274
-313.968	-200.000	-0.039	-0.344
-312.953	-198.072	-0.246	0.001
-311.939	611.349	-0.053	-0.131
-310.924	112.116	0.171	0.204
-309.910	49.629	-0.248	0.231
-308.895	139.127	0.048	-0.062
-307.880	-88.613	0.143	0.042
-306.866	-200.000	-0.059	0.318
-305.851	800.000	-0.086	0.363
-304.837	129.000	0.156	-0.197
-303.822	-200.000	0.042	-0.305
-302.807	-178.393	0.230	0.005
-301.793	384.340	0.017	-0.035
-300.778	-200.000	-0.010	0.206
-299.764	215.207	0.097	-0.153
-298.749	-38.236	-0.096	0.050
-297.735	-68.507	-0.235	-0.090
-296.720	152.526	-0.221	0.299
-295.705	28.013	0.112	-0.094
-294.691	-94.012	-0.092	0.025
-293.676	325.155	0.109	0.206
-292.662	50.315	-0.216	0.201
-291.647	-109.029	0.177	0.037
-290.632	1.258	-0.209	-0.148
-289.618	-178.203	-0.246	0.006
-288.603	-200.000	0.284	-0.001
-287.589	-200.000	-0.014	-0.168
-286.574	-200.000	-0.057	0.000
-285.559	-200.000	-0.012	0.325
-284.545	-32.532	-0.257	0.141
-283.530	198.702	-0.081	0.122
-282.516	37.047	0.134	0.117
-281.501	492.756	0.202	0.456
-280.486	47.279	0.187	0.172
-279.472	-56.488	0.398	0.174
-278.457	-200.000	0.021	0.116
-277.443	-200.000	-0.014	-0.380
-276.428	242.589	-0.079	-0.131
-275.413	-200.000	0.084	0.367
-274.399	437.921	-0.108	0.233
-273.384	-101.712	0.239	0.057
-272.370	-158.677	0.122	0.007
-271.355	159.119	-0.110	-0.151
-270.340	800.000	0.018	0.068
-269.326	-165.411	-0.341	-0.015
-268.311	71.972	0.241	-0.247
-267.297	-200.000	0.026	-0.152
-266.282	-161.305	-0.376	0.019
-265.267	-200.000	0.015	-0.068
-264.253	-105.726	-0.272	-0.061
-263.238	-10.899	0.181	-0.118
-262.224	-200.000	-0.028	0.128
-261.209	-14.377	0.092	-0.058
-260.195	-74.084	0.241	-0.086
-259.180	140.296	0.179	0.232
-258.165	-8.369	0.133	0.088
-257.151	-200.000	-0.015	-0.153
-256.136	-44.579	-0.080	0.040
-255.122	190.226	-0.163	0.241
-254.107	165.021	-0.031	-0.044
-253.092	-159.022	0.415	-0.023
-252.078	-200.000	0.009	0.128
-251.063	-200.000	-0.011	-0.336
-250.049	800.000	-0.081	0.260
-249.034	-173.497	-0.073	0.002
-248.019	-106.086	0.553	-0.123
-247.005	-94.782	-0.418	-0.112
-245.990	-200.000	-0.000	-0.092
-244.976	198.269	0.091	0.137
-243.961	-200.000	0.050	0.319
-242.946	90.299	-0.098	0.108
-241.932	800.000	-0.090	-0.305
-240.917	-3.619	0.141	-0.096
-239.903	-27.962	-0.318	-0.182
-238.888	583.725	0.135	0.325
-237.873	5.149	-0.020	0.014
-236.859	-13.384	0.200	-0.128
-235.844	170.661	-0.229	0.324
-234.830	6.625	0.477	0.349
-233.815	-75.676	0.202	-0.071
-232.800	-96.644	-0.248	0.064
-231.786	800.000	0.121	-0.431
-230.771	-154.043	0.187	-0.013
-229.757	800.000	0.064	-0.179
-228.742	58.371	0.147	-0.142
-227.727	252.119	-0.090	0.152
-226.713	800.000	-0.029	0.086
-225.698	800.000	0.030	-0.128
-224.684	800.000	-0.040	-0.115
-223.669	-86.816	0.140	-0.042
-222.655	-200.000	-0.009	0.167
-221.640	654.895	-0.053	0.133
-220.625	-177.287	-0.222	-0.005
-219.611	-23.201	0.255	0.151
-218.596	190.313	0.105	0.155
-217.582	-200.000	0.033	-0.264
-216.567	84.513	-0.103	-0.111
-215.552	-130.034	0.563	0.076
-214.538	-75.667	-0.299	0.104
-213.523	-200.000	-0.049	-0.221
-212.509	-200.000	-0.097	0.459
-211.494	-54.513	-0.111	-0.050
-210.479	-200.000	0.092	-0.497
-209.465	255.838	-0.151	-0.256
-208.450	147.317	0.114	0.151
-207.436	82.949	-0.225	0.241
-206.421	-88.540	-0.262	-0.077
-205.406	157.841	-0.177	0.242
-204.392	718.545	-0.075	-0.196
-203.377	-200.000	-0.024	0.306
-202.363	223.178	-0.101	-0.160
-201.348	-200.000	-0.004	-0.249
-200.333	183.690	-0.171	-0.249
-199.319	-200.000	0.047	-0.277
-198.304	4.949	0.255	0.185
-197.290	-29.253	0.365	0.206
-196.275	-183.590	0.083	-0.001
-195.260	-58.014	0.062	-0.027
-194.246	-200.000	0.066	-0.373
-193.231	45.168	0.142	-0.129
-192.217	47.235	-0.140	-0.128
-191.202	-200.000	-0.010	-0.114
-190.187	-22.631	-0.230	-0.137
-189.173	38.512	0.362	0.317
-188.158	50.121	0.043	0.040
-187.144	-200.000	0.012	-0.088
-186.129	-90.805	-0.289	0.082
-185.114	146.253	0.079	0.105
-184.100	-116.518	-0.125	-0.023
-183.085	-200.000	0.034	0.268
-182.071	-196.659	-0.284	0.002
-181.056	186.557	0.261	-0.382
-180.042	-200.000	-0.002	0.389
-179.027	267.088	0.120	-0.207
-178.012	-200.000	-0.024	-0.128
-176.998	43.642	0.149	0.134
-175.983	19.746	-0.251	-0.199
-174.969	672.334	0.026	-0.066
-173.954	12.724	0.084	-0.063
-172.939	-162.481	-0.240	0.012
-171.925	-138.061	0.166	0.018
-170.910	-117.271	-0.214	-0.038
-169.896	197.827	0.241	0.362
-168.881	-130.192	-0.138	-0.018
-167.866	28.221	0.307	0.255
-166.852	243.488	0.031	-0.051
-165.837	800.000	-0.080	0.331
-164.823	188.890	-0.020	-0.029
-163.808	800.000	0.048	0.158
-162.793	-161.244	-0.228	-0.012
-161.779	-152.009	-0.198	-0.014
-160.764	-77.986	0.268	0.091
-159.750	-115.572	-0.234	-0.043
-158.735	569.498	-0.121	-0.288
-157.720	510.168	-0.032	0.073
-156.706	800.000	0.054	-0.224
-155.691	62.115	-0.282	0.276
-154.677	-69.441	0.155	0.058
-153.662	742.726	-0.079	0.207
-152.647	28.469	-0.048	0.040
-151.633	800.000	0.147	0.400
-150.618	126.715	0.133	-0.165
-149.604	-187.341	0.208	0.003
-148.589	-98.054	0.181	0.046
-147.574	-4.294	-0.083	0.056
-146.560	354.960	-0.133	-0.260
-145.545	-140.910	0.124	0.013
-144.531	-2.179	0.027	-0.019
-143.516	-122.436	0.241	-0.038
-142.502	147.993	0.114	-0.151
-141.487	-85.159	-0.177	0.054
-140.472	240.549	-0.033	0.054
-139.458	-200.000	0.050	-0.301
-138.443	499.100	0.073	0.164
-137.429	121.839	0.276	0.338
-136.414	74.870	-0.243	0.251
-135.399	79.415	0.143	0.150
-134.385	-41.050	0.129	-0.065
-133.370	-86.675	-0.359	0.108
-132.356	200.392	-0.126	0.191
-131.341	-125.056	-0.084	-0.013
-130.326	-87.742	0.189	0.056
-129.312	-144.156	0.135	-0.012
-128.297	-59.645	0.094	-0.039
-127.283	0.475	0.348	0.244
-126.268	-38.644	0.239	-0.124
-125.253	-85.271	-0.231	0.071
-124.239	-45.572	0.044	0.021
-123.224	29.049	0.060	0.050
-122.210	-78.018	0.089	0.030
-121.195	-101.072	0.270	-0.065
-120.180	-200.000	0.042	0.185
-119.166	-6.734	0.143	0.096
-118.151	-58.598	-0.328	-0.139
-117.137	-188.628	0.128	-0.002
-116.122	232.413	0.078	0.125
-115.107	-178.314	-0.216	-0.005
-114.093	64.966	0.092	0.091
-113.078	-71.968	-0.379	0.138
-112.064	-18.506	-0.182	-0.111
-111.049	83.157	0.043	-0.045
-110.034	-66.621	0.274	0.106
-109.020	-49.672	-0.190	0.089
-108.005	-6.793	-0.199	0.133
-106.991	-0.855	-0.093	-0.064
-105.976	79.975	0.232	-0.244
-104.962	-12.835	-0.496	0.317
-103.947	50.044	0.202	0.186
-102.932	-104.129	-0.387	-0.088
-101.918	165.408	0.040	0.055
-100.903	18.295	0.207	0.162
-99.889	-200.000	0.015	-0.214
-98.874	800.000	-0.058	-0.213
-97.859	277.433	0.027	0.047
-96.845	-200.000	-0.047	0.306
-95.830	-200.000	0.063	0.311
-94.816	368.467	0.054	-0.106
-93.801	-136.986	-0.329	0.037
-92.786	-36.892	0.191	-0.101
-91.772	21.833	0.255	0.204
-90.757	800.000	0.026	0.070
-89.743	-164.854	0.212	0.009
-88.728	664.469	-0.061	-0.153
-87.713	154.739	0.103	0.139
-86.699	800.000	0.093	-0.348
-85.684	144.728	-0.084	0.110
-84.670	-135.465	0.121	-0.014
-83.655	341.423	0.071	-0.136
-82.640	-29.118	-0.267	0.150
-81.626	-152.446	0.163	-0.011
-80.611	-39.682	-0.147	-0.075
-79.597	-200.000	0.014	-0.087
-78.582	-158.476	0.412	-0.023
-77.567	-198.303	-0.087	-0.000
-76.553	-1.921	-0.055	0.038
-75.538	-64.237	-0.044	-0.018
-74.524	239.771	0.087	-0.142
-73.509	-147.921	-0.244	-0.020
-72.494	3.891	-0.179	-0.128
-71.480	-67.718	0.202	0.077
-70.465	-162.925	-0.095	-0.005
-69.451	105.995	-0.160	0.186
-68.436	144.770	0.267	0.349
-67.422	4.683	0.245	0.176
-66.407	1.026	0.259	0.182
-65.392	-68.541	0.140	-0.053
-64.378	-200.000	0.061	0.320
-63.363	-200.000	-0.012	0.253
-62.349	-200.000	0.012	0.224
-61.334	-18.244	-1.174	-0.718
-60.319	145.325	0.342	0.447
-59.305	359.023	-0.378	-0.739
-58.290	800.000	0.400	1.278
-57.276	800.000	0.532	1.910
-56.261	-200.000	111.900	642.904
-55.246	479.398	1498.808	3322.078
-54.232	148.921	2664.141	3523.560
-53.217	104.066	2170.567	2496.124
-52.203	37.985	1703.102	1481.080
-51.188	30.773	1521.267	1273.766
-50.173	28.475	1497.118	1237.999
-49.159	52.622	1553.894	1451.536
-48.144	51.407	1569.706	1457.913
-47.130	31.002	1526.807	1279.772
-46.115	27.933	1511.700	1246.167
-45.100	27.750	1508.098	1241.902
-44.086	27.694	1506.701	1240.318
-43.071	27.697	1504.226	1238.252
-42.057	27.635	1502.465	1236.336
-41.042	27.679	1501.391	1235.699
-40.027	27.668	1499.757	1234.229
-39.013	27.582	1498.963	1232.950
-37.998	27.591	1497.053	1231.389
-36.984	27.556	1496.449	1230.604
-35.969	27.670	1494.491	1229.715
-34.954	27.695	1492.779	1228.425
-33.940	27.642	1491.836	1227.245
-32.925	27.618	1490.624	1226.039
-31.911	27.628	1488.948	1224.678
-30.896	27.706	1487.747	1224.167
-29.881	27.572	1486.884	1222.505
-28.867	27.661	1485.123	1221.605
-27.852	27.686	1483.969	1220.774
-26.838	27.628	1482.986	1219.533
-25.823	27.700	1481.261	1218.543
-24.809	27.724	1479.115	1216.894
-23.794	27.678	1478.254	1215.825
-22.779	27.617	1477.545	1214.789
-21.765	27.653	1476.298	1213.954
-20.750	27.699	1475.182	1213.297
-19.736	27.658	1473.960	1211.968
-18.721	27.629	1472.527	1210.555
-17.706	27.619	1471.872	1209.898
-16.692	27.656	1470.571	1209.025
-15.677	27.642	1469.529	1208.029
-14.663	27.701	1467.715	1206.878
-13.648	27.518	1467.905	1205.777
-12.633	27.636	1467.094	1205.845
-11.619	27.605	1466.105	1204.781
-10.604	27.593	1465.490	1204.146
-9.590	27.518	1464.798	1203.032
-8.575	27.653	1463.087	1202.473
-7.560	27.609	1462.537	1201.680
-6.546	27.606	1461.478	1200.744
-5.531	27.541	1461.049	1199.917
-4.517	27.580	1459.968	1199.235
-3.502	27.588	1458.578	1198.103
-2.487	27.613	1457.723	1197.517
-1.473	27.579	1456.451	1196.201
-0.458	27.598	1455.376	1195.397
0.556	25.988	1445.498	1184.608
1.571	23.256	1420.623	1146.452
2.586	20.077	1360.924	1078.426
3.600	18.602	1278.363	1004.286
4.615	17.396	1233.181	961.893
5.629	16.735	1179.678	916.501
6.644	13.544	1103.415	841.001
7.659	10.670	1068.565	800.215
8.673	10.354	1063.358	794.697
9.688	10.279	1060.274	791.953
10.702	10.132	1058.797	790.063
11.717	10.145	1056.966	788.691
12.731	11.447	1056.644	794.725
13.746	14.648	1060.719	813.336
14.761	17.278	1063.545	828.265
15.775	17.804	1063.394	830.636
16.790	16.975	1061.349	824.936
17.804	15.994	1059.360	818.551
18.819	15.050	1057.342	812.343
19.834	14.436	1056.399	808.568
20.848	14.181	1054.962	806.158
21.863	14.037	1053.826	804.523
22.877	13.673	1053.288	802.279
23.892	13.601	1052.712	801.423
24.907	13.484	1051.790	800.085
25.921	13.396	1051.435	799.318
26.936	13.520	1050.174	798.888
27.950	13.552	1049.284	798.295
28.965	13.545	1047.783	797.050
29.980	13.662	1047.469	797.303
30.994	13.725	1046.021	796.432
32.009	13.887	1044.635	796.080
33.023	13.684	1044.592	795.005
34.038	13.756	1043.702	794.604
35.053	13.735	1042.739	793.697
36.067	13.710	1041.642	792.675
37.082	13.627	1041.146	791.831
38.096	13.573	1040.217	790.795
39.111	13.744	1039.216	790.778
40.126	13.740	1038.552	790.188
41.140	13.559	1037.551	788.492
42.155	13.535	1036.499	787.511
43.169	13.560	1035.319	786.664
44.184	13.420	1034.015	784.936
45.199	13.278	1033.318	783.667
46.213	13.527	1031.655	783.514
47.228	13.366	1031.154	782.302
48.242	13.446	1030.301	781.964
49.257	13.593	1028.966	781.576
50.271	13.427	1028.518	780.383
51.286	13.484	1027.256	779.626
52.301	13.534	1026.616	779.305
53.315	13.568	1025.873	778.833
54.330	13.572	1024.739	777.920
55.344	13.566	1023.737	777.062
56.359	13.508	1022.973	776.142
57.374	13.361	1021.879	774.555
58.388	13.360	1021.533	774.221
59.403	13.404	1020.630	773.672
60.417	13.415	1019.457	772.766
61.432	13.489	1019.019	772.710
62.447	13.389	1018.567	771.835
63.461	13.325	1017.656	770.779
64.476	13.323	1016.103	769.523
65.490	13.414	1015.262	769.240
66.505	13.307	1014.800	768.329
67.520	13.257	1014.188	767.563
68.534	13.421	1012.921	767.295
69.549	13.478	1012.353	767.064
70.563	13.390	1011.754	766.132
71.578	13.456	1011.081	765.863
72.593	13.323	1009.941	764.318
73.607	13.255	1009.292	763.445
74.622	13.326	1008.404	763.031
75.636	13.317	1007.674	762.372
76.651	13.357	1006.521	761.612
77.666	13.324	1006.232	761.175
78.680	13.459	1004.791	760.638
79.695	13.268	1004.537	759.505
80.709	13.280	1004.434	759.412
81.724	13.447	1003.343	759.286
82.739	13.492	1002.347	758.672
83.753	13.572	1001.472	758.307
84.768	13.618	1000.697	757.868
85.782	13.609	999.812	757.088
86.797	13.708	999.378	757.141
87.812	13.696	998.370	756.260
88.826	13.646	997.645	755.416
89.841	13.626	997.081	754.829
90.855	13.614	996.297	754.114
91.870	13.659	995.587	753.716
92.884	13.606	994.748	752.772
93.899	13.662	994.059	752.437
94.914	13.671	993.233	751.787
95.928	13.780	992.248	751.468
96.943	13.729	991.653	750.719
97.957	13.616	991.080	749.709
98.972	13.654	990.155	749.116
99.987	13.647	989.163	748.267
101.001	13.672	988.357	747.705
102.016	13.614	987.523	746.743
103.030	13.734	986.457	746.412
104.045	13.715	985.789	745.756
105.060	13.597	984.996	744.560
106.074	13.746	983.734	744.207
107.089	13.650	983.364	743.432
108.103	13.540	982.160	741.962
109.118	13.537	981.071	741.060
110.133	13.415	981.285	740.611
111.147	13.456	979.725	739.552
112.162	13.387	978.818	738.494
113.176	13.408	978.200	738.058
114.191	13.528	977.272	737.826
115.206	13.582	976.167	737.167
116.220	13.582	975.401	736.522
117.235	13.442	974.760	735.354
118.249	13.416	973.907	734.527
119.264	13.432	973.000	733.851
120.279	13.416	972.091	733.028
121.293	13.579	971.518	733.255
122.308	13.426	970.598	731.817
123.322	13.389	970.073	731.192
124.337	13.368	968.584	729.911
125.352	13.448	967.517	729.396
126.366	13.393	966.487	728.316
127.381	13.403	965.218	727.339
128.395	13.451	964.416	726.882
129.410	13.375	963.425	725.737
130.424	13.390	962.679	725.174
131.439	13.434	962.120	724.881
132.454	13.535	961.046	724.449
133.468	13.483	960.090	723.441
134.483	13.605	959.800	723.689
135.497	13.542	959.381	723.033
136.512	13.603	958.286	722.409
137.527	13.487	957.544	721.281
138.541	13.533	956.661	720.753
139.556	13.497	956.460	720.379
140.570	13.511	955.085	719.343
141.585	13.657	954.322	719.337
142.600	13.727	953.602	719.036
143.614	13.668	953.241	718.446
144.629	13.712	952.650	718.127
145.643	13.736	951.756	717.491
146.658	13.736	950.976	716.839
147.673	13.658	950.047	715.738
148.687	13.581	949.455	714.898
149.702	13.599	947.936	713.769
150.716	13.652	947.246	713.416
151.731	13.656	946.547	712.844
152.746	13.668	945.532	712.064
153.760	13.642	945.213	711.652
154.775	13.690	944.426	711.202
155.789	13.726	943.639	710.700
156.804	13.639	942.919	709.722
157.819	13.837	941.620	709.528
158.833	13.856	941.294	709.301
159.848	13.784	940.969	708.685
160.862	13.954	940.311	708.854
161.877	13.820	939.562	707.655
162.892	13.888	938.292	706.925
163.906	13.847	937.403	706.017
164.921	13.816	936.388	705.060
165.935	13.693	935.559	703.851
166.950	13.859	934.703	703.851
167.964	13.821	933.888	703.014
168.979	13.802	932.826	702.070
169.994	13.811	932.179	701.559
171.008	13.688	931.407	700.398
172.023	13.839	930.562	700.335
173.037	13.836	930.355	700.107
174.052	13.928	929.115	699.498
175.067	13.911	928.345	698.786
176.081	14.032	927.192	698.364
177.096	13.705	926.531	696.433
178.110	13.826	925.834	696.352
179.125	13.859	925.020	695.819
180.140	13.918	924.071	695.291
181.154	13.861	923.486	694.547
182.169	13.911	923.215	694.492
183.183	13.914	922.779	694.115
184.198	14.048	921.825	693.898
185.213	14.094	920.792	693.249
186.227	14.056	920.603	692.885
187.242	14.023	920.175	692.368
188.256	14.081	919.726	692.207
189.271	14.115	918.902	691.668
190.286	14.179	918.203	691.349
191.300	13.985	917.151	689.690
192.315	13.767	916.813	688.469
193.329	13.857	915.589	687.862
194.344	13.803	915.526	687.532
195.359	13.908	914.526	687.154
196.373	14.134	913.896	687.554
197.388	14.024	913.480	686.723
198.402	14.048	913.134	686.504
199.417	14.327	912.191	686.882
200.432	14.248	912.283	686.566
201.446	14.342	911.693	686.448
202.461	14.383	911.485	686.401
203.475	14.277	911.157	685.657
204.490	14.463	909.828	685.362
205.504	14.489	908.806	684.638
206.519	14.280	908.438	683.443
207.534	14.309	907.265	682.615
208.548	14.274	907.104	682.292
209.563	14.210	906.453	681.479
210.577	14.428	905.245	681.403
211.592	14.357	904.921	680.810
212.607	14.406	904.657	680.750
213.621	14.573	903.621	680.592
214.636	14.468	902.703	679.412
215.650	14.439	902.246	678.891
216.665	14.505	901.773	678.741
217.680	14.509	901.387	678.406
218.694	14.503	901.090	678.102
219.709	14.554	900.895	678.098
220.723	14.572	899.748	677.252
221.738	14.560	898.835	676.454
222.753	14.574	898.205	675.977
223.767	14.518	897.766	675.362
224.782	14.672	896.630	675.068
225.796	14.637	896.077	674.454
226.811	14.785	895.154	674.296
227.826	14.729	894.559	673.562
228.840	14.754	893.915	673.117
229.855	14.732	893.226	672.450
230.869	14.678	892.811	671.859
231.884	14.676	891.768	671.009
232.899	14.645	891.123	670.338
233.913	14.556	890.412	669.389
234.928	14.584	889.836	669.009
235.942	14.556	889.162	668.330
236.957	14.695	888.322	668.195
237.972	14.509	887.984	667.137
238.986	14.595	887.451	667.024
240.001	14.520	886.912	666.257
241.015	14.667	886.206	666.255
242.030	14.679	885.530	665.735
243.045	14.590	884.307	664.405
244.059	14.709	884.052	664.628
245.074	14.780	883.499	664.437
246.088	14.770	882.850	663.849
247.103	14.744	882.283	663.260
248.117	14.846	881.317	662.881
249.132	14.928	881.169	663.034
250.147	14.877	881.102	662.722
251.161	15.167	880.114	663.069
252.176	15.054	879.312	661.962
253.190	15.131	878.410	661.529
254.205	15.136	877.960	661.150
255.220	15.171	877.123	660.600
256.234	15.220	876.348	660.150
257.249	15.261	875.624	659.707
258.263	15.061	875.405	658.698
259.278	15.211	874.664	658.671
260.293	15.190	874.435	658.357
261.307	15.325	873.464	658.100
262.322	15.454	872.673	657.948
263.336	15.424	872.412	657.576
264.351	15.362	871.919	656.903
265.366	15.358	871.454	656.478
266.380	15.364	870.885	656.017
267.395	15.373	870.108	655.408
268.409	15.370	869.330	654.754
269.424	15.297	868.694	653.932
270.439	15.419	867.806	653.680
271.453	15.387	866.716	652.679
272.468	15.547	866.018	652.716
273.482	15.383	865.854	651.898
274.497	15.385	865.267	651.407
275.512	15.311	864.536	650.511
276.526	15.388	863.908	650.279
277.541	15.334	863.452	649.667
278.555	15.369	863.075	649.461
279.570	15.531	862.094	649.292
280.585	15.547	861.565	648.898
281.599	15.716	860.787	648.910
282.614	15.582	860.465	648.091
283.628	15.439	859.652	646.870
284.643	15.558	858.927	646.726
285.657	15.567	858.615	646.469
286.672	15.547	857.921	645.813
287.687	15.558	857.300	645.329
288.701	15.717	856.885	645.572
289.716	15.539	856.529	644.562
290.730	15.686	856.213	644.829
291.745	15.638	855.438	644.006
292.760	15.653	854.350	643.187
293.774	15.663	854.083	642.966
294.789	15.624	853.388	642.240
295.803	15.832	852.830	642.557
296.818	15.785	851.972	641.672
297.833	15.745	851.352	640.996
298.847	15.729	850.857	640.508
299.862	15.714	850.048	639.783
300.876	15.731	849.822	639.623
301.891	15.886	848.489	639.150
302.906	15.845	848.656	639.066
303.920	15.834	847.562	638.142
304.935	15.958	847.006	638.139
305.949	15.895	846.582	637.522
306.964	16.001	845.973	637.409
307.979	15.988	845.294	636.792
308.993	16.028	844.596	636.361
310.008	15.968	844.281	635.840
311.022	16.058	843.762	635.732
312.037	16.051	843.540	635.482
313.052	16.079	842.762	634.945
314.066	15.960	842.181	634.003
315.081	15.922	841.233	633.093
316.095	15.951	841.051	633.008
317.110	15.907	840.628	632.467
318.125	15.923	840.117	632.088
319.139	15.871	839.689	631.514
320.154	16.031	838.641	631.270
321.168	16.118	838.395	631.355
322.183	16.088	837.673	630.643
323.197	16.079	837.360	630.316
324.212	16.101	837.016	630.086
325.227	16.150	836.392	629.743
326.241	16.076	835.890	629.032
327.256	16.041	835.327	628.421
328.270	16.097	834.806	628.184
329.285	16.088	834.015	627.500
330.300	16.092	833.355	626.962
331.314	16.020	833.027	626.391
332.329	16.093	832.540	626.241
333.343	16.115	832.045	625.896
334.358	16.256	831.019	625.592
335.373	16.295	830.895	625.588
336.387	16.247	829.853	624.570
337.402	16.353	829.544	624.674
338.416	16.350	829.168	624.323
339.431	16.292	828.854	623.819
340.446	16.548	827.806	623.918
341.460	16.428	827.537	623.219
342.475	16.413	826.877	622.613
343.489	16.520	826.278	622.499
344.504	16.633	825.756	622.467
345.519	16.484	825.497	621.669
346.533	16.576	825.045	621.610
347.548	16.533	824.306	620.840
348.562	16.716	823.633	620.950
349.577	16.440	823.484	619.773
350.592	16.513	822.912	619.554
351.606	16.557	821.991	618.967
352.621	16.468	821.784	618.432
353.635	16.557	821.320	618.350
354.650	16.464	820.967	617.690
355.665	16.530	820.533	617.551
356.679	16.472	820.275	617.092
357.694	16.567	819.745	616.984
358.708	16.585	818.740	616.240
359.723	16.737	817.883	616.091
360.738	16.551	818.075	615.504
361.752	16.699	817.436	615.508
362.767	16.820	817.191	615.710
363.781	16.676	816.714	614.772
364.796	16.751	816.378	614.735
365.810	16.836	815.777	614.538
366.825	16.835	815.430	614.218
367.840	16.942	815.067	614.277
368.854	16.933	814.649	613.877
369.869	16.948	814.203	613.539
370.883	16.948	813.656	613.073
371.898	16.909	812.893	612.303
372.913	17.056	812.198	612.258
373.927	16.814	812.243	611.362
374.942	17.070	810.975	611.276
375.956	16.928	810.535	610.379
376.971	17.104	810.028	610.576
377.986	17.079	809.352	609.922
379.000	17.125	808.796	609.615
380.015	17.260	808.723	609.992
381.029	17.128	808.147	609.030
382.044	17.025	807.607	608.199
383.059	17.225	806.772	608.234
384.073	17.332	806.120	608.069
385.088	17.308	805.578	607.522
386.102	17.106	805.128	606.406
387.117	17.028	804.826	605.847
388.132	16.964	804.313	605.179
389.146	17.101	803.789	605.219
390.161	17.148	803.342	604.999
391.175	17.198	803.220	605.029
392.190	17.378	802.636	605.178
393.205	17.210	802.167	604.171
394.219	17.134	802.105	603.803
395.234	17.150	801.545	603.385
396.248	17.156	800.747	602.752
397.263	17.167	800.263	602.374
398.278	17.021	799.641	601.333
399.292	17.211	799.273	601.678
400.307	17.164	798.947	601.210
401.321	17.232	798.308	600.919
402.336	17.138	798.451	600.639
403.350	17.186	797.996	600.413
404.365	17.190	797.571	600.055
405.380	17.310	797.000	599.995
406.394	17.416	796.164	599.688
407.409	17.462	795.903	599.601
408.423	17.378	795.776	599.154
409.438	17.510	795.136	599.084
410.453	17.527	794.602	598.689
411.467	17.453	794.282	598.134
412.482	17.503	793.775	597.877
413.496	17.613	793.209	597.784
414.511	17.702	792.847	597.769
415.526	17.726	792.527	597.560
416.540	17.678	792.151	597.056
417.555	17.592	791.729	596.383
418.569	17.586	791.194	595.905
419.584	17.556	791.156	595.719
420.599	17.746	790.216	595.625
421.613	111.303	1292.888	1475.811
422.628	95.604	1366.114	1475.887
