DTS Sentinel unit serial number:	SN413079Multiplexer serial number:	ORYXHardware model number:	OX4-SRSoftware version number:	ORYX F/W v4.00 Oryx Data Collector v3.7.2.0data status	okinstallation	princeton_trtdifferential loss correction	single-endedforward channel	channel 3reverse channel	N/Adate	2019/09/17time	23:12:35forward acquisition time	60.00reverse acquisition time	0.00gamma	496.2192k internal	0.2344k external	0.2344temperature offset calibration	0.9949default loss term (dB/km)	0.3790temperature slope calibration	1.0000multiplexer offset coefficient	1.0000multiplexer slope coefficient	1.0000fibre end	0.00T internal ref (°C)	24.56T ext. ref 1 (°C)	0.17T ext. ref 2 (°C)	17.73length (m)	temperature (°C)	Stokes	anti-Stokes-747.200	-46.326	0.150	0.074
-746.185	-96.127	-0.100	-0.027
-745.171	800.000	0.018	0.054
-744.156	451.487	-0.177	0.390
-743.142	-152.511	-0.168	-0.012
-742.127	-85.701	-0.040	0.012
-741.112	-200.000	0.055	0.288
-740.098	401.350	-0.185	0.390
-739.083	-50.580	-0.248	-0.117
-738.069	681.177	0.095	0.247
-737.054	-125.507	-0.068	0.010
-736.039	-63.529	-0.249	-0.102
-735.025	-9.547	-0.187	-0.125
-734.010	79.288	-0.203	0.218
-732.996	800.000	-0.095	-0.332
-731.981	-82.481	-0.099	0.032
-730.966	222.452	-0.026	-0.042
-729.952	-27.115	0.158	0.092
-728.937	-195.276	-0.278	-0.002
-727.923	-112.887	0.095	0.019
-726.908	-104.268	0.054	0.013
-725.894	93.082	-0.038	-0.043
-724.879	201.375	-0.175	0.269
-723.864	133.145	0.149	-0.192
-722.850	746.980	-0.067	0.180
-721.835	361.977	-0.191	-0.382
-720.821	-7.309	-0.110	-0.075
-719.806	-69.217	-0.364	-0.140
-718.791	-22.501	0.234	-0.142
-717.777	185.017	0.117	-0.173
-716.762	-200.000	0.006	-0.082
-715.748	-170.016	-0.386	0.014
-714.733	632.255	-0.066	-0.167
-713.718	-200.000	-0.024	0.160
-712.704	-146.201	0.300	0.026
-711.689	-92.943	-0.212	0.059
-710.675	-81.510	-0.510	0.168
-709.660	81.629	-0.104	0.113
-708.645	122.317	0.193	0.240
-707.631	-106.082	0.140	0.031
-706.616	-167.846	0.147	-0.006
-705.602	87.354	0.045	-0.050
-704.587	-89.799	-0.201	-0.059
-703.572	-114.688	0.179	-0.034
-702.558	532.877	-0.052	-0.123
-701.543	79.087	0.127	-0.135
-700.529	131.675	0.121	-0.156
-699.514	-183.057	0.032	0.001
-698.499	181.255	0.239	0.351
-697.485	-78.238	0.176	-0.060
-696.470	28.545	-0.165	0.140
-695.456	-144.253	0.791	0.074
-694.441	-104.449	-0.428	-0.099
-693.426	50.012	-0.098	0.092
-692.412	-28.108	0.381	-0.220
-691.397	800.000	-0.034	-0.148
-690.383	140.978	0.124	0.164
-689.368	64.987	-0.161	-0.162
-688.354	-149.252	-0.136	-0.011
-687.339	797.809	-0.075	-0.207
-686.324	-86.619	0.166	-0.051
-685.310	479.464	0.047	0.106
-684.295	-115.790	-0.369	-0.069
-683.281	-13.346	-0.115	0.075
-682.266	336.384	-0.110	-0.213
-681.251	-2.389	-0.162	0.114
-680.237	800.000	-0.044	-0.186
-679.222	377.609	0.068	-0.139
-678.208	30.397	-0.122	-0.104
-677.193	800.000	-0.024	0.093
-676.178	216.496	0.230	-0.365
-675.164	106.385	0.207	0.245
-674.149	-111.302	-0.193	0.039
-673.135	195.628	-0.053	0.081
-672.120	319.397	-0.040	-0.075
-671.105	-200.000	0.055	0.341
-670.091	-19.902	0.072	0.044
-669.076	41.842	-0.130	-0.118
-668.062	783.116	0.034	-0.092
-667.047	800.000	0.086	-0.237
-666.032	541.309	-0.065	0.154
-665.018	-39.109	0.519	0.272
-664.003	-151.890	0.156	0.011
-662.989	-17.226	-0.203	0.127
-661.974	-200.000	-0.021	0.140
-660.959	206.907	0.156	-0.243
-659.945	49.557	0.349	0.328
-658.930	-115.182	0.176	-0.033
-657.916	-56.457	-0.424	-0.187
-656.901	116.772	0.193	-0.236
-655.886	800.000	-0.027	0.111
-654.872	-200.000	0.006	0.284
-653.857	-27.541	-0.262	-0.152
-652.843	-183.768	-0.185	-0.003
-651.828	-35.015	0.152	-0.083
-650.814	-11.314	0.263	-0.173
-649.799	29.187	0.051	0.043
-648.784	730.408	0.038	-0.101
-647.770	-43.913	0.345	-0.173
-646.755	-92.398	-0.626	0.176
-645.741	16.199	0.413	-0.325
-644.726	26.499	-0.317	0.264
-643.711	-200.000	-0.017	-0.245
-642.697	-90.316	-0.258	0.075
-641.682	800.000	0.027	-0.109
-640.668	-83.969	-0.082	0.026
-639.653	-18.350	-0.312	0.194
-638.638	4.830	-0.363	-0.266
-637.624	-44.087	0.464	-0.232
-636.609	-132.417	0.211	0.027
-635.595	23.447	-0.074	-0.061
-634.580	140.531	-0.115	-0.151
-633.565	-80.311	-0.215	0.071
-632.551	-34.468	0.291	0.159
-631.536	99.631	-0.131	-0.151
-630.522	467.204	0.049	-0.109
-629.507	136.747	-0.058	0.075
-628.492	26.237	0.287	-0.239
-627.478	-33.688	-0.353	-0.194
-626.463	-123.910	-0.233	-0.037
-625.449	-25.223	-0.158	0.093
-624.434	-81.192	-0.199	0.066
-623.419	-45.721	0.119	-0.058
-622.405	-80.550	-0.281	0.093
-621.390	-200.000	0.030	-0.185
-620.376	-200.000	-0.035	0.288
-619.361	-121.174	0.481	-0.080
-618.346	-137.526	-0.480	-0.054
-617.332	-200.000	0.042	0.438
-616.317	174.438	-0.157	-0.226
-615.303	-108.948	-0.126	0.027
-614.288	-144.900	0.088	-0.008
-613.273	-71.424	0.156	0.058
-612.259	89.518	-0.110	0.122
-611.244	46.082	-0.134	-0.124
-610.230	692.647	-0.029	0.076
-609.215	-137.141	0.304	-0.035
-608.201	-200.000	0.003	-0.192
-607.186	4.671	0.052	0.038
-606.171	87.152	0.151	-0.166
-605.157	321.858	-0.171	-0.324
-604.142	178.019	-0.177	0.257
-603.128	525.334	-0.084	-0.197
-602.113	-200.000	-0.043	-0.228
-601.098	-200.000	0.010	0.180
-600.084	-200.000	0.041	-0.231
-599.069	25.089	-0.171	-0.141
-598.055	-69.348	0.233	0.089
-597.040	-114.123	-0.205	0.039
-596.025	-200.000	0.022	0.177
-595.011	11.598	0.331	-0.252
-593.996	1.491	-0.116	-0.083
-592.982	269.768	0.096	-0.168
-591.967	125.237	-0.096	-0.121
-590.952	-61.000	-0.037	-0.016
-589.938	-88.379	-0.301	-0.090
-588.923	-76.090	0.189	-0.066
-587.909	-200.000	-0.010	-0.232
-586.894	-120.811	-0.052	-0.009
-585.879	-69.723	0.210	-0.080
-584.865	-63.045	-0.042	0.017
-583.850	-108.966	-0.148	-0.031
-582.836	178.213	-0.125	0.181
-581.821	-7.396	0.291	0.196
-580.806	-200.000	0.017	0.091
-579.792	-200.000	0.001	-0.351
-578.777	70.519	-0.048	0.049
-577.763	-168.916	0.342	-0.013
-576.748	150.735	0.070	0.095
-575.733	35.537	-0.058	-0.051
-574.719	-123.245	-0.318	0.051
-573.704	-81.549	-0.054	0.018
-572.690	592.354	-0.105	-0.258
-571.675	300.844	0.063	-0.116
-570.661	141.789	0.193	0.254
-569.646	-105.173	-0.142	-0.032
-568.631	477.100	-0.055	0.123
-567.617	127.411	-0.131	0.165
-566.602	345.249	-0.129	-0.252
-565.588	-104.730	0.253	0.058
-564.573	-200.000	-0.075	-0.365
-563.558	246.667	-0.071	0.119
-562.544	-19.882	0.096	-0.059
-561.529	-128.776	-0.104	-0.015
-560.515	-61.505	-0.150	-0.063
-559.500	-200.000	-0.009	-0.208
-558.485	800.000	-0.059	-0.182
-557.471	-94.903	-0.159	0.043
-556.456	-9.250	-0.092	0.061
-555.442	100.916	0.337	0.389
-554.427	77.572	-0.039	0.041
-553.412	213.386	0.205	0.322
-552.398	26.348	-0.089	-0.074
-551.383	31.161	-0.226	0.192
-550.369	245.041	0.214	0.358
-549.354	-200.000	0.297	-0.001
-548.339	150.807	0.246	0.333
-547.325	-2.822	0.051	0.035
-546.310	51.492	0.171	-0.162
-545.296	18.315	0.065	0.052
-544.281	-200.000	-0.039	0.242
-543.266	-70.098	0.201	0.076
-542.252	299.188	-0.078	0.142
-541.237	-63.012	-0.389	-0.160
-540.223	-96.631	-0.102	0.027
-539.208	1.160	0.119	0.085
-538.193	224.344	0.209	-0.336
-537.179	-43.612	0.150	0.075
-536.164	11.447	-0.191	-0.146
-535.150	20.108	-0.313	-0.250
-534.135	-136.664	-0.321	-0.037
-533.121	-200.000	0.015	0.211
-532.106	16.762	-0.118	-0.093
-531.091	-68.664	0.140	0.054
-530.077	-0.523	0.317	-0.223
-529.062	-126.730	-0.324	-0.047
-528.048	-200.000	-0.056	-0.299
-527.033	-200.000	-0.001	-0.197
-526.018	-64.180	-0.136	0.055
-525.004	28.977	-0.471	-0.396
-523.989	85.695	0.199	-0.217
-522.975	-62.503	-0.397	-0.164
-521.960	-123.037	-0.136	-0.022
-520.945	-73.309	-0.047	0.017
-519.931	6.862	0.088	0.065
-518.916	-56.793	0.303	-0.133
-517.902	90.181	0.138	-0.153
-516.887	800.000	0.017	-0.054
-515.872	-118.699	-0.410	0.072
-514.858	-200.000	0.033	0.306
-513.843	164.197	0.092	0.129
-512.829	-200.000	0.099	-0.000
-511.814	800.000	-0.006	-0.025
-510.799	-200.000	-0.114	-0.499
-509.785	157.305	-0.189	0.260
-508.770	-173.503	-0.174	-0.005
-507.756	-132.989	0.175	0.022
-506.741	800.000	-0.032	0.088
-505.726	800.000	-0.025	-0.075
-504.712	-88.068	0.081	-0.024
-503.697	-104.339	-0.150	0.035
-502.683	-200.000	0.013	0.309
-501.668	-200.000	-0.052	0.246
-500.653	80.115	-0.104	-0.111
-499.639	-130.537	0.041	0.005
-498.624	747.992	0.076	0.203
-497.610	-61.164	-0.353	-0.147
-496.595	-89.642	-0.211	0.061
-495.581	1.899	0.106	0.076
-494.566	-29.994	0.163	-0.092
-493.551	-152.895	-0.210	-0.015
-492.537	162.594	-0.049	-0.068
-491.522	167.287	0.074	-0.104
-490.508	-85.383	0.377	0.117
-489.493	405.959	-0.207	0.434
-488.478	12.517	0.134	0.103
-487.464	-200.000	-0.036	-0.170
-486.449	-200.000	0.003	-0.171
-485.435	-42.289	-0.263	-0.133
-484.420	-107.179	0.201	-0.044
-483.405	350.261	0.051	0.099
-482.391	239.401	-0.069	0.113
-481.376	36.380	0.268	-0.234
-480.362	-36.758	-0.152	-0.081
-479.347	-103.446	0.146	0.034
-478.332	-76.089	-0.394	-0.138
-477.318	557.066	0.026	-0.062
-476.303	-100.526	-0.251	0.061
-475.289	151.002	0.256	0.345
-474.274	-179.472	0.090	-0.002
-473.259	-146.417	-0.245	-0.021
-472.245	-39.713	-0.181	-0.094
-471.230	800.000	-0.051	-0.155
-470.216	78.319	0.173	0.182
-469.201	225.187	-0.054	-0.086
-468.186	-12.054	-0.333	-0.216
-467.172	-111.500	-0.109	-0.022
-466.157	15.629	0.378	-0.294
-465.143	514.522	0.173	0.401
-464.128	-135.017	0.384	0.046
-463.113	75.071	-0.172	-0.180
-462.099	-37.979	-0.205	-0.108
-461.084	430.745	0.061	-0.131
-460.070	297.432	-0.094	0.171
-459.055	-200.000	-0.006	0.134
-458.040	9.234	-0.134	0.100
-457.026	290.117	-0.193	0.346
-456.011	-20.004	-0.426	0.260
-454.997	215.603	-0.022	-0.035
-453.982	170.801	0.055	-0.077
-452.968	-200.000	0.040	-0.203
-451.953	-66.013	-0.083	-0.033
-450.938	-59.368	-0.098	0.042
-449.924	143.660	-0.074	-0.097
-448.909	388.944	0.097	-0.198
-447.895	58.691	0.149	0.145
-446.880	-126.934	-0.159	-0.023
-445.865	-70.407	0.312	-0.117
-444.851	800.000	0.022	-0.094
-443.836	-200.000	0.072	-0.326
-442.822	144.336	0.150	0.199
-441.807	-39.555	0.120	-0.062
-440.792	117.884	-0.130	-0.158
-439.778	-129.749	0.171	0.023
-438.763	800.000	0.019	0.065
-437.749	800.000	-0.100	-0.312
-436.734	800.000	0.079	-0.217
-435.719	266.860	-0.020	-0.035
-434.705	-200.000	-0.023	0.179
-433.690	13.530	-0.188	-0.145
-432.676	-200.000	-0.041	0.267
-431.661	-95.611	0.227	0.060
-430.646	-115.717	-0.030	-0.005
-429.632	-200.000	-0.013	0.133
-428.617	-13.868	-0.189	0.121
-427.603	800.000	0.067	-0.201
-426.588	673.469	0.077	0.197
-425.573	-200.000	0.002	0.027
-424.559	557.584	-0.070	0.167
-423.544	-59.515	0.244	-0.104
-422.530	-200.000	-0.001	-0.016
-421.515	4.929	0.270	0.196
-420.500	-2.294	0.148	0.103
-419.486	-179.026	0.234	-0.005
-418.471	800.000	0.063	-0.248
-417.457	241.499	0.171	-0.283
-416.442	7.683	-0.167	-0.124
-415.428	800.000	0.134	0.538
-414.413	-200.000	-0.013	0.186
-413.398	800.000	-0.061	0.210
-412.384	239.764	-0.070	0.115
-411.369	-46.555	0.189	0.091
-410.355	-122.602	-0.364	0.058
-409.340	343.878	-0.135	0.261
-408.325	533.054	-0.072	-0.168
-407.311	-36.078	-0.033	0.018
-406.296	307.613	0.110	0.202
-405.282	264.896	-0.076	0.130
-404.267	223.425	-0.207	0.330
-403.252	-186.389	-0.346	-0.005
-402.238	-26.969	0.133	-0.077
-401.223	-92.177	0.035	0.010
-400.209	14.809	0.193	-0.149
-399.194	-101.442	0.092	0.022
-398.179	-200.000	0.040	-0.334
-397.165	-29.826	-0.119	0.067
-396.150	178.633	0.240	-0.346
-395.136	-200.000	-0.012	0.112
-394.121	-151.789	-0.215	0.016
-393.106	-142.460	-0.159	-0.015
-392.092	800.000	-0.031	-0.099
-391.077	800.000	0.130	-0.499
-390.063	144.032	0.124	-0.163
-389.048	800.000	0.111	-0.378
-388.033	-21.473	-0.059	0.035
-387.019	215.385	-0.097	-0.151
-386.004	-82.200	0.148	-0.047
-384.990	72.381	-0.167	0.172
-383.975	225.261	0.010	-0.015
-382.960	-50.283	-0.287	-0.134
-381.946	-47.245	0.331	-0.159
-380.931	163.089	-0.072	-0.100
-379.917	69.399	0.323	0.328
-378.902	364.240	-0.130	-0.257
-377.888	800.000	0.026	0.080
-376.873	226.818	-0.098	0.156
-375.858	-128.140	0.347	0.049
-374.844	-58.867	0.095	-0.041
-373.829	160.171	-0.125	-0.171
-372.815	-200.000	0.004	0.159
-371.800	-74.747	0.254	-0.090
-370.785	-98.763	0.042	0.011
-369.771	-200.000	-0.003	-0.014
-368.756	-153.155	-0.221	-0.015
-367.742	-200.000	-0.077	0.359
-366.727	-50.349	0.103	0.048
-365.712	-69.988	0.053	-0.020
-364.698	81.924	0.110	0.118
-363.683	-200.000	0.007	0.182
-362.669	-99.160	0.172	-0.043
-361.654	-64.901	-0.228	0.091
-360.639	325.200	-0.145	0.274
-359.625	-48.450	0.331	-0.157
-358.610	-66.982	0.236	-0.092
-357.596	-200.000	0.047	-0.309
-356.581	374.932	-0.062	-0.125
-355.566	-200.000	-0.012	-0.167
-354.552	313.839	0.066	0.122
-353.537	24.001	0.231	-0.188
-352.523	250.882	0.178	-0.298
-351.508	-23.032	-0.378	0.225
-350.493	-200.000	-0.009	-0.071
-349.479	800.000	0.107	-0.302
-348.464	283.349	0.036	-0.064
-347.450	51.660	0.116	-0.108
-346.435	-173.351	-0.179	-0.005
-345.420	211.257	-0.042	-0.065
-344.406	-66.576	0.148	-0.058
-343.391	-40.569	0.475	0.243
-342.377	-30.655	0.211	0.118
-341.362	-52.681	-0.165	0.075
-340.348	800.000	-0.042	0.131
-339.333	-58.396	-0.184	-0.079
-338.318	-50.154	-0.248	-0.116
-337.304	800.000	-0.033	0.092
-336.289	-13.648	-0.124	0.079
-335.275	-200.000	-0.016	-0.081
-334.260	245.172	-0.106	0.175
-333.245	-200.000	0.006	0.124
-332.231	-61.122	-0.187	-0.078
-331.216	286.471	-0.032	-0.057
-330.202	-200.000	0.001	0.138
-329.187	-200.000	-0.054	-0.243
-328.172	-7.534	0.112	-0.074
-327.158	800.000	-0.053	0.225
-326.143	-125.401	0.381	0.057
-325.129	-77.812	-0.205	-0.070
-324.114	-78.798	-0.120	0.040
-323.099	-20.141	-0.319	-0.193
-322.085	11.706	-0.333	-0.252
-321.070	118.913	-0.080	-0.098
-320.056	-58.968	-0.134	0.057
-319.041	86.326	-0.219	-0.238
-318.026	165.958	0.160	0.223
-317.012	208.712	0.025	0.039
-315.997	479.191	-0.043	-0.096
-314.983	-200.000	0.017	-0.223
-313.968	800.000	0.027	0.103
-312.953	-200.000	-0.013	0.060
-311.939	61.992	0.205	0.201
-310.924	109.229	0.354	-0.417
-309.910	81.114	-0.136	-0.145
-308.895	762.061	-0.014	0.038
-307.880	-92.325	-0.323	-0.089
-306.866	453.309	0.203	0.442
-305.851	-200.000	0.018	-0.101
-304.837	-162.550	-0.220	0.011
-303.822	8.813	-0.026	0.019
-302.807	12.603	-0.231	0.176
-301.793	-88.633	-0.326	0.095
-300.778	462.827	0.117	0.257
-299.764	-89.320	-0.425	0.123
-298.749	-200.000	-0.001	-0.006
-297.735	-82.495	0.300	0.096
-296.720	-200.000	-0.035	0.194
-295.705	-36.479	0.324	0.171
-294.691	-1.076	0.056	0.039
-293.676	-200.000	-0.004	0.124
-292.662	166.937	0.130	0.181
-291.647	-68.804	0.245	0.093
-290.632	409.205	0.038	0.078
-289.618	120.392	-0.055	0.067
-288.603	41.471	0.069	0.061
-287.589	504.609	-0.104	0.237
-286.574	-145.966	-0.264	-0.023
-285.559	394.190	-0.094	0.193
-284.545	-200.000	0.032	-0.181
-283.530	-4.778	0.221	0.150
-282.516	-37.354	-0.252	0.132
-281.501	-109.054	0.226	0.047
-280.486	-99.814	-0.357	0.088
-279.472	-7.937	0.178	-0.118
-278.457	127.652	-0.210	-0.262
-277.443	-185.839	0.070	0.001
-276.428	643.258	-0.129	0.323
-275.413	-200.000	-0.007	-0.154
-274.399	133.419	-0.143	-0.181
-273.384	-200.000	0.020	0.221
-272.370	223.484	0.187	0.296
-271.355	-42.771	-0.148	0.074
-270.340	-167.726	-0.054	-0.002
-269.326	-3.447	0.122	0.083
-268.311	800.000	-0.072	0.269
-267.297	586.697	-0.067	0.162
-266.282	-200.000	0.000	0.151
-265.267	-99.389	0.311	-0.077
-264.253	-159.021	-0.637	0.035
-263.238	696.697	-0.045	-0.116
-262.224	-64.047	-0.314	0.126
-261.209	-79.127	0.128	0.043
-260.195	-95.898	-0.327	0.086
-259.180	-48.997	0.323	0.152
-258.165	180.380	0.192	0.276
-257.151	800.000	0.083	0.336
-256.136	648.630	0.042	-0.106
-255.122	165.284	0.140	-0.194
-254.107	-43.059	0.205	-0.102
-253.092	107.576	-0.143	-0.167
-252.078	149.807	0.227	0.302
-251.063	646.608	-0.032	-0.081
-250.049	800.000	0.078	0.300
-249.034	28.870	0.090	-0.075
-248.019	-200.000	0.008	0.170
-247.005	-170.900	0.295	0.010
-245.990	-22.013	-0.030	0.018
-244.976	-110.272	0.125	-0.026
-243.961	266.268	0.118	-0.202
-242.946	674.120	0.137	0.350
-241.932	-200.000	0.019	0.132
-240.917	39.421	0.090	-0.079
-239.903	154.011	-0.111	-0.149
-238.888	-79.829	0.362	0.120
-237.873	-200.000	0.045	-0.321
-236.859	-3.990	0.358	-0.243
-235.844	-29.075	0.184	-0.104
-234.830	16.259	0.127	-0.098
-233.815	-200.000	-0.005	0.359
-232.800	74.257	0.155	0.159
-231.786	-140.332	0.386	-0.040
-230.771	-117.037	0.243	0.043
-229.757	-200.000	0.015	0.164
-228.742	372.958	-0.058	-0.116
-227.727	-200.000	-0.018	-0.246
-226.713	-200.000	0.029	0.253
-225.698	-53.315	0.249	-0.112
-224.684	-90.172	0.159	-0.045
-223.669	-175.465	0.217	-0.006
-222.655	110.322	-0.179	-0.211
-221.640	21.226	0.336	0.268
-220.625	134.634	0.196	0.249
-219.611	-200.000	0.038	-0.214
-218.596	172.864	-0.062	-0.087
-217.582	-32.964	0.068	0.037
-216.567	-200.000	0.002	0.054
-215.552	-200.000	0.049	0.298
-214.538	800.000	0.055	0.196
-213.523	-82.158	0.058	0.019
-212.509	118.026	-0.097	-0.117
-211.494	-32.152	0.147	0.080
-210.479	777.373	-0.072	-0.193
-209.465	-200.000	-0.011	-0.150
-208.450	174.921	0.173	0.245
-207.436	271.240	0.193	-0.334
-206.421	800.000	-0.006	0.019
-205.406	-160.522	0.238	0.012
-204.392	15.449	-0.118	0.090
-203.377	95.393	0.052	0.058
-202.363	-71.426	-0.241	-0.089
-201.348	24.505	-0.089	-0.072
-200.333	-200.000	0.002	-0.074
-199.319	-200.000	0.020	-0.224
-198.304	204.138	0.119	-0.181
-197.290	747.260	-0.134	-0.355
-196.275	-92.228	-0.261	-0.072
-195.260	-3.583	-0.356	0.243
-194.246	249.837	-0.227	0.377
-193.231	140.281	0.103	-0.133
-192.217	4.124	0.183	-0.131
-191.202	171.848	-0.145	0.204
-190.187	73.207	0.022	0.023
-189.173	286.278	0.038	0.068
-188.158	498.299	-0.208	-0.470
-187.144	-200.000	-0.023	-0.105
-186.129	83.928	0.159	-0.170
-185.114	-200.000	0.031	0.180
-184.100	-63.469	0.147	-0.059
-183.085	24.947	-0.101	-0.082
-182.071	-52.020	-0.191	-0.087
-181.056	88.849	0.124	0.136
-180.042	-4.485	0.392	0.265
-179.027	42.262	0.317	0.282
-178.012	-145.248	-0.112	0.010
-176.998	459.070	-0.058	0.126
-175.983	800.000	-0.039	0.162
-174.969	191.461	0.123	-0.182
-173.954	11.844	0.195	-0.147
-172.939	-115.659	-0.335	0.062
-171.925	800.000	0.047	0.179
-170.910	-78.050	0.011	0.004
-169.896	-83.864	-0.238	-0.074
-168.881	4.389	-0.188	0.135
-167.866	800.000	-0.027	0.081
-166.852	100.138	0.070	0.080
-165.837	352.291	-0.042	-0.082
-164.823	155.601	0.177	-0.239
-163.808	-58.559	0.311	-0.132
-162.793	-200.000	0.055	0.308
-161.779	-28.517	0.067	-0.038
-160.764	-167.185	-0.396	0.016
-159.750	-119.608	0.273	-0.046
-158.735	-21.297	0.123	-0.074
-157.720	722.151	-0.069	0.179
-156.706	-9.700	0.399	0.260
-155.691	-116.885	-0.293	0.052
-154.677	-56.646	0.210	-0.091
-153.662	-200.000	-0.021	-0.312
-152.647	-191.408	-0.089	0.001
-151.633	-80.893	-0.259	0.084
-150.618	-97.329	-0.324	0.083
-149.604	-69.610	0.181	0.068
-148.589	-81.258	0.169	0.054
-147.574	103.979	0.103	0.118
-146.560	13.415	-0.118	0.089
-145.545	-126.568	-0.146	0.021
-144.531	800.000	0.085	0.253
-143.516	437.908	0.044	0.095
-142.502	-146.965	-0.073	-0.006
-141.487	-200.000	0.009	0.145
-140.472	-137.177	0.252	-0.028
-139.458	-24.709	-0.283	0.165
-138.443	73.190	-0.156	-0.159
-137.429	-72.752	-0.113	0.041
-136.414	-27.322	0.243	-0.138
-135.399	-200.000	-0.045	-0.213
-134.385	-58.016	0.287	-0.122
-133.370	580.724	-0.135	-0.323
-132.356	-200.000	-0.010	-0.163
-131.341	61.700	0.143	0.140
-130.326	96.692	-0.171	0.191
-129.312	529.829	0.133	-0.308
-128.297	95.350	-0.140	0.156
-127.283	300.246	-0.032	-0.057
-126.268	-111.663	0.197	0.039
-125.253	339.570	-0.105	0.200
-124.239	-33.829	-0.041	-0.022
-123.224	-141.845	0.285	-0.028
-122.210	318.669	0.036	-0.066
-121.195	106.163	-0.258	-0.298
-120.180	118.686	-0.392	0.473
-119.166	690.943	0.113	-0.289
-118.151	-140.391	-0.240	-0.024
-117.137	-0.338	-0.258	-0.179
-116.122	-6.611	-0.077	-0.051
-115.107	-97.925	-0.179	0.045
-114.093	639.450	-0.034	-0.085
-113.078	800.000	0.074	-0.248
-112.064	432.086	-0.087	0.183
-111.049	-200.000	0.028	0.195
-110.034	176.560	0.038	-0.054
-109.020	360.721	0.147	-0.288
-108.005	800.000	0.065	0.204
-106.991	58.356	0.234	0.225
-105.976	-88.557	-0.220	-0.064
-104.962	10.936	0.139	-0.104
-103.947	-94.027	0.277	0.074
-102.932	-200.000	-0.017	0.266
-101.918	-28.776	-0.044	0.024
-100.903	-87.882	-0.403	-0.118
-99.889	-200.000	0.016	-0.192
-98.874	308.117	-0.061	-0.111
-97.859	-171.303	0.209	-0.007
-96.845	503.987	0.224	0.506
-95.830	573.432	0.063	-0.150
-94.816	-88.670	0.095	-0.028
-93.801	103.389	0.166	0.190
-92.786	800.000	0.130	0.529
-91.772	81.352	-0.273	0.288
-90.757	-187.026	-0.153	0.002
-89.743	800.000	0.088	0.358
-88.728	2.746	-0.225	0.159
-87.713	-200.000	0.005	-0.060
-86.699	102.926	-0.118	0.135
-85.684	800.000	-0.126	0.439
-84.670	-13.189	0.436	0.276
-83.655	800.000	-0.052	0.168
-82.640	51.946	-0.366	0.340
-81.626	128.317	-0.089	-0.110
-80.611	-200.000	0.025	-0.348
-79.597	7.056	0.239	-0.174
-78.582	-64.489	-0.149	0.059
-77.567	-96.247	0.365	0.094
-76.553	-87.398	-0.145	0.043
-75.538	-200.000	-0.023	-0.258
-74.524	45.344	-0.003	0.003
-73.509	-35.767	0.205	-0.108
-72.494	-64.763	-0.120	-0.047
-71.480	-73.377	-0.351	-0.125
-70.465	-29.204	0.243	0.136
-69.451	248.714	-0.150	-0.247
-68.436	517.920	-0.039	0.090
-67.422	-14.838	0.370	-0.231
-66.407	31.112	-0.056	-0.047
-65.392	-64.222	-0.220	0.087
-64.378	800.000	-0.097	0.332
-63.363	238.009	-0.166	0.269
-62.349	-200.000	-0.017	-0.096
-61.334	134.991	-0.996	-1.261
-60.319	-18.904	0.973	0.590
-59.305	207.169	-0.649	-0.986
-58.290	380.742	0.821	1.640
-57.276	452.327	0.642	1.384
-56.261	-200.000	120.498	631.293
-55.246	432.382	1524.949	3221.785
-54.232	150.681	2668.809	3532.830
-53.217	97.698	2148.853	2406.298
-52.203	34.755	1678.333	1429.583
-51.188	27.655	1497.543	1227.934
-50.173	25.669	1473.514	1195.004
-49.159	48.496	1542.920	1407.745
-48.144	46.091	1556.792	1403.931
-47.130	27.712	1506.342	1235.333
-46.115	24.850	1490.856	1203.374
-45.100	24.585	1488.056	1199.284
-44.086	24.587	1485.617	1197.289
-43.071	24.556	1483.661	1195.454
-42.057	24.532	1481.828	1193.771
-41.042	24.503	1480.651	1192.582
-40.027	24.544	1479.493	1191.878
-39.013	24.527	1477.722	1190.289
-37.998	24.460	1476.594	1188.884
-36.984	24.502	1474.942	1187.788
-35.969	24.525	1474.072	1187.192
-34.954	24.549	1472.482	1186.026
-33.940	24.429	1471.349	1184.269
-32.925	24.528	1470.161	1183.920
-31.911	24.622	1468.488	1183.147
-30.896	24.650	1467.133	1182.198
-29.881	24.570	1465.851	1180.586
-28.867	24.559	1464.894	1179.701
-27.852	24.566	1463.312	1178.420
-26.838	24.623	1461.991	1177.686
-25.823	24.718	1460.360	1176.951
-24.809	24.593	1459.059	1175.033
-23.794	24.590	1457.439	1173.662
-22.779	24.581	1456.311	1172.650
-21.765	24.589	1455.842	1172.279
-20.750	24.639	1454.089	1171.150
-19.736	24.591	1453.012	1169.922
-18.721	24.539	1452.526	1169.143
-17.706	24.669	1451.094	1168.791
-16.692	24.660	1450.007	1167.810
-15.677	24.700	1448.916	1167.151
-14.663	24.585	1448.049	1165.656
-13.648	24.518	1447.904	1165.053
-12.633	24.490	1446.771	1163.911
-11.619	24.534	1445.633	1163.238
-10.604	24.502	1445.005	1162.478
-9.590	24.602	1443.443	1161.827
-8.575	24.565	1443.531	1161.608
-7.560	24.445	1442.726	1160.139
-6.546	24.602	1441.324	1159.979
-5.531	24.525	1440.967	1159.149
-4.517	24.501	1439.636	1157.875
-3.502	24.566	1438.459	1157.306
-2.487	24.534	1437.718	1156.458
-1.473	24.539	1436.798	1155.700
-0.458	24.554	1435.088	1154.376
0.556	22.610	1425.584	1141.794
1.571	19.425	1401.558	1102.134
2.586	15.929	1340.962	1032.982
3.600	14.248	1259.747	960.641
4.615	13.150	1216.383	921.368
5.629	11.541	1160.070	870.071
6.644	5.681	1080.260	781.004
7.659	0.894	1044.050	731.654
8.673	0.324	1038.712	725.109
9.688	0.131	1035.860	722.127
10.702	0.141	1034.343	721.051
11.717	0.104	1031.777	719.026
12.731	1.998	1033.138	728.962
13.746	8.378	1041.713	765.608
14.761	14.635	1049.424	801.337
15.775	16.907	1051.238	813.565
16.790	16.419	1050.377	810.485
17.804	15.464	1048.446	804.351
18.819	14.623	1046.215	798.547
19.834	14.238	1044.814	795.565
20.848	13.837	1044.477	793.322
21.863	13.794	1043.259	792.123
22.877	13.577	1042.264	790.263
23.892	13.217	1041.915	788.211
24.907	13.232	1040.715	787.305
25.921	13.171	1039.931	786.353
26.936	13.126	1039.986	786.106
27.950	13.269	1038.630	785.696
28.965	13.359	1038.279	785.787
29.980	13.361	1037.090	784.828
30.994	13.365	1036.692	784.473
32.009	13.347	1035.809	783.651
33.023	13.465	1034.825	783.394
34.038	13.450	1034.340	782.887
35.053	13.374	1033.477	781.805
36.067	13.345	1032.587	780.927
37.082	13.327	1031.567	780.005
38.096	13.268	1031.428	779.551
39.111	13.361	1030.276	779.050
40.126	13.372	1029.368	778.344
41.140	13.356	1028.012	777.175
42.155	13.300	1027.116	776.168
43.169	13.301	1026.302	775.489
44.184	13.311	1025.001	774.481
45.199	13.131	1024.213	772.977
46.213	13.175	1023.377	772.485
47.228	13.157	1022.547	771.704
48.242	13.151	1020.917	770.379
49.257	13.298	1020.541	770.711
50.271	13.208	1019.583	769.499
51.286	13.272	1018.619	769.002
52.301	13.405	1017.537	768.734
53.315	13.303	1017.208	767.946
54.330	13.199	1016.477	766.845
55.344	13.253	1015.334	766.162
56.359	13.393	1013.998	765.735
57.374	13.204	1013.457	764.384
58.388	13.216	1012.660	763.771
59.403	13.227	1011.903	763.184
60.417	13.245	1010.958	762.487
61.432	13.077	1010.684	761.439
62.447	13.335	1009.768	761.870
63.461	13.254	1008.891	760.765
64.476	13.306	1007.822	760.132
65.490	13.120	1007.066	758.641
66.505	13.136	1006.267	758.046
67.520	13.203	1005.361	757.601
68.534	13.302	1005.010	757.725
69.549	13.249	1004.381	756.941
70.563	13.288	1003.352	756.277
71.578	13.307	1002.665	755.780
72.593	13.280	1001.861	754.984
73.607	13.074	1001.167	753.452
74.622	13.098	1000.341	752.873
75.636	13.100	999.251	751.996
76.651	13.008	998.711	751.106
77.666	13.121	997.640	750.748
78.680	13.193	996.963	750.498
79.695	13.164	996.186	749.717
80.709	13.203	995.992	749.680
81.724	13.104	995.051	748.454
82.739	13.344	994.182	748.821
83.753	13.269	993.510	747.913
84.768	13.382	992.971	747.947
85.782	13.316	992.219	747.021
86.797	13.441	991.320	746.840
87.812	13.239	990.453	745.211
88.826	13.291	989.999	745.037
89.841	13.313	989.072	744.371
90.855	13.372	987.938	743.720
91.870	13.386	987.319	743.251
92.884	13.417	986.360	742.602
93.899	13.545	985.883	742.752
94.914	13.327	984.961	741.014
95.928	13.472	985.040	741.659
96.943	13.409	984.236	740.702
97.957	13.324	983.263	739.525
98.972	13.342	982.442	738.924
99.987	13.406	981.500	738.434
101.001	13.539	980.142	737.939
102.016	13.421	980.302	737.470
103.030	13.377	979.384	736.519
104.045	13.427	977.854	735.523
105.060	13.331	977.405	734.696
106.074	13.397	976.480	734.230
107.089	13.307	975.918	733.343
108.103	13.290	974.770	732.339
109.118	13.369	973.809	731.903
110.133	13.326	972.863	730.934
111.147	13.285	972.517	730.429
112.162	13.263	971.448	729.466
113.176	13.222	970.858	728.777
114.191	13.433	969.670	728.749
115.206	13.290	968.711	727.336
116.220	13.318	968.088	726.926
117.235	13.291	967.516	726.314
118.249	13.436	966.065	725.795
119.264	13.421	965.587	725.306
120.279	13.387	964.724	724.446
121.293	13.308	963.859	723.389
122.308	13.431	962.780	723.053
123.322	13.269	961.920	721.632
124.337	13.288	961.111	721.046
125.352	13.259	960.283	720.236
126.366	13.241	958.720	718.921
127.381	13.166	958.382	718.278
128.395	13.304	957.093	717.847
129.410	13.183	955.966	716.411
130.424	13.208	954.942	715.690
131.439	13.337	954.013	715.490
132.454	13.323	953.230	714.779
133.468	13.338	952.481	714.218
134.483	13.507	951.887	714.440
135.497	13.474	951.272	713.770
136.512	13.439	950.395	712.900
137.527	13.390	949.888	712.245
138.541	13.335	949.138	711.385
139.556	13.329	948.632	710.914
140.570	13.366	947.492	710.156
141.585	13.383	946.859	709.691
142.600	13.426	946.392	709.464
143.614	13.537	945.368	709.110
144.629	13.497	944.948	708.559
145.643	13.507	944.431	708.151
146.658	13.634	943.371	707.838
147.673	13.456	942.276	706.192
148.687	13.403	941.920	705.639
149.702	13.555	940.314	705.021
150.716	13.449	939.845	704.157
151.731	13.341	939.191	703.145
152.746	13.487	938.187	702.951
153.760	13.354	937.627	701.905
154.775	13.455	936.805	701.654
155.789	13.516	935.980	701.231
156.804	13.598	935.265	700.980
157.819	13.587	934.229	700.096
158.833	13.563	934.022	699.779
159.848	13.657	932.928	699.292
160.862	13.595	932.762	698.845
161.877	13.785	931.578	698.696
162.892	13.686	930.909	697.716
163.906	13.545	929.987	696.373
164.921	13.600	929.204	695.954
165.935	13.594	928.333	695.217
166.950	13.607	927.598	694.656
167.964	13.549	926.683	693.668
168.979	13.667	925.959	693.561
169.994	13.543	925.207	692.418
171.008	13.635	924.185	691.972
172.023	13.602	923.425	691.205
173.037	13.673	922.315	690.610
174.052	13.835	921.470	690.589
175.067	13.778	921.315	690.175
176.081	13.803	920.073	689.289
177.096	13.598	919.624	688.039
178.110	13.743	918.386	687.654
179.125	13.753	918.049	687.383
180.140	13.660	917.301	686.375
181.154	13.581	916.520	685.402
182.169	13.781	915.867	685.683
183.183	13.876	915.146	685.475
184.198	13.782	914.575	684.598
185.213	13.942	913.742	684.575
186.227	13.989	912.977	684.132
187.242	13.956	912.857	683.845
188.256	13.819	912.357	682.846
189.271	13.922	911.356	682.462
190.286	13.926	910.449	681.740
191.300	13.764	910.009	680.683
192.315	13.736	909.181	679.889
193.329	13.701	908.784	679.387
194.344	13.735	907.874	678.789
195.359	13.833	907.131	678.571
196.373	13.796	906.925	678.207
197.388	13.795	906.602	677.902
198.402	14.125	905.313	678.223
199.417	14.048	904.981	677.600
200.432	14.140	904.965	677.903
201.446	14.024	904.527	677.045
202.461	14.143	904.066	677.122
203.475	14.139	903.425	676.568
204.490	14.116	902.847	675.980
205.504	14.130	902.017	675.355
206.519	14.190	901.008	674.786
207.534	14.104	900.852	674.258
208.548	14.101	899.774	673.381
209.563	14.180	898.807	672.918
210.577	14.062	898.608	672.230
211.592	14.097	898.231	672.030
212.607	14.215	897.276	671.733
213.621	14.175	896.934	671.255
214.636	14.242	896.117	670.858
215.650	14.324	895.087	670.356
216.665	14.312	894.898	670.106
217.680	14.370	894.053	669.649
218.694	14.359	893.709	669.286
219.709	14.390	893.466	669.169
220.723	14.350	892.779	668.436
221.738	14.379	892.036	667.937
222.753	14.404	891.054	667.243
223.767	14.420	890.039	666.486
224.782	14.344	889.922	666.038
225.796	14.326	889.063	665.264
226.811	14.392	888.171	664.800
227.826	14.546	887.915	665.165
228.840	14.428	887.315	664.183
229.855	14.594	886.205	663.955
230.869	14.603	885.280	663.240
231.884	14.419	884.993	662.237
232.899	14.548	884.193	662.091
233.913	14.446	883.781	661.319
234.928	14.305	883.475	660.471
235.942	14.533	882.226	660.383
236.957	14.431	881.725	659.545
237.972	14.458	881.218	659.215
238.986	14.638	880.299	659.179
240.001	14.507	879.920	658.322
241.015	14.560	879.005	657.785
242.030	14.493	878.404	657.016
243.045	14.607	877.273	656.560
244.059	14.628	877.227	656.551
245.074	14.711	876.142	656.003
246.088	14.610	875.571	655.123
247.103	14.734	874.932	655.075
248.117	14.673	875.078	654.883
249.132	14.804	874.196	654.679
250.147	14.767	873.688	654.096
251.161	14.931	872.556	653.834
252.176	14.846	872.287	653.241
253.190	14.807	871.622	652.532
254.205	14.828	871.175	652.223
255.220	14.938	870.496	652.084
256.234	14.846	870.054	651.338
257.249	14.805	869.403	650.635
258.263	15.023	868.701	650.897
259.278	15.106	868.086	650.705
260.293	15.014	867.433	649.799
261.307	15.075	866.783	649.490
262.322	15.111	866.113	649.072
263.336	15.125	865.579	648.668
264.351	15.194	864.875	648.348
265.366	15.355	864.205	648.412
266.380	15.035	864.210	647.121
267.395	15.065	863.213	646.435
268.409	15.027	862.705	645.849
269.424	15.148	861.773	645.562
270.439	15.213	861.254	645.367
271.453	15.149	860.346	644.381
272.468	15.268	859.381	644.061
273.482	15.325	858.714	643.720
274.497	15.245	858.311	643.055
275.512	15.133	857.926	642.279
276.526	15.185	856.924	641.673
277.541	15.353	856.303	641.792
278.555	15.259	856.338	641.404
279.570	15.324	855.334	640.843
280.585	15.315	854.681	640.261
281.599	15.565	853.834	640.526
282.614	15.372	853.744	639.664
283.628	15.402	852.649	638.903
284.643	15.451	852.522	638.938
285.657	15.470	851.842	638.442
286.672	15.510	851.389	638.201
287.687	15.456	850.959	637.617
288.701	15.363	850.593	636.931
289.716	15.447	849.655	636.490
290.730	15.442	849.326	636.170
291.745	15.394	848.585	635.379
292.760	15.625	847.982	635.744
293.774	15.528	847.604	635.037
294.789	15.600	847.054	634.841
295.803	15.766	845.982	634.607
296.818	15.754	845.319	634.008
297.833	15.509	845.050	632.826
298.847	15.528	844.439	632.386
299.862	15.415	843.699	631.348
300.876	15.654	843.064	631.716
301.891	15.558	842.401	630.804
302.906	15.704	841.751	630.809
303.920	15.828	840.897	630.580
304.935	15.815	840.164	629.923
305.949	15.814	839.677	629.499
306.964	15.721	839.428	628.910
307.979	15.696	838.826	628.307
308.993	15.777	838.334	628.187
310.008	15.926	837.421	628.004
311.022	15.913	836.820	627.450
312.037	15.817	836.580	626.855
313.052	15.857	836.233	626.690
314.066	15.835	835.125	625.721
315.081	15.791	834.609	625.116
316.095	15.812	834.200	624.832
317.110	15.894	833.600	624.632
318.125	15.900	832.921	624.090
319.139	15.877	832.486	623.624
320.154	15.948	832.269	623.669
321.168	15.908	831.707	623.046
322.183	15.970	831.222	622.856
323.197	16.027	830.392	622.388
324.212	15.962	830.321	622.041
325.227	16.002	829.617	621.606
326.241	16.063	828.715	621.099
327.256	15.965	828.224	620.315
328.270	16.003	827.766	620.057
329.285	16.064	827.089	619.719
330.300	15.958	826.658	618.952
331.314	15.916	826.102	618.328
332.329	15.989	825.619	618.178
333.343	16.138	824.793	618.054
334.358	16.108	824.343	617.552
335.373	16.143	823.770	617.195
336.387	16.034	823.597	616.613
337.402	16.119	822.889	616.339
338.416	16.108	822.332	615.824
339.431	16.191	821.787	615.667
340.446	16.391	820.937	615.705
341.460	16.302	820.399	614.920
342.475	16.384	819.930	614.812
343.489	16.310	819.739	614.345
344.504	16.278	819.293	613.842
345.519	16.429	818.373	613.645
346.533	16.443	817.981	613.348
347.548	16.391	817.363	612.644
348.562	16.317	817.094	612.119
349.577	16.375	816.595	611.901
350.592	16.439	815.884	611.548
351.606	16.263	815.549	610.606
352.621	16.315	815.118	610.415
353.635	16.295	815.020	610.215
354.650	16.451	814.289	610.179
355.665	16.349	813.644	609.271
356.679	16.474	813.313	609.419
357.694	16.346	813.000	608.670
358.708	16.533	812.426	608.862
359.723	16.388	811.930	607.913
360.738	16.540	811.170	607.836
361.752	16.630	810.492	607.600
362.767	16.622	810.097	607.222
363.781	16.637	809.816	607.008
364.796	16.680	809.472	606.854
365.810	16.556	809.279	606.210
366.825	16.817	808.546	606.540
367.840	16.844	808.040	606.203
368.854	16.934	807.801	606.292
369.869	16.714	807.517	605.242
370.883	16.650	806.956	604.538
371.898	16.595	806.973	604.301
372.913	16.767	805.545	603.790
373.927	16.964	804.775	603.861
374.942	16.813	804.314	602.923
375.956	16.738	804.198	602.517
376.971	16.884	803.456	602.429
377.986	16.929	802.923	602.133
379.000	16.940	802.231	601.601
380.015	16.914	802.055	601.324
381.029	17.024	801.203	601.020
382.044	16.935	800.748	600.313
383.059	16.966	800.433	600.131
384.073	17.021	799.898	599.871
385.088	16.955	799.240	599.093
386.102	17.064	798.796	599.091
387.117	16.984	797.869	598.062
388.132	16.823	797.692	597.308
389.146	17.027	797.107	597.535
390.161	17.014	797.336	597.610
391.175	17.041	796.661	597.144
392.190	17.062	796.015	596.682
393.205	17.161	795.724	596.759
394.219	17.104	795.316	596.201
395.234	17.043	795.001	595.697
396.248	17.036	794.199	595.017
397.263	17.153	793.372	594.757
398.278	17.093	793.202	594.366
399.292	16.989	792.914	593.734
400.307	17.132	792.509	593.877
401.321	17.023	792.094	593.132
402.336	17.063	791.685	592.913
403.350	17.054	791.371	592.594
404.365	17.358	790.379	592.861
405.380	17.170	790.521	592.259
406.394	17.174	789.674	591.584
407.409	17.422	789.406	592.197
408.423	17.187	789.431	591.343
409.438	17.345	788.516	591.154
410.453	17.366	788.144	590.897
411.467	17.465	787.677	590.839
412.482	17.576	787.063	590.710
413.496	17.556	786.610	590.248
414.511	17.573	786.003	589.800
415.526	17.414	786.040	589.224
416.540	17.517	785.627	589.219
417.555	17.390	785.342	588.513
418.569	17.427	784.906	588.262
419.584	17.536	784.487	588.275
420.599	17.474	783.844	587.526
421.613	113.853	1295.721	1485.732
422.628	97.719	1370.267	1485.834
