DTS Sentinel unit serial number:	SN413079Multiplexer serial number:	ORYXHardware model number:	OX4-SRSoftware version number:	ORYX F/W v4.00 Oryx Data Collector v3.7.2.0data status	okinstallation	princeton_trtdifferential loss correction	single-endedforward channel	channel 3reverse channel	N/Adate	2019/09/13time	17:40:35forward acquisition time	60.00reverse acquisition time	0.00gamma	496.2192k internal	0.2300k external	0.2300temperature offset calibration	1.0142default loss term (dB/km)	0.3790temperature slope calibration	1.0000multiplexer offset coefficient	1.0000multiplexer slope coefficient	1.0000fibre end	0.00T internal ref (°C)	35.84T ext. ref 1 (°C)	5.34T ext. ref 2 (°C)	29.47length (m)	temperature (°C)	Stokes	anti-Stokes-747.200	800.000	-0.061	-0.241
-746.185	469.203	0.046	0.105
-745.171	800.000	0.067	-0.223
-744.156	133.480	-0.150	0.198
-743.142	29.604	-0.229	0.198
-742.127	286.876	-0.035	0.065
-741.112	-118.929	0.181	0.032
-740.098	-200.000	-0.011	0.152
-739.083	-119.733	0.105	-0.018
-738.069	115.935	0.093	0.116
-737.054	49.513	-0.323	-0.310
-736.039	-200.000	0.030	0.205
-735.025	-23.840	0.228	-0.139
-734.010	322.323	0.138	0.268
-732.996	-177.989	-0.187	-0.005
-731.981	-200.000	-0.002	0.132
-730.966	15.848	0.209	-0.168
-729.952	-14.410	-0.327	-0.215
-728.937	-139.328	-0.230	-0.025
-727.923	800.000	0.052	-0.184
-726.908	-154.665	-0.241	0.016
-725.894	-200.000	-0.045	-0.272
-724.879	53.358	-0.119	-0.117
-723.864	-200.000	-0.099	0.534
-722.850	-85.749	-0.256	-0.081
-721.835	522.689	-0.153	0.366
-720.821	216.533	0.057	0.092
-719.806	-76.885	0.147	-0.052
-718.791	-98.274	-0.140	-0.037
-717.777	800.000	0.037	-0.162
-716.762	197.091	-0.093	0.144
-715.748	30.417	0.224	-0.195
-714.733	313.167	0.049	0.094
-713.718	-71.667	-0.242	0.092
-712.704	800.000	0.048	-0.195
-711.689	-67.278	-0.088	0.035
-710.675	-162.083	-0.202	-0.010
-709.660	800.000	0.038	-0.165
-708.645	-200.000	-0.086	-0.580
-707.631	-26.185	0.445	0.266
-706.616	181.906	-0.069	0.104
-705.602	-29.800	-0.246	0.143
-704.587	163.506	-0.070	0.101
-703.572	582.175	0.057	-0.142
-702.558	800.000	0.134	-0.429
-701.543	-80.538	-0.081	-0.028
-700.529	-200.000	0.027	0.223
-699.514	109.982	-0.209	-0.255
-698.499	-28.647	0.188	-0.110
-697.485	800.000	0.020	0.062
-696.470	-128.980	0.144	0.021
-695.456	3.720	0.173	0.128
-694.441	-200.000	-0.002	-0.036
-693.426	5.193	-0.116	-0.087
-692.412	-200.000	0.011	0.339
-691.397	-200.000	-0.009	-0.183
-690.383	195.441	0.161	-0.249
-689.368	-8.964	0.076	-0.052
-688.354	-200.000	0.011	-0.096
-687.339	-59.125	0.056	0.024
-686.324	17.682	0.316	-0.256
-685.310	-200.000	-0.006	0.273
-684.295	800.000	0.071	-0.255
-683.281	-70.418	-0.169	0.065
-682.266	152.664	-0.237	-0.329
-681.251	23.324	0.160	-0.133
-680.237	-200.000	-0.022	0.275
-679.222	-21.058	0.193	-0.120
-678.208	-200.000	-0.009	0.158
-677.193	-200.000	-0.032	0.196
-676.178	57.991	-0.112	0.111
-675.164	-83.334	0.147	-0.048
-674.149	-24.822	0.206	-0.125
-673.135	210.176	0.143	0.228
-672.120	38.086	0.216	0.195
-671.105	-69.265	0.156	-0.061
-670.091	82.083	-0.204	0.225
-669.076	-165.934	0.258	-0.011
-668.062	-136.737	0.230	-0.027
-667.047	-200.000	0.002	0.039
-666.032	-200.000	-0.014	-0.062
-665.018	104.863	-0.097	0.117
-664.003	-6.627	-0.257	0.178
-662.989	-70.024	0.279	0.108
-661.974	800.000	0.033	-0.111
-660.959	-200.000	0.009	0.240
-659.945	284.394	0.108	0.197
-658.930	-18.124	-0.122	-0.078
-657.916	486.934	-0.074	0.172
-656.901	60.502	-0.071	-0.071
-655.886	104.689	0.166	0.199
-654.872	800.000	-0.021	0.081
-653.857	-51.784	0.106	-0.050
-652.843	-180.793	0.238	0.005
-651.828	-200.000	0.012	-0.072
-650.814	319.166	0.122	0.235
-649.799	626.118	-0.063	-0.162
-648.784	-53.045	0.115	0.054
-647.770	-162.769	-0.290	0.014
-646.755	-142.452	-0.287	0.029
-645.741	724.108	0.086	-0.232
-644.726	114.509	0.069	-0.085
-643.711	-117.415	-0.199	0.037
-642.697	-131.583	0.163	-0.022
-641.682	-39.176	-0.219	-0.117
-640.668	-145.894	-0.378	-0.034
-639.653	308.642	0.146	-0.277
-638.638	-48.133	-0.196	-0.096
-637.624	78.625	-0.163	-0.177
-636.609	-168.470	0.264	0.010
-635.595	-5.161	-0.136	-0.095
-634.580	-200.000	-0.060	0.276
-633.565	-200.000	-0.016	-0.143
-632.551	-200.000	-0.033	0.418
-631.536	23.952	0.146	0.123
-630.522	62.248	-0.335	-0.340
-629.507	-140.430	-0.288	0.030
-628.492	42.505	0.055	-0.051
-627.478	-200.000	0.015	0.211
-626.463	526.912	-0.032	0.077
-625.449	-63.348	-0.335	0.140
-624.434	-200.000	0.003	-0.133
-623.419	382.939	-0.064	0.133
-622.405	367.373	0.041	0.083
-621.390	250.275	0.102	-0.176
-620.376	10.276	0.134	-0.104
-619.361	-6.670	-0.058	-0.040
-618.346	94.608	-0.077	0.088
-617.332	-200.000	-0.000	-0.299
-616.317	800.000	0.024	0.072
-615.303	-118.105	-0.152	0.028
-614.288	665.515	0.043	-0.112
-613.273	94.099	0.044	0.050
-612.259	800.000	-0.029	-0.108
-611.244	491.407	-0.113	0.263
-610.230	43.810	-0.290	0.269
-609.215	-100.476	-0.217	-0.054
-608.201	-25.263	0.158	0.095
-607.186	35.635	0.171	0.152
-606.171	-128.247	-0.237	0.034
-605.157	-38.152	0.257	-0.138
-604.142	-200.000	-0.018	-0.205
-603.128	-200.000	0.013	-0.214
-602.113	-100.168	-0.059	-0.015
-601.098	-147.106	-0.261	-0.023
-600.084	-200.000	0.004	0.046
-599.069	-58.590	0.226	-0.099
-598.055	-0.209	0.327	0.236
-597.040	91.970	-0.116	0.133
-596.025	-150.093	-0.126	-0.010
-595.011	252.504	-0.055	0.096
-593.996	-100.725	0.421	-0.105
-592.982	556.970	-0.017	0.041
-591.967	149.550	-0.128	0.175
-590.952	-129.662	-0.292	0.041
-589.938	-28.386	0.277	0.162
-588.923	-200.000	-0.033	-0.354
-587.909	-89.682	-0.235	-0.070
-586.894	-200.000	0.026	-0.284
-585.879	-200.000	0.030	-0.219
-584.865	582.330	-0.049	0.122
-583.850	-1.233	-0.112	-0.080
-582.836	34.996	-0.121	-0.107
-581.821	116.082	0.074	-0.092
-580.806	-72.631	0.429	-0.160
-579.792	395.540	-0.069	-0.147
-578.777	-200.000	-0.014	-0.131
-577.763	-93.815	-0.180	-0.050
-576.748	-200.000	0.017	0.295
-575.733	272.712	-0.047	0.085
-574.719	200.572	-0.201	-0.313
-573.704	-136.994	0.302	0.035
-572.690	800.000	-0.022	0.079
-571.675	131.018	0.113	-0.147
-570.661	116.585	-0.056	0.070
-569.646	-99.489	0.162	-0.041
-568.631	34.315	0.254	-0.224
-567.617	-200.000	-0.002	-0.018
-566.602	31.673	-0.089	-0.078
-565.588	-82.671	-0.516	0.169
-564.573	-78.230	0.169	0.059
-563.558	-83.628	-0.068	0.022
-562.544	-200.000	-0.040	0.225
-561.529	-16.665	-0.318	-0.204
-560.515	166.109	-0.029	-0.041
-559.500	800.000	0.017	-0.052
-558.485	800.000	0.086	0.247
-557.471	243.705	0.277	0.471
-556.456	176.283	-0.057	-0.084
-555.442	-192.263	0.337	-0.003
-554.427	-200.000	-0.047	0.259
-553.412	800.000	-0.130	-0.424
-552.398	-52.481	0.243	-0.114
-551.383	-200.000	0.045	-0.254
-550.369	-200.000	-0.186	-0.000
-549.354	-96.454	0.172	-0.046
-548.339	-12.553	0.124	-0.082
-547.325	169.739	0.142	0.205
-546.310	-200.000	0.032	-0.190
-545.296	205.683	0.050	-0.078
-544.281	-151.464	0.241	0.018
-543.266	157.313	-0.136	0.190
-542.252	252.957	-0.065	-0.112
-541.237	-119.647	-0.223	-0.039
-540.223	-200.000	-0.035	-0.227
-539.208	-95.074	0.307	-0.084
-538.193	-200.000	0.008	0.097
-537.179	349.907	-0.089	-0.177
-536.164	582.691	-0.025	0.062
-535.150	-200.000	0.086	-0.457
-534.135	-163.882	0.169	-0.008
-533.121	800.000	0.017	-0.064
-532.106	-58.445	-0.213	-0.094
-531.091	-31.011	0.136	0.078
-530.077	732.651	-0.100	-0.272
-529.062	-200.000	-0.007	0.261
-528.048	51.130	-0.274	0.262
-527.033	435.407	-0.094	-0.206
-526.018	-105.782	0.027	0.006
-525.004	-200.000	0.002	-0.192
-523.989	259.946	0.156	0.272
-522.975	-85.705	0.457	0.143
-521.960	59.694	0.026	0.026
-520.945	13.059	0.084	-0.066
-519.931	-122.765	-0.154	-0.025
-518.916	18.562	0.142	-0.115
-517.902	-200.000	-0.003	-0.060
-516.887	-183.349	0.293	-0.005
-515.872	-200.000	0.042	0.422
-514.858	-10.051	0.377	0.253
-513.843	800.000	-0.047	-0.204
-512.829	142.240	-0.167	0.224
-511.814	45.409	-0.046	0.043
-510.799	-200.000	-0.066	-0.377
-509.785	-200.000	-0.009	0.093
-508.770	-200.000	-0.030	-0.494
-507.756	-200.000	-0.020	-0.132
-506.741	-13.764	-0.335	0.219
-505.726	-127.405	-0.230	0.034
-504.712	226.460	0.092	-0.150
-503.697	177.495	-0.229	0.337
-502.683	242.406	-0.128	0.217
-501.668	-200.000	-0.021	0.170
-500.653	-146.498	0.315	-0.028
-499.639	-6.434	-0.303	-0.209
-498.624	-49.536	-0.325	0.156
-497.610	-200.000	0.009	0.111
-496.595	58.386	0.147	0.146
-495.581	60.709	0.206	0.206
-494.566	18.540	0.218	-0.176
-493.551	94.218	-0.231	0.265
-492.537	-200.000	0.050	-0.275
-491.522	-200.000	-0.019	-0.147
-490.508	-200.000	-0.017	0.097
-489.493	-200.000	-0.019	-0.104
-488.478	-93.497	-0.225	0.063
-487.464	-200.000	-0.015	0.095
-486.449	574.410	-0.074	0.183
-485.435	-58.744	-0.152	-0.067
-484.420	-63.004	-0.227	0.095
-483.405	-163.718	0.323	0.015
-482.391	278.983	0.048	0.086
-481.376	88.167	-0.106	0.119
-480.362	800.000	0.025	-0.087
-479.347	-153.024	0.114	-0.008
-478.332	33.324	-0.035	0.031
-477.318	378.740	-0.128	0.264
-476.303	-14.782	0.352	0.228
-475.289	91.610	-0.147	0.166
-474.274	-200.000	-0.017	-0.108
-473.259	80.990	0.154	0.168
-472.245	800.000	-0.041	0.151
-471.230	702.557	-0.046	-0.123
-470.216	-200.000	-0.089	-0.408
-469.201	206.977	0.136	0.214
-468.186	-200.000	-0.025	0.402
-467.172	-22.862	-0.211	0.128
-466.157	328.417	0.272	-0.528
-465.143	-200.000	0.007	-0.360
-464.128	-107.394	-0.005	0.001
-463.113	695.933	0.126	-0.335
-462.099	800.000	0.072	0.312
-461.084	-38.435	-0.137	-0.073
-460.070	800.000	-0.082	-0.236
-459.055	800.000	-0.047	-0.136
-458.040	-200.000	-0.017	-0.209
-457.026	98.932	-0.050	0.058
-456.011	-200.000	-0.039	0.197
-454.997	416.428	0.032	0.069
-453.982	99.473	0.108	0.126
-452.968	43.043	0.202	0.186
-451.953	-22.182	0.062	-0.038
-450.938	-200.000	0.048	0.251
-449.924	800.000	0.041	0.165
-448.909	800.000	0.039	-0.148
-447.895	462.797	-0.079	-0.179
-446.880	800.000	-0.014	-0.060
-445.865	-30.170	0.215	0.123
-444.851	-9.011	-0.075	-0.051
-443.836	241.574	-0.067	-0.113
-442.822	-67.122	0.087	0.034
-441.807	-45.736	-0.104	0.052
-440.792	377.436	0.040	-0.083
-439.778	22.916	0.187	-0.155
-438.763	-168.352	0.318	0.012
-437.749	138.640	-0.100	-0.133
-436.734	384.762	-0.056	-0.116
-435.719	-73.361	0.132	-0.048
-434.705	-116.569	-0.204	0.038
-433.690	135.299	0.144	0.189
-432.676	53.799	-0.203	0.196
-431.661	-97.926	-0.380	-0.099
-430.646	80.026	0.053	-0.058
-429.632	-200.000	0.018	0.211
-428.617	-144.612	0.063	0.006
-427.603	748.068	0.039	0.106
-426.588	5.749	-0.166	0.124
-425.573	-129.907	-0.196	-0.027
-424.559	800.000	-0.112	-0.331
-423.544	-200.000	-0.008	-0.408
-422.530	-73.409	-0.133	0.049
-421.515	-200.000	-0.031	-0.164
-420.500	56.205	-0.196	0.192
-419.486	-200.000	0.000	0.268
-418.471	800.000	0.089	-0.304
-417.457	-200.000	-0.070	-0.353
-416.442	74.332	0.124	0.132
-415.428	164.399	-0.245	-0.348
-414.413	-200.000	-0.002	-0.198
-413.398	44.949	0.118	0.110
-412.384	-135.942	0.168	0.020
-411.369	-96.049	-0.121	0.032
-410.355	99.676	0.110	0.128
-409.340	-13.472	-0.112	-0.073
-408.325	-145.562	-0.124	0.011
-407.311	-58.367	-0.363	0.159
-406.296	327.666	0.038	-0.073
-405.282	800.000	0.079	-0.282
-404.267	-200.000	0.053	-0.251
-403.252	-104.416	-0.200	-0.047
-402.238	-105.395	-0.276	-0.063
-401.223	-200.000	0.024	0.194
-400.209	93.017	0.073	-0.084
-399.194	-27.616	-0.128	-0.075
-398.179	32.211	0.240	0.208
-397.165	-114.500	0.113	-0.022
-396.150	-200.000	-0.026	-0.127
-395.136	-200.000	-0.024	-0.236
-394.121	-26.912	0.245	-0.144
-393.106	529.925	0.054	-0.128
-392.092	-200.000	0.000	0.003
-391.077	-29.151	-0.048	-0.028
-390.063	85.747	0.190	-0.210
-389.048	-200.000	0.036	-0.165
-388.033	205.009	0.139	0.216
-387.019	-147.797	0.234	-0.020
-386.004	-93.282	0.241	-0.067
-384.990	-83.438	-0.055	0.018
-383.975	-5.871	0.072	-0.050
-382.960	-149.225	-0.192	0.015
-381.946	-32.119	-0.267	0.150
-380.931	-200.000	0.006	-0.335
-379.917	103.136	0.150	-0.176
-378.902	138.598	0.149	0.196
-377.888	365.033	-0.047	0.095
-376.873	126.549	-0.149	0.189
-375.858	445.265	-0.069	-0.151
-374.844	238.285	0.162	0.271
-373.829	-176.623	0.312	0.008
-372.815	-98.538	-0.112	-0.029
-371.800	27.231	0.168	-0.141
-370.785	-200.000	-0.003	-0.020
-369.771	-200.000	-0.038	-0.295
-368.756	800.000	-0.059	-0.171
-367.742	-77.239	-0.182	0.064
-366.727	-46.233	0.458	-0.227
-365.712	64.575	-0.135	0.137
-364.698	-137.092	0.106	-0.012
-363.683	-200.000	-0.053	-0.267
-362.669	247.586	-0.200	-0.340
-361.654	800.000	0.035	-0.141
-360.639	-200.000	-0.030	0.429
-359.625	249.997	0.070	0.119
-358.610	123.455	-0.140	0.176
-357.596	-0.152	0.259	0.185
-356.581	329.972	0.039	0.075
-355.566	226.524	0.076	-0.123
-354.552	-161.737	0.382	-0.020
-353.537	-200.000	0.010	0.055
-352.523	27.270	-0.122	-0.103
-351.508	-200.000	-0.045	0.202
-350.493	296.424	-0.049	-0.091
-349.479	-200.000	0.037	-0.168
-348.464	-200.000	-0.000	-0.013
-347.450	-56.860	-0.237	0.105
-346.435	121.893	-0.162	0.203
-345.420	-200.000	0.005	-0.124
-344.406	556.443	-0.048	-0.115
-343.391	405.377	0.110	-0.233
-342.377	-38.248	0.414	0.220
-341.362	-139.654	-0.353	-0.038
-340.348	487.925	-0.087	0.199
-339.333	-200.000	0.062	0.334
-338.318	-59.812	-0.184	0.079
-337.304	34.616	0.144	-0.126
-336.289	800.000	-0.076	-0.275
-335.275	62.836	-0.049	-0.049
-334.260	238.582	0.049	0.082
-333.245	95.261	0.182	0.209
-332.231	-9.847	-0.305	0.204
-331.216	-105.799	0.107	0.024
-330.202	-110.374	-0.241	-0.050
-329.187	-4.936	0.280	-0.194
-328.172	319.095	-0.082	0.157
-327.158	800.000	0.055	0.161
-326.143	800.000	-0.047	0.164
-325.129	800.000	0.106	0.409
-324.114	800.000	0.140	0.394
-323.099	-2.745	0.066	-0.046
-322.085	-5.490	0.317	-0.218
-321.070	-69.463	0.213	-0.082
-320.056	191.912	0.060	-0.091
-319.041	-20.298	-0.080	0.050
-318.026	-200.000	-0.045	0.366
-317.012	161.229	0.060	-0.084
-315.997	800.000	0.018	0.079
-314.983	-200.000	0.082	-0.448
-313.968	381.642	0.086	0.177
-312.953	-134.269	0.215	-0.026
-311.939	41.727	-0.164	-0.149
-310.924	-49.254	0.202	0.097
-309.910	43.821	-0.251	0.231
-308.895	-200.000	0.011	0.233
-307.880	428.559	0.082	0.177
-306.866	-96.325	-0.205	-0.054
-305.851	-115.456	-0.140	-0.026
-304.837	-144.471	0.309	0.029
-303.822	800.000	-0.094	0.328
-302.807	-107.823	0.266	-0.058
-301.793	28.839	0.159	-0.135
-300.778	-107.924	0.190	-0.041
-299.764	-200.000	0.001	0.143
-298.749	-64.098	-0.032	0.013
-297.735	165.931	-0.179	-0.253
-296.720	-84.736	0.481	0.152
-295.705	394.624	0.090	0.187
-294.691	-184.086	-0.193	-0.003
-293.676	-122.010	0.089	-0.015
-292.662	-158.609	0.381	0.022
-291.647	-157.920	-0.162	-0.010
-290.632	-103.385	0.277	-0.065
-289.618	-46.841	0.160	-0.079
-288.603	33.297	-0.102	0.089
-287.589	-52.553	-0.120	-0.056
-286.574	-128.138	-0.256	-0.037
-285.559	378.722	0.131	-0.268
-284.545	107.085	0.270	-0.321
-283.530	0.983	-0.294	-0.211
-282.516	-23.725	0.035	0.021
-281.501	53.763	0.129	0.124
-280.486	152.339	-0.227	0.310
-279.472	800.000	-0.121	0.334
-278.457	800.000	-0.086	0.298
-277.443	-53.288	0.094	-0.043
-276.428	-131.780	-0.120	0.016
-275.413	-67.647	-0.211	-0.083
-274.399	128.313	0.078	-0.100
-273.384	-200.000	0.022	-0.240
-272.370	800.000	0.072	-0.298
-271.355	220.432	-0.038	0.061
-270.340	92.207	0.154	0.173
-269.326	118.598	-0.109	-0.135
-268.311	530.107	-0.082	0.195
-267.297	-29.728	0.208	0.119
-266.282	-200.000	0.027	0.199
-265.267	4.515	0.191	-0.140
-264.253	-53.520	0.150	-0.069
-263.238	243.844	-0.129	0.217
-262.224	123.500	0.104	0.131
-261.209	-112.118	-0.189	0.038
-260.195	17.786	-0.412	0.328
-259.180	159.154	0.092	-0.128
-258.165	-45.218	-0.277	0.138
-257.151	-200.000	0.023	0.112
-256.136	-127.716	-0.106	-0.015
-255.122	-1.906	0.099	-0.070
-254.107	-99.023	-0.147	-0.037
-253.092	32.742	-0.245	-0.212
-252.078	-110.320	0.305	-0.064
-251.063	800.000	0.112	-0.364
-250.049	74.419	-0.035	0.036
-249.034	-138.721	-0.027	-0.003
-248.019	22.754	0.099	0.081
-247.005	365.391	-0.073	-0.148
-245.990	-36.767	0.112	0.060
-244.976	265.663	-0.157	0.273
-243.961	-136.488	0.075	-0.009
-242.946	-10.536	-0.081	0.053
-241.932	183.679	0.118	0.174
-240.917	-20.231	0.364	-0.224
-239.903	23.845	-0.330	-0.272
-238.888	25.982	-0.122	-0.102
-237.873	357.969	-0.266	0.531
-236.859	-200.000	-0.006	0.037
-235.844	-83.687	-0.446	-0.142
-234.830	332.407	0.117	-0.225
-233.815	511.554	0.059	-0.137
-232.800	-9.026	0.377	0.252
-231.786	-31.545	-0.134	0.075
-230.771	-102.942	-0.352	0.083
-229.757	-142.671	-0.227	0.022
-228.742	371.861	0.195	0.396
-227.727	28.809	0.086	-0.073
-226.713	393.292	0.078	-0.163
-225.698	287.883	0.047	0.084
-224.684	-81.132	0.079	-0.026
-223.669	-200.000	-0.012	0.139
-222.655	-7.808	-0.074	-0.050
-221.640	-68.274	-0.381	-0.148
-220.625	7.211	-0.149	0.111
-219.611	72.874	0.058	-0.060
-218.596	-118.999	-0.224	-0.039
-217.582	-200.000	-0.053	-0.294
-216.567	28.745	0.102	-0.087
-215.552	-200.000	0.018	-0.104
-214.538	0.451	0.258	0.184
-213.523	64.706	-0.154	0.155
-212.509	800.000	-0.103	-0.323
-211.494	-81.706	0.207	-0.068
-210.479	-44.345	-0.328	0.164
-209.465	-200.000	-0.002	-0.153
-208.450	368.365	0.057	-0.114
-207.436	-200.000	0.023	-0.291
-206.421	-143.342	-0.129	0.012
-205.406	120.860	-0.080	0.099
-204.392	-103.355	0.266	-0.063
-203.377	-200.000	-0.087	0.387
-202.363	-200.000	0.018	0.192
-201.348	-88.860	-0.164	0.049
-200.333	83.287	0.226	0.245
-199.319	-200.000	0.049	0.386
-198.304	-35.828	0.197	0.107
-197.290	315.652	0.116	-0.219
-196.275	-132.409	0.158	0.020
-195.260	-122.942	0.410	0.066
-194.246	244.302	0.136	0.229
-193.231	-162.973	0.272	-0.013
-192.217	793.184	-0.045	-0.122
-191.202	-15.905	0.046	-0.029
-190.187	-200.000	0.041	0.241
-189.173	-110.425	-0.075	-0.016
-188.158	-85.199	0.041	0.013
-187.144	-35.376	-0.149	0.081
-186.129	21.781	-0.227	0.185
-185.114	7.861	0.311	0.233
-184.100	-200.000	0.038	-0.169
-183.085	248.881	0.040	-0.067
-182.071	10.165	0.016	0.012
-181.056	-99.413	-0.136	0.034
-180.042	27.766	0.160	0.134
-179.027	106.611	0.039	-0.046
-178.012	-59.646	0.050	0.022
-176.998	514.622	-0.126	0.293
-175.983	-200.000	0.021	0.171
-174.969	-141.278	-0.107	0.011
-173.954	-200.000	-0.006	-0.126
-172.939	-49.859	-0.137	-0.065
-171.925	770.585	0.046	-0.125
-170.910	32.836	0.215	-0.185
-169.896	36.701	-0.237	0.209
-168.881	-71.949	0.209	-0.078
-167.866	-200.000	-0.030	0.166
-166.852	-52.498	-0.169	-0.078
-165.837	-175.870	0.166	-0.004
-164.823	12.367	0.106	-0.082
-163.808	104.051	-0.389	-0.456
-162.793	-150.146	-0.281	-0.022
-161.779	-110.254	-0.077	0.016
-160.764	-21.698	-0.199	0.121
-159.750	-29.194	0.044	0.025
-158.735	209.399	0.102	0.160
-157.720	33.561	0.158	0.136
-156.706	-65.127	0.104	-0.042
-155.691	250.568	0.069	0.117
-154.677	-89.931	0.284	-0.083
-153.662	13.659	-0.073	-0.056
-152.647	-94.055	-0.093	-0.025
-151.633	-200.000	0.011	0.166
-150.618	-200.000	0.041	-0.208
-149.604	-9.237	-0.160	-0.107
-148.589	354.227	0.030	0.059
-147.574	61.859	-0.093	0.092
-146.560	-43.864	-0.124	0.062
-145.545	800.000	-0.110	0.317
-144.531	-167.694	-0.046	0.002
-143.516	-145.762	-0.279	0.025
-142.502	83.609	0.175	-0.190
-141.487	25.625	-0.234	0.194
-140.472	134.310	0.043	-0.056
-139.458	268.477	0.238	-0.416
-138.443	800.000	-0.064	0.196
-137.429	-163.984	0.208	-0.010
-136.414	-200.000	-0.003	0.164
-135.399	-200.000	0.018	-0.113
-134.385	-162.882	-0.181	0.009
-133.370	-200.000	-0.029	0.242
-132.356	-200.000	-0.014	-0.095
-131.341	87.258	-0.339	-0.373
-130.326	190.360	0.216	0.322
-129.312	17.832	-0.216	-0.171
-128.297	213.813	0.079	-0.124
-127.283	-12.216	0.123	-0.080
-126.268	-98.484	-0.405	-0.103
-125.253	206.800	-0.084	0.130
-124.239	-200.000	0.005	-0.114
-123.224	-74.002	0.270	-0.098
-122.210	-200.000	0.000	-0.141
-121.195	-200.000	-0.038	0.201
-120.180	232.635	0.067	0.109
-119.166	-146.102	0.106	-0.009
-118.151	800.000	-0.016	-0.056
-117.137	800.000	0.043	0.139
-116.122	-200.000	-0.057	0.399
-115.107	800.000	-0.036	-0.154
-114.093	314.453	-0.082	-0.154
-113.078	-98.157	-0.081	0.021
-112.064	-26.151	-0.221	-0.129
-111.049	307.860	-0.153	-0.284
-110.034	381.641	0.092	0.188
-109.020	-94.025	0.132	0.036
-108.005	-32.412	0.200	0.111
-106.991	65.112	0.080	0.081
-105.976	-92.520	-0.110	-0.031
-104.962	282.836	0.100	-0.178
-103.947	-131.567	0.101	0.013
-102.932	36.917	-0.112	-0.098
-101.918	-29.569	-0.189	0.108
-100.903	-94.700	0.107	0.029
-99.889	208.540	0.185	-0.287
-98.874	111.345	0.237	-0.284
-97.859	-14.172	-0.214	0.137
-96.845	-14.821	-0.197	0.125
-95.830	45.356	0.137	-0.125
-94.816	-29.402	-0.142	-0.081
-93.801	33.296	0.148	-0.128
-92.786	242.250	-0.093	-0.155
-91.772	397.935	-0.067	-0.140
-90.757	-200.000	-0.010	0.107
-89.743	525.968	0.027	-0.062
-88.728	800.000	-0.038	0.115
-87.713	-109.047	-0.155	-0.033
-86.699	394.101	-0.090	0.186
-85.684	532.857	-0.052	0.122
-84.670	129.102	-0.205	-0.260
-83.655	-200.000	0.010	-0.373
-82.640	79.985	-0.079	0.084
-81.626	-200.000	-0.061	0.338
-80.611	81.361	-0.329	0.353
-79.597	282.989	0.057	-0.103
-78.582	132.298	0.055	0.070
-77.567	-200.000	-0.018	0.156
-76.553	-76.784	-0.217	-0.076
-75.538	-104.963	-0.160	0.037
-74.524	-161.519	-0.072	-0.004
-73.509	49.305	-0.116	-0.109
-72.494	-109.356	0.189	0.040
-71.480	-95.265	0.115	0.031
-70.465	-200.000	-0.017	0.112
-69.451	-200.000	0.000	0.234
-68.436	-147.886	-0.133	0.011
-67.422	-188.844	-0.058	-0.001
-66.407	-200.000	0.005	0.061
-65.392	-200.000	-0.043	-0.321
-64.378	-153.486	0.315	0.022
-63.363	373.716	0.114	0.230
-62.349	800.000	-0.056	0.189
-61.334	140.908	-0.771	-1.012
-60.319	-200.000	0.117	0.515
-59.305	800.000	-0.300	-0.884
-58.290	145.604	0.710	0.945
-57.276	800.000	0.510	1.634
-56.261	-200.000	94.767	562.962
-55.246	625.329	1383.849	3465.294
-54.232	186.265	2596.807	3835.684
-53.217	122.604	2208.642	2741.918
-52.203	46.342	1742.662	1603.772
-51.188	38.989	1551.717	1376.692
-50.173	36.386	1524.573	1334.589
-49.159	54.815	1574.114	1507.791
-48.144	58.503	1592.801	1551.514
-47.130	39.354	1548.832	1376.463
-46.115	36.057	1533.502	1339.910
-45.100	35.883	1530.205	1335.765
-44.086	35.864	1527.977	1333.635
-43.071	35.807	1525.863	1331.345
-42.057	35.732	1524.695	1329.755
-41.042	35.800	1523.311	1328.966
-40.027	35.802	1521.608	1327.437
-39.013	35.844	1519.931	1326.211
-37.998	35.828	1518.720	1324.996
-36.984	35.785	1517.997	1324.014
-35.969	35.817	1516.386	1322.778
-34.954	35.826	1514.966	1321.550
-33.940	35.833	1513.308	1320.093
-32.925	35.838	1511.976	1318.913
-31.911	35.823	1511.029	1317.935
-30.896	35.996	1509.150	1317.429
-29.881	35.938	1508.738	1316.617
-28.867	35.931	1506.770	1314.800
-27.852	35.924	1505.510	1313.604
-26.838	35.951	1503.582	1312.049
-25.823	35.932	1502.220	1310.685
-24.809	35.769	1501.063	1308.515
-23.794	35.860	1499.302	1307.545
-22.779	35.894	1498.374	1306.911
-21.765	35.831	1497.330	1305.521
-20.750	35.897	1495.868	1304.641
-19.736	35.934	1494.756	1303.873
-18.721	35.810	1493.810	1302.159
-17.706	35.787	1492.956	1301.202
-16.692	35.917	1491.543	1300.796
-15.677	35.810	1490.577	1299.185
-14.663	35.853	1489.055	1298.094
-13.648	35.845	1488.558	1297.556
-12.633	35.825	1487.445	1296.399
-11.619	35.886	1486.359	1295.811
-10.604	35.778	1485.801	1294.544
-9.590	35.725	1485.342	1293.740
-8.575	35.783	1484.332	1293.200
-7.560	35.721	1483.517	1292.022
-6.546	35.889	1482.168	1291.924
-5.531	35.850	1481.003	1290.594
-4.517	35.642	1480.844	1289.011
-3.502	35.788	1479.529	1288.792
-2.487	35.857	1478.489	1288.293
-1.473	35.762	1477.305	1286.581
-0.458	35.781	1475.682	1285.242
0.556	37.663	1465.770	1272.965
1.571	33.963	1437.736	1224.726
2.586	28.887	1373.061	1138.199
3.600	26.240	1286.871	1051.271
4.615	23.783	1238.478	997.874
5.629	19.828	1180.865	930.143
6.644	12.106	1096.037	824.565
7.659	6.292	1055.559	765.817
8.673	5.401	1050.239	757.576
9.688	5.232	1047.399	754.644
10.702	5.313	1045.957	753.926
11.717	5.404	1044.349	753.142
12.731	6.876	1045.166	760.757
13.746	13.999	1054.800	802.195
14.761	20.462	1063.432	840.047
15.775	21.877	1063.756	847.065
16.790	21.181	1062.098	842.313
17.804	20.064	1060.375	835.488
18.819	19.196	1058.345	829.636
19.834	18.851	1056.878	826.755
20.848	18.644	1055.845	824.874
21.863	18.475	1055.438	823.675
22.877	18.419	1054.690	822.747
23.892	18.061	1053.942	820.374
24.907	18.053	1052.971	819.505
25.921	18.070	1052.317	819.006
26.936	17.947	1051.815	817.956
27.950	18.089	1050.456	817.506
28.965	18.048	1049.381	816.399
29.980	17.993	1048.546	815.416
30.994	18.186	1047.221	815.233
32.009	18.339	1046.344	815.206
33.023	18.340	1045.738	814.668
34.038	18.394	1044.662	814.011
35.053	18.201	1044.174	812.644
36.067	18.086	1042.951	811.076
37.082	18.207	1042.176	810.976
38.096	18.162	1041.799	810.395
39.111	18.199	1041.050	809.918
40.126	18.274	1040.164	809.511
41.140	18.291	1038.963	808.583
42.155	17.894	1037.815	805.747
43.169	17.794	1036.719	804.354
44.184	17.775	1035.449	803.204
45.199	17.686	1034.252	801.788
46.213	17.689	1033.670	801.280
47.228	17.699	1032.692	800.496
48.242	18.009	1031.684	801.100
49.257	18.162	1031.088	801.281
50.271	18.104	1030.459	800.452
51.286	18.146	1029.264	799.649
52.301	18.203	1028.474	799.231
53.315	18.175	1027.634	798.377
54.330	18.148	1026.890	797.603
55.344	17.864	1025.890	795.432
56.359	17.748	1024.647	793.858
57.374	17.922	1024.129	794.195
58.388	17.900	1023.078	793.207
59.403	17.745	1022.075	791.642
60.417	17.681	1021.422	790.768
61.432	17.651	1020.903	790.158
62.447	17.612	1020.513	789.603
63.461	17.647	1018.951	788.486
64.476	17.717	1017.870	787.903
65.490	17.687	1016.693	786.784
66.505	17.516	1016.680	785.916
67.520	17.597	1015.680	785.448
68.534	17.654	1015.103	785.192
69.549	17.716	1013.988	784.549
70.563	17.593	1013.505	783.541
71.578	17.507	1012.778	782.512
72.593	17.504	1011.927	781.770
73.607	17.359	1010.555	779.980
74.622	17.349	1009.976	779.419
75.636	17.414	1008.975	778.873
76.651	17.483	1008.765	778.956
77.666	17.566	1007.271	778.114
78.680	17.548	1006.775	777.579
79.695	17.584	1006.615	777.552
80.709	17.531	1005.561	776.428
81.724	17.654	1005.104	776.567
82.739	17.814	1003.936	776.323
83.753	17.744	1004.032	776.012
84.768	17.902	1003.230	776.038
85.782	18.336	1002.170	777.119
86.797	18.374	1001.681	776.846
87.812	18.280	1001.129	775.921
88.826	18.218	999.873	774.598
89.841	18.066	998.969	773.143
90.855	18.191	998.595	773.353
91.870	18.299	997.841	773.188
92.884	18.332	997.172	772.747
93.899	18.346	996.526	772.241
94.914	18.388	995.690	771.717
95.928	18.346	994.938	770.876
96.943	18.405	994.244	770.533
97.957	18.276	993.211	769.086
98.972	18.314	991.639	767.970
99.987	18.209	991.688	767.469
101.001	18.258	990.786	766.926
102.016	18.298	990.010	766.436
103.030	18.187	989.373	765.375
104.045	18.325	988.242	765.051
105.060	18.330	987.312	764.284
106.074	18.290	986.117	763.115
107.089	18.049	985.192	761.260
108.103	17.779	984.319	759.314
109.118	17.577	983.388	757.633
110.133	17.578	982.615	756.973
111.147	17.644	981.696	756.490
112.162	17.598	980.898	755.603
113.176	17.669	979.995	755.158
114.191	17.806	979.101	755.008
115.206	17.912	978.229	754.739
116.220	17.758	977.830	753.681
117.235	17.690	976.633	752.393
118.249	17.709	975.933	751.872
119.264	17.871	974.379	751.322
120.279	17.522	974.198	749.580
121.293	17.668	973.309	749.468
122.308	17.576	972.359	748.267
123.322	17.563	971.269	747.307
124.337	17.559	970.289	746.466
125.352	17.476	968.935	744.996
126.366	17.412	968.136	744.039
127.381	17.500	967.116	743.571
128.395	17.413	966.308	742.503
129.410	17.490	965.380	742.062
130.424	17.510	965.181	741.928
131.439	17.602	963.949	741.320
132.454	17.700	962.899	740.869
133.468	17.763	962.652	740.891
134.483	17.753	962.259	740.477
135.497	17.807	961.475	740.044
136.512	17.918	960.292	739.549
137.527	17.889	959.725	738.919
138.541	17.780	959.175	737.961
139.556	17.889	958.527	737.868
140.570	17.898	957.880	737.341
141.585	17.937	957.168	736.898
142.600	18.067	956.305	736.726
143.614	18.308	955.776	737.294
144.629	18.157	954.931	735.929
145.643	18.501	953.843	736.500
146.658	18.390	953.191	735.455
147.673	18.177	952.311	733.797
148.687	17.998	951.078	732.015
149.702	18.026	950.419	731.563
150.716	17.919	949.471	730.311
151.731	17.690	948.591	728.593
152.746	17.745	948.120	728.401
153.760	17.923	947.262	728.436
154.775	17.938	946.252	727.659
155.789	18.052	945.506	727.508
156.804	18.200	944.987	727.671
157.819	18.070	944.397	726.603
158.833	18.131	943.914	726.423
159.848	18.253	943.253	726.371
160.862	18.262	942.625	725.859
161.877	18.286	941.971	725.394
162.892	17.978	940.776	723.108
163.906	17.994	939.345	722.010
164.921	17.655	939.003	720.251
165.935	17.843	937.627	719.926
166.950	17.926	936.619	719.438
167.964	18.006	936.214	719.401
168.979	18.038	935.425	718.866
169.994	18.042	933.882	717.629
171.008	17.987	933.191	716.805
172.023	18.047	932.444	716.418
173.037	18.215	931.973	716.699
174.052	18.147	931.415	715.920
175.067	18.334	930.326	715.804
176.081	18.089	929.478	714.063
177.096	17.918	928.642	712.646
178.110	17.908	927.719	711.833
179.125	17.877	927.090	711.157
180.140	17.861	926.159	710.313
181.154	18.000	925.233	710.117
182.169	18.102	924.794	710.141
183.183	18.210	924.601	710.381
184.198	18.337	923.735	710.177
185.213	18.151	923.450	709.125
186.227	18.274	922.571	708.896
187.242	18.295	922.393	708.782
188.256	18.393	921.339	708.319
189.271	18.478	920.521	707.976
190.286	18.473	920.139	707.600
191.300	18.440	919.074	706.582
192.315	17.973	917.944	703.726
193.329	17.891	916.859	702.497
194.344	17.873	916.066	701.751
195.359	17.959	915.852	701.881
196.373	18.005	915.366	701.633
197.388	18.201	914.873	701.999
198.402	18.334	914.863	702.475
199.417	18.514	914.324	702.736
200.432	18.640	913.857	702.832
201.446	18.697	913.674	702.860
202.461	18.576	913.443	702.124
203.475	18.794	913.053	702.656
204.490	18.949	911.716	702.197
205.504	18.628	910.940	700.229
206.519	18.482	909.994	698.846
207.534	18.360	909.715	698.069
208.548	18.342	909.001	697.390
209.563	18.434	907.859	696.824
210.577	18.443	907.059	696.186
211.592	18.478	906.569	695.890
212.607	18.553	906.383	695.988
213.621	18.708	905.867	696.161
214.636	18.677	904.897	695.229
215.650	18.699	904.243	694.752
216.665	18.695	903.891	694.404
217.680	18.660	903.183	693.659
218.694	18.782	903.199	694.102
219.709	18.900	902.743	694.168
220.723	18.741	902.046	692.928
221.738	18.919	900.965	692.751
222.753	18.799	899.954	691.432
223.767	18.615	899.653	690.399
224.782	18.828	898.637	690.415
225.796	19.078	897.601	690.558
226.811	18.906	897.551	689.771
227.826	18.888	897.040	689.245
228.840	18.879	895.995	688.344
229.855	18.830	895.053	687.365
230.869	18.706	894.806	686.617
231.884	18.810	893.709	686.132
232.899	18.716	893.197	685.301
233.913	18.644	892.561	684.467
234.928	18.557	891.814	683.486
235.942	18.505	890.995	682.590
236.957	18.560	890.390	682.285
237.972	18.500	889.475	681.285
238.986	18.512	889.155	681.027
240.001	18.579	888.465	680.705
241.015	18.577	887.991	680.271
242.030	18.646	887.039	679.757
243.045	18.694	886.607	679.557
244.059	18.787	885.980	679.384
245.074	18.842	885.435	679.123
246.088	18.948	884.781	678.979
247.103	18.914	884.428	678.513
248.117	19.042	883.691	678.393
249.132	19.186	883.195	678.519
250.147	19.334	882.891	678.809
251.161	19.569	882.408	679.303
252.176	19.588	882.056	679.048
253.190	19.632	881.262	678.546
254.205	19.665	880.840	678.293
255.220	19.622	880.190	677.565
256.234	19.615	879.542	676.976
257.249	19.532	878.741	675.976
258.263	19.510	878.482	675.630
259.278	19.584	877.747	675.296
260.293	19.519	877.158	674.528
261.307	19.691	876.454	674.598
262.322	19.883	875.733	674.731
263.336	19.742	875.328	673.811
264.351	19.874	875.076	674.073
265.366	19.803	874.461	673.261
266.380	19.863	873.698	672.847
267.395	19.693	873.415	671.910
268.409	19.720	872.480	671.237
269.424	19.586	871.393	669.820
270.439	19.607	870.602	669.235
271.453	19.677	869.958	668.951
272.468	19.445	869.430	667.587
273.482	19.537	868.465	667.144
274.497	19.540	867.513	666.364
275.512	19.604	867.034	666.184
276.526	19.673	866.348	665.864
277.541	19.600	866.044	665.292
278.555	19.721	865.126	664.993
279.570	19.703	865.069	664.822
280.585	19.831	864.916	665.137
281.599	19.957	864.017	664.871
282.614	19.799	863.350	663.693
283.628	19.774	862.792	663.108
284.643	19.704	862.270	662.381
285.657	19.696	861.461	661.670
286.672	19.687	861.189	661.369
287.687	19.631	860.704	660.723
288.701	19.707	860.287	660.636
289.716	19.668	859.516	659.834
290.730	19.790	858.944	659.803
291.745	19.757	858.195	659.044
292.760	19.835	857.440	658.703
293.774	19.822	857.293	658.480
294.789	20.031	856.582	658.671
295.803	20.157	855.530	658.282
296.818	19.896	855.064	656.875
297.833	19.703	854.475	655.635
298.847	19.740	853.717	655.135
299.862	19.794	853.251	654.923
300.876	19.906	852.432	654.661
301.891	19.792	852.306	654.075
302.906	19.928	851.692	654.060
303.920	20.164	850.893	654.280
304.935	20.286	850.286	654.212
305.949	20.414	849.852	654.303
306.964	20.237	849.459	653.275
307.979	20.147	848.550	652.181
308.993	20.221	848.015	651.991
310.008	20.414	847.158	651.999
311.022	20.393	846.878	651.645
312.037	20.272	846.358	650.736
313.052	20.003	845.823	649.259
314.066	19.932	845.315	648.546
315.081	19.886	844.375	647.595
316.095	19.936	843.833	647.307
317.110	19.873	843.838	647.020
318.125	19.962	842.527	646.288
319.139	19.766	842.573	645.535
320.154	19.976	841.790	645.663
321.168	20.007	841.162	645.237
322.183	20.025	840.828	644.992
323.197	20.036	840.482	644.709
324.212	20.219	839.418	644.516
325.227	20.103	839.134	643.812
326.241	20.006	838.549	642.946
327.256	20.059	837.910	642.596
328.270	20.070	837.263	642.085
329.285	20.057	836.985	641.763
330.300	19.924	836.290	640.681
331.314	20.076	835.924	640.910
332.329	20.098	834.980	640.207
333.343	20.294	834.762	640.707
334.358	20.296	834.121	640.166
335.373	20.385	833.754	640.157
336.387	20.391	833.084	639.610
337.402	20.305	832.942	639.125
338.416	20.396	832.286	638.900
339.431	20.618	831.673	639.189
340.446	20.754	830.950	639.078
341.460	20.846	830.381	638.922
342.475	20.904	829.747	638.587
343.489	20.842	829.508	638.121
344.504	20.823	829.158	637.725
345.519	20.779	828.675	637.137
346.533	20.962	828.115	637.320
347.548	20.905	827.717	636.747
348.562	20.840	826.947	635.862
349.577	20.698	826.312	634.799
350.592	20.588	825.578	633.777
351.606	20.461	825.021	632.831
352.621	20.408	824.712	632.346
353.635	20.370	824.087	631.673
354.650	20.498	823.830	631.887
355.665	20.558	823.462	631.763
356.679	20.645	822.940	631.623
357.694	20.829	822.572	631.954
358.708	20.566	822.282	630.721
359.723	20.705	821.357	630.459
360.738	20.702	820.906	630.047
361.752	20.676	820.353	629.472
362.767	20.605	820.002	628.892
363.781	20.730	819.917	629.220
364.796	20.966	819.326	629.564
365.810	20.990	819.213	629.508
366.825	21.244	818.446	629.781
367.840	21.284	818.411	629.842
368.854	21.090	817.992	628.765
369.869	21.150	817.405	628.474
370.883	21.047	816.678	627.489
371.898	21.087	816.194	627.205
372.913	21.257	815.331	627.095
373.927	21.287	815.008	626.900
374.942	21.217	814.071	625.873
375.956	21.109	813.757	625.189
376.971	21.183	813.055	624.861
377.986	21.133	813.208	624.741
379.000	21.426	812.176	624.941
380.015	21.387	811.890	624.526
381.029	21.442	810.858	623.874
382.044	21.333	810.387	623.067
383.059	21.316	810.122	622.750
384.073	21.381	809.811	622.686
385.088	21.297	809.352	621.979
386.102	21.332	808.456	621.361
387.117	20.979	807.927	619.645
388.132	21.070	807.260	619.401
389.146	21.066	806.781	618.964
390.161	21.135	806.584	619.003
391.175	21.219	806.490	619.175
392.190	21.452	805.835	619.441
393.205	21.329	805.273	618.520
394.219	21.196	804.725	617.575
395.234	21.125	803.828	616.579
396.248	21.093	803.691	616.305
397.263	21.060	802.977	615.587
398.278	20.880	802.566	614.584
399.292	20.905	801.973	614.163
400.307	20.931	801.823	614.087
401.321	20.899	801.843	613.935
402.336	21.002	801.226	613.769
403.350	21.018	800.709	613.377
404.365	21.157	800.379	613.558
405.380	21.396	799.852	613.938
406.394	21.359	799.606	613.566
407.409	21.721	798.669	614.063
408.423	21.619	798.809	613.756
409.438	21.568	798.559	613.332
410.453	21.613	798.121	613.099
411.467	21.933	797.087	613.370
412.482	21.798	796.873	612.679
413.496	21.795	796.673	612.461
414.511	21.947	796.155	612.540
415.526	21.805	795.913	611.803
416.540	21.787	795.435	611.319
417.555	21.779	794.591	610.586
418.569	21.754	794.196	610.144
419.584	21.814	793.673	609.896
420.599	21.940	793.264	609.967
421.613	158.037	1367.748	1787.983
422.628	136.919	1451.486	1788.102
