DTS Sentinel unit serial number:	SN413079Multiplexer serial number:	ORYXHardware model number:	OX4-SRSoftware version number:	ORYX F/W v4.00 Oryx Data Collector v3.7.2.0data status	okinstallation	princeton_trtdifferential loss correction	single-endedforward channel	channel 3reverse channel	N/Adate	2019/09/12time	18:26:04forward acquisition time	15.00reverse acquisition time	0.00gamma	496.2192k internal	0.2318k external	0.2318temperature offset calibration	1.0086default loss term (dB/km)	0.3790temperature slope calibration	1.0000multiplexer offset coefficient	1.0000multiplexer slope coefficient	1.0000fibre end	0.00T internal ref (°C)	33.31T ext. ref 1 (°C)	2.95T ext. ref 2 (°C)	27.96length (m)	temperature (°C)	Stokes	anti-Stokes-747.200	201.540	0.074	0.116
-746.185	15.101	0.533	0.423
-745.171	32.336	-0.205	-0.179
-744.156	5.396	0.098	0.073
-743.142	52.234	0.334	0.322
-742.127	32.711	0.600	-0.525
-741.112	-200.000	-0.247	0.000
-740.098	265.113	-0.154	-0.272
-739.083	123.306	-0.511	-0.648
-738.069	-44.908	-0.319	0.161
-737.054	121.119	0.399	0.502
-736.039	-4.281	-0.327	0.229
-735.025	35.138	0.194	-0.172
-734.010	-76.384	-0.239	-0.085
-732.996	2.057	0.634	-0.464
-731.981	-136.708	-1.073	-0.125
-730.966	-121.525	-0.548	-0.092
-729.952	-41.333	0.418	0.218
-728.937	-156.761	0.080	-0.005
-727.923	-103.590	-0.465	-0.110
-726.908	-93.522	-0.207	0.058
-725.894	-200.000	-0.065	0.705
-724.879	192.127	-0.320	0.488
-723.864	-200.000	-0.105	-0.488
-722.850	-111.817	0.516	-0.106
-721.835	-90.373	0.450	-0.132
-720.821	39.287	-0.745	-0.675
-719.806	27.796	-0.422	-0.360
-718.791	-22.304	-0.469	-0.288
-717.777	67.054	-0.664	-0.684
-716.762	800.000	-0.165	0.676
-715.748	-43.392	-0.610	0.312
-714.733	510.589	-0.122	-0.288
-713.718	167.988	-0.251	0.362
-712.704	-200.000	0.004	-0.871
-711.689	246.250	0.224	0.382
-710.675	161.414	0.165	0.233
-709.660	79.855	-0.320	-0.348
-708.645	-43.368	0.451	-0.230
-707.631	137.171	0.350	-0.462
-706.616	160.390	-0.171	0.241
-705.602	-145.932	0.191	0.017
-704.587	412.255	0.024	-0.052
-703.572	-2.783	-0.452	0.320
-702.558	-200.000	-0.073	0.352
-701.543	800.000	-0.147	0.526
-700.529	723.244	0.097	-0.261
-699.514	800.000	-0.259	0.902
-698.499	128.661	0.358	0.461
-697.485	-56.361	-0.764	0.343
-696.470	-200.000	-0.010	0.203
-695.456	-82.623	0.603	0.197
-694.441	-51.853	-0.286	0.134
-693.426	311.106	0.204	-0.386
-692.412	-200.000	-0.010	0.134
-691.397	-162.360	0.476	0.024
-690.383	-200.000	-0.117	0.591
-689.368	-200.000	-0.008	-0.097
-688.354	800.000	0.184	-0.550
-687.339	-187.749	-0.454	-0.006
-686.324	722.413	-0.131	-0.353
-685.310	-11.186	0.254	0.169
-684.295	43.091	0.011	0.010
-683.281	-28.436	0.333	-0.194
-682.266	29.977	0.270	0.232
-681.251	467.720	-0.192	-0.434
-680.237	537.122	0.199	-0.477
-679.222	-156.614	-0.582	-0.036
-678.208	268.160	0.410	0.726
-677.193	170.013	0.434	-0.627
-676.178	-200.000	-0.052	-0.771
-675.164	-120.351	-0.960	-0.165
-674.149	-52.946	0.894	0.415
-673.135	-46.227	0.534	0.265
-672.120	-200.000	-0.017	-0.503
-671.105	-200.000	0.001	-0.337
-670.091	-27.508	-0.135	0.079
-669.076	-71.898	0.582	-0.219
-668.062	800.000	-0.166	-0.615
-667.047	705.028	0.127	-0.339
-666.032	39.383	-1.032	-0.933
-665.018	-200.000	0.023	0.296
-664.003	-196.755	-0.334	0.002
-662.989	-200.000	0.043	0.377
-661.974	-41.983	0.267	-0.138
-660.959	-97.604	0.689	-0.180
-659.945	4.308	0.604	-0.446
-658.930	-200.000	0.075	-0.469
-657.916	415.582	0.236	-0.507
-656.901	-200.000	-0.032	0.359
-655.886	170.138	-0.174	0.251
-654.872	-200.000	0.070	0.879
-653.857	-200.000	0.168	1.071
-652.843	-91.091	-0.710	0.206
-651.828	-82.622	-0.745	-0.243
-650.814	254.970	-0.314	-0.543
-649.799	-200.000	-0.220	-1.451
-648.784	-200.000	0.037	0.488
-647.770	-200.000	-0.091	0.430
-646.755	-21.320	-0.352	-0.217
-645.741	361.769	0.140	0.283
-644.726	346.897	0.185	0.367
-643.711	13.276	-0.307	-0.240
-642.697	233.655	-0.024	0.040
-641.682	800.000	-0.238	-0.702
-640.668	-159.709	-0.356	0.020
-639.653	157.483	-0.237	0.331
-638.638	64.516	0.532	0.541
-637.624	65.327	-0.390	-0.397
-636.609	-50.981	-0.498	-0.236
-635.595	336.690	-0.335	0.655
-634.580	-188.225	-0.592	-0.008
-633.565	800.000	-0.082	0.248
-632.551	-200.000	0.030	0.381
-631.536	-53.127	-0.210	-0.097
-630.522	800.000	0.145	-0.457
-629.507	-25.697	-0.521	0.310
-628.492	162.531	-0.288	-0.407
-627.478	-200.000	-0.063	-0.481
-626.463	50.136	0.236	0.225
-625.449	-25.103	-0.460	-0.275
-624.434	-63.919	-0.966	-0.398
-623.419	204.313	-0.363	-0.567
-622.405	-23.357	-0.229	0.139
-621.390	-137.800	-0.651	-0.073
-620.376	-200.000	0.079	0.549
-619.361	154.145	-0.204	-0.281
-618.346	47.333	0.085	0.080
-617.332	-92.970	0.745	0.209
-616.317	-200.000	-0.055	0.459
-615.303	-42.798	0.161	-0.082
-614.288	81.501	0.353	0.385
-613.273	-51.745	-0.844	-0.396
-612.259	707.166	0.249	-0.661
-611.244	800.000	-0.174	-0.551
-610.230	800.000	-0.080	-0.266
-609.215	-39.913	-0.149	-0.078
-608.201	-71.786	0.814	0.305
-607.186	102.702	0.445	0.524
-606.171	318.487	-0.189	0.361
-605.157	-53.279	0.397	-0.183
-604.142	-93.295	-0.317	0.089
-603.128	800.000	0.179	0.653
-602.113	781.247	0.121	0.333
-601.098	-200.000	0.024	0.320
-600.084	800.000	0.238	0.875
-599.069	-176.551	-0.679	-0.018
-598.055	-105.831	-1.143	0.260
-597.040	800.000	-0.162	-0.533
-596.025	290.829	-0.263	0.481
-595.011	-200.000	0.010	0.053
-593.996	-200.000	-0.023	-0.347
-592.982	96.747	0.628	-0.724
-591.967	122.706	0.094	0.118
-590.952	43.860	-0.188	-0.173
-589.938	-200.000	0.091	-0.475
-588.923	64.116	-0.576	0.583
-587.909	-26.332	-0.238	-0.140
-586.894	-70.453	-0.344	0.131
-585.879	-51.989	0.734	-0.343
-584.865	-50.571	-0.074	0.035
-583.850	-33.904	0.819	-0.454
-582.836	-153.972	-0.682	-0.047
-581.821	-61.095	-0.947	-0.402
-580.806	56.150	0.730	0.713
-579.792	-200.000	0.040	0.361
-578.777	-200.000	-0.008	0.346
-577.763	-3.450	0.171	0.120
-576.748	-40.982	-0.161	-0.084
-575.733	-200.000	0.165	0.736
-574.719	162.871	-0.567	-0.801
-573.704	800.000	0.052	0.184
-572.690	663.057	0.196	0.509
-571.675	-80.162	0.592	0.199
-570.661	30.357	0.439	-0.377
-569.646	387.927	-0.288	0.598
-568.631	-31.026	-0.558	-0.317
-567.617	86.185	0.220	-0.244
-566.602	800.000	0.330	1.006
-565.588	800.000	-0.078	-0.274
-564.573	558.159	-0.146	-0.353
-563.558	181.666	0.197	-0.292
-562.544	5.824	0.585	0.435
-561.529	100.993	0.113	-0.132
-560.515	-32.816	0.586	-0.328
-559.500	26.120	-0.232	-0.194
-558.485	-200.000	0.011	-0.325
-557.471	-200.000	-0.010	-0.186
-556.456	667.888	-0.309	-0.803
-555.442	-104.541	-0.356	0.083
-554.427	-51.129	-0.746	0.351
-553.412	-76.540	0.300	-0.106
-552.398	278.187	0.397	-0.710
-551.383	-113.236	-0.533	0.105
-550.369	-4.276	0.438	-0.304
-549.354	60.242	-0.654	-0.650
-548.339	135.227	0.550	0.718
-547.325	-131.483	-0.241	-0.032
-546.310	-70.872	0.247	0.094
-545.296	544.504	-0.243	-0.582
-544.281	9.027	-0.205	-0.155
-543.266	-200.000	0.042	0.754
-542.252	254.657	0.199	0.343
-541.237	-200.000	0.081	0.389
-540.223	71.540	-0.513	0.535
-539.208	98.516	-0.244	-0.282
-538.193	549.836	0.212	-0.510
-537.179	-47.623	0.881	-0.429
-536.164	129.689	-0.447	-0.573
-535.150	-86.692	-1.186	-0.364
-534.135	-129.620	-0.124	-0.017
-533.121	-167.228	0.515	-0.021
-532.106	219.984	0.268	-0.432
-531.091	-200.000	-0.106	-0.790
-530.077	-56.165	-0.353	-0.158
-529.062	-69.842	0.403	0.155
-528.048	53.232	0.491	-0.472
-527.033	-179.794	-0.618	0.013
-526.018	-129.585	0.730	0.101
-525.004	-87.085	-0.707	0.216
-523.989	-75.410	-0.654	0.234
-522.975	656.932	0.070	0.181
-521.960	20.012	0.465	-0.376
-520.945	-129.081	0.767	-0.108
-519.931	-101.872	-0.971	0.236
-518.916	800.000	-0.209	0.606
-517.902	171.502	0.159	0.229
-516.887	33.694	0.273	0.238
-515.872	-200.000	-0.156	-0.714
-514.858	357.322	-0.483	0.965
-513.843	-200.000	-0.159	0.701
-512.829	4.434	-0.347	-0.255
-511.814	-200.000	0.037	0.518
-510.799	-200.000	-0.025	0.644
-509.785	142.593	0.344	-0.458
-508.770	-43.163	0.711	0.361
-507.756	219.560	-0.410	0.658
-506.741	73.097	-0.351	0.368
-505.726	11.320	0.347	-0.266
-504.712	-80.178	-0.303	0.102
-503.697	20.627	0.500	-0.406
-502.683	448.836	-0.182	0.402
-501.668	-200.000	0.012	-0.346
-500.653	653.662	0.402	1.034
-499.639	-20.830	0.326	0.201
-498.624	-200.000	-0.132	0.615
-497.610	281.890	-0.110	0.198
-496.595	91.453	-0.418	0.471
-495.581	-69.762	-0.414	0.159
-494.566	-33.947	-0.508	-0.280
-493.551	-51.914	0.437	0.204
-492.537	-22.733	-0.834	-0.505
-491.522	651.429	-0.094	-0.242
-490.508	-112.233	-0.608	-0.122
-489.493	-63.441	0.845	-0.348
-488.478	83.439	-0.429	-0.468
-487.464	800.000	-0.150	-0.512
-486.449	77.956	-0.207	-0.221
-485.435	678.021	0.252	-0.656
-484.420	50.009	0.368	0.348
-483.405	-28.148	0.608	0.352
-482.391	-200.000	-0.121	-0.612
-481.376	45.753	-0.596	-0.552
-480.362	-16.991	-0.766	0.484
-479.347	-134.982	0.419	0.051
-478.332	46.466	-0.225	-0.209
-477.318	553.203	0.237	0.571
-476.303	-11.462	0.498	0.328
-475.289	-10.866	0.705	-0.467
-474.274	-190.682	-0.562	0.006
-473.259	9.056	-0.591	0.447
-472.245	-7.620	-0.440	0.298
-471.230	205.648	-0.223	0.347
-470.216	-121.709	0.517	-0.086
-469.201	353.848	-0.193	0.383
-468.186	-107.389	-0.825	-0.181
-467.172	-5.976	-0.373	-0.256
-466.157	724.964	-0.183	-0.488
-465.143	83.686	-0.135	0.147
-464.128	-200.000	-0.022	0.235
-463.113	85.905	0.331	-0.364
-462.099	800.000	0.202	-0.660
-461.084	41.359	-0.096	-0.087
-460.070	-48.353	-0.459	0.221
-459.055	37.183	-0.301	0.267
-458.040	-135.390	0.506	-0.061
-457.026	44.715	0.451	-0.415
-456.011	-71.735	1.286	-0.480
-454.997	74.154	-0.344	0.361
-453.982	-200.000	-0.044	0.620
-452.968	-200.000	-0.133	-0.801
-451.953	-200.000	-0.043	0.448
-450.938	-8.662	0.342	-0.229
-449.924	-16.757	0.701	-0.444
-448.909	-134.395	1.054	-0.129
-447.895	-110.225	0.650	-0.136
-446.880	59.988	0.190	-0.187
-445.865	-200.000	0.026	0.242
-444.851	-129.400	0.285	0.040
-443.836	-200.000	-0.030	-0.264
-442.822	97.922	0.182	0.209
-441.807	341.726	-0.174	-0.341
-440.792	412.699	-0.394	0.837
-439.778	-107.116	0.429	0.095
-438.763	-17.567	-0.385	0.242
-437.749	-91.105	0.850	-0.244
-436.734	-41.066	0.748	0.386
-435.719	800.000	0.079	0.240
-434.705	-200.000	0.072	0.388
-433.690	-113.383	0.624	0.122
-432.676	720.860	0.223	0.594
-431.661	-200.000	-0.039	-0.294
-430.646	-91.003	-0.904	0.260
-429.632	-76.063	0.562	-0.198
-428.617	-117.442	-0.670	-0.121
-427.603	-200.000	-0.059	0.393
-426.588	94.514	-0.108	-0.123
-425.573	-78.294	0.055	0.019
-424.559	-128.349	-0.479	-0.068
-423.544	-152.217	0.457	0.033
-422.530	84.968	0.781	0.856
-421.515	59.566	0.197	0.194
-420.500	800.000	0.299	1.234
-419.486	800.000	0.147	-0.525
-418.471	-200.000	0.178	-1.013
-417.457	800.000	-0.061	0.233
-416.442	-200.000	0.103	-0.925
-415.428	-93.641	-0.585	0.161
-414.413	40.140	0.317	0.285
-413.398	537.003	-0.343	-0.814
-412.384	18.541	0.253	0.202
-411.369	68.275	-0.314	0.322
-410.355	-4.413	-0.595	-0.411
-409.340	-200.000	-0.029	1.110
-408.325	148.893	0.586	-0.791
-407.311	106.301	0.374	0.442
-406.296	199.625	-0.329	0.504
-405.282	142.518	0.137	0.182
-404.267	-198.850	0.486	0.003
-403.252	493.046	0.144	0.331
-402.238	-124.264	0.264	-0.041
-401.223	-200.000	-0.016	-0.130
-400.209	-2.978	-0.434	-0.302
-399.194	546.464	-0.099	-0.237
-398.179	26.907	-0.328	0.274
-397.165	138.044	-0.239	0.313
-396.150	-45.051	0.255	0.126
-395.136	14.379	0.482	0.376
-394.121	-179.368	-0.641	-0.014
-393.106	800.000	-0.335	-1.112
-392.092	186.070	-0.432	-0.641
-391.077	-200.000	-0.063	-0.312
-390.063	244.134	0.100	0.168
-389.048	43.806	0.485	-0.443
-388.033	-200.000	0.026	0.307
-387.019	-200.000	0.005	-0.493
-386.004	506.823	-0.268	0.620
-384.990	330.262	-0.346	0.665
-383.975	-161.208	0.681	-0.035
-382.960	-200.000	-0.060	-0.336
-381.946	334.335	0.190	0.367
-380.931	191.573	0.178	-0.268
-379.917	154.883	0.246	0.337
-378.902	-127.842	-0.460	0.066
-377.888	336.838	-0.407	0.788
-376.873	-116.675	0.883	-0.162
-375.858	-17.397	0.439	-0.276
-374.844	278.714	-0.315	0.561
-373.829	-4.950	-0.381	0.262
-372.815	162.851	-0.128	0.179
-371.800	-30.465	-0.655	-0.371
-370.785	-200.000	-0.008	-0.130
-369.771	-149.270	0.485	-0.039
-368.756	197.362	0.230	-0.350
-367.742	-128.727	0.854	-0.120
-366.727	-200.000	0.015	-0.186
-365.712	-23.753	-0.717	-0.428
-364.698	29.536	-0.593	-0.503
-363.683	-123.377	-0.756	-0.120
-362.669	-24.080	0.436	-0.260
-361.654	-32.789	-0.416	0.231
-360.639	-200.000	0.034	0.514
-359.625	-200.000	-0.213	0.942
-358.610	166.783	-0.081	0.115
-357.596	-200.000	-0.009	-0.594
-356.581	-200.000	0.026	0.454
-355.566	-149.359	0.387	-0.031
-354.552	458.681	-0.268	0.594
-353.537	3.129	-0.658	0.477
-352.523	-200.000	0.014	-0.110
-351.508	196.281	-0.589	-0.894
-350.493	-118.850	-0.303	-0.053
-349.479	800.000	0.170	0.607
-348.464	3.505	-0.757	-0.550
-347.450	-100.236	1.009	-0.250
-346.435	93.318	-0.267	-0.301
-345.420	-132.516	-0.356	0.046
-344.406	-68.280	0.724	-0.281
-343.391	-102.205	0.503	0.120
-342.377	-200.000	0.032	0.183
-341.362	-200.000	0.047	-0.986
-340.348	-194.472	-0.838	0.007
-339.333	21.814	0.420	-0.341
-338.318	-60.399	0.716	-0.303
-337.304	288.256	-0.148	-0.267
-336.289	-110.612	0.852	-0.176
-335.275	-98.941	0.296	0.075
-334.260	-61.124	-0.479	0.201
-333.245	-44.030	0.294	-0.147
-332.231	256.416	-0.504	-0.862
-331.216	460.511	-0.082	-0.182
-330.202	-200.000	0.077	0.819
-329.187	143.602	-0.255	-0.338
-328.172	198.439	-0.098	0.150
-327.158	-134.045	-0.624	-0.077
-326.143	-60.963	0.807	-0.340
-325.129	800.000	0.165	-0.608
-324.114	-64.410	0.639	0.259
-323.099	-74.635	-0.689	-0.247
-322.085	302.298	0.279	0.514
-321.070	800.000	0.199	0.580
-320.056	-31.509	0.138	-0.077
-319.041	-164.680	-0.559	-0.025
-318.026	403.476	-0.368	-0.770
-317.012	-22.685	0.476	-0.286
-315.997	-200.000	-0.042	-0.248
-314.983	-87.729	-0.200	-0.060
-313.968	-200.000	0.084	-0.509
-312.953	-158.822	-0.666	-0.038
-311.939	-200.000	0.012	0.415
-310.924	179.460	0.296	0.431
-309.910	724.459	0.188	-0.499
-308.895	-141.333	-0.084	-0.008
-307.880	59.404	0.442	-0.434
-306.866	-200.000	0.052	-0.329
-305.851	-153.559	0.550	-0.038
-304.837	-107.312	1.005	-0.220
-303.822	-165.443	-0.949	0.041
-302.807	187.398	-0.110	0.163
-301.793	-200.000	-0.013	0.435
-300.778	-200.000	-0.126	0.834
-299.764	282.717	0.292	0.521
-298.749	800.000	0.125	0.411
-297.735	800.000	-0.155	0.556
-296.720	-103.142	-0.595	0.140
-295.705	34.702	-0.448	0.390
-294.691	-49.515	0.457	-0.216
-293.676	-126.560	-0.253	-0.037
-292.662	-178.558	-0.189	-0.004
-291.647	52.414	-0.622	-0.590
-290.632	800.000	0.075	-0.297
-289.618	-138.206	0.366	-0.040
-288.603	269.299	0.107	0.187
-287.589	-122.404	-0.892	-0.145
-286.574	-200.000	0.173	0.892
-285.559	-35.854	-0.218	-0.117
-284.545	141.080	-0.243	0.320
-283.530	141.415	0.362	-0.476
-282.516	-200.000	0.010	0.115
-281.501	-83.132	-0.665	0.213
-280.486	-107.271	1.192	-0.261
-279.472	-75.949	0.698	-0.245
-278.457	136.236	-0.210	0.272
-277.443	-155.050	0.459	0.030
-276.428	53.398	0.495	-0.471
-275.413	-200.000	0.150	0.733
-274.399	-200.000	-0.016	-0.122
-273.384	198.727	-0.554	-0.842
-272.370	-53.951	1.201	-0.543
-271.355	176.880	0.412	-0.596
-270.340	-100.799	0.978	0.239
-269.326	-27.284	-0.471	-0.272
-268.311	-200.000	-0.182	-0.848
-267.297	72.725	-0.369	-0.383
-266.282	-82.559	0.750	-0.242
-265.267	-143.121	-0.710	-0.068
-264.253	-106.461	-0.312	0.069
-263.238	508.916	-0.072	-0.167
-262.224	0.032	0.398	0.282
-261.209	141.205	-0.660	0.867
-260.195	-18.534	-0.539	0.334
-259.180	44.691	-0.048	-0.044
-258.165	800.000	-0.051	0.211
-257.151	322.283	0.358	0.678
-256.136	73.031	0.284	0.295
-255.122	-200.000	-0.042	0.217
-254.107	784.245	0.162	-0.442
-253.092	554.913	-0.249	0.596
-252.078	-163.025	0.093	-0.004
-251.063	-149.197	0.484	0.038
-250.049	99.137	-0.159	0.183
-249.034	-161.381	-0.625	-0.032
-248.019	341.138	0.178	0.346
-247.005	-32.036	-0.594	-0.330
-245.990	554.583	-0.157	0.374
-244.976	800.000	-0.052	0.211
-243.961	-200.000	-0.040	-0.556
-242.946	303.253	-0.136	-0.249
-241.932	-114.297	-0.822	-0.157
-240.917	-93.780	-0.252	-0.069
-239.903	-200.000	0.046	0.410
-238.888	800.000	0.212	0.604
-237.873	-146.626	0.365	0.031
-236.859	10.840	0.424	0.321
-235.844	108.290	-0.266	-0.315
-234.830	800.000	0.193	-0.606
-233.815	81.434	-0.534	-0.573
-232.800	215.463	0.156	-0.246
-231.786	-200.000	0.215	-0.953
-230.771	-108.991	0.756	-0.160
-229.757	-140.422	-0.659	-0.068
-228.742	-200.000	-0.056	-0.584
-227.727	800.000	0.228	0.692
-226.713	370.632	0.209	0.421
-225.698	353.775	-0.328	0.646
-224.684	-132.209	-0.148	-0.019
-223.669	-83.816	0.656	0.207
-222.655	-200.000	0.066	0.385
-221.640	115.851	-0.205	-0.248
-220.625	107.325	0.202	-0.239
-219.611	117.900	0.104	0.127
-218.596	446.630	0.106	0.232
-217.582	-92.895	-0.281	0.078
-216.567	-71.678	-0.955	0.354
-215.552	164.669	-0.360	0.504
-214.538	800.000	-0.117	-0.458
-213.523	-70.236	0.563	0.212
-212.509	41.959	0.302	-0.272
-211.494	-164.698	-1.097	-0.049
-210.479	165.374	-0.356	0.499
-209.465	-44.392	-0.550	0.273
-208.450	102.244	0.513	-0.594
-207.436	-149.785	-0.654	-0.051
-206.421	74.550	0.297	-0.310
-205.406	373.222	-0.319	-0.644
-204.392	-125.736	0.508	0.076
-203.377	-150.714	-0.254	-0.019
-202.363	-200.000	-0.043	-1.181
-201.348	-53.908	0.384	-0.173
-200.333	-24.112	0.663	0.392
-199.319	-36.787	0.203	0.108
-198.304	-51.574	0.523	-0.242
-197.290	-200.000	-0.038	-0.260
-196.275	-200.000	0.039	0.221
-195.260	-173.993	-0.551	0.016
-194.246	47.376	0.729	-0.673
-193.231	-200.000	0.019	-0.558
-192.217	-101.723	0.552	-0.132
-191.202	608.358	-0.144	-0.355
-190.187	800.000	0.202	0.588
-189.173	-88.121	0.787	0.234
-188.158	210.139	0.204	-0.317
-187.144	302.882	-0.338	-0.620
-186.129	-134.022	0.426	0.052
-185.114	99.686	-0.232	-0.266
-184.100	-200.000	0.019	-0.408
-183.085	-200.000	0.144	0.816
-182.071	800.000	0.280	0.770
-181.056	-36.137	0.924	0.494
-180.042	-142.929	-0.177	0.017
-179.027	-200.000	-0.015	-0.296
-178.012	-60.797	-0.304	-0.128
-176.998	-59.060	0.599	0.256
-175.983	-13.010	-0.772	-0.497
-174.969	-200.000	-0.061	-0.376
-173.954	205.104	-0.682	1.048
-172.939	161.701	0.521	0.721
-171.925	-40.703	0.695	-0.357
-170.910	118.673	0.305	0.372
-169.896	232.289	0.237	-0.384
-168.881	604.560	-0.151	-0.373
-167.866	107.697	0.210	0.247
-166.852	800.000	0.186	0.588
-165.837	421.929	0.212	-0.451
-164.823	-200.000	-0.087	0.952
-163.808	351.572	-0.124	-0.243
-162.793	423.579	-0.393	0.837
-161.779	234.241	0.092	-0.151
-160.764	-81.471	0.633	-0.206
-159.750	-200.000	-0.061	0.996
-158.735	-93.455	0.649	-0.178
-157.720	110.239	0.692	-0.822
-156.706	800.000	0.094	0.403
-155.691	-72.536	0.216	0.079
-154.677	800.000	0.290	0.828
-153.662	285.068	0.392	-0.699
-152.647	-159.129	-0.985	-0.055
-151.633	-84.274	0.045	0.014
-150.618	800.000	-0.102	-0.358
-149.604	217.513	0.445	0.702
-148.589	-116.151	-0.660	-0.121
-147.574	-200.000	0.828	0.004
-146.560	-200.000	-0.051	0.590
-145.545	184.838	0.328	0.481
-144.531	-138.699	-0.845	0.091
-143.516	-49.121	0.364	0.172
-142.502	-153.824	0.884	-0.060
-141.487	2.926	-0.421	0.302
-140.472	-132.739	0.906	0.115
-139.458	-5.859	0.421	-0.285
-138.443	-200.000	-0.076	-0.879
-137.429	147.895	-0.338	-0.451
-136.414	142.706	-0.215	-0.282
-135.399	800.000	0.269	-0.736
-134.385	71.133	-0.489	-0.501
-133.370	49.488	-0.440	-0.409
-132.356	477.417	-0.251	0.561
-131.341	-48.061	0.454	0.217
-130.326	43.487	-0.592	0.534
-129.312	188.042	0.398	0.587
-128.297	45.257	0.274	-0.250
-127.283	800.000	-0.259	-0.754
-126.268	-56.833	0.701	0.306
-125.253	241.564	0.346	0.572
-124.239	-96.719	-0.360	0.094
-123.224	-200.000	0.044	1.002
-122.210	-61.581	0.427	0.177
-121.195	86.569	0.782	0.852
-120.180	-6.056	-0.512	0.345
-119.166	-146.226	0.127	0.011
-118.151	79.286	-0.297	0.314
-117.137	-98.181	-0.434	0.110
-116.122	-200.000	-0.103	-0.616
-115.107	-82.704	-0.441	0.141
-114.093	800.000	0.183	0.532
-113.078	-200.000	0.043	-0.272
-112.064	121.581	-0.583	-0.718
-111.049	8.386	0.824	0.612
-110.034	-200.000	0.085	0.581
-109.020	228.566	0.181	-0.291
-108.005	55.662	-0.567	0.542
-106.991	-23.828	0.320	-0.189
-105.976	-77.920	0.324	-0.110
-104.962	-200.000	0.045	0.246
-103.947	33.526	0.395	-0.339
-102.932	800.000	0.239	-0.688
-101.918	-200.000	-0.052	-0.263
-100.903	45.727	0.407	-0.371
-99.889	800.000	0.074	0.282
-98.874	163.142	0.181	-0.251
-97.859	27.115	0.140	0.116
-96.845	-200.000	0.008	0.538
-95.830	-152.416	-0.162	0.011
-94.816	-15.649	0.661	-0.416
-93.801	527.534	-0.147	0.343
-92.786	-200.000	-0.129	-0.604
-91.772	493.522	-0.306	-0.692
-90.757	50.056	0.735	-0.684
-89.743	-31.035	-0.411	-0.229
-88.728	18.857	1.010	0.798
-87.713	-25.668	-0.266	0.155
-86.699	-200.000	-0.022	-0.620
-85.684	-200.000	0.017	0.535
-84.670	-200.000	0.000	-0.256
-83.655	188.781	-0.650	0.959
-82.640	206.011	-0.420	-0.644
-81.626	-200.000	0.155	-0.758
-80.611	-200.000	-0.044	-0.335
-79.597	435.938	0.176	0.379
-78.582	204.995	-0.264	0.404
-77.567	6.519	0.490	-0.359
-76.553	-63.805	0.478	0.193
-75.538	-200.000	0.126	-0.927
-74.524	628.592	0.282	0.703
-73.509	80.869	0.130	-0.138
-72.494	-87.842	-0.434	-0.129
-71.480	-33.692	0.466	-0.253
-70.465	800.000	-0.170	0.587
-69.451	-50.637	-0.367	0.170
-68.436	-108.625	0.511	-0.108
-67.422	134.648	0.135	0.172
-66.407	-45.994	0.381	0.185
-65.392	115.886	-0.452	0.545
-64.378	438.692	-0.304	0.655
-63.363	-145.090	0.112	0.010
-62.349	-86.745	0.296	0.089
-61.334	-200.000	-0.168	-1.103
-60.319	800.000	0.363	1.318
-59.305	167.186	-0.537	-0.752
-58.290	-200.000	0.178	1.036
-57.276	-200.000	0.128	1.455
-56.261	-200.000	94.037	567.806
-55.246	645.681	1364.257	3432.115
-54.232	199.851	2538.537	3838.506
-53.217	117.772	2151.848	2610.424
-52.203	43.936	1699.401	1533.943
-51.188	36.531	1514.505	1316.789
-50.173	34.183	1487.217	1277.279
-49.159	54.560	1537.692	1460.041
-48.144	55.115	1556.275	1481.411
-47.130	36.667	1515.026	1317.957
-46.115	33.734	1499.575	1284.651
-45.100	33.561	1496.124	1280.475
-44.086	33.429	1494.525	1278.161
-43.071	33.359	1492.972	1276.312
-42.057	33.692	1490.447	1276.345
-41.042	33.336	1488.784	1272.476
-40.027	33.268	1488.446	1271.680
-39.013	33.511	1486.801	1271.858
-37.998	33.325	1486.784	1270.543
-36.984	33.317	1485.178	1269.065
-35.969	33.040	1485.243	1267.213
-34.954	33.295	1483.061	1267.012
-33.940	33.227	1481.456	1265.134
-32.925	33.304	1480.111	1264.448
-31.911	33.483	1478.178	1263.938
-30.896	33.397	1476.748	1262.098
-29.881	33.332	1475.512	1260.557
-28.867	33.278	1474.536	1259.310
-27.852	33.301	1473.299	1258.356
-26.838	33.159	1472.073	1256.316
-25.823	33.458	1470.384	1256.814
-24.809	33.315	1468.391	1254.114
-23.794	33.461	1466.523	1253.435
-22.779	33.275	1465.357	1251.159
-21.765	33.320	1465.279	1251.336
-20.750	33.508	1463.008	1250.585
-19.736	33.272	1463.206	1249.152
-18.721	33.399	1461.158	1248.190
-17.706	33.271	1460.008	1246.312
-16.692	33.375	1459.215	1246.270
-15.677	33.551	1456.895	1245.398
-14.663	33.237	1456.956	1243.341
-13.648	33.325	1456.346	1243.347
-12.633	33.581	1454.685	1243.560
-11.619	33.021	1455.135	1240.219
-10.604	33.364	1452.883	1240.500
-9.590	32.928	1454.266	1238.766
-8.575	33.317	1451.019	1238.499
-7.560	33.213	1451.346	1238.048
-6.546	33.285	1450.175	1237.475
-5.531	33.411	1448.831	1237.101
-4.517	33.099	1448.386	1234.634
-3.502	33.213	1446.929	1234.085
-2.487	33.312	1445.578	1233.531
-1.473	33.235	1444.750	1232.274
-0.458	33.360	1442.922	1231.476
0.556	34.204	1433.211	1219.934
1.571	31.033	1408.792	1179.034
2.586	27.399	1349.463	1107.221
3.600	25.276	1269.444	1029.313
4.615	23.896	1222.327	983.397
5.629	20.661	1165.133	920.217
6.644	11.446	1080.717	808.051
7.659	4.007	1039.115	741.355
8.673	3.057	1033.718	732.916
9.688	3.138	1028.999	729.889
10.702	2.850	1028.607	728.177
11.717	2.756	1027.399	726.814
12.731	5.882	1030.252	743.601
13.746	15.310	1043.021	797.802
14.761	22.861	1053.771	842.106
15.775	24.886	1055.263	852.881
16.790	25.288	1054.001	853.701
17.804	24.981	1053.744	851.953
18.819	25.036	1051.780	850.552
19.834	25.053	1052.117	850.831
20.848	25.351	1051.833	851.942
21.863	25.290	1051.047	850.939
22.877	25.549	1050.793	851.888
23.892	25.572	1049.100	850.545
24.907	25.248	1049.407	849.185
25.921	25.265	1048.742	848.655
26.936	24.998	1047.633	846.422
27.950	25.119	1046.397	845.919
28.965	25.255	1045.200	845.514
29.980	24.931	1044.683	843.498
30.994	25.253	1043.860	844.272
32.009	25.137	1042.955	842.923
33.023	25.372	1041.935	843.125
34.038	25.129	1040.896	841.073
35.053	25.487	1040.356	842.239
36.067	25.456	1039.616	841.418
37.082	25.362	1037.940	839.547
38.096	25.055	1038.622	838.591
39.111	25.050	1037.374	837.486
40.126	25.233	1036.710	837.727
41.140	25.352	1034.620	836.520
42.155	24.841	1034.499	833.968
43.169	25.040	1033.261	833.820
44.184	24.951	1031.627	832.018
45.199	25.148	1031.217	832.527
46.213	24.958	1030.096	830.667
47.228	24.812	1029.935	829.784
48.242	25.043	1028.326	829.487
49.257	25.318	1028.465	830.797
50.271	25.520	1026.618	830.166
51.286	25.720	1025.996	830.510
52.301	25.234	1026.364	828.492
53.315	25.320	1025.544	828.154
54.330	25.230	1024.694	826.978
55.344	25.101	1023.819	825.606
56.359	25.196	1023.321	825.568
57.374	25.384	1021.382	824.795
58.388	25.161	1021.383	823.697
59.403	25.097	1020.176	822.358
60.417	25.086	1018.501	820.885
61.432	24.822	1019.581	820.471
62.447	25.069	1019.001	821.064
63.461	24.834	1018.577	819.574
64.476	25.180	1017.509	820.227
65.490	25.193	1016.697	819.556
66.505	25.141	1014.842	817.751
67.520	24.831	1015.574	816.853
68.534	25.118	1013.298	816.257
69.549	25.166	1012.662	815.893
70.563	25.119	1011.373	814.568
71.578	24.763	1011.135	812.688
72.593	24.528	1010.375	810.940
73.607	24.459	1009.943	810.205
74.622	24.759	1009.153	810.860
75.636	24.787	1008.319	810.247
76.651	24.923	1006.854	809.614
77.666	24.708	1005.994	807.879
78.680	24.773	1005.350	807.582
79.695	24.990	1004.366	807.697
80.709	25.048	1004.100	807.677
81.724	24.768	1003.317	805.712
82.739	25.154	1003.603	807.608
83.753	24.925	1002.366	805.513
84.768	25.525	1001.038	807.068
85.782	25.515	1000.359	806.406
86.797	25.719	1000.252	807.164
87.812	25.777	999.840	807.020
88.826	25.361	999.422	804.746
89.841	25.608	997.805	804.477
90.855	25.768	996.874	804.371
91.870	25.780	996.069	803.702
92.884	25.801	995.236	803.054
93.899	25.402	995.732	801.602
94.914	25.613	994.288	801.308
95.928	25.662	992.498	800.014
96.943	25.712	993.206	800.736
97.957	25.551	991.091	798.247
98.972	25.268	990.955	796.811
99.987	25.036	989.534	794.567
101.001	25.434	988.460	795.398
102.016	25.294	988.412	794.667
103.030	25.502	986.721	794.157
104.045	25.436	986.434	793.563
105.060	25.408	985.106	792.302
106.074	25.253	984.892	791.377
107.089	25.218	983.880	790.339
108.103	25.504	982.813	790.671
109.118	25.507	981.618	789.653
110.133	25.239	980.739	787.700
111.147	25.032	980.438	786.480
112.162	25.141	978.149	785.054
113.176	24.933	976.965	783.124
114.191	25.048	976.619	783.279
115.206	24.948	976.009	782.282
116.220	25.126	973.322	780.835
117.235	24.614	975.128	779.983
118.249	24.909	973.414	779.825
119.264	24.913	972.913	779.373
120.279	24.436	972.510	776.907
121.293	24.677	971.982	777.465
122.308	24.720	971.294	777.033
123.322	25.058	968.675	776.331
124.337	24.769	968.823	775.129
125.352	24.663	967.858	773.829
126.366	24.671	965.830	772.175
127.381	24.372	965.063	770.203
128.395	24.736	965.312	771.905
129.410	25.087	964.290	772.531
130.424	25.514	963.702	773.833
131.439	25.262	962.935	772.063
132.454	25.239	962.225	771.327
133.468	25.343	961.230	770.906
134.483	25.060	960.917	769.371
135.497	25.533	959.772	770.415
136.512	25.512	958.794	769.473
137.527	25.329	958.584	768.452
138.541	25.529	956.778	767.789
139.556	25.624	956.412	767.837
140.570	25.708	955.779	767.617
141.585	25.855	956.056	768.400
142.600	25.763	954.870	766.988
143.614	25.602	953.844	765.410
144.629	25.693	953.227	765.234
145.643	26.198	952.538	766.756
146.658	25.827	951.496	764.277
147.673	25.528	950.112	761.830
148.687	25.855	948.748	762.054
149.702	25.186	949.254	759.561
150.716	25.336	947.732	758.909
151.731	25.345	946.777	758.113
152.746	25.595	945.640	758.191
153.760	25.533	945.389	757.662
154.775	25.716	944.418	757.588
155.789	25.942	943.620	757.829
156.804	25.704	942.867	756.160
157.819	25.693	942.173	755.491
158.833	25.923	940.613	755.134
159.848	25.657	940.772	754.080
160.862	26.055	940.024	755.083
161.877	25.854	939.144	753.467
162.892	25.565	938.122	751.373
163.906	25.742	936.246	750.541
164.921	25.817	936.419	750.927
165.935	25.956	935.073	750.360
166.950	26.012	933.766	749.477
167.964	25.832	933.113	748.138
168.979	25.866	932.036	747.351
169.994	25.618	931.095	745.502
171.008	25.458	930.187	744.046
172.023	25.389	930.528	743.969
173.037	26.177	928.142	745.249
174.052	25.846	927.904	743.626
175.067	25.744	927.599	742.894
176.081	25.676	927.054	742.112
177.096	25.652	926.037	741.135
178.110	25.806	924.915	740.803
179.125	25.546	923.512	738.547
180.140	25.086	923.464	736.552
181.154	25.211	922.314	736.083
182.169	25.223	922.710	736.384
183.183	25.894	921.350	737.980
184.198	26.080	921.261	738.607
185.213	26.153	920.006	737.833
186.227	25.778	920.139	736.341
187.242	25.695	919.576	735.485
188.256	25.989	918.805	736.004
189.271	25.738	918.396	734.588
190.286	25.965	917.469	734.707
191.300	26.097	915.693	733.757
192.315	25.346	915.476	730.464
193.329	24.720	914.176	726.818
194.344	24.401	912.674	724.264
195.359	25.197	912.252	727.094
196.373	25.624	912.366	728.850
197.388	25.867	912.861	730.166
198.402	25.963	913.018	730.617
199.417	26.013	911.470	729.515
200.432	25.985	911.693	729.515
201.446	25.706	911.862	728.459
202.461	25.435	910.463	726.182
203.475	25.784	909.645	726.874
204.490	25.279	908.546	723.895
205.504	24.088	907.066	717.852
206.519	24.722	906.116	719.590
207.534	25.301	907.239	722.749
208.548	25.406	906.379	722.425
209.563	25.846	905.411	723.356
210.577	25.728	903.854	721.572
211.592	25.938	903.276	721.887
212.607	26.309	903.678	723.633
213.621	26.096	903.538	722.604
214.636	26.155	903.195	722.502
215.650	26.192	902.227	721.812
216.665	26.292	901.232	721.350
217.680	26.070	901.224	720.392
218.694	26.424	900.573	721.222
219.709	26.045	900.544	719.624
220.723	25.662	898.426	716.344
221.738	25.676	898.754	716.599
222.753	25.775	897.975	716.307
223.767	25.545	897.979	715.330
224.782	26.158	896.509	716.530
225.796	26.153	896.011	716.050
226.811	26.209	895.881	716.106
227.826	26.002	894.212	713.887
228.840	25.138	893.158	709.564
229.855	25.324	892.565	709.765
230.869	25.420	891.607	709.323
231.884	25.108	891.617	708.034
232.899	25.308	890.658	707.999
233.913	25.680	890.949	709.634
234.928	25.824	890.609	709.868
235.942	25.568	889.582	707.978
236.957	25.826	888.408	707.998
237.972	25.709	887.667	706.884
238.986	25.421	887.756	705.763
240.001	25.385	886.976	704.937
241.015	25.529	885.784	704.491
242.030	25.666	886.252	705.340
243.045	25.898	884.686	704.936
244.059	26.101	883.967	705.096
245.074	26.144	884.311	705.477
246.088	26.188	883.782	705.162
247.103	25.890	882.341	702.791
248.117	25.856	883.071	703.177
249.132	26.222	883.175	704.624
250.147	26.361	882.107	704.253
251.161	26.720	881.375	705.001
252.176	26.643	881.185	704.487
253.190	26.784	881.168	704.960
254.205	26.443	880.711	703.208
255.220	26.945	880.325	704.787
256.234	26.657	879.351	702.826
257.249	26.617	878.485	701.919
258.263	26.614	878.513	701.868
259.278	26.560	877.393	700.700
260.293	26.781	876.692	700.935
261.307	26.787	875.631	700.045
262.322	26.911	875.773	700.575
263.336	26.686	874.672	698.768
264.351	26.433	873.748	696.992
265.366	25.474	872.380	692.148
266.380	25.312	871.289	690.596
267.395	25.852	872.220	693.353
268.409	26.506	871.422	695.171
269.424	26.681	870.034	694.673
270.439	26.667	869.978	694.511
271.453	26.986	868.793	694.726
272.468	26.489	869.046	692.963
273.482	26.744	868.881	693.748
274.497	26.911	867.236	693.011
275.512	27.172	867.198	693.915
276.526	26.419	865.889	689.934
277.541	26.558	865.756	690.297
278.555	26.976	864.496	690.823
279.570	26.864	864.560	690.386
280.585	26.855	862.952	689.009
281.599	26.745	862.521	688.186
282.614	26.637	863.442	688.449
283.628	26.105	862.416	685.551
284.643	25.889	861.285	683.771
285.657	26.449	861.157	685.733
286.672	26.167	860.404	684.002
287.687	25.861	859.374	681.968
288.701	25.670	861.248	682.667
289.716	26.439	859.448	684.092
290.730	26.287	857.910	682.234
291.745	25.927	858.622	681.377
292.760	25.875	857.105	679.916
293.774	26.326	856.059	680.726
294.789	26.572	856.957	682.306
295.803	27.367	856.554	684.921
296.818	27.400	855.782	684.364
297.833	27.239	855.566	683.526
298.847	26.818	854.326	680.896
299.862	26.367	854.139	678.994
300.876	26.666	853.455	679.512
301.891	27.206	852.431	680.659
302.906	27.060	852.256	679.911
303.920	26.951	851.327	678.702
304.935	26.838	851.333	678.227
305.949	26.908	851.782	678.785
306.964	27.134	849.977	678.130
307.979	27.098	848.884	677.064
308.993	27.014	848.931	676.728
310.008	27.105	848.786	676.890
311.022	27.165	847.748	676.228
312.037	27.235	847.355	676.115
313.052	26.774	847.685	674.602
314.066	26.755	846.398	673.449
315.081	26.343	844.845	670.626
316.095	25.836	843.386	667.530
317.110	26.073	843.526	668.460
318.125	26.993	844.417	672.516
319.139	26.604	842.875	669.789
320.154	25.841	840.211	664.799
321.168	25.040	840.196	661.770
322.183	25.636	840.186	663.906
323.197	26.347	841.529	667.535
324.212	26.937	840.547	668.871
325.227	26.829	840.082	668.043
326.241	27.004	839.354	668.051
327.256	26.694	838.917	666.504
328.270	26.768	838.744	666.580
329.285	26.458	838.257	664.993
330.300	26.463	837.429	664.296
331.314	26.557	836.177	663.588
332.329	26.424	835.657	662.630
333.343	26.897	835.789	664.409
334.358	27.130	834.972	664.551
335.373	27.105	834.075	663.687
336.387	27.233	833.573	663.698
337.402	26.970	834.193	663.173
338.416	27.545	833.161	664.390
339.431	27.895	832.625	665.180
340.446	27.685	832.103	663.939
341.460	27.739	831.271	663.413
342.475	27.509	831.121	662.396
343.489	27.557	830.359	661.908
344.504	27.562	830.020	661.596
345.519	27.601	829.713	661.435
346.533	28.215	829.239	663.224
347.548	27.501	830.277	661.403
348.562	27.698	828.692	660.796
349.577	27.967	827.882	661.064
350.592	27.863	826.890	659.838
351.606	27.435	826.910	658.250
352.621	27.492	826.310	657.918
353.635	27.482	826.132	657.685
354.650	27.439	825.671	657.104
355.665	27.119	824.118	654.655
356.679	26.553	822.874	651.572
357.694	26.363	822.160	650.266
358.708	27.103	822.404	653.064
359.723	26.608	822.264	651.115
360.738	26.941	821.163	651.383
361.752	27.487	820.580	652.820
362.767	27.507	820.848	653.046
363.781	27.471	821.537	653.407
364.796	27.845	820.232	653.649
365.810	28.258	819.507	654.491
366.825	27.856	819.671	653.128
367.840	28.123	819.745	654.083
368.854	27.800	818.745	652.074
369.869	27.544	817.378	650.014
370.883	27.408	817.524	649.586
371.898	27.702	815.924	649.304
372.913	27.494	815.757	648.374
373.927	27.406	815.971	648.175
374.942	27.696	814.584	648.045
375.956	27.335	814.384	646.547
376.971	27.340	814.048	646.239
377.986	27.739	813.535	647.192
379.000	27.642	812.882	646.271
380.015	27.796	812.799	646.693
381.029	27.811	811.573	645.713
382.044	27.791	811.267	645.343
383.059	28.047	810.634	645.687
384.073	27.910	810.514	645.048
385.088	28.387	808.979	645.451
386.102	27.959	808.279	643.329
387.117	27.456	807.889	641.191
388.132	27.338	807.698	640.568
389.146	27.260	806.492	639.282
390.161	26.983	806.201	638.021
391.175	27.270	806.541	639.241
392.190	27.620	806.606	640.467
393.205	28.046	804.635	640.339
394.219	26.565	805.535	635.800
395.234	25.648	802.752	630.335
396.248	24.846	801.300	626.334
397.263	25.796	801.951	630.112
398.278	26.932	803.002	634.859
399.292	27.274	802.659	635.729
400.307	27.122	801.941	634.572
401.321	27.234	800.508	633.775
402.336	27.170	800.115	633.183
403.350	27.175	800.558	633.495
404.365	28.076	800.095	636.211
405.380	27.745	800.791	635.554
406.394	28.111	800.359	636.428
407.409	28.038	800.389	636.140
408.423	28.161	799.873	636.104
409.438	28.441	798.078	635.589
410.453	28.035	798.640	634.574
411.467	28.040	797.889	633.936
412.482	27.851	797.378	632.819
413.496	27.658	797.430	632.137
414.511	28.197	796.364	633.099
415.526	27.919	796.117	631.886
416.540	27.986	796.115	632.062
417.555	28.027	795.106	631.346
418.569	27.869	794.327	630.126
419.584	27.963	794.008	630.140
420.599	27.966	792.738	629.088
421.613	159.268	1369.619	1792.499
422.628	137.950	1453.741	1792.519
