DTS Sentinel unit serial number:	SN413079Multiplexer serial number:	ORYXHardware model number:	OX4-SRSoftware version number:	ORYX F/W v4.00 Oryx Data Collector v3.7.2.0data status	okinstallation	princeton_trtdifferential loss correction	single-endedforward channel	channel 3reverse channel	N/Adate	2019/09/18time	23:36:34forward acquisition time	60.00reverse acquisition time	0.00gamma	496.2192k internal	0.2345k external	0.2345temperature offset calibration	0.9991default loss term (dB/km)	0.3790temperature slope calibration	1.0000multiplexer offset coefficient	1.0000multiplexer slope coefficient	1.0000fibre end	0.00T internal ref (°C)	23.56T ext. ref 1 (°C)	0.76T ext. ref 2 (°C)	16.45length (m)	temperature (°C)	Stokes	anti-Stokes-747.200	10.252	0.138	0.105
-746.185	-20.841	-0.322	0.198
-745.171	37.401	0.285	0.253
-744.156	177.212	-0.186	-0.271
-743.142	-186.630	0.432	-0.006
-742.127	800.000	-0.084	0.235
-741.112	45.038	-0.269	-0.247
-740.098	-200.000	0.002	0.282
-739.083	-200.000	0.021	0.106
-738.069	271.140	0.128	0.225
-737.054	-0.595	0.113	0.080
-736.039	-78.788	-0.267	-0.091
-735.025	691.407	0.018	0.047
-734.010	290.340	-0.132	-0.240
-732.996	-45.235	-0.223	-0.111
-731.981	-89.029	-0.411	-0.121
-730.966	16.156	-0.015	0.012
-729.952	-200.000	-0.021	0.152
-728.937	800.000	0.067	-0.213
-727.923	-144.019	-0.230	0.022
-726.908	24.528	-0.219	0.181
-725.894	-200.000	0.020	-0.158
-724.879	-103.575	-0.082	-0.019
-723.864	33.178	-0.164	0.142
-722.850	558.572	0.149	0.360
-721.835	60.352	0.238	-0.235
-720.821	-200.000	-0.015	0.101
-719.806	-88.014	-0.408	-0.123
-718.791	-131.237	0.038	-0.005
-717.777	-200.000	-0.004	-0.150
-716.762	-81.850	0.188	-0.062
-715.748	457.005	0.103	-0.228
-714.733	-200.000	0.018	-0.281
-713.718	-160.000	-0.179	0.010
-712.704	211.668	0.117	-0.185
-711.689	-140.119	0.139	-0.015
-710.675	22.161	-0.078	-0.063
-709.660	-38.092	-0.294	-0.156
-708.645	-200.000	0.024	0.337
-707.631	-45.634	0.095	-0.047
-706.616	800.000	-0.019	-0.069
-705.602	800.000	-0.081	-0.317
-704.587	133.269	-0.113	-0.145
-703.572	-200.000	0.042	0.422
-702.558	-147.817	-0.295	-0.025
-701.543	256.062	0.083	0.143
-700.529	800.000	0.138	0.387
-699.514	-200.000	0.063	-0.336
-698.499	-108.734	-0.329	-0.070
-697.485	-170.280	0.267	-0.009
-696.470	-200.000	0.024	-0.131
-695.456	204.293	-0.074	-0.115
-694.441	-51.860	-0.208	-0.096
-693.426	83.627	0.281	0.306
-692.412	-148.974	-0.185	-0.015
-691.397	-38.656	0.317	0.167
-690.383	3.619	-0.134	-0.097
-689.368	-70.626	0.102	0.039
-688.354	-123.016	-0.379	-0.061
-687.339	-137.114	0.279	-0.032
-686.324	132.140	-0.174	-0.224
-685.310	-98.402	-0.286	-0.073
-684.295	-200.000	0.036	-0.402
-683.281	218.571	-0.233	0.372
-682.266	-66.351	0.131	0.052
-681.251	151.235	0.109	-0.148
-680.237	-55.651	0.097	-0.043
-679.222	-124.272	-0.287	0.045
-678.208	-94.969	-0.142	0.038
-677.193	81.039	-0.189	-0.204
-676.178	104.151	0.105	-0.123
-675.164	-168.913	0.134	0.005
-674.149	44.098	-0.243	0.223
-673.135	-12.833	0.270	0.175
-672.120	-200.000	0.008	0.088
-671.105	-53.891	0.264	0.120
-670.091	486.497	-0.075	0.170
-669.076	-200.000	0.020	0.260
-668.062	167.704	0.208	-0.295
-667.047	53.247	0.041	0.039
-666.032	-200.000	-0.008	0.187
-665.018	-200.000	-0.004	0.291
-664.003	-97.912	0.369	-0.095
-662.989	-37.347	0.205	0.109
-661.974	-88.485	-0.403	-0.120
-660.959	-200.000	0.009	0.138
-659.945	-35.348	-0.089	0.048
-658.930	-117.417	-0.237	-0.043
-657.916	-52.637	0.164	-0.075
-656.901	-200.000	0.020	-0.194
-655.886	-35.483	-0.345	-0.187
-654.872	176.763	0.155	-0.224
-653.857	-200.000	0.060	-0.472
-652.843	-84.464	-0.212	-0.067
-651.828	-200.000	-0.006	0.087
-650.814	-13.156	0.186	0.120
-649.799	201.247	-0.079	-0.121
-648.784	-200.000	0.015	0.071
-647.770	800.000	-0.039	0.108
-646.755	111.344	0.194	-0.233
-645.741	-200.000	0.004	0.106
-644.726	435.049	-0.154	0.333
-643.711	143.005	-0.068	0.091
-642.697	-140.731	0.317	-0.033
-641.682	746.861	0.042	-0.112
-640.668	385.097	-0.037	0.076
-639.653	495.555	0.190	-0.434
-638.638	-200.000	-0.073	0.521
-637.624	174.371	0.139	-0.200
-636.609	107.639	0.079	-0.094
-635.595	389.150	0.077	-0.158
-634.580	33.161	0.121	-0.105
-633.565	36.938	-0.185	-0.163
-632.551	-200.000	0.023	-0.400
-631.536	-12.365	-0.117	-0.076
-630.522	800.000	0.054	-0.168
-629.507	71.347	-0.134	0.138
-628.492	-200.000	-0.051	0.423
-627.478	18.233	0.166	-0.132
-626.463	66.324	0.056	-0.057
-625.449	-133.781	0.265	-0.033
-624.434	-200.000	0.017	-0.136
-623.419	176.805	-0.193	-0.280
-622.405	522.179	-0.155	0.361
-621.390	92.130	0.186	-0.208
-620.376	-200.000	0.006	0.261
-619.361	-200.000	-0.020	-0.152
-618.346	-200.000	-0.005	0.047
-617.332	429.322	-0.100	0.215
-616.317	94.980	-0.163	0.184
-615.303	-112.846	0.356	-0.070
-614.288	-136.155	0.008	-0.001
-613.273	-200.000	-0.029	0.242
-612.259	-56.368	0.143	0.063
-611.244	81.234	-0.013	-0.014
-610.230	-100.279	0.303	-0.075
-609.215	163.807	0.225	0.316
-608.201	79.946	-0.159	-0.170
-607.186	-200.000	0.018	-0.230
-606.171	391.018	-0.143	0.294
-605.157	4.007	-0.249	0.181
-604.142	800.000	-0.021	0.070
-603.128	356.304	0.091	-0.180
-602.113	800.000	0.084	-0.310
-601.098	-47.080	-0.097	0.047
-600.084	470.419	-0.079	-0.176
-599.069	-138.397	-0.205	0.023
-598.055	68.742	0.184	0.188
-597.040	2.260	-0.021	0.015
-596.025	-46.294	0.231	-0.113
-595.011	-200.000	0.000	-0.007
-593.996	-200.000	0.007	-0.187
-592.982	-35.777	0.248	0.133
-591.967	800.000	-0.015	-0.042
-590.952	650.157	-0.069	0.175
-589.938	-169.528	-0.320	-0.012
-588.923	264.109	-0.141	-0.244
-587.909	-171.745	-0.171	0.006
-586.894	127.347	0.274	0.346
-585.879	-108.963	-0.117	0.025
-584.865	-200.000	-0.051	-0.342
-583.850	-105.398	0.112	0.025
-582.836	800.000	0.063	0.212
-581.821	120.839	0.152	-0.188
-580.806	73.334	-0.221	-0.230
-579.792	-22.074	-0.141	0.085
-578.777	475.498	-0.041	-0.091
-577.763	175.472	-0.058	-0.084
-576.748	-200.000	0.005	0.145
-575.733	-184.077	-0.137	-0.002
-574.719	-3.585	0.305	0.211
-573.704	-200.000	-0.004	-0.104
-572.690	-161.854	-0.030	-0.002
-571.675	-25.087	-0.042	0.025
-570.661	222.279	0.103	0.165
-569.646	-200.000	0.018	0.217
-568.631	464.609	-0.068	-0.151
-567.617	76.599	-0.310	0.327
-566.602	800.000	-0.018	-0.075
-565.588	288.247	0.118	-0.212
-564.573	405.949	-0.084	0.176
-563.558	-200.000	0.012	-0.395
-562.544	-28.365	-0.138	0.079
-561.529	10.694	0.211	0.160
-560.515	215.228	-0.106	0.166
-559.500	-200.000	-0.010	-0.248
-558.485	800.000	0.105	-0.326
-557.471	-200.000	0.016	-0.209
-556.456	165.498	0.170	-0.238
-555.442	-200.000	-0.004	-0.083
-554.427	53.763	0.230	-0.219
-553.412	-107.782	0.109	0.024
-552.398	-29.405	-0.103	0.059
-551.383	-200.000	0.005	0.121
-550.369	26.417	0.216	0.179
-549.354	-1.356	-0.338	0.237
-548.339	123.416	-0.084	-0.105
-547.325	-200.000	0.074	0.357
-546.310	-200.000	0.030	-0.141
-545.296	-148.906	-0.199	0.016
-544.281	-200.000	0.005	-0.170
-543.266	-43.458	0.205	-0.103
-542.252	504.241	0.108	0.248
-541.237	-58.734	-0.156	0.067
-540.223	-94.533	-0.257	0.069
-539.208	-84.329	0.066	0.021
-538.193	202.202	0.030	-0.047
-537.179	285.753	-0.250	-0.448
-536.164	800.000	-0.034	-0.146
-535.150	269.702	-0.115	0.200
-534.135	122.144	-0.165	0.204
-533.121	245.841	0.160	0.267
-532.106	-91.230	-0.341	0.097
-531.091	45.020	-0.181	0.165
-530.077	-200.000	0.017	-0.324
-529.062	-200.000	-0.100	-0.439
-528.048	420.403	-0.062	0.132
-527.033	-40.035	0.137	-0.071
-526.018	-89.219	-0.224	-0.065
-525.004	341.229	0.060	0.116
-523.989	194.396	0.119	0.179
-522.975	-177.961	-0.167	0.004
-521.960	67.325	0.107	0.109
-520.945	-141.153	-0.278	0.028
-519.931	155.694	0.056	-0.076
-518.916	800.000	-0.054	-0.155
-517.902	499.177	-0.093	-0.213
-516.887	253.969	0.142	-0.241
-515.872	540.294	-0.063	0.149
-514.858	-200.000	0.005	-0.187
-513.843	75.300	-0.159	0.167
-512.829	176.236	0.030	0.043
-511.814	-61.891	0.067	0.028
-510.799	33.970	-0.241	0.208
-509.785	-174.584	0.350	0.010
-508.770	85.071	-0.065	-0.071
-507.756	181.961	-0.188	0.275
-506.741	25.192	0.064	-0.053
-505.726	-200.000	-0.022	0.492
-504.712	350.816	0.159	-0.311
-503.697	-121.879	0.094	-0.015
-502.683	-79.285	-0.124	0.041
-501.668	-200.000	0.058	0.286
-500.653	378.491	0.152	0.307
-499.639	-200.000	0.020	0.299
-498.624	179.839	0.178	0.259
-497.610	361.955	-0.124	0.246
-496.595	-200.000	0.083	0.395
-495.581	-85.485	-0.206	-0.064
-494.566	-141.157	-0.174	0.018
-493.551	-86.146	0.191	0.058
-492.537	-0.478	0.125	0.088
-491.522	135.524	-0.134	-0.173
-490.508	-152.512	-0.047	0.003
-489.493	157.796	0.065	0.089
-488.478	-200.000	-0.013	-0.169
-487.464	-88.436	0.076	0.023
-486.449	-38.019	-0.213	0.112
-485.435	-200.000	0.063	0.332
-484.420	67.782	0.230	0.232
-483.405	54.860	0.114	-0.109
-482.391	-200.000	-0.042	-0.196
-481.376	293.470	0.028	-0.050
-480.362	-200.000	0.004	0.153
-479.347	-151.387	0.429	-0.032
-478.332	-200.000	0.010	-0.151
-477.318	-200.000	0.013	-0.079
-476.303	18.748	-0.088	0.070
-475.289	290.653	0.009	-0.016
-474.274	1.836	-0.208	0.149
-473.259	-200.000	-0.002	-0.061
-472.245	-200.000	0.010	0.128
-471.230	449.037	0.140	-0.304
-470.216	-57.775	-0.113	-0.049
-469.201	41.363	-0.306	-0.274
-468.186	-43.994	0.176	-0.088
-467.172	228.137	0.128	0.206
-466.157	26.256	0.128	0.106
-465.143	374.550	0.119	0.240
-464.128	-190.045	-0.023	0.000
-463.113	800.000	-0.049	0.136
-462.099	15.974	-0.150	-0.117
-461.084	-149.435	0.222	0.017
-460.070	-147.255	0.200	-0.017
-459.055	-200.000	0.005	0.105
-458.040	364.156	0.030	0.060
-457.026	-100.090	-0.417	-0.103
-456.011	663.702	0.166	-0.424
-454.997	-200.000	-0.009	-0.092
-453.982	-80.131	-0.277	0.092
-452.968	28.043	0.155	0.130
-451.953	-200.000	-0.004	-0.048
-450.938	134.764	-0.075	0.097
-449.924	-200.000	-0.038	-0.194
-448.909	800.000	-0.076	-0.237
-447.895	-8.843	0.152	-0.101
-446.880	-200.000	0.001	0.045
-445.865	-87.703	-0.251	-0.075
-444.851	93.251	-0.074	-0.082
-443.836	-17.563	-0.305	0.189
-442.822	-152.308	0.224	0.016
-441.807	-200.000	-0.084	-0.402
-440.792	-200.000	0.038	-0.251
-439.778	154.354	0.160	0.216
-438.763	-33.249	0.259	0.142
-437.749	-44.095	0.208	0.103
-436.734	800.000	0.066	0.217
-435.719	-200.000	-0.005	-0.080
-434.705	156.478	0.119	-0.163
-433.690	453.447	-0.065	0.143
-432.676	-31.383	-0.246	-0.137
-431.661	362.832	-0.036	-0.072
-430.646	-132.341	-0.311	0.040
-429.632	-121.950	-0.184	-0.030
-428.617	180.551	0.033	-0.048
-427.603	-181.045	-0.129	-0.003
-426.588	-84.052	0.180	0.057
-425.573	-200.000	-0.038	-0.181
-424.559	98.230	0.134	0.152
-423.544	129.730	-0.236	0.297
-422.530	57.333	-0.164	-0.158
-421.515	518.895	-0.094	-0.218
-420.500	16.585	-0.146	-0.114
-419.486	-200.000	-0.003	-0.159
-418.471	-189.867	0.110	-0.001
-417.457	236.988	0.025	0.041
-416.442	3.159	-0.224	-0.161
-415.428	610.510	0.042	0.103
-414.413	-64.353	0.061	-0.025
-413.398	-144.750	-0.240	0.022
-412.384	800.000	-0.080	0.303
-411.369	-185.093	-0.055	0.001
-410.355	-56.057	-0.363	0.160
-409.340	-200.000	0.007	-0.144
-408.325	-200.000	-0.018	-0.428
-407.311	-106.240	0.090	-0.020
-406.296	-200.000	0.027	-0.122
-405.282	-200.000	-0.049	-0.241
-404.267	403.968	0.059	0.122
-403.252	23.336	0.257	-0.209
-402.238	-75.627	-0.234	-0.082
-401.223	-60.768	0.143	0.060
-400.209	800.000	-0.047	0.160
-399.194	-200.000	-0.021	-0.361
-398.179	673.899	-0.061	-0.157
-397.165	-200.000	-0.021	0.131
-396.150	131.820	0.139	-0.176
-395.136	201.190	0.129	-0.196
-394.121	-135.222	0.138	-0.016
-393.106	167.274	0.315	0.442
-392.092	284.045	0.090	-0.160
-391.077	49.268	0.055	-0.051
-390.063	29.367	-0.176	0.148
-389.048	800.000	0.066	0.209
-388.033	-200.000	-0.055	0.341
-387.019	-37.630	0.097	0.051
-386.004	-128.041	-0.265	-0.037
-384.990	45.512	-0.113	-0.103
-383.975	22.701	0.230	-0.186
-382.960	133.242	0.148	-0.188
-381.946	137.442	-0.111	0.144
-380.931	-118.988	0.165	0.029
-379.917	-178.223	0.101	0.002
-378.902	-147.729	0.175	-0.014
-377.888	441.435	0.214	-0.462
-376.873	-71.487	0.348	0.128
-375.858	-8.620	-0.080	-0.053
-374.844	579.797	-0.061	-0.146
-373.829	-181.049	-0.265	-0.005
-372.815	-40.189	-0.292	-0.150
-371.800	800.000	-0.060	0.198
-370.785	521.388	-0.101	0.233
-369.771	800.000	-0.105	-0.355
-368.756	180.722	0.175	-0.253
-367.742	422.934	0.072	0.153
-366.727	-200.000	-0.008	0.037
-365.712	-42.099	-0.190	0.096
-364.698	-95.932	-0.268	0.070
-363.683	-134.064	-0.292	-0.036
-362.669	135.500	0.276	0.354
-361.654	-191.685	0.126	-0.001
-360.639	-87.690	0.287	0.085
-359.625	84.369	-0.067	0.072
-358.610	-200.000	-0.072	-0.380
-357.596	165.185	-0.254	0.354
-356.581	800.000	0.110	0.374
-355.566	504.654	0.029	0.066
-354.552	-154.604	-0.237	0.016
-353.537	72.710	0.190	-0.195
-352.523	306.687	-0.044	0.081
-351.508	-200.000	0.005	0.128
-350.493	160.026	-0.120	0.165
-349.479	200.936	0.081	-0.123
-348.464	-200.000	0.009	-0.074
-347.450	800.000	0.047	-0.140
-346.435	111.367	-0.256	-0.304
-345.420	128.098	-0.006	0.007
-344.406	-84.707	0.134	-0.041
-343.391	-200.000	-0.002	-0.064
-342.377	-17.533	-0.116	-0.072
-341.362	401.425	0.077	0.160
-340.348	-124.025	0.053	0.008
-339.333	473.300	0.098	-0.217
-338.318	612.760	0.107	-0.263
-337.304	744.112	-0.124	-0.329
-336.289	-200.000	0.023	-0.116
-335.275	-198.400	-0.060	-0.000
-334.260	734.270	0.047	-0.124
-333.245	-200.000	0.046	-0.219
-332.231	-103.578	-0.217	0.050
-331.216	-44.243	-0.402	0.198
-330.202	-200.000	-0.065	0.314
-329.187	-27.145	-0.327	-0.187
-328.172	800.000	-0.050	-0.161
-327.158	-22.895	0.147	-0.088
-326.143	16.515	-0.098	-0.077
-325.129	-13.897	-0.052	0.033
-324.114	-100.841	0.363	-0.088
-323.099	49.994	-0.100	-0.093
-322.085	146.162	-0.145	-0.191
-321.070	800.000	-0.110	-0.314
-320.056	675.743	-0.069	-0.175
-319.041	359.824	-0.148	0.291
-318.026	-74.215	-0.226	-0.080
-317.012	72.134	0.439	0.449
-315.997	800.000	0.091	-0.272
-314.983	-111.331	0.091	0.018
-313.968	448.470	0.079	0.171
-312.953	329.382	-0.173	-0.328
-311.939	26.781	0.166	-0.136
-310.924	60.538	0.146	0.142
-309.910	-188.135	-0.168	-0.002
-308.895	-200.000	0.098	0.497
-307.880	-65.606	-0.318	0.125
-306.866	351.838	-0.037	-0.072
-305.851	75.895	-0.055	0.057
-304.837	44.182	-0.222	0.200
-303.822	392.405	-0.127	0.259
-302.807	84.890	0.194	0.210
-301.793	549.643	0.049	-0.116
-300.778	-200.000	-0.043	0.191
-299.764	319.618	-0.206	0.384
-298.749	-72.085	0.159	0.058
-297.735	800.000	0.129	-0.495
-296.720	-69.422	0.175	0.066
-295.705	-200.000	-0.006	-0.045
-294.691	90.882	-0.061	0.067
-293.676	-55.381	-0.140	0.062
-292.662	310.957	0.121	-0.223
-291.647	-200.000	0.009	-0.274
-290.632	800.000	-0.134	-0.401
-289.618	-109.848	0.208	0.043
-288.603	800.000	0.131	0.362
-287.589	-137.340	-0.067	-0.007
-286.574	800.000	0.066	-0.256
-285.559	-109.250	0.131	0.027
-284.545	-200.000	0.001	-0.286
-283.530	189.085	-0.144	-0.212
-282.516	532.317	0.184	-0.429
-281.501	104.929	0.067	0.078
-280.486	-118.345	0.402	-0.070
-279.472	100.601	-0.007	-0.007
-278.457	-47.020	0.188	0.090
-277.443	-75.422	-0.418	-0.146
-276.428	-86.283	0.332	0.101
-275.413	47.237	-0.190	0.173
-274.399	-200.000	-0.001	0.267
-273.384	222.310	-0.101	-0.159
-272.370	-200.000	-0.032	0.146
-271.355	-200.000	0.031	0.239
-270.340	7.283	0.033	0.024
-269.326	800.000	0.131	0.517
-268.311	62.445	0.012	0.012
-267.297	198.433	-0.229	0.345
-266.282	-52.063	-0.488	0.223
-265.267	8.162	0.169	-0.125
-264.253	60.861	0.234	0.228
-263.238	800.000	0.039	-0.117
-262.224	800.000	-0.043	0.129
-261.209	53.644	-0.226	0.213
-260.195	-73.573	-0.245	0.088
-259.180	800.000	0.086	0.277
-258.165	144.275	-0.156	-0.204
-257.151	-200.000	-0.018	-0.270
-256.136	800.000	0.134	-0.370
-255.122	-200.000	-0.039	-0.249
-254.107	-153.987	0.354	0.024
-253.092	16.800	0.147	0.114
-252.078	-200.000	-0.016	-0.107
-251.063	-200.000	-0.050	0.271
-250.049	-200.000	0.033	-0.175
-249.034	-200.000	0.040	0.179
-248.019	-93.642	0.360	-0.097
-247.005	497.341	0.138	0.311
-245.990	-100.147	0.128	-0.031
-244.976	-200.000	-0.006	0.087
-243.961	-117.373	-0.091	-0.016
-242.946	84.348	-0.064	-0.068
-241.932	800.000	0.155	0.456
-240.917	-200.000	0.035	0.156
-239.903	146.444	-0.166	-0.219
-238.888	-154.597	0.238	0.016
-237.873	120.143	-0.199	0.242
-236.859	-200.000	0.011	-0.071
-235.844	70.492	0.213	-0.216
-234.830	800.000	0.052	-0.184
-233.815	321.432	-0.083	0.155
-232.800	-30.246	0.451	-0.251
-231.786	136.844	0.082	0.105
-230.771	55.822	-0.080	-0.076
-229.757	800.000	-0.080	0.280
-228.742	-200.000	-0.003	0.044
-227.727	-49.087	-0.127	0.060
-226.713	-117.285	0.188	-0.033
-225.698	155.119	0.178	-0.241
-224.684	-200.000	-0.038	-0.183
-223.669	139.759	0.093	-0.120
-222.655	149.462	0.089	-0.117
-221.640	-194.279	-0.154	-0.001
-220.625	-86.976	-0.183	-0.055
-219.611	800.000	0.064	-0.202
-218.596	-128.526	-0.440	-0.061
-217.582	73.411	-0.148	-0.152
-216.567	51.333	-0.186	0.173
-215.552	-186.709	0.476	-0.007
-214.538	438.065	0.145	-0.309
-213.523	-70.090	-0.353	0.131
-212.509	-200.000	-0.005	0.206
-211.494	112.198	-0.141	-0.167
-210.479	-27.215	0.200	-0.114
-209.465	49.186	0.038	0.035
-208.450	84.832	0.112	-0.120
-207.436	279.212	-0.146	-0.256
-206.421	-34.854	-0.116	0.062
-205.406	-70.937	-0.194	0.072
-204.392	73.051	-0.127	-0.130
-203.377	-200.000	-0.033	0.189
-202.363	35.943	-0.087	0.075
-201.348	44.911	0.068	-0.061
-200.333	178.954	-0.050	-0.071
-199.319	-24.548	-0.085	-0.049
-198.304	-34.094	-0.047	-0.026
-197.290	3.180	0.336	-0.239
-196.275	-43.397	-0.180	-0.089
-195.260	-200.000	-0.008	0.056
-194.246	-63.902	0.112	-0.045
-193.231	-49.915	0.284	0.132
-192.217	1.040	0.243	0.171
-191.202	-90.478	-0.200	-0.057
-190.187	219.252	0.299	0.468
-189.173	-138.832	0.305	-0.033
-188.158	241.509	0.092	0.150
-187.144	179.773	-0.101	-0.145
-186.129	73.989	0.196	-0.201
-185.114	800.000	-0.060	0.186
-184.100	326.342	-0.050	-0.095
-183.085	-140.387	-0.099	-0.010
-182.071	82.465	0.243	0.258
-181.056	122.815	-0.156	0.191
-180.042	177.549	0.162	-0.231
-179.027	750.164	-0.100	0.263
-178.012	-28.499	0.244	0.138
-176.998	191.738	-0.128	0.189
-175.983	33.039	0.428	0.363
-174.969	97.574	-0.236	0.265
-173.954	-115.249	-0.221	0.041
-172.939	34.799	-0.093	0.080
-171.925	800.000	0.011	0.034
-170.910	-100.021	0.197	-0.048
-169.896	-116.467	-0.063	-0.011
-168.881	227.164	-0.166	-0.264
-167.866	-56.369	0.210	0.091
-166.852	-200.000	0.040	-0.216
-165.837	-200.000	0.002	0.184
-164.823	-200.000	0.004	-0.032
-163.808	10.108	-0.261	-0.194
-162.793	-34.150	-0.268	0.144
-161.779	-149.566	0.235	0.018
-160.764	51.710	-0.055	0.051
-159.750	-18.734	0.205	0.125
-158.735	-73.006	-0.161	0.058
-157.720	-99.890	-0.163	-0.040
-156.706	-186.929	0.117	0.002
-155.691	164.660	0.067	-0.093
-154.677	-57.929	0.202	-0.086
-153.662	16.328	-0.136	0.105
-152.647	-97.414	0.109	-0.028
-151.633	611.740	0.080	-0.195
-150.618	7.270	-0.287	-0.210
-149.604	-200.000	-0.023	-0.172
-148.589	-200.000	0.037	-0.186
-147.574	-59.492	-0.137	-0.058
-146.560	800.000	-0.110	-0.405
-145.545	135.084	-0.079	-0.100
-144.531	-200.000	0.005	0.043
-143.516	-200.000	0.043	-0.253
-142.502	-73.455	-0.060	0.021
-141.487	-47.976	0.172	0.081
-140.472	-49.552	0.309	-0.144
-139.458	-119.040	0.093	0.016
-138.443	800.000	-0.092	-0.347
-137.429	-97.068	-0.232	-0.059
-136.414	186.425	0.161	0.234
-135.399	72.683	-0.098	0.099
-134.385	114.687	-0.384	-0.457
-133.370	268.188	-0.053	-0.090
-132.356	-138.550	-0.230	-0.025
-131.341	38.212	-0.101	0.088
-130.326	800.000	0.058	0.191
-129.312	-154.493	0.149	0.010
-128.297	-114.629	0.337	-0.063
-127.283	-112.592	-0.320	-0.062
-126.268	45.244	0.085	-0.076
-125.253	76.572	0.183	-0.189
-124.239	49.568	0.180	-0.166
-123.224	800.000	0.051	0.192
-122.210	-200.000	-0.011	-0.048
-121.195	20.129	0.261	-0.206
-120.180	800.000	0.067	0.193
-119.166	32.276	-0.254	0.214
-118.151	800.000	0.054	0.214
-117.137	-200.000	-0.005	0.117
-116.122	-133.545	0.078	0.010
-115.107	122.979	0.093	0.114
-114.093	180.787	0.074	0.106
-113.078	503.180	0.157	0.353
-112.064	-113.381	-0.073	0.014
-111.049	800.000	-0.024	-0.090
-110.034	-48.186	-0.167	-0.078
-109.020	135.480	-0.099	-0.126
-108.005	-200.000	-0.078	0.486
-106.991	800.000	0.184	0.611
-105.976	-117.067	-0.184	0.033
-104.962	201.961	0.032	-0.047
-103.947	-38.953	-0.091	-0.047
-102.932	-200.000	0.019	0.113
-101.918	607.380	0.105	-0.255
-100.903	17.641	-0.245	-0.190
-99.889	461.311	0.066	0.144
-98.874	800.000	0.063	0.238
-97.859	48.967	0.304	-0.279
-96.845	-200.000	0.022	-0.200
-95.830	286.556	-0.066	0.115
-94.816	281.574	-0.084	-0.147
-93.801	46.308	0.243	0.220
-92.786	800.000	-0.047	0.155
-91.772	-120.869	-0.144	-0.024
-90.757	118.196	-0.042	0.051
-89.743	57.242	-0.076	0.072
-88.728	62.855	0.071	-0.069
-87.713	-29.929	-0.142	0.079
-86.699	-147.081	0.091	-0.008
-85.684	-149.579	0.146	0.011
-84.670	-51.247	0.288	-0.132
-83.655	800.000	0.068	0.222
-82.640	-67.330	-0.318	-0.122
-81.626	-200.000	0.008	-0.250
-80.611	-120.431	-0.332	0.055
-79.597	38.663	0.091	0.079
-78.582	-56.138	0.319	-0.138
-77.567	519.924	0.034	0.078
-76.553	-3.302	0.159	0.108
-75.538	33.769	-0.043	-0.037
-74.524	96.796	0.050	-0.056
-73.509	62.800	-0.328	0.320
-72.494	800.000	-0.056	-0.155
-71.480	-200.000	0.021	0.410
-70.465	21.624	-0.308	0.244
-69.451	175.526	0.165	-0.233
-68.436	-22.211	-0.200	-0.118
-67.422	800.000	0.063	0.203
-66.407	-80.748	-0.293	0.095
-65.392	296.512	-0.093	0.167
-64.378	-87.333	-0.133	0.039
-63.363	23.748	0.057	0.046
-62.349	-200.000	-0.002	-0.445
-61.334	196.367	-0.979	-1.452
-60.319	12.054	1.025	0.768
-59.305	-200.000	-0.230	-1.108
-58.290	244.451	0.702	1.149
-57.276	800.000	0.583	1.812
-56.261	-200.000	125.045	674.584
-55.246	433.420	1571.591	3321.908
-54.232	143.724	2726.355	3537.200
-53.217	96.847	2173.127	2424.651
-52.203	34.173	1691.931	1435.975
-51.188	26.678	1509.303	1230.252
-50.173	24.729	1485.463	1197.733
-49.159	49.436	1557.056	1426.249
-48.144	46.345	1569.401	1416.266
-47.130	26.818	1518.863	1238.803
-46.115	23.894	1501.966	1205.193
-45.100	23.675	1498.501	1200.881
-44.086	23.596	1497.319	1199.354
-43.071	23.564	1495.230	1197.417
-42.057	23.487	1493.642	1195.574
-41.042	23.510	1492.205	1194.532
-40.027	23.525	1490.720	1193.401
-39.013	23.500	1488.937	1191.759
-37.998	23.473	1488.282	1191.005
-36.984	23.530	1486.753	1190.113
-35.969	23.501	1485.509	1188.877
-34.954	23.547	1483.565	1187.581
-33.940	23.451	1482.481	1186.027
-32.925	23.360	1481.676	1184.725
-31.911	23.556	1480.075	1184.709
-30.896	23.620	1478.653	1183.947
-29.881	23.672	1477.221	1183.099
-28.867	23.614	1475.534	1181.317
-27.852	23.592	1474.827	1180.558
-26.838	23.575	1473.497	1179.337
-25.823	23.698	1471.761	1178.715
-24.809	23.699	1469.688	1177.012
-23.794	23.626	1468.631	1175.640
-22.779	23.621	1467.304	1174.499
-21.765	23.637	1466.336	1173.782
-20.750	23.555	1465.737	1172.712
-19.736	23.590	1464.045	1171.543
-18.721	23.518	1463.169	1170.324
-17.706	23.530	1462.007	1169.422
-16.692	23.625	1460.452	1168.756
-15.677	23.538	1460.370	1168.074
-14.663	23.527	1459.527	1167.282
-13.648	23.627	1458.109	1166.761
-12.633	23.601	1457.283	1165.882
-11.619	23.408	1456.982	1164.328
-10.604	23.536	1455.326	1163.794
-9.590	23.586	1454.764	1163.628
-8.575	23.556	1453.829	1162.634
-7.560	23.501	1453.263	1161.779
-6.546	23.702	1451.599	1161.715
-5.531	23.673	1450.960	1160.969
-4.517	23.662	1449.792	1159.915
-3.502	23.536	1449.358	1158.703
-2.487	23.546	1448.191	1157.790
-1.473	23.563	1447.175	1157.038
-0.458	23.486	1446.332	1155.820
0.556	22.378	1435.983	1143.100
1.571	19.013	1410.867	1101.498
2.586	15.172	1350.358	1030.581
3.600	13.514	1267.181	957.436
4.615	12.544	1223.481	918.918
5.629	10.949	1168.039	868.687
6.644	5.824	1087.948	783.507
7.659	1.372	1053.240	736.877
8.673	0.842	1047.481	730.226
9.688	0.773	1044.256	727.581
10.702	0.756	1043.029	726.580
11.717	0.668	1040.842	724.570
12.731	2.344	1041.944	733.311
13.746	8.443	1049.636	768.047
14.761	14.636	1057.342	803.518
15.775	17.179	1060.416	818.044
16.790	17.105	1059.022	816.539
17.804	16.059	1056.840	809.761
18.819	15.037	1055.580	803.821
19.834	14.786	1053.783	801.176
20.848	14.575	1052.688	799.265
21.863	14.220	1051.937	796.922
22.877	14.028	1050.928	795.168
23.892	13.860	1050.414	793.908
24.907	13.733	1049.836	792.790
25.921	13.666	1049.159	791.891
26.936	13.830	1047.913	791.664
27.950	13.819	1047.666	791.354
28.965	13.866	1046.864	790.902
29.980	13.765	1046.179	789.832
30.994	13.889	1045.153	789.578
32.009	14.009	1043.874	789.113
33.023	14.028	1043.513	788.857
34.038	14.016	1042.382	787.880
35.053	13.943	1041.933	787.120
36.067	13.975	1040.811	786.356
37.082	13.801	1040.497	785.227
38.096	13.869	1039.108	784.430
39.111	13.929	1038.759	784.379
40.126	13.929	1038.016	783.750
41.140	13.985	1036.973	783.159
42.155	13.721	1036.010	781.117
43.169	13.781	1035.095	780.641
44.184	13.800	1033.939	779.791
45.199	13.727	1033.109	778.752
46.213	13.848	1032.152	778.530
47.228	13.880	1030.521	777.380
48.242	13.800	1029.951	776.505
49.257	13.815	1029.032	775.814
50.271	13.779	1028.540	775.210
51.286	13.923	1027.057	774.695
52.301	13.955	1026.332	774.229
53.315	13.808	1025.635	772.947
54.330	13.991	1024.826	773.123
55.344	13.971	1024.050	772.374
56.359	13.830	1023.037	770.885
57.374	13.703	1022.592	769.895
58.388	13.712	1021.839	769.299
59.403	13.709	1021.004	768.590
60.417	13.720	1020.276	768.026
61.432	13.804	1019.434	767.713
62.447	13.802	1018.220	766.721
63.461	13.811	1017.809	766.387
64.476	13.796	1016.917	765.579
65.490	13.640	1016.195	764.245
66.505	13.849	1015.065	764.290
67.520	13.689	1014.938	763.391
68.534	13.868	1013.586	763.130
69.549	13.843	1012.905	762.432
70.563	13.755	1012.221	761.448
71.578	13.805	1011.601	761.145
72.593	13.823	1010.286	760.169
73.607	13.660	1009.937	759.095
74.622	13.714	1008.697	758.340
75.636	13.721	1007.846	757.664
76.651	13.646	1006.985	756.612
77.666	13.744	1006.547	756.659
78.680	13.608	1006.048	755.600
79.695	13.738	1005.163	755.456
80.709	13.731	1004.425	754.807
81.724	13.819	1003.331	754.316
82.739	13.778	1002.802	753.668
83.753	13.742	1002.579	753.267
84.768	13.922	1001.368	753.106
85.782	13.921	1001.189	752.901
86.797	13.973	1000.057	752.220
87.812	13.975	999.183	751.505
88.826	13.787	998.289	749.916
89.841	13.802	997.319	749.190
90.855	13.859	996.921	749.082
91.870	14.043	995.711	748.937
92.884	13.871	995.440	747.889
93.899	14.051	994.576	747.986
94.914	13.913	994.201	747.016
95.928	14.038	993.611	747.067
96.943	14.045	992.700	746.348
97.957	13.991	991.839	745.394
98.972	13.984	990.939	744.619
99.987	14.029	990.268	744.250
101.001	13.946	989.003	742.863
102.016	13.891	988.737	742.354
103.030	13.992	987.559	741.854
104.045	13.761	987.179	740.469
105.060	14.003	985.797	740.445
106.074	14.011	984.904	739.748
107.089	13.798	984.068	738.106
108.103	14.004	982.879	738.064
109.118	13.846	982.037	736.664
110.133	13.817	981.563	736.117
111.147	13.778	980.539	735.111
112.162	13.893	980.023	735.168
113.176	13.788	979.349	734.133
114.191	14.080	977.719	734.132
115.206	13.907	977.361	733.039
116.220	14.018	976.013	732.451
117.235	14.017	974.728	731.418
118.249	13.888	974.859	730.881
119.264	13.868	973.933	730.037
120.279	13.947	973.069	729.669
121.293	13.963	972.069	728.924
122.308	13.783	971.660	727.764
123.322	13.887	970.788	727.503
124.337	13.929	969.319	726.522
125.352	13.852	968.552	725.546
126.366	13.829	967.600	724.668
127.381	13.876	966.394	723.907
128.395	13.815	965.235	722.708
129.410	13.982	964.142	722.555
130.424	13.756	963.745	721.208
131.439	13.959	962.860	721.363
132.454	13.773	962.267	720.048
133.468	13.951	961.020	719.822
134.483	13.981	960.618	719.588
135.497	13.885	960.139	718.753
136.512	13.956	958.942	718.098
137.527	14.021	957.908	717.542
138.541	13.903	957.455	716.629
139.556	13.929	957.025	716.357
140.570	13.889	956.186	715.493
141.585	13.954	955.241	715.000
142.600	13.977	954.460	714.451
143.614	13.930	953.816	713.704
144.629	14.103	953.200	713.926
145.643	14.115	952.450	713.351
146.658	14.072	951.473	712.373
147.673	14.064	950.900	711.846
148.687	14.151	950.099	711.553
149.702	14.019	949.351	710.368
150.716	14.033	947.908	709.284
151.731	14.051	947.063	708.665
152.746	14.035	946.488	708.107
153.760	14.026	945.645	707.375
154.775	14.048	945.178	707.055
155.789	14.172	943.989	706.628
156.804	14.122	943.760	706.185
157.819	14.136	942.774	705.445
158.833	14.158	942.179	705.027
159.848	14.086	941.661	704.275
160.862	14.274	940.910	704.445
161.877	14.249	939.728	703.392
162.892	14.278	939.033	702.931
163.906	14.011	938.613	701.428
164.921	14.136	937.448	701.025
165.935	14.137	936.257	700.076
166.950	14.199	935.696	699.856
167.964	14.154	934.822	698.947
168.979	14.114	934.032	698.126
169.994	14.200	933.000	697.655
171.008	14.309	931.985	697.292
172.023	14.247	931.240	696.415
173.037	14.232	930.668	695.860
174.052	14.374	929.819	695.758
175.067	14.336	929.470	695.275
176.081	14.361	928.300	694.445
177.096	14.262	927.746	693.554
178.110	14.309	926.525	692.776
179.125	14.336	925.934	692.387
180.140	14.314	925.315	691.769
181.154	14.355	924.470	691.246
182.169	14.458	923.586	690.955
183.183	14.444	923.278	690.604
184.198	14.388	922.667	689.854
185.213	14.488	922.048	689.742
186.227	14.451	921.371	689.024
187.242	14.554	920.670	688.863
188.256	14.575	919.792	688.230
189.271	14.561	919.203	687.673
190.286	14.438	919.061	686.997
191.300	14.360	918.212	685.983
192.315	14.384	917.023	685.130
193.329	14.265	916.810	684.422
194.344	14.268	915.957	683.740
195.359	14.454	915.329	683.974
196.373	14.411	915.022	683.506
197.388	14.575	914.402	683.653
198.402	14.614	913.455	683.044
199.417	14.637	913.061	682.783
200.432	14.703	912.777	682.779
201.446	14.663	912.616	682.437
202.461	14.703	911.673	681.834
203.475	14.834	910.921	681.746
204.490	14.803	910.484	681.233
205.504	14.740	909.724	680.348
206.519	14.730	908.921	679.645
207.534	14.667	908.095	678.713
208.548	14.710	907.545	678.414
209.563	14.822	906.637	678.130
210.577	14.871	905.952	677.758
211.592	14.812	905.617	677.208
212.607	14.837	905.331	677.035
213.621	14.827	904.524	676.333
214.636	14.930	903.433	675.871
215.650	14.943	903.058	675.583
216.665	14.873	902.243	674.630
217.680	14.971	902.113	674.872
218.694	14.899	901.710	674.221
219.709	14.947	900.707	673.601
220.723	14.953	900.169	673.165
221.738	14.910	899.712	672.590
222.753	14.882	898.890	671.805
223.767	14.988	898.009	671.511
224.782	15.038	897.334	671.148
225.796	14.889	896.610	669.950
226.811	15.096	895.788	670.104
227.826	15.040	895.121	669.322
228.840	15.062	894.695	669.034
229.855	15.067	893.954	668.440
230.869	14.920	893.506	667.460
231.884	14.901	893.282	667.157
232.899	15.080	891.768	666.680
233.913	15.029	891.568	666.267
234.928	14.905	891.231	665.463
235.942	15.016	889.924	664.870
236.957	14.990	889.037	664.044
237.972	15.147	888.502	664.211
238.986	15.201	887.796	663.838
240.001	15.161	887.334	663.274
241.015	15.162	886.573	662.652
242.030	15.194	885.958	662.258
243.045	15.355	885.235	662.294
244.059	15.263	884.688	661.464
245.074	15.336	883.427	660.751
246.088	15.363	883.047	660.516
247.103	15.333	882.720	660.093
248.117	15.317	882.199	659.585
249.132	15.326	881.690	659.179
250.147	15.488	880.748	659.054
251.161	15.410	880.242	658.308
252.176	15.447	879.577	657.898
253.190	15.464	879.137	657.580
254.205	15.552	878.746	657.571
255.220	15.496	877.895	656.659
256.234	15.440	877.013	655.723
257.249	15.647	876.536	656.113
258.263	15.763	876.262	656.304
259.278	15.572	875.755	655.124
260.293	15.735	874.726	654.929
261.307	15.820	874.257	654.852
262.322	15.548	874.052	653.580
263.336	15.656	873.111	653.240
264.351	15.665	873.075	653.189
265.366	15.845	871.672	652.779
266.380	15.828	871.446	652.488
267.395	15.674	870.808	651.356
268.409	15.673	870.306	650.917
269.424	15.833	868.970	650.481
270.439	15.948	868.271	650.345
271.453	15.840	867.773	649.495
272.468	15.805	866.663	648.474
273.482	15.866	866.300	648.379
274.497	15.811	865.971	647.862
275.512	15.756	865.513	647.254
276.526	15.688	864.725	646.343
277.541	15.917	863.944	646.581
278.555	15.957	863.172	646.100
279.570	16.056	862.347	645.805
280.585	15.999	862.542	645.676
281.599	16.034	861.186	644.737
282.614	15.959	860.860	644.150
283.628	15.907	860.396	643.548
284.643	15.946	859.878	643.250
285.657	15.955	859.467	642.921
286.672	16.058	858.839	642.787
287.687	16.015	858.100	642.014
288.701	15.941	858.162	641.722
289.716	15.954	856.939	640.800
290.730	16.028	856.414	640.630
291.745	16.022	855.654	639.986
292.760	16.078	855.323	639.891
293.774	16.089	854.346	639.146
294.789	16.314	853.621	639.398
295.803	16.205	853.542	638.872
296.818	16.147	852.497	637.813
297.833	16.085	852.205	637.304
298.847	16.185	851.442	637.056
299.862	16.268	850.421	636.548
300.876	16.228	850.037	636.051
301.891	16.455	849.051	636.112
302.906	16.277	848.622	635.066
303.920	16.430	847.826	634.989
304.935	16.384	847.704	634.667
305.949	16.271	847.102	633.738
306.964	16.357	846.355	633.444
307.979	16.434	845.699	633.188
308.993	16.345	845.482	632.635
310.008	16.395	844.829	632.276
311.022	16.371	844.465	631.859
312.037	16.366	844.367	631.711
313.052	16.469	843.279	631.224
314.066	16.609	842.566	631.158
315.081	16.549	841.770	630.281
316.095	16.438	841.532	629.635
317.110	16.605	841.008	629.811
318.125	16.454	840.773	629.016
319.139	16.406	840.080	628.262
320.154	16.602	839.430	628.449
321.168	16.632	838.602	627.886
322.183	16.532	838.380	627.291
323.197	16.559	838.011	627.063
324.212	16.594	837.376	626.660
325.227	16.579	836.599	625.969
326.241	16.635	836.193	625.816
327.256	16.721	835.565	625.607
328.270	16.650	834.896	624.791
329.285	16.554	834.225	623.879
330.300	16.633	833.930	623.892
331.314	16.597	833.717	623.546
332.329	16.650	832.866	623.049
333.343	16.741	831.817	622.543
334.358	16.873	831.750	622.926
335.373	16.899	831.141	622.508
336.387	16.763	830.785	621.689
337.402	16.784	830.143	621.228
338.416	16.812	829.619	620.885
339.431	16.896	829.094	620.745
340.446	16.923	828.305	620.198
341.460	16.939	828.021	619.987
342.475	16.964	827.294	619.482
343.489	17.073	826.505	619.235
344.504	17.072	826.110	618.879
345.519	17.123	825.471	618.532
346.533	17.026	825.056	617.811
347.548	17.006	824.823	617.511
348.562	16.990	824.269	616.982
349.577	16.890	823.811	616.222
350.592	16.939	823.416	616.050
351.606	16.932	822.899	615.583
352.621	16.927	822.583	615.273
353.635	16.932	821.909	614.735
354.650	17.017	821.616	614.769
355.665	17.073	821.062	614.503
356.679	17.112	820.434	614.118
357.694	17.148	819.800	613.720
358.708	17.247	819.596	613.870
359.723	17.149	819.120	613.107
360.738	17.194	818.431	612.697
361.752	17.114	817.988	612.023
362.767	17.324	817.201	612.136
363.781	17.196	817.141	611.577
364.796	17.200	816.742	611.237
365.810	17.131	816.503	610.758
366.825	17.203	815.959	610.556
367.840	17.318	815.700	610.721
368.854	17.360	815.065	610.342
369.869	17.343	814.696	609.949
370.883	17.361	813.783	609.278
371.898	17.259	813.724	608.813
372.913	17.372	812.901	608.548
373.927	17.508	812.006	608.309
374.942	17.555	811.236	607.847
375.956	17.452	810.932	607.200
376.971	17.444	810.295	606.640
377.986	17.539	809.738	606.506
379.000	17.489	809.364	605.995
380.015	17.539	809.312	606.080
381.029	17.652	808.376	605.729
382.044	17.616	808.124	605.359
383.059	17.779	806.983	605.029
384.073	17.569	806.751	604.055
385.088	17.635	806.229	603.846
386.102	17.618	805.763	603.383
387.117	17.580	805.104	602.701
388.132	17.644	804.934	602.746
389.146	17.599	804.447	602.168
390.161	17.667	803.898	601.946
391.175	17.792	803.560	602.082
392.190	17.652	803.453	601.452
393.205	17.759	802.970	601.416
394.219	17.855	802.132	601.072
395.234	17.717	801.874	600.342
396.248	17.830	801.452	600.370
397.263	17.590	801.119	599.224
398.278	17.615	800.467	598.769
399.292	17.529	800.112	598.147
400.307	17.721	799.481	598.299
401.321	17.955	798.727	598.501
402.336	17.910	798.479	598.104
403.350	17.734	798.359	597.345
404.365	17.824	798.038	597.366
405.380	17.803	797.212	596.624
406.394	17.976	796.670	596.769
407.409	18.034	796.291	596.634
408.423	17.985	795.669	595.946
409.438	18.017	795.759	596.070
410.453	18.064	794.986	595.603
411.467	18.174	794.403	595.498
412.482	18.080	794.164	594.938
413.496	18.103	793.520	594.483
414.511	18.096	793.442	594.348
415.526	18.173	792.954	594.195
416.540	18.195	792.863	594.152
417.555	18.187	792.549	593.835
418.569	18.062	792.037	592.966
419.584	18.065	791.235	592.326
420.599	18.182	790.738	592.304
421.613	115.915	1296.784	1489.911
422.628	99.796	1370.495	1490.015
