DTS Sentinel unit serial number:	SN413079Multiplexer serial number:	ORYXHardware model number:	OX4-SRSoftware version number:	ORYX F/W v4.00 Oryx Data Collector v3.7.2.0data status	okinstallation	princeton_trtdifferential loss correction	single-endedforward channel	channel 3reverse channel	N/Adate	2019/09/12time	09:34:10forward acquisition time	60.00reverse acquisition time	0.00gamma	496.2192k internal	0.2300k external	0.2300temperature offset calibration	1.0032default loss term (dB/km)	0.3790temperature slope calibration	1.0000multiplexer offset coefficient	1.0000multiplexer slope coefficient	1.0000fibre end	0.00T internal ref (°C)	35.61T ext. ref 1 (°C)	1.82T ext. ref 2 (°C)	32.71length (m)	temperature (°C)	Stokes	anti-Stokes-747.200	-200.000	-0.022	-0.164
-746.185	51.755	-0.244	0.237
-745.171	-24.899	-0.205	-0.124
-744.156	202.685	-0.143	0.225
-743.142	-200.000	0.119	0.555
-742.127	42.165	-0.144	0.133
-741.112	146.198	0.093	0.127
-740.098	800.000	0.071	0.253
-739.083	-200.000	0.026	-0.175
-738.069	396.630	0.096	0.205
-737.054	-200.000	-0.039	-0.252
-736.039	-27.432	-0.381	-0.226
-735.025	58.108	-0.145	-0.145
-734.010	-23.138	-0.130	0.080
-732.996	-55.457	-0.127	0.058
-731.981	236.928	-0.123	0.207
-730.966	496.923	0.083	-0.195
-729.952	-153.597	-0.341	-0.024
-728.937	-200.000	-0.002	-0.094
-727.923	297.726	-0.071	-0.133
-726.908	-83.352	0.119	-0.039
-725.894	31.239	0.098	0.086
-724.879	-124.661	-0.084	0.013
-723.864	-85.156	-0.228	0.073
-722.850	66.040	-0.154	0.159
-721.835	8.453	0.341	-0.262
-720.821	-162.882	-0.118	-0.006
-719.806	-133.629	-0.359	-0.046
-718.791	11.052	-0.282	-0.220
-717.777	-71.993	-0.110	0.042
-716.762	-2.500	-0.274	-0.195
-715.748	-200.000	0.042	0.458
-714.733	800.000	0.076	0.322
-713.718	-5.485	0.318	0.222
-712.704	-32.891	-0.127	-0.072
-711.689	-9.340	0.227	-0.154
-710.675	-45.228	-0.139	-0.070
-709.660	-60.916	-0.177	-0.076
-708.645	-200.000	0.018	-0.302
-707.631	-200.000	-0.023	-0.168
-706.616	-38.119	-0.128	0.069
-705.602	-19.032	-0.122	0.077
-704.587	-121.964	-0.103	-0.017
-703.572	800.000	0.032	-0.106
-702.558	799.719	0.026	0.072
-701.543	-29.111	0.302	0.176
-700.529	-145.923	0.137	0.012
-699.514	109.482	-0.057	-0.070
-698.499	800.000	0.042	0.122
-697.485	-19.560	0.270	-0.170
-696.470	-91.816	-0.501	0.145
-695.456	37.955	-0.146	-0.132
-694.441	33.679	-0.244	-0.216
-693.426	800.000	0.028	-0.090
-692.412	-37.670	-0.232	-0.126
-691.397	194.005	0.235	-0.362
-690.383	-200.000	-0.079	0.389
-689.368	451.097	-0.065	0.146
-688.354	800.000	0.027	0.100
-687.339	521.255	-0.121	0.290
-686.324	-104.444	-0.453	-0.107
-685.310	-200.000	-0.042	-0.273
-684.295	-7.912	0.181	-0.124
-683.281	-200.000	-0.032	0.375
-682.266	78.411	0.073	-0.080
-681.251	221.111	0.119	0.194
-680.237	-78.047	-0.370	-0.130
-679.222	-14.869	-0.346	-0.226
-678.208	-14.530	-0.124	-0.081
-677.193	-143.565	-0.070	-0.007
-676.178	382.259	-0.143	-0.299
-675.164	294.637	-0.091	-0.170
-674.149	799.396	-0.063	-0.176
-673.135	260.040	0.086	0.151
-672.120	114.656	-0.114	-0.142
-671.105	77.664	0.080	-0.086
-670.091	-65.131	-0.189	-0.077
-669.076	0.124	-0.266	0.193
-668.062	-10.331	0.050	0.034
-667.047	405.772	0.087	-0.187
-666.032	-112.843	-0.177	0.036
-665.018	406.467	0.038	-0.082
-664.003	-86.932	0.313	0.097
-662.989	12.910	-0.210	-0.165
-661.974	-125.775	-0.206	0.032
-660.959	683.812	0.059	-0.158
-659.945	-56.563	-0.297	0.134
-658.930	-200.000	0.004	0.112
-657.916	-44.835	-0.111	-0.056
-656.901	121.592	-0.104	0.131
-655.886	-13.266	-0.146	0.097
-654.872	170.138	0.191	0.278
-653.857	-200.000	-0.009	0.329
-652.843	-69.302	-0.023	-0.009
-651.828	-87.528	-0.461	-0.142
-650.814	-47.411	-0.172	0.085
-649.799	53.080	0.164	-0.160
-648.784	-26.678	0.097	-0.058
-647.770	632.542	0.107	0.275
-646.755	-11.892	-0.107	-0.071
-645.741	-30.954	0.095	-0.054
-644.726	-117.976	0.218	-0.040
-643.711	300.886	0.088	0.166
-642.697	-66.884	0.302	-0.121
-641.682	800.000	0.076	0.220
-640.668	538.553	-0.047	-0.115
-639.653	3.942	0.182	0.135
-638.638	86.370	-0.046	0.052
-637.624	-126.473	0.186	-0.028
-636.609	-116.738	-0.080	0.015
-635.595	183.399	-0.195	-0.292
-634.580	129.342	-0.156	-0.202
-633.565	362.184	0.062	0.126
-632.551	85.039	-0.157	-0.174
-631.536	800.000	-0.119	-0.372
-630.522	-60.600	0.099	0.043
-629.507	-93.755	-0.528	-0.148
-628.492	10.538	-0.017	-0.013
-627.478	-23.835	0.114	-0.069
-626.463	-140.048	-0.081	-0.009
-625.449	79.911	0.043	0.047
-624.434	593.240	0.105	0.264
-623.419	800.000	0.054	0.209
-622.405	84.040	0.163	0.180
-621.390	41.443	-0.094	0.087
-620.376	800.000	-0.082	-0.315
-619.361	-108.013	-0.150	0.033
-618.346	-18.232	-0.263	0.167
-617.332	481.841	0.117	0.269
-616.317	-76.384	-0.271	-0.097
-615.303	-4.811	0.102	0.071
-614.288	261.918	0.014	-0.024
-613.273	-4.735	0.048	-0.033
-612.259	-133.542	-0.445	-0.057
-611.244	-113.655	0.156	0.031
-610.230	162.322	-0.145	-0.206
-609.215	69.877	0.025	-0.026
-608.201	-200.000	-0.066	0.306
-607.186	-200.000	0.004	-0.272
-606.171	-74.331	-0.250	-0.092
-605.157	190.467	0.059	-0.090
-604.142	-70.302	-0.072	0.028
-603.128	-89.318	-0.337	0.101
-602.113	-80.505	-0.155	-0.052
-601.098	-200.000	-0.004	0.190
-600.084	-200.000	0.025	-0.245
-599.069	114.739	-0.177	-0.219
-598.055	65.962	0.284	-0.292
-597.040	-48.484	0.088	0.043
-596.025	-46.210	0.121	-0.060
-595.011	-121.045	-0.082	-0.014
-593.996	-200.000	0.020	0.000
-592.982	242.777	0.111	0.189
-591.967	35.432	0.302	0.269
-590.952	-13.674	-0.299	-0.196
-589.938	322.076	0.059	0.114
-588.923	-44.180	-0.312	-0.159
-587.909	-137.437	-0.166	-0.019
-586.894	-200.000	0.006	0.171
-585.879	-200.000	-0.023	0.104
-584.865	-200.000	0.060	-0.336
-583.850	58.165	0.082	0.081
-582.836	-34.537	-0.145	0.081
-581.821	-109.773	-0.359	0.077
-580.806	-100.197	-0.280	0.071
-579.792	646.541	0.030	-0.078
-578.777	-30.189	0.147	-0.084
-577.763	-200.000	-0.003	-0.315
-576.748	-48.109	-0.104	-0.051
-575.733	-13.097	0.197	-0.130
-574.719	51.640	0.244	-0.235
-573.704	-76.993	-0.289	-0.102
-572.690	-200.000	-0.012	0.057
-571.675	-41.452	0.335	0.174
-570.661	51.807	0.145	-0.140
-569.646	-95.660	-0.497	0.135
-568.631	-63.159	0.281	-0.118
-567.617	-108.624	-0.285	-0.062
-566.602	-156.241	-0.255	0.016
-565.588	29.728	-0.335	-0.289
-564.573	31.018	-0.148	-0.128
-563.558	452.442	-0.149	-0.334
-562.544	-200.000	-0.009	-0.044
-561.529	245.315	0.185	0.316
-560.515	-200.000	-0.056	-0.248
-559.500	134.985	0.157	-0.207
-558.485	-200.000	-0.009	0.099
-557.471	-200.000	0.065	-0.394
-556.456	-74.540	0.089	0.032
-555.442	-165.491	-0.219	0.010
-554.427	19.478	-0.234	0.191
-553.412	-35.871	-0.134	0.073
-552.398	215.134	-0.059	-0.094
-551.383	-200.000	0.020	-0.177
-550.369	-200.000	0.007	-0.499
-549.354	-77.407	-0.444	-0.156
-548.339	402.732	-0.098	-0.208
-547.325	-110.217	-0.196	0.041
-546.310	-135.506	0.393	0.047
-545.296	-170.157	0.309	-0.011
-544.281	652.106	0.075	0.195
-543.266	-45.496	-0.187	-0.094
-542.252	40.940	0.260	-0.238
-541.237	-90.586	0.520	-0.152
-540.223	695.216	-0.041	0.110
-539.208	-56.763	-0.129	0.058
-538.193	-113.576	0.326	0.064
-537.179	-78.576	0.455	0.157
-536.164	-200.000	0.035	0.354
-535.150	27.191	-0.254	-0.216
-534.135	-200.000	0.035	0.216
-533.121	-66.576	-0.258	0.103
-532.106	-57.786	-0.111	-0.049
-531.091	767.998	0.088	-0.242
-530.077	-200.000	0.034	-0.225
-529.062	800.000	0.075	0.247
-528.048	16.171	0.327	0.261
-527.033	-120.116	0.114	0.020
-526.018	-80.670	0.039	0.013
-525.004	-25.736	-0.274	-0.163
-523.989	-36.503	0.112	0.061
-522.975	800.000	0.064	-0.231
-521.960	418.172	0.162	0.351
-520.945	31.973	0.123	0.107
-519.931	69.110	-0.136	0.142
-518.916	81.548	0.113	0.124
-517.902	-92.980	-0.020	0.006
-516.887	194.390	0.114	-0.175
-515.872	800.000	0.024	-0.083
-514.858	618.448	0.044	-0.112
-513.843	-2.118	0.110	0.078
-512.829	-83.016	-0.124	0.040
-511.814	-200.000	0.020	-0.157
-510.799	-86.941	0.177	-0.055
-509.785	-46.508	-0.337	-0.167
-508.770	118.880	-0.304	-0.380
-507.756	103.427	-0.146	-0.173
-506.741	445.956	0.116	0.257
-505.726	-84.498	-0.188	-0.060
-504.712	-200.000	-0.049	-0.275
-503.697	-200.000	0.029	0.189
-502.683	-51.508	0.562	0.265
-501.668	-48.838	-0.121	0.059
-500.653	29.008	-0.196	-0.168
-499.639	108.719	-0.079	-0.096
-498.624	-125.974	-0.279	-0.042
-497.610	800.000	0.021	0.068
-496.595	-200.000	-0.005	0.080
-495.581	162.514	0.082	0.117
-494.566	-0.122	-0.227	-0.164
-493.551	-119.341	-0.111	-0.019
-492.537	-53.410	-0.068	0.031
-491.522	61.180	0.201	0.201
-490.508	120.092	-0.220	0.276
-489.493	-192.095	0.097	-0.001
-488.478	-49.752	0.162	-0.078
-487.464	33.828	-0.108	-0.095
-486.449	38.623	0.146	0.132
-485.435	800.000	0.013	-0.049
-484.420	-200.000	0.006	0.341
-483.405	503.355	-0.053	-0.124
-482.391	-162.308	-0.281	0.014
-481.376	61.392	-0.129	0.130
-480.362	800.000	0.050	-0.166
-479.347	-96.424	-0.088	0.024
-478.332	-37.081	-0.181	0.098
-477.318	12.633	0.242	0.189
-476.303	-142.123	0.344	-0.035
-475.289	-200.000	-0.010	-0.078
-474.274	75.788	-0.161	0.172
-473.259	-155.623	0.255	0.017
-472.245	-200.000	-0.065	-0.637
-471.230	-200.000	0.023	-0.147
-470.216	51.122	0.131	0.125
-469.201	-70.640	0.169	-0.065
-468.186	113.529	-0.316	0.387
-467.172	-48.678	-0.146	0.071
-466.157	84.512	0.084	-0.092
-465.143	217.830	0.117	0.188
-464.128	-30.733	-0.149	0.085
-463.113	-68.684	0.131	0.051
-462.099	225.599	0.145	-0.238
-461.084	-200.000	-0.028	-0.124
-460.070	21.359	-0.108	0.089
-459.055	54.842	-0.089	0.086
-458.040	800.000	0.024	-0.105
-457.026	432.352	0.138	0.303
-456.011	29.276	-0.088	-0.075
-454.997	-200.000	0.029	-0.204
-453.982	293.944	0.074	-0.135
-452.968	-200.000	-0.024	-0.186
-451.953	-54.501	-0.180	0.082
-450.938	-200.000	-0.028	0.179
-449.924	800.000	-0.022	-0.073
-448.909	78.900	-0.135	0.146
-447.895	-120.398	0.242	0.042
-446.880	98.373	-0.023	0.027
-445.865	-69.745	0.299	0.115
-444.851	800.000	0.061	-0.193
-443.836	63.380	-0.384	0.388
-442.822	44.901	0.168	0.156
-441.807	174.621	-0.062	0.091
-440.792	19.114	-0.534	0.431
-439.778	132.587	0.086	-0.112
-438.763	131.965	0.135	0.175
-437.749	373.607	-0.034	0.069
-436.734	800.000	0.051	-0.188
-435.719	-200.000	0.019	0.217
-434.705	-112.432	-0.281	-0.057
-433.690	200.050	0.084	0.130
-432.676	-124.484	-0.292	0.046
-431.661	-54.012	0.187	0.086
-430.646	93.127	-0.084	0.096
-429.632	23.244	0.026	-0.022
-428.617	800.000	0.024	-0.074
-427.603	-166.520	0.340	0.014
-426.588	42.187	0.211	-0.193
-425.573	-45.423	-0.042	0.021
-424.559	327.800	-0.111	0.215
-423.544	-200.000	-0.004	-0.126
-422.530	-90.981	0.129	0.037
-421.515	-32.262	-0.364	-0.205
-420.500	6.977	0.069	0.052
-419.486	-51.162	0.105	-0.049
-418.471	188.615	0.123	0.185
-417.457	384.986	-0.125	-0.259
-416.442	261.095	0.026	-0.046
-415.428	-110.173	-0.170	-0.036
-414.413	-200.000	0.011	-0.371
-413.398	-200.000	0.027	-0.198
-412.384	-13.312	-0.175	-0.114
-411.369	-87.794	0.129	0.039
-410.355	-4.964	-0.361	0.250
-409.340	-165.979	-0.042	0.002
-408.325	41.858	0.141	-0.129
-407.311	226.552	0.108	0.176
-406.296	-131.007	-0.125	-0.017
-405.282	-147.484	-0.149	-0.013
-404.267	6.024	0.108	0.081
-403.252	800.000	0.011	0.032
-402.238	800.000	0.057	-0.200
-401.223	577.362	-0.095	0.235
-400.209	-200.000	0.020	0.110
-399.194	21.889	0.335	-0.275
-398.179	1.382	0.283	0.205
-397.165	-109.321	-0.169	0.036
-396.150	800.000	0.073	-0.217
-395.136	-132.776	-0.207	-0.027
-394.121	-200.000	-0.031	-0.254
-393.106	-200.000	-0.006	-0.328
-392.092	-57.378	-0.204	-0.090
-391.077	86.292	-0.082	-0.091
-390.063	-78.664	-0.055	-0.019
-389.048	-48.745	-0.145	-0.070
-388.033	-200.000	-0.023	-0.260
-387.019	407.275	0.027	-0.057
-386.004	-37.432	-0.193	-0.104
-384.990	189.662	0.157	0.237
-383.975	800.000	-0.142	0.560
-382.960	140.807	0.200	-0.266
-381.946	107.692	0.100	-0.120
-380.931	-200.000	0.178	-0.000
-379.917	-16.242	0.048	0.030
-378.902	-115.459	-0.315	-0.060
-377.888	192.547	0.049	0.074
-376.873	-123.915	0.202	0.032
-375.858	226.667	-0.062	-0.102
-374.844	-69.437	0.376	-0.145
-373.829	121.354	-0.156	-0.195
-372.815	168.901	0.275	0.394
-371.800	65.642	0.379	0.385
-370.785	-200.000	-0.058	0.339
-369.771	186.949	-0.109	0.163
-368.756	-161.854	0.575	-0.029
-367.742	40.960	0.317	-0.287
-366.727	-100.628	0.037	0.009
-365.712	660.257	0.179	-0.463
-364.698	-159.988	0.248	-0.014
-363.683	800.000	-0.025	-0.085
-362.669	59.084	-0.187	-0.185
-361.654	-72.338	-0.224	0.083
-360.639	-95.575	0.075	-0.020
-359.625	-178.425	0.237	-0.006
-358.610	416.289	0.107	0.229
-357.596	-41.258	0.054	-0.028
-356.581	52.814	0.145	0.140
-355.566	800.000	0.034	0.122
-354.552	-200.000	0.009	-0.052
-353.537	234.671	0.037	0.061
-352.523	-139.785	0.275	-0.029
-351.508	15.802	-0.272	-0.215
-350.493	533.189	-0.079	0.187
-349.479	-200.000	-0.022	-0.292
-348.464	30.823	-0.126	-0.109
-347.450	-119.400	-0.282	0.049
-346.435	313.296	0.047	-0.088
-345.420	-41.701	-0.018	0.009
-344.406	-95.635	-0.251	0.068
-343.391	-200.000	-0.002	0.411
-342.377	17.563	0.188	-0.150
-341.362	138.891	-0.074	-0.097
-340.348	800.000	0.034	-0.134
-339.333	-85.388	0.181	-0.057
-338.318	800.000	0.058	-0.247
-337.304	-22.293	-0.129	0.079
-336.289	800.000	-0.022	0.062
-335.275	-116.652	-0.297	0.055
-334.260	469.170	0.073	0.163
-333.245	-130.593	-0.201	-0.027
-332.231	-106.961	-0.354	-0.079
-331.216	-26.849	0.355	0.208
-330.202	-2.880	-0.228	0.160
-329.187	-121.624	0.096	-0.016
-328.172	-200.000	0.020	-0.162
-327.158	10.205	0.105	0.080
-326.143	-200.000	-0.025	0.242
-325.129	-200.000	0.024	0.192
-324.114	-200.000	0.032	0.166
-323.099	-91.550	0.344	-0.098
-322.085	427.333	-0.132	-0.286
-321.070	-96.877	0.042	0.011
-320.056	800.000	-0.084	0.291
-319.041	416.518	0.115	0.246
-318.026	800.000	-0.093	0.283
-317.012	-200.000	-0.002	-0.030
-315.997	-113.091	0.066	-0.013
-314.983	-200.000	0.013	-0.150
-313.968	-200.000	0.050	-0.338
-312.953	-96.190	-0.368	-0.098
-311.939	31.430	-0.211	0.182
-310.924	-28.304	0.250	0.145
-309.910	-90.578	-0.044	-0.013
-308.895	96.537	-0.229	-0.262
-307.880	-34.316	-0.201	0.110
-306.866	6.580	-0.161	-0.120
-305.851	-113.853	-0.349	0.068
-304.837	-106.283	0.271	0.061
-303.822	-115.223	0.123	0.023
-302.807	456.388	-0.248	-0.552
-301.793	18.663	0.326	-0.262
-300.778	-38.324	0.454	0.241
-299.764	-166.850	-0.184	0.008
-298.749	16.077	0.171	0.135
-297.735	791.460	0.078	0.214
-296.720	-12.965	0.163	-0.106
-295.705	-45.100	0.257	0.128
-294.691	339.303	-0.046	-0.090
-293.676	47.645	-0.072	0.067
-292.662	-200.000	0.070	-0.317
-291.647	58.952	-0.148	0.146
-290.632	466.813	0.085	0.191
-289.618	263.545	-0.199	0.347
-288.603	139.014	-0.110	0.144
-287.589	-143.560	0.418	-0.040
-286.574	-200.000	-0.003	-0.132
-285.559	-200.000	-0.002	0.179
-284.545	156.155	-0.142	-0.196
-283.530	93.375	-0.046	-0.053
-282.516	800.000	-0.102	0.284
-281.501	86.554	-0.114	0.126
-280.486	-200.000	-0.017	-0.134
-279.472	-200.000	-0.030	-0.151
-278.457	-72.305	-0.285	0.106
-277.443	-200.000	-0.014	-0.092
-276.428	-170.600	-0.105	0.004
-275.413	-1.298	-0.094	-0.067
-274.399	-39.812	-0.067	0.035
-273.384	-80.160	0.217	-0.073
-272.370	-53.773	-0.031	-0.014
-271.355	702.220	0.057	-0.151
-270.340	104.578	-0.046	-0.054
-269.326	-200.000	0.004	-0.020
-268.311	-50.906	-0.491	0.231
-267.297	33.233	0.146	0.127
-266.282	-113.776	-0.086	-0.017
-265.267	-48.478	-0.218	-0.105
-264.253	-148.705	0.405	-0.033
-263.238	-156.330	0.403	0.025
-262.224	-118.444	-0.159	0.028
-261.209	-29.050	0.072	0.042
-260.195	98.562	-0.175	0.202
-259.180	-200.000	0.016	0.162
-258.165	-200.000	-0.063	0.325
-257.151	60.256	-0.178	-0.176
-256.136	240.022	-0.048	0.080
-255.122	-200.000	-0.011	0.083
-254.107	130.624	0.152	0.195
-253.092	-200.000	0.003	0.020
-252.078	-56.782	-0.332	-0.147
-251.063	133.891	0.082	0.107
-250.049	-200.000	-0.007	-0.036
-249.034	-86.607	0.216	-0.066
-248.019	655.370	-0.112	0.289
-247.005	-167.542	-0.173	-0.007
-245.990	241.510	-0.071	0.119
-244.976	-23.940	0.250	-0.149
-243.961	-134.244	-0.094	-0.012
-242.946	14.154	0.164	0.128
-241.932	5.350	0.096	0.071
-240.917	120.074	-0.129	-0.160
-239.903	-180.474	-0.169	0.004
-238.888	24.650	0.356	0.294
-237.873	-2.365	0.211	-0.148
-236.859	42.960	0.273	0.249
-235.844	565.097	-0.161	-0.391
-234.830	21.319	-0.127	-0.103
-233.815	58.879	0.068	0.067
-232.800	701.495	-0.103	0.271
-231.786	155.808	-0.075	-0.103
-230.771	117.878	-0.199	0.245
-229.757	-86.851	0.362	0.111
-228.742	-97.813	-0.259	-0.067
-227.727	155.144	0.045	0.062
-226.713	-64.726	0.258	-0.105
-225.698	-67.917	0.174	-0.068
-224.684	113.938	-0.332	0.403
-223.669	191.712	-0.168	-0.253
-222.655	-70.243	-0.101	0.038
-221.640	-117.825	-0.140	0.025
-220.625	120.192	0.113	-0.141
-219.611	51.486	-0.159	-0.151
-218.596	-200.000	0.035	-0.201
-217.582	-43.622	0.262	0.132
-216.567	-83.882	0.293	0.093
-215.552	-108.204	-0.083	-0.018
-214.538	-200.000	0.000	0.427
-213.523	-16.541	0.374	-0.237
-212.509	78.557	-0.126	0.134
-211.494	702.206	-0.084	0.222
-210.479	14.422	-0.236	-0.184
-209.465	-109.158	0.240	0.051
-208.450	-78.762	0.007	-0.002
-207.436	109.707	0.145	-0.174
-206.421	-63.970	0.372	-0.152
-205.406	-164.394	-0.342	-0.016
-204.392	-100.808	0.184	0.045
-203.377	-122.020	0.395	-0.065
-202.363	31.433	0.283	0.243
-201.348	-200.000	0.022	-0.146
-200.333	-56.639	0.319	0.141
-199.319	-200.000	0.031	0.244
-198.304	-143.173	-0.207	0.020
-197.290	-51.837	0.126	-0.058
-196.275	-43.588	-0.339	0.171
-195.260	26.690	-0.025	-0.021
-194.246	-42.758	0.123	0.062
-193.231	-7.421	-0.150	0.102
-192.217	679.277	-0.151	0.391
-191.202	-5.152	-0.117	-0.080
-190.187	20.481	0.069	0.056
-189.173	-200.000	0.012	0.113
-188.158	-31.759	-0.203	-0.114
-187.144	229.025	0.151	0.245
-186.129	-86.501	0.042	-0.013
-185.114	-58.115	-0.203	0.088
-184.100	-79.433	0.118	0.040
-183.085	169.310	0.092	0.131
-182.071	182.242	-0.046	0.067
-181.056	-35.006	0.100	0.055
-180.042	800.000	-0.131	0.366
-179.027	108.811	-0.171	-0.204
-178.012	4.102	-0.195	0.143
-176.998	-200.000	-0.008	-0.095
-175.983	-112.329	0.197	0.039
-174.969	15.352	0.050	-0.039
-173.954	-200.000	-0.084	0.487
-172.939	332.253	-0.120	0.231
-171.925	-51.197	0.140	-0.065
-170.910	-200.000	0.043	-0.199
-169.896	-200.000	0.029	-0.219
-168.881	-123.989	0.125	-0.020
-167.866	216.151	0.117	-0.186
-166.852	297.302	0.050	-0.092
-165.837	-106.943	0.352	-0.078
-164.823	-112.945	0.058	0.012
-163.808	-200.000	-0.046	-0.339
-162.793	231.939	-0.177	0.290
-161.779	-98.696	-0.442	-0.112
-160.764	800.000	0.031	0.132
-159.750	-92.476	0.278	-0.078
-158.735	373.178	0.096	-0.194
-157.720	800.000	0.051	0.220
-156.706	-29.638	0.154	0.088
-155.691	800.000	-0.091	-0.365
-154.677	304.400	0.094	-0.174
-153.662	81.663	0.287	-0.309
-152.647	800.000	-0.093	-0.278
-151.633	287.677	0.034	-0.061
-150.618	60.441	0.233	-0.229
-149.604	-58.625	-0.336	-0.145
-148.589	75.800	0.237	-0.249
-147.574	800.000	-0.031	-0.099
-146.560	-81.229	-0.084	-0.028
-145.545	-189.078	0.339	0.004
-144.531	-200.000	0.005	0.047
-143.516	243.043	-0.141	0.235
-142.502	-200.000	0.018	0.295
-141.487	-200.000	-0.017	0.303
-140.472	800.000	-0.072	-0.305
-139.458	-49.124	-0.139	0.066
-138.443	746.539	0.068	0.182
-137.429	54.962	0.091	-0.087
-136.414	-200.000	0.016	-0.134
-135.399	101.343	0.100	0.116
-134.385	-34.592	0.149	0.081
-133.370	-200.000	-0.036	0.274
-132.356	-74.569	-0.248	0.089
-131.341	-200.000	-0.011	-0.088
-130.326	-133.389	-0.118	0.015
-129.312	-200.000	0.009	0.140
-128.297	-83.907	0.155	-0.049
-127.283	5.801	0.184	0.135
-126.268	215.928	-0.130	-0.206
-125.253	648.857	-0.105	-0.267
-124.239	235.320	0.133	-0.218
-123.224	147.982	0.063	-0.085
-122.210	-12.084	-0.157	0.102
-121.195	800.000	-0.026	0.102
-120.180	-84.523	0.086	-0.027
-119.166	-120.063	-0.116	-0.020
-118.151	-200.000	-0.017	-0.292
-117.137	-84.150	0.146	-0.046
-116.122	-95.614	0.468	-0.125
-115.107	-67.413	-0.261	0.102
-114.093	128.372	-0.052	-0.066
-113.078	152.811	-0.100	0.136
-112.064	-200.000	-0.021	0.348
-111.049	-200.000	-0.086	-0.000
-110.034	-75.359	-0.237	0.084
-109.020	390.076	-0.080	-0.165
-108.005	-134.793	0.380	-0.046
-106.991	-135.244	-0.063	-0.008
-105.976	-200.000	-0.002	0.013
-104.962	41.076	0.243	-0.218
-103.947	-200.000	0.017	0.093
-102.932	-200.000	-0.017	0.112
-101.918	-62.046	0.204	-0.085
-100.903	110.063	0.289	0.345
-99.889	200.286	0.189	0.289
-98.874	32.788	0.076	0.066
-97.859	-8.094	0.340	0.228
-96.845	393.002	-0.071	-0.147
-95.830	340.634	-0.190	0.369
-94.816	223.831	-0.164	0.263
-93.801	-33.789	0.063	0.035
-92.786	-83.022	0.156	-0.050
-91.772	-22.824	-0.376	-0.225
-90.757	-77.026	-0.413	0.143
-89.743	-169.950	0.214	-0.008
-88.728	198.558	-0.131	-0.199
-87.713	132.551	-0.134	0.171
-86.699	101.697	0.233	-0.270
-85.684	-197.076	-0.061	0.000
-84.670	161.853	0.069	0.096
-83.655	21.075	0.139	-0.112
-82.640	-73.820	0.451	-0.163
-81.626	290.633	-0.109	0.196
-80.611	-86.753	-0.114	-0.035
-79.597	65.795	0.127	0.128
-78.582	289.974	-0.093	0.169
-77.567	800.000	-0.028	-0.093
-76.553	436.489	-0.137	-0.296
-75.538	238.525	-0.163	0.269
-74.524	-80.791	0.135	0.045
-73.509	170.662	-0.137	0.195
-72.494	-52.542	0.308	-0.141
-71.480	9.054	-0.307	-0.231
-70.465	42.406	-0.161	-0.146
-69.451	-157.105	-0.202	-0.012
-68.436	708.696	0.004	-0.011
-67.422	-200.000	-0.016	0.179
-66.407	17.735	-0.059	0.047
-65.392	-64.507	-0.093	-0.037
-64.378	-91.849	-0.087	-0.025
-63.363	30.914	0.189	0.161
-62.349	800.000	0.041	-0.121
-61.334	138.795	-0.745	-0.972
-60.319	-70.816	0.230	0.086
-59.305	528.361	-0.334	-0.783
-58.290	336.408	0.614	1.183
-57.276	800.000	0.477	1.583
-56.261	-200.000	91.068	535.616
-55.246	500.467	1384.581	3171.391
-54.232	148.847	2594.929	3482.801
-53.217	111.488	2217.264	2654.620
-52.203	45.663	1747.816	1603.177
-51.188	38.649	1555.795	1377.897
-50.173	36.152	1527.922	1335.881
-49.159	53.669	1575.518	1501.124
-48.144	57.404	1595.610	1546.516
-47.130	39.167	1552.040	1377.981
-46.115	35.842	1537.236	1341.652
-45.100	35.795	1532.880	1337.467
-44.086	35.699	1531.473	1335.516
-43.071	35.596	1530.004	1333.468
-42.057	35.564	1528.269	1331.682
-41.042	35.590	1526.778	1330.514
-40.027	35.648	1525.169	1329.459
-39.013	35.718	1523.743	1328.646
-37.998	35.604	1522.242	1326.501
-36.984	35.601	1521.406	1325.696
-35.969	35.654	1519.820	1324.628
-34.954	35.622	1518.381	1323.101
-33.940	35.563	1517.175	1321.587
-32.925	35.678	1515.507	1320.872
-31.911	35.551	1514.544	1319.109
-30.896	35.724	1512.796	1318.725
-29.881	35.621	1512.136	1317.387
-28.867	35.717	1510.082	1316.206
-27.852	35.571	1509.138	1314.333
-26.838	35.690	1507.375	1313.557
-25.823	35.689	1505.546	1311.904
-24.809	35.579	1504.175	1309.904
-23.794	35.562	1503.068	1308.773
-22.779	35.634	1501.885	1308.182
-21.765	35.670	1500.570	1307.230
-20.750	35.673	1499.375	1306.160
-19.736	35.670	1498.378	1305.218
-18.721	35.527	1497.725	1303.623
-17.706	35.616	1496.137	1302.793
-16.692	35.564	1495.281	1301.649
-15.677	35.674	1493.566	1300.845
-14.663	35.686	1492.455	1299.911
-13.648	35.513	1492.422	1298.660
-12.633	35.548	1491.337	1297.898
-11.619	35.569	1490.415	1297.188
-10.604	35.502	1489.617	1295.985
-9.590	35.581	1488.327	1295.345
-8.575	35.592	1488.248	1295.300
-7.560	35.578	1487.028	1294.094
-6.546	35.578	1485.729	1292.913
-5.531	35.645	1484.830	1292.526
-4.517	35.526	1484.269	1291.188
-3.502	35.543	1483.120	1290.254
-2.487	35.546	1482.289	1289.499
-1.473	35.527	1480.886	1288.097
-0.458	35.577	1479.694	1287.343
0.556	35.695	1470.658	1278.045
1.571	33.260	1444.254	1239.071
2.586	29.892	1383.975	1166.072
3.600	28.346	1300.614	1086.575
4.615	26.652	1252.856	1036.894
5.629	22.191	1193.105	962.979
6.644	11.247	1103.173	834.571
7.659	3.181	1059.394	761.588
8.673	2.119	1053.543	752.086
9.688	1.879	1050.730	748.831
10.702	1.643	1048.759	746.206
11.717	1.641	1046.959	744.848
12.731	4.909	1050.942	763.654
13.746	15.116	1066.003	825.048
14.761	23.485	1076.258	874.362
15.775	25.070	1077.680	883.256
16.790	25.252	1077.490	883.920
17.804	25.129	1076.609	882.515
18.819	24.945	1075.820	880.886
19.834	25.066	1075.161	880.863
20.848	25.178	1074.815	881.052
21.863	25.273	1074.076	880.831
22.877	25.213	1074.125	880.500
23.892	25.186	1073.383	879.680
24.907	25.064	1072.773	878.507
25.921	25.162	1071.624	877.968
26.936	25.113	1071.377	877.446
27.950	25.030	1070.011	875.845
28.965	25.213	1068.532	875.451
29.980	24.905	1067.628	873.133
30.994	25.024	1066.061	872.349
32.009	25.083	1065.751	872.309
33.023	25.194	1065.038	872.186
34.038	24.961	1063.996	870.126
35.053	25.028	1063.174	869.702
36.067	25.197	1062.095	869.562
37.082	25.076	1061.553	868.455
38.096	25.041	1060.889	867.661
39.111	25.234	1060.146	867.913
40.126	25.442	1059.498	868.309
41.140	25.356	1057.792	866.422
42.155	25.090	1056.327	863.864
43.169	24.734	1055.536	861.427
44.184	24.733	1054.631	860.604
45.199	24.729	1053.711	859.761
46.213	24.720	1052.428	858.594
47.228	24.622	1051.823	857.554
48.242	24.933	1050.946	858.253
49.257	25.028	1050.265	858.074
50.271	25.064	1049.295	857.382
51.286	25.208	1048.782	857.575
52.301	25.266	1048.142	857.253
53.315	25.233	1047.298	856.326
54.330	25.303	1046.144	855.640
55.344	25.092	1045.983	854.429
56.359	25.096	1044.625	853.265
57.374	25.186	1044.140	853.220
58.388	24.817	1043.676	851.008
59.403	24.947	1042.330	850.452
60.417	24.941	1041.521	849.692
61.432	24.767	1041.118	848.460
62.447	24.835	1040.022	847.818
63.461	24.908	1039.831	847.929
64.476	24.990	1038.410	847.084
65.490	24.942	1037.264	845.848
66.505	24.835	1036.791	844.882
67.520	24.727	1036.153	843.779
68.534	24.918	1035.629	844.179
69.549	24.804	1034.493	842.642
70.563	24.418	1033.395	839.856
71.578	24.255	1032.878	838.594
72.593	24.349	1031.726	838.026
73.607	24.254	1030.279	836.329
74.622	24.309	1029.062	835.527
75.636	24.528	1029.042	836.461
76.651	24.805	1028.167	836.973
77.666	24.575	1027.443	835.235
78.680	24.351	1026.775	833.571
79.695	24.446	1026.710	833.890
80.709	24.585	1025.581	833.547
81.724	24.701	1024.444	833.088
82.739	24.714	1023.638	832.418
83.753	24.611	1022.962	831.316
84.768	24.922	1022.307	832.157
85.782	25.382	1022.110	834.060
86.797	25.469	1021.248	833.687
87.812	25.508	1020.372	833.076
88.826	25.306	1019.595	831.434
89.841	25.240	1018.747	830.364
90.855	25.400	1017.696	830.174
91.870	25.402	1017.095	829.617
92.884	25.402	1016.317	828.913
93.899	25.272	1015.700	827.735
94.914	25.251	1014.226	826.364
95.928	25.416	1013.598	826.539
96.943	25.278	1013.306	825.592
97.957	25.086	1011.847	823.448
98.972	24.766	1011.015	821.231
99.987	24.549	1010.055	819.384
101.001	24.705	1009.259	819.379
102.016	25.063	1008.931	820.680
103.030	25.177	1007.572	820.023
104.045	25.070	1006.993	818.990
105.060	24.798	1005.632	816.567
106.074	24.741	1004.925	815.666
107.089	24.735	1003.931	814.755
108.103	24.967	1004.057	815.843
109.118	25.200	1002.785	815.799
110.133	24.870	1001.608	813.270
111.147	24.845	1001.047	812.627
112.162	24.776	999.383	810.895
113.176	24.428	998.588	808.598
114.191	24.707	997.748	809.109
115.206	24.753	996.813	808.491
116.220	24.459	995.912	806.357
117.235	24.491	994.245	805.081
118.249	24.529	994.060	805.031
119.264	24.539	993.649	804.673
120.279	24.466	992.518	803.355
121.293	24.409	991.982	802.594
122.308	24.613	990.910	802.572
123.322	24.521	990.332	801.624
124.337	24.471	989.817	800.911
125.352	24.416	988.412	799.456
126.366	23.959	986.681	795.941
127.381	23.580	985.517	793.239
128.395	24.026	985.474	795.125
129.410	24.841	985.343	798.587
130.424	24.841	984.601	797.917
131.439	24.990	983.265	797.426
132.454	24.939	982.281	796.331
133.468	24.892	981.473	795.399
134.483	24.855	980.603	794.459
135.497	25.133	979.441	794.679
136.512	25.161	979.224	794.556
137.527	25.212	978.328	793.983
138.541	25.181	977.705	793.272
139.556	25.240	977.215	793.065
140.570	25.284	975.947	792.158
141.585	25.311	975.439	791.796
142.600	25.342	974.660	791.230
143.614	25.250	973.933	790.164
144.629	25.229	973.503	789.653
145.643	25.421	972.805	789.862
146.658	25.410	971.414	788.614
147.673	25.045	970.318	786.052
148.687	25.108	968.612	784.877
149.702	25.105	967.536	783.922
150.716	25.038	966.745	782.920
151.731	24.887	965.827	781.448
152.746	25.012	965.323	781.518
153.760	25.265	964.796	782.124
154.775	25.469	963.872	782.194
155.789	25.363	963.171	781.096
156.804	25.308	962.293	780.074
157.819	25.286	961.062	778.911
158.833	25.446	959.888	778.584
159.848	25.374	959.571	777.947
160.862	25.454	959.006	777.768
161.877	25.523	957.390	776.685
162.892	25.248	956.791	774.943
163.906	25.517	955.744	775.186
164.921	25.549	955.090	774.727
165.935	25.163	954.087	772.183
166.950	25.337	953.054	772.024
167.964	25.341	952.301	771.363
168.979	25.351	951.072	770.345
169.994	25.187	950.229	768.890
171.008	25.169	948.976	767.730
172.023	25.237	948.458	767.534
173.037	25.492	947.660	767.910
174.052	25.271	946.428	765.900
175.067	25.088	945.313	764.152
176.081	25.043	944.687	763.385
177.096	25.206	943.623	763.152
178.110	25.125	942.948	762.195
179.125	25.011	941.983	760.865
180.140	24.838	940.851	759.149
181.154	24.771	940.379	758.417
182.169	24.785	939.945	758.059
183.183	24.941	939.939	758.646
184.198	25.355	939.340	759.849
185.213	25.313	938.621	759.024
186.227	25.220	938.002	758.061
187.242	25.235	937.828	757.917
188.256	25.335	936.602	757.283
189.271	25.456	935.772	757.055
190.286	25.497	935.096	756.611
191.300	25.225	934.637	755.027
192.315	24.794	933.165	751.964
193.329	24.010	931.625	747.365
194.344	23.600	930.208	744.441
195.359	24.095	930.713	746.856
196.373	24.999	931.254	751.018
197.388	25.236	931.019	751.751
198.402	25.238	930.116	750.964
199.417	25.133	929.510	749.972
200.432	25.304	929.106	750.294
201.446	25.177	928.510	749.213
202.461	24.834	927.721	747.080
203.475	24.794	927.456	746.632
204.490	24.509	925.860	744.095
205.504	23.313	923.429	737.101
206.519	23.715	923.463	738.735
207.534	24.683	923.745	742.921
208.548	24.760	923.151	742.700
209.563	25.186	922.767	744.092
210.577	25.147	922.297	743.483
211.592	24.878	921.500	741.661
212.607	25.261	921.554	743.225
213.621	25.419	921.012	743.376
214.636	25.270	920.260	742.086
215.650	25.448	919.754	742.351
216.665	25.294	919.123	741.139
217.680	25.314	918.601	740.735
218.694	25.455	918.105	740.851
219.709	25.098	917.338	738.696
220.723	24.811	916.033	736.399
221.738	24.937	915.605	736.508
222.753	25.136	915.031	736.800
223.767	25.121	914.456	736.208
224.782	25.235	913.687	735.993
225.796	25.450	913.162	736.388
226.811	25.512	912.929	736.386
227.826	25.024	911.684	733.319
228.840	24.290	910.129	729.003
229.855	24.295	909.099	728.137
230.869	24.446	909.283	728.834
231.884	24.207	907.875	726.669
232.899	24.221	907.775	726.581
233.913	24.988	908.079	729.885
234.928	25.197	907.129	729.909
235.942	25.004	906.638	728.665
236.957	25.166	905.736	728.533
237.972	24.803	905.026	726.422
238.986	24.787	904.410	725.799
240.001	24.819	903.606	725.221
241.015	24.856	902.770	724.637
242.030	24.918	902.439	724.556
243.045	25.066	901.725	724.515
244.059	25.062	901.558	724.304
245.074	25.390	901.045	725.151
246.088	25.329	900.270	724.219
247.103	24.819	899.470	721.454
248.117	24.952	898.768	721.361
249.132	25.461	898.726	723.313
250.147	25.884	898.714	724.942
251.161	25.973	898.121	724.756
252.176	26.116	897.741	724.962
253.190	26.006	897.111	723.947
254.205	26.036	896.923	723.851
255.220	26.369	895.900	724.295
256.234	26.281	895.713	723.728
257.249	26.189	895.045	722.758
258.263	25.983	894.528	721.451
259.278	26.052	893.495	720.828
260.293	26.055	893.186	720.527
261.307	26.298	892.786	721.110
262.322	26.177	891.979	719.914
263.336	26.109	891.152	718.913
264.351	25.425	889.802	715.040
265.366	24.475	887.610	709.439
266.380	23.975	887.259	707.108
267.395	24.828	887.267	710.443
268.409	25.575	887.481	713.517
269.424	25.585	886.628	712.804
270.439	25.796	886.443	713.429
271.453	25.957	885.747	713.443
272.468	25.776	885.125	712.165
273.482	25.946	884.944	712.627
274.497	26.046	884.525	712.624
275.512	25.987	883.344	711.375
276.526	25.405	881.922	707.873
277.541	25.571	881.401	708.047
278.555	25.973	881.212	709.414
279.570	25.887	880.324	708.298
280.585	25.583	880.007	706.785
281.599	25.687	879.427	706.668
282.614	25.811	878.781	706.571
283.628	25.321	878.185	704.107
284.643	25.080	877.297	702.391
285.657	25.514	876.868	703.685
286.672	25.397	876.183	702.612
287.687	24.840	875.258	699.632
288.701	25.062	875.279	700.457
289.716	25.632	874.611	702.085
290.730	25.199	874.277	700.063
291.745	25.207	873.444	699.368
292.760	25.002	872.182	697.496
293.774	24.831	871.347	696.103
294.789	25.774	872.361	700.522
295.803	26.464	872.150	702.971
296.818	26.436	872.014	702.693
297.833	26.561	871.215	702.472
298.847	26.246	869.984	700.194
299.862	25.771	869.399	697.822
300.876	25.979	868.970	698.220
301.891	26.522	868.171	699.617
302.906	26.467	867.820	699.060
303.920	26.096	867.008	696.910
304.935	25.918	866.366	695.647
305.949	26.358	866.120	697.085
306.964	26.419	865.551	696.800
307.979	26.147	865.061	695.295
308.993	26.086	864.415	694.483
310.008	26.375	864.388	695.510
311.022	26.725	863.410	696.007
312.037	26.369	863.135	694.357
313.052	26.220	862.209	692.976
314.066	26.134	861.302	691.857
315.081	25.426	860.267	688.255
316.095	24.630	858.800	683.973
317.110	25.086	859.209	685.985
318.125	26.039	858.902	689.324
319.139	25.781	857.844	687.428
320.154	24.399	856.838	681.289
321.168	24.078	855.415	678.873
322.183	24.789	855.307	681.436
323.197	25.517	856.303	684.943
324.212	25.887	856.030	686.076
325.227	25.931	855.866	686.050
326.241	26.137	855.218	686.253
327.256	26.199	854.264	685.663
328.270	25.969	853.975	684.494
329.285	25.905	853.247	683.608
330.300	25.818	852.210	682.389
331.314	25.680	851.250	681.038
332.329	25.720	850.978	680.911
333.343	26.077	850.677	681.960
334.358	26.337	850.616	682.834
335.373	26.239	849.899	681.827
336.387	26.479	849.198	682.109
337.402	26.413	849.651	682.164
338.416	26.644	848.856	682.337
339.431	26.552	848.601	681.724
340.446	26.602	847.874	681.267
341.460	27.067	846.970	682.227
342.475	26.802	846.677	680.934
343.489	26.689	845.749	679.706
344.504	26.581	845.530	679.063
345.519	26.842	845.023	679.574
346.533	27.098	844.654	680.175
347.548	27.229	843.883	679.986
348.562	27.227	843.316	679.462
349.577	27.080	842.877	678.499
350.592	27.104	842.515	678.238
351.606	26.995	841.648	677.071
352.621	26.913	841.606	676.674
353.635	26.867	840.734	675.741
354.650	26.838	840.452	675.347
355.665	26.616	839.568	673.750
356.679	25.534	837.706	668.178
357.694	25.334	837.455	667.174
358.708	25.942	837.383	669.315
359.723	26.034	836.597	668.969
360.738	26.125	836.554	669.213
361.752	26.596	836.517	670.871
362.767	26.828	836.053	671.298
363.781	27.058	835.710	671.813
364.796	27.167	835.817	672.243
365.810	27.415	835.408	672.771
366.825	27.391	835.364	672.588
367.840	27.506	834.849	672.537
368.854	27.379	833.966	671.298
369.869	26.826	832.952	668.386
370.883	26.500	832.896	667.080
371.898	26.919	832.163	667.978
372.913	26.761	831.227	666.588
373.927	26.688	830.842	665.951
374.942	26.827	830.190	665.879
375.956	26.912	829.637	665.690
376.971	27.162	828.771	665.852
377.986	27.297	828.341	665.940
379.000	27.390	828.057	665.995
380.015	27.426	827.556	665.665
381.029	27.160	827.281	664.409
382.044	27.077	825.966	662.994
383.059	27.248	825.666	663.318
384.073	27.356	825.439	663.468
385.088	27.414	824.818	663.124
386.102	27.298	824.196	662.143
387.117	27.170	823.463	661.030
388.132	27.088	822.795	660.137
389.146	26.985	822.025	659.086
390.161	26.517	820.843	656.385
391.175	26.376	821.086	656.010
392.190	26.847	821.507	657.996
393.205	27.069	820.543	657.969
394.219	26.033	818.517	652.543
395.234	24.424	816.112	644.757
396.248	23.690	815.105	641.256
397.263	24.720	816.065	645.677
398.278	26.501	817.699	653.349
399.292	27.045	817.514	655.106
400.307	26.659	816.963	653.216
401.321	26.599	816.306	652.417
402.336	26.739	816.238	652.809
403.350	26.873	816.158	653.168
404.365	27.492	815.778	655.035
405.380	27.819	815.651	656.050
406.394	28.113	815.378	656.827
407.409	28.248	815.082	657.014
408.423	28.213	814.486	656.351
409.438	27.976	813.878	654.956
410.453	28.047	813.899	655.166
411.467	28.105	813.624	655.096
412.482	28.150	812.602	654.375
413.496	28.027	811.835	653.262
414.511	28.136	811.844	653.599
415.526	28.128	811.754	653.439
416.540	28.017	810.925	652.319
417.555	28.070	810.324	651.969
418.569	27.802	809.689	650.443
419.584	27.658	809.340	649.592
420.599	27.821	808.737	649.631
421.613	104.017	1280.303	1434.789
422.628	89.642	1349.046	1434.908
