DTS Sentinel unit serial number:	SN413079Multiplexer serial number:	ORYXHardware model number:	OX4-SRSoftware version number:	ORYX F/W v4.00 Oryx Data Collector v3.7.2.0data status	okinstallation	princeton_trtdifferential loss correction	single-endedforward channel	channel 3reverse channel	N/Adate	2019/09/13time	18:24:35forward acquisition time	60.00reverse acquisition time	0.00gamma	496.2192k internal	0.2313k external	0.2313temperature offset calibration	1.0112default loss term (dB/km)	0.3790temperature slope calibration	1.0000multiplexer offset coefficient	1.0000multiplexer slope coefficient	1.0000fibre end	0.00T internal ref (°C)	33.70T ext. ref 1 (°C)	4.31T ext. ref 2 (°C)	26.63length (m)	temperature (°C)	Stokes	anti-Stokes-747.200	0.094	-0.186	0.135
-746.185	-34.475	-0.479	0.266
-745.171	-89.972	-0.108	-0.032
-744.156	593.410	-0.206	0.516
-743.142	529.689	0.055	0.131
-742.127	29.009	-0.244	0.210
-741.112	-37.755	0.130	0.070
-740.098	-44.808	-0.209	0.106
-739.083	800.000	-0.079	0.239
-738.069	800.000	-0.042	0.147
-737.054	361.029	0.033	-0.067
-736.039	69.889	-0.127	-0.133
-735.025	-15.824	0.407	0.263
-734.010	800.000	-0.137	-0.560
-732.996	62.570	0.138	0.139
-731.981	-200.000	0.020	-0.190
-730.966	23.567	-0.208	0.173
-729.952	337.341	0.095	0.187
-728.937	644.549	0.041	-0.106
-727.923	33.024	0.105	-0.093
-726.908	-123.736	-0.212	0.034
-725.894	323.244	-0.086	-0.166
-724.879	-200.000	-0.029	-0.193
-723.864	148.602	-0.206	0.282
-722.850	2.244	0.098	-0.071
-721.835	-200.000	-0.029	-0.413
-720.821	-84.700	-0.305	0.097
-719.806	-113.623	-0.195	0.039
-718.791	-109.340	-0.119	0.025
-717.777	800.000	0.111	-0.380
-716.762	-31.445	-0.151	0.086
-715.748	135.110	-0.061	-0.081
-714.733	49.781	0.193	-0.184
-713.718	-43.168	-0.482	0.247
-712.704	-2.694	0.066	-0.047
-711.689	-122.744	-0.178	-0.029
-710.675	400.739	0.166	-0.352
-709.660	-155.978	-0.131	0.008
-708.645	-200.000	-0.006	-0.412
-707.631	470.540	-0.054	-0.123
-706.616	-112.614	0.105	0.021
-705.602	76.268	-0.338	-0.363
-704.587	-149.574	0.253	-0.020
-703.572	-124.847	0.305	0.048
-702.558	-200.000	-0.012	-0.052
-701.543	-200.000	0.003	0.289
-700.529	-67.951	0.247	-0.097
-699.514	160.242	-0.151	-0.214
-698.499	28.483	-0.098	-0.084
-697.485	-200.000	-0.096	0.551
-696.470	800.000	0.025	-0.085
-695.456	37.064	-0.364	0.326
-694.441	-102.315	-0.104	0.025
-693.426	57.360	-0.070	0.069
-692.412	800.000	0.077	-0.232
-691.397	800.000	-0.107	-0.299
-690.383	-100.446	0.168	-0.042
-689.368	-141.050	0.107	0.011
-688.354	103.295	-0.203	-0.241
-687.339	-0.038	0.070	-0.050
-686.324	229.503	-0.096	-0.159
-685.310	547.264	-0.028	-0.067
-684.295	370.004	-0.143	0.294
-683.281	-136.488	-0.223	-0.026
-682.266	-89.381	0.380	-0.113
-681.251	800.000	0.098	0.328
-680.237	595.014	-0.080	0.200
-679.222	614.926	-0.096	-0.244
-678.208	-119.089	0.187	0.033
-677.193	-123.407	0.144	0.023
-676.178	-200.000	-0.010	-0.277
-675.164	-141.067	-0.400	0.041
-674.149	800.000	-0.027	0.090
-673.135	466.874	-0.071	-0.160
-672.120	361.368	-0.098	0.198
-671.105	-68.506	-0.212	-0.083
-670.091	-42.669	-0.199	-0.103
-669.076	-108.780	-0.204	0.044
-668.062	-200.000	0.042	0.378
-667.047	-200.000	-0.003	0.326
-666.032	-35.868	0.156	0.086
-665.018	-113.019	0.214	0.043
-664.003	800.000	0.030	0.125
-662.989	-184.987	-0.361	0.006
-661.974	210.807	-0.128	-0.204
-660.959	-120.265	-0.245	-0.042
-659.945	-200.000	-0.016	0.240
-658.930	800.000	0.078	-0.279
-657.916	-200.000	0.006	0.154
-656.901	149.925	0.099	0.136
-655.886	67.699	0.109	0.113
-654.872	800.000	0.032	0.123
-653.857	52.759	-0.311	-0.301
-652.843	-33.596	-0.256	-0.143
-651.828	-6.860	-0.042	-0.029
-650.814	432.678	-0.120	0.263
-649.799	-200.000	0.046	-0.362
-648.784	800.000	-0.037	-0.108
-647.770	-36.784	-0.409	-0.222
-646.755	73.259	-0.094	-0.100
-645.741	-200.000	0.009	0.154
-644.726	68.552	-0.387	-0.401
-643.711	-200.000	-0.032	0.214
-642.697	-140.312	0.267	-0.028
-641.682	455.883	-0.040	0.090
-640.668	-117.193	-0.105	-0.019
-639.653	12.611	0.054	-0.042
-638.638	-200.000	0.030	0.283
-637.624	284.335	0.090	-0.164
-636.609	542.121	0.079	-0.191
-635.595	-124.805	-0.264	-0.041
-634.580	-142.903	0.306	-0.030
-633.565	-126.302	0.084	-0.013
-632.551	-200.000	-0.064	0.311
-631.536	29.164	-0.192	-0.165
-630.522	-200.000	-0.012	-0.114
-629.507	-28.910	0.203	-0.118
-628.492	71.126	-0.232	-0.243
-627.478	88.076	-0.016	-0.018
-626.463	2.434	-0.216	0.158
-625.449	-167.609	0.227	0.009
-624.434	-94.739	0.247	0.068
-623.419	98.240	-0.096	0.111
-622.405	-198.928	0.304	-0.002
-621.390	233.397	-0.148	0.246
-620.376	-133.249	-0.293	0.037
-619.361	83.308	0.204	-0.224
-618.346	-200.000	0.005	-0.078
-617.332	321.883	-0.125	-0.241
-616.317	10.190	-0.111	0.085
-615.303	-137.211	-0.233	0.027
-614.288	-15.748	-0.251	0.162
-613.273	170.123	-0.181	0.262
-612.259	105.716	-0.025	-0.029
-611.244	-68.173	-0.168	-0.066
-610.230	159.229	-0.049	0.069
-609.215	-200.000	-0.001	0.056
-608.201	800.000	-0.021	0.082
-607.186	-200.000	0.050	0.233
-606.171	-52.331	-0.284	-0.133
-605.157	-58.540	0.324	0.142
-604.142	-40.279	0.047	-0.025
-603.128	-200.000	0.059	-0.263
-602.113	-105.254	0.100	0.023
-601.098	230.603	0.096	0.159
-600.084	341.724	-0.030	0.059
-599.069	-182.600	0.036	0.001
-598.055	129.332	0.179	-0.230
-597.040	209.059	0.101	-0.159
-596.025	800.000	0.055	-0.176
-595.011	-200.000	0.016	-0.348
-593.996	643.552	0.082	0.210
-592.982	-115.015	-0.170	-0.033
-591.967	-94.393	-0.198	0.055
-590.952	800.000	-0.094	-0.269
-589.938	-9.096	0.039	-0.027
-588.923	-110.033	-0.175	-0.037
-587.909	198.715	-0.129	0.198
-586.894	800.000	-0.105	-0.314
-585.879	3.675	0.111	-0.082
-584.865	-75.216	-0.185	0.067
-583.850	706.601	-0.134	0.357
-582.836	-162.966	0.257	-0.013
-581.821	-97.554	-0.088	0.023
-580.806	-59.345	-0.221	0.096
-579.792	-48.249	-0.073	-0.035
-578.777	526.240	-0.088	0.208
-577.763	-8.826	0.113	-0.076
-576.748	-194.812	0.274	0.002
-575.733	-200.000	0.007	0.037
-574.719	279.026	0.030	-0.054
-573.704	134.613	-0.190	-0.248
-572.690	-37.550	0.101	-0.054
-571.675	-200.000	0.014	0.068
-570.661	-200.000	-0.047	0.225
-569.646	4.599	0.159	-0.118
-568.631	453.326	-0.069	-0.153
-567.617	114.135	-0.239	0.292
-566.602	664.564	-0.216	0.563
-565.588	-200.000	-0.037	-0.178
-564.573	-58.626	-0.174	-0.076
-563.558	-97.973	-0.298	-0.077
-562.544	413.322	-0.155	-0.332
-561.529	800.000	-0.103	0.437
-560.515	4.536	0.110	0.081
-559.500	800.000	-0.049	-0.146
-558.485	402.190	0.046	-0.097
-557.471	7.605	-0.145	0.109
-556.456	-173.682	0.205	0.006
-555.442	-135.110	-0.197	0.024
-554.427	-49.489	-0.227	0.109
-553.412	-200.000	0.002	-0.139
-552.398	573.643	-0.172	-0.422
-551.383	645.329	-0.067	0.171
-550.369	-200.000	0.022	0.098
-549.354	319.206	0.012	-0.023
-548.339	36.289	-0.184	-0.164
-547.325	82.403	-0.154	0.168
-546.310	10.650	-0.197	-0.151
-545.296	-115.878	-0.044	-0.008
-544.281	-57.138	0.147	0.065
-543.266	800.000	-0.052	0.145
-542.252	-78.786	0.157	-0.054
-541.237	800.000	-0.098	-0.303
-540.223	-200.000	0.060	-0.412
-539.208	-107.868	0.439	-0.096
-538.193	-12.831	-0.256	-0.168
-537.179	108.629	0.046	0.056
-536.164	-33.155	-0.194	0.108
-535.150	-200.000	-0.038	0.332
-534.135	405.683	0.086	0.183
-533.121	-70.213	0.277	-0.106
-532.106	-200.000	0.007	-0.136
-531.091	55.950	0.064	-0.063
-530.077	800.000	-0.015	-0.056
-529.062	-60.119	0.063	0.027
-528.048	91.169	-0.059	-0.066
-527.033	-200.000	0.027	-0.237
-526.018	-122.138	-0.374	0.062
-525.004	-200.000	-0.039	0.196
-523.989	-200.000	0.022	-0.154
-522.975	800.000	-0.100	0.310
-521.960	31.515	0.060	-0.052
-520.945	-124.510	-0.234	-0.037
-519.931	224.785	0.081	0.131
-518.916	19.349	-0.144	0.116
-517.902	-35.828	0.165	-0.090
-516.887	-200.000	-0.006	-0.029
-515.872	190.014	-0.117	0.176
-514.858	-117.465	0.102	0.019
-513.843	66.744	0.105	0.107
-512.829	111.134	0.076	-0.093
-511.814	-200.000	-0.011	-0.056
-510.799	411.759	-0.063	-0.135
-509.785	-200.000	-0.016	0.281
-508.770	-114.683	-0.324	0.062
-507.756	323.438	0.162	0.311
-506.741	800.000	-0.079	0.253
-505.726	800.000	-0.058	0.254
-504.712	-28.962	0.368	0.212
-503.697	-43.089	-0.282	-0.144
-502.683	214.977	0.121	-0.192
-501.668	-35.711	-0.184	0.100
-500.653	-45.226	-0.045	-0.022
-499.639	107.293	0.076	0.091
-498.624	-85.938	0.234	0.073
-497.610	-10.930	-0.210	0.139
-496.595	-67.392	0.317	0.125
-495.581	323.287	-0.138	0.265
-494.566	221.357	-0.173	0.279
-493.551	115.065	-0.125	-0.153
-492.537	48.158	-0.110	-0.103
-491.522	-60.162	-0.119	0.051
-490.508	570.804	-0.144	0.352
-489.493	-20.781	0.146	0.090
-488.478	-100.774	-0.157	0.039
-487.464	-49.226	0.067	-0.032
-486.449	-200.000	-0.036	-0.494
-485.435	597.641	0.084	-0.209
-484.420	-121.442	-0.129	0.021
-483.405	6.189	-0.252	0.188
-482.391	-73.449	-0.413	0.151
-481.376	578.093	0.064	0.158
-480.362	181.262	-0.034	-0.050
-479.347	340.608	0.077	-0.151
-478.332	800.000	0.065	0.287
-477.318	-81.454	-0.255	-0.084
-476.303	18.091	-0.152	-0.122
-475.289	-200.000	-0.012	-0.166
-474.274	163.558	-0.212	-0.300
-473.259	-140.539	-0.365	-0.038
-472.245	-75.876	-0.109	-0.039
-471.230	333.327	0.030	0.058
-470.216	541.458	0.070	-0.167
-469.201	636.732	0.133	0.339
-468.186	195.805	-0.229	-0.349
-467.172	381.672	0.113	0.232
-466.157	-200.000	0.005	0.221
-465.143	-100.160	0.136	0.034
-464.128	-200.000	0.004	-0.152
-463.113	-200.000	0.022	-0.101
-462.099	-38.059	0.093	0.049
-461.084	36.449	-0.065	0.057
-460.070	-112.112	-0.075	-0.015
-459.055	-53.938	0.088	-0.040
-458.040	30.408	-0.217	0.186
-457.026	33.954	-0.016	0.014
-456.011	278.522	0.104	0.186
-454.997	-68.431	0.151	-0.059
-453.982	-7.946	0.093	0.063
-452.968	-200.000	0.000	0.088
-451.953	-53.061	-0.497	-0.229
-450.938	800.000	0.013	-0.037
-449.924	-88.825	-0.274	-0.082
-448.909	115.576	-0.129	0.159
-447.895	567.255	-0.167	0.406
-446.880	-180.981	-0.092	-0.002
-445.865	73.712	-0.221	-0.232
-444.851	-200.000	0.025	-0.143
-443.836	-154.683	0.230	-0.015
-442.822	800.000	0.037	0.139
-441.807	-110.969	0.266	-0.055
-440.792	171.514	-0.089	-0.127
-439.778	231.989	-0.035	-0.058
-438.763	83.944	0.078	0.085
-437.749	-172.967	-0.075	0.002
-436.734	430.083	0.020	0.044
-435.719	-129.919	0.378	-0.052
-434.705	-195.852	0.177	-0.001
-433.690	414.651	-0.038	0.081
-432.676	102.006	0.242	0.283
-431.661	70.100	0.099	0.103
-430.646	-200.000	0.022	0.210
-429.632	29.844	0.127	0.108
-428.617	6.303	0.106	-0.079
-427.603	-125.519	0.070	0.011
-426.588	-95.399	0.467	-0.126
-425.573	-87.913	0.321	0.097
-424.559	800.000	-0.062	-0.245
-423.544	800.000	-0.018	-0.071
-422.530	800.000	0.006	-0.026
-421.515	800.000	-0.074	-0.259
-420.500	-172.021	-0.167	-0.005
-419.486	800.000	0.073	-0.224
-418.471	-36.354	0.321	-0.173
-417.457	-200.000	0.021	-0.430
-416.442	146.175	0.128	-0.171
-415.428	-188.151	0.236	-0.003
-414.413	33.349	0.146	-0.127
-413.398	267.685	0.162	-0.284
-412.384	21.772	0.117	0.096
-411.369	8.850	0.190	0.143
-410.355	-200.000	0.007	0.042
-409.340	614.814	0.056	0.141
-408.325	-163.250	0.218	0.010
-407.311	67.142	-0.197	-0.201
-406.296	-93.077	0.163	0.045
-405.282	-71.481	-0.285	-0.107
-404.267	62.469	-0.163	0.163
-403.252	540.457	0.096	-0.229
-402.238	467.959	0.102	-0.230
-401.223	-61.226	-0.328	-0.138
-400.209	-77.167	0.205	0.071
-399.194	284.456	-0.122	-0.220
-398.179	-73.106	0.190	-0.070
-397.165	-200.000	-0.017	0.192
-396.150	-200.000	-0.002	-0.249
-395.136	23.984	0.025	-0.021
-394.121	-200.000	-0.006	-0.416
-393.106	426.361	-0.064	-0.139
-392.092	-200.000	0.014	0.081
-391.077	-34.798	-0.198	-0.108
-390.063	328.811	-0.036	-0.069
-389.048	-200.000	0.010	-0.057
-388.033	13.018	-0.059	0.045
-387.019	-147.278	-0.371	0.032
-386.004	-200.000	-0.015	0.138
-384.990	-55.533	-0.230	-0.103
-383.975	-22.319	-0.207	0.126
-382.960	-200.000	-0.007	-0.103
-381.946	-200.000	0.014	0.090
-380.931	258.342	0.061	-0.105
-379.917	-200.000	-0.006	-0.148
-378.902	2.768	0.056	-0.041
-377.888	-111.059	-0.353	-0.072
-376.873	114.104	-0.115	-0.140
-375.858	-81.284	0.282	0.093
-374.844	-33.160	-0.180	0.100
-373.829	12.881	0.207	0.160
-372.815	-118.339	0.084	-0.015
-371.800	125.537	0.152	0.192
-370.785	693.311	0.084	0.219
-369.771	-122.208	-0.076	-0.012
-368.756	-61.005	-0.274	0.116
-367.742	800.000	-0.007	0.029
-366.727	-89.309	0.449	-0.132
-365.712	-108.725	-0.048	-0.010
-364.698	29.275	-0.294	0.249
-363.683	-126.770	-0.235	0.035
-362.669	121.684	-0.025	-0.031
-361.654	-82.081	0.178	0.058
-360.639	-200.000	-0.006	0.465
-359.625	398.635	-0.102	0.214
-358.610	11.007	-0.136	-0.104
-357.596	-130.262	-0.089	0.012
-356.581	-10.230	0.334	0.221
-355.566	-30.733	-0.179	0.101
-354.552	183.750	0.246	0.364
-353.537	87.179	-0.058	0.064
-352.523	-200.000	-0.052	0.270
-351.508	114.244	-0.146	-0.178
-350.493	15.746	-0.060	0.047
-349.479	-41.110	0.122	0.063
-348.464	800.000	0.148	-0.429
-347.450	-170.566	-0.113	0.004
-346.435	-200.000	0.094	0.528
-345.420	-87.977	-0.381	0.114
-344.406	-200.000	-0.052	0.396
-343.391	326.640	-0.068	0.130
-342.377	-49.792	0.207	0.098
-341.362	608.439	-0.060	0.149
-340.348	102.541	-0.075	0.087
-339.333	257.908	-0.032	-0.054
-338.318	-62.278	-0.289	0.120
-337.304	284.559	0.059	-0.106
-336.289	-47.572	0.195	-0.095
-335.275	740.121	-0.157	0.420
-334.260	-32.488	-0.016	-0.009
-333.245	234.176	-0.038	0.063
-332.231	-44.496	0.134	0.067
-331.216	-200.000	0.027	-0.182
-330.202	-17.536	-0.061	-0.038
-329.187	61.292	-0.039	-0.039
-328.172	183.024	0.080	-0.118
-327.158	404.212	-0.057	-0.120
-326.143	-143.266	-0.257	0.025
-325.129	21.797	-0.249	-0.203
-324.114	-42.926	-0.162	0.082
-323.099	800.000	-0.064	-0.177
-322.085	24.005	0.162	0.133
-321.070	-161.141	-0.133	-0.007
-320.056	185.903	0.160	-0.237
-319.041	9.652	0.163	-0.123
-318.026	152.739	-0.163	-0.222
-317.012	186.489	-0.162	-0.240
-315.997	534.275	0.074	0.175
-314.983	-136.352	0.223	-0.026
-313.968	-66.195	-0.076	-0.030
-312.953	-200.000	-0.010	0.271
-311.939	-3.887	0.210	-0.145
-310.924	-48.252	0.025	0.012
-309.910	-135.226	0.254	0.030
-308.895	-37.576	0.194	0.103
-307.880	800.000	-0.060	0.248
-306.866	-177.265	0.111	-0.003
-305.851	800.000	0.060	-0.210
-304.837	219.422	0.120	-0.191
-303.822	-200.000	0.077	0.379
-302.807	55.133	0.113	-0.108
-301.793	27.003	0.230	0.192
-300.778	-200.000	0.008	0.110
-299.764	39.868	0.160	0.143
-298.749	-200.000	0.037	0.255
-297.735	144.806	-0.083	-0.110
-296.720	-200.000	-0.018	0.312
-295.705	-200.000	-0.005	-0.218
-294.691	-61.123	0.107	-0.045
-293.676	-97.226	0.332	-0.086
-292.662	71.161	-0.048	0.049
-291.647	20.259	0.111	-0.089
-290.632	54.068	0.159	-0.152
-289.618	-83.326	0.250	-0.080
-288.603	14.775	0.160	0.124
-287.589	482.193	-0.105	0.237
-286.574	-200.000	0.025	-0.139
-285.559	-127.876	-0.271	-0.039
-284.545	-200.000	-0.004	-0.089
-283.530	-200.000	-0.008	-0.238
-282.516	116.674	0.163	-0.199
-281.501	50.939	-0.084	-0.080
-280.486	-42.036	0.247	-0.126
-279.472	18.934	0.122	0.097
-278.457	277.962	0.056	-0.099
-277.443	245.331	0.174	-0.292
-276.428	-20.696	-0.109	0.067
-275.413	-75.475	0.274	0.097
-274.399	411.504	-0.080	0.168
-273.384	-9.274	-0.097	-0.065
-272.370	-96.102	-0.430	0.114
-271.355	800.000	-0.120	0.355
-270.340	-101.969	-0.424	-0.102
-269.326	-28.134	0.139	0.080
-268.311	800.000	-0.017	-0.073
-267.297	128.173	-0.111	-0.141
-266.282	93.899	0.084	0.095
-265.267	-100.393	-0.158	-0.039
-264.253	289.293	0.053	0.096
-263.238	-53.977	0.298	0.135
-262.224	-200.000	-0.011	0.258
-261.209	-200.000	-0.017	0.135
-260.195	3.157	-0.212	-0.154
-259.180	-200.000	0.006	-0.112
-258.165	-110.372	0.280	-0.058
-257.151	-200.000	0.058	-0.340
-256.136	800.000	0.061	-0.195
-255.122	373.890	0.078	0.158
-254.107	-97.136	0.059	-0.015
-253.092	523.544	-0.074	0.174
-252.078	184.976	0.137	0.203
-251.063	-109.202	0.149	0.031
-250.049	168.530	0.173	-0.245
-249.034	9.763	0.078	0.059
-248.019	-23.128	0.234	-0.140
-247.005	-67.621	0.493	-0.192
-245.990	-200.000	0.002	-0.119
-244.976	-140.547	-0.130	-0.013
-243.961	-23.311	0.305	0.182
-242.946	-127.596	-0.300	0.043
-241.932	395.141	-0.195	0.404
-240.917	630.658	0.066	-0.165
-239.903	-171.696	0.234	-0.008
-238.888	-134.244	0.251	0.031
-237.873	181.886	0.159	-0.232
-236.859	-200.000	-0.071	-0.375
-235.844	-200.000	-0.002	-0.141
-234.830	800.000	-0.081	0.237
-233.815	-162.650	0.081	-0.004
-232.800	-128.209	0.186	-0.026
-231.786	-104.202	0.142	-0.033
-230.771	123.468	-0.098	0.122
-229.757	144.513	-0.097	-0.129
-228.742	370.934	-0.069	0.139
-227.727	60.239	-0.152	0.149
-226.713	58.874	-0.336	-0.328
-225.698	800.000	-0.160	0.459
-224.684	188.325	0.209	0.311
-223.669	-101.589	-0.245	-0.059
-222.655	-161.886	-0.370	0.019
-221.640	-200.000	-0.048	-0.320
-220.625	65.711	-0.201	-0.202
-219.611	127.478	0.181	-0.228
-218.596	12.223	0.142	0.108
-217.582	-44.683	0.213	-0.106
-216.567	-82.137	0.084	0.027
-215.552	-200.000	0.042	0.197
-214.538	-200.000	-0.061	0.268
-213.523	24.913	0.152	0.125
-212.509	139.172	0.033	0.044
-211.494	-19.386	0.527	-0.325
-210.479	-51.770	0.145	-0.067
-209.465	800.000	-0.031	0.120
-208.450	-67.994	0.389	-0.151
-207.436	67.516	0.013	-0.014
-206.421	-17.106	0.276	-0.173
-205.406	-46.428	0.247	-0.121
-204.392	-200.000	-0.044	-0.209
-203.377	800.000	0.050	0.205
-202.363	-191.473	-0.272	-0.003
-201.348	-150.092	0.088	-0.007
-200.333	-200.000	0.000	0.009
-199.319	150.200	-0.070	-0.094
-198.304	91.663	-0.230	0.257
-197.290	-138.424	0.238	0.026
-196.275	-182.257	0.142	0.003
-195.260	25.231	-0.130	-0.108
-194.246	65.253	0.276	0.277
-193.231	-27.677	-0.230	-0.133
-192.217	-2.518	0.177	-0.123
-191.202	88.832	-0.354	0.391
-190.187	-200.000	0.014	-0.103
-189.173	800.000	-0.041	-0.133
-188.158	-178.340	0.143	-0.003
-187.144	-79.571	-0.263	-0.088
-186.129	69.687	0.154	-0.158
-185.114	-130.462	0.217	0.029
-184.100	-52.101	-0.126	0.058
-183.085	-200.000	0.030	0.242
-182.071	-200.000	0.021	0.095
-181.056	800.000	-0.058	0.190
-180.042	-200.000	0.001	-0.015
-179.027	11.867	0.098	-0.075
-178.012	168.819	0.171	-0.242
-176.998	-200.000	-0.048	0.367
-175.983	100.612	0.164	0.189
-174.969	800.000	-0.100	0.366
-173.954	501.191	0.079	0.181
-172.939	1.214	0.204	0.145
-171.925	111.964	0.141	-0.168
-170.910	25.448	0.160	0.132
-169.896	-5.360	0.073	0.050
-168.881	-25.839	0.219	-0.128
-167.866	108.311	0.150	-0.178
-166.852	-89.266	-0.025	0.007
-165.837	262.724	0.139	-0.239
-164.823	-119.773	0.052	-0.009
-163.808	-101.308	0.058	-0.014
-162.793	185.474	-0.094	-0.139
-161.779	-48.333	-0.066	0.032
-160.764	-18.750	0.119	-0.074
-159.750	-200.000	0.020	-0.144
-158.735	-143.361	0.134	0.013
-157.720	-89.142	-0.049	0.014
-156.706	171.515	-0.205	-0.292
-155.691	-22.452	0.245	-0.147
-154.677	16.068	-0.247	-0.193
-153.662	156.558	-0.186	-0.255
-152.647	-129.692	-0.080	0.011
-151.633	-200.000	0.009	-0.074
-150.618	18.244	0.254	0.201
-149.604	152.012	-0.173	0.234
-148.589	800.000	-0.021	0.089
-147.574	-165.624	-0.363	-0.016
-146.560	-100.096	-0.287	0.071
-145.545	-180.386	0.153	-0.003
-144.531	-104.463	0.171	-0.039
-143.516	-200.000	0.069	-0.317
-142.502	212.091	0.021	-0.033
-141.487	800.000	0.061	-0.174
-140.472	-14.881	0.240	0.152
-139.458	669.088	-0.115	-0.294
-138.443	-2.773	-0.128	-0.089
-137.429	-200.000	-0.040	0.235
-136.414	-115.847	0.500	-0.093
-135.399	136.696	-0.123	-0.159
-134.385	22.937	-0.098	-0.080
-133.370	-63.519	0.087	-0.035
-132.356	-121.943	0.124	0.020
-131.341	-200.000	0.044	0.387
-130.326	404.523	0.119	0.248
-129.312	519.324	-0.054	0.126
-128.297	-121.849	0.172	0.028
-127.283	-121.667	-0.220	-0.036
-126.268	295.008	0.105	0.191
-125.253	237.811	-0.196	-0.323
-124.239	-132.419	-0.297	0.038
-123.224	-200.000	0.057	0.354
-122.210	-200.000	0.041	-0.241
-121.195	309.282	-0.115	0.214
-120.180	-39.163	0.160	0.083
-119.166	-25.581	0.178	0.104
-118.151	154.881	-0.103	0.140
-117.137	296.852	-0.187	0.339
-116.122	-156.253	0.297	-0.018
-115.107	-95.171	0.257	-0.068
-114.093	197.062	-0.142	0.215
-113.078	400.777	-0.139	0.288
-112.064	-12.445	-0.223	0.144
-111.049	-95.772	0.102	-0.027
-110.034	800.000	-0.039	0.115
-109.020	-1.291	-0.262	0.183
-108.005	53.151	-0.060	-0.057
-106.991	51.294	-0.166	-0.155
-105.976	-13.571	-0.109	-0.070
-104.962	800.000	0.058	0.208
-103.947	-200.000	-0.008	-0.187
-102.932	-41.604	-0.315	-0.160
-101.918	-141.533	-0.394	0.039
-100.903	433.658	-0.022	0.048
-99.889	-200.000	0.000	-0.036
-98.874	-164.282	0.494	-0.022
-97.859	-147.077	0.245	0.021
-96.845	-7.340	0.280	0.187
-95.830	383.865	0.107	-0.219
-94.816	36.096	0.281	0.245
-93.801	-57.452	0.221	-0.096
-92.786	483.780	-0.037	0.084
-91.772	800.000	0.052	0.186
-90.757	4.622	-0.096	-0.070
-89.743	66.557	-0.105	0.106
-88.728	415.014	-0.133	0.281
-87.713	98.501	0.068	-0.078
-86.699	22.076	0.055	0.045
-85.684	-200.000	-0.075	0.337
-84.670	11.258	-0.409	0.309
-83.655	-200.000	-0.049	-0.377
-82.640	-152.847	0.206	-0.014
-81.626	258.192	-0.220	0.375
-80.611	-126.298	-0.292	-0.043
-79.597	178.833	0.117	0.169
-78.582	395.741	-0.094	0.194
-77.567	-97.019	0.237	-0.061
-76.553	-200.000	0.030	0.160
-75.538	800.000	0.097	0.268
-74.524	-200.000	-0.020	0.316
-73.509	-81.793	0.123	0.040
-72.494	800.000	-0.038	0.129
-71.480	-5.359	-0.349	0.237
-70.465	800.000	0.005	0.016
-69.451	-200.000	-0.047	0.270
-68.436	800.000	0.090	0.252
-67.422	78.164	-0.115	-0.121
-66.407	-200.000	0.009	0.338
-65.392	-17.084	-0.035	-0.022
-64.378	24.178	-0.429	-0.350
-63.363	24.048	0.267	-0.217
-62.349	-17.168	0.078	0.049
-61.334	-51.101	-1.333	-0.617
-60.319	800.000	0.218	0.714
-59.305	542.909	-0.311	-0.732
-58.290	800.000	0.245	0.994
-57.276	250.122	0.878	1.472
-56.261	-200.000	96.553	573.960
-55.246	632.141	1389.738	3475.000
-54.232	193.756	2569.671	3840.366
-53.217	117.891	2173.743	2643.263
-52.203	44.057	1716.865	1553.722
-51.188	36.813	1530.419	1335.223
-50.173	34.453	1503.420	1295.600
-49.159	53.880	1551.252	1471.213
-48.144	55.536	1569.384	1499.768
-47.130	36.977	1529.489	1335.328
-46.115	33.872	1514.894	1301.305
-45.100	33.796	1511.111	1297.483
-44.086	33.713	1509.466	1295.449
-43.071	33.690	1507.761	1293.784
-42.057	33.642	1505.754	1291.679
-41.042	33.795	1503.958	1291.129
-40.027	33.728	1502.810	1289.634
-39.013	33.812	1501.166	1288.745
-37.998	33.701	1500.087	1287.015
-36.984	33.753	1499.169	1286.526
-35.969	33.743	1498.027	1285.430
-34.954	33.772	1496.130	1283.944
-33.940	33.721	1494.966	1282.552
-32.925	33.814	1493.510	1281.883
-31.911	33.694	1492.495	1280.147
-30.896	33.772	1490.920	1279.271
-29.881	33.814	1489.473	1278.266
-28.867	33.802	1488.108	1276.959
-27.852	33.765	1486.600	1275.364
-26.838	33.775	1485.214	1274.194
-25.823	33.651	1484.343	1272.565
-24.809	33.683	1482.603	1271.238
-23.794	33.766	1480.619	1270.039
-22.779	33.722	1479.598	1268.821
-21.765	33.736	1478.450	1267.876
-20.750	33.713	1477.464	1266.827
-19.736	33.780	1476.116	1266.073
-18.721	33.644	1475.440	1264.533
-17.706	33.605	1474.545	1263.455
-16.692	33.632	1473.341	1262.554
-15.677	33.773	1471.807	1262.127
-14.663	33.641	1471.747	1261.147
-13.648	33.636	1470.752	1260.211
-12.633	33.727	1469.063	1259.317
-11.619	33.569	1469.012	1258.175
-10.604	33.625	1467.964	1257.603
-9.590	33.616	1466.793	1256.490
-8.575	33.657	1466.241	1256.235
-7.560	33.709	1464.732	1255.238
-6.546	33.684	1464.659	1254.961
-5.531	33.632	1463.369	1253.462
-4.517	33.604	1462.643	1252.605
-3.502	33.629	1461.747	1251.951
-2.487	33.700	1460.541	1251.340
-1.473	33.696	1459.031	1249.968
-0.458	33.647	1457.974	1248.691
0.556	34.702	1448.365	1235.370
1.571	30.625	1420.200	1185.318
2.586	25.914	1356.236	1103.081
3.600	23.687	1271.989	1021.669
4.615	22.000	1226.108	975.362
5.629	18.630	1170.591	913.212
6.644	11.151	1087.752	811.386
7.659	5.311	1048.265	753.762
8.673	4.366	1042.899	745.298
9.688	4.311	1039.713	742.695
10.702	4.224	1038.023	741.007
11.717	4.349	1036.430	740.398
12.731	6.241	1038.103	750.561
13.746	13.439	1048.240	792.394
14.761	20.032	1056.092	829.956
15.775	21.211	1057.046	836.284
16.790	20.629	1055.250	832.005
17.804	19.518	1053.439	825.196
18.819	18.657	1051.658	819.616
19.834	18.147	1049.688	815.575
20.848	18.060	1049.194	814.705
21.863	17.978	1048.738	813.889
22.877	17.677	1047.945	811.767
23.892	17.498	1047.169	810.243
24.907	17.528	1046.285	809.631
25.921	17.370	1045.886	808.497
26.936	17.347	1045.052	807.671
27.950	17.523	1043.709	807.396
28.965	17.479	1042.570	806.238
29.980	17.663	1041.485	806.195
30.994	17.707	1040.706	805.730
32.009	17.829	1039.879	805.594
33.023	17.825	1039.304	805.059
34.038	17.680	1038.488	803.671
35.053	17.841	1037.320	803.458
36.067	17.706	1036.272	801.937
37.082	17.616	1035.690	800.993
38.096	17.653	1034.842	800.441
39.111	17.644	1034.383	799.972
40.126	17.850	1033.679	800.322
41.140	17.669	1032.590	798.562
42.155	17.473	1030.875	796.248
43.169	17.195	1030.515	794.598
44.184	17.242	1028.825	793.444
45.199	17.315	1027.766	792.898
46.213	17.260	1027.117	792.071
47.228	17.279	1026.215	791.394
48.242	17.479	1025.565	791.754
49.257	17.563	1024.563	791.302
50.271	17.510	1023.397	790.085
51.286	17.677	1022.543	790.130
52.301	17.773	1021.658	789.819
53.315	17.693	1021.151	788.989
54.330	17.531	1020.415	787.601
55.344	17.412	1019.309	786.126
56.359	17.395	1018.118	785.058
57.374	17.471	1017.529	784.886
58.388	17.409	1016.799	783.970
59.403	17.300	1015.728	782.573
60.417	17.224	1015.283	781.810
61.432	17.215	1014.767	781.301
62.447	17.256	1013.568	780.498
63.461	17.051	1013.107	779.133
64.476	17.107	1011.787	778.304
65.490	17.020	1011.431	777.563
66.505	17.010	1010.397	776.656
67.520	17.076	1009.334	776.070
68.534	17.202	1008.057	775.595
69.549	17.035	1008.208	774.882
70.563	17.206	1007.056	774.708
71.578	17.014	1006.543	773.369
72.593	17.006	1005.502	772.465
73.607	16.959	1004.400	771.336
74.622	16.834	1003.469	769.983
75.636	16.780	1002.851	769.195
76.651	16.961	1001.792	769.137
77.666	17.000	1001.126	768.735
78.680	17.008	1000.437	768.174
79.695	17.000	1000.380	768.028
80.709	17.130	999.486	767.858
81.724	17.198	998.497	767.339
82.739	17.293	998.076	767.377
83.753	17.348	997.233	766.910
84.768	17.465	996.643	766.912
85.782	17.693	995.940	767.332
86.797	17.805	995.898	767.734
87.812	17.960	994.834	767.543
88.826	17.751	993.686	765.653
89.841	17.741	992.897	764.932
90.855	17.643	992.388	764.030
91.870	17.673	991.923	763.740
92.884	17.767	991.091	763.454
93.899	17.794	990.653	763.171
94.914	17.809	989.063	761.944
95.928	17.872	988.915	762.043
96.943	17.778	988.225	761.024
97.957	17.934	986.989	760.702
98.972	17.564	986.574	758.667
99.987	17.856	985.027	758.710
101.001	17.696	984.714	757.687
102.016	17.829	983.876	757.565
103.030	17.799	983.160	756.814
104.045	17.649	982.021	755.206
105.060	17.714	981.149	754.759
106.074	17.642	980.370	753.774
107.089	17.467	979.293	752.105
108.103	17.290	978.299	750.492
109.118	17.154	977.250	749.023
110.133	17.091	976.184	747.864
111.147	17.153	975.479	747.529
112.162	17.046	974.894	746.542
113.176	17.147	974.127	746.335
114.191	17.273	973.314	746.197
115.206	17.405	972.315	745.945
116.220	17.481	971.439	745.539
117.235	17.231	971.030	744.065
118.249	17.273	970.121	743.487
119.264	17.328	969.072	742.859
120.279	17.195	968.146	741.500
121.293	17.211	967.521	741.029
122.308	17.231	966.443	740.221
123.322	17.098	965.507	738.860
124.337	16.866	964.941	737.352
125.352	16.857	963.818	736.391
126.366	17.040	962.186	735.873
127.381	16.851	961.609	734.546
128.395	16.984	960.582	734.275
129.410	17.037	959.778	733.826
130.424	17.050	958.831	733.089
131.439	17.080	957.976	732.503
132.454	17.107	957.581	732.251
133.468	17.254	956.971	732.355
134.483	17.236	956.273	731.676
135.497	17.369	955.191	731.355
136.512	17.227	954.528	730.174
137.527	17.329	953.913	730.077
138.541	17.325	953.177	729.434
139.556	17.454	952.219	729.187
140.570	17.270	951.847	728.051
141.585	17.532	951.199	728.613
142.600	17.633	950.346	728.323
143.614	17.785	949.655	728.380
144.629	17.693	949.020	727.436
145.643	17.761	948.156	727.001
146.658	17.772	947.279	726.311
147.673	17.622	946.292	724.851
148.687	17.518	945.091	723.426
149.702	17.457	944.278	722.477
150.716	17.222	943.665	720.950
151.731	17.284	942.770	720.464
152.746	17.383	941.994	720.226
153.760	17.398	941.331	719.718
154.775	17.292	940.599	718.647
155.789	17.449	940.234	718.968
156.804	17.496	939.137	718.267
157.819	17.551	938.219	717.732
158.833	17.520	937.997	717.365
159.848	17.608	937.340	717.172
160.862	17.855	936.354	717.394
161.877	17.789	935.699	716.551
162.892	17.602	935.125	715.262
163.906	17.389	933.672	713.194
164.921	17.459	932.833	712.781
165.935	17.443	931.595	711.705
166.950	17.513	930.537	711.126
167.964	17.526	929.857	710.600
168.979	17.605	928.898	710.134
169.994	17.383	928.213	708.624
171.008	17.385	927.046	707.679
172.023	17.583	926.419	707.958
173.037	17.585	925.929	707.529
174.052	17.756	925.462	707.821
175.067	17.721	924.588	706.945
176.081	17.559	923.718	705.545
177.096	17.435	922.769	704.244
178.110	17.436	921.946	703.561
179.125	17.327	921.501	702.706
180.140	17.393	920.419	702.093
181.154	17.515	919.748	702.020
182.169	17.638	919.288	702.112
183.183	17.649	918.898	701.799
184.198	17.726	918.204	701.524
185.213	17.979	917.174	701.716
186.227	17.762	916.901	700.552
187.242	17.782	916.284	700.100
188.256	17.939	915.964	700.440
189.271	18.040	915.340	700.315
190.286	18.179	914.276	700.007
191.300	17.953	913.240	698.229
192.315	17.568	912.360	695.923
193.329	17.374	911.348	694.294
194.344	17.267	911.270	693.736
195.359	17.500	910.122	693.752
196.373	17.687	909.966	694.333
197.388	17.666	909.591	693.902
198.402	17.919	909.090	694.486
199.417	17.997	909.197	694.824
200.432	18.120	908.577	694.786
201.446	18.242	907.958	694.748
202.461	18.246	907.670	694.483
203.475	18.280	907.389	694.346
204.490	18.358	906.389	693.835
205.504	18.089	905.805	692.238
206.519	17.956	904.935	690.972
207.534	17.967	903.827	690.110
208.548	17.959	902.946	689.342
209.563	18.026	902.609	689.296
210.577	17.955	901.747	688.290
211.592	18.005	901.173	687.993
212.607	18.171	900.941	688.422
213.621	18.350	900.332	688.618
214.636	18.350	899.279	687.752
215.650	18.327	898.782	687.216
216.665	18.212	898.613	686.564
217.680	18.265	898.243	686.436
218.694	18.515	897.405	686.735
219.709	18.318	896.835	685.450
220.723	18.315	896.531	685.143
221.738	18.250	895.884	684.328
222.753	18.250	895.175	683.728
223.767	18.253	894.316	683.021
224.782	18.315	893.393	682.503
225.796	18.423	892.765	682.394
226.811	18.499	892.369	682.335
227.826	18.459	891.312	681.306
228.840	18.397	890.945	680.719
229.855	18.290	889.986	679.502
230.869	18.344	889.068	678.953
231.884	18.368	888.697	678.706
232.899	18.309	887.895	677.802
233.913	18.184	887.177	676.698
234.928	18.131	886.535	675.940
235.942	18.007	886.098	675.056
236.957	18.054	884.963	674.317
237.972	18.081	884.648	674.122
238.986	18.193	883.944	673.969
240.001	18.123	883.189	673.057
241.015	18.045	882.868	672.448
242.030	18.181	882.015	672.271
243.045	18.303	881.636	672.404
244.059	18.352	880.990	672.042
245.074	18.347	880.324	671.455
246.088	18.544	879.551	671.579
247.103	18.445	879.244	670.896
248.117	18.560	878.855	670.989
249.132	18.590	878.601	670.856
250.147	18.924	877.666	671.386
251.161	19.058	877.284	671.559
252.176	19.050	876.812	671.105
253.190	19.202	875.968	670.991
254.205	19.068	875.681	670.193
255.220	19.084	875.063	669.723
256.234	19.175	874.067	669.253
257.249	19.050	873.897	668.579
258.263	19.273	873.064	668.746
259.278	19.238	872.347	668.002
260.293	19.089	871.973	667.079
261.307	19.105	872.003	667.108
262.322	19.182	871.309	666.813
263.336	19.313	870.725	666.814
264.351	19.248	869.797	665.796
265.366	19.280	869.231	665.428
266.380	19.398	868.472	665.240
267.395	19.280	867.885	664.277
268.409	19.289	867.240	663.759
269.424	19.091	866.709	662.534
270.439	19.190	865.655	662.050
271.453	19.249	864.698	661.485
272.468	19.145	864.004	660.497
273.482	18.731	864.211	659.009
274.497	19.049	863.436	659.577
275.512	18.930	862.380	658.258
276.526	18.943	861.721	657.745
277.541	19.109	860.630	657.490
278.555	19.110	860.624	657.431
279.570	19.066	860.230	656.905
280.585	19.325	859.717	657.443
281.599	19.369	859.296	657.230
282.614	19.337	858.411	656.374
283.628	19.125	857.831	655.064
284.643	19.063	857.619	654.607
285.657	19.184	856.721	654.325
286.672	19.267	856.053	654.070
287.687	19.145	856.130	653.610
288.701	19.278	855.290	653.416
289.716	19.347	854.650	653.129
290.730	19.300	854.297	652.625
291.745	19.477	853.397	652.546
292.760	19.345	852.678	651.441
293.774	19.387	852.220	651.192
294.789	19.582	852.035	651.728
295.803	19.608	851.467	651.333
296.818	19.308	850.903	649.716
297.833	19.251	850.021	648.769
298.847	19.354	849.015	648.332
299.862	19.490	848.427	648.336
300.876	19.422	847.630	647.416
301.891	19.422	847.362	647.153
302.906	19.670	846.834	647.620
303.920	19.722	846.307	647.356
304.935	19.847	845.666	647.278
305.949	19.846	845.345	646.970
306.964	19.788	844.630	646.147
307.979	19.679	843.713	644.984
308.993	19.650	843.352	644.543
310.008	19.605	843.157	644.167
311.022	19.807	842.547	644.398
312.037	19.730	841.935	643.585
313.052	19.816	841.231	643.309
314.066	19.557	840.345	641.614
315.081	19.344	839.693	640.266
316.095	19.499	839.248	640.449
317.110	19.643	838.695	640.503
318.125	19.514	838.008	639.443
319.139	19.456	837.644	638.896
320.154	19.490	837.513	638.862
321.168	19.567	836.589	638.388
322.183	19.465	836.462	637.857
323.197	19.543	835.746	637.543
324.212	19.689	835.176	637.590
325.227	19.624	834.649	636.891
326.241	19.600	834.334	636.506
327.256	19.629	833.644	636.030
328.270	19.622	832.946	635.416
329.285	19.555	832.474	634.754
330.300	19.648	831.771	634.501
331.314	19.487	831.551	633.689
332.329	19.602	830.578	633.313
333.343	19.827	830.301	633.870
334.358	19.871	829.722	633.531
335.373	19.777	829.391	632.880
336.387	19.946	828.460	632.730
337.402	19.961	828.117	632.467
338.416	19.999	827.494	632.073
339.431	20.021	827.044	631.755
340.446	20.143	826.904	632.038
341.460	20.289	826.249	632.014
342.475	20.393	825.517	631.776
343.489	20.489	824.766	631.494
344.504	20.396	824.848	631.161
345.519	20.315	824.254	630.359
346.533	20.460	823.681	630.388
347.548	20.473	823.548	630.281
348.562	20.398	822.403	629.074
349.577	20.110	822.138	627.775
350.592	20.182	820.716	626.895
351.606	19.986	820.820	626.209
352.621	19.869	820.453	625.451
353.635	20.016	820.100	625.655
354.650	19.951	819.902	625.216
355.665	20.152	818.894	625.117
356.679	20.293	818.200	625.041
357.694	20.246	818.498	625.042
358.708	20.111	817.805	623.971
359.723	20.303	817.216	624.159
360.738	20.297	816.540	623.564
361.752	20.313	816.184	623.295
362.767	20.402	815.267	622.857
363.781	20.451	815.445	623.116
364.796	20.551	814.914	623.013
365.810	20.544	814.948	622.958
366.825	20.571	814.348	622.540
367.840	20.850	813.735	623.016
368.854	20.673	813.512	622.157
369.869	20.499	813.197	621.240
370.883	20.493	812.523	620.649
371.898	20.471	811.708	619.890
372.913	20.667	811.253	620.188
373.927	20.870	810.883	620.573
374.942	20.651	810.088	619.131
375.956	20.818	809.038	618.866
376.971	20.691	808.861	618.227
377.986	20.853	808.490	618.463
379.000	20.847	807.861	617.905
380.015	20.898	807.695	617.904
381.029	20.851	806.975	617.133
382.044	20.899	806.434	616.833
383.059	20.891	805.639	616.145
384.073	20.882	805.043	615.602
385.088	20.820	804.859	615.187
386.102	20.956	803.798	614.801
387.117	20.614	803.484	613.302
388.132	20.508	802.958	612.473
389.146	20.679	802.340	612.549
390.161	20.474	802.419	611.835
391.175	20.932	801.810	612.925
392.190	20.926	801.136	612.335
393.205	20.784	800.877	611.586
394.219	20.909	800.366	611.578
395.234	20.754	799.831	610.573
396.248	20.600	799.219	609.512
397.263	20.481	799.066	608.924
398.278	20.538	798.362	608.534
399.292	20.534	798.018	608.204
400.307	20.486	797.467	607.559
401.321	20.623	796.565	607.300
402.336	20.543	796.849	607.181
403.350	20.544	796.185	606.626
404.365	20.678	796.042	606.929
405.380	20.796	795.672	607.004
406.394	20.945	795.475	607.321
407.409	21.175	794.788	607.544
408.423	21.080	794.637	607.045
409.438	21.090	794.068	606.592
410.453	21.173	793.599	606.468
411.467	21.204	793.359	606.336
412.482	21.298	792.622	606.046
413.496	21.387	792.253	606.019
414.511	21.416	792.191	606.019
415.526	21.369	791.842	605.535
416.540	21.439	791.290	605.303
417.555	21.355	790.874	604.641
418.569	21.472	790.023	604.340
419.584	21.497	789.521	603.989
420.599	21.368	789.047	603.127
421.613	159.686	1369.564	1793.414
422.628	138.233	1454.158	1793.522
