DTS Sentinel unit serial number:	SN413079Multiplexer serial number:	ORYXHardware model number:	OX4-SRSoftware version number:	ORYX F/W v4.00 Oryx Data Collector v3.7.2.0data status	okinstallation	princeton_trtdifferential loss correction	single-endedforward channel	channel 3reverse channel	N/Adate	2019/09/12time	08:10:11forward acquisition time	60.00reverse acquisition time	0.00gamma	496.2192k internal	0.2313k external	0.2313temperature offset calibration	1.0038default loss term (dB/km)	0.3790temperature slope calibration	1.0000multiplexer offset coefficient	1.0000multiplexer slope coefficient	1.0000fibre end	0.00T internal ref (°C)	33.25T ext. ref 1 (°C)	1.69T ext. ref 2 (°C)	29.80length (m)	temperature (°C)	Stokes	anti-Stokes-747.200	68.932	0.115	-0.120
-746.185	-127.627	-0.755	0.111
-745.171	-200.000	0.008	0.225
-744.156	400.150	-0.133	0.283
-743.142	159.346	0.244	-0.345
-742.127	-200.000	0.022	0.233
-741.112	-24.779	0.098	0.059
-740.098	-200.000	-0.028	0.190
-739.083	-200.000	-0.059	-0.279
-738.069	306.942	0.108	0.205
-737.054	-200.000	-0.038	-0.299
-736.039	-4.494	-0.280	-0.196
-735.025	-48.387	-0.083	0.040
-734.010	-200.000	0.106	-0.515
-732.996	-200.000	0.041	-0.184
-731.981	-129.805	-0.161	0.022
-730.966	241.948	-0.080	-0.136
-729.952	21.151	-0.131	-0.108
-728.937	128.790	-0.143	-0.185
-727.923	-200.000	-0.001	-0.046
-726.908	-48.747	0.254	0.124
-725.894	-59.763	-0.166	-0.072
-724.879	-98.449	0.059	0.015
-723.864	-7.675	0.198	-0.136
-722.850	-58.142	-0.137	0.061
-721.835	-22.796	0.192	-0.117
-720.821	94.341	-0.022	-0.026
-719.806	-56.522	-0.047	-0.021
-718.791	259.103	-0.209	0.365
-717.777	-94.410	0.287	0.079
-716.762	208.606	-0.034	0.054
-715.748	38.104	-0.385	0.347
-714.733	-200.000	0.018	-0.224
-713.718	800.000	-0.102	-0.451
-712.704	-145.897	0.173	0.016
-711.689	800.000	0.039	0.112
-710.675	107.004	0.156	0.187
-709.660	123.988	0.312	-0.397
-708.645	-68.868	0.181	-0.071
-707.631	179.064	-0.126	0.186
-706.616	-67.650	-0.154	0.061
-705.602	11.102	-0.279	0.216
-704.587	-129.916	-0.067	-0.009
-703.572	-61.652	0.200	-0.085
-702.558	800.000	-0.072	-0.260
-701.543	-200.000	0.110	-0.515
-700.529	-35.165	0.177	-0.097
-699.514	441.779	-0.032	0.070
-698.499	56.470	-0.091	-0.090
-697.485	-111.520	-0.257	0.053
-696.470	18.169	0.223	0.180
-695.456	800.000	0.110	0.368
-694.441	-77.886	-0.211	-0.074
-693.426	-200.000	0.010	-0.209
-692.412	-16.950	-0.168	0.107
-691.397	-200.000	0.020	-0.202
-690.383	800.000	0.071	-0.257
-689.368	-200.000	-0.012	-0.098
-688.354	683.787	0.065	-0.171
-687.339	-200.000	-0.017	0.139
-686.324	-124.753	0.259	0.041
-685.310	-141.334	0.370	0.038
-684.295	99.303	-0.235	-0.275
-683.281	800.000	0.108	0.342
-682.266	-108.124	0.319	-0.070
-681.251	-102.315	0.026	-0.006
-680.237	-118.449	0.277	-0.050
-679.222	330.342	0.040	0.079
-678.208	-86.645	0.424	0.131
-677.193	-48.942	0.180	-0.087
-676.178	13.771	0.075	0.059
-675.164	-158.683	0.367	0.021
-674.149	-200.000	0.021	-0.204
-673.135	-200.000	0.021	-0.307
-672.120	183.025	-0.125	0.187
-671.105	-200.000	-0.052	-0.267
-670.091	-88.389	0.292	-0.088
-669.076	329.824	0.072	-0.140
-668.062	20.444	-0.107	-0.087
-667.047	-39.900	-0.180	0.095
-666.032	143.625	0.283	0.382
-665.018	-95.198	0.220	-0.060
-664.003	-29.310	-0.314	-0.182
-662.989	-13.585	0.136	-0.089
-661.974	198.209	0.111	0.172
-660.959	-28.743	-0.197	-0.114
-659.945	67.631	-0.246	-0.254
-658.930	800.000	0.059	0.200
-657.916	-7.090	-0.041	-0.028
-656.901	-200.000	0.004	0.048
-655.886	-129.353	0.435	0.061
-654.872	-200.000	-0.013	0.101
-653.857	-173.923	-0.238	0.007
-652.843	-115.481	-0.099	0.019
-651.828	-2.925	0.179	-0.127
-650.814	76.023	-0.150	-0.161
-649.799	-22.635	0.111	0.068
-648.784	-86.657	0.038	0.012
-647.770	-200.000	0.002	0.277
-646.755	-200.000	-0.003	-0.177
-645.741	509.928	0.087	0.204
-644.726	-134.619	0.155	-0.019
-643.711	-145.857	-0.228	-0.020
-642.697	11.549	0.212	0.164
-641.682	-27.641	-0.276	-0.162
-640.668	800.000	0.034	0.147
-639.653	-200.000	-0.009	0.263
-638.638	-22.919	-0.152	-0.092
-637.624	26.306	-0.147	-0.124
-636.609	182.756	0.324	-0.483
-635.595	-75.863	0.156	0.056
-634.580	-143.834	0.281	0.027
-633.565	-118.166	-0.362	0.065
-632.551	800.000	0.140	-0.446
-631.536	64.280	-0.198	-0.201
-630.522	-144.019	-0.201	-0.019
-629.507	-76.027	0.031	-0.011
-628.492	-129.029	-0.226	-0.032
-627.478	800.000	-0.131	-0.442
-626.463	-26.555	0.249	0.147
-625.449	-164.100	0.086	-0.004
-624.434	538.044	-0.121	-0.289
-623.419	414.735	-0.157	0.337
-622.405	-15.013	0.328	-0.212
-621.390	60.844	0.172	0.172
-620.376	165.741	0.082	0.117
-619.361	-77.684	-0.146	0.051
-618.346	800.000	-0.051	0.161
-617.332	-98.464	0.149	0.038
-616.317	170.200	-0.082	0.118
-615.303	103.494	0.240	0.284
-614.288	-116.349	-0.179	-0.033
-613.273	364.470	-0.116	-0.235
-612.259	7.652	-0.181	-0.137
-611.244	2.351	-0.073	0.053
-610.230	-28.660	-0.185	0.107
-609.215	-200.000	0.009	-0.130
-608.201	-82.513	-0.325	-0.106
-607.186	-200.000	0.025	-0.186
-606.171	-6.144	0.068	0.047
-605.157	-1.664	-0.077	-0.054
-604.142	-76.592	-0.151	-0.053
-603.128	-17.262	-0.054	-0.034
-602.113	-71.326	-0.382	0.145
-601.098	-200.000	-0.002	0.032
-600.084	-14.984	0.126	-0.082
-599.069	490.983	0.159	0.368
-598.055	-64.016	-0.176	0.073
-597.040	96.487	0.217	0.250
-596.025	-41.154	-0.238	0.124
-595.011	398.136	0.081	-0.171
-593.996	226.111	-0.092	-0.150
-592.982	188.931	0.041	0.062
-591.967	260.252	0.128	-0.223
-590.952	-200.000	-0.030	0.301
-589.938	34.423	0.272	-0.239
-588.923	21.744	-0.327	-0.269
-587.909	-200.000	-0.003	0.388
-586.894	-5.998	-0.170	-0.117
-585.879	-200.000	-0.030	0.150
-584.865	-200.000	0.026	0.210
-583.850	13.678	-0.311	-0.243
-582.836	27.716	-0.226	-0.192
-581.821	-147.436	-0.293	-0.025
-580.806	410.490	0.086	-0.183
-579.792	-127.001	-0.405	-0.060
-578.777	652.308	-0.110	0.285
-577.763	800.000	-0.037	-0.109
-576.748	-3.983	-0.181	0.126
-575.733	127.688	0.178	0.228
-574.719	-139.372	0.381	-0.041
-573.704	-3.409	-0.219	0.154
-572.690	39.935	-0.318	0.288
-571.675	-58.788	-0.055	-0.024
-570.661	-121.254	0.206	0.035
-569.646	-19.111	-0.285	0.179
-568.631	-29.531	-0.024	0.014
-567.617	369.877	-0.074	-0.150
-566.602	-65.298	0.299	-0.121
-565.588	-1.048	-0.220	-0.157
-564.573	7.564	0.065	0.049
-563.558	-200.000	0.028	0.139
-562.544	-20.280	-0.351	-0.218
-561.529	208.285	0.108	-0.170
-560.515	800.000	-0.026	-0.093
-559.500	39.078	0.146	0.132
-558.485	-3.752	-0.351	0.245
-557.471	-49.649	-0.356	0.170
-556.456	66.041	0.167	0.171
-555.442	-200.000	-0.027	0.334
-554.427	244.743	0.073	-0.124
-553.412	-25.239	-0.072	-0.043
-552.398	-100.041	-0.292	-0.073
-551.383	37.680	-0.051	0.046
-550.369	229.551	0.114	0.188
-549.354	-77.825	0.103	0.036
-548.339	75.727	-0.097	-0.103
-547.325	330.257	0.201	0.390
-546.310	-200.000	0.029	-0.133
-545.296	538.655	-0.070	0.168
-544.281	-200.000	-0.040	0.270
-543.266	-200.000	-0.010	-0.112
-542.252	55.095	0.223	-0.217
-541.237	-101.951	-0.087	-0.021
-540.223	-115.061	-0.167	0.032
-539.208	-200.000	0.013	-0.075
-538.193	-138.146	0.130	-0.015
-537.179	-44.370	0.040	-0.020
-536.164	250.839	-0.070	0.120
-535.150	-200.000	0.024	0.612
-534.135	-7.457	0.088	-0.060
-533.121	-36.748	0.050	-0.027
-532.106	-66.314	-0.286	-0.115
-531.091	69.989	-0.145	-0.151
-530.077	-200.000	-0.068	0.000
-529.062	-200.000	0.045	-0.242
-528.048	49.055	0.017	-0.016
-527.033	800.000	0.072	0.218
-526.018	323.748	-0.048	0.092
-525.004	31.104	-0.145	0.125
-523.989	35.680	-0.094	0.083
-522.975	-60.271	-0.142	0.061
-521.960	-177.631	-0.146	-0.004
-520.945	180.936	-0.103	0.152
-519.931	748.051	-0.094	-0.255
-518.916	81.573	0.128	-0.139
-517.902	-200.000	-0.012	-0.244
-516.887	800.000	-0.049	-0.200
-515.872	-200.000	0.008	0.318
-514.858	-59.647	0.366	-0.158
-513.843	800.000	-0.053	0.157
-512.829	390.550	0.147	0.307
-511.814	-200.000	0.000	-0.324
-510.799	141.634	-0.145	-0.193
-509.785	-78.515	0.203	0.070
-508.770	62.167	-0.185	0.185
-507.756	-128.585	0.340	0.048
-506.741	313.480	-0.098	-0.186
-505.726	-11.338	0.075	-0.050
-504.712	800.000	0.081	0.249
-503.697	298.972	0.088	-0.162
-502.683	-107.215	0.138	-0.031
-501.668	-200.000	-0.032	-0.370
-500.653	-156.050	-0.281	-0.018
-499.639	-19.968	0.016	0.010
-498.624	524.991	-0.019	-0.045
-497.610	-18.708	0.360	-0.225
-496.595	133.531	-0.318	-0.413
-495.581	-148.080	-0.262	0.022
-494.566	-149.214	0.234	0.019
-493.551	-99.008	0.071	-0.018
-492.537	-26.519	-0.259	0.152
-491.522	-50.308	0.089	-0.042
-490.508	-91.846	0.244	0.069
-489.493	401.472	0.068	0.143
-488.478	80.687	0.116	-0.126
-487.464	30.175	0.174	0.149
-486.449	-1.250	0.126	0.090
-485.435	-200.000	0.033	0.193
-484.420	-190.511	0.335	0.004
-483.405	-200.000	0.011	-0.129
-482.391	114.946	0.097	0.119
-481.376	55.231	0.418	-0.406
-480.362	42.084	-0.232	-0.212
-479.347	-3.637	0.098	0.068
-478.332	79.643	0.091	0.098
-477.318	17.853	-0.127	-0.102
-476.303	-17.231	-0.136	-0.086
-475.289	432.975	0.075	-0.164
-474.274	4.288	0.199	-0.146
-473.259	40.965	-0.282	-0.255
-472.245	416.202	0.047	0.101
-471.230	-51.956	0.135	0.063
-470.216	-140.767	-0.088	0.009
-469.201	-14.253	-0.263	-0.170
-468.186	16.847	-0.037	0.030
-467.172	800.000	0.058	0.182
-466.157	800.000	-0.107	0.322
-465.143	800.000	0.031	0.119
-464.128	33.908	-0.197	0.172
-463.113	-55.465	-0.093	0.042
-462.099	-200.000	0.006	-0.039
-461.084	-43.487	0.473	0.240
-460.070	-200.000	-0.003	0.142
-459.055	335.161	0.045	-0.087
-458.040	480.523	0.117	0.266
-457.026	-200.000	-0.023	-0.217
-456.011	66.005	-0.121	0.124
-454.997	-42.892	-0.089	0.045
-453.982	-200.000	-0.045	0.338
-452.968	-200.000	0.036	0.368
-451.953	114.976	-0.045	0.055
-450.938	113.388	-0.154	0.187
-449.924	-200.000	-0.019	-0.135
-448.909	-94.903	0.157	-0.043
-447.895	-200.000	0.045	-0.219
-446.880	-31.964	-0.324	0.182
-445.865	179.743	-0.154	-0.225
-444.851	-51.496	-0.372	-0.174
-443.836	117.107	0.188	-0.231
-442.822	-2.922	-0.086	-0.060
-441.807	-17.293	-0.179	0.113
-440.792	-60.008	-0.357	-0.153
-439.778	-115.967	-0.086	-0.016
-438.763	800.000	-0.019	0.073
-437.749	457.009	-0.135	-0.301
-436.734	-133.414	0.267	0.034
-435.719	-105.780	0.052	-0.012
-434.705	800.000	0.021	-0.090
-433.690	-200.000	0.021	-0.217
-432.676	800.000	-0.042	0.126
-431.661	-49.420	-0.179	-0.085
-430.646	-188.394	0.293	0.004
-429.632	-33.226	-0.059	0.033
-428.617	309.087	0.125	0.235
-427.603	800.000	0.040	0.127
-426.588	800.000	-0.049	0.181
-425.573	800.000	0.036	-0.153
-424.559	-200.000	0.062	-0.306
-423.544	85.396	-0.107	0.118
-422.530	-82.665	0.087	0.028
-421.515	225.953	0.110	-0.178
-420.500	144.757	0.245	-0.329
-419.486	-29.543	0.283	-0.162
-418.471	-32.520	-0.238	0.133
-417.457	-50.033	0.615	-0.292
-416.442	320.720	-0.154	-0.293
-415.428	-131.563	0.255	0.034
-414.413	410.826	0.073	-0.155
-413.398	-158.382	0.274	0.016
-412.384	-4.688	0.207	0.143
-411.369	-102.071	-0.174	0.042
-410.355	339.021	0.117	0.228
-409.340	-112.973	-0.218	0.043
-408.325	-7.492	-0.319	-0.216
-407.311	131.217	-0.221	-0.284
-406.296	298.443	0.215	-0.395
-405.282	11.958	-0.107	-0.082
-404.267	-52.243	-0.134	0.062
-403.252	81.790	0.078	0.084
-402.238	-200.000	0.063	0.000
-401.223	-63.400	-0.307	0.127
-400.209	-200.000	0.035	0.175
-399.194	-148.688	-0.447	-0.036
-398.179	111.759	0.066	-0.080
-397.165	800.000	0.015	-0.051
-396.150	-61.952	-0.232	-0.097
-395.136	-118.593	-0.047	-0.008
-394.121	105.620	-0.092	0.109
-393.106	-200.000	0.036	0.201
-392.092	10.218	-0.138	0.105
-391.077	178.226	0.155	0.227
-390.063	248.352	0.063	0.107
-389.048	-200.000	-0.019	0.155
-388.033	-200.000	-0.005	0.152
-387.019	-1.522	0.069	0.049
-386.004	84.450	-0.119	-0.130
-384.990	489.172	-0.077	0.176
-383.975	-95.969	0.359	-0.096
-382.960	35.951	0.262	0.231
-381.946	-200.000	0.001	-0.536
-380.931	22.207	0.126	-0.103
-379.917	-44.750	-0.555	-0.277
-378.902	-200.000	-0.008	0.058
-377.888	-70.265	0.398	0.151
-376.873	-127.677	-0.286	0.041
-375.858	203.035	0.178	-0.275
-374.844	69.218	0.134	-0.138
-373.829	-53.596	0.209	0.095
-372.815	66.083	-0.104	-0.106
-371.800	144.880	-0.078	-0.104
-370.785	63.397	0.096	0.097
-369.771	-200.000	-0.003	-0.195
-368.756	757.801	0.079	0.215
-367.742	-75.288	-0.059	0.021
-366.727	-53.333	-0.213	-0.098
-365.712	12.699	-0.127	0.098
-364.698	201.305	0.177	-0.272
-363.683	136.693	-0.076	-0.099
-362.669	92.843	-0.060	-0.068
-361.654	-54.150	-0.215	-0.097
-360.639	67.760	0.310	0.317
-359.625	259.048	0.146	0.251
-358.610	31.793	0.210	-0.181
-357.596	-200.000	0.010	0.058
-356.581	-15.335	0.332	0.212
-355.566	-200.000	-0.049	-0.500
-354.552	109.616	-0.244	-0.293
-353.537	93.936	-0.029	-0.032
-352.523	-36.513	-0.214	0.115
-351.508	369.602	-0.117	0.236
-350.493	555.895	0.149	0.359
-349.479	269.402	-0.260	-0.456
-348.464	-200.000	0.104	0.486
-347.450	25.979	-0.048	0.040
-346.435	436.328	-0.146	0.316
-345.420	153.236	0.120	-0.163
-344.406	-97.682	0.116	0.030
-343.391	-101.692	-0.143	0.035
-342.377	-56.257	-0.365	0.162
-341.362	-200.000	0.102	0.711
-340.348	86.614	-0.123	-0.136
-339.333	196.965	0.214	-0.325
-338.318	-200.000	0.001	-0.071
-337.304	800.000	-0.043	0.182
-336.289	-116.597	0.083	-0.015
-335.275	-123.761	-0.043	0.007
-334.260	86.567	-0.150	0.165
-333.245	-172.762	0.408	0.013
-332.231	-117.985	-0.342	-0.061
-331.216	-200.000	0.037	0.405
-330.202	258.226	-0.139	0.238
-329.187	-65.643	0.120	-0.048
-328.172	-86.172	0.159	0.049
-327.158	-200.000	0.016	-0.119
-326.143	-56.910	-0.114	0.050
-325.129	-67.191	0.214	0.084
-324.114	-21.598	-0.277	0.168
-323.099	-200.000	0.052	0.296
-322.085	307.805	-0.113	0.210
-321.070	-200.000	-0.024	0.122
-320.056	-200.000	-0.016	-0.295
-319.041	-45.081	-0.185	-0.092
-318.026	-77.409	0.123	-0.042
-317.012	66.354	0.029	-0.030
-315.997	-37.863	0.035	0.018
-314.983	-47.420	-0.051	-0.025
-313.968	212.953	0.085	-0.134
-312.953	-62.668	-0.092	-0.038
-311.939	15.095	0.111	-0.087
-310.924	-132.174	0.244	-0.032
-309.910	-119.025	0.450	-0.079
-308.895	228.448	-0.037	-0.060
-307.880	-200.000	-0.051	0.443
-306.866	68.631	-0.292	0.299
-305.851	222.470	0.202	-0.324
-304.837	-20.137	-0.080	0.049
-303.822	-119.277	-0.209	-0.036
-302.807	-200.000	-0.052	0.231
-301.793	800.000	0.065	0.240
-300.778	-200.000	-0.049	-0.259
-299.764	138.695	0.104	0.136
-298.749	34.325	-0.223	-0.194
-297.735	-107.011	-0.269	0.059
-296.720	-200.000	0.035	-0.374
-295.705	135.765	-0.089	0.116
-294.691	-69.034	0.061	0.023
-293.676	34.555	0.196	0.171
-292.662	-67.119	-0.106	0.042
-291.647	-200.000	-0.028	0.408
-290.632	-30.049	0.171	-0.097
-289.618	-93.868	0.370	0.101
-288.603	-133.980	-0.374	-0.046
-287.589	-130.066	0.123	0.017
-286.574	-68.928	-0.093	0.036
-285.559	51.911	-0.198	0.188
-284.545	-150.090	0.167	-0.013
-283.530	-39.419	-0.139	0.072
-282.516	-95.138	0.105	0.028
-281.501	389.696	-0.026	0.053
-280.486	-16.505	0.061	0.038
-279.472	-11.662	0.156	0.102
-278.457	-31.323	-0.054	0.030
-277.443	224.762	-0.103	0.165
-276.428	-59.628	-0.162	0.069
-275.413	31.285	0.274	-0.234
-274.399	-159.028	-0.544	-0.031
-273.384	-108.928	-0.415	0.088
-272.370	94.398	-0.082	0.093
-271.355	20.812	-0.097	0.078
-270.340	-113.702	0.240	0.047
-269.326	-63.990	0.322	-0.131
-268.311	800.000	-0.080	-0.266
-267.297	514.674	-0.047	-0.110
-266.282	-156.166	0.329	-0.021
-265.267	310.822	0.131	-0.244
-264.253	-200.000	0.004	0.172
-263.238	-103.676	-0.097	-0.023
-262.224	179.934	0.190	0.278
-261.209	444.576	-0.095	-0.207
-260.195	-200.000	0.010	0.218
-259.180	74.003	0.069	-0.072
-258.165	27.354	0.115	-0.096
-257.151	-74.905	-0.049	0.018
-256.136	-200.000	-0.013	0.061
-255.122	800.000	0.054	-0.180
-254.107	800.000	-0.053	-0.177
-253.092	194.207	0.200	-0.301
-252.078	1.233	-0.209	0.149
-251.063	95.082	-0.143	-0.162
-250.049	-200.000	0.013	0.331
-249.034	90.389	0.167	-0.186
-248.019	-200.000	-0.012	-0.119
-247.005	46.483	0.266	-0.246
-245.990	-104.273	-0.199	-0.046
-244.976	23.654	0.243	0.199
-243.961	-79.699	0.076	-0.026
-242.946	-157.953	-0.120	0.007
-241.932	800.000	-0.073	0.301
-240.917	17.735	-0.289	0.229
-239.903	-200.000	0.012	-0.225
-238.888	-200.000	0.042	-0.193
-237.873	-130.254	0.441	0.060
-236.859	-30.120	0.196	-0.111
-235.844	66.894	0.193	0.195
-234.830	86.730	-0.223	0.244
-233.815	-200.000	-0.042	0.238
-232.800	30.415	0.465	0.395
-231.786	552.206	0.072	0.172
-230.771	-36.060	0.417	0.224
-229.757	-200.000	0.010	-0.312
-228.742	800.000	0.107	-0.355
-227.727	-106.060	-0.123	0.028
-226.713	314.133	-0.143	0.267
-225.698	-59.545	-0.399	-0.170
-224.684	391.162	-0.140	-0.289
-223.669	-131.132	-0.067	0.009
-222.655	-112.407	-0.343	0.068
-221.640	219.454	-0.021	-0.033
-220.625	-79.714	-0.296	-0.099
-219.611	-104.162	0.088	0.020
-218.596	66.275	-0.148	-0.149
-217.582	-132.843	-0.195	0.025
-216.567	-80.064	0.309	-0.103
-215.552	32.842	-0.061	0.053
-214.538	-85.923	-0.252	0.077
-213.523	-183.950	0.381	0.006
-212.509	800.000	0.066	-0.270
-211.494	-146.786	-0.197	0.017
-210.479	112.467	-0.273	-0.328
-209.465	-4.303	0.369	-0.254
-208.450	-101.265	0.207	-0.050
-207.436	-93.733	-0.344	0.094
-206.421	-84.318	0.235	0.074
-205.406	67.579	-0.168	0.170
-204.392	-19.601	0.177	0.109
-203.377	-17.561	0.309	0.193
-202.363	-200.000	-0.007	0.290
-201.348	-152.163	0.515	-0.037
-200.333	107.461	-0.126	-0.149
-199.319	93.457	0.073	-0.082
-198.304	-34.521	-0.228	0.124
-197.290	800.000	-0.086	0.287
-196.275	-133.680	-0.234	0.029
-195.260	-107.678	0.146	-0.032
-194.246	197.295	-0.067	0.101
-193.231	-55.707	-0.159	-0.071
-192.217	508.147	0.159	-0.365
-191.202	-26.092	-0.057	0.033
-190.187	-200.000	0.037	-0.324
-189.173	648.985	0.077	-0.196
-188.158	243.095	0.184	-0.306
-187.144	126.749	-0.153	0.192
-186.129	2.770	0.268	-0.193
-185.114	-91.208	0.079	-0.022
-184.100	800.000	0.109	-0.452
-183.085	-186.660	0.382	-0.005
-182.071	-61.813	0.135	-0.056
-181.056	-72.642	0.151	-0.055
-180.042	-1.414	0.166	-0.116
-179.027	94.925	0.124	0.141
-178.012	268.665	-0.024	-0.042
-176.998	704.994	0.143	0.374
-175.983	6.516	0.194	-0.143
-174.969	-11.859	0.157	-0.102
-173.954	-200.000	0.014	-0.501
-172.939	-137.078	-0.152	-0.017
-171.925	372.689	0.103	0.207
-170.910	49.636	0.102	-0.096
-169.896	51.057	-0.164	0.154
-168.881	287.046	0.153	-0.275
-167.866	519.495	0.048	-0.111
-166.852	27.333	-0.196	0.163
-165.837	-89.836	0.224	-0.065
-164.823	61.792	0.340	-0.336
-163.808	11.562	-0.072	-0.054
-162.793	745.309	-0.038	-0.101
-161.779	445.355	-0.040	-0.087
-160.764	15.016	-0.226	-0.175
-159.750	-45.929	0.300	0.147
-158.735	-5.848	-0.035	0.024
-157.720	-149.788	0.110	0.009
-156.706	-82.352	-0.190	-0.061
-155.691	-57.738	0.066	-0.029
-154.677	34.234	0.303	0.262
-153.662	214.008	0.145	0.227
-152.647	-134.371	-0.068	-0.008
-151.633	-106.870	0.184	0.040
-150.618	210.358	0.018	0.028
-149.604	-200.000	0.021	0.165
-148.589	-200.000	-0.020	0.360
-147.574	510.653	0.199	0.459
-146.560	615.125	-0.211	-0.524
-145.545	-125.419	-0.086	-0.013
-144.531	-200.000	0.003	-0.027
-143.516	-200.000	-0.013	-0.070
-142.502	254.869	-0.076	-0.129
-141.487	-70.245	-0.475	0.179
-140.472	-30.169	-0.130	-0.073
-139.458	-33.231	0.507	0.278
-138.443	2.103	-0.108	0.077
-137.429	-34.783	-0.321	-0.174
-136.414	-200.000	0.022	0.166
-135.399	21.745	0.108	0.087
-134.385	64.838	0.171	-0.171
-133.370	-139.670	0.136	0.014
-132.356	-40.345	0.237	-0.122
-131.341	81.116	0.104	0.111
-130.326	-143.776	0.447	-0.042
-129.312	-19.927	-0.291	0.178
-128.297	84.667	0.237	0.257
-127.283	579.751	0.096	-0.233
-126.268	-136.731	0.282	-0.032
-125.253	156.238	-0.115	0.157
-124.239	-37.329	-0.578	0.306
-123.224	303.736	-0.065	-0.119
-122.210	36.966	-0.181	0.159
-121.195	-164.262	0.122	-0.006
-120.180	-20.458	0.243	-0.148
-119.166	-59.803	-0.196	-0.083
-118.151	395.919	-0.071	0.148
-117.137	575.446	0.169	-0.407
-116.122	40.741	0.237	0.211
-115.107	776.506	-0.064	-0.172
-114.093	103.153	-0.130	-0.151
-113.078	728.676	0.028	0.074
-112.064	19.454	-0.179	-0.143
-111.049	101.746	-0.072	-0.084
-110.034	-200.000	-0.018	0.110
-109.020	-82.222	-0.152	-0.049
-108.005	-13.163	0.082	0.052
-106.991	-7.502	0.121	0.081
-105.976	16.051	-0.346	0.270
-104.962	-78.720	-0.225	-0.076
-103.947	-117.389	-0.399	0.071
-102.932	253.496	-0.148	-0.250
-101.918	327.082	0.093	-0.176
-100.903	234.080	-0.086	0.139
-99.889	-200.000	0.009	0.131
-98.874	-154.992	-0.225	-0.015
-97.859	230.352	0.226	0.366
-96.845	-77.590	-0.304	0.104
-95.830	403.366	0.134	-0.279
-94.816	-23.447	0.328	0.195
-93.801	-200.000	-0.017	-0.421
-92.786	-59.740	0.498	0.211
-91.772	800.000	0.057	0.202
-90.757	4.778	0.287	0.208
-89.743	96.473	0.025	0.029
-88.728	-200.000	0.007	-0.095
-87.713	148.200	-0.171	-0.228
-86.699	220.295	0.149	0.235
-85.684	800.000	-0.048	0.149
-84.670	-190.090	-0.369	-0.004
-83.655	-47.862	0.196	-0.094
-82.640	-200.000	0.010	-0.109
-81.626	-108.920	-0.451	-0.095
-80.611	-200.000	0.054	-0.361
-79.597	-200.000	0.012	-0.149
-78.582	53.649	-0.091	0.087
-77.567	-200.000	-0.005	-0.465
-76.553	-117.696	0.465	-0.083
-75.538	800.000	-0.075	0.253
-74.524	-200.000	0.004	0.405
-73.509	92.854	-0.170	0.190
-72.494	-28.300	0.223	0.127
-71.480	800.000	0.095	-0.381
-70.465	-41.490	0.348	-0.177
-69.451	-200.000	-0.066	0.409
-68.436	185.784	0.124	0.183
-67.422	-6.558	-0.207	-0.139
-66.407	117.588	-0.156	-0.189
-65.392	116.835	-0.099	-0.121
-64.378	-75.895	0.182	-0.064
-63.363	82.291	-0.196	0.210
-62.349	-200.000	-0.030	0.166
-61.334	155.404	-0.874	-1.189
-60.319	-200.000	0.084	0.534
-59.305	-200.000	-0.100	-0.886
-58.290	567.291	0.385	0.922
-57.276	519.375	0.600	1.389
-56.261	-200.000	98.505	597.176
-55.246	531.381	1418.174	3311.411
-54.232	150.086	2611.906	3498.679
-53.217	110.673	2189.430	2600.004
-52.203	43.451	1723.976	1555.759
-51.188	36.362	1537.233	1338.275
-50.173	34.036	1510.721	1299.272
-49.159	53.725	1561.170	1479.806
-48.144	56.113	1579.361	1513.563
-47.130	36.790	1536.065	1340.006
-46.115	33.468	1520.981	1303.980
-45.100	33.282	1517.351	1299.536
-44.086	33.270	1516.261	1298.470
-43.071	33.236	1514.246	1296.463
-42.057	33.262	1512.351	1294.962
-41.042	33.245	1511.369	1293.957
-40.027	33.320	1509.609	1292.912
-39.013	33.235	1508.227	1291.095
-37.998	33.223	1507.369	1290.230
-36.984	33.288	1505.597	1289.103
-35.969	33.255	1504.925	1288.249
-34.954	33.296	1502.990	1286.820
-33.940	33.136	1502.187	1284.997
-32.925	33.258	1500.343	1284.194
-31.911	33.286	1498.981	1283.170
-30.896	33.385	1497.755	1282.740
-29.881	33.371	1496.373	1281.408
-28.867	33.378	1494.694	1279.965
-27.852	33.393	1493.204	1278.744
-26.838	33.272	1492.696	1277.443
-25.823	33.356	1490.570	1276.139
-24.809	33.285	1489.241	1274.470
-23.794	33.282	1487.492	1272.905
-22.779	33.333	1486.401	1272.263
-21.765	33.292	1485.761	1271.388
-20.750	33.265	1484.123	1269.753
-19.736	33.254	1483.162	1268.811
-18.721	33.230	1482.367	1267.920
-17.706	33.251	1480.971	1266.810
-16.692	33.247	1479.997	1265.904
-15.677	33.235	1478.902	1264.839
-14.663	33.201	1478.215	1263.968
-13.648	33.185	1477.359	1263.083
-12.633	33.155	1476.652	1262.225
-11.619	33.285	1475.497	1262.055
-10.604	33.228	1474.639	1260.894
-9.590	33.172	1474.187	1260.080
-8.575	33.136	1472.786	1258.595
-7.560	33.222	1471.734	1258.217
-6.546	33.239	1470.848	1257.523
-5.531	33.115	1470.541	1256.390
-4.517	33.180	1468.682	1255.182
-3.502	33.165	1467.888	1254.351
-2.487	33.111	1467.160	1253.322
-1.473	33.113	1466.029	1252.320
-0.458	33.196	1465.096	1252.023
0.556	33.427	1455.236	1242.231
1.571	30.727	1430.314	1203.415
2.586	27.640	1371.956	1135.029
3.600	26.208	1291.346	1059.849
4.615	24.548	1245.156	1012.450
5.629	20.673	1186.166	943.429
6.644	10.458	1098.272	821.897
7.659	2.914	1055.471	752.924
8.673	2.020	1049.732	744.405
9.688	1.675	1047.183	740.850
10.702	1.533	1045.489	738.897
11.717	1.523	1043.869	737.639
12.731	4.653	1047.003	754.999
13.746	14.650	1061.294	814.221
14.761	22.805	1072.096	862.455
15.775	24.827	1073.786	873.620
16.790	25.122	1073.540	874.783
17.804	25.119	1072.747	874.040
18.819	24.791	1072.177	871.905
19.834	24.961	1071.307	871.946
20.848	25.109	1071.053	872.381
21.863	25.205	1070.859	872.616
22.877	25.168	1070.279	871.882
23.892	25.135	1069.480	870.996
24.907	24.973	1068.878	869.644
25.921	25.073	1068.273	869.558
26.936	25.091	1067.256	868.740
27.950	25.090	1065.960	867.602
28.965	25.022	1064.901	866.338
29.980	24.852	1064.044	864.742
30.994	24.888	1062.385	863.490
32.009	25.062	1061.844	863.813
33.023	25.111	1060.952	863.248
34.038	24.877	1060.411	861.601
35.053	24.851	1059.302	860.500
36.067	25.070	1058.566	860.877
37.082	25.175	1057.412	860.367
38.096	25.187	1056.679	859.753
39.111	25.241	1056.272	859.606
40.126	25.564	1054.802	859.878
41.140	25.322	1053.966	857.964
42.155	24.936	1052.845	855.130
43.169	24.705	1051.419	852.796
44.184	24.596	1050.768	851.676
45.199	24.765	1049.742	851.571
46.213	24.740	1048.403	850.291
47.228	24.731	1047.438	849.390
48.242	24.932	1047.046	849.953
49.257	25.011	1046.421	849.744
50.271	25.063	1045.237	848.956
51.286	25.019	1045.032	848.505
52.301	25.136	1044.211	848.317
53.315	25.125	1043.495	847.605
54.330	25.182	1042.325	846.852
55.344	24.959	1042.027	845.479
56.359	25.084	1040.971	845.140
57.374	25.119	1040.251	844.644
58.388	24.817	1039.535	842.568
59.403	24.864	1038.603	841.960
60.417	24.914	1037.706	841.390
61.432	24.684	1037.018	839.676
62.447	24.622	1036.288	838.719
63.461	24.909	1035.817	839.615
64.476	24.948	1034.719	838.830
65.490	24.969	1033.991	838.264
66.505	24.713	1033.152	836.313
67.520	24.789	1032.306	835.908
68.534	24.879	1031.512	835.612
69.549	24.635	1030.937	833.934
70.563	24.374	1029.609	831.568
71.578	24.329	1028.757	830.599
72.593	24.313	1028.064	829.892
73.607	24.332	1026.217	828.415
74.622	24.142	1025.547	826.920
75.636	24.504	1025.112	828.175
76.651	24.593	1024.577	828.083
77.666	24.663	1023.060	827.108
78.680	24.499	1022.677	825.965
79.695	24.476	1022.076	825.301
80.709	24.577	1021.392	825.143
81.724	24.716	1020.720	825.169
82.739	24.709	1019.835	824.348
83.753	24.729	1018.907	823.617
84.768	25.012	1018.684	824.667
85.782	25.307	1017.965	825.365
86.797	25.406	1017.124	825.066
87.812	25.387	1016.392	824.312
88.826	25.319	1015.442	823.159
89.841	25.194	1014.935	822.103
90.855	25.309	1014.453	822.164
91.870	25.352	1013.293	821.350
92.884	25.399	1012.487	820.837
93.899	25.097	1011.785	818.815
94.914	25.123	1010.296	817.655
95.928	25.134	1010.078	817.456
96.943	25.275	1009.320	817.413
97.957	25.017	1007.987	815.089
98.972	24.747	1007.152	813.113
99.987	24.640	1005.877	811.529
101.001	24.764	1005.173	811.449
102.016	24.980	1004.726	811.998
103.030	25.002	1004.011	811.446
104.045	25.009	1002.539	810.217
105.060	24.839	1001.346	808.412
106.074	24.732	999.958	806.740
107.089	24.723	999.674	806.399
108.103	25.061	999.148	807.426
109.118	25.124	998.572	807.173
110.133	24.820	997.185	804.615
111.147	24.700	996.601	803.531
112.162	24.639	995.253	802.098
113.176	24.432	993.869	799.985
114.191	24.599	993.099	800.041
115.206	24.644	992.269	799.504
116.220	24.415	990.759	797.196
117.235	24.219	990.483	796.025
118.249	24.381	989.901	796.211
119.264	24.554	988.786	796.013
120.279	24.399	987.968	794.596
121.293	24.320	987.178	793.537
122.308	24.453	986.673	793.656
123.322	24.544	985.764	793.257
124.337	24.356	984.864	791.627
125.352	24.465	983.381	790.850
126.366	24.058	981.299	787.303
127.381	23.723	980.474	785.091
128.395	24.078	980.736	786.801
129.410	24.776	980.350	789.507
130.424	24.975	979.629	789.734
131.439	25.022	978.642	789.072
132.454	24.943	977.465	787.705
133.468	24.877	977.112	787.064
134.483	25.053	975.821	786.726
135.497	24.994	975.640	786.251
136.512	25.145	974.978	786.312
137.527	25.305	973.918	786.088
138.541	25.126	973.627	785.001
139.556	25.251	972.651	784.689
140.570	25.184	971.931	783.744
141.585	25.290	970.692	783.141
142.600	25.474	970.225	783.495
143.614	25.225	969.361	781.645
144.629	25.322	968.997	781.704
145.643	25.564	968.015	781.894
146.658	25.409	966.467	779.901
147.673	25.291	965.712	778.712
148.687	25.253	964.423	777.439
149.702	25.026	963.371	775.543
150.716	24.916	962.598	774.372
151.731	24.894	961.970	773.705
152.746	25.015	960.844	773.255
153.760	25.319	960.377	774.121
154.775	25.325	960.070	773.832
155.789	25.480	958.712	773.332
156.804	25.368	957.876	772.110
157.819	25.275	957.230	771.120
158.833	25.511	955.909	771.000
159.848	25.564	955.276	770.647
160.862	25.571	954.900	770.308
161.877	25.365	954.101	768.716
162.892	25.259	952.997	767.304
163.906	25.355	952.492	767.238
164.921	25.253	951.314	765.787
165.935	25.356	950.049	765.141
166.950	25.369	949.283	764.511
167.964	25.469	947.989	763.826
168.979	25.405	947.366	762.984
169.994	25.273	946.208	761.424
171.008	25.075	945.213	759.718
172.023	25.244	944.736	759.984
173.037	25.436	943.963	760.106
174.052	25.314	942.597	758.423
175.067	25.221	941.248	756.876
176.081	25.000	941.028	755.702
177.096	25.107	940.278	755.485
178.110	25.298	939.298	755.435
179.125	24.986	938.148	753.133
180.140	24.752	936.862	751.051
181.154	24.617	937.138	750.637
182.169	24.719	936.570	750.544
183.183	25.002	936.247	751.406
184.198	25.412	935.285	752.284
185.213	25.313	935.175	751.715
186.227	25.321	934.269	750.955
187.242	25.359	933.885	750.736
188.256	25.555	932.867	750.671
189.271	25.473	931.931	749.509
190.286	25.552	931.788	749.658
191.300	25.233	930.878	747.530
192.315	24.707	929.506	744.175
193.329	23.875	928.013	739.455
194.344	23.650	926.602	737.331
195.359	24.261	927.062	740.169
196.373	25.093	927.369	743.803
197.388	25.238	927.167	744.174
198.402	25.138	926.371	743.056
199.417	25.188	925.858	742.785
200.432	25.266	925.606	742.841
201.446	25.151	924.881	741.716
202.461	24.800	924.383	739.803
203.475	25.043	923.310	739.881
204.490	24.485	922.141	736.577
205.504	23.384	919.904	730.189
206.519	23.839	919.524	731.697
207.534	24.684	920.191	735.643
208.548	24.709	919.542	735.164
209.563	25.201	919.427	737.027
210.577	25.133	918.316	735.791
211.592	24.962	917.833	734.641
212.607	25.292	917.944	736.017
213.621	25.516	917.403	736.437
214.636	25.482	916.428	735.446
215.650	25.374	916.090	734.669
216.665	25.304	915.260	733.651
217.680	25.389	914.852	733.610
218.694	25.553	914.076	733.589
219.709	25.092	913.631	731.287
220.723	24.771	912.484	728.997
221.738	25.115	911.622	729.644
222.753	25.281	911.413	730.086
223.767	24.992	910.908	728.446
224.782	25.339	909.743	728.858
225.796	25.499	909.510	729.255
226.811	25.583	909.084	729.188
227.826	25.168	907.995	726.568
228.840	24.502	906.083	722.285
229.855	24.183	905.824	720.720
230.869	24.652	905.406	722.221
231.884	24.338	904.362	720.058
232.899	24.380	903.916	719.807
233.913	25.009	904.203	722.509
234.928	25.345	903.375	723.139
235.942	25.135	902.941	721.881
236.957	25.100	902.303	721.165
237.972	24.850	901.388	719.366
238.986	24.759	900.632	718.336
240.001	24.830	900.347	718.330
241.015	24.866	899.462	717.704
242.030	25.005	898.572	717.488
243.045	25.346	898.432	718.677
244.059	25.271	897.804	717.809
245.074	25.372	897.775	718.127
246.088	25.397	896.916	717.479
247.103	24.988	895.878	714.952
248.117	25.025	895.379	714.639
249.132	25.566	895.396	716.744
250.147	25.797	895.376	717.586
251.161	26.151	894.301	718.067
252.176	26.291	894.366	718.613
253.190	25.999	893.623	716.795
254.205	26.104	893.395	716.962
255.220	26.416	892.505	717.426
256.234	26.397	892.024	716.899
257.249	26.148	891.320	715.285
258.263	25.949	891.212	714.347
259.278	26.107	890.025	713.956
260.293	26.138	889.748	713.795
261.307	26.268	889.433	713.989
262.322	26.217	888.365	712.869
263.336	26.015	887.865	711.609
264.351	25.563	886.462	708.640
265.366	24.514	884.410	702.808
266.380	23.976	883.644	700.024
267.395	24.905	884.254	704.101
268.409	25.831	884.149	707.592
269.424	25.542	883.668	706.012
270.439	25.774	883.025	706.344
271.453	25.985	882.515	706.701
272.468	25.994	881.952	706.224
273.482	26.125	880.996	705.906
274.497	26.294	881.080	706.574
275.512	26.121	879.605	704.654
276.526	25.521	878.575	701.426
277.541	25.658	877.929	701.380
278.555	26.003	878.179	702.863
279.570	25.906	877.392	701.793
280.585	25.693	876.750	700.391
281.599	25.865	875.866	700.290
282.614	25.842	875.737	700.034
283.628	25.412	874.504	697.319
284.643	25.018	874.010	695.335
285.657	25.497	873.860	697.011
286.672	25.325	872.972	695.576
287.687	24.859	871.901	692.858
288.701	25.224	872.245	694.483
289.716	25.590	871.429	695.187
290.730	25.237	870.822	693.275
291.745	25.125	869.896	692.045
292.760	24.984	868.898	690.645
293.774	24.880	868.427	689.810
294.789	25.879	869.193	694.209
295.803	26.440	869.218	696.326
296.818	26.444	868.521	695.722
297.833	26.617	868.300	696.150
298.847	26.255	867.312	693.907
299.862	25.937	866.019	691.590
300.876	26.009	865.997	691.787
301.891	26.340	865.680	692.742
302.906	26.540	864.738	692.693
303.920	26.145	863.645	690.245
304.935	25.969	862.917	688.929
305.949	26.397	862.717	690.344
306.964	26.592	862.107	690.539
307.979	26.210	861.712	688.706
308.993	26.227	861.059	688.188
310.008	26.595	860.909	689.408
311.022	26.666	860.833	689.555
312.037	26.492	859.729	687.949
313.052	26.151	859.520	686.425
314.066	26.079	858.336	685.145
315.081	25.395	857.067	681.475
316.095	24.847	855.745	678.288
317.110	25.129	856.237	679.687
318.125	26.006	856.612	683.251
319.139	25.788	855.138	681.187
320.154	24.610	853.254	675.179
321.168	24.009	852.476	672.234
322.183	24.724	852.854	675.175
323.197	25.592	853.521	678.922
324.212	26.151	852.623	680.255
325.227	26.120	852.599	680.058
326.241	26.207	851.857	679.733
327.256	26.244	851.453	679.491
328.270	26.077	850.949	678.398
329.285	26.000	850.077	677.357
330.300	25.908	849.084	676.158
331.314	25.600	848.467	674.452
332.329	25.679	847.789	674.150
333.343	26.223	848.028	676.319
334.358	26.359	847.200	676.107
335.373	26.245	846.929	675.403
336.387	26.537	846.071	675.749
337.402	26.653	845.966	676.038
338.416	26.804	845.905	676.496
339.431	26.843	845.216	676.031
340.446	26.859	844.461	675.424
341.460	26.861	844.298	675.243
342.475	26.971	843.437	674.901
343.489	26.622	842.672	672.934
344.504	26.869	842.095	673.332
345.519	27.088	842.027	674.031
346.533	27.283	841.676	674.411
347.548	27.204	841.638	674.031
348.562	27.346	840.890	673.897
349.577	27.160	840.114	672.526
350.592	27.140	839.756	672.107
351.606	27.179	838.608	671.273
352.621	27.002	838.864	670.763
353.635	27.033	838.170	670.266
354.650	26.929	837.448	669.246
355.665	26.549	836.630	667.130
356.679	25.588	834.937	662.186
357.694	25.429	834.343	661.071
358.708	26.054	834.512	663.447
359.723	25.910	833.930	662.397
360.738	26.221	833.633	663.243
361.752	26.647	833.458	664.607
362.767	26.780	833.359	664.958
363.781	27.144	833.015	665.960
364.796	27.403	832.943	666.793
365.810	27.489	832.531	666.719
366.825	27.556	832.143	666.592
367.840	27.528	831.709	666.083
368.854	27.355	830.894	664.739
369.869	26.971	830.056	662.610
370.883	26.763	829.281	661.174
371.898	26.941	828.857	661.425
372.913	26.863	828.134	660.507
373.927	26.682	827.703	659.445
374.942	26.876	827.178	659.676
375.956	27.063	826.557	659.799
376.971	27.144	825.937	659.541
377.986	27.352	825.625	659.990
379.000	27.552	825.180	660.299
380.015	27.476	824.671	659.559
381.029	27.270	823.776	658.040
382.044	27.244	823.175	657.406
383.059	27.554	822.686	658.079
384.073	27.538	822.434	657.758
385.088	27.432	822.049	657.010
386.102	27.517	821.367	656.714
387.117	27.301	820.419	655.119
388.132	27.050	820.253	654.028
389.146	27.069	819.318	653.293
390.161	26.472	818.469	650.411
391.175	26.519	818.224	650.327
392.190	27.132	818.327	652.556
393.205	27.188	817.651	652.158
394.219	26.199	815.905	647.164
395.234	24.522	813.458	639.171
396.248	23.612	812.806	635.344
397.263	24.880	813.127	640.079
398.278	26.617	814.582	647.381
399.292	26.990	814.730	648.775
400.307	26.639	814.006	646.890
401.321	26.744	813.633	646.911
402.336	26.755	813.477	646.767
403.350	26.920	813.532	647.341
404.365	27.474	812.990	648.829
405.380	27.819	812.953	649.968
406.394	28.172	812.532	650.832
407.409	28.256	812.258	650.855
408.423	28.218	811.802	650.296
409.438	28.187	810.785	649.312
410.453	28.170	810.365	648.858
411.467	28.259	810.307	649.071
412.482	28.264	809.491	648.377
413.496	28.087	809.083	647.368
414.511	28.147	808.895	647.372
415.526	28.204	808.398	647.119
416.540	28.150	808.229	646.733
417.555	28.083	807.542	645.890
418.569	27.832	806.794	644.349
419.584	27.761	806.337	643.677
420.599	27.790	805.914	643.384
421.613	107.848	1285.183	1450.713
422.628	93.018	1355.021	1450.829
