DTS Sentinel unit serial number:	SN413079Multiplexer serial number:	ORYXHardware model number:	OX4-SRSoftware version number:	ORYX F/W v4.00 Oryx Data Collector v3.7.2.0data status	okinstallation	princeton_trtdifferential loss correction	single-endedforward channel	channel 3reverse channel	N/Adate	2019/09/18time	15:52:35forward acquisition time	60.00reverse acquisition time	0.00gamma	496.2192k internal	0.2295k external	0.2295temperature offset calibration	0.9978default loss term (dB/km)	0.3790temperature slope calibration	1.0000multiplexer offset coefficient	1.0000multiplexer slope coefficient	1.0000fibre end	0.00T internal ref (°C)	36.80T ext. ref 1 (°C)	0.80T ext. ref 2 (°C)	35.60length (m)	temperature (°C)	Stokes	anti-Stokes-747.200	-200.000	-0.005	-0.047
-746.185	134.381	-0.257	0.340
-745.171	-200.000	0.016	0.110
-744.156	-200.000	-0.031	0.447
-743.142	123.394	0.259	0.332
-742.127	14.712	-0.096	0.077
-741.112	-46.260	-0.142	-0.071
-740.098	151.235	-0.100	0.139
-739.083	-9.784	0.173	0.118
-738.069	-10.230	-0.053	0.036
-737.054	-41.070	-0.302	-0.160
-736.039	50.529	-0.197	0.191
-735.025	463.557	0.102	0.233
-734.010	-33.471	-0.016	-0.009
-732.996	81.943	-0.126	0.139
-731.981	-99.935	-0.083	-0.021
-730.966	-91.874	0.327	0.095
-729.952	-200.000	-0.042	-0.638
-728.937	-200.000	0.024	-0.162
-727.923	-100.392	-0.229	-0.058
-726.908	43.682	-0.206	-0.193
-725.894	-200.000	-0.032	0.170
-724.879	29.631	0.192	0.166
-723.864	51.564	-0.100	0.097
-722.850	-143.208	-0.012	-0.001
-721.835	3.908	-0.083	-0.062
-720.821	85.757	-0.084	0.094
-719.806	-200.000	-0.020	-0.284
-718.791	-126.519	-0.191	0.029
-717.777	-200.000	-0.036	0.196
-716.762	-73.964	0.210	0.078
-715.748	63.962	-0.063	0.065
-714.733	45.593	-0.144	0.136
-713.718	174.982	0.095	0.140
-712.704	-37.542	-0.159	-0.086
-711.689	262.447	0.157	-0.277
-710.675	-200.000	0.005	-0.138
-709.660	-89.602	-0.241	-0.072
-708.645	-31.202	0.144	-0.083
-707.631	-56.625	0.039	-0.018
-706.616	140.266	0.261	0.352
-705.602	-200.000	-0.026	-0.371
-704.587	-174.680	-0.378	-0.011
-703.572	553.132	0.124	-0.303
-702.558	-54.328	-0.485	-0.224
-701.543	88.504	0.235	-0.266
-700.529	-200.000	-0.045	-0.426
-699.514	800.000	0.033	-0.111
-698.499	-200.000	0.019	-0.157
-697.485	381.211	-0.054	-0.114
-696.470	800.000	-0.051	0.201
-695.456	331.555	-0.105	0.207
-694.441	-200.000	-0.033	-0.149
-693.426	-84.828	-0.316	-0.101
-692.412	421.691	0.139	-0.304
-691.397	58.478	0.298	-0.298
-690.383	150.121	0.081	-0.112
-689.368	413.662	-0.096	-0.207
-688.354	-200.000	0.036	-0.330
-687.339	100.600	-0.069	0.081
-686.324	800.000	0.065	0.279
-685.310	622.130	-0.029	-0.075
-684.295	-28.644	0.432	0.254
-683.281	-100.066	0.214	0.054
-682.266	800.000	-0.051	-0.182
-681.251	39.201	0.009	-0.008
-680.237	-116.665	0.265	-0.050
-679.222	-69.830	0.072	0.028
-678.208	83.495	0.156	0.173
-677.193	800.000	0.051	0.208
-676.178	-158.111	-0.102	0.006
-675.164	1.012	-0.092	-0.067
-674.149	-7.799	0.121	0.083
-673.135	-54.116	-0.116	-0.054
-672.120	-49.218	0.357	-0.174
-671.105	-132.533	0.223	-0.029
-670.091	428.843	-0.080	-0.177
-669.076	-20.358	-0.159	0.100
-668.062	315.828	-0.141	-0.271
-667.047	71.167	-0.120	-0.127
-666.032	-51.213	0.121	0.058
-665.018	-104.857	-0.228	0.053
-664.003	-12.833	0.131	-0.087
-662.989	-98.577	-0.232	-0.060
-661.974	10.540	0.114	-0.089
-660.959	92.291	0.215	0.246
-659.945	9.930	0.078	-0.061
-658.930	-136.396	-0.321	0.038
-657.916	-54.728	-0.191	0.088
-656.901	-200.000	0.039	0.275
-655.886	-75.151	0.142	0.052
-654.872	11.387	-0.240	-0.188
-653.857	-7.121	0.337	-0.233
-652.843	560.625	0.057	-0.141
-651.828	-200.000	0.075	-0.388
-650.814	279.011	0.065	-0.119
-649.799	-26.318	-0.273	0.163
-648.784	329.079	0.074	0.145
-647.770	17.452	-0.129	-0.104
-646.755	130.156	-0.225	-0.294
-645.741	-161.791	-0.166	-0.009
-644.726	50.723	-0.067	-0.064
-643.711	80.539	0.193	0.212
-642.697	93.586	0.109	-0.126
-641.682	91.856	0.114	0.131
-640.668	-70.793	-0.434	-0.167
-639.653	39.307	0.312	-0.284
-638.638	559.414	-0.031	0.076
-637.624	-183.241	-0.065	-0.001
-636.609	25.022	-0.106	-0.089
-635.595	159.759	-0.040	0.057
-634.580	-38.539	0.306	0.164
-633.565	-6.738	0.329	0.228
-632.551	776.068	0.048	0.134
-631.536	800.000	0.074	-0.259
-630.522	19.825	-0.198	-0.162
-629.507	-200.000	-0.035	-0.368
-628.492	30.848	0.206	0.180
-627.478	800.000	0.146	-0.468
-626.463	800.000	0.033	0.124
-625.449	244.526	0.093	-0.159
-624.434	45.618	-0.129	-0.121
-623.419	-26.200	0.193	-0.116
-622.405	-200.000	-0.021	-0.241
-621.390	281.300	-0.073	0.133
-620.376	781.136	-0.110	-0.305
-619.361	800.000	0.055	0.181
-618.346	-133.397	-0.189	0.024
-617.332	-87.415	-0.298	-0.092
-616.317	-40.451	0.205	-0.108
-615.303	759.693	0.038	0.104
-614.288	420.190	0.096	-0.209
-613.273	51.152	-0.339	-0.327
-612.259	628.537	0.097	0.249
-611.244	-200.000	0.001	-0.278
-610.230	800.000	-0.043	0.190
-609.215	-161.862	-0.256	-0.013
-608.201	-139.533	-0.201	-0.022
-607.186	-71.302	-0.314	0.120
-606.171	492.627	-0.164	-0.382
-605.157	-78.373	-0.158	0.055
-604.142	57.268	0.181	0.179
-603.128	-139.449	0.386	0.042
-602.113	-91.319	-0.276	0.080
-601.098	-200.000	0.003	-0.206
-600.084	-129.520	0.213	-0.030
-599.069	27.435	-0.166	-0.142
-598.055	15.892	-0.171	-0.137
-597.040	-47.283	-0.120	0.059
-596.025	-97.600	-0.222	-0.058
-595.011	-23.438	-0.127	-0.078
-593.996	-41.923	0.230	0.120
-592.982	800.000	-0.045	0.165
-591.967	-8.718	0.399	-0.272
-590.952	-200.000	0.011	0.316
-589.938	800.000	-0.108	0.333
-588.923	195.943	-0.143	-0.221
-587.909	800.000	0.028	0.089
-586.894	-157.460	-0.292	0.018
-585.879	-52.802	0.091	-0.043
-584.865	-4.097	-0.098	-0.069
-583.850	800.000	0.122	0.384
-582.836	-46.600	0.059	-0.029
-581.821	289.740	0.077	0.142
-580.806	-200.000	-0.081	0.387
-579.792	-200.000	0.032	-0.148
-578.777	-200.000	-0.034	-0.258
-577.763	421.715	-0.126	-0.274
-576.748	-180.053	-0.164	-0.004
-575.733	-60.349	-0.165	0.071
-574.719	512.732	-0.017	0.039
-573.704	-120.676	-0.133	0.023
-572.690	-58.415	-0.293	-0.129
-571.675	14.428	-0.094	0.074
-570.661	-16.830	-0.093	0.060
-569.646	-74.235	0.088	0.032
-568.631	-200.000	0.001	-0.270
-567.617	-89.757	-0.283	-0.084
-566.602	-72.075	-0.165	-0.062
-565.588	-200.000	0.072	-0.391
-564.573	-130.781	0.132	0.018
-563.558	-17.141	0.016	0.010
-562.544	78.718	0.116	-0.125
-561.529	-8.790	-0.082	-0.056
-560.515	-52.732	-0.035	-0.016
-559.500	-200.000	0.001	0.169
-558.485	-57.515	0.203	0.090
-557.471	-200.000	-0.046	-0.375
-556.456	-200.000	-0.030	-0.372
-555.442	-200.000	0.019	-0.333
-554.427	-113.914	0.144	0.028
-553.412	-83.905	0.201	0.065
-552.398	-115.166	-0.345	0.066
-551.383	-21.520	-0.392	0.243
-550.369	218.296	0.206	-0.334
-549.354	202.276	-0.089	-0.140
-548.339	-136.317	0.176	0.021
-547.325	48.468	0.271	-0.257
-546.310	300.030	0.130	-0.242
-545.296	11.308	0.323	-0.251
-544.281	-102.933	-0.048	0.012
-543.266	-169.002	-0.124	0.005
-542.252	-85.877	-0.271	0.085
-541.237	-116.742	0.104	0.019
-540.223	800.000	-0.119	-0.367
-539.208	-66.219	0.169	0.068
-538.193	202.731	0.134	0.211
-537.179	-14.402	-0.135	-0.088
-536.164	-200.000	-0.013	0.110
-535.150	168.473	-0.097	-0.139
-534.135	208.002	-0.138	0.218
-533.121	-182.669	-0.267	-0.005
-532.106	720.463	0.074	0.199
-531.091	-200.000	-0.033	0.197
-530.077	-86.970	0.126	-0.039
-529.062	383.285	-0.110	-0.230
-528.048	68.046	-0.121	-0.125
-527.033	9.104	0.184	0.141
-526.018	-36.031	-0.270	0.148
-525.004	90.264	0.251	0.284
-523.989	-200.000	0.076	0.337
-522.975	-85.856	0.051	0.016
-521.960	-105.974	0.108	0.025
-520.945	800.000	-0.107	0.324
-519.931	800.000	-0.096	-0.368
-518.916	800.000	0.056	-0.167
-517.902	-200.000	0.002	-0.221
-516.887	-35.158	0.085	-0.047
-515.872	-190.056	-0.081	0.001
-514.858	52.828	0.232	-0.225
-513.843	-200.000	-0.069	0.360
-512.829	-50.743	0.283	0.135
-511.814	65.183	-0.097	0.099
-510.799	-138.849	-0.269	0.030
-509.785	-190.528	0.640	0.007
-508.770	-200.000	0.031	0.344
-507.756	375.953	-0.130	-0.268
-506.741	281.551	-0.094	-0.170
-505.726	226.903	0.131	0.215
-504.712	30.444	-0.077	0.066
-503.697	338.562	-0.064	-0.127
-502.683	222.682	0.006	-0.009
-501.668	-60.828	0.148	-0.063
-500.653	674.180	-0.031	-0.082
-499.639	145.740	-0.067	-0.092
-498.624	385.825	0.154	-0.322
-497.610	-200.000	-0.026	-0.167
-496.595	71.750	0.126	0.132
-495.581	-155.905	0.265	-0.017
-494.566	-200.000	0.032	-0.309
-493.551	-180.689	0.042	-0.001
-492.537	27.373	0.149	0.127
-491.522	-90.280	-0.162	-0.048
-490.508	-53.984	-0.267	0.123
-489.493	-2.418	-0.243	-0.173
-488.478	-144.012	-0.261	-0.025
-487.464	279.144	0.221	-0.399
-486.449	-49.461	-0.423	0.204
-485.435	40.563	-0.182	0.166
-484.420	-165.041	-0.396	-0.018
-483.405	-91.941	0.264	-0.076
-482.391	-66.309	-0.229	-0.092
-481.376	80.646	0.213	-0.232
-480.362	-200.000	0.005	0.083
-479.347	-188.332	0.083	0.001
-478.332	-200.000	0.264	0.000
-477.318	280.456	-0.171	-0.309
-476.303	166.689	0.083	0.120
-475.289	253.988	-0.111	0.192
-474.274	800.000	-0.040	0.133
-473.259	-76.343	-0.122	-0.043
-472.245	190.529	0.125	-0.189
-471.230	369.075	0.152	-0.311
-470.216	-18.668	-0.234	0.147
-469.201	-92.305	0.180	0.051
-468.186	-81.247	0.137	-0.046
-467.172	34.493	0.208	0.184
-466.157	-200.000	-0.028	-0.483
-465.143	-128.269	-0.202	0.029
-464.128	-200.000	-0.026	-0.159
-463.113	800.000	0.122	-0.352
-462.099	-80.024	0.286	0.097
-461.084	800.000	0.022	-0.083
-460.070	141.924	0.219	0.293
-459.055	-200.000	-0.027	0.258
-458.040	100.795	0.085	0.100
-457.026	-140.607	-0.131	0.014
-456.011	-71.286	0.275	-0.104
-454.997	-110.714	-0.152	-0.032
-453.982	-32.358	0.235	-0.132
-452.968	-93.555	0.103	-0.029
-451.953	103.324	0.032	-0.038
-450.938	451.670	0.094	0.210
-449.924	-42.877	0.050	-0.026
-448.909	-130.272	-0.243	0.033
-447.895	55.776	0.202	-0.198
-446.880	46.346	-0.114	-0.107
-445.865	76.650	0.165	0.176
-444.851	-120.828	-0.056	-0.010
-443.836	272.003	-0.083	0.149
-442.822	-86.666	0.279	0.086
-441.807	224.520	0.233	0.380
-440.792	99.193	-0.062	0.072
-439.778	74.515	-0.196	-0.208
-438.763	-16.626	-0.329	0.210
-437.749	-87.276	-0.117	0.036
-436.734	-200.000	-0.008	0.044
-435.719	149.690	-0.120	-0.164
-434.705	800.000	-0.071	0.274
-433.690	99.930	0.213	0.249
-432.676	179.725	0.072	-0.106
-431.661	33.684	0.315	-0.277
-430.646	-97.263	-0.298	0.078
-429.632	-70.388	0.278	-0.107
-428.617	63.362	0.102	-0.103
-427.603	109.214	0.120	-0.145
-426.588	-9.996	-0.114	-0.077
-425.573	-149.443	-0.253	0.020
-424.559	-200.000	0.033	-0.288
-423.544	391.901	0.132	-0.276
-422.530	-114.646	0.337	-0.065
-421.515	85.083	0.134	0.148
-420.500	-59.119	-0.079	-0.034
-419.486	800.000	0.066	0.235
-418.471	-130.037	0.428	0.059
-417.457	154.779	0.163	-0.226
-416.442	0.990	0.236	-0.171
-415.428	52.606	0.099	-0.096
-414.413	-93.951	0.190	-0.053
-413.398	221.800	-0.049	0.079
-412.384	-141.454	0.122	0.012
-411.369	-87.552	-0.211	0.065
-410.355	-200.000	0.016	-0.149
-409.340	-49.797	-0.350	0.168
-408.325	-170.280	-0.402	0.014
-407.311	186.662	0.065	-0.097
-406.296	-160.066	-0.300	0.016
-405.282	545.329	-0.055	-0.133
-404.267	-57.309	-0.055	-0.024
-403.252	-143.848	0.201	-0.019
-402.238	-161.253	0.207	0.011
-401.223	33.385	-0.325	0.284
-400.209	40.971	-0.246	-0.224
-399.194	-42.004	0.332	0.171
-398.179	322.003	-0.112	0.215
-397.165	33.294	0.314	0.275
-396.150	-172.496	0.371	-0.012
-395.136	-200.000	0.007	0.064
-394.121	-200.000	-0.041	0.230
-393.106	-71.994	-0.297	0.111
-392.092	-112.552	-0.277	-0.056
-391.077	-52.024	-0.203	-0.095
-390.063	-69.460	-0.053	-0.020
-389.048	348.696	-0.053	0.105
-388.033	68.627	-0.046	0.048
-387.019	517.287	0.035	-0.082
-386.004	-102.069	-0.209	-0.051
-384.990	-50.730	0.211	0.100
-383.975	295.030	-0.181	-0.333
-382.960	-24.853	0.182	-0.109
-381.946	181.818	-0.042	-0.062
-380.931	218.380	0.237	-0.381
-379.917	-88.968	0.102	-0.030
-378.902	-131.097	-0.140	0.019
-377.888	110.651	-0.135	0.164
-376.873	190.229	-0.157	0.238
-375.858	141.275	-0.171	-0.228
-374.844	304.137	0.082	-0.154
-373.829	-48.458	-0.177	-0.086
-372.815	284.402	-0.154	0.280
-371.800	402.065	-0.164	0.347
-370.785	82.549	-0.196	-0.214
-369.771	226.484	0.016	-0.026
-368.756	800.000	0.108	-0.384
-367.742	-200.000	0.028	0.311
-366.727	-70.538	-0.241	-0.092
-365.712	-200.000	0.014	-0.123
-364.698	-200.000	-0.015	-0.206
-363.683	-200.000	0.014	-0.272
-362.669	-76.918	0.019	-0.007
-361.654	312.279	0.079	0.149
-360.639	621.044	0.065	-0.165
-359.625	417.401	-0.130	0.280
-358.610	78.003	-0.265	0.284
-357.596	-28.091	-0.032	-0.018
-356.581	81.485	-0.122	-0.133
-355.566	101.671	0.204	0.239
-354.552	-92.295	-0.377	0.107
-353.537	790.849	0.081	0.225
-352.523	-200.000	-0.047	-0.315
-351.508	249.830	0.160	-0.273
-350.493	163.007	0.112	0.158
-349.479	-111.630	0.506	0.103
-348.464	49.867	0.127	0.121
-347.450	198.212	0.040	-0.061
-346.435	-44.961	0.201	0.101
-345.420	-99.062	-0.181	0.046
-344.406	-23.580	-0.157	0.095
-343.391	-122.771	0.064	-0.010
-342.377	-94.225	0.135	-0.037
-341.362	618.048	-0.052	-0.132
-340.348	800.000	-0.136	-0.415
-339.333	-57.833	0.279	-0.123
-338.318	-120.006	-0.059	0.010
-337.304	-36.168	-0.198	-0.108
-336.289	800.000	-0.064	0.280
-335.275	173.550	0.082	0.118
-334.260	254.902	-0.048	-0.082
-333.245	-186.113	-0.233	0.003
-332.231	-200.000	0.019	0.416
-331.216	-114.402	0.256	0.049
-330.202	-200.000	-0.008	0.267
-329.187	-105.262	0.014	0.003
-328.172	-54.177	0.329	0.150
-327.158	-170.210	0.205	0.007
-326.143	-87.145	-0.337	-0.103
-325.129	60.988	0.100	-0.099
-324.114	172.844	-0.015	-0.022
-323.099	17.614	0.127	0.101
-322.085	-200.000	0.023	-0.202
-321.070	-26.489	-0.071	0.042
-320.056	-200.000	0.005	0.071
-319.041	132.634	0.080	0.104
-318.026	-132.164	0.053	-0.007
-317.012	-106.682	-0.133	0.030
-315.997	-16.467	-0.178	-0.113
-314.983	-12.552	0.249	0.163
-313.968	40.142	-0.298	0.269
-312.953	453.876	0.021	0.048
-311.939	261.708	0.079	0.137
-310.924	-126.467	0.272	0.041
-309.910	-96.257	0.328	0.087
-308.895	-114.448	0.186	-0.036
-307.880	-25.563	-0.089	-0.053
-306.866	-53.654	-0.131	0.060
-305.851	-49.012	0.262	-0.126
-304.837	-76.177	0.186	0.066
-303.822	-200.000	-0.005	-0.377
-302.807	-46.599	0.233	-0.115
-301.793	299.759	0.058	-0.107
-300.778	125.733	-0.198	-0.252
-299.764	-19.610	0.239	-0.149
-298.749	-3.212	0.100	-0.070
-297.735	-200.000	0.028	0.249
-296.720	-61.527	-0.040	0.017
-295.705	89.339	-0.059	-0.067
-294.691	703.012	-0.073	0.194
-293.676	-50.996	0.215	-0.102
-292.662	-152.004	0.341	0.025
-291.647	-128.604	0.105	-0.015
-290.632	-27.840	-0.211	0.123
-289.618	541.564	0.059	0.141
-288.603	298.186	-0.077	-0.143
-287.589	-200.000	0.013	-0.154
-286.574	-4.710	0.139	0.096
-285.559	204.806	0.192	0.299
-284.545	441.456	-0.069	0.152
-283.530	-200.000	-0.061	-0.374
-282.516	-200.000	0.025	-0.352
-281.501	5.524	0.099	0.073
-280.486	-114.947	0.109	-0.021
-279.472	-200.000	0.030	-0.162
-278.457	800.000	-0.042	0.181
-277.443	-200.000	-0.016	0.076
-276.428	800.000	-0.062	0.218
-275.413	800.000	-0.030	0.108
-274.399	-154.911	-0.024	-0.002
-273.384	58.753	0.192	-0.189
-272.370	-16.767	0.321	-0.204
-271.355	-200.000	-0.066	0.351
-270.340	800.000	-0.043	0.166
-269.326	-107.860	0.018	0.004
-268.311	800.000	-0.087	0.280
-267.297	101.719	-0.090	0.106
-266.282	-200.000	0.045	-0.271
-265.267	-116.587	0.166	-0.031
-264.253	-3.932	0.097	0.067
-263.238	36.334	0.098	0.087
-262.224	-84.970	-0.417	0.131
-261.209	-200.000	0.074	-0.327
-260.195	-113.675	-0.170	0.033
-259.180	73.377	0.170	-0.179
-258.165	-200.000	-0.069	0.389
-257.151	-5.104	-0.235	-0.162
-256.136	268.494	0.060	0.105
-255.122	242.497	-0.188	0.316
-254.107	54.611	0.025	-0.024
-253.092	-67.917	-0.289	0.113
-252.078	-181.219	-0.024	0.000
-251.063	-47.967	0.192	0.093
-250.049	723.936	-0.016	-0.043
-249.034	-53.365	0.217	0.100
-248.019	-111.604	0.409	-0.083
-247.005	-100.566	0.203	0.050
-245.990	-73.262	-0.277	0.102
-244.976	800.000	-0.071	0.199
-243.961	-29.123	-0.135	-0.078
-242.946	-200.000	0.035	0.168
-241.932	800.000	0.058	0.230
-240.917	98.125	-0.245	0.283
-239.903	231.548	-0.189	0.310
-238.888	637.458	0.187	0.476
-237.873	31.833	-0.065	0.056
-236.859	-34.139	0.142	0.078
-235.844	-29.335	0.268	0.154
-234.830	9.359	-0.205	0.155
-233.815	800.000	-0.075	-0.292
-232.800	191.766	-0.093	-0.141
-231.786	-119.779	0.044	0.008
-230.771	11.814	-0.149	0.115
-229.757	-200.000	0.021	0.284
-228.742	-200.000	0.018	-0.183
-227.727	-0.679	-0.334	0.237
-226.713	52.744	0.135	0.129
-225.698	-193.171	-0.198	-0.002
-224.684	122.605	0.052	0.065
-223.669	-95.863	0.322	0.086
-222.655	70.210	-0.303	-0.313
-221.640	480.781	0.100	0.226
-220.625	-24.272	0.021	0.013
-219.611	-82.910	-0.321	0.104
-218.596	-143.231	0.146	0.014
-217.582	402.418	0.010	-0.021
-216.567	67.350	-0.061	-0.062
-215.552	-200.000	0.008	-0.290
-214.538	97.744	-0.306	0.352
-213.523	-36.998	-0.462	0.248
-212.509	-200.000	-0.029	-0.168
-211.494	-82.641	0.173	-0.056
-210.479	36.424	-0.108	-0.095
-209.465	-200.000	-0.021	0.160
-208.450	304.395	0.095	0.176
-207.436	46.914	-0.270	0.251
-206.421	-19.988	0.137	0.085
-205.406	195.103	-0.172	0.262
-204.392	800.000	-0.070	-0.260
-203.377	-46.758	-0.181	-0.089
-202.363	-70.098	0.115	-0.044
-201.348	-200.000	0.021	-0.289
-200.333	59.382	0.191	-0.188
-199.319	295.413	-0.138	-0.252
-198.304	-140.678	0.106	0.011
-197.290	-200.000	-0.021	-0.346
-196.275	147.637	0.131	-0.177
-195.260	46.716	0.226	0.210
-194.246	260.535	0.116	-0.201
-193.231	-161.578	-0.118	-0.006
-192.217	174.585	-0.029	0.042
-191.202	98.774	-0.357	-0.412
-190.187	-132.406	-0.194	-0.025
-189.173	-200.000	0.125	0.616
-188.158	-4.816	-0.065	-0.045
-187.144	-116.133	-0.194	-0.036
-186.129	-200.000	0.011	0.348
-185.114	-18.813	-0.207	-0.129
-184.100	-135.517	-0.149	-0.018
-183.085	800.000	-0.018	0.062
-182.071	517.338	0.072	0.169
-181.056	-69.291	0.214	0.082
-180.042	-58.310	-0.277	0.120
-179.027	92.087	0.127	0.143
-178.012	-200.000	0.002	0.192
-176.998	-2.187	0.248	-0.174
-175.983	114.950	-0.284	0.347
-174.969	247.746	0.122	0.206
-173.954	-134.926	-0.353	-0.043
-172.939	496.866	0.149	0.343
-171.925	-137.183	-0.212	0.024
-170.910	105.391	0.243	0.287
-169.896	-72.267	0.136	0.050
-168.881	-55.332	0.257	-0.115
-167.866	-57.633	-0.233	-0.102
-166.852	-74.350	0.386	-0.139
-165.837	800.000	0.017	0.068
-164.823	81.784	0.252	-0.272
-163.808	-200.000	-0.012	-0.140
-162.793	-9.880	0.159	-0.105
-161.779	-126.426	-0.192	-0.029
-160.764	-90.757	0.243	-0.070
-159.750	302.380	0.141	-0.261
-158.735	308.598	0.065	-0.121
-157.720	104.554	0.205	0.241
-156.706	-200.000	0.016	0.293
-155.691	434.590	-0.250	0.543
-154.677	-37.636	0.102	0.054
-153.662	-200.000	0.073	-0.530
-152.647	729.268	-0.111	0.296
-151.633	-41.122	0.148	0.076
-150.618	800.000	-0.081	0.270
-149.604	-97.303	0.156	-0.041
-148.589	133.338	-0.145	-0.187
-147.574	-86.557	-0.328	-0.100
-146.560	-10.048	-0.106	0.071
-145.545	605.673	-0.039	-0.097
-144.531	100.885	0.107	-0.124
-143.516	8.560	-0.092	-0.069
-142.502	-183.180	0.204	0.004
-141.487	26.560	-0.080	-0.067
-140.472	213.325	-0.072	0.113
-139.458	-82.073	-0.189	-0.062
-138.443	-200.000	-0.016	-0.341
-137.429	12.913	-0.179	0.138
-136.414	800.000	0.092	0.379
-135.399	265.708	-0.067	-0.117
-134.385	800.000	-0.045	0.182
-133.370	-200.000	-0.058	0.271
-132.356	-200.000	0.054	-0.306
-131.341	-200.000	-0.002	0.281
-130.326	455.024	-0.104	0.229
-129.312	800.000	0.050	0.166
-128.297	-200.000	-0.015	0.122
-127.283	-174.403	0.174	0.005
-126.268	-200.000	0.054	-0.413
-125.253	800.000	0.012	-0.048
-124.239	437.839	-0.067	-0.145
-123.224	415.674	0.087	-0.185
-122.210	312.435	-0.083	0.156
-121.195	800.000	-0.079	0.219
-120.180	232.786	-0.179	0.294
-119.166	-109.296	-0.155	-0.033
-118.151	22.118	-0.207	0.168
-117.137	-200.000	-0.069	-0.322
-116.122	-200.000	0.009	0.138
-115.107	292.181	-0.047	-0.086
-114.093	-138.289	0.153	-0.017
-113.078	-53.189	0.263	0.121
-112.064	-200.000	0.039	-0.192
-111.049	145.593	0.066	0.088
-110.034	-200.000	-0.040	0.284
-109.020	-29.079	-0.206	-0.118
-108.005	9.463	0.053	0.040
-106.991	198.227	0.146	-0.222
-105.976	-167.106	0.151	0.006
-104.962	-148.578	0.208	-0.017
-103.947	171.180	-0.068	-0.097
-102.932	800.000	0.025	0.075
-101.918	-200.000	0.058	0.305
-100.903	-200.000	-0.023	-0.230
-99.889	27.100	-0.136	-0.114
-98.874	2.850	-0.153	0.111
-97.859	-3.550	0.211	-0.147
-96.845	99.970	0.147	-0.170
-95.830	800.000	0.059	0.175
-94.816	47.264	0.307	-0.285
-93.801	20.648	-0.263	-0.212
-92.786	90.619	-0.138	-0.154
-91.772	-93.791	0.280	-0.077
-90.757	-88.910	0.292	0.086
-89.743	-133.281	-0.188	0.024
-88.728	-95.590	0.349	0.093
-87.713	800.000	0.070	0.218
-86.699	248.509	-0.147	0.248
-85.684	67.433	0.094	-0.095
-84.670	-183.935	-0.246	0.004
-83.655	-200.000	-0.009	-0.197
-82.640	456.629	0.061	-0.134
-81.626	-47.889	-0.050	-0.024
-80.611	546.848	0.071	-0.170
-79.597	-200.000	-0.004	0.199
-78.582	17.568	0.178	0.141
-77.567	-200.000	-0.023	0.189
-76.553	-200.000	0.002	0.341
-75.538	-52.266	0.336	0.155
-74.524	112.321	0.150	0.181
-73.509	-61.823	-0.075	0.031
-72.494	-200.000	-0.021	0.304
-71.480	800.000	0.159	-0.446
-70.465	-118.362	0.431	0.076
-69.451	-2.003	0.130	0.091
-68.436	800.000	0.027	-0.107
-67.422	219.445	-0.258	0.411
-66.407	49.994	0.231	0.217
-65.392	-200.000	0.007	-0.151
-64.378	-175.260	-0.367	0.010
-63.363	15.488	-0.121	0.095
-62.349	29.860	0.263	-0.223
-61.334	126.780	-0.778	-0.981
-60.319	800.000	0.142	0.411
-59.305	-200.000	0.024	-0.722
-58.290	168.831	0.647	0.918
-57.276	451.102	0.665	1.461
-56.261	-200.000	87.902	490.955
-55.246	420.857	1422.278	3032.847
-54.232	140.944	2640.818	3472.838
-53.217	106.075	2266.588	2669.623
-52.203	46.119	1780.214	1639.890
-51.188	39.660	1582.134	1411.335
-50.173	37.284	1553.172	1368.722
-49.159	53.606	1598.130	1525.345
-48.144	57.177	1618.143	1569.949
-47.130	40.430	1575.781	1410.927
-46.115	37.123	1560.199	1373.562
-45.100	36.850	1557.088	1368.836
-44.086	36.823	1555.440	1367.142
-43.071	36.789	1553.113	1364.807
-42.057	36.693	1551.639	1362.778
-41.042	36.773	1550.249	1362.068
-40.027	36.687	1548.628	1359.982
-39.013	36.750	1547.081	1359.016
-37.998	36.725	1545.845	1357.699
-36.984	36.782	1544.418	1356.791
-35.969	36.764	1543.064	1355.422
-34.954	36.820	1541.615	1354.487
-33.940	36.777	1540.365	1353.038
-32.925	36.786	1539.115	1351.943
-31.911	36.843	1537.675	1351.026
-30.896	36.876	1536.476	1350.148
-29.881	36.918	1534.831	1348.940
-28.867	36.904	1532.954	1347.139
-27.852	36.889	1532.025	1346.169
-26.838	36.750	1530.336	1343.664
-25.823	36.827	1528.763	1342.767
-24.809	36.864	1527.056	1341.469
-23.794	36.821	1525.841	1340.051
-22.779	36.815	1524.366	1338.661
-21.765	36.792	1523.409	1337.603
-20.750	36.883	1521.742	1336.720
-19.736	36.819	1521.205	1335.754
-18.721	36.840	1519.771	1334.581
-17.706	36.855	1518.790	1333.772
-16.692	36.849	1517.434	1332.490
-15.677	36.803	1516.746	1331.518
-14.663	36.761	1515.966	1330.489
-13.648	36.732	1514.503	1328.952
-12.633	36.710	1513.930	1328.249
-11.619	36.772	1512.658	1327.500
-10.604	36.768	1511.576	1326.476
-9.590	36.722	1510.629	1325.276
-8.575	36.858	1509.885	1325.499
-7.560	36.788	1508.876	1324.086
-6.546	36.752	1508.174	1323.164
-5.531	36.716	1507.099	1321.923
-4.517	36.638	1506.810	1321.089
-3.502	36.691	1505.400	1320.163
-2.487	36.782	1503.936	1319.446
-1.473	36.820	1502.803	1318.654
-0.458	36.788	1501.317	1317.083
0.556	36.173	1493.405	1310.825
1.571	34.286	1468.472	1276.201
2.586	30.891	1404.857	1199.000
3.600	28.139	1317.621	1107.806
4.615	25.513	1267.468	1050.225
5.629	21.092	1207.336	975.650
6.644	10.583	1115.784	846.992
7.659	2.285	1069.842	770.371
8.673	1.034	1063.376	759.377
9.688	0.779	1060.910	756.273
10.702	0.676	1059.193	754.470
11.717	0.712	1057.784	753.581
12.731	3.317	1060.546	768.491
13.746	11.958	1072.479	820.510
14.761	17.797	1079.125	854.865
15.775	17.786	1077.974	853.822
16.790	16.870	1076.525	848.019
17.804	16.063	1073.898	841.844
18.819	15.027	1072.431	835.453
19.834	14.729	1070.586	832.458
20.848	14.168	1070.118	829.223
21.863	14.134	1068.515	827.739
22.877	13.806	1067.718	825.414
23.892	13.544	1067.189	823.632
24.907	13.499	1066.231	822.594
25.921	13.503	1065.497	821.976
26.936	13.449	1064.843	821.129
27.950	13.542	1064.604	821.336
28.965	13.648	1063.248	820.741
29.980	13.655	1062.332	819.997
30.994	13.668	1061.904	819.655
32.009	13.784	1060.925	819.404
33.023	13.750	1060.054	818.491
34.038	13.809	1059.410	818.211
35.053	13.767	1058.543	817.263
36.067	13.652	1057.276	815.646
37.082	13.686	1056.409	815.071
38.096	13.710	1055.901	814.727
39.111	13.826	1054.806	814.380
40.126	13.788	1053.898	813.417
41.140	13.688	1052.829	812.031
42.155	13.602	1051.876	810.805
43.169	13.533	1051.269	809.927
44.184	13.571	1049.995	809.061
45.199	13.512	1048.854	807.819
46.213	13.486	1048.101	807.041
47.228	13.541	1047.312	806.631
48.242	13.624	1045.941	805.910
49.257	13.715	1044.780	805.384
50.271	13.644	1044.048	804.405
51.286	13.645	1043.105	803.611
52.301	13.656	1042.268	802.948
53.315	13.642	1041.396	802.139
54.330	13.589	1040.819	801.364
55.344	13.488	1039.737	799.974
56.359	13.545	1038.822	799.476
57.374	13.406	1038.228	798.278
58.388	13.463	1037.261	797.739
59.403	13.503	1036.228	797.062
60.417	13.504	1035.421	796.377
61.432	13.403	1035.304	795.734
62.447	13.558	1034.153	795.520
63.461	13.361	1033.476	793.985
64.476	13.436	1032.632	793.624
65.490	13.501	1031.662	793.120
66.505	13.545	1030.359	792.260
67.520	13.461	1029.802	791.358
68.534	13.421	1029.532	790.893
69.549	13.416	1028.468	789.978
70.563	13.531	1027.607	789.797
71.578	13.511	1026.746	788.969
72.593	13.389	1026.271	787.955
73.607	13.451	1025.350	787.471
74.622	13.469	1023.742	786.254
75.636	13.402	1023.099	785.373
76.651	13.391	1022.304	784.640
77.666	13.356	1021.718	783.954
78.680	13.428	1020.747	783.482
79.695	13.337	1020.494	782.789
80.709	13.455	1020.012	782.905
81.724	13.402	1019.348	782.076
82.739	13.495	1018.120	781.505
83.753	13.490	1017.533	780.962
84.768	13.669	1016.386	780.856
85.782	13.602	1015.894	780.093
86.797	13.705	1015.229	779.997
87.812	13.549	1014.463	778.605
88.826	13.505	1013.607	777.675
89.841	13.556	1012.508	777.000
90.855	13.578	1011.749	776.453
91.870	13.620	1011.264	776.207
92.884	13.653	1010.504	775.714
93.899	13.671	1009.510	774.963
94.914	13.451	1009.101	773.555
95.928	13.815	1007.675	774.090
96.943	13.770	1007.007	773.299
97.957	13.644	1006.388	772.166
98.972	13.590	1005.839	771.427
99.987	13.724	1004.585	771.022
101.001	13.666	1004.085	770.301
102.016	13.622	1003.518	769.590
103.030	13.752	1002.289	769.183
104.045	13.698	1001.162	768.001
105.060	13.554	1000.442	766.713
106.074	13.663	999.306	766.279
107.089	13.522	998.952	765.289
108.103	13.498	997.780	764.213
109.118	13.394	996.915	763.003
110.133	13.478	995.951	762.586
111.147	13.508	995.368	762.210
112.162	13.509	993.988	761.088
113.176	13.530	993.645	760.854
114.191	13.665	992.589	760.600
115.206	13.564	991.608	759.316
116.220	13.502	990.587	758.182
117.235	13.531	989.731	757.596
118.249	13.612	988.645	757.068
119.264	13.551	987.918	756.164
120.279	13.492	987.285	755.346
121.293	13.597	986.440	755.107
122.308	13.559	985.623	754.243
123.322	13.532	984.727	753.367
124.337	13.381	984.374	752.344
125.352	13.512	982.585	751.505
126.366	13.481	981.632	750.568
127.381	13.564	980.710	750.173
128.395	13.481	979.740	748.991
129.410	13.583	978.477	748.420
130.424	13.467	977.914	747.399
131.439	13.422	977.045	746.465
132.454	13.542	976.124	746.235
133.468	13.736	975.349	746.450
134.483	13.630	974.903	745.568
135.497	13.665	973.910	744.898
136.512	13.691	973.271	744.462
137.527	13.799	972.153	744.026
138.541	13.547	971.801	742.558
139.556	13.612	970.950	742.135
140.570	13.532	970.293	741.210
141.585	13.686	969.378	741.133
142.600	13.729	968.542	740.622
143.614	13.779	968.030	740.386
144.629	13.784	967.179	739.694
145.643	13.705	966.628	738.855
146.658	13.776	965.712	738.405
147.673	13.548	965.022	736.797
148.687	13.560	963.729	735.800
149.702	13.613	962.953	735.374
150.716	13.681	961.862	734.781
151.731	13.605	960.945	733.678
152.746	13.709	960.375	733.638
153.760	13.628	959.839	732.806
154.775	13.758	959.023	732.690
155.789	13.706	958.376	731.901
156.804	13.778	957.546	731.523
157.819	13.744	956.792	730.730
158.833	13.810	956.239	730.532
159.848	13.773	955.517	729.754
160.862	13.808	954.901	729.373
161.877	13.835	954.146	728.853
162.892	13.741	953.232	727.676
163.906	13.728	952.331	726.865
164.921	13.785	951.348	726.304
165.935	13.897	950.224	725.871
166.950	13.752	949.753	724.810
167.964	13.742	948.783	723.963
168.979	13.798	947.627	723.262
169.994	13.738	946.831	722.328
171.008	13.810	945.795	721.788
172.023	13.879	945.018	721.432
173.037	13.884	944.255	720.805
174.052	13.868	943.826	720.347
175.067	14.007	943.250	720.444
176.081	13.858	942.211	718.943
177.096	13.859	941.538	718.368
178.110	13.796	940.722	717.409
179.125	13.856	940.146	717.167
180.140	13.924	939.133	716.624
181.154	13.940	938.136	715.868
182.169	13.958	937.745	715.587
183.183	14.004	936.923	715.091
184.198	13.999	936.273	714.511
185.213	14.095	935.463	714.245
186.227	13.970	935.182	713.428
187.242	14.238	934.377	713.902
188.256	14.132	933.765	712.917
189.271	14.139	932.966	712.271
190.286	14.206	932.100	711.835
191.300	14.033	931.601	710.654
192.315	13.972	930.652	709.604
193.329	13.974	929.935	709.001
194.344	13.956	929.669	708.661
195.359	14.046	928.588	708.156
196.373	14.028	928.328	707.820
197.388	14.046	927.921	707.522
198.402	14.136	927.270	707.347
199.417	14.350	926.357	707.498
200.432	14.326	926.051	707.099
201.446	14.361	925.650	706.880
202.461	14.359	925.610	706.776
203.475	14.392	924.777	706.219
204.490	14.373	923.786	705.321
205.504	14.360	923.174	704.732
206.519	14.355	922.045	703.790
207.534	14.280	921.821	703.237
208.548	14.272	920.840	702.395
209.563	14.332	920.421	702.268
210.577	14.308	919.361	701.294
211.592	14.317	919.022	701.011
212.607	14.506	918.259	701.164
213.621	14.404	917.858	700.363
214.636	14.476	916.685	699.709
215.650	14.458	916.357	699.323
216.665	14.509	915.753	699.012
217.680	14.523	915.264	698.635
218.694	14.599	914.953	698.657
219.709	14.628	914.148	698.103
220.723	14.618	913.484	697.489
221.738	14.506	912.976	696.574
222.753	14.535	912.364	696.165
223.767	14.508	911.551	695.369
224.782	14.514	910.511	694.541
225.796	14.587	909.835	694.269
226.811	14.483	909.762	693.718
227.826	14.533	909.112	693.369
228.840	14.689	908.083	693.167
229.855	14.674	907.315	692.461
230.869	14.662	906.648	691.839
231.884	14.657	905.987	691.254
232.899	14.506	905.717	690.361
233.913	14.637	904.976	690.276
234.928	14.633	903.888	689.369
235.942	14.611	903.593	688.995
236.957	14.738	902.557	688.665
237.972	14.715	901.778	687.914
238.986	14.576	901.389	686.987
240.001	14.715	900.737	687.001
241.015	14.718	900.064	686.436
242.030	14.840	899.520	686.463
243.045	14.758	898.642	685.398
244.059	14.784	897.924	684.894
245.074	14.680	897.520	684.102
246.088	14.943	896.642	684.448
247.103	14.947	896.139	684.020
248.117	15.027	895.262	683.615
249.132	14.853	895.182	682.784
250.147	14.862	894.519	682.252
251.161	14.990	893.548	681.974
252.176	15.141	892.961	682.082
253.190	14.988	892.239	680.849
254.205	15.112	891.761	680.926
255.220	15.014	891.299	680.116
256.234	15.133	890.537	679.955
257.249	15.240	889.628	679.637
258.263	15.254	888.981	679.137
259.278	15.223	888.053	678.244
260.293	15.095	888.080	677.687
261.307	15.239	887.367	677.664
262.322	15.206	886.940	677.146
263.336	15.349	886.019	676.960
264.351	15.282	886.038	676.642
265.366	15.198	885.272	675.660
266.380	15.350	884.111	675.326
267.395	15.380	883.730	675.097
268.409	15.389	882.747	674.323
269.424	15.274	882.574	673.667
270.439	15.384	881.557	673.272
271.453	15.557	880.798	673.329
272.468	15.419	880.285	672.321
273.482	15.246	879.569	671.023
274.497	15.375	878.910	670.977
275.512	15.268	878.610	670.260
276.526	15.354	877.501	669.698
277.541	15.457	876.649	669.401
278.555	15.392	876.710	669.128
279.570	15.498	875.802	668.800
280.585	15.528	875.291	668.468
281.599	15.532	874.597	667.897
282.614	15.480	873.940	667.129
283.628	15.515	873.424	666.815
284.643	15.559	872.946	666.567
285.657	15.632	872.321	666.318
286.672	15.535	871.992	665.623
287.687	15.753	870.902	665.595
288.701	15.596	870.934	664.940
289.716	15.624	870.126	664.374
290.730	15.628	869.586	663.920
291.745	15.643	868.981	663.456
292.760	15.485	868.370	662.310
293.774	15.805	867.434	662.800
294.789	15.681	866.864	661.814
295.803	15.728	866.273	661.489
296.818	15.744	865.697	661.054
297.833	15.633	865.065	660.078
298.847	15.731	864.746	660.163
299.862	15.736	863.793	659.394
300.876	15.772	863.239	659.056
301.891	15.844	862.217	658.499
302.906	15.933	861.698	658.391
303.920	15.786	861.180	657.364
304.935	15.936	860.464	657.344
305.949	15.958	859.848	656.899
306.964	15.853	859.552	656.207
307.979	15.964	858.601	655.855
308.993	16.049	857.815	655.529
310.008	16.097	857.165	655.161
311.022	15.867	857.480	654.446
312.037	15.940	856.690	654.071
313.052	15.862	856.419	653.504
314.066	16.060	855.304	653.361
315.081	16.112	854.497	652.891
316.095	16.013	854.566	652.500
317.110	16.021	853.461	651.629
318.125	15.988	852.953	651.055
319.139	16.095	852.724	651.236
320.154	15.976	852.062	650.215
321.168	16.005	851.696	649.990
322.183	15.950	851.246	649.377
323.197	16.069	850.661	649.332
324.212	16.199	849.663	649.013
325.227	16.173	849.188	648.493
326.241	16.112	849.139	648.163
327.256	16.061	848.620	647.513
328.270	16.055	847.836	646.837
329.285	16.253	846.859	646.793
330.300	16.091	846.527	645.862
331.314	16.283	845.671	645.885
332.329	16.281	844.793	645.151
333.343	16.089	844.906	644.446
334.358	16.319	844.229	644.748
335.373	16.170	843.771	643.772
336.387	16.274	843.271	643.733
337.402	16.432	842.334	643.561
338.416	16.389	841.769	642.908
339.431	16.324	841.402	642.326
340.446	16.346	840.860	641.937
341.460	16.564	839.959	642.022
342.475	16.330	839.825	640.974
343.489	16.441	839.052	640.749
344.504	16.574	838.956	641.124
345.519	16.503	838.086	640.132
346.533	16.614	837.290	639.887
347.548	16.601	837.234	639.740
348.562	16.600	836.553	639.160
349.577	16.594	836.014	638.666
350.592	16.484	835.496	637.801
351.606	16.647	834.847	637.860
352.621	16.505	834.595	637.080
353.635	16.554	834.210	636.913
354.650	16.616	833.703	636.703
355.665	16.489	833.720	636.180
356.679	16.460	833.066	635.518
357.694	16.633	832.377	635.586
358.708	16.646	832.016	635.301
359.723	16.536	831.283	634.271
360.738	16.655	830.284	633.900
361.752	16.542	830.525	633.606
362.767	16.739	829.405	633.430
363.781	16.770	829.480	633.546
364.796	16.856	828.658	633.187
365.810	16.702	828.250	632.244
366.825	16.793	828.270	632.543
367.840	16.777	827.737	632.020
368.854	16.930	827.486	632.344
369.869	16.853	826.884	631.540
370.883	16.816	826.291	630.893
371.898	16.966	825.637	630.895
372.913	17.091	824.960	630.787
373.927	16.881	824.198	629.367
374.942	17.081	823.340	629.399
375.956	17.067	822.744	628.837
376.971	17.118	822.510	628.792
377.986	17.041	822.097	628.134
379.000	17.000	821.288	627.308
380.015	16.950	821.221	627.019
381.029	17.143	820.311	626.980
382.044	17.068	820.060	626.455
383.059	17.181	819.405	626.317
384.073	17.133	818.839	625.654
385.088	17.094	818.361	625.088
386.102	17.083	817.909	624.647
387.117	17.157	817.294	624.393
388.132	17.198	816.772	624.089
389.146	17.126	816.379	623.469
390.161	17.099	816.120	623.117
391.175	17.161	815.463	622.791
392.190	17.238	815.278	622.873
393.205	17.282	814.679	622.524
394.219	17.180	814.079	621.635
395.234	17.299	813.426	621.517
396.248	17.108	813.267	620.645
397.263	17.028	812.595	619.783
398.278	17.280	812.076	620.253
399.292	17.270	811.412	619.654
400.307	17.043	811.503	618.842
401.321	17.215	810.994	619.026
402.336	17.306	810.610	619.007
403.350	17.302	810.362	618.750
404.365	17.397	809.339	618.257
405.380	17.341	809.057	617.786
406.394	17.461	808.921	618.061
407.409	17.412	808.467	617.485
408.423	17.491	807.937	617.309
409.438	17.524	807.663	617.165
410.453	17.384	807.565	616.529
411.467	17.537	806.673	616.347
412.482	17.473	806.004	615.551
413.496	17.487	805.537	615.189
414.511	17.596	805.016	615.130
415.526	17.685	805.030	615.409
416.540	17.747	804.632	615.273
417.555	17.623	803.752	614.099
418.569	17.701	803.208	613.909
419.584	17.794	802.778	613.863
420.599	17.696	802.593	613.312
421.613	100.244	1278.844	1424.866
422.628	86.013	1348.221	1424.987
