DTS Sentinel unit serial number:	SN413079Multiplexer serial number:	ORYXHardware model number:	OX4-SRSoftware version number:	ORYX F/W v4.00 Oryx Data Collector v3.7.2.0data status	okinstallation	princeton_trtdifferential loss correction	single-endedforward channel	channel 3reverse channel	N/Adate	2019/09/18time	22:28:34forward acquisition time	60.00reverse acquisition time	0.00gamma	496.2192k internal	0.2345k external	0.2345temperature offset calibration	0.9991default loss term (dB/km)	0.3790temperature slope calibration	1.0000multiplexer offset coefficient	1.0000multiplexer slope coefficient	1.0000fibre end	0.00T internal ref (°C)	24.25T ext. ref 1 (°C)	0.80T ext. ref 2 (°C)	17.91length (m)	temperature (°C)	Stokes	anti-Stokes-747.200	463.833	-0.064	0.143
-746.185	-200.000	-0.014	-0.313
-745.171	43.182	0.306	0.279
-744.156	-66.592	0.061	-0.024
-743.142	424.109	-0.142	0.305
-742.127	431.831	0.015	0.034
-741.112	106.939	-0.083	-0.099
-740.098	-138.278	-0.241	-0.027
-739.083	357.365	-0.129	0.257
-738.069	180.207	-0.304	0.446
-737.054	36.904	0.105	0.093
-736.039	-86.508	-0.263	-0.081
-735.025	-200.000	-0.032	0.262
-734.010	800.000	-0.036	-0.121
-732.996	-114.394	-0.256	-0.049
-731.981	1.790	-0.239	-0.172
-730.966	-176.100	0.257	-0.007
-729.952	-45.353	-0.034	-0.017
-728.937	-200.000	0.021	-0.096
-727.923	-18.354	0.278	0.173
-726.908	412.190	0.079	-0.167
-725.894	-139.213	-0.384	-0.041
-724.879	-2.145	0.048	-0.033
-723.864	-115.220	-0.460	-0.087
-722.850	-100.712	-0.063	0.016
-721.835	345.097	-0.140	0.275
-720.821	-164.261	-0.298	0.014
-719.806	195.791	-0.205	-0.311
-718.791	800.000	-0.069	-0.293
-717.777	77.591	0.292	0.311
-716.762	181.386	-0.080	0.117
-715.748	460.641	-0.139	-0.310
-714.733	250.315	-0.180	0.305
-713.718	386.434	-0.055	0.114
-712.704	5.248	-0.140	0.103
-711.689	-200.000	0.035	-0.164
-710.675	112.786	-0.120	-0.145
-709.660	131.262	-0.087	0.111
-708.645	-137.443	-0.161	-0.018
-707.631	461.687	0.101	-0.225
-706.616	-79.641	-0.260	-0.088
-705.602	-77.509	0.267	-0.093
-704.587	-118.743	0.020	-0.004
-703.572	125.661	-0.288	-0.363
-702.558	800.000	0.038	-0.110
-701.543	-110.471	-0.515	0.107
-700.529	-0.952	-0.265	-0.187
-699.514	412.173	0.113	0.240
-698.499	-200.000	0.014	0.177
-697.485	-109.818	-0.163	-0.034
-696.470	-73.194	-0.112	-0.041
-695.456	-155.126	-0.132	0.009
-694.441	183.584	0.168	-0.247
-693.426	-150.046	0.168	-0.013
-692.412	46.197	0.375	-0.346
-691.397	-200.000	-0.012	-0.199
-690.383	-120.743	-0.264	-0.045
-689.368	195.220	-0.123	-0.187
-688.354	800.000	0.048	-0.187
-687.339	800.000	-0.159	-0.601
-686.324	-200.000	0.015	0.223
-685.310	-167.198	-0.260	-0.011
-684.295	101.539	-0.096	0.112
-683.281	348.714	0.050	-0.099
-682.266	-60.932	-0.159	0.067
-681.251	130.128	-0.190	-0.243
-680.237	71.705	-0.177	-0.184
-679.222	-26.639	-0.235	-0.137
-678.208	-92.769	-0.119	0.033
-677.193	-111.535	0.265	-0.054
-676.178	175.106	-0.179	-0.259
-675.164	-168.074	-0.366	0.014
-674.149	-145.576	-0.374	-0.033
-673.135	6.052	-0.243	-0.179
-672.120	800.000	0.047	0.132
-671.105	116.591	0.020	0.024
-670.091	198.797	-0.066	-0.100
-669.076	-86.081	0.104	-0.032
-668.062	-200.000	-0.002	-0.284
-667.047	11.700	-0.107	-0.082
-666.032	50.280	-0.039	0.037
-665.018	-166.033	-0.132	-0.006
-664.003	800.000	-0.077	-0.328
-662.989	250.957	-0.055	0.093
-661.974	286.638	0.099	0.178
-660.959	27.653	-0.172	0.145
-659.945	630.779	0.106	0.267
-658.930	293.477	-0.045	0.081
-657.916	13.306	-0.132	0.102
-656.901	-142.508	-0.135	0.013
-655.886	44.811	-0.228	0.209
-654.872	74.834	0.071	-0.075
-653.857	-84.497	-0.232	0.073
-652.843	116.434	-0.138	-0.169
-651.828	177.682	-0.160	-0.232
-650.814	-127.246	0.065	-0.009
-649.799	-34.965	-0.424	-0.230
-648.784	118.494	-0.154	0.190
-647.770	-92.628	0.337	-0.094
-646.755	-62.067	0.100	-0.042
-645.741	296.693	0.128	-0.234
-644.726	-53.631	-0.227	0.103
-643.711	-132.254	-0.252	0.033
-642.697	213.655	-0.207	0.326
-641.682	-1.512	0.154	0.108
-640.668	94.129	-0.116	-0.131
-639.653	102.475	0.026	0.030
-638.638	-77.502	0.247	0.085
-637.624	-160.296	-0.261	-0.014
-636.609	-68.377	0.139	-0.054
-635.595	58.966	0.081	0.080
-634.580	81.438	0.138	-0.149
-633.565	152.613	-0.071	0.097
-632.551	-121.701	-0.334	0.055
-631.536	-200.000	-0.002	0.200
-630.522	800.000	-0.060	0.167
-629.507	236.858	0.095	-0.157
-628.492	269.345	0.115	-0.200
-627.478	-122.482	-0.123	-0.020
-626.463	-4.268	0.043	-0.029
-625.449	800.000	-0.055	-0.217
-624.434	-190.741	-0.393	0.004
-623.419	593.950	0.064	-0.158
-622.405	-122.141	0.134	0.022
-621.390	-118.915	0.194	0.034
-620.376	-14.163	-0.498	0.320
-619.361	-200.000	-0.013	0.068
-618.346	86.451	0.347	0.381
-617.332	-83.798	-0.217	0.069
-616.317	47.817	-0.199	0.185
-615.303	-89.668	-0.234	-0.068
-614.288	-58.834	-0.092	-0.039
-613.273	67.864	0.116	0.118
-612.259	-200.000	0.005	0.189
-611.244	142.515	0.229	-0.303
-610.230	50.970	-0.315	-0.297
-609.215	-107.567	-0.162	0.035
-608.201	-92.429	0.254	-0.071
-607.186	-200.000	-0.017	-0.371
-606.171	94.131	0.123	0.139
-605.157	-116.385	-0.131	0.024
-604.142	-16.190	-0.076	0.048
-603.128	-91.968	-0.082	-0.023
-602.113	-123.234	0.099	0.016
-601.098	-92.461	-0.204	-0.057
-600.084	800.000	-0.071	-0.256
-599.069	543.323	-0.075	0.179
-598.055	150.924	-0.264	-0.358
-597.040	800.000	-0.057	0.212
-596.025	-200.000	0.000	-0.043
-595.011	252.460	-0.128	0.217
-593.996	-47.224	-0.316	-0.153
-592.982	-101.221	0.674	-0.164
-591.967	141.411	-0.144	0.190
-590.952	709.651	-0.049	-0.128
-589.938	50.621	0.103	0.097
-588.923	800.000	0.068	-0.268
-587.909	-200.000	-0.015	-0.180
-586.894	800.000	-0.061	0.191
-585.879	-200.000	0.052	-0.384
-584.865	-0.133	-0.319	-0.226
-583.850	141.684	-0.150	-0.198
-582.836	-164.837	0.177	0.008
-581.821	-24.764	-0.093	0.055
-580.806	76.123	-0.163	-0.172
-579.792	167.711	0.216	-0.306
-578.777	289.306	-0.062	0.112
-577.763	-145.933	-0.082	-0.007
-576.748	30.637	0.040	0.034
-575.733	-8.496	0.027	0.018
-574.719	94.161	0.199	-0.224
-573.704	-48.521	-0.330	0.158
-572.690	-200.000	-0.002	0.193
-571.675	-200.000	-0.001	0.212
-570.661	800.000	-0.026	0.102
-569.646	-100.404	-0.457	-0.112
-568.631	48.983	0.016	0.015
-567.617	10.215	-0.067	0.051
-566.602	17.903	-0.303	-0.240
-565.588	-88.182	0.138	-0.041
-564.573	-90.692	-0.113	-0.032
-563.558	141.901	0.074	0.097
-562.544	-124.680	0.258	-0.040
-561.529	-29.649	0.186	-0.106
-560.515	-135.056	-0.164	-0.020
-559.500	170.703	0.294	0.418
-558.485	25.962	-0.126	0.104
-557.471	61.405	-0.289	-0.285
-556.456	-64.788	-0.251	-0.101
-555.442	43.834	0.059	-0.054
-554.427	-200.000	0.040	-0.311
-553.412	-19.873	0.393	-0.241
-552.398	-15.267	0.215	0.136
-551.383	800.000	-0.029	-0.119
-550.369	-72.580	-0.249	0.091
-549.354	-56.206	-0.150	-0.066
-548.339	72.537	-0.248	0.257
-547.325	-108.108	-0.234	-0.050
-546.310	-163.042	-0.007	0.000
-545.296	6.753	0.179	0.132
-544.281	93.796	0.143	-0.161
-543.266	-59.672	0.051	0.022
-542.252	-200.000	0.011	-0.084
-541.237	800.000	-0.083	-0.239
-540.223	-142.919	0.216	0.021
-539.208	92.981	0.107	0.120
-538.193	-29.654	-0.201	0.114
-537.179	29.004	-0.148	0.125
-536.164	-54.501	-0.208	0.093
-535.150	800.000	0.074	-0.260
-534.135	15.212	-0.135	-0.105
-533.121	-145.804	0.225	0.020
-532.106	170.637	-0.350	0.498
-531.091	-85.741	0.053	-0.016
-530.077	-28.146	-0.128	0.074
-529.062	101.756	0.198	0.229
-528.048	205.518	0.144	0.222
-527.033	-172.401	0.033	0.001
-526.018	177.238	-0.147	0.212
-525.004	800.000	0.045	0.157
-523.989	-177.002	0.325	-0.008
-522.975	-32.208	0.356	-0.197
-521.960	-145.139	0.301	-0.027
-520.945	-200.000	0.048	-0.373
-519.931	-45.875	0.091	0.045
-518.916	-134.498	-0.253	0.031
-517.902	470.317	-0.104	0.232
-516.887	-200.000	-0.028	0.130
-515.872	101.447	0.254	0.294
-514.858	-89.997	-0.273	-0.079
-513.843	32.339	-0.049	-0.042
-512.829	66.344	0.353	0.355
-511.814	618.376	-0.118	-0.293
-510.799	-85.868	0.376	-0.115
-509.785	-200.000	-0.089	0.555
-508.770	800.000	-0.028	0.083
-507.756	-55.561	-0.061	0.027
-506.741	166.128	0.194	0.272
-505.726	-60.171	0.439	0.186
-504.712	46.793	0.075	0.069
-503.697	-146.406	0.109	-0.009
-502.683	-102.233	0.273	-0.065
-501.668	-55.253	0.234	0.104
-500.653	2.919	0.106	0.077
-499.639	-154.197	-0.238	0.016
-498.624	-32.961	0.225	0.124
-497.610	324.522	-0.202	0.382
-496.595	51.028	0.372	-0.349
-495.581	-34.885	-0.126	0.068
-494.566	800.000	-0.061	0.192
-493.551	-109.821	-0.316	0.066
-492.537	-113.443	0.220	-0.043
-491.522	-3.568	-0.434	-0.299
-490.508	-186.541	0.504	-0.007
-489.493	251.545	0.080	0.134
-488.478	11.201	-0.076	0.058
-487.464	131.668	0.100	0.127
-486.449	-200.000	0.033	0.331
-485.435	630.918	0.096	0.241
-484.420	-200.000	0.051	0.399
-483.405	184.828	-0.233	-0.342
-482.391	104.083	0.204	-0.237
-481.376	-200.000	0.002	0.062
-480.362	171.469	0.195	-0.277
-479.347	-113.574	0.179	0.035
-478.332	800.000	0.024	0.088
-477.318	-53.630	0.209	-0.095
-476.303	84.108	-0.316	-0.341
-475.289	200.462	0.182	0.277
-474.274	-67.830	-0.030	0.012
-473.259	-18.884	-0.268	-0.165
-472.245	54.133	-0.064	0.061
-471.230	-38.868	0.093	0.049
-470.216	-176.325	0.535	0.014
-469.201	91.277	0.197	0.219
-468.186	800.000	-0.024	0.083
-467.172	76.363	0.209	-0.219
-466.157	-50.877	-0.241	-0.112
-465.143	-97.095	0.089	-0.023
-464.128	800.000	-0.060	-0.166
-463.113	-181.667	0.111	0.002
-462.099	127.969	-0.212	-0.266
-461.084	745.538	-0.050	-0.134
-460.070	-41.345	0.221	-0.112
-459.055	123.620	0.111	-0.138
-458.040	98.793	-0.270	0.308
-457.026	-79.941	0.396	0.132
-456.011	-58.727	0.158	0.067
-454.997	342.384	0.087	0.167
-453.982	-51.795	-0.247	0.114
-452.968	-170.208	-0.168	-0.006
-451.953	-200.000	-0.043	0.280
-450.938	-1.744	-0.276	-0.192
-449.924	678.012	0.091	0.234
-448.909	800.000	0.042	-0.154
-447.895	-48.178	0.095	0.046
-446.880	-118.244	-0.219	0.038
-445.865	73.952	0.283	0.293
-444.851	-200.000	-0.133	0.000
-443.836	-200.000	0.034	-0.151
-442.822	35.041	-0.188	-0.162
-441.807	-52.209	0.236	-0.108
-440.792	-157.291	0.192	0.011
-439.778	800.000	0.115	-0.323
-438.763	114.278	-0.018	0.022
-437.749	-82.184	-0.141	-0.045
-436.734	-11.365	-0.274	0.178
-435.719	144.574	-0.130	0.172
-434.705	-131.950	0.161	-0.021
-433.690	76.554	0.099	-0.103
-432.676	-24.626	0.119	-0.070
-431.661	273.893	-0.068	0.120
-430.646	-106.034	-0.344	0.076
-429.632	156.502	0.138	-0.188
-428.617	-81.075	0.042	-0.014
-427.603	129.007	-0.045	0.056
-426.588	-8.782	-0.261	0.173
-425.573	138.460	-0.107	0.139
-424.559	-147.650	0.260	0.022
-423.544	800.000	-0.021	-0.059
-422.530	800.000	0.144	-0.432
-421.515	-200.000	-0.009	0.301
-420.500	153.534	0.237	-0.321
-419.486	43.126	0.069	0.063
-418.471	-200.000	0.002	-0.091
-417.457	55.274	-0.177	0.169
-416.442	-148.637	0.121	-0.010
-415.428	-200.000	0.010	-0.115
-414.413	-23.726	0.047	0.028
-413.398	159.639	0.129	-0.177
-412.384	-102.963	0.071	-0.017
-411.369	-126.477	0.093	-0.014
-410.355	443.801	-0.136	0.294
-409.340	-151.355	-0.024	0.002
-408.325	283.649	-0.126	-0.224
-407.311	-48.254	-0.292	-0.139
-406.296	-200.000	-0.032	-0.311
-405.282	-200.000	-0.038	-0.259
-404.267	94.821	0.292	-0.328
-403.252	800.000	0.050	-0.213
-402.238	143.130	-0.092	0.121
-401.223	800.000	0.057	-0.172
-400.209	98.683	0.140	-0.160
-399.194	-91.958	0.204	-0.057
-398.179	255.929	0.073	0.123
-397.165	518.512	0.043	-0.099
-396.150	800.000	-0.091	0.268
-395.136	278.920	-0.192	0.338
-394.121	8.018	0.157	0.116
-393.106	-113.174	-0.394	0.077
-392.092	423.764	0.117	0.247
-391.077	-74.911	-0.149	0.053
-390.063	199.355	-0.188	0.284
-389.048	-200.000	0.018	0.159
-388.033	-151.447	-0.207	0.015
-387.019	524.834	0.058	0.135
-386.004	57.727	0.259	-0.250
-384.990	72.109	-0.262	-0.269
-383.975	24.571	-0.153	-0.125
-382.960	-103.046	-0.228	-0.053
-381.946	-43.413	0.087	0.043
-380.931	110.432	-0.240	0.284
-379.917	113.673	0.148	-0.177
-378.902	52.495	0.246	0.232
-377.888	800.000	0.041	-0.126
-376.873	22.168	-0.112	-0.090
-375.858	800.000	0.020	-0.058
-374.844	98.545	0.175	0.199
-373.829	-44.411	-0.311	-0.154
-372.815	220.943	-0.076	0.121
-371.800	414.693	-0.022	-0.046
-370.785	-200.000	0.006	-0.054
-369.771	-181.884	-0.147	-0.003
-368.756	81.352	-0.153	0.163
-367.742	-200.000	0.020	-0.231
-366.727	-34.857	-0.080	0.043
-365.712	517.627	0.089	0.206
-364.698	800.000	-0.077	-0.288
-363.683	-57.948	-0.183	0.079
-362.669	-127.498	0.280	-0.040
-361.654	-200.000	-0.023	-0.269
-360.639	-200.000	0.049	-0.281
-359.625	265.300	0.092	0.158
-358.610	-108.435	-0.316	0.067
-357.596	-34.421	0.302	0.163
-356.581	-16.861	-0.238	-0.148
-355.566	-200.000	0.145	-0.656
-354.552	-200.000	0.040	0.284
-353.537	-200.000	0.003	-0.353
-352.523	5.011	0.118	0.086
-351.508	129.199	-0.148	-0.186
-350.493	-200.000	0.026	-0.189
-349.479	800.000	-0.004	0.011
-348.464	800.000	-0.072	0.230
-347.450	-200.000	0.029	0.267
-346.435	-32.956	-0.199	-0.109
-345.420	-169.178	-0.165	-0.006
-344.406	-101.026	0.214	0.052
-343.391	-100.284	-0.089	0.022
-342.377	2.876	0.174	-0.124
-341.362	-200.000	-0.013	-0.124
-340.348	-200.000	-0.020	-0.173
-339.333	23.025	-0.019	0.015
-338.318	45.442	0.082	-0.074
-337.304	97.756	0.030	-0.035
-336.289	-120.752	-0.259	0.043
-335.275	49.798	-0.135	-0.126
-334.260	-62.737	0.406	0.166
-333.245	-50.095	-0.079	0.037
-332.231	-200.000	0.018	-0.177
-331.216	-55.871	0.475	-0.209
-330.202	-5.970	-0.208	-0.140
-329.187	238.367	0.078	0.128
-328.172	800.000	-0.129	-0.515
-327.158	-176.646	0.257	-0.006
-326.143	-25.622	0.114	-0.066
-325.129	681.160	0.072	-0.185
-324.114	755.449	0.059	-0.157
-323.099	20.965	-0.086	-0.068
-322.085	103.850	0.156	-0.180
-321.070	-200.000	-0.003	-0.166
-320.056	800.000	-0.047	-0.129
-319.041	-116.537	0.331	-0.060
-318.026	51.440	0.270	-0.253
-317.012	-75.043	-0.212	0.075
-315.997	-107.231	-0.222	-0.048
-314.983	7.530	-0.204	0.150
-313.968	800.000	0.138	0.448
-312.953	624.118	-0.042	-0.103
-311.939	243.430	0.159	-0.262
-310.924	-95.226	0.273	-0.072
-309.910	219.420	-0.043	0.068
-308.895	800.000	-0.083	0.324
-307.880	-70.940	0.351	-0.130
-306.866	26.438	0.069	0.056
-305.851	800.000	-0.022	0.072
-304.837	-200.000	-0.008	0.197
-303.822	-153.513	-0.244	-0.017
-302.807	-200.000	-0.028	0.286
-301.793	787.236	-0.076	-0.206
-300.778	216.604	-0.180	-0.281
-299.764	-138.722	0.276	0.030
-298.749	343.142	0.035	-0.067
-297.735	-200.000	0.020	0.125
-296.720	-167.199	-0.146	0.006
-295.705	-73.281	-0.155	0.056
-294.691	-200.000	0.002	0.135
-293.676	302.062	0.103	-0.187
-292.662	-156.562	-0.342	-0.021
-291.647	-79.509	0.090	-0.030
-290.632	-200.000	-0.005	-0.242
-289.618	142.783	0.243	0.318
-288.603	800.000	0.087	0.359
-287.589	442.069	-0.109	0.235
-286.574	-144.423	0.250	-0.023
-285.559	36.098	0.263	0.228
-284.545	101.263	0.176	-0.202
-283.530	800.000	-0.098	-0.369
-282.516	800.000	-0.061	-0.171
-281.501	44.770	0.159	0.144
-280.486	-4.404	0.236	0.161
-279.472	800.000	-0.036	-0.103
-278.457	175.108	0.136	0.194
-277.443	-14.462	-0.162	0.102
-276.428	339.940	0.138	0.265
-275.413	125.300	-0.080	0.099
-274.399	-158.820	0.414	-0.023
-273.384	622.163	0.089	-0.219
-272.370	156.743	0.131	0.178
-271.355	361.865	0.119	0.235
-270.340	-200.000	-0.016	0.181
-269.326	73.874	0.234	0.241
-268.311	347.285	0.169	0.326
-267.297	-200.000	-0.061	0.367
-266.282	99.553	-0.194	-0.221
-265.267	-102.289	0.283	0.067
-264.253	800.000	0.063	-0.206
-263.238	176.556	-0.123	0.175
-262.224	-80.213	0.150	-0.049
-261.209	102.323	-0.117	0.135
-260.195	-153.201	-0.062	-0.004
-259.180	313.862	-0.079	-0.146
-258.165	-103.470	0.433	-0.100
-257.151	113.141	-0.204	-0.242
-256.136	156.481	-0.111	0.151
-255.122	-200.000	-0.027	-0.221
-254.107	800.000	-0.044	0.184
-253.092	167.500	0.053	-0.073
-252.078	-78.181	0.116	0.039
-251.063	0.965	0.322	-0.227
-250.049	610.322	-0.163	-0.401
-249.034	800.000	-0.090	0.325
-248.019	245.673	0.182	0.301
-247.005	-200.000	0.049	-0.374
-245.990	-200.000	-0.027	0.155
-244.976	-36.805	-0.210	-0.110
-243.961	800.000	0.041	-0.119
-242.946	-162.552	0.331	-0.016
-241.932	619.911	0.102	-0.252
-240.917	-62.962	-0.270	-0.109
-239.903	-150.801	0.176	0.013
-238.888	-128.106	0.207	0.029
-237.873	34.331	0.246	-0.211
-236.859	431.000	-0.115	0.243
-235.844	-200.000	-0.011	0.327
-234.830	19.093	-0.060	-0.047
-233.815	172.788	-0.157	0.222
-232.800	7.145	0.408	0.299
-231.786	-119.840	-0.366	-0.062
-230.771	-191.209	-0.398	0.004
-229.757	33.820	0.182	0.155
-228.742	-79.456	-0.198	0.066
-227.727	257.593	-0.007	0.012
-226.713	202.858	-0.036	0.054
-225.698	-66.189	-0.233	0.091
-224.684	64.999	-0.145	-0.143
-223.669	216.872	0.086	-0.134
-222.655	-27.686	-0.243	-0.138
-221.640	-50.834	-0.263	-0.121
-220.625	310.767	0.145	-0.266
-219.611	-200.000	-0.030	-0.325
-218.596	-45.875	-0.368	0.178
-217.582	-80.257	-0.387	-0.127
-216.567	-200.000	-0.003	-0.164
-215.552	724.020	0.136	0.355
-214.538	25.654	-0.115	-0.094
-213.523	800.000	-0.097	0.358
-212.509	-200.000	-0.021	0.234
-211.494	-61.210	0.175	0.072
-210.479	-107.458	-0.427	-0.092
-209.465	-41.513	-0.425	0.214
-208.450	48.399	-0.209	0.192
-207.436	-34.702	0.081	-0.043
-206.421	-127.954	0.189	0.027
-205.406	-53.087	-0.032	0.015
-204.392	-200.000	-0.072	-0.368
-203.377	26.729	0.148	-0.122
-202.363	-200.000	0.015	-0.134
-201.348	-88.262	-0.340	-0.100
-200.333	-102.835	0.111	0.026
-199.319	-77.912	-0.050	-0.017
-198.304	-15.669	0.165	-0.103
-197.290	-40.350	-0.335	-0.171
-196.275	800.000	-0.072	0.280
-195.260	566.158	0.058	0.138
-194.246	-12.349	-0.078	0.050
-193.231	-104.408	-0.429	-0.097
-192.217	-91.365	-0.371	0.104
-191.202	-200.000	0.053	0.358
-190.187	-200.000	0.039	0.171
-189.173	-124.585	0.263	-0.040
-188.158	-200.000	-0.027	0.116
-187.144	-55.018	-0.277	-0.122
-186.129	268.579	-0.110	-0.188
-185.114	-200.000	0.003	-0.290
-184.100	404.296	-0.152	0.312
-183.085	345.326	-0.149	-0.286
-182.071	80.399	0.271	0.285
-181.056	84.594	-0.032	-0.034
-180.042	234.538	0.184	0.297
-179.027	37.163	-0.114	0.099
-178.012	-124.417	0.216	0.033
-176.998	77.658	0.163	-0.170
-175.983	-97.041	-0.086	-0.022
-174.969	210.608	0.208	0.319
-173.954	431.231	-0.089	0.189
-172.939	40.299	0.250	-0.220
-171.925	429.829	-0.101	-0.213
-170.910	800.000	0.078	0.240
-169.896	-147.394	0.226	0.019
-168.881	122.444	-0.174	-0.213
-167.866	-92.389	0.237	-0.065
-166.852	582.841	0.068	-0.162
-165.837	156.433	-0.105	-0.141
-164.823	800.000	-0.122	-0.433
-163.808	-200.000	-0.013	-0.181
-162.793	-150.164	0.420	-0.032
-161.779	29.700	-0.400	-0.333
-160.764	221.486	0.305	0.479
-159.750	19.220	0.268	0.210
-158.735	-200.000	0.025	0.540
-157.720	112.980	-0.088	-0.104
-156.706	6.634	-0.191	-0.139
-155.691	800.000	0.016	0.054
-154.677	742.885	0.029	-0.075
-153.662	7.693	-0.262	0.192
-152.647	-200.000	0.016	0.179
-151.633	29.221	0.102	-0.085
-150.618	232.754	0.183	-0.294
-149.604	211.298	0.222	-0.341
-148.589	140.443	0.172	-0.222
-147.574	-200.000	-0.059	0.277
-146.560	39.494	0.269	0.235
-145.545	-123.544	-0.119	-0.019
-144.531	-200.000	0.041	0.191
-143.516	-55.538	0.445	-0.195
-142.502	800.000	-0.090	-0.352
-141.487	27.568	0.049	-0.041
-140.472	466.214	-0.035	0.077
-139.458	-122.830	-0.343	0.054
-138.443	-200.000	0.010	0.264
-137.429	-69.273	-0.247	-0.093
-136.414	21.576	-0.306	0.243
-135.399	-74.780	0.381	-0.134
-134.385	-173.964	-0.187	0.005
-133.370	54.910	0.047	0.045
-132.356	800.000	0.069	0.203
-131.341	-200.000	0.046	0.257
-130.326	161.159	0.051	-0.070
-129.312	-114.151	0.116	0.022
-128.297	-121.479	0.037	-0.006
-127.283	-103.911	0.149	-0.034
-126.268	267.153	-0.056	-0.096
-125.253	150.885	0.103	-0.136
-124.239	178.735	-0.236	0.337
-123.224	459.420	0.027	0.059
-122.210	800.000	-0.032	-0.091
-121.195	-200.000	-0.005	-0.258
-120.180	-100.540	0.078	0.019
-119.166	290.805	-0.168	0.299
-118.151	800.000	0.153	-0.433
-117.137	43.704	0.232	0.207
-116.122	-114.974	0.320	0.059
-115.107	723.733	0.201	0.522
-114.093	-12.438	-0.362	0.231
-113.078	14.752	-0.096	-0.073
-112.064	169.757	0.199	0.278
-111.049	58.079	-0.103	0.098
-110.034	-20.839	0.105	-0.063
-109.020	31.461	-0.092	-0.077
-108.005	-200.000	0.038	-0.348
-106.991	-81.615	-0.115	-0.037
-105.976	-184.247	0.061	-0.001
-104.962	154.039	-0.259	-0.346
-103.947	-90.239	-0.165	0.047
-102.932	145.884	0.328	0.429
-101.918	-102.320	-0.249	0.058
-100.903	216.076	0.128	-0.198
-99.889	25.106	-0.253	0.205
-98.874	520.440	-0.067	0.153
-97.859	-29.458	0.280	-0.156
-96.845	-58.604	-0.222	0.094
-95.830	-102.338	0.184	-0.043
-94.816	-101.331	0.157	0.037
-93.801	98.849	0.138	0.155
-92.786	-68.785	0.225	0.085
-91.772	754.323	0.105	0.277
-90.757	800.000	0.051	0.154
-89.743	104.027	0.099	0.114
-88.728	92.444	0.212	0.233
-87.713	-54.164	-0.157	0.070
-86.699	56.065	0.152	-0.144
-85.684	429.127	0.141	0.298
-84.670	21.922	-0.102	-0.081
-83.655	102.829	0.052	0.060
-82.640	-200.000	0.014	-0.375
-81.626	359.960	0.106	-0.206
-80.611	-69.621	-0.062	0.023
-79.597	-16.460	-0.292	-0.180
-78.582	13.495	0.228	-0.172
-77.567	-156.946	-0.334	0.020
-76.553	-45.044	0.576	0.279
-75.538	1.709	0.066	-0.046
-74.524	-200.000	-0.083	-0.366
-73.509	125.386	-0.109	0.134
-72.494	134.160	0.214	-0.270
-71.480	-12.747	-0.151	-0.096
-70.465	170.553	-0.173	-0.241
-69.451	-200.000	0.043	-0.310
-68.436	273.209	-0.204	-0.351
-67.422	236.901	0.097	-0.157
-66.407	-59.217	0.393	0.165
-65.392	-200.000	0.010	-0.063
-64.378	-200.000	-0.006	0.242
-63.363	-90.984	0.129	0.036
-62.349	-200.000	-0.010	-0.051
-61.334	3.577	-1.274	-0.905
-60.319	64.586	0.664	0.652
-59.305	228.541	-0.612	-0.972
-58.290	369.072	0.768	1.513
-57.276	451.897	0.617	1.329
-56.261	-200.000	121.502	647.109
-55.246	437.700	1537.841	3264.377
-54.232	148.968	2686.596	3537.576
-53.217	98.916	2157.956	2425.770
-52.203	34.783	1684.046	1433.878
-51.188	27.443	1502.272	1229.705
-50.173	25.259	1479.166	1196.202
-49.159	49.088	1549.382	1416.876
-48.144	46.665	1562.523	1412.263
-47.130	27.344	1512.230	1236.988
-46.115	24.548	1495.640	1204.542
-45.100	24.300	1492.509	1200.303
-44.086	24.349	1490.534	1198.994
-43.071	24.293	1488.854	1197.218
-42.057	24.192	1487.417	1195.339
-41.042	24.257	1485.479	1194.170
-40.027	24.211	1484.468	1193.003
-39.013	24.204	1482.722	1191.504
-37.998	24.176	1481.528	1190.310
-36.984	24.180	1480.239	1189.253
-35.969	24.236	1478.707	1188.348
-34.954	24.245	1477.205	1187.150
-33.940	24.268	1475.917	1186.227
-32.925	24.282	1474.702	1185.291
-31.911	24.221	1473.515	1183.890
-30.896	24.339	1471.905	1183.332
-29.881	24.266	1471.192	1182.229
-28.867	24.296	1469.672	1181.153
-27.852	24.231	1468.539	1179.766
-26.838	24.289	1466.666	1178.598
-25.823	24.299	1465.433	1177.628
-24.809	24.368	1463.577	1176.546
-23.794	24.338	1462.307	1175.280
-22.779	24.292	1461.477	1174.264
-21.765	24.318	1460.318	1173.458
-20.750	24.341	1459.064	1172.557
-19.736	24.280	1458.316	1171.507
-18.721	24.270	1457.533	1170.764
-17.706	24.262	1456.048	1169.473
-16.692	24.355	1454.903	1169.117
-15.677	24.221	1453.962	1167.439
-14.663	24.223	1453.004	1166.635
-13.648	24.201	1452.397	1165.958
-12.633	24.233	1451.211	1165.164
-11.619	24.272	1450.575	1164.866
-10.604	24.137	1449.952	1163.438
-9.590	24.212	1448.540	1162.747
-8.575	24.171	1447.950	1161.958
-7.560	24.253	1446.474	1161.262
-6.546	24.267	1446.052	1160.972
-5.531	24.187	1445.769	1160.175
-4.517	24.214	1443.849	1158.765
-3.502	24.184	1443.068	1157.896
-2.487	24.169	1442.374	1157.198
-1.473	24.295	1441.380	1157.168
-0.458	24.270	1440.295	1156.091
0.556	23.277	1429.953	1144.124
1.571	20.028	1406.196	1104.343
2.586	16.533	1344.040	1034.101
3.600	14.993	1261.875	961.951
4.615	14.004	1218.854	923.578
5.629	12.353	1163.306	872.642
6.644	6.411	1083.024	782.885
7.659	1.598	1046.563	733.305
8.673	0.861	1041.315	726.024
9.688	0.643	1038.817	723.175
10.702	0.799	1036.762	722.428
11.717	0.888	1034.372	721.123
12.731	2.786	1035.229	730.699
13.746	9.104	1043.954	767.060
14.761	15.052	1052.692	801.987
15.775	17.307	1053.777	813.546
16.790	16.958	1053.103	811.282
17.804	16.139	1050.307	805.149
18.819	15.272	1048.793	799.785
19.834	14.823	1047.132	796.306
20.848	14.511	1046.515	794.283
21.863	14.254	1045.902	792.523
22.877	14.122	1045.015	791.152
23.892	13.859	1043.917	789.002
24.907	13.551	1043.195	786.925
25.921	13.741	1042.502	787.232
26.936	13.819	1041.737	786.954
27.950	13.872	1041.443	786.912
28.965	13.891	1040.439	786.176
29.980	13.895	1039.616	785.504
30.994	13.874	1038.705	784.645
32.009	13.956	1037.994	784.427
33.023	13.980	1037.292	783.939
34.038	14.083	1036.232	783.556
35.053	13.978	1035.298	782.285
36.067	13.978	1034.788	781.833
37.082	13.908	1033.767	780.661
38.096	13.999	1033.172	780.572
39.111	13.925	1032.621	779.739
40.126	14.003	1031.411	779.121
41.140	13.930	1030.671	778.149
42.155	13.867	1029.406	776.833
43.169	13.731	1028.899	775.743
44.184	13.797	1027.905	775.234
45.199	13.732	1027.402	774.482
46.213	13.811	1025.974	773.706
47.228	13.873	1024.807	773.045
48.242	13.866	1023.392	771.879
49.257	13.921	1022.747	771.581
50.271	13.902	1022.041	770.892
51.286	14.034	1020.758	770.465
52.301	13.795	1020.221	768.885
53.315	13.848	1019.467	768.495
54.330	13.894	1018.502	767.911
55.344	13.876	1017.753	767.195
56.359	13.902	1016.760	766.498
57.374	13.843	1015.706	765.364
58.388	13.869	1014.914	764.818
59.403	13.784	1014.032	763.698
60.417	13.717	1013.923	763.239
61.432	13.876	1012.422	762.770
62.447	13.741	1012.173	761.895
63.461	13.733	1011.048	760.948
64.476	13.855	1009.772	760.476
65.490	13.773	1009.265	759.655
66.505	13.722	1008.343	758.658
67.520	13.748	1008.033	758.478
68.534	13.784	1006.966	757.771
69.549	13.806	1006.465	757.426
70.563	13.693	1005.604	756.198
71.578	13.766	1005.134	756.112
72.593	13.752	1003.990	755.119
73.607	13.696	1003.297	754.275
74.622	13.633	1002.243	753.130
75.636	13.638	1001.580	752.588
76.651	13.560	1001.100	751.809
77.666	13.719	999.857	751.528
78.680	13.733	999.072	750.935
79.695	13.651	998.575	750.124
80.709	13.645	997.848	749.481
81.724	13.751	997.508	749.642
82.739	13.771	996.546	748.943
83.753	13.832	996.039	748.771
84.768	13.811	995.024	747.845
85.782	13.897	993.815	747.257
86.797	13.911	993.630	747.119
87.812	13.945	992.409	746.283
88.826	13.821	992.107	745.435
89.841	13.804	991.017	744.474
90.855	13.948	989.872	744.193
91.870	13.908	989.263	743.492
92.884	13.989	988.640	743.319
93.899	13.947	987.675	742.339
94.914	14.091	986.896	742.329
95.928	14.150	986.341	742.113
96.943	14.095	985.507	741.174
97.957	14.009	985.219	740.510
98.972	14.008	984.037	739.548
99.987	13.971	983.693	739.062
101.001	13.991	982.856	738.457
102.016	13.908	982.233	737.552
103.030	14.013	981.012	737.039
104.045	14.032	980.211	736.453
105.060	14.030	979.087	735.538
106.074	13.970	978.073	734.442
107.089	14.108	977.031	734.206
108.103	13.887	976.787	732.984
109.118	13.817	975.903	731.944
110.133	13.956	974.900	731.740
111.147	13.995	973.980	731.154
112.162	13.912	972.708	729.773
113.176	13.930	972.151	729.370
114.191	13.988	971.005	728.698
115.206	14.075	970.191	728.405
116.220	14.025	969.403	727.530
117.235	13.954	968.917	726.790
118.249	13.891	968.120	725.852
119.264	14.013	967.125	725.576
120.279	13.913	966.404	724.532
121.293	13.958	965.102	723.691
122.308	13.874	965.184	723.322
123.322	13.938	963.751	722.461
124.337	13.869	962.861	721.431
125.352	13.884	961.777	720.620
126.366	13.864	960.702	719.666
127.381	13.854	959.657	718.773
128.395	13.841	958.869	718.065
129.410	13.865	957.301	716.928
130.424	13.818	957.098	716.513
131.439	13.831	955.955	715.648
132.454	13.943	954.870	715.254
133.468	13.920	954.085	714.504
134.483	13.839	954.105	714.110
135.497	13.991	952.984	713.861
136.512	13.970	952.274	713.174
137.527	13.845	951.537	712.022
138.541	13.896	950.576	711.459
139.556	13.874	950.045	710.907
140.570	13.961	949.245	710.615
141.585	13.974	948.552	710.087
142.600	14.020	948.012	709.817
143.614	14.066	947.267	709.395
144.629	14.013	946.504	708.534
145.643	14.024	945.964	708.115
146.658	14.155	944.750	707.700
147.673	14.082	943.463	706.364
148.687	14.094	943.054	706.044
149.702	14.175	942.065	705.587
150.716	13.938	941.674	704.225
151.731	14.076	940.505	703.873
152.746	14.152	939.525	703.400
153.760	13.978	939.159	702.329
154.775	14.109	938.188	702.092
155.789	14.021	937.633	701.244
156.804	14.146	936.850	701.124
157.819	14.082	936.538	700.557
158.833	14.016	935.562	699.487
159.848	14.164	935.384	699.916
160.862	14.301	933.821	699.260
161.877	14.293	933.400	698.850
162.892	14.108	932.553	697.379
163.906	14.291	931.730	697.466
164.921	14.019	931.387	696.011
165.935	14.397	929.691	696.260
166.950	14.139	929.231	694.775
167.964	14.149	928.106	693.914
168.979	14.213	927.260	693.489
169.994	14.190	926.291	692.606
171.008	14.081	925.964	691.849
172.023	14.261	925.004	691.816
173.037	14.340	924.049	691.367
174.052	14.416	923.526	691.231
175.067	14.251	922.789	689.935
176.081	14.380	921.974	689.798
177.096	14.362	920.957	688.903
178.110	14.263	920.513	688.100
179.125	14.311	919.493	687.475
180.140	14.338	918.873	687.062
181.154	14.287	918.142	686.246
182.169	14.359	917.219	685.792
183.183	14.477	916.646	685.788
184.198	14.444	916.236	685.284
185.213	14.326	915.759	684.382
186.227	14.434	914.962	684.168
187.242	14.405	914.712	683.804
188.256	14.563	913.540	683.515
189.271	14.514	912.992	682.844
190.286	14.591	911.767	682.180
191.300	14.441	911.377	681.216
192.315	14.347	910.807	680.346
193.329	14.301	910.024	679.512
194.344	14.269	909.765	679.129
195.359	14.372	908.962	678.890
196.373	14.580	908.205	679.110
197.388	14.551	908.030	678.801
198.402	14.653	907.342	678.640
199.417	14.535	907.172	677.974
200.432	14.627	906.526	677.803
201.446	14.582	906.656	677.659
202.461	14.635	905.550	676.986
203.475	14.763	905.055	677.075
204.490	14.810	904.227	676.587
205.504	14.696	903.750	675.709
206.519	14.610	902.995	674.736
207.534	14.675	902.154	674.310
208.548	14.828	901.216	674.170
209.563	14.727	900.644	673.275
210.577	14.910	899.408	673.029
211.592	14.730	899.400	672.238
212.607	14.735	899.124	671.990
213.621	14.862	898.127	671.697
214.636	14.822	897.354	670.897
215.650	14.817	896.714	670.340
216.665	14.714	896.736	669.883
217.680	14.968	895.638	670.021
218.694	14.964	895.176	669.603
219.709	14.954	894.716	669.160
220.723	14.949	893.767	668.371
221.738	14.961	893.243	667.965
222.753	14.883	892.640	667.147
223.767	14.948	891.924	666.811
224.782	15.060	890.976	666.490
225.796	14.962	890.565	665.732
226.811	15.087	889.956	665.714
227.826	15.163	889.246	665.427
228.840	15.182	888.515	664.897
229.855	15.092	887.616	663.809
230.869	15.037	887.363	663.341
231.884	15.095	886.558	662.910
232.899	15.147	885.907	662.573
233.913	14.947	885.390	661.337
234.928	15.009	884.784	661.069
235.942	15.072	884.254	660.863
236.957	15.181	882.938	660.249
237.972	15.067	882.534	659.444
238.986	14.972	882.438	658.937
240.001	15.105	881.721	658.867
241.015	15.146	880.892	658.352
242.030	15.038	880.034	657.227
243.045	15.151	879.538	657.241
244.059	15.272	878.588	656.949
245.074	15.297	878.269	656.750
246.088	15.294	877.424	656.047
247.103	15.190	877.288	655.481
248.117	15.304	876.210	655.063
249.132	15.319	876.100	654.981
250.147	15.452	875.272	654.823
251.161	15.492	873.938	653.922
252.176	15.593	873.458	653.900
253.190	15.543	873.301	653.528
254.205	15.456	872.964	652.881
255.220	15.600	871.466	652.262
256.234	15.584	871.282	652.005
257.249	15.697	870.442	651.755
258.263	15.607	870.246	651.204
259.278	15.652	869.521	650.779
260.293	15.664	869.138	650.479
261.307	15.848	868.287	650.496
262.322	15.712	867.854	649.588
263.336	15.677	867.374	649.035
264.351	15.835	866.698	649.084
265.366	15.777	866.325	648.523
266.380	15.788	865.384	647.803
267.395	15.836	864.694	647.414
268.409	15.742	864.302	646.703
269.424	15.877	863.153	646.304
270.439	15.821	862.607	645.621
271.453	15.749	862.222	645.000
272.468	15.683	861.458	644.119
273.482	15.848	860.632	644.076
274.497	15.865	859.952	643.574
275.512	15.934	859.176	643.203
276.526	15.973	858.573	642.842
277.541	15.908	857.798	641.955
278.555	15.719	857.857	641.223
279.570	15.980	857.055	641.560
280.585	15.930	856.741	641.078
281.599	16.067	855.720	640.781
282.614	16.023	855.219	640.181
283.628	15.872	854.844	639.269
284.643	15.970	854.510	639.337
285.657	15.996	853.976	638.977
286.672	16.029	853.144	638.422
287.687	16.087	852.575	638.162
288.701	16.082	852.226	637.825
289.716	16.127	851.258	637.214
290.730	16.092	851.045	636.866
291.745	16.120	850.367	636.407
292.760	16.205	849.497	636.020
293.774	16.185	848.821	635.383
294.789	16.176	848.554	635.093
295.803	16.156	847.954	634.512
296.818	16.215	847.397	634.262
297.833	16.214	846.435	633.483
298.847	16.098	846.140	632.767
299.862	16.264	845.298	632.706
300.876	16.312	844.429	632.180
301.891	16.187	844.234	631.511
302.906	16.272	843.546	631.257
303.920	16.321	842.652	630.713
304.935	16.484	841.788	630.619
305.949	16.433	841.260	629.980
306.964	16.389	841.024	629.581
307.979	16.526	840.184	629.406
308.993	16.396	839.783	628.568
310.008	16.409	839.610	628.431
311.022	16.432	838.997	628.002
312.037	16.483	838.534	627.791
313.052	16.573	837.467	627.268
314.066	16.499	837.124	626.683
315.081	16.352	836.939	625.943
316.095	16.568	835.716	625.774
317.110	16.492	835.396	625.197
318.125	16.572	834.761	624.962
319.139	16.361	834.704	624.084
320.154	16.380	833.844	623.456
321.168	16.529	833.476	623.677
322.183	16.533	832.919	623.219
323.197	16.549	832.351	622.795
324.212	16.622	831.933	622.699
325.227	16.644	831.226	622.193
326.241	16.714	830.603	621.930
327.256	16.571	830.243	621.081
328.270	16.455	829.924	620.361
329.285	16.427	829.403	619.814
330.300	16.613	828.703	619.918
331.314	16.730	827.801	619.615
332.329	16.689	827.205	618.966
333.343	16.689	826.560	618.430
334.358	16.721	826.272	618.276
335.373	16.770	825.577	617.879
336.387	16.831	825.241	617.796
337.402	16.766	824.677	617.080
338.416	16.836	823.958	616.745
339.431	16.856	823.678	616.551
340.446	16.863	822.948	615.978
341.460	16.966	822.399	615.884
342.475	17.017	821.434	615.292
343.489	16.969	821.122	614.830
344.504	16.943	820.988	614.583
345.519	16.980	820.718	614.460
346.533	17.089	819.903	614.187
347.548	16.997	819.426	613.444
348.562	16.963	818.915	612.885
349.577	17.189	818.000	612.962
350.592	16.983	817.854	612.055
351.606	16.964	817.319	611.534
352.621	17.021	816.950	611.407
353.635	17.088	816.212	611.040
354.650	17.012	815.731	610.355
355.665	17.173	815.427	610.652
356.679	17.116	814.936	610.024
357.694	17.222	814.866	610.301
358.708	17.107	814.055	609.224
359.723	17.300	813.302	609.299
360.738	17.137	813.076	608.494
361.752	17.101	812.479	607.864
362.767	17.122	811.790	607.369
363.781	17.180	811.877	607.587
364.796	17.247	811.484	607.479
365.810	17.235	811.152	607.133
366.825	17.126	811.074	606.633
367.840	17.506	809.763	606.955
368.854	17.239	809.598	605.824
369.869	17.249	809.318	605.598
370.883	17.372	808.547	605.406
371.898	17.457	807.574	604.925
372.913	17.401	807.514	604.627
373.927	17.460	806.641	604.128
374.942	17.413	806.222	603.595
375.956	17.449	805.281	602.964
376.971	17.620	804.452	602.898
377.986	17.612	804.494	602.845
379.000	17.481	803.832	601.833
380.015	17.486	803.318	601.413
381.029	17.722	802.905	601.885
382.044	17.589	802.550	601.095
383.059	17.523	801.851	600.285
384.073	17.525	801.586	600.041
385.088	17.676	800.554	599.748
386.102	17.615	800.212	599.222
387.117	17.692	799.752	599.095
388.132	17.632	799.412	598.578
389.146	17.752	798.829	598.507
390.161	17.607	798.848	597.962
391.175	17.690	797.948	597.527
392.190	17.692	797.772	597.349
393.205	17.824	797.040	597.211
394.219	17.654	796.992	596.526
395.234	17.788	796.413	596.507
396.248	17.640	795.935	595.579
397.263	17.555	795.577	594.962
398.278	17.799	794.599	595.030
399.292	17.594	794.699	594.337
400.307	17.776	794.150	594.509
401.321	17.708	793.781	593.944
402.336	17.677	793.537	593.600
403.350	17.758	793.041	593.457
404.365	17.919	792.684	593.697
405.380	17.710	792.278	592.616
406.394	17.826	791.704	592.534
407.409	18.049	790.895	592.653
408.423	18.096	790.662	592.588
409.438	17.961	790.266	591.769
410.453	18.036	789.907	591.708
411.467	18.001	789.341	591.112
412.482	18.000	788.883	590.713
413.496	18.088	788.326	590.548
414.511	18.111	787.942	590.285
415.526	18.146	787.685	590.162
416.540	18.149	787.470	589.960
417.555	18.064	787.167	589.387
418.569	18.099	786.328	588.827
419.584	18.073	786.171	588.569
420.599	18.098	785.459	588.068
421.613	116.229	1295.811	1490.346
422.628	99.934	1370.138	1490.382
