DTS Sentinel unit serial number:	SN413079Multiplexer serial number:	ORYXHardware model number:	OX4-SRSoftware version number:	ORYX F/W v4.00 Oryx Data Collector v3.7.2.0data status	okinstallation	princeton_trtdifferential loss correction	single-endedforward channel	channel 3reverse channel	N/Adate	2019/09/13time	17:32:35forward acquisition time	60.00reverse acquisition time	0.00gamma	496.2192k internal	0.2298k external	0.2298temperature offset calibration	1.0121default loss term (dB/km)	0.3790temperature slope calibration	1.0000multiplexer offset coefficient	1.0000multiplexer slope coefficient	1.0000fibre end	0.00T internal ref (°C)	36.06T ext. ref 1 (°C)	5.34T ext. ref 2 (°C)	29.40length (m)	temperature (°C)	Stokes	anti-Stokes-747.200	-31.467	-0.203	-0.116
-746.185	-117.379	0.152	-0.028
-745.171	6.980	-0.089	-0.068
-744.156	-76.567	0.515	0.185
-743.142	-35.826	0.057	0.031
-742.127	13.852	-0.284	0.225
-741.112	-200.000	0.027	-0.172
-740.098	-200.000	-0.053	0.253
-739.083	108.635	0.074	-0.090
-738.069	-200.000	0.033	0.172
-737.054	101.745	0.158	0.188
-736.039	451.260	-0.278	-0.627
-735.025	-200.000	0.039	-0.194
-734.010	-80.695	-0.241	0.082
-732.996	-200.000	0.024	0.238
-731.981	785.377	-0.128	-0.359
-730.966	-133.767	-0.255	0.032
-729.952	429.704	-0.124	0.273
-728.937	-172.121	-0.078	0.003
-727.923	-86.947	-0.196	-0.061
-726.908	796.057	0.075	-0.212
-725.894	170.850	-0.206	-0.301
-724.879	15.678	-0.147	0.118
-723.864	348.228	-0.073	-0.147
-722.850	-200.000	-0.033	0.266
-721.835	-33.410	-0.205	-0.116
-720.821	2.534	-0.402	-0.297
-719.806	270.885	-0.061	-0.110
-718.791	-88.505	-0.310	0.094
-717.777	-54.928	0.171	-0.079
-716.762	-65.510	0.127	-0.052
-715.748	44.527	-0.146	-0.137
-714.733	-97.389	-0.274	-0.073
-713.718	-200.000	-0.065	-0.327
-712.704	-116.172	0.219	0.041
-711.689	-89.969	-0.153	0.046
-710.675	173.027	-0.113	-0.167
-709.660	-63.450	0.239	0.100
-708.645	-200.000	0.002	0.422
-707.631	49.732	-0.096	0.092
-706.616	-200.000	0.010	-0.079
-705.602	-134.651	0.038	-0.005
-704.587	-200.000	0.058	-0.368
-703.572	-37.130	-0.125	0.068
-702.558	-20.245	-0.334	-0.209
-701.543	207.043	-0.144	-0.229
-700.529	-67.241	-0.282	0.113
-699.514	-43.267	-0.040	0.021
-698.499	-142.826	0.517	0.051
-697.485	-200.000	-0.079	0.443
-696.470	-200.000	-0.082	-0.377
-695.456	-135.739	-0.115	0.014
-694.441	-200.000	0.005	0.466
-693.426	-140.546	0.373	0.039
-692.412	-171.796	0.088	-0.003
-691.397	-200.000	-0.025	-0.222
-690.383	-98.504	0.209	-0.054
-689.368	-67.658	-0.290	-0.116
-688.354	-200.000	0.030	0.258
-687.339	800.000	0.008	-0.032
-686.324	-134.823	0.196	0.024
-685.310	741.240	-0.110	0.302
-684.295	800.000	0.037	-0.155
-683.281	116.870	-0.244	0.305
-682.266	-60.132	0.328	-0.143
-681.251	180.531	-0.037	-0.056
-680.237	-90.688	0.185	0.054
-679.222	-200.000	-0.038	-0.335
-678.208	590.023	0.133	0.334
-677.193	800.000	-0.098	0.283
-676.178	-2.480	-0.035	-0.025
-675.164	321.757	-0.118	0.228
-674.149	488.824	-0.056	-0.131
-673.135	-200.000	0.007	-0.210
-672.120	-41.995	-0.201	0.105
-671.105	-11.626	-0.320	0.214
-670.091	-200.000	-0.010	-0.066
-669.076	-57.061	-0.464	0.208
-668.062	-89.821	0.152	0.045
-667.047	493.640	-0.120	0.280
-666.032	-31.605	-0.037	-0.021
-665.018	-133.841	0.136	0.017
-664.003	230.956	-0.069	-0.115
-662.989	-161.136	0.039	-0.002
-661.974	-63.335	0.059	-0.025
-660.959	516.765	0.117	-0.278
-659.945	-35.096	-0.432	-0.240
-658.930	213.874	0.130	0.209
-657.916	-153.547	-0.155	-0.011
-656.901	800.000	-0.059	-0.251
-655.886	-200.000	-0.081	0.397
-654.872	10.343	-0.412	0.319
-653.857	149.952	0.105	-0.145
-652.843	561.570	0.072	-0.177
-651.828	-4.549	-0.447	0.314
-650.814	-19.833	0.143	0.090
-649.799	54.349	-0.120	0.118
-648.784	800.000	-0.041	0.142
-647.770	-200.000	-0.021	0.273
-646.755	-119.597	0.382	-0.067
-645.741	-17.901	0.186	-0.119
-644.726	-58.620	-0.254	-0.112
-643.711	800.000	-0.078	0.265
-642.697	-131.603	-0.337	-0.045
-641.682	-116.696	0.278	-0.052
-640.668	-200.000	-0.015	0.535
-639.653	-79.119	0.206	0.071
-638.638	-80.346	-0.234	-0.080
-637.624	-114.845	0.426	-0.083
-636.609	-200.000	-0.022	-0.146
-635.595	800.000	-0.053	0.204
-634.580	-177.746	0.308	0.008
-633.565	-200.000	0.018	0.338
-632.551	-113.898	-0.289	-0.057
-631.536	-56.655	0.192	0.087
-630.522	129.786	-0.058	0.076
-629.507	-50.351	-0.200	0.096
-628.492	-200.000	-0.018	0.222
-627.478	37.112	0.132	-0.119
-626.463	800.000	0.094	-0.362
-625.449	-200.000	-0.042	-0.227
-624.434	-200.000	0.002	-0.320
-623.419	-43.619	-0.265	-0.136
-622.405	6.257	0.221	-0.167
-621.390	800.000	-0.070	-0.247
-620.376	-151.991	0.174	-0.013
-619.361	-115.752	-0.154	0.029
-618.346	-48.777	-0.179	-0.087
-617.332	-200.000	0.017	-0.096
-616.317	-8.604	-0.151	0.103
-615.303	-72.153	-0.224	-0.084
-614.288	-73.965	0.177	0.065
-613.273	-29.470	-0.485	-0.281
-612.259	-59.738	-0.167	0.073
-611.244	-200.000	0.012	0.130
-610.230	5.285	0.371	-0.277
-609.215	130.621	-0.220	-0.286
-608.201	-134.318	-0.089	0.011
-607.186	-28.236	0.170	0.100
-606.171	-25.547	-0.204	0.122
-605.157	-82.369	0.257	-0.085
-604.142	268.884	-0.074	0.131
-603.128	-59.283	-0.342	0.150
-602.113	-2.946	0.273	-0.193
-601.098	-77.187	0.235	-0.083
-600.084	-71.474	-0.288	-0.110
-599.069	55.812	-0.244	-0.240
-598.055	-160.192	0.345	0.019
-597.040	-71.519	0.455	0.173
-596.025	183.172	-0.016	0.023
-595.011	-151.601	-0.038	0.003
-593.996	-115.665	-0.067	-0.013
-592.982	-57.732	-0.114	0.050
-591.967	455.184	-0.055	-0.124
-590.952	-19.466	0.230	-0.144
-589.938	-200.000	-0.003	0.150
-588.923	-200.000	0.077	0.372
-587.909	-28.912	0.093	-0.054
-586.894	-146.264	-0.207	0.018
-585.879	-95.439	0.359	0.098
-584.865	-200.000	0.012	-0.220
-583.850	84.987	0.108	0.120
-582.836	-45.333	-0.101	0.051
-581.821	156.496	0.065	-0.091
-580.806	57.644	0.243	0.241
-579.792	164.116	0.055	0.079
-578.777	229.065	-0.073	0.121
-577.763	-200.000	0.002	-0.145
-576.748	86.164	-0.219	-0.245
-575.733	-43.124	0.220	0.113
-574.719	243.099	0.021	0.035
-573.704	-122.041	-0.135	-0.022
-572.690	312.116	0.081	0.154
-571.675	-29.617	0.249	-0.144
-570.661	1.935	-0.200	0.147
-569.646	232.710	-0.053	0.088
-568.631	73.952	0.171	0.182
-567.617	414.871	0.047	0.101
-566.602	-174.402	-0.189	0.006
-565.588	-200.000	-0.016	-0.335
-564.573	-60.202	-0.433	0.187
-563.558	-200.000	0.001	0.043
-562.544	215.291	-0.161	0.259
-561.529	800.000	0.084	0.269
-560.515	8.561	-0.448	0.342
-559.500	64.124	-0.087	0.089
-558.485	235.474	0.061	-0.102
-557.471	-131.457	-0.303	0.040
-556.456	55.804	0.175	0.172
-555.442	-38.272	-0.070	-0.038
-554.427	800.000	-0.035	0.100
-553.412	168.564	0.124	0.179
-552.398	66.294	-0.287	0.295
-551.383	188.939	0.109	0.165
-550.369	-200.000	-0.007	-0.069
-549.354	800.000	-0.088	0.308
-548.339	-52.711	0.081	-0.038
-547.325	-200.000	-0.008	-0.288
-546.310	-200.000	0.001	-0.286
-545.296	-122.039	-0.054	-0.009
-544.281	380.833	-0.101	0.211
-543.266	-107.551	-0.451	-0.100
-542.252	-0.180	0.093	0.067
-541.237	23.782	0.208	0.173
-540.223	223.479	-0.080	0.130
-539.208	-184.193	-0.379	0.006
-538.193	-0.134	0.175	0.126
-537.179	227.076	-0.139	0.229
-536.164	-121.723	0.113	0.019
-535.150	-102.940	0.031	0.008
-534.135	-200.000	0.066	-0.293
-533.121	-198.979	-0.374	0.002
-532.106	524.615	-0.071	0.169
-531.091	56.219	-0.153	-0.150
-530.077	-200.000	-0.036	-0.311
-529.062	800.000	0.037	-0.127
-528.048	-200.000	-0.078	0.381
-527.033	-200.000	0.019	0.089
-526.018	-11.519	0.354	-0.235
-525.004	-145.805	-0.186	0.017
-523.989	-94.426	0.533	-0.147
-522.975	69.025	0.131	0.136
-521.960	-160.922	-0.243	0.013
-520.945	276.747	0.109	0.195
-519.931	-101.659	-0.299	0.073
-518.916	-63.352	0.114	-0.047
-517.902	326.536	-0.052	0.101
-516.887	-53.321	0.329	-0.153
-515.872	-200.000	-0.012	-0.293
-514.858	69.301	0.121	0.126
-513.843	162.754	-0.212	-0.301
-512.829	800.000	-0.092	0.349
-511.814	-160.645	-0.057	-0.003
-510.799	279.538	-0.142	0.257
-509.785	-80.380	0.212	-0.071
-508.770	800.000	0.078	-0.265
-507.756	233.299	0.179	-0.298
-506.741	-46.823	0.119	-0.059
-505.726	11.312	-0.040	-0.031
-504.712	-58.621	0.318	0.140
-503.697	800.000	0.018	-0.077
-502.683	-76.596	0.149	0.053
-501.668	800.000	-0.026	0.094
-500.653	-41.684	0.225	-0.117
-499.639	-24.813	-0.108	0.065
-498.624	-109.258	-0.111	-0.024
-497.610	553.459	-0.086	-0.208
-496.595	189.938	-0.073	0.110
-495.581	176.266	0.199	-0.292
-494.566	52.975	-0.084	0.081
-493.551	-56.949	-0.248	-0.110
-492.537	800.000	0.080	0.348
-491.522	507.145	-0.099	0.232
-490.508	33.816	-0.122	-0.107
-489.493	64.033	0.042	-0.043
-488.478	-63.610	-0.453	-0.188
-487.464	-46.650	-0.193	-0.096
-486.449	-54.804	0.077	-0.035
-485.435	-74.460	-0.270	0.099
-484.420	52.767	-0.062	-0.060
-483.405	136.665	-0.299	-0.395
-482.391	-62.504	-0.323	-0.136
-481.376	-200.000	-0.034	0.265
-480.362	-200.000	-0.001	-0.042
-479.347	239.292	0.110	0.184
-478.332	-200.000	0.000	-0.077
-477.318	39.814	-0.122	0.111
-476.303	-200.000	0.069	-0.331
-475.289	632.473	0.076	-0.194
-474.274	34.526	-0.190	0.167
-473.259	-74.663	-0.149	-0.054
-472.245	739.276	-0.071	-0.193
-471.230	33.191	-0.022	-0.019
-470.216	108.584	0.094	0.113
-469.201	52.296	0.304	-0.293
-468.186	6.946	0.140	-0.105
-467.172	800.000	-0.070	0.234
-466.157	-200.000	0.000	0.136
-465.143	451.468	-0.090	0.200
-464.128	-48.654	0.194	0.094
-463.113	-87.713	-0.154	-0.047
-462.099	800.000	-0.047	-0.149
-461.084	50.997	-0.037	0.035
-460.070	605.860	-0.073	0.184
-459.055	-200.000	0.001	-0.177
-458.040	-200.000	-0.020	-0.161
-457.026	-16.950	-0.101	0.064
-456.011	-189.311	0.298	0.004
-454.997	800.000	-0.027	-0.086
-453.982	800.000	-0.033	-0.136
-452.968	46.013	-0.041	-0.038
-451.953	64.746	0.232	-0.236
-450.938	-60.427	0.160	0.068
-449.924	11.335	0.277	0.214
-448.909	92.774	-0.005	0.005
-447.895	-150.190	0.194	-0.015
-446.880	800.000	0.044	-0.130
-445.865	397.560	0.101	-0.213
-444.851	556.258	-0.030	0.073
-443.836	-87.728	-0.069	0.021
-442.822	-200.000	-0.008	0.369
-441.807	102.214	0.285	0.336
-440.792	-32.156	0.119	0.067
-439.778	-200.000	0.001	-0.007
-438.763	-162.516	-0.193	-0.010
-437.749	73.925	-0.270	0.286
-436.734	-15.224	-0.102	-0.066
-435.719	-39.305	-0.494	-0.262
-434.705	-200.000	0.014	0.118
-433.690	115.223	0.092	-0.113
-432.676	30.845	0.127	0.110
-431.661	-200.000	-0.002	0.134
-430.646	-47.930	0.281	0.137
-429.632	-19.097	0.230	0.144
-428.617	-200.000	0.027	0.221
-427.603	36.118	-0.151	-0.134
-426.588	190.847	0.103	0.156
-425.573	-200.000	-0.038	0.193
-424.559	-200.000	0.036	0.344
-423.544	622.213	-0.123	-0.312
-422.530	172.480	0.114	-0.165
-421.515	800.000	-0.034	-0.147
-420.500	366.090	0.010	0.021
-419.486	134.354	-0.239	-0.313
-418.471	-40.270	-0.187	-0.098
-417.457	-200.000	0.021	0.209
-416.442	-200.000	0.046	0.212
-415.428	98.726	-0.201	-0.234
-414.413	-112.640	0.064	0.013
-413.398	54.933	-0.084	-0.081
-412.384	-33.589	-0.115	-0.064
-411.369	147.223	0.012	-0.017
-410.355	-95.702	0.386	0.104
-409.340	59.843	0.278	0.277
-408.325	259.319	-0.066	0.115
-407.311	-124.465	-0.194	0.030
-406.296	489.272	0.065	0.149
-405.282	-3.471	-0.305	0.214
-404.267	139.756	-0.258	-0.342
-403.252	-15.989	-0.100	0.064
-402.238	-79.816	0.078	0.026
-401.223	-88.233	0.450	0.136
-400.209	-200.000	0.054	-0.292
-399.194	800.000	0.008	0.027
-398.179	-18.538	0.148	0.093
-397.165	-107.877	0.131	0.029
-396.150	111.590	-0.158	0.192
-395.136	48.934	0.113	-0.107
-394.121	-200.000	0.011	-0.110
-393.106	-105.068	-0.200	-0.046
-392.092	291.569	0.234	0.429
-391.077	151.117	0.172	-0.235
-390.063	-200.000	-0.011	-0.131
-389.048	82.780	0.108	-0.118
-388.033	-123.663	0.165	0.026
-387.019	204.887	-0.031	-0.049
-386.004	-31.799	0.302	-0.171
-384.990	-132.837	0.279	0.036
-383.975	204.523	-0.032	-0.051
-382.960	-200.000	-0.028	-0.141
-381.946	227.826	-0.071	-0.117
-380.931	-123.065	-0.290	0.047
-379.917	-6.752	-0.240	-0.165
-378.902	101.877	-0.168	-0.198
-377.888	800.000	0.079	0.303
-376.873	594.555	0.064	0.158
-375.858	-200.000	0.011	0.167
-374.844	-26.462	-0.142	0.084
-373.829	-134.325	0.233	0.029
-372.815	-14.161	-0.187	0.121
-371.800	-200.000	0.023	0.261
-370.785	71.057	0.147	0.153
-369.771	312.047	-0.158	0.299
-368.756	-55.317	0.240	0.108
-367.742	227.857	0.088	-0.145
-366.727	-200.000	0.039	-0.218
-365.712	-200.000	-0.029	-0.156
-364.698	-200.000	0.039	0.338
-363.683	-200.000	-0.269	0.001
-362.669	-104.814	-0.458	-0.106
-361.654	-108.424	-0.371	0.080
-360.639	-55.172	0.106	0.048
-359.625	-57.841	-0.220	-0.097
-358.610	-37.747	-0.067	-0.036
-357.596	-159.655	-0.385	0.021
-356.581	11.980	0.023	-0.018
-355.566	16.586	-0.120	0.095
-354.552	373.966	-0.062	0.126
-353.537	-200.000	-0.030	0.168
-352.523	-124.277	-0.116	-0.018
-351.508	179.600	0.137	-0.202
-350.493	-174.238	-0.330	0.010
-349.479	-168.418	-0.053	-0.002
-348.464	126.727	-0.218	-0.277
-347.450	17.950	-0.101	-0.081
-346.435	-200.000	0.034	-0.524
-345.420	481.876	-0.034	-0.077
-344.406	427.516	-0.062	-0.134
-343.391	281.984	-0.164	-0.295
-342.377	555.202	-0.017	-0.041
-341.362	152.834	-0.057	0.078
-340.348	9.805	-0.255	-0.195
-339.333	-129.226	0.291	0.041
-338.318	-85.999	0.074	0.023
-337.304	222.689	-0.017	0.028
-336.289	245.617	0.129	0.217
-335.275	-16.825	-0.133	-0.085
-334.260	-200.000	0.063	0.364
-333.245	0.941	-0.085	0.061
-332.231	48.953	-0.157	-0.148
-331.216	397.860	0.151	-0.317
-330.202	-171.395	0.159	0.005
-329.187	8.670	0.134	-0.102
-328.172	245.932	0.105	0.177
-327.158	294.514	0.104	0.191
-326.143	107.863	-0.128	0.153
-325.129	-1.815	-0.052	-0.037
-324.114	16.762	-0.118	-0.094
-323.099	-88.362	0.147	0.044
-322.085	710.898	0.021	-0.056
-321.070	800.000	0.084	0.302
-320.056	130.457	0.101	0.129
-319.041	86.906	0.126	0.140
-318.026	-200.000	-0.009	0.085
-317.012	-150.787	0.273	0.021
-315.997	-122.948	0.167	-0.027
-314.983	-200.000	0.004	0.163
-313.968	117.300	0.116	-0.143
-312.953	-13.433	0.178	-0.116
-311.939	800.000	-0.036	0.129
-310.924	-15.346	-0.075	-0.048
-309.910	25.360	-0.187	0.156
-308.895	-200.000	-0.008	0.131
-307.880	-92.886	0.353	-0.099
-306.866	-200.000	-0.002	-0.382
-305.851	800.000	0.107	-0.298
-304.837	-200.000	0.012	0.503
-303.822	180.586	-0.113	0.166
-302.807	800.000	0.071	-0.252
-301.793	22.953	0.254	-0.209
-300.778	89.209	0.208	-0.232
-299.764	-200.000	-0.040	0.184
-298.749	-163.270	0.464	0.022
-297.735	-200.000	-0.018	-0.096
-296.720	-163.466	-0.113	0.005
-295.705	32.071	0.197	0.171
-294.691	-79.550	-0.045	0.015
-293.676	-200.000	0.072	0.439
-292.662	-200.000	0.011	-0.082
-291.647	-121.128	-0.130	0.022
-290.632	171.901	0.201	0.289
-289.618	-142.635	-0.121	0.012
-288.603	-12.310	-0.269	0.176
-287.589	-84.836	-0.290	-0.091
-286.574	136.708	0.066	-0.086
-285.559	-76.579	-0.333	0.117
-284.545	38.856	-0.276	-0.247
-283.530	10.699	0.463	0.354
-282.516	243.423	0.135	-0.226
-281.501	-44.582	-0.205	-0.103
-280.486	101.357	-0.102	-0.119
-279.472	-190.490	-0.080	0.001
-278.457	-49.655	-0.229	0.109
-277.443	-106.802	-0.211	-0.047
-276.428	50.431	-0.169	0.160
-275.413	-149.211	0.429	0.034
-274.399	-200.000	-0.020	-0.258
-273.384	-88.265	0.169	0.051
-272.370	83.211	0.165	0.180
-271.355	-180.506	0.251	-0.005
-270.340	-200.000	-0.054	0.239
-269.326	-200.000	0.001	0.085
-268.311	235.499	0.137	-0.227
-267.297	-174.964	-0.144	-0.004
-266.282	60.199	0.247	-0.245
-265.267	112.176	0.288	-0.349
-264.253	-200.000	0.038	-0.199
-263.238	-200.000	0.031	-0.278
-262.224	-200.000	0.006	0.235
-261.209	297.339	0.164	0.301
-260.195	-165.190	0.477	0.021
-259.180	-71.799	-0.088	-0.033
-258.165	21.119	0.149	-0.121
-257.151	-111.184	-0.215	-0.044
-256.136	-94.338	-0.253	-0.069
-255.122	-66.474	0.283	0.113
-254.107	-27.772	-0.048	-0.028
-253.092	-200.000	0.044	0.256
-252.078	-91.965	-0.104	0.029
-251.063	102.345	0.102	-0.120
-250.049	-126.326	0.252	-0.038
-249.034	-82.982	0.268	0.086
-248.019	-200.000	-0.040	-0.297
-247.005	-24.016	-0.305	0.183
-245.990	800.000	0.104	0.297
-244.976	247.816	-0.058	-0.097
-243.961	20.973	-0.116	0.094
-242.946	309.749	-0.175	-0.327
-241.932	800.000	0.103	-0.285
-240.917	-165.035	0.097	-0.004
-239.903	-200.000	-0.035	-0.251
-238.888	182.700	-0.082	-0.120
-237.873	-69.999	0.248	0.094
-236.859	-185.688	0.109	-0.002
-235.844	-165.403	0.317	-0.014
-234.830	800.000	0.086	-0.291
-233.815	-127.785	-0.101	-0.015
-232.800	-90.055	0.059	-0.017
-231.786	308.808	0.158	0.296
-230.771	-200.000	0.075	0.447
-229.757	129.363	-0.125	0.159
-228.742	-172.063	-0.354	-0.011
-227.727	693.450	0.128	-0.336
-226.713	-90.766	0.184	-0.053
-225.698	-200.000	-0.040	0.181
-224.684	-200.000	-0.005	-0.282
-223.669	-45.866	-0.186	-0.092
-222.655	-18.447	0.066	0.041
-221.640	668.860	0.027	0.071
-220.625	-88.056	-0.070	0.021
-219.611	25.734	0.211	-0.176
-218.596	1.013	0.151	-0.108
-217.582	-114.345	-0.109	-0.021
-216.567	-200.000	0.025	0.161
-215.552	800.000	0.105	0.300
-214.538	63.982	-0.260	0.262
-213.523	-200.000	0.000	-0.209
-212.509	-104.401	0.336	0.078
-211.494	-124.945	-0.235	-0.036
-210.479	36.506	0.129	0.114
-209.465	66.400	-0.097	0.098
-208.450	94.184	0.317	-0.360
-207.436	-200.000	0.008	0.194
-206.421	-97.408	0.065	-0.017
-205.406	75.200	-0.129	-0.136
-204.392	30.978	-0.329	-0.282
-203.377	-4.349	0.183	-0.126
-202.363	8.146	0.147	-0.110
-201.348	763.555	-0.090	0.245
-200.333	-24.517	-0.179	0.107
-199.319	-200.000	-0.051	-0.351
-198.304	-113.473	-0.117	-0.023
-197.290	-16.777	0.103	-0.065
-196.275	-98.955	0.204	-0.052
-195.260	800.000	-0.033	0.138
-194.246	-156.652	-0.094	-0.006
-193.231	-200.000	0.001	-0.187
-192.217	-178.006	-0.169	-0.004
-191.202	-28.270	0.417	-0.240
-190.187	17.224	-0.281	0.223
-189.173	-200.000	-0.021	-0.277
-188.158	-13.719	0.053	0.034
-187.144	87.421	-0.059	-0.065
-186.129	-102.755	0.135	-0.032
-185.114	296.975	-0.088	-0.161
-184.100	-200.000	0.054	-0.249
-183.085	562.067	0.011	0.027
-182.071	-145.938	-0.079	-0.007
-181.056	800.000	0.023	-0.063
-180.042	145.565	0.240	-0.321
-179.027	-146.691	0.155	0.013
-178.012	-200.000	0.005	0.060
-176.998	-37.890	-0.228	0.121
-175.983	72.207	-0.222	0.231
-174.969	800.000	-0.038	-0.124
-173.954	-91.505	-0.302	0.086
-172.939	66.598	0.133	-0.135
-171.925	-106.491	-0.045	-0.010
-170.910	138.364	-0.116	-0.152
-169.896	-161.170	-0.125	0.007
-168.881	-200.000	-0.025	-0.313
-167.866	800.000	0.103	-0.340
-166.852	261.033	-0.096	0.165
-165.837	238.810	0.024	0.039
-164.823	-94.132	0.230	-0.063
-163.808	50.737	0.072	0.068
-162.793	800.000	-0.100	-0.308
-161.779	-200.000	0.030	-0.169
-160.764	238.685	0.142	0.236
-159.750	83.031	0.098	0.106
-158.735	265.973	0.096	0.168
-157.720	-200.000	-0.014	0.201
-156.706	-105.854	-0.173	0.039
-155.691	800.000	0.025	0.080
-154.677	-200.000	0.013	0.146
-153.662	800.000	-0.088	-0.256
-152.647	-8.822	-0.078	-0.052
-151.633	72.817	0.083	0.087
-150.618	253.113	-0.132	0.225
-149.604	-173.010	-0.270	-0.008
-148.589	112.639	-0.118	0.143
-147.574	-110.918	0.172	-0.035
-146.560	145.257	-0.184	0.245
-145.545	-14.394	-0.046	0.030
-144.531	-6.256	0.123	0.083
-143.516	-200.000	0.030	-0.395
-142.502	-200.000	0.010	-0.191
-141.487	239.798	-0.182	0.302
-140.472	-94.511	0.136	0.037
-139.458	-79.634	-0.354	-0.119
-138.443	-102.191	0.144	0.035
-137.429	190.623	0.099	0.149
-136.414	-139.241	-0.258	-0.028
-135.399	-157.748	-0.110	-0.007
-134.385	206.527	0.120	0.186
-133.370	-200.000	0.005	-0.058
-132.356	-148.010	-0.195	-0.016
-131.341	-24.150	-0.078	0.047
-130.326	51.774	0.164	-0.156
-129.312	-1.055	0.246	0.174
-128.297	-200.000	0.001	0.107
-127.283	-48.590	-0.206	-0.099
-126.268	-122.177	-0.393	-0.064
-125.253	141.653	0.118	0.156
-124.239	-48.039	0.204	-0.098
-123.224	800.000	-0.056	-0.162
-122.210	318.818	0.135	0.254
-121.195	23.264	-0.113	0.093
-120.180	66.516	-0.212	0.215
-119.166	338.719	-0.108	0.209
-118.151	-74.092	0.180	-0.065
-117.137	-59.671	-0.215	0.092
-116.122	-101.993	0.392	-0.094
-115.107	-200.000	-0.319	-0.002
-114.093	223.531	-0.204	0.329
-113.078	-188.417	-0.358	-0.004
-112.064	-200.000	-0.017	-0.143
-111.049	-67.484	-0.117	0.046
-110.034	-200.000	-0.003	0.140
-109.020	149.157	-0.081	-0.109
-108.005	528.448	-0.059	0.139
-106.991	17.870	0.245	-0.194
-105.976	30.120	0.166	-0.141
-104.962	-146.659	-0.138	-0.012
-103.947	-115.542	0.060	0.011
-102.932	-200.000	-0.000	-0.006
-101.918	800.000	-0.065	0.222
-100.903	169.594	-0.138	-0.196
-99.889	-27.429	0.133	-0.077
-98.874	56.247	0.079	-0.076
-97.859	-200.000	0.010	-0.226
-96.845	-200.000	0.009	-0.051
-95.830	258.376	0.072	-0.124
-94.816	-133.583	-0.151	-0.019
-93.801	625.516	-0.048	0.121
-92.786	-2.393	-0.062	-0.043
-91.772	66.909	-0.303	0.307
-90.757	-120.502	-0.200	-0.034
-89.743	82.833	0.128	0.138
-88.728	9.218	0.116	-0.088
-87.713	275.296	0.060	-0.106
-86.699	195.772	0.113	0.170
-85.684	-58.090	0.241	0.104
-84.670	656.260	0.048	0.124
-83.655	-65.924	0.201	-0.080
-82.640	72.772	-0.145	0.151
-81.626	601.975	-0.174	0.430
-80.611	187.101	0.092	0.136
-79.597	547.953	0.082	0.195
-78.582	72.765	-0.103	0.107
-77.567	800.000	0.168	0.523
-76.553	124.871	0.044	-0.056
-75.538	800.000	0.034	0.095
-74.524	-200.000	0.031	-0.621
-73.509	-141.736	-0.432	-0.043
-72.494	101.518	-0.181	0.210
-71.480	-114.735	0.400	0.076
-70.465	83.886	-0.166	0.180
-69.451	800.000	-0.050	0.172
-68.436	498.012	-0.099	-0.227
-67.422	-89.038	0.092	0.027
-66.407	-63.403	-0.230	-0.094
-65.392	-34.842	-0.186	-0.101
-64.378	412.009	-0.127	-0.269
-63.363	-41.127	0.286	0.147
-62.349	-200.000	-0.057	0.459
-61.334	180.383	-0.762	-1.111
-60.319	-168.888	0.481	0.018
-59.305	-200.000	-0.214	-1.051
-58.290	250.632	0.597	1.008
-57.276	800.000	0.496	1.627
-56.261	-200.000	92.323	547.996
-55.246	606.836	1384.478	3429.845
-54.232	185.952	2594.890	3833.371
-53.217	122.233	2216.507	2750.842
-52.203	46.507	1747.643	1611.051
-51.188	39.066	1555.959	1382.196
-50.173	36.673	1527.584	1340.380
-49.159	54.815	1576.321	1511.218
-48.144	58.397	1595.572	1554.824
-47.130	39.628	1551.939	1382.350
-46.115	36.307	1536.673	1345.588
-45.100	36.144	1533.280	1341.431
-44.086	36.072	1531.578	1339.391
-43.071	36.068	1529.644	1337.620
-42.057	36.032	1528.076	1335.940
-41.042	35.878	1527.299	1334.144
-40.027	35.988	1525.228	1333.039
-39.013	35.999	1523.877	1331.883
-37.998	36.042	1522.118	1330.591
-36.984	36.022	1521.176	1329.575
-35.969	36.024	1519.482	1328.059
-34.954	36.038	1518.264	1327.035
-33.940	36.064	1517.000	1326.061
-32.925	36.121	1515.521	1325.105
-31.911	36.112	1514.484	1324.081
-30.896	36.111	1512.963	1322.694
-29.881	36.200	1511.505	1321.981
-28.867	36.104	1510.380	1320.286
-27.852	36.058	1509.080	1318.781
-26.838	36.097	1507.778	1317.856
-25.823	36.171	1505.370	1316.206
-24.809	36.126	1503.656	1314.347
-23.794	36.106	1502.423	1313.082
-22.779	36.142	1501.294	1312.286
-21.765	36.118	1500.653	1311.513
-20.750	36.160	1499.027	1310.323
-19.736	36.046	1498.197	1308.772
-18.721	36.125	1496.800	1308.039
-17.706	36.084	1496.027	1307.030
-16.692	36.063	1494.642	1305.628
-15.677	36.076	1493.744	1304.878
-14.663	36.028	1493.035	1303.883
-13.648	36.048	1491.606	1302.718
-12.633	36.072	1490.353	1301.736
-11.619	35.899	1490.341	1300.504
-10.604	36.090	1488.559	1300.186
-9.590	35.938	1488.196	1298.788
-8.575	35.997	1487.332	1298.380
-7.560	36.058	1486.075	1297.643
-6.546	36.011	1485.386	1296.676
-5.531	36.009	1484.468	1295.807
-4.517	36.057	1483.847	1295.542
-3.502	35.988	1482.484	1293.833
-2.487	36.022	1481.436	1293.096
-1.473	35.954	1480.471	1291.748
-0.458	35.983	1479.041	1290.643
0.556	37.438	1469.357	1278.349
1.571	33.737	1440.015	1228.807
2.586	28.717	1373.721	1141.034
3.600	25.889	1288.048	1053.274
4.615	23.477	1239.009	999.509
5.629	19.432	1181.445	931.196
6.644	11.824	1097.163	826.416
7.659	6.286	1056.725	768.887
8.673	5.396	1051.041	760.359
9.688	5.312	1048.506	758.049
10.702	5.240	1046.806	756.403
11.717	5.422	1044.925	755.857
12.731	6.818	1046.133	763.416
13.746	13.728	1055.945	804.114
14.761	20.073	1064.170	841.209
15.775	21.358	1064.655	847.753
16.790	20.764	1062.987	843.472
17.804	19.733	1060.872	836.735
18.819	18.857	1058.558	830.601
19.834	18.356	1057.518	827.294
20.848	18.115	1056.786	825.482
21.863	18.177	1056.356	825.376
22.877	17.935	1055.322	823.328
23.892	17.739	1054.412	821.602
24.907	17.525	1053.761	819.988
25.921	17.569	1053.374	819.826
26.936	17.582	1052.029	818.770
27.950	17.588	1051.382	818.222
28.965	17.770	1049.779	817.775
29.980	17.684	1048.825	816.547
30.994	17.975	1047.237	816.631
32.009	17.997	1047.033	816.503
33.023	17.958	1046.922	816.160
34.038	18.012	1045.725	815.414
35.053	17.932	1044.640	814.112
36.067	17.832	1043.668	812.809
37.082	17.697	1042.809	811.423
38.096	17.787	1042.202	811.308
39.111	17.848	1041.224	810.767
40.126	18.002	1040.180	810.613
41.140	17.793	1039.327	808.882
42.155	17.643	1038.308	807.309
43.169	17.368	1036.953	804.882
44.184	17.444	1035.677	804.182
45.199	17.406	1034.833	803.275
46.213	17.368	1033.727	802.164
47.228	17.410	1033.202	801.885
48.242	17.661	1032.372	802.352
49.257	17.816	1031.583	802.397
50.271	17.746	1030.767	801.361
51.286	17.764	1029.547	800.426
52.301	17.808	1029.082	800.201
53.315	17.826	1028.007	799.379
54.330	17.650	1027.225	797.877
55.344	17.494	1026.550	796.551
56.359	17.551	1025.764	796.139
57.374	17.495	1024.472	794.803
58.388	17.565	1023.895	794.611
59.403	17.302	1023.397	792.928
60.417	17.357	1021.570	791.700
61.432	17.440	1020.828	791.439
62.447	17.387	1020.821	791.115
63.461	17.227	1019.587	789.346
64.476	17.177	1018.788	788.428
65.490	17.215	1018.016	787.934
66.505	17.192	1017.249	787.167
67.520	17.098	1016.402	786.005
68.534	17.330	1015.496	786.309
69.549	17.227	1014.539	785.024
70.563	17.212	1014.212	784.631
71.578	17.280	1013.032	783.962
72.593	17.081	1012.227	782.355
73.607	17.053	1011.070	781.258
74.622	17.011	1010.354	780.445
75.636	17.066	1009.226	779.759
76.651	17.174	1008.326	779.489
77.666	17.225	1007.753	779.212
78.680	17.104	1007.334	778.262
79.695	16.983	1007.490	777.760
80.709	17.217	1006.274	777.825
81.724	17.273	1005.741	777.599
82.739	17.353	1005.303	777.556
83.753	17.439	1003.923	776.813
84.768	17.726	1003.183	777.483
85.782	17.743	1003.216	777.515
86.797	17.984	1002.334	777.861
87.812	17.926	1001.331	776.751
88.826	17.975	999.980	775.856
89.841	17.706	999.840	774.458
90.855	17.813	998.937	774.173
91.870	17.869	998.607	774.104
92.884	17.880	998.240	773.799
93.899	17.965	996.819	773.017
94.914	18.092	995.704	772.657
95.928	18.074	995.138	772.065
96.943	18.123	994.200	771.494
97.957	17.983	993.507	770.254
98.972	17.746	992.620	768.431
99.987	17.894	992.037	768.581
101.001	17.988	990.884	768.038
102.016	17.960	990.146	767.273
103.030	17.832	989.571	766.188
104.045	17.845	988.686	765.492
105.060	17.946	987.546	764.994
106.074	17.791	986.757	763.619
107.089	17.637	985.273	761.716
108.103	17.459	984.318	760.117
109.118	17.334	983.235	758.656
110.133	17.248	982.316	757.495
111.147	17.378	981.442	757.333
112.162	17.178	981.016	756.049
113.176	17.350	979.540	755.607
114.191	17.422	979.324	755.693
115.206	17.441	978.586	755.144
116.220	17.412	977.566	754.159
117.235	17.540	976.372	753.739
118.249	17.544	975.723	753.188
119.264	17.405	974.675	751.697
120.279	17.352	973.880	750.787
121.293	17.251	973.662	750.103
122.308	17.207	972.793	749.174
123.322	17.193	971.563	748.098
124.337	17.124	970.511	746.920
125.352	17.017	969.963	745.960
126.366	17.144	968.289	745.167
127.381	17.165	967.330	744.451
128.395	17.079	966.606	743.452
129.410	17.171	965.542	742.972
130.424	17.199	964.867	742.508
131.439	17.284	964.286	742.368
132.454	17.317	963.605	741.923
133.468	17.445	962.452	741.524
134.483	17.555	961.936	741.542
135.497	17.519	961.164	740.723
136.512	17.576	960.270	740.218
137.527	17.581	959.695	739.731
138.541	17.509	959.077	738.878
139.556	17.498	958.653	738.437
140.570	17.509	957.618	737.621
141.585	17.623	957.269	737.782
142.600	17.822	956.553	738.027
143.614	17.837	955.383	737.123
144.629	17.992	954.901	737.355
145.643	18.077	954.060	737.005
146.658	18.002	953.441	736.139
147.673	17.737	952.542	734.238
148.687	17.652	951.377	732.912
149.702	17.604	950.468	731.940
150.716	17.426	949.503	730.368
151.731	17.569	948.567	730.195
152.746	17.556	947.822	729.503
153.760	17.569	947.131	728.960
154.775	17.579	946.379	728.363
155.789	17.563	945.838	727.813
156.804	17.735	944.862	727.730
157.819	17.723	944.138	727.059
158.833	17.774	943.459	726.690
159.848	17.801	943.266	726.589
160.862	17.997	942.053	726.427
161.877	17.949	941.707	725.890
162.892	17.664	940.500	723.683
163.906	17.583	939.396	722.429
164.921	17.467	938.639	721.289
165.935	17.489	937.715	720.611
166.950	17.492	936.886	719.922
167.964	17.571	936.088	719.576
168.979	17.748	934.449	719.003
169.994	17.581	933.760	717.705
171.008	17.423	933.166	716.521
172.023	17.596	932.149	716.402
173.037	17.786	930.892	716.169
174.052	17.904	930.943	716.641
175.067	17.897	930.090	715.893
176.081	17.764	929.179	714.570
177.096	17.447	928.438	712.610
178.110	17.441	927.458	711.770
179.125	17.436	927.226	711.509
180.140	17.777	925.683	711.682
181.154	17.708	925.177	710.943
182.169	17.642	925.187	710.613
183.183	17.818	924.213	710.535
184.198	17.928	923.483	710.369
185.213	17.960	923.106	710.152
186.227	18.033	922.201	709.694
187.242	17.947	922.177	709.254
188.256	17.964	921.533	708.770
189.271	18.288	920.562	709.301
190.286	18.184	919.864	708.271
191.300	17.963	918.963	706.601
192.315	17.757	917.396	704.482
193.329	17.506	916.916	703.015
194.344	17.492	916.592	702.644
195.359	17.607	916.155	702.722
196.373	17.677	915.669	702.577
197.388	17.929	914.727	702.830
198.402	18.127	914.640	703.515
199.417	18.015	914.732	703.060
200.432	18.243	914.202	703.531
201.446	18.245	913.606	703.016
202.461	18.577	913.058	703.895
203.475	18.472	912.665	703.100
204.490	18.518	911.903	702.640
205.504	18.172	911.266	700.669
206.519	18.050	910.384	699.428
207.534	18.082	909.190	698.582
208.548	18.129	908.528	698.204
209.563	18.125	907.888	697.633
210.577	18.152	907.233	697.177
211.592	18.185	906.463	696.660
212.607	18.357	906.254	697.139
213.621	18.390	905.789	696.851
214.636	18.381	905.013	696.156
215.650	18.240	904.698	695.281
216.665	18.163	903.969	694.346
217.680	18.379	903.353	694.686
218.694	18.520	902.899	694.850
219.709	18.558	902.290	694.471
220.723	18.594	901.607	694.032
221.738	18.441	900.944	692.841
222.753	18.404	899.747	691.708
223.767	18.355	899.452	691.224
224.782	18.519	898.653	691.210
225.796	18.556	898.072	690.851
226.811	18.729	897.428	690.988
227.826	18.598	896.762	689.888
228.840	18.423	895.952	688.501
229.855	18.566	894.981	688.267
230.869	18.413	894.664	687.349
231.884	18.326	893.637	686.152
232.899	18.305	893.280	685.734
233.913	18.201	892.684	684.800
234.928	18.161	892.066	684.106
235.942	18.297	891.095	683.842
236.957	18.264	890.309	683.047
237.972	18.143	889.779	682.097
238.986	18.349	888.911	682.191
240.001	18.401	888.288	681.859
241.015	18.296	887.754	680.973
242.030	18.219	887.490	680.403
243.045	18.360	886.941	680.484
244.059	18.446	886.010	680.050
245.074	18.489	885.468	679.744
246.088	18.483	884.884	679.210
247.103	18.469	884.657	678.923
248.117	18.632	883.748	678.809
249.132	18.740	883.665	679.112
250.147	19.073	883.168	679.985
251.161	19.210	882.315	679.810
252.176	19.150	882.245	679.458
253.190	19.300	881.350	679.303
254.205	19.302	880.674	678.726
255.220	19.431	880.168	678.785
256.234	19.266	879.561	677.609
257.249	19.425	878.466	677.328
258.263	19.327	877.786	676.360
259.278	19.222	877.654	675.788
260.293	19.290	877.323	675.741
261.307	19.296	876.705	675.228
262.322	19.384	876.081	675.030
263.336	19.273	875.698	674.240
264.351	19.419	874.885	674.127
265.366	19.419	874.301	673.619
266.380	19.555	873.053	673.127
267.395	19.564	872.718	672.842
268.409	19.375	872.312	671.735
269.424	19.305	871.313	670.633
270.439	19.317	870.754	670.190
271.453	19.293	869.738	669.258
272.468	19.206	868.708	668.069
273.482	19.136	868.326	667.444
274.497	19.206	867.909	667.335
275.512	19.205	867.051	666.613
276.526	19.171	866.774	666.210
277.541	19.320	865.645	665.858
278.555	19.188	865.340	665.053
279.570	19.420	865.158	665.751
280.585	19.522	864.652	665.697
281.599	19.588	863.944	665.345
282.614	19.557	863.187	664.587
283.628	19.218	862.922	663.018
284.643	19.231	862.189	662.446
285.657	19.222	861.838	662.084
286.672	19.311	861.070	661.778
287.687	19.508	860.544	662.071
288.701	19.259	860.120	660.728
289.716	19.355	859.568	660.615
290.730	19.412	858.832	660.208
291.745	19.455	858.150	659.791
292.760	19.433	857.290	658.989
293.774	19.552	857.086	659.226
294.789	19.527	856.633	658.724
295.803	19.876	856.184	659.650
296.818	19.456	855.435	657.418
297.833	19.522	854.316	656.750
298.847	19.479	853.679	656.036
299.862	19.513	853.206	655.745
300.876	19.551	852.559	655.335
301.891	19.569	851.682	654.671
302.906	19.683	851.526	654.924
303.920	19.825	850.667	654.743
304.935	19.823	850.445	654.507
305.949	20.062	849.900	654.934
306.964	19.949	848.932	653.704
307.979	19.990	847.804	652.931
308.993	19.643	848.085	651.781
310.008	19.823	847.412	651.885
311.022	19.947	846.656	651.713
312.037	19.895	846.477	651.322
313.052	19.845	845.736	650.505
314.066	19.798	844.845	649.584
315.081	19.620	844.301	648.443
316.095	19.516	843.973	647.742
317.110	19.625	843.277	647.557
318.125	19.816	842.496	647.617
319.139	19.494	842.449	646.320
320.154	19.667	841.621	646.272
321.168	19.639	841.144	645.746
322.183	19.739	840.298	645.411
323.197	19.585	840.480	644.920
324.212	19.574	839.715	644.235
325.227	19.773	838.942	644.326
326.241	19.828	838.520	644.149
327.256	19.667	837.872	642.997
328.270	19.720	837.462	642.819
329.285	19.680	836.859	642.153
330.300	19.652	836.117	641.424
331.314	19.508	835.811	640.599
332.329	19.679	835.249	640.744
333.343	19.764	834.553	640.466
334.358	20.005	834.003	640.882
335.373	20.156	833.244	640.798
336.387	19.969	832.977	639.845
337.402	19.976	832.525	639.469
338.416	19.952	832.042	638.951
339.431	20.191	831.242	639.162
340.446	20.267	831.211	639.362
341.460	20.508	830.505	639.651
342.475	20.343	830.166	638.726
343.489	20.549	829.534	638.938
344.504	20.495	829.061	638.321
345.519	20.514	828.368	637.801
346.533	20.703	827.396	637.689
347.548	20.509	827.472	636.979
348.562	20.487	826.559	636.138
349.577	20.267	825.825	634.713
350.592	20.175	825.152	633.804
351.606	20.244	824.810	633.736
352.621	20.051	824.739	632.922
353.635	20.091	824.138	632.551
354.650	20.129	823.859	632.420
355.665	20.224	823.315	632.291
356.679	20.236	822.804	631.888
357.694	20.351	822.169	631.761
358.708	20.473	821.504	631.638
359.723	20.422	820.985	630.997
360.738	20.352	820.712	630.478
361.752	20.343	820.088	629.912
362.767	20.335	819.776	629.584
363.781	20.375	819.349	629.347
364.796	20.613	819.189	630.031
365.810	20.618	818.780	629.680
366.825	20.967	818.577	630.731
367.840	20.863	818.219	630.023
368.854	20.855	817.595	629.456
369.869	20.726	816.927	628.420
370.883	20.850	816.183	628.240
371.898	20.548	815.744	626.758
372.913	20.853	815.193	627.380
373.927	20.883	814.719	627.065
374.942	20.800	814.303	626.390
375.956	20.805	813.252	625.546
376.971	20.926	812.538	625.376
377.986	20.934	812.463	625.291
379.000	21.067	812.142	625.466
380.015	21.021	811.661	624.876
381.029	21.059	810.947	624.406
382.044	21.023	809.868	623.391
383.059	21.034	809.833	623.350
384.073	21.057	808.972	622.712
385.088	21.096	808.099	622.126
386.102	20.807	807.903	620.890
387.117	20.665	807.379	619.925
388.132	20.724	806.911	619.719
389.146	20.864	806.314	619.707
390.161	20.652	806.353	618.925
391.175	20.712	806.137	618.920
392.190	20.979	805.680	619.461
393.205	21.053	804.874	619.052
394.219	20.767	804.478	617.677
395.234	20.776	804.149	617.403
396.248	20.704	803.749	616.785
397.263	20.627	802.821	615.745
398.278	20.644	802.062	615.168
399.292	20.624	801.533	614.639
400.307	20.612	801.410	614.445
401.321	20.595	801.035	614.046
402.336	20.523	800.987	613.700
403.350	20.678	800.341	613.695
404.365	20.877	799.749	613.889
405.380	20.884	799.454	613.634
406.394	21.011	799.416	613.997
407.409	21.324	798.567	614.393
408.423	21.233	798.331	613.837
409.438	21.187	797.897	613.285
410.453	21.398	797.250	613.476
411.467	21.472	797.172	613.621
412.482	21.448	796.674	613.099
413.496	21.412	796.411	612.715
414.511	21.462	795.913	612.455
415.526	21.600	795.381	612.474
416.540	21.576	794.638	611.763
417.555	21.501	794.519	611.355
418.569	21.389	794.042	610.541
419.584	21.495	793.731	610.621
420.599	21.388	793.549	610.053
421.613	156.565	1367.361	1785.677
422.628	135.604	1450.980	1785.769
