DTS Sentinel unit serial number:	SN413079Multiplexer serial number:	ORYXHardware model number:	OX4-SRSoftware version number:	ORYX F/W v4.00 Oryx Data Collector v3.7.2.0data status	okinstallation	princeton_trtdifferential loss correction	single-endedforward channel	channel 3reverse channel	N/Adate	2019/09/15time	23:32:35forward acquisition time	60.00reverse acquisition time	0.00gamma	496.2192k internal	0.2335k external	0.2335temperature offset calibration	0.9947default loss term (dB/km)	0.3790temperature slope calibration	1.0000multiplexer offset coefficient	1.0000multiplexer slope coefficient	1.0000fibre end	0.00T internal ref (°C)	28.16T ext. ref 1 (°C)	9.19T ext. ref 2 (°C)	22.03length (m)	temperature (°C)	Stokes	anti-Stokes-747.200	119.704	-0.205	-0.256
-746.185	509.729	-0.067	0.156
-745.171	-76.104	-0.200	0.071
-744.156	-200.000	-0.008	0.534
-743.142	110.751	-0.099	0.120
-742.127	-156.289	-0.266	-0.017
-741.112	-67.396	-0.251	-0.099
-740.098	178.312	-0.075	-0.110
-739.083	-50.996	-0.213	0.100
-738.069	77.454	-0.233	-0.249
-737.054	-74.438	-0.184	-0.066
-736.039	-68.936	-0.210	-0.082
-735.025	-65.414	0.371	0.150
-734.010	-147.715	0.182	-0.015
-732.996	-108.325	-0.450	-0.098
-731.981	-176.533	0.293	0.008
-730.966	90.908	-0.138	0.156
-729.952	-102.527	-0.448	0.108
-728.937	-149.230	-0.214	-0.017
-727.923	102.937	0.063	0.074
-726.908	-88.479	-0.332	-0.099
-725.894	800.000	0.043	-0.177
-724.879	800.000	-0.017	-0.069
-723.864	-200.000	0.026	-0.163
-722.850	-200.000	-0.052	-0.309
-721.835	-200.000	-0.014	-0.123
-720.821	-156.986	-0.355	-0.022
-719.806	-18.200	0.164	0.103
-718.791	800.000	0.177	-0.575
-717.777	278.992	-0.078	0.139
-716.762	289.778	0.116	0.211
-715.748	800.000	0.106	-0.341
-714.733	276.532	-0.125	0.223
-713.718	-200.000	0.035	-0.199
-712.704	-58.698	0.145	-0.063
-711.689	-87.552	-0.026	-0.008
-710.675	120.522	-0.056	-0.070
-709.660	196.808	0.262	-0.400
-708.645	-200.000	0.019	-0.143
-707.631	-82.886	-0.083	0.027
-706.616	546.539	-0.064	-0.154
-705.602	609.582	-0.057	0.144
-704.587	-123.231	-0.367	-0.059
-703.572	-10.511	-0.085	0.057
-702.558	-60.680	-0.234	0.100
-701.543	-36.124	-0.293	-0.158
-700.529	56.745	0.206	0.201
-699.514	-200.000	0.026	0.238
-698.499	800.000	0.022	0.085
-697.485	-91.522	0.083	-0.024
-696.470	-53.311	-0.235	-0.108
-695.456	55.259	0.083	-0.080
-694.441	39.965	-0.354	-0.319
-693.426	10.620	-0.033	-0.026
-692.412	-200.000	-0.000	-0.061
-691.397	577.257	-0.131	0.322
-690.383	-200.000	-0.016	0.081
-689.368	43.554	0.285	-0.262
-688.354	800.000	0.056	0.163
-687.339	395.450	0.074	-0.154
-686.324	43.083	-0.048	0.044
-685.310	-200.000	-0.042	-0.229
-684.295	-200.000	-0.096	-0.465
-683.281	-20.959	0.037	0.022
-682.266	-200.000	-0.010	-0.094
-681.251	-51.476	-0.133	-0.062
-680.237	800.000	-0.062	-0.252
-679.222	-56.617	0.323	-0.143
-678.208	-103.332	0.168	0.040
-677.193	719.624	-0.219	-0.583
-676.178	-122.267	-0.227	0.037
-675.164	-185.134	0.114	0.002
-674.149	-200.000	0.004	-0.050
-673.135	800.000	0.134	0.419
-672.120	-110.511	0.466	0.097
-671.105	-60.986	-0.273	0.116
-670.091	536.922	-0.161	-0.383
-669.076	-200.000	-0.004	0.165
-668.062	393.107	0.150	0.312
-667.047	-200.000	-0.058	-0.297
-666.032	-173.761	-0.101	0.003
-665.018	-75.704	0.255	0.091
-664.003	-200.000	0.002	0.102
-662.989	-200.000	-0.019	-0.264
-661.974	-200.000	0.023	-0.185
-660.959	9.081	0.156	0.118
-659.945	-64.484	0.422	-0.172
-658.930	-200.000	0.010	-0.309
-657.916	208.994	-0.190	0.297
-656.901	-200.000	-0.042	0.187
-655.886	-78.222	-0.432	-0.149
-654.872	-116.648	0.241	0.044
-653.857	96.797	0.229	0.262
-652.843	800.000	0.035	0.110
-651.828	-200.000	-0.012	-0.311
-650.814	-111.803	-0.096	0.019
-649.799	-139.677	-0.227	-0.024
-648.784	154.014	0.161	0.221
-647.770	23.396	-0.119	-0.098
-646.755	800.000	-0.075	0.272
-645.741	-136.551	0.164	-0.019
-644.726	56.815	0.216	-0.211
-643.711	-82.580	0.223	0.072
-642.697	-200.000	-0.019	-0.153
-641.682	22.660	0.276	0.226
-640.668	-30.249	0.329	-0.187
-639.653	716.803	0.091	0.241
-638.638	-78.498	0.075	0.026
-637.624	800.000	0.054	-0.151
-636.609	800.000	-0.057	-0.170
-635.595	-200.000	-0.050	-0.327
-634.580	-181.361	-0.264	0.005
-633.565	-200.000	-0.004	0.296
-632.551	-107.497	0.200	0.044
-631.536	34.865	0.209	-0.183
-630.522	-38.235	-0.175	-0.093
-629.507	253.872	-0.118	0.202
-628.492	402.897	0.134	0.281
-627.478	-200.000	-0.013	-0.197
-626.463	425.266	-0.184	-0.397
-625.449	-15.734	0.327	0.208
-624.434	-151.806	-0.223	0.016
-623.419	-21.986	0.200	0.122
-622.405	-101.334	0.337	0.082
-621.390	-123.593	-0.251	0.040
-620.376	167.095	-0.168	-0.238
-619.361	-200.000	0.045	0.306
-618.346	-200.000	0.043	-0.230
-617.332	-200.000	-0.040	-0.260
-616.317	-33.343	-0.214	-0.118
-615.303	133.068	-0.183	-0.236
-614.288	261.076	0.026	-0.045
-613.273	182.743	-0.120	0.177
-612.259	782.955	0.053	0.144
-611.244	-142.245	-0.236	0.023
-610.230	800.000	0.014	-0.042
-609.215	39.570	0.048	0.043
-608.201	-131.178	0.246	0.033
-607.186	-200.000	-0.029	0.207
-606.171	-101.000	0.184	0.045
-605.157	138.563	-0.160	-0.210
-604.142	-126.681	0.059	0.009
-603.128	-163.781	0.304	-0.014
-602.113	61.026	-0.123	0.122
-601.098	94.072	-0.117	-0.132
-600.084	-200.000	-0.020	-0.118
-599.069	40.403	0.162	0.145
-598.055	150.531	0.051	-0.069
-597.040	-200.000	-0.007	0.088
-596.025	-96.945	0.138	0.036
-595.011	-58.416	-0.180	-0.078
-593.996	-200.000	0.007	-0.166
-592.982	754.190	0.122	-0.331
-591.967	142.621	-0.102	-0.135
-590.952	505.061	-0.122	0.282
-589.938	-200.000	-0.053	-0.301
-588.923	117.061	0.193	-0.236
-587.909	163.048	0.140	-0.197
-586.894	-136.227	-0.348	-0.041
-585.879	184.502	-0.129	-0.191
-584.865	84.671	-0.163	0.178
-583.850	800.000	0.053	-0.213
-582.836	-101.669	-0.124	-0.030
-581.821	-116.447	0.097	0.018
-580.806	-120.723	-0.127	0.021
-579.792	-21.280	-0.175	-0.107
-578.777	-63.801	-0.019	-0.008
-577.763	786.664	0.141	0.385
-576.748	21.286	0.123	-0.100
-575.733	-122.965	0.263	-0.042
-574.719	-127.558	0.188	-0.027
-573.704	800.000	-0.054	0.213
-572.690	-39.429	-0.136	-0.071
-571.675	-200.000	-0.066	-0.347
-570.661	109.193	0.067	-0.080
-569.646	-9.933	-0.277	0.184
-568.631	-200.000	-0.095	-0.577
-567.617	-10.320	0.170	0.113
-566.602	-14.225	0.268	-0.172
-565.588	451.830	0.026	0.058
-564.573	800.000	-0.026	-0.081
-563.558	-118.543	0.129	-0.023
-562.544	800.000	-0.054	0.177
-561.529	-102.527	-0.319	-0.076
-560.515	85.320	0.045	-0.050
-559.500	-200.000	0.035	-0.236
-558.485	-159.545	0.199	0.011
-557.471	-16.328	-0.191	0.121
-556.456	-123.561	-0.437	0.069
-555.442	-200.000	0.031	0.262
-554.427	800.000	0.017	-0.062
-553.412	-66.050	0.414	0.165
-552.398	621.343	0.036	-0.089
-551.383	139.843	0.015	0.020
-550.369	800.000	0.173	-0.569
-549.354	800.000	0.160	-0.524
-548.339	746.860	0.078	0.210
-547.325	-200.000	0.016	0.190
-546.310	-67.676	-0.314	0.123
-545.296	-148.380	0.151	-0.012
-544.281	662.105	0.050	0.130
-543.266	129.556	0.097	-0.124
-542.252	-185.773	-0.217	-0.003
-541.237	-130.178	-0.279	0.038
-540.223	-45.788	-0.152	-0.075
-539.208	95.670	-0.131	0.149
-538.193	469.441	0.104	-0.233
-537.179	-200.000	-0.027	-0.155
-536.164	279.788	0.111	-0.198
-535.150	-200.000	0.025	-0.186
-534.135	431.882	-0.181	0.392
-533.121	164.851	-0.131	0.185
-532.106	-200.000	0.041	-0.283
-531.091	800.000	-0.047	-0.158
-530.077	588.946	0.115	0.282
-529.062	-200.000	0.014	-0.262
-528.048	-104.305	-0.487	0.112
-527.033	-56.670	-0.048	0.021
-526.018	-78.979	-0.246	0.083
-525.004	-200.000	0.013	-0.150
-523.989	185.805	-0.074	-0.110
-522.975	-84.948	0.225	-0.070
-521.960	126.551	-0.127	0.160
-520.945	-159.072	-0.480	-0.027
-519.931	140.359	0.201	0.264
-518.916	457.610	-0.116	0.257
-517.902	800.000	0.102	0.407
-516.887	10.530	-0.281	-0.213
-515.872	-1.726	0.257	-0.180
-514.858	791.461	-0.041	-0.111
-513.843	-94.648	0.378	-0.102
-512.829	-200.000	0.030	-0.159
-511.814	112.236	0.048	0.058
-510.799	800.000	-0.048	-0.203
-509.785	-30.732	0.170	0.096
-508.770	-47.520	0.299	-0.145
-507.756	391.898	-0.111	0.230
-506.741	399.618	-0.184	0.383
-505.726	-200.000	0.012	-0.271
-504.712	58.814	0.088	-0.086
-503.697	672.027	0.038	-0.099
-502.683	32.002	-0.216	-0.185
-501.668	-62.510	-0.273	-0.113
-500.653	93.147	-0.165	0.186
-499.639	-48.506	-0.107	0.051
-498.624	405.543	-0.146	-0.307
-497.610	800.000	0.035	-0.105
-496.595	800.000	-0.071	0.222
-495.581	215.930	0.137	-0.216
-494.566	-200.000	0.035	0.183
-493.551	-200.000	0.001	-0.239
-492.537	434.872	-0.085	0.184
-491.522	28.048	-0.250	0.210
-490.508	36.505	0.217	-0.191
-489.493	-123.329	-0.094	0.015
-488.478	800.000	-0.111	-0.400
-487.464	539.967	-0.063	0.148
-486.449	-160.180	-0.190	-0.010
-485.435	-200.000	-0.054	0.432
-484.420	9.286	-0.153	0.115
-483.405	800.000	-0.040	0.138
-482.391	748.786	-0.027	-0.074
-481.376	-200.000	-0.014	0.091
-480.362	502.501	0.092	0.211
-479.347	-43.908	-0.282	0.141
-478.332	-10.116	-0.489	0.323
-477.318	-57.221	-0.100	0.044
-476.303	-148.645	0.139	0.011
-475.289	-88.780	0.213	0.063
-474.274	-88.465	-0.261	0.078
-473.259	-200.000	-0.006	-0.109
-472.245	410.921	0.037	0.078
-471.230	-8.313	0.037	-0.025
-470.216	133.038	0.069	-0.088
-469.201	-121.883	0.116	0.019
-468.186	170.773	0.181	-0.258
-467.172	-45.327	0.297	-0.146
-466.157	-21.751	-0.188	0.114
-465.143	-24.555	0.080	-0.047
-464.128	189.690	-0.053	-0.079
-463.113	102.280	-0.180	-0.208
-462.099	211.802	-0.169	0.264
-461.084	-200.000	-0.014	0.095
-460.070	39.575	-0.087	-0.077
-459.055	677.898	0.079	-0.205
-458.040	-81.306	-0.122	-0.040
-457.026	-97.666	0.354	0.091
-456.011	362.652	-0.052	0.103
-454.997	76.094	-0.266	-0.280
-453.982	-145.675	0.510	0.045
-452.968	54.182	-0.370	-0.353
-451.953	-185.219	0.241	-0.004
-450.938	-182.703	-0.257	0.005
-449.924	229.051	0.118	-0.191
-448.909	225.590	0.168	-0.270
-447.895	-48.648	-0.088	0.042
-446.880	-122.073	0.229	-0.037
-445.865	145.179	0.146	0.195
-444.851	23.323	0.103	-0.084
-443.836	-37.612	0.418	-0.221
-442.822	-23.849	0.295	-0.175
-441.807	-200.000	0.014	0.219
-440.792	-94.696	0.151	0.041
-439.778	153.889	0.038	0.052
-438.763	-136.733	-0.314	0.036
-437.749	-200.000	0.026	0.179
-436.734	800.000	-0.032	0.098
-435.719	44.931	0.248	0.227
-434.705	-200.000	-0.030	-0.178
-433.690	-51.829	0.260	0.120
-432.676	-92.661	-0.154	0.043
-431.661	-200.000	0.076	0.403
-430.646	800.000	-0.022	-0.077
-429.632	-75.495	-0.077	-0.027
-428.617	-200.000	-0.045	-0.467
-427.603	168.517	-0.088	-0.124
-426.588	189.903	-0.091	-0.136
-425.573	-37.489	-0.283	-0.150
-424.559	-24.716	0.288	0.170
-423.544	51.896	0.126	-0.119
-422.530	-200.000	0.006	0.028
-421.515	-0.109	-0.041	0.029
-420.500	320.339	0.031	0.059
-419.486	-48.759	0.165	0.078
-418.471	39.564	-0.164	-0.146
-417.457	-25.142	0.303	0.178
-416.442	564.965	0.100	-0.241
-415.428	307.439	-0.183	-0.337
-414.413	102.167	0.176	-0.204
-413.398	-200.000	-0.014	0.269
-412.384	70.936	0.059	-0.061
-411.369	91.998	-0.254	0.284
-410.355	800.000	0.065	0.277
-409.340	-200.000	-0.046	0.277
-408.325	-40.874	-0.219	0.112
-407.311	10.259	0.009	0.007
-406.296	484.632	-0.131	-0.296
-405.282	-39.065	-0.377	-0.196
-404.267	82.116	0.394	-0.423
-403.252	-53.572	-0.237	0.107
-402.238	128.341	0.250	0.315
-401.223	-200.000	-0.019	-0.204
-400.209	-200.000	-0.003	0.128
-399.194	-200.000	-0.049	0.376
-398.179	146.997	0.288	-0.384
-397.165	-66.771	-0.050	-0.019
-396.150	800.000	0.098	0.405
-395.136	35.107	0.014	-0.012
-394.121	-52.647	0.126	-0.058
-393.106	508.088	-0.172	-0.395
-392.092	70.984	-0.032	-0.032
-391.077	-136.631	0.119	-0.014
-390.063	-200.000	-0.029	0.141
-389.048	-200.000	0.325	0.000
-388.033	-23.891	-0.136	-0.081
-387.019	13.049	0.052	0.040
-386.004	-81.290	0.323	-0.106
-384.990	-117.197	0.090	-0.016
-383.975	76.784	-0.079	0.083
-382.960	609.381	0.025	-0.062
-381.946	-137.711	-0.110	0.012
-380.931	-200.000	0.004	0.157
-379.917	800.000	0.111	0.349
-378.902	29.997	0.164	0.139
-377.888	-200.000	-0.012	-0.152
-376.873	-153.163	0.338	0.023
-375.858	800.000	0.031	0.107
-374.844	-200.000	-0.044	-0.349
-373.829	-180.405	0.153	0.003
-372.815	-23.517	-0.089	0.053
-371.800	98.814	-0.287	0.328
-370.785	-37.008	0.139	-0.074
-369.771	-78.553	0.136	0.046
-368.756	709.657	-0.035	0.091
-367.742	123.649	0.160	0.198
-366.727	1.210	0.181	-0.128
-365.712	63.030	-0.049	0.048
-364.698	-138.134	-0.151	-0.017
-363.683	-76.363	0.062	0.022
-362.669	-131.579	-0.091	-0.012
-361.654	-200.000	-0.035	-0.233
-360.639	63.033	-0.066	-0.065
-359.625	-200.000	0.011	-0.187
-358.610	305.918	-0.143	-0.264
-357.596	800.000	-0.086	0.255
-356.581	363.073	0.095	0.189
-355.566	130.197	-0.005	0.006
-354.552	-8.941	-0.214	-0.142
-353.537	157.491	0.114	0.156
-352.523	800.000	0.054	0.179
-351.508	-30.901	-0.154	0.086
-350.493	800.000	-0.039	0.150
-349.479	-101.295	0.257	-0.062
-348.464	-200.000	0.038	-0.213
-347.450	-68.266	-0.320	-0.123
-346.435	-160.202	-0.227	0.012
-345.420	-200.000	0.031	0.298
-344.406	-38.692	-0.098	-0.051
-343.391	800.000	-0.051	-0.195
-342.377	431.061	-0.079	0.168
-341.362	-200.000	0.025	-0.296
-340.348	-105.864	0.297	-0.066
-339.333	128.640	-0.191	-0.240
-338.318	-200.000	-0.011	0.076
-337.304	709.165	-0.028	-0.073
-336.289	-11.406	0.284	-0.185
-335.275	4.392	-0.089	-0.064
-334.260	-200.000	-0.013	-0.068
-333.245	25.049	-0.061	0.050
-332.231	-100.189	-0.089	-0.022
-331.216	800.000	-0.044	-0.181
-330.202	117.578	0.159	0.193
-329.187	489.343	-0.130	0.293
-328.172	-157.643	-0.098	-0.006
-327.158	-126.821	0.300	0.044
-326.143	-22.647	0.079	-0.047
-325.129	-33.212	0.111	-0.061
-324.114	243.305	0.318	0.527
-323.099	2.757	0.119	-0.085
-322.085	-151.461	-0.170	0.012
-321.070	174.483	-0.154	0.221
-320.056	160.318	0.117	-0.162
-319.041	-34.521	0.068	-0.037
-318.026	-2.133	0.095	0.066
-317.012	492.664	0.037	-0.083
-315.997	476.495	-0.063	-0.141
-314.983	33.095	0.245	0.209
-313.968	99.381	0.045	0.051
-312.953	246.519	-0.100	0.166
-311.939	27.599	0.128	0.107
-310.924	-65.248	-0.220	0.088
-309.910	800.000	0.040	-0.160
-308.895	-145.870	0.175	0.015
-307.880	-27.099	0.213	0.123
-306.866	319.196	-0.115	-0.214
-305.851	-45.902	-0.253	-0.123
-304.837	-117.622	-0.342	0.061
-303.822	-40.394	-0.344	0.177
-302.807	-144.305	0.268	0.025
-301.793	-124.236	0.211	0.033
-300.778	-99.974	-0.331	-0.082
-299.764	-200.000	-0.029	0.232
-298.749	98.380	0.095	0.108
-297.735	-84.677	-0.254	0.079
-296.720	117.446	-0.093	0.113
-295.705	158.491	-0.150	0.205
-294.691	7.175	-0.117	-0.086
-293.676	2.093	0.163	0.116
-292.662	800.000	0.064	0.244
-291.647	176.120	0.191	0.273
-290.632	800.000	-0.039	0.125
-289.618	229.980	-0.179	-0.289
-288.603	-33.310	-0.216	0.118
-287.589	-200.000	-0.012	-0.322
-286.574	396.369	0.108	-0.223
-285.559	-63.333	-0.125	0.051
-284.545	92.682	0.101	0.113
-283.530	-92.718	0.158	0.044
-282.516	20.823	0.057	0.045
-281.501	-200.000	-0.031	0.300
-280.486	112.351	0.107	-0.127
-279.472	-71.066	-0.316	0.117
-278.457	-200.000	-0.012	-0.241
-277.443	-118.105	0.255	-0.045
-276.428	-200.000	-0.053	-0.303
-275.413	-200.000	0.022	-0.105
-274.399	-93.776	-0.254	0.069
-273.384	800.000	0.049	-0.191
-272.370	-184.530	-0.086	0.001
-271.355	-22.245	-0.350	0.209
-270.340	469.219	-0.067	0.149
-269.326	-145.926	0.042	0.004
-268.311	26.521	-0.214	-0.177
-267.297	-200.000	0.041	0.273
-266.282	305.310	0.067	0.122
-265.267	-200.000	-0.002	-0.178
-264.253	-200.000	-0.031	0.262
-263.238	515.741	-0.112	0.259
-262.224	32.488	0.222	-0.189
-261.209	-95.204	-0.239	-0.064
-260.195	-70.416	0.033	-0.012
-259.180	86.523	0.161	-0.174
-258.165	215.335	-0.196	-0.306
-257.151	-25.757	0.237	-0.138
-256.136	-29.870	-0.281	0.158
-255.122	-98.239	-0.194	-0.049
-254.107	-57.882	-0.308	0.133
-253.092	-143.857	0.123	0.011
-252.078	45.281	0.287	-0.261
-251.063	147.601	-0.086	0.114
-250.049	9.286	0.323	0.240
-249.034	315.275	-0.120	0.223
-248.019	-3.270	0.244	0.167
-247.005	-200.000	0.015	-0.364
-245.990	-132.039	0.121	0.015
-244.976	-75.994	0.184	0.064
-243.961	-84.842	0.253	-0.078
-242.946	-168.596	-0.329	0.012
-241.932	-88.054	0.155	0.046
-240.917	-65.848	0.158	0.062
-239.903	-72.649	0.362	0.131
-238.888	38.523	-0.017	-0.015
-237.873	-137.187	0.351	0.039
-236.859	-91.271	0.536	-0.151
-235.844	4.748	-0.127	-0.092
-234.830	96.590	0.127	-0.143
-233.815	800.000	-0.012	-0.034
-232.800	-105.321	0.473	-0.106
-231.786	-67.430	0.281	-0.109
-230.771	619.323	-0.060	-0.150
-229.757	-75.035	-0.429	0.151
-228.742	-59.614	-0.339	0.143
-227.727	800.000	-0.153	-0.447
-226.713	800.000	0.135	-0.398
-225.698	384.271	0.142	0.288
-224.684	201.688	0.066	-0.100
-223.669	800.000	-0.055	0.204
-222.655	386.004	-0.137	-0.278
-221.640	-165.149	-0.246	0.011
-220.625	9.149	0.139	-0.103
-219.611	287.065	-0.111	0.198
-218.596	-66.132	-0.023	-0.009
-217.582	-200.000	-0.009	0.239
-216.567	-72.215	-0.218	0.080
-215.552	320.420	0.086	0.160
-214.538	36.477	-0.204	0.177
-213.523	85.420	-0.099	-0.107
-212.509	22.279	-0.190	0.153
-211.494	-200.000	0.024	0.217
-210.479	234.098	0.043	-0.070
-209.465	-152.337	-0.255	-0.018
-208.450	-141.174	-0.078	-0.008
-207.436	-200.000	-0.006	0.174
-206.421	56.816	-0.042	-0.041
-205.406	-33.032	0.318	-0.173
-204.392	163.124	0.067	0.093
-203.377	800.000	-0.079	0.298
-202.363	97.599	-0.025	0.028
-201.348	-13.134	-0.130	0.083
-200.333	145.554	-0.031	0.041
-199.319	800.000	0.044	-0.173
-198.304	800.000	-0.029	0.125
-197.290	-200.000	-0.013	0.234
-196.275	48.107	-0.105	0.097
-195.260	800.000	0.026	-0.088
-194.246	394.242	0.077	0.158
-193.231	45.595	-0.281	0.255
-192.217	-95.376	-0.331	-0.087
-191.202	-41.764	-0.304	-0.153
-190.187	-200.000	-0.015	0.169
-189.173	5.294	0.421	-0.305
-188.158	-150.707	-0.367	0.027
-187.144	551.331	-0.150	-0.354
-186.129	800.000	-0.078	0.225
-185.114	-200.000	0.025	0.288
-184.100	14.281	-0.105	0.081
-183.085	21.776	-0.036	0.029
-182.071	-120.975	0.476	0.079
-181.056	-94.672	0.205	0.055
-180.042	150.086	-0.191	-0.254
-179.027	150.353	0.236	0.315
-178.012	175.108	0.155	-0.221
-176.998	-111.334	-0.278	0.056
-175.983	-43.954	0.246	0.122
-174.969	-103.522	0.165	-0.038
-173.954	-20.031	0.176	-0.106
-172.939	-74.702	0.149	0.053
-171.925	475.782	-0.036	-0.080
-170.910	-117.707	-0.543	0.096
-169.896	-200.000	-0.019	0.333
-168.881	-200.000	0.045	-0.323
-167.866	-200.000	-0.023	0.150
-166.852	136.003	0.082	0.105
-165.837	-94.771	-0.322	-0.086
-164.823	137.839	-0.039	0.050
-163.808	-143.680	0.054	0.005
-162.793	-200.000	0.030	-0.159
-161.779	378.847	0.149	-0.299
-160.764	-20.164	0.188	0.113
-159.750	49.394	0.140	0.129
-158.735	-150.838	0.219	-0.016
-157.720	-127.120	0.407	-0.059
-156.706	192.783	0.062	0.091
-155.691	280.019	-0.092	0.161
-154.677	127.768	-0.150	0.187
-153.662	800.000	-0.079	0.284
-152.647	-13.410	-0.198	-0.126
-151.633	-200.000	0.007	0.145
-150.618	-109.183	0.118	-0.025
-149.604	304.420	-0.081	0.147
-148.589	243.805	0.239	-0.393
-147.574	-92.347	0.180	0.050
-146.560	-143.179	0.202	-0.019
-145.545	-69.070	-0.119	0.045
-144.531	126.949	-0.158	0.196
-143.516	-44.556	0.165	0.081
-142.502	395.852	0.157	0.322
-141.487	-17.946	0.311	-0.191
-140.472	291.389	0.094	0.168
-139.458	-139.731	-0.132	-0.014
-138.443	800.000	-0.033	-0.103
-137.429	-48.992	0.322	-0.151
-136.414	-66.054	-0.151	-0.059
-135.399	-200.000	0.022	0.175
-134.385	-172.368	0.357	0.011
-133.370	210.294	0.067	-0.103
-132.356	642.196	0.073	-0.181
-131.341	17.496	-0.322	-0.251
-130.326	255.664	-0.162	0.272
-129.312	96.762	0.242	-0.271
-128.297	244.288	-0.199	-0.327
-127.283	58.455	0.145	0.140
-126.268	2.172	0.252	-0.179
-125.253	-200.000	-0.005	0.183
-124.239	433.336	-0.147	0.313
-123.224	-200.000	0.019	-0.101
-122.210	-79.553	0.250	-0.083
-121.195	32.086	0.184	0.156
-120.180	-87.893	-0.428	-0.126
-119.166	79.871	0.268	-0.282
-118.151	-200.000	0.034	-0.262
-117.137	11.834	-0.277	-0.208
-116.122	38.430	-0.255	-0.223
-115.107	-200.000	-0.018	-0.122
-114.093	-200.000	-0.035	-0.189
-113.078	-41.211	-0.174	-0.088
-112.064	309.318	0.068	-0.125
-111.049	21.741	0.268	-0.214
-110.034	704.935	-0.141	-0.364
-109.020	44.354	-0.398	0.358
-108.005	-83.434	0.553	-0.174
-106.991	-119.445	0.065	-0.011
-105.976	52.619	0.319	0.299
-104.962	67.843	-0.083	-0.084
-103.947	-200.000	0.039	-0.199
-102.932	-79.019	0.248	0.083
-101.918	135.696	0.129	0.164
-100.903	62.147	0.110	-0.108
-99.889	-110.817	-0.168	-0.034
-98.874	-117.438	0.226	-0.040
-97.859	-46.600	0.114	0.055
-96.845	69.011	0.254	0.256
-95.830	800.000	0.070	0.199
-94.816	-97.130	-0.290	-0.074
-93.801	143.235	-0.343	0.447
-92.786	87.752	0.016	0.017
-91.772	-113.238	0.529	-0.102
-90.757	-171.465	0.369	0.012
-89.743	-43.579	0.093	0.046
-88.728	9.227	0.361	0.267
-87.713	-9.886	-0.262	0.171
-86.699	41.420	-0.055	0.048
-85.684	288.790	0.136	0.242
-84.670	192.637	0.273	0.403
-83.655	800.000	0.122	0.392
-82.640	-200.000	-0.004	0.110
-81.626	-92.969	-0.297	0.081
-80.611	578.219	-0.152	-0.364
-79.597	-3.259	-0.081	-0.055
-78.582	-43.582	0.132	0.065
-77.567	82.406	-0.199	0.211
-76.553	187.328	0.151	0.221
-75.538	324.810	0.139	-0.261
-74.524	-20.484	-0.165	-0.099
-73.509	-75.087	-0.349	-0.122
-72.494	-53.576	0.099	-0.044
-71.480	-20.046	0.259	-0.156
-70.465	43.776	0.255	0.228
-69.451	-85.673	-0.123	0.037
-68.436	-200.000	-0.003	0.148
-67.422	157.050	-0.189	-0.256
-66.407	-30.569	0.064	-0.036
-65.392	-200.000	0.067	-0.377
-64.378	800.000	-0.048	-0.151
-63.363	399.795	0.125	0.257
-62.349	348.317	-0.073	0.141
-61.334	34.513	-1.192	-1.018
-60.319	39.714	0.641	0.562
-59.305	-200.000	-0.094	-1.123
-58.290	640.093	0.516	1.285
-57.276	343.190	0.655	1.255
-56.261	-200.000	111.094	648.799
-55.246	495.582	1484.257	3334.918
-54.232	151.792	2643.932	3523.767
-53.217	106.997	2158.262	2506.599
-52.203	38.593	1695.577	1478.731
-51.188	31.210	1515.783	1271.807
-50.173	28.925	1492.360	1236.764
-49.159	53.816	1548.391	1454.073
-48.144	52.835	1564.300	1462.259
-47.130	31.537	1521.918	1278.994
-46.115	28.411	1506.732	1244.980
-45.100	28.256	1503.515	1241.224
-44.086	28.237	1501.798	1239.626
-43.071	28.078	1500.083	1237.088
-42.057	28.069	1498.414	1235.600
-41.042	28.157	1496.834	1234.845
-40.027	28.147	1495.256	1233.427
-39.013	28.002	1494.265	1231.579
-37.998	28.145	1492.502	1231.045
-36.984	28.148	1491.353	1230.070
-35.969	28.172	1490.281	1229.292
-34.954	28.143	1488.524	1227.600
-33.940	28.113	1487.533	1226.535
-32.925	28.096	1486.175	1225.254
-31.911	28.190	1484.766	1224.668
-30.896	28.222	1483.334	1223.657
-29.881	28.229	1481.896	1222.468
-28.867	28.270	1480.482	1221.523
-27.852	28.206	1479.417	1220.169
-26.838	28.088	1478.619	1218.682
-25.823	28.180	1476.922	1217.848
-24.809	28.159	1475.813	1216.742
-23.794	28.156	1473.742	1214.969
-22.779	28.085	1473.175	1213.981
-21.765	28.244	1471.750	1213.815
-20.750	28.172	1471.170	1212.811
-19.736	28.223	1469.511	1211.731
-18.721	28.169	1468.846	1210.777
-17.706	28.160	1467.631	1209.665
-16.692	28.165	1466.306	1208.563
-15.677	28.189	1465.094	1207.672
-14.663	28.157	1464.456	1206.888
-13.648	28.195	1463.126	1205.993
-12.633	28.238	1462.381	1205.617
-11.619	28.236	1461.535	1204.853
-10.604	28.127	1460.888	1203.554
-9.590	28.181	1459.751	1202.925
-8.575	28.125	1458.855	1201.772
-7.560	28.160	1458.176	1201.394
-6.546	28.127	1456.998	1200.164
-5.531	28.073	1456.507	1199.353
-4.517	28.090	1455.636	1198.702
-3.502	28.206	1454.311	1198.325
-2.487	28.113	1453.114	1196.678
-1.473	28.204	1452.104	1196.400
-0.458	28.161	1450.787	1194.981
0.556	26.459	1440.751	1183.758
1.571	23.188	1416.696	1142.806
2.586	19.652	1355.155	1071.188
3.600	18.026	1271.437	995.458
4.615	16.832	1226.269	953.294
5.629	15.789	1173.396	906.495
6.644	12.702	1097.231	832.002
7.659	9.594	1062.834	790.619
8.673	9.278	1057.181	784.804
9.688	9.160	1054.271	781.997
10.702	9.287	1052.236	781.033
11.717	9.045	1050.846	778.763
12.731	10.417	1050.439	785.042
13.746	13.829	1054.882	804.863
14.761	16.927	1058.670	822.735
15.775	17.647	1058.708	826.185
16.790	16.883	1056.430	820.638
17.804	15.795	1054.886	814.103
18.819	14.871	1052.692	807.876
19.834	14.501	1050.680	804.475
20.848	14.112	1049.991	802.000
21.863	13.754	1049.792	800.051
22.877	13.665	1048.680	798.703
23.892	13.503	1047.634	797.058
24.907	13.341	1047.583	796.170
25.921	13.395	1046.370	795.433
26.936	13.504	1045.378	795.134
27.950	13.520	1044.270	794.298
28.965	13.436	1043.502	793.244
29.980	13.510	1042.406	792.692
30.994	13.694	1041.295	792.657
32.009	13.670	1040.482	791.856
33.023	13.593	1039.958	791.015
34.038	13.807	1038.309	790.712
35.053	13.559	1038.273	789.436
36.067	13.479	1037.047	788.052
37.082	13.518	1035.884	787.283
38.096	13.454	1035.660	786.739
39.111	13.553	1034.658	786.376
40.126	13.660	1033.385	785.847
41.140	13.490	1032.417	784.239
42.155	13.533	1031.239	783.477
43.169	13.434	1030.312	782.233
44.184	13.551	1029.173	781.851
45.199	13.334	1028.379	780.159
46.213	13.452	1027.134	779.700
47.228	13.264	1026.994	778.638
48.242	13.367	1025.472	777.902
49.257	13.460	1024.515	777.544
50.271	13.652	1022.944	777.182
51.286	13.474	1022.110	775.647
52.301	13.438	1022.090	775.393
53.315	13.580	1020.726	774.956
54.330	13.565	1020.067	774.315
55.344	13.563	1019.170	773.555
56.359	13.342	1018.361	771.845
57.374	13.409	1017.316	771.297
58.388	13.338	1016.450	770.240
59.403	13.332	1015.853	769.689
60.417	13.253	1015.221	768.775
61.432	13.268	1014.410	768.166
62.447	13.320	1013.261	767.468
63.461	13.187	1012.639	766.310
64.476	13.217	1011.604	765.599
65.490	13.361	1010.750	765.550
66.505	13.252	1009.714	764.194
67.520	13.236	1009.268	763.717
68.534	13.293	1008.516	763.345
69.549	13.324	1007.641	762.758
70.563	13.424	1007.003	762.665
71.578	13.336	1006.249	761.623
72.593	13.254	1005.507	760.615
73.607	13.317	1004.194	759.844
74.622	13.131	1003.687	758.541
75.636	13.151	1002.855	757.939
76.651	13.131	1002.093	757.201
77.666	13.171	1001.359	756.764
78.680	13.156	1000.355	755.869
79.695	13.160	999.976	755.534
80.709	13.254	999.306	755.391
81.724	13.288	998.769	755.074
82.739	13.350	997.813	754.565
83.753	13.377	997.134	754.110
84.768	13.545	996.262	754.150
85.782	13.548	995.947	753.856
86.797	13.578	994.906	753.140
87.812	13.601	994.118	752.581
88.826	13.505	993.119	751.320
89.841	13.423	992.455	750.382
90.855	13.458	991.801	749.978
91.870	13.529	990.913	749.564
92.884	13.484	990.141	748.706
93.899	13.616	989.432	748.703
94.914	13.562	988.914	747.999
95.928	13.530	988.225	747.267
96.943	13.634	986.929	746.689
97.957	13.633	986.425	746.238
98.972	13.614	985.539	745.418
99.987	13.562	985.038	744.737
101.001	13.614	984.128	744.220
102.016	13.578	983.412	743.448
103.030	13.652	981.969	742.624
104.045	13.569	981.551	741.870
105.060	13.632	980.669	741.419
106.074	13.604	979.379	740.254
107.089	13.492	978.741	739.207
108.103	13.403	977.740	737.990
109.118	13.319	976.644	736.723
110.133	13.288	976.017	736.048
111.147	13.391	974.988	735.662
112.162	13.395	974.334	735.121
113.176	13.419	973.635	734.637
114.191	13.538	972.180	734.002
115.206	13.396	971.799	733.020
116.220	13.462	970.414	732.200
117.235	13.427	970.249	731.858
118.249	13.358	969.533	730.949
119.264	13.487	968.128	730.392
120.279	13.386	967.297	729.256
121.293	13.311	966.921	728.578
122.308	13.474	965.852	728.423
123.322	13.335	965.019	727.119
124.337	13.225	964.271	726.011
125.352	13.304	962.824	725.204
126.366	13.349	961.855	724.606
127.381	13.296	961.031	723.687
128.395	13.354	959.998	723.101
129.410	13.345	958.841	722.124
130.424	13.369	957.936	721.485
131.439	13.319	957.292	720.720
132.454	13.337	956.186	719.901
133.468	13.441	955.740	719.955
134.483	13.497	954.933	719.525
135.497	13.365	954.458	718.530
136.512	13.487	953.553	718.313
137.527	13.386	953.114	717.482
138.541	13.442	951.976	716.803
139.556	13.509	950.968	716.271
140.570	13.406	950.686	715.552
141.585	13.591	949.606	715.476
142.600	13.552	949.386	715.077
143.614	13.552	948.494	714.340
144.629	13.573	947.749	713.805
145.643	13.697	946.875	713.622
146.658	13.677	946.444	713.144
147.673	13.693	945.190	712.208
148.687	13.553	944.247	710.830
149.702	13.558	943.336	710.106
150.716	13.550	942.363	709.274
151.731	13.494	941.591	708.392
152.746	13.462	940.952	707.712
153.760	13.477	940.144	707.106
154.775	13.584	939.370	706.917
155.789	13.554	938.857	706.341
156.804	13.514	938.250	705.650
157.819	13.651	937.350	705.496
158.833	13.678	936.932	705.234
159.848	13.769	936.017	704.869
160.862	13.612	935.542	703.783
161.877	13.791	934.606	703.774
162.892	13.753	933.869	702.995
163.906	13.482	932.824	701.001
164.921	13.625	931.860	700.817
165.935	13.631	930.908	700.064
166.950	13.702	930.006	699.624
167.964	13.588	929.512	698.712
168.979	13.817	928.252	698.665
169.994	13.708	927.406	697.509
171.008	13.651	926.853	696.794
172.023	13.935	925.178	696.663
173.037	13.738	925.172	695.772
174.052	13.852	924.201	695.457
175.067	13.864	923.750	695.107
176.081	13.758	923.129	694.134
177.096	13.721	921.821	692.931
178.110	13.700	920.871	692.071
179.125	13.703	920.403	691.672
180.140	13.722	919.548	691.045
181.154	13.791	919.259	691.053
182.169	13.853	917.996	690.302
183.183	13.849	917.899	690.151
184.198	13.910	917.110	689.752
185.213	13.884	916.182	688.882
186.227	13.911	915.942	688.755
187.242	13.976	915.756	688.822
188.256	13.956	915.013	688.122
189.271	14.094	913.766	687.692
190.286	14.211	912.858	687.431
191.300	13.855	912.463	685.605
192.315	13.777	911.481	684.483
193.329	13.734	910.779	683.716
194.344	13.858	910.126	683.679
195.359	13.881	909.556	683.284
196.373	13.787	909.118	682.506
197.388	13.882	908.877	682.659
198.402	13.996	908.445	682.741
199.417	14.216	907.752	683.062
200.432	14.193	907.631	682.816
201.446	14.316	907.167	682.911
202.461	14.370	906.590	682.636
203.475	14.246	906.137	681.727
204.490	14.271	905.502	681.293
205.504	14.269	904.477	680.453
206.519	14.247	903.597	679.642
207.534	14.200	902.914	678.877
208.548	14.103	902.460	678.078
209.563	14.255	901.771	678.118
210.577	14.202	900.916	677.201
211.592	14.157	900.488	676.638
212.607	14.290	899.986	676.740
213.621	14.369	899.643	676.744
214.636	14.331	899.006	676.051
215.650	14.268	898.027	675.000
216.665	14.379	897.480	674.977
217.680	14.375	896.881	674.450
218.694	14.462	896.190	674.223
219.709	14.531	895.725	674.093
220.723	14.303	895.343	672.824
221.738	14.531	894.061	672.722
222.753	14.592	893.354	672.376
223.767	14.455	892.641	671.229
224.782	14.409	892.306	670.734
225.796	14.514	891.047	670.149
226.811	14.651	890.565	670.277
227.826	14.642	889.782	669.591
228.840	14.528	889.146	668.596
229.855	14.474	888.475	667.818
230.869	14.478	888.146	667.525
231.884	14.567	887.015	666.974
232.899	14.409	886.676	666.029
233.913	14.578	885.988	666.127
234.928	14.415	885.696	665.199
235.942	14.468	884.983	664.814
236.957	14.507	883.545	663.830
237.972	14.289	883.839	663.126
238.986	14.429	882.785	662.831
240.001	14.564	882.117	662.808
241.015	14.544	881.133	661.932
242.030	14.553	880.656	661.551
243.045	14.526	880.285	661.106
244.059	14.574	879.778	660.856
245.074	14.781	878.931	660.980
246.088	14.629	878.566	660.048
247.103	14.786	877.497	659.805
248.117	14.725	876.893	659.051
249.132	14.787	876.264	658.765
250.147	14.838	876.180	658.843
251.161	14.930	875.518	658.651
252.176	15.083	874.384	658.341
253.190	15.073	874.171	658.084
254.205	15.079	873.585	657.608
255.220	15.275	872.504	657.505
256.234	15.035	872.494	656.500
257.249	15.104	871.902	656.265
258.263	15.149	871.140	655.809
259.278	15.206	870.280	655.325
260.293	15.166	869.782	654.739
261.307	15.304	868.938	654.583
262.322	15.264	868.944	654.374
263.336	15.232	868.389	653.772
264.351	15.089	867.963	652.836
265.366	15.241	867.112	652.732
266.380	15.310	866.134	652.205
267.395	15.359	865.397	651.782
268.409	15.270	864.926	651.025
269.424	15.288	864.148	650.452
270.439	15.160	863.689	649.554
271.453	15.363	862.493	649.382
272.468	15.311	862.031	648.775
273.482	15.352	861.298	648.324
274.497	15.251	860.853	647.540
275.512	15.155	860.379	646.757
276.526	15.263	859.466	646.430
277.541	15.302	858.708	645.952
278.555	15.241	858.799	645.731
279.570	15.333	857.783	645.261
280.585	15.545	857.247	645.616
281.599	15.556	856.813	645.276
282.614	15.498	856.115	644.471
283.628	15.349	855.604	643.459
284.643	15.385	855.069	643.136
285.657	15.378	854.454	642.591
286.672	15.545	853.787	642.671
287.687	15.473	853.440	642.075
288.701	15.520	852.825	641.736
289.716	15.472	852.203	641.028
290.730	15.399	851.716	640.326
291.745	15.597	851.246	640.672
292.760	15.581	850.385	639.908
293.774	15.576	849.623	639.256
294.789	15.673	849.304	639.329
295.803	15.734	848.628	638.995
296.818	15.695	847.481	637.927
297.833	15.664	847.045	637.426
298.847	15.488	846.748	636.477
299.862	15.633	845.994	636.405
300.876	15.588	845.208	635.588
301.891	15.571	844.796	635.156
302.906	15.723	844.200	635.228
303.920	15.716	843.279	634.450
304.935	15.849	842.320	634.176
305.949	15.919	842.438	634.471
306.964	15.907	841.809	633.896
307.979	15.829	841.192	633.081
308.993	15.935	840.202	632.680
310.008	15.933	839.994	632.459
311.022	16.038	839.215	632.212
312.037	15.871	839.142	631.472
313.052	15.846	838.656	630.959
314.066	15.787	838.060	630.231
315.081	15.764	837.330	629.542
316.095	15.887	836.410	629.253
317.110	15.858	836.158	628.901
318.125	15.895	835.410	628.422
319.139	15.916	835.117	628.224
320.154	15.954	834.260	627.663
321.168	15.985	833.904	627.457
322.183	15.919	833.423	626.792
323.197	15.837	833.300	626.340
324.212	15.959	832.549	626.175
325.227	16.020	832.137	626.034
326.241	15.936	831.361	625.082
327.256	16.078	830.584	624.970
328.270	15.907	830.452	624.182
329.285	15.836	830.051	623.564
330.300	15.844	829.150	622.861
331.314	16.089	828.444	623.179
332.329	16.099	827.694	622.597
333.343	16.011	827.381	621.980
334.358	16.158	826.867	622.084
335.373	16.170	826.380	621.706
336.387	16.115	825.910	621.094
337.402	16.175	825.284	620.790
338.416	16.223	824.915	620.635
339.431	16.200	824.062	619.854
340.446	16.257	823.966	619.935
341.460	16.233	823.160	619.184
342.475	16.295	822.469	618.838
343.489	16.363	821.979	618.665
344.504	16.456	821.219	618.379
345.519	16.590	820.703	618.423
346.533	16.480	820.435	617.766
347.548	16.605	819.526	617.481
348.562	16.537	819.078	616.842
349.577	16.485	818.763	616.362
350.592	16.295	818.531	615.441
351.606	16.285	818.095	615.020
352.621	16.460	817.385	615.071
353.635	16.393	816.812	614.339
354.650	16.477	816.377	614.264
355.665	16.243	816.439	613.406
356.679	16.343	815.691	613.154
357.694	16.540	814.980	613.277
358.708	16.496	814.486	612.692
359.723	16.617	813.735	612.510
360.738	16.465	813.446	611.689
361.752	16.512	813.133	611.571
362.767	16.517	812.682	611.195
363.781	16.692	812.337	611.516
364.796	16.783	811.795	611.380
365.810	16.676	811.422	610.658
366.825	16.750	811.141	610.661
367.840	16.802	810.680	610.448
368.854	16.845	810.332	610.284
369.869	16.690	809.805	609.276
370.883	16.691	809.287	608.838
371.898	16.777	808.643	608.607
372.913	16.857	808.072	608.411
373.927	16.876	807.360	607.888
374.942	16.929	806.740	607.560
375.956	16.892	806.230	606.988
376.971	16.866	805.981	606.656
377.986	16.825	805.290	605.933
379.000	16.980	804.686	605.981
380.015	17.007	804.131	605.602
381.029	17.161	803.636	605.729
382.044	17.044	803.003	604.780
383.059	16.826	802.890	603.863
384.073	17.233	801.644	604.323
385.088	17.002	801.606	603.417
386.102	16.931	800.828	602.528
387.117	16.925	800.490	602.199
388.132	16.843	800.112	601.568
389.146	16.971	799.597	601.582
390.161	16.973	799.441	601.418
391.175	17.129	798.668	601.335
392.190	17.170	798.431	601.250
393.205	17.032	797.890	600.301
394.219	16.985	798.080	600.225
395.234	17.147	797.015	599.943
396.248	17.159	796.327	599.415
397.263	16.974	795.824	598.331
398.278	16.873	795.661	597.798
399.292	17.029	794.986	597.788
400.307	16.940	794.266	596.881
401.321	17.119	793.980	597.242
402.336	17.091	794.022	597.121
403.350	17.100	793.609	596.790
404.365	17.104	793.178	596.429
405.380	17.404	792.163	596.665
406.394	17.283	792.108	596.145
407.409	17.324	791.944	596.115
408.423	17.433	791.170	595.859
409.438	17.315	791.032	595.288
410.453	17.283	790.689	594.866
411.467	17.503	789.931	595.014
412.482	17.442	789.435	594.373
413.496	17.455	789.237	594.215
414.511	17.402	788.808	593.655
415.526	17.595	788.190	593.812
416.540	17.415	788.318	593.228
417.555	17.542	787.308	592.860
418.569	17.579	786.968	592.677
419.584	17.543	786.463	592.122
420.599	17.496	786.177	591.689
421.613	111.315	1292.942	1475.878
422.628	95.502	1366.757	1475.982
