DTS Sentinel unit serial number:	SN413079Multiplexer serial number:	ORYXHardware model number:	OX4-SRSoftware version number:	ORYX F/W v4.00 Oryx Data Collector v3.7.2.0data status	okinstallation	princeton_trtdifferential loss correction	single-endedforward channel	channel 3reverse channel	N/Adate	2019/09/12time	04:50:10forward acquisition time	60.00reverse acquisition time	0.00gamma	496.2192k internal	0.2323k external	0.2323temperature offset calibration	1.0063default loss term (dB/km)	0.3790temperature slope calibration	1.0000multiplexer offset coefficient	1.0000multiplexer slope coefficient	1.0000fibre end	0.00T internal ref (°C)	31.64T ext. ref 1 (°C)	1.99T ext. ref 2 (°C)	27.23length (m)	temperature (°C)	Stokes	anti-Stokes-747.200	182.111	-0.269	-0.400
-746.185	-200.000	-0.037	0.172
-745.171	316.197	-0.111	0.211
-744.156	8.753	-0.533	0.406
-743.142	-69.909	-0.111	-0.043
-742.127	94.068	0.201	0.230
-741.112	-52.236	-0.019	-0.009
-740.098	8.841	-0.081	0.062
-739.083	28.664	-0.172	0.147
-738.069	-37.918	-0.226	0.121
-737.054	44.477	0.296	-0.275
-736.039	-98.530	-0.173	-0.045
-735.025	-200.000	-0.026	0.215
-734.010	578.638	-0.042	0.105
-732.996	-84.449	-0.476	-0.152
-731.981	-163.375	-0.327	0.016
-730.966	-200.000	0.028	0.214
-729.952	-200.000	-0.046	-0.205
-728.937	-41.027	0.117	-0.061
-727.923	-120.079	-0.581	-0.100
-726.908	-103.422	-0.315	-0.075
-725.894	-148.552	0.297	-0.024
-724.879	-34.010	-0.084	-0.047
-723.864	-169.341	-0.199	-0.007
-722.850	104.862	0.185	0.220
-721.835	21.133	0.044	0.036
-720.821	23.525	0.321	0.267
-719.806	-50.651	-0.281	0.133
-718.791	-22.307	0.303	-0.185
-717.777	478.663	-0.080	-0.182
-716.762	-200.000	-0.002	-0.081
-715.748	-73.032	-0.129	-0.048
-714.733	-157.212	-0.564	-0.035
-713.718	800.000	0.076	0.225
-712.704	197.446	-0.197	-0.303
-711.689	18.965	0.262	0.211
-710.675	-200.000	0.076	-0.453
-709.660	-36.500	-0.101	0.055
-708.645	-200.000	0.010	0.084
-707.631	33.085	0.231	0.202
-706.616	616.060	0.031	-0.079
-705.602	-140.423	-0.313	-0.033
-704.587	178.933	-0.029	0.042
-703.572	800.000	0.106	-0.356
-702.558	44.962	-0.334	-0.310
-701.543	-105.233	-0.071	-0.016
-700.529	-109.856	0.102	-0.022
-699.514	800.000	-0.072	-0.219
-698.499	800.000	-0.051	0.167
-697.485	363.943	0.058	-0.117
-696.470	259.073	0.044	-0.076
-695.456	-59.541	0.059	0.026
-694.441	205.817	-0.100	-0.157
-693.426	-35.230	-0.337	-0.185
-692.412	187.413	-0.199	-0.299
-691.397	-38.501	-0.179	0.096
-690.383	-32.679	0.086	-0.048
-689.368	178.307	-0.090	0.133
-688.354	800.000	-0.048	-0.180
-687.339	800.000	0.078	0.293
-686.324	-200.000	-0.004	-0.414
-685.310	137.181	-0.174	0.229
-684.295	206.171	-0.080	-0.126
-683.281	-52.652	-0.208	-0.097
-682.266	-196.685	0.074	0.000
-681.251	36.534	-0.168	0.150
-680.237	-150.035	0.177	0.014
-679.222	38.784	-0.153	0.137
-678.208	-37.927	-0.144	-0.077
-677.193	-108.713	0.215	-0.046
-676.178	-99.927	0.215	-0.054
-675.164	-200.000	-0.077	-0.347
-674.149	-66.935	0.253	-0.101
-673.135	-200.000	-0.042	-0.322
-672.120	-200.000	0.050	0.225
-671.105	425.691	-0.180	0.390
-670.091	-62.126	-0.197	-0.083
-669.076	-149.342	-0.050	-0.004
-668.062	327.873	-0.126	-0.243
-667.047	507.639	0.095	0.221
-666.032	119.882	-0.107	-0.134
-665.018	-146.048	-0.042	0.004
-664.003	59.227	-0.021	0.020
-662.989	82.410	-0.229	-0.250
-661.974	800.000	-0.044	-0.144
-660.959	493.418	-0.182	-0.420
-659.945	43.853	-0.278	0.256
-658.930	38.928	0.428	-0.385
-657.916	367.074	-0.129	-0.262
-656.901	58.686	-0.312	-0.308
-655.886	368.562	-0.082	-0.168
-654.872	183.092	-0.160	-0.238
-653.857	52.056	0.147	-0.141
-652.843	-122.412	-0.154	0.025
-651.828	-109.615	-0.193	-0.041
-650.814	-76.106	-0.212	0.076
-649.799	153.245	-0.093	0.128
-648.784	247.832	-0.055	0.094
-647.770	-73.336	-0.182	-0.067
-646.755	-70.437	-0.135	-0.051
-645.741	-159.692	0.178	-0.010
-644.726	-67.017	-0.181	-0.072
-643.711	375.020	-0.087	0.178
-642.697	-94.779	-0.206	-0.056
-641.682	-78.497	-0.234	-0.081
-640.668	-200.000	0.036	0.225
-639.653	-42.810	0.172	-0.088
-638.638	152.848	0.087	-0.120
-637.624	-146.415	-0.028	-0.002
-636.609	800.000	-0.074	0.310
-635.595	152.810	-0.153	-0.211
-634.580	371.486	-0.242	-0.493
-633.565	-200.000	0.026	-0.219
-632.551	-115.068	-0.254	0.049
-631.536	-8.970	-0.124	-0.083
-630.522	-81.117	0.039	0.013
-629.507	800.000	-0.091	-0.285
-628.492	7.522	0.158	-0.119
-627.478	90.906	-0.229	0.259
-626.463	-68.784	0.085	-0.033
-625.449	-134.343	0.206	0.025
-624.434	-102.500	0.403	-0.097
-623.419	-200.000	-0.039	-0.244
-622.405	-200.000	-0.042	-0.256
-621.390	214.993	-0.132	0.210
-620.376	-59.996	0.158	0.068
-619.361	800.000	-0.106	0.346
-618.346	-200.000	-0.014	-0.184
-617.332	-78.642	-0.227	-0.078
-616.317	484.555	0.191	0.437
-615.303	546.987	-0.082	-0.196
-614.288	-200.000	0.036	-0.165
-613.273	260.556	0.063	-0.110
-612.259	-125.875	0.176	-0.027
-611.244	800.000	0.099	-0.334
-610.230	-200.000	0.076	-0.442
-609.215	-91.067	-0.468	-0.135
-608.201	8.048	-0.156	-0.118
-607.186	140.753	0.224	-0.297
-606.171	800.000	0.047	-0.131
-605.157	231.388	0.068	-0.111
-604.142	-77.837	0.206	-0.071
-603.128	18.295	-0.233	0.187
-602.113	-68.476	0.428	0.167
-601.098	-57.496	-0.113	-0.050
-600.084	-125.007	-0.177	-0.027
-599.069	187.951	0.123	-0.184
-598.055	121.885	-0.056	0.070
-597.040	-200.000	-0.009	0.222
-596.025	42.351	0.359	0.327
-595.011	281.881	0.054	0.098
-593.996	-200.000	-0.036	-0.597
-592.982	-24.897	-0.153	-0.091
-591.967	666.038	0.139	-0.360
-590.952	-31.328	0.122	0.069
-589.938	7.082	-0.136	0.102
-588.923	487.423	-0.041	0.095
-587.909	-54.587	-0.309	0.140
-586.894	9.960	0.092	0.070
-585.879	466.207	0.032	-0.072
-584.865	756.551	-0.024	-0.064
-583.850	-6.953	0.171	-0.117
-582.836	72.912	-0.280	-0.294
-581.821	795.966	-0.145	-0.400
-580.806	-200.000	0.053	-0.366
-579.792	-200.000	0.013	-0.100
-578.777	800.000	-0.085	0.274
-577.763	-32.252	-0.161	-0.090
-576.748	252.515	0.193	0.330
-575.733	-43.787	0.272	0.137
-574.719	-27.354	0.018	-0.011
-573.704	30.497	-0.254	0.218
-572.690	72.172	-0.220	-0.230
-571.675	715.757	-0.075	-0.199
-570.661	45.812	-0.166	-0.154
-569.646	-111.293	0.310	-0.064
-568.631	-56.052	-0.071	0.032
-567.617	-37.690	-0.464	-0.248
-566.602	800.000	-0.077	-0.244
-565.588	91.604	0.133	0.150
-564.573	37.488	-0.422	-0.376
-563.558	242.643	0.196	0.329
-562.544	-1.572	-0.143	-0.101
-561.529	38.195	0.193	0.172
-560.515	800.000	0.053	-0.175
-559.500	-146.636	-0.337	-0.029
-558.485	-200.000	-0.166	0.000
-557.471	-200.000	-0.006	-0.344
-556.456	800.000	0.007	-0.029
-555.442	28.306	-0.145	0.123
-554.427	217.451	0.056	0.089
-553.412	-200.000	-0.108	0.478
-552.398	-200.000	-0.015	-0.212
-551.383	-68.680	0.106	0.041
-550.369	-200.000	-0.017	0.252
-549.354	-91.984	-0.244	0.069
-548.339	-106.018	0.182	0.041
-547.325	800.000	-0.058	-0.240
-546.310	-200.000	-0.090	0.410
-545.296	-182.544	0.063	-0.001
-544.281	-200.000	0.048	-0.245
-543.266	-200.000	0.034	-0.228
-542.252	2.956	-0.154	0.112
-541.237	24.874	-0.074	0.062
-540.223	-200.000	-0.009	-0.182
-539.208	-19.826	0.310	0.192
-538.193	800.000	-0.079	-0.246
-537.179	-106.795	0.063	-0.014
-536.164	-43.644	-0.161	0.081
-535.150	654.384	0.062	0.158
-534.135	359.007	0.059	-0.118
-533.121	378.517	-0.141	-0.290
-532.106	-3.213	-0.158	-0.110
-531.091	-83.064	0.067	0.022
-530.077	129.459	-0.089	-0.114
-529.062	-72.982	0.131	-0.048
-528.048	800.000	0.026	-0.072
-527.033	-200.000	-0.005	-0.227
-526.018	800.000	0.043	-0.156
-525.004	-144.029	-0.325	0.031
-523.989	-27.080	-0.345	-0.201
-522.975	-105.499	-0.169	-0.039
-521.960	7.807	0.037	0.028
-520.945	14.527	0.040	0.031
-519.931	10.384	0.294	-0.224
-518.916	-200.000	0.032	0.260
-517.902	539.847	-0.145	-0.346
-516.887	267.294	-0.082	-0.143
-515.872	-132.380	0.260	0.034
-514.858	19.657	0.088	0.071
-513.843	-51.306	0.214	-0.100
-512.829	290.305	0.088	0.160
-511.814	-96.879	-0.384	-0.101
-510.799	-70.334	-0.192	-0.073
-509.785	72.750	0.246	0.257
-508.770	-200.000	0.022	0.240
-507.756	445.378	-0.098	0.216
-506.741	-151.494	0.076	0.006
-505.726	-114.573	-0.356	-0.068
-504.712	39.852	0.102	-0.092
-503.697	171.004	-0.096	0.138
-502.683	-71.828	0.147	0.055
-501.668	395.549	0.083	-0.173
-500.653	-167.960	0.253	-0.010
-499.639	159.258	0.221	-0.308
-498.624	-55.569	0.222	-0.099
-497.610	-84.427	-0.076	-0.024
-496.595	393.965	-0.081	0.169
-495.581	494.381	-0.151	0.347
-494.566	-146.101	-0.249	0.022
-493.551	-200.000	0.056	0.374
-492.537	-172.466	0.108	0.003
-491.522	-36.030	-0.245	-0.132
-490.508	40.098	0.081	0.072
-489.493	-83.786	-0.135	0.043
-488.478	-32.947	-0.301	-0.167
-487.464	-89.260	0.159	0.047
-486.449	-164.122	-0.161	0.007
-485.435	-42.021	-0.220	0.113
-484.420	-200.000	0.012	0.093
-483.405	-200.000	-0.057	0.396
-482.391	-33.659	-0.141	-0.078
-481.376	265.529	-0.249	-0.434
-480.362	-156.608	0.120	0.007
-479.347	800.000	0.066	-0.217
-478.332	-130.735	-0.213	0.029
-477.318	-44.661	0.148	0.074
-476.303	-73.789	-0.160	0.058
-475.289	139.947	0.088	0.116
-474.274	-200.000	-0.012	-0.204
-473.259	-88.724	-0.345	-0.103
-472.245	-200.000	0.000	-0.074
-471.230	-200.000	-0.023	0.117
-470.216	120.229	0.098	-0.122
-469.201	62.723	0.135	-0.135
-468.186	8.665	0.101	-0.076
-467.172	-142.222	-0.164	0.016
-466.157	-119.755	0.104	0.018
-465.143	409.326	-0.053	-0.113
-464.128	-60.361	0.152	-0.064
-463.113	36.766	0.135	0.119
-462.099	800.000	0.044	-0.167
-461.084	-83.684	-0.297	-0.095
-460.070	-150.164	0.159	0.012
-459.055	-200.000	-0.006	0.215
-458.040	-103.987	0.036	0.008
-457.026	109.515	0.159	-0.191
-456.011	-45.978	0.073	-0.036
-454.997	-115.863	0.068	0.013
-453.982	295.108	0.050	0.091
-452.968	-35.674	0.296	0.160
-451.953	-64.202	-0.276	0.112
-450.938	-200.000	0.029	-0.658
-449.924	-18.779	-0.239	0.148
-448.909	-156.668	0.230	-0.014
-447.895	-200.000	-0.047	-0.216
-446.880	19.065	0.109	0.088
-445.865	-118.896	-0.135	-0.024
-444.851	483.043	-0.085	-0.192
-443.836	800.000	-0.091	-0.285
-442.822	555.321	0.051	0.123
-441.807	-200.000	0.026	0.141
-440.792	152.447	-0.048	-0.066
-439.778	-134.171	-0.402	-0.050
-438.763	29.953	0.173	0.147
-437.749	2.495	0.154	0.111
-436.734	54.691	0.279	-0.269
-435.719	800.000	-0.035	-0.138
-434.705	642.218	-0.076	-0.194
-433.690	-12.993	-0.149	0.097
-432.676	-94.370	0.090	-0.024
-431.661	-200.000	-0.002	0.316
-430.646	338.443	-0.114	-0.220
-429.632	-43.778	0.235	-0.118
-428.617	57.338	0.114	0.111
-427.603	-200.000	-0.020	-0.159
-426.588	-64.866	-0.128	-0.052
-425.573	-200.000	0.014	-0.124
-424.559	800.000	-0.067	0.224
-423.544	103.796	0.097	-0.113
-422.530	-54.526	0.208	-0.094
-421.515	164.335	-0.197	0.277
-420.500	-23.861	-0.418	0.250
-419.486	-143.473	0.245	0.023
-418.471	21.008	-0.205	-0.166
-417.457	-200.000	0.032	0.294
-416.442	57.504	0.298	0.290
-415.428	-200.000	0.011	0.120
-414.413	207.638	0.062	-0.096
-413.398	579.612	0.146	-0.357
-412.384	348.638	0.231	-0.455
-411.369	246.910	0.069	0.116
-410.355	107.754	0.042	-0.050
-409.340	333.607	0.134	-0.259
-408.325	50.367	0.320	0.302
-407.311	-75.333	-0.022	-0.008
-406.296	208.761	0.061	-0.095
-405.282	-75.212	-0.073	0.026
-404.267	174.164	0.189	0.272
-403.252	-100.482	0.413	0.102
-402.238	-200.000	0.063	0.286
-401.223	-200.000	0.011	0.345
-400.209	29.809	-0.087	0.074
-399.194	-113.052	-0.093	0.018
-398.179	122.752	-0.131	-0.163
-397.165	-66.920	0.063	0.025
-396.150	-137.205	0.118	0.013
-395.136	-1.124	-0.245	-0.173
-394.121	196.709	0.233	-0.353
-393.106	265.768	-0.154	0.267
-392.092	-200.000	0.006	0.173
-391.077	-200.000	0.091	0.504
-390.063	-153.147	0.037	0.003
-389.048	51.295	-0.119	0.112
-388.033	209.178	-0.215	0.335
-387.019	677.605	0.177	-0.458
-386.004	-50.711	0.076	-0.036
-384.990	109.205	-0.102	0.122
-383.975	495.226	0.083	0.189
-382.960	378.173	0.238	0.485
-381.946	-9.045	0.215	0.143
-380.931	-200.000	0.003	-0.249
-379.917	-200.000	-0.027	0.212
-378.902	218.170	0.061	-0.097
-377.888	800.000	-0.124	0.512
-376.873	773.580	-0.090	0.245
-375.858	-200.000	0.010	0.182
-374.844	119.892	0.068	0.084
-373.829	800.000	0.029	-0.094
-372.815	-97.239	-0.372	0.097
-371.800	156.449	0.067	0.093
-370.785	-200.000	0.030	-0.216
-369.771	-80.523	-0.298	-0.099
-368.756	800.000	-0.059	-0.225
-367.742	68.024	0.058	-0.060
-366.727	-200.000	0.013	0.284
-365.712	-61.513	-0.013	0.005
-364.698	120.180	0.163	0.201
-363.683	365.362	-0.113	0.227
-362.669	-200.000	-0.012	0.192
-361.654	-149.628	-0.095	0.007
-360.639	695.669	-0.064	0.166
-359.625	346.563	0.068	0.132
-358.610	-70.587	0.094	-0.035
-357.596	318.820	0.116	-0.219
-356.581	-140.260	0.212	-0.022
-355.566	800.000	0.047	-0.162
-354.552	497.672	-0.174	0.398
-353.537	-55.950	-0.031	-0.014
-352.523	367.650	0.064	0.129
-351.508	-45.089	-0.081	0.040
-350.493	-200.000	0.010	0.063
-349.479	276.213	0.048	-0.085
-348.464	37.303	-0.037	0.033
-347.450	-200.000	0.054	-0.338
-346.435	-98.855	-0.371	0.094
-345.420	-119.938	-0.281	-0.048
-344.406	172.221	0.267	-0.381
-343.391	150.127	-0.088	-0.119
-342.377	61.099	0.252	0.249
-341.362	253.082	0.114	0.194
-340.348	122.481	-0.301	0.374
-339.333	-155.746	0.286	-0.018
-338.318	800.000	-0.098	-0.328
-337.304	-200.000	0.023	0.237
-336.289	97.149	-0.024	-0.028
-335.275	147.381	-0.090	0.120
-334.260	-119.611	0.323	-0.056
-333.245	-49.130	-0.286	-0.136
-332.231	551.869	-0.138	-0.329
-331.216	-123.106	0.162	0.026
-330.202	-23.840	-0.072	-0.043
-329.187	-200.000	0.015	0.066
-328.172	-2.366	0.015	0.011
-327.158	-107.235	-0.291	-0.064
-326.143	-164.894	-0.360	-0.016
-325.129	76.655	0.174	-0.184
-324.114	-200.000	0.028	-0.148
-323.099	289.976	0.061	0.109
-322.085	259.026	0.034	-0.058
-321.070	145.327	0.064	0.085
-320.056	-129.462	-0.336	-0.046
-319.041	-200.000	-0.002	0.271
-318.026	54.312	-0.080	0.077
-317.012	-88.137	0.249	-0.074
-315.997	62.830	-0.070	-0.070
-314.983	162.827	-0.182	-0.254
-313.968	-119.124	-0.258	0.045
-312.953	-53.038	0.090	0.041
-311.939	-87.908	0.112	-0.033
-310.924	-5.636	-0.228	0.155
-309.910	273.387	0.105	0.184
-308.895	-130.809	0.162	-0.022
-307.880	-15.398	0.133	-0.085
-306.866	37.342	0.212	0.187
-305.851	800.000	-0.068	-0.257
-304.837	-5.519	0.099	-0.068
-303.822	0.472	-0.193	-0.137
-302.807	-109.073	0.217	-0.046
-301.793	-94.981	0.043	0.012
-300.778	-200.000	-0.051	0.363
-299.764	250.136	-0.091	0.153
-298.749	82.602	-0.182	0.197
-297.735	68.320	-0.285	0.290
-296.720	-165.420	0.084	-0.004
-295.705	-154.973	0.275	0.018
-294.691	-41.807	-0.206	0.105
-293.676	59.704	0.229	-0.224
-292.662	2.365	-0.145	0.104
-291.647	-166.629	-0.126	0.005
-290.632	45.286	0.085	-0.078
-289.618	800.000	-0.090	-0.373
-288.603	81.421	-0.075	0.081
-287.589	-200.000	0.012	-0.195
-286.574	-200.000	0.017	-0.185
-285.559	-0.038	0.209	-0.148
-284.545	58.881	0.233	0.227
-283.530	-130.449	0.108	0.015
-282.516	-134.056	-0.257	-0.032
-281.501	352.031	-0.049	0.096
-280.486	-105.643	-0.136	0.031
-279.472	465.253	0.027	-0.061
-278.457	735.409	0.101	-0.269
-277.443	91.449	0.044	0.049
-276.428	7.466	0.046	-0.034
-275.413	40.995	-0.067	-0.060
-274.399	-89.574	-0.195	0.057
-273.384	-190.199	-0.120	-0.001
-272.370	-78.174	0.037	0.013
-271.355	673.594	0.057	-0.146
-270.340	-103.846	0.347	0.080
-269.326	372.379	0.171	0.344
-268.311	-48.732	-0.223	-0.106
-267.297	-53.135	-0.035	-0.016
-266.282	-200.000	0.047	0.363
-265.267	-3.932	-0.234	0.161
-264.253	-56.838	-0.136	0.060
-263.238	-112.848	-0.294	-0.058
-262.224	45.445	-0.136	0.124
-261.209	-100.937	-0.317	-0.077
-260.195	-139.824	-0.262	-0.028
-259.180	108.074	0.123	0.145
-258.165	-200.000	0.019	-0.129
-257.151	107.886	0.136	0.160
-256.136	100.810	-0.108	-0.124
-255.122	61.068	-0.072	-0.071
-254.107	-200.000	-0.026	0.402
-253.092	-200.000	-0.038	0.347
-252.078	-0.107	0.174	0.122
-251.063	-57.492	0.262	0.114
-250.049	219.960	-0.035	0.056
-249.034	222.213	0.141	-0.224
-248.019	74.871	0.260	-0.271
-247.005	-42.347	-0.167	0.084
-245.990	348.117	0.045	0.088
-244.976	-63.469	0.103	0.042
-243.961	-21.489	0.313	-0.189
-242.946	-200.000	0.037	-0.268
-241.932	597.183	0.130	-0.320
-240.917	-196.964	-0.257	0.002
-239.903	800.000	0.062	-0.240
-238.888	-122.972	-0.077	0.012
-237.873	213.364	0.065	0.101
-236.859	268.046	0.023	-0.039
-235.844	800.000	0.090	0.317
-234.830	-87.443	0.136	-0.041
-233.815	36.810	0.303	-0.265
-232.800	-125.641	-0.162	-0.024
-231.786	-200.000	0.008	-0.096
-230.771	800.000	-0.019	-0.059
-229.757	226.539	-0.145	0.234
-228.742	-84.022	-0.299	0.094
-227.727	210.743	-0.177	0.276
-226.713	-200.000	0.015	0.292
-225.698	-57.105	-0.199	-0.087
-224.684	-62.410	0.185	0.076
-223.669	-0.505	-0.346	0.243
-222.655	-83.655	0.137	0.043
-221.640	-81.702	-0.310	-0.101
-220.625	16.187	0.187	0.146
-219.611	-94.060	-0.176	0.048
-218.596	-69.437	0.107	-0.040
-217.582	800.000	0.081	-0.346
-216.567	-77.926	-0.192	-0.065
-215.552	-22.380	0.259	-0.155
-214.538	-141.504	0.467	0.047
-213.523	-154.643	0.114	-0.008
-212.509	-200.000	0.066	-0.335
-211.494	-200.000	0.022	-0.342
-210.479	-200.000	-0.090	0.439
-209.465	-146.586	0.285	0.025
-208.450	-97.502	-0.029	-0.008
-207.436	-200.000	0.023	0.282
-206.421	-200.000	-0.006	0.300
-205.406	599.665	-0.134	0.328
-204.392	180.147	0.126	0.183
-203.377	-106.781	-0.356	-0.078
-202.363	-200.000	-0.004	-0.062
-201.348	10.287	0.185	-0.139
-200.333	-200.000	0.010	-0.146
-199.319	-200.000	-0.076	-0.394
-198.304	-200.000	-0.029	0.250
-197.290	-200.000	-0.010	0.215
-196.275	-74.318	0.284	-0.101
-195.260	800.000	-0.087	-0.289
-194.246	-123.366	0.094	0.015
-193.231	-95.596	0.287	-0.076
-192.217	60.920	-0.198	-0.194
-191.202	-90.003	0.168	0.049
-190.187	-81.297	-0.232	0.076
-189.173	49.467	0.045	0.042
-188.158	141.792	0.141	-0.185
-187.144	192.006	-0.139	0.208
-186.129	209.870	0.050	0.078
-185.114	800.000	0.061	0.186
-184.100	-85.901	-0.157	-0.048
-183.085	20.734	0.042	0.034
-182.071	-87.199	0.277	-0.083
-181.056	-151.900	0.083	-0.006
-180.042	800.000	-0.074	0.260
-179.027	32.538	-0.244	0.208
-178.012	109.463	0.155	0.184
-176.998	-75.080	0.181	-0.064
-175.983	-175.038	-0.136	0.004
-174.969	-84.340	0.241	-0.075
-173.954	-88.659	0.403	-0.118
-172.939	-200.000	0.019	0.346
-171.925	-97.638	-0.156	-0.040
-170.910	-200.000	-0.044	0.232
-169.896	-38.012	0.172	-0.090
-168.881	-29.254	0.434	0.245
-167.866	109.525	-0.165	-0.196
-166.852	212.600	0.266	0.414
-165.837	778.685	0.051	0.137
-164.823	-200.000	-0.061	0.432
-163.808	-11.626	0.060	0.039
-162.793	-166.818	0.486	0.020
-161.779	-57.217	0.169	-0.074
-160.764	17.056	0.244	0.191
-159.750	-76.405	0.129	0.045
-158.735	-100.311	0.399	0.098
-157.720	-154.805	-0.091	0.006
-156.706	500.890	-0.098	-0.223
-155.691	-5.318	-0.090	0.061
-154.677	-45.535	0.291	-0.142
-153.662	-75.160	0.246	-0.087
-152.647	585.132	0.013	0.033
-151.633	-22.088	-0.394	-0.236
-150.618	-49.283	-0.230	-0.108
-149.604	-99.084	0.260	-0.065
-148.589	-26.935	-0.257	0.148
-147.574	107.197	-0.156	-0.183
-146.560	-101.058	0.113	-0.027
-145.545	-200.000	-0.013	-0.091
-144.531	-146.630	-0.363	-0.031
-143.516	800.000	-0.014	0.058
-142.502	-32.855	0.324	-0.177
-141.487	-68.043	0.220	0.085
-140.472	-200.000	-0.009	0.046
-139.458	-46.451	-0.115	0.056
-138.443	46.918	-0.111	0.102
-137.429	-49.732	0.242	0.114
-136.414	30.106	-0.131	0.110
-135.399	-200.000	-0.015	-0.112
-134.385	-98.585	-0.163	0.041
-133.370	-83.329	-0.293	-0.093
-132.356	18.353	-0.233	0.184
-131.341	136.644	0.085	-0.109
-130.326	-34.023	-0.140	-0.076
-129.312	-57.722	0.233	0.101
-128.297	-24.738	-0.042	0.025
-127.283	368.326	0.065	0.130
-126.268	-200.000	0.019	0.209
-125.253	-59.535	-0.322	0.136
-124.239	-49.506	-0.127	0.060
-123.224	-32.591	-0.204	0.112
-122.210	-200.000	0.052	-0.267
-121.195	276.152	-0.125	0.218
-120.180	-191.021	0.183	-0.002
-119.166	-200.000	0.088	0.434
-118.151	800.000	-0.034	-0.128
-117.137	254.085	0.057	-0.096
-116.122	291.405	-0.227	0.406
-115.107	-200.000	0.000	-0.046
-114.093	652.150	0.034	0.085
-113.078	-177.344	0.158	-0.004
-112.064	587.681	0.073	-0.176
-111.049	-128.234	0.277	-0.039
-110.034	-200.000	-0.042	-0.184
-109.020	-125.534	-0.486	-0.073
-108.005	800.000	0.111	0.314
-106.991	-112.845	-0.191	0.037
-105.976	624.472	0.004	-0.010
-104.962	-21.950	-0.147	0.088
-103.947	-154.826	-0.459	-0.030
-102.932	-3.799	-0.253	-0.173
-101.918	-26.075	0.197	0.114
-100.903	-200.000	0.049	-0.231
-99.889	-21.432	0.171	0.103
-98.874	-45.793	-0.547	0.266
-97.859	350.676	0.215	-0.419
-96.845	-103.641	-0.133	0.031
-95.830	-200.000	0.042	-0.235
-94.816	-27.928	-0.061	0.035
-93.801	-49.645	0.242	-0.114
-92.786	-113.616	0.260	0.050
-91.772	-133.400	0.072	0.009
-90.757	47.060	-0.048	-0.044
-89.743	800.000	-0.048	-0.130
-88.728	-55.840	-0.037	-0.016
-87.713	280.653	-0.045	-0.079
-86.699	302.706	-0.012	-0.021
-85.684	-75.270	-0.075	-0.026
-84.670	-131.032	0.160	-0.021
-83.655	-150.309	-0.376	0.029
-82.640	-106.880	0.280	0.061
-81.626	-159.229	0.428	-0.024
-80.611	-44.520	0.061	-0.030
-79.597	-200.000	0.025	-0.164
-78.582	-200.000	0.004	0.432
-77.567	-120.973	0.216	0.036
-76.553	166.212	-0.226	0.315
-75.538	407.102	0.047	-0.097
-74.524	75.399	-0.137	0.143
-73.509	-82.987	-0.264	-0.084
-72.494	116.682	-0.124	-0.150
-71.480	-148.207	0.050	-0.004
-70.465	39.854	-0.060	-0.053
-69.451	390.987	0.210	-0.428
-68.436	327.757	-0.151	-0.285
-67.422	23.143	0.096	0.078
-66.407	362.941	-0.069	0.136
-65.392	246.787	-0.091	0.151
-64.378	-200.000	-0.048	0.271
-63.363	-65.653	-0.154	-0.061
-62.349	30.527	0.131	-0.110
-61.334	10.729	-1.141	-0.856
-60.319	176.518	0.342	0.489
-59.305	731.298	-0.348	-0.914
-58.290	502.993	0.551	1.253
-57.276	-200.000	0.364	1.658
-56.261	-200.000	96.721	598.162
-55.246	557.226	1369.708	3245.748
-54.232	162.026	2547.520	3508.331
-53.217	111.797	2154.259	2556.501
-52.203	42.299	1699.217	1517.896
-51.188	34.854	1511.796	1300.033
-50.173	32.395	1485.302	1260.749
-49.159	51.874	1534.822	1435.898
-48.144	53.642	1552.626	1464.547
-47.130	35.013	1512.519	1301.531
-46.115	31.883	1497.523	1267.458
-45.100	31.607	1494.102	1262.651
-44.086	31.732	1492.098	1261.754
-43.071	31.610	1489.910	1259.029
-42.057	31.609	1488.641	1257.903
-41.042	31.647	1487.134	1256.830
-40.027	31.554	1485.997	1255.197
-39.013	31.615	1484.128	1253.975
-37.998	31.604	1483.044	1252.940
-36.984	31.644	1481.735	1252.053
-35.969	31.669	1479.898	1250.618
-34.954	31.632	1479.272	1249.793
-33.940	31.648	1477.874	1248.665
-32.925	31.638	1476.231	1247.161
-31.911	31.652	1475.226	1246.356
-30.896	31.719	1473.522	1245.312
-29.881	31.798	1472.273	1244.736
-28.867	31.713	1471.107	1243.136
-27.852	31.711	1469.366	1241.603
-26.838	31.705	1468.300	1240.613
-25.823	31.698	1466.442	1238.942
-24.809	31.780	1464.345	1237.668
-23.794	31.744	1463.495	1236.660
-22.779	31.687	1462.589	1235.471
-21.765	31.841	1460.813	1234.936
-20.750	31.695	1460.238	1233.439
-19.736	31.669	1459.653	1232.726
-18.721	31.580	1457.921	1230.629
-17.706	31.645	1456.639	1229.922
-16.692	31.607	1455.624	1228.766
-15.677	31.610	1454.919	1228.146
-14.663	31.545	1454.041	1226.929
-13.648	31.615	1452.538	1226.067
-12.633	31.581	1451.954	1225.305
-11.619	31.638	1451.169	1224.965
-10.604	31.519	1450.597	1223.660
-9.590	31.550	1449.806	1223.145
-8.575	31.477	1449.260	1222.159
-7.560	31.661	1447.680	1221.979
-6.546	31.594	1446.665	1220.638
-5.531	31.531	1445.948	1219.570
-4.517	31.449	1445.284	1218.425
-3.502	31.564	1444.362	1218.354
-2.487	31.599	1442.368	1216.849
-1.473	31.486	1442.216	1215.937
-0.458	31.549	1440.995	1215.271
0.556	32.052	1431.127	1204.402
1.571	29.497	1406.204	1167.186
2.586	26.487	1349.878	1102.039
3.600	25.107	1271.690	1030.185
4.615	23.864	1225.552	985.834
5.629	20.227	1167.613	919.896
6.644	10.404	1081.946	803.819
7.659	3.104	1040.250	737.854
8.673	2.284	1035.126	730.238
9.688	2.037	1031.861	726.692
10.702	1.899	1030.173	724.783
11.717	1.732	1028.502	722.751
12.731	4.997	1031.447	740.278
13.746	14.539	1044.958	795.623
14.761	22.556	1056.380	842.749
15.775	24.927	1058.420	855.648
16.790	25.407	1058.144	857.644
17.804	25.252	1057.178	856.042
18.819	25.070	1056.111	854.237
19.834	25.187	1055.484	854.212
20.848	25.285	1055.122	854.308
21.863	25.394	1055.282	854.881
22.877	25.371	1054.779	854.289
23.892	25.399	1053.870	853.609
24.907	25.276	1053.199	852.405
25.921	25.303	1052.225	851.670
26.936	25.280	1051.449	850.861
27.950	25.260	1050.808	850.173
28.965	25.310	1049.113	848.959
29.980	25.161	1047.718	847.055
30.994	25.179	1046.452	846.040
32.009	25.367	1046.024	846.504
33.023	25.492	1045.764	846.808
34.038	25.189	1044.298	844.122
35.053	25.282	1043.429	843.778
36.067	25.375	1042.682	843.537
37.082	25.256	1042.353	842.642
38.096	25.478	1041.172	842.651
39.111	25.427	1040.880	842.103
40.126	25.700	1039.815	842.442
41.140	25.628	1038.593	841.040
42.155	25.291	1037.162	838.235
43.169	24.938	1035.941	835.527
44.184	24.875	1035.122	834.498
45.199	24.956	1033.990	833.892
46.213	24.892	1033.113	832.810
47.228	24.901	1032.360	832.174
48.242	25.073	1031.780	832.432
49.257	25.205	1031.346	832.620
50.271	25.158	1030.261	831.450
51.286	25.315	1029.723	831.672
52.301	25.483	1028.590	831.461
53.315	25.463	1027.740	830.605
54.330	25.314	1027.582	829.718
55.344	25.256	1026.797	828.741
56.359	25.296	1025.943	828.162
57.374	25.380	1024.662	827.442
58.388	25.113	1023.931	825.551
59.403	25.044	1023.321	824.671
60.417	25.037	1022.176	823.640
61.432	24.984	1021.425	822.720
62.447	24.939	1020.978	822.081
63.461	25.204	1020.458	822.804
64.476	25.246	1019.168	821.881
65.490	25.051	1018.847	820.661
66.505	24.963	1017.620	819.198
67.520	25.020	1017.063	818.934
68.534	25.151	1016.290	818.837
69.549	25.040	1015.190	817.374
70.563	24.716	1013.968	814.842
71.578	24.569	1013.227	813.504
72.593	24.519	1012.590	812.693
73.607	24.378	1011.392	811.020
74.622	24.516	1010.514	810.872
75.636	24.853	1009.817	811.767
76.651	24.806	1009.341	811.099
77.666	24.870	1008.205	810.405
78.680	24.743	1007.141	808.902
79.695	24.789	1006.523	808.546
80.709	24.819	1006.207	808.355
81.724	24.867	1005.584	808.000
82.739	24.998	1004.278	807.468
83.753	25.036	1003.393	806.854
84.768	25.226	1003.145	807.439
85.782	25.484	1003.172	808.553
86.797	25.739	1002.192	808.839
87.812	25.644	1001.117	807.471
88.826	25.396	1000.508	805.798
89.841	25.567	999.300	805.520
90.855	25.565	998.446	804.749
91.870	25.528	997.936	804.099
92.884	25.585	996.913	803.461
93.899	25.554	995.832	802.379
94.914	25.470	994.900	801.184
95.928	25.663	994.308	801.496
96.943	25.502	993.571	800.114
97.957	25.304	992.098	797.977
98.972	24.963	991.195	795.665
99.987	24.889	990.421	794.644
101.001	24.847	989.771	793.870
102.016	25.173	989.694	795.183
103.030	25.162	988.735	794.289
104.045	25.275	986.986	793.315
105.060	25.051	985.874	791.365
106.074	24.800	985.164	789.616
107.089	25.117	983.839	789.881
108.103	25.284	983.982	790.662
109.118	25.468	983.029	790.633
110.133	25.168	981.895	788.336
111.147	25.110	980.763	787.100
112.162	24.936	979.846	785.534
113.176	24.700	978.563	783.401
114.191	24.691	978.517	783.253
115.206	25.037	977.532	783.909
116.220	24.750	975.843	781.235
117.235	24.520	975.176	779.628
118.249	24.666	974.663	779.784
119.264	24.744	973.892	779.438
120.279	24.631	972.914	778.094
121.293	24.577	972.393	777.374
122.308	24.763	971.658	777.528
123.322	24.747	970.851	776.741
124.337	24.630	969.754	775.290
125.352	24.600	968.213	773.859
126.366	24.232	966.674	770.967
127.381	23.853	966.065	768.777
128.395	24.401	965.677	770.765
129.410	24.999	965.226	772.918
130.424	25.194	964.483	773.097
131.439	25.284	963.694	772.785
132.454	25.307	962.075	771.517
133.468	25.107	961.975	770.507
134.483	25.055	961.315	769.687
135.497	25.046	960.583	768.995
136.512	25.449	959.793	770.020
137.527	25.362	959.270	769.163
138.541	25.415	958.830	768.968
139.556	25.323	958.007	767.848
140.570	25.478	956.719	767.408
141.585	25.550	955.861	766.957
142.600	25.604	955.171	766.569
143.614	25.455	954.756	765.532
144.629	25.691	953.358	765.348
145.643	25.839	953.066	765.674
146.658	25.541	952.061	763.534
147.673	25.540	950.636	762.319
148.687	25.395	949.613	760.818
149.702	25.161	949.239	759.457
150.716	25.036	948.253	758.075
151.731	25.148	946.970	757.452
152.746	25.233	946.016	756.985
153.760	25.509	945.784	757.895
154.775	25.421	945.173	756.965
155.789	25.799	943.994	757.544
156.804	25.686	943.108	756.295
157.819	25.599	941.950	754.932
158.833	25.646	941.215	754.475
159.848	25.691	940.638	754.132
160.862	25.644	940.012	753.369
161.877	25.667	938.857	752.470
162.892	25.613	937.622	751.188
163.906	25.652	937.331	751.053
164.921	25.510	936.862	750.017
165.935	25.399	935.493	748.393
166.950	25.717	934.324	748.715
167.964	25.557	933.953	747.688
168.979	25.632	932.644	746.883
169.994	25.514	931.468	745.386
171.008	25.373	930.776	744.184
172.023	25.526	930.345	744.405
173.037	25.557	929.755	743.994
174.052	25.496	928.394	742.589
175.067	25.289	927.422	740.890
176.081	25.280	926.294	739.889
177.096	25.348	925.746	739.665
178.110	25.315	924.979	738.851
179.125	25.154	923.909	737.269
180.140	25.021	922.767	735.748
181.154	25.114	922.544	735.887
182.169	25.040	921.963	735.054
183.183	25.232	921.890	735.715
184.198	25.639	921.084	736.676
185.213	25.430	920.914	735.617
186.227	25.571	919.799	735.238
187.242	25.663	919.768	735.527
188.256	25.630	919.056	734.758
189.271	25.661	917.892	733.886
190.286	25.831	917.264	734.014
191.300	25.553	916.294	732.041
192.315	25.033	914.727	728.610
193.329	24.344	912.829	724.236
194.344	23.826	912.587	721.879
195.359	24.435	913.126	724.713
196.373	25.142	913.170	727.552
197.388	25.599	912.839	729.079
198.402	25.455	912.151	727.883
199.417	25.481	911.714	727.573
200.432	25.512	911.293	727.299
201.446	25.449	910.479	726.332
202.461	25.039	909.795	724.064
203.475	25.142	909.199	723.944
204.490	24.758	907.804	721.220
205.504	23.601	905.742	714.860
206.519	24.002	905.598	716.296
207.534	24.961	906.084	720.476
208.548	25.160	905.384	720.655
209.563	25.387	905.404	721.521
210.577	25.388	904.848	721.020
211.592	25.204	903.493	719.136
212.607	25.482	903.829	720.456
213.621	25.740	903.281	720.990
214.636	25.640	902.287	719.731
215.650	25.662	901.925	719.465
216.665	25.640	901.108	718.663
217.680	25.693	900.853	718.608
218.694	25.696	900.449	718.237
219.709	25.286	899.620	715.874
220.723	24.949	898.718	713.750
221.738	25.431	897.818	714.892
222.753	25.461	897.713	714.863
223.767	25.310	897.278	713.855
224.782	25.597	895.920	713.850
225.796	25.576	895.712	713.538
226.811	25.748	895.156	713.713
227.826	25.379	893.713	711.037
228.840	24.513	892.484	706.571
229.855	24.565	891.602	706.017
230.869	24.881	891.223	706.902
231.884	24.458	890.380	704.503
232.899	24.385	890.002	703.854
233.913	25.214	890.490	707.450
234.928	25.470	889.703	707.769
235.942	25.392	888.827	706.701
236.957	25.405	888.207	706.199
237.972	25.124	887.322	704.327
238.986	24.952	886.881	703.239
240.001	25.176	886.101	703.439
241.015	25.025	885.613	702.398
242.030	25.212	884.837	702.451
243.045	25.383	884.405	702.716
244.059	25.342	884.366	702.461
245.074	25.555	883.524	702.563
246.088	25.473	882.764	701.575
247.103	25.051	881.953	699.222
248.117	25.150	881.513	699.200
249.132	25.850	881.213	701.625
250.147	26.290	880.880	703.010
251.161	26.287	880.238	702.427
252.176	26.394	879.977	702.570
253.190	26.314	879.613	701.909
254.205	26.319	879.488	701.765
255.220	26.480	879.179	702.080
256.234	26.549	877.937	701.296
257.249	26.453	877.273	700.330
258.263	26.230	876.936	699.138
259.278	26.288	876.398	698.872
260.293	26.344	876.023	698.726
261.307	26.400	875.449	698.420
262.322	26.261	875.090	697.536
263.336	26.155	873.984	696.183
264.351	25.768	872.616	693.542
265.366	24.772	870.587	688.042
266.380	24.385	869.856	685.916
267.395	25.272	870.224	689.552
268.409	25.936	870.546	692.297
269.424	25.862	869.803	691.361
270.439	26.073	869.430	691.816
271.453	26.139	868.905	691.587
272.468	26.160	867.947	690.843
273.482	26.433	867.233	691.259
274.497	26.366	867.335	691.021
275.512	26.392	865.722	689.776
276.526	25.729	864.907	686.537
277.541	25.876	864.539	686.745
278.555	26.218	864.341	687.829
279.570	26.065	863.590	686.587
280.585	25.924	862.760	685.334
281.599	26.021	862.720	685.610
282.614	26.155	861.882	685.391
283.628	25.555	861.164	682.484
284.643	25.358	860.252	680.952
285.657	25.861	859.762	682.410
286.672	25.630	859.265	681.080
287.687	25.134	858.204	678.306
288.701	25.514	858.513	679.925
289.716	25.906	857.917	680.876
290.730	25.462	857.251	678.610
291.745	25.454	856.175	677.667
292.760	25.052	855.349	675.440
293.774	24.979	855.078	674.889
294.789	26.120	855.567	679.514
295.803	26.727	855.956	682.050
296.818	26.694	854.739	680.896
297.833	26.853	854.673	681.381
298.847	26.532	853.424	679.120
299.862	26.151	852.515	676.906
300.876	26.290	852.235	677.145
301.891	26.720	851.699	678.268
302.906	26.664	851.377	677.743
303.920	26.497	850.064	676.016
304.935	26.206	849.638	674.528
305.949	26.585	849.505	675.779
306.964	26.820	848.913	676.124
307.979	26.554	847.859	674.234
308.993	26.387	847.595	673.344
310.008	26.829	847.492	674.847
311.022	26.991	846.788	674.830
312.037	26.822	846.366	673.806
313.052	26.463	845.875	672.021
314.066	26.333	845.385	671.090
315.081	25.665	843.288	666.891
316.095	24.820	842.264	662.892
317.110	25.431	842.701	665.445
318.125	26.320	843.042	668.945
319.139	25.857	841.734	666.136
320.154	24.811	839.860	660.735
321.168	24.255	839.253	658.147
322.183	24.971	839.444	660.882
323.197	26.099	839.660	665.154
324.212	26.161	839.276	665.017
325.227	26.303	839.133	665.366
326.241	26.652	838.422	666.030
327.256	26.434	837.920	664.770
328.270	26.394	837.247	664.030
329.285	26.185	836.552	662.653
330.300	26.102	836.080	661.918
331.314	25.825	835.254	660.190
332.329	25.883	834.740	659.937
333.343	26.190	834.356	660.699
334.358	26.559	834.128	661.809
335.373	26.530	833.346	661.025
336.387	26.576	833.072	660.918
337.402	26.851	832.657	661.533
338.416	27.104	832.171	662.009
339.431	26.996	831.571	661.079
340.446	27.073	830.817	660.702
341.460	27.310	830.734	661.438
342.475	27.159	830.268	660.459
343.489	27.021	829.221	659.070
344.504	26.840	829.137	658.287
345.519	27.224	828.579	659.178
346.533	27.526	827.902	659.674
347.548	27.458	827.863	659.338
348.562	27.498	827.697	659.295
349.577	27.380	827.001	658.253
350.592	27.294	826.209	657.253
351.606	27.246	825.986	656.846
352.621	27.392	825.397	656.847
353.635	27.177	824.717	655.474
354.650	27.240	824.160	655.197
355.665	26.811	823.018	652.688
356.679	25.779	821.513	647.729
357.694	25.855	820.978	647.522
358.708	26.357	821.334	649.550
359.723	26.529	820.146	649.170
360.738	26.595	820.006	649.237
361.752	26.860	820.254	650.326
362.767	26.932	819.869	650.221
363.781	27.242	820.064	651.431
364.796	27.581	819.502	652.138
365.810	27.775	818.989	652.365
366.825	27.770	818.927	652.241
367.840	27.759	818.487	651.794
368.854	27.606	817.718	650.579
369.869	27.126	816.770	648.054
370.883	26.977	816.035	646.883
371.898	26.977	815.849	646.678
372.913	26.998	814.901	645.945
373.927	27.040	814.905	646.040
374.942	27.181	813.831	645.633
375.956	27.279	813.672	645.798
376.971	27.381	812.803	645.413
377.986	27.461	812.349	645.279
379.000	27.676	812.152	645.827
380.015	27.766	811.384	645.476
381.029	27.592	810.719	644.277
382.044	27.540	810.047	643.500
383.059	27.651	809.749	643.597
384.073	27.667	809.837	643.666
385.088	27.645	808.852	642.750
386.102	27.720	808.301	642.521
387.117	27.479	807.812	641.227
388.132	27.297	806.925	639.824
389.146	27.011	806.822	638.682
390.161	26.494	805.739	635.951
391.175	26.572	805.590	636.051
392.190	27.213	805.524	638.194
393.205	27.405	804.442	637.951
394.219	26.325	802.954	632.935
395.234	24.738	800.541	625.434
396.248	23.773	799.359	621.082
397.263	25.042	800.334	626.224
398.278	26.791	801.952	633.550
399.292	27.451	800.988	635.036
400.307	26.991	800.786	633.215
401.321	26.990	800.193	632.688
402.336	27.033	799.958	632.595
403.350	27.269	800.087	633.463
404.365	27.701	799.929	634.785
405.380	28.087	799.575	635.793
406.394	28.333	799.469	636.507
407.409	28.488	799.328	636.875
408.423	28.398	798.683	635.992
409.438	28.319	798.132	635.224
410.453	28.318	798.083	635.125
411.467	28.435	797.408	634.937
412.482	28.408	796.652	634.185
413.496	28.410	796.360	633.904
414.511	28.423	795.943	633.560
415.526	28.428	795.462	633.139
416.540	28.473	795.198	633.028
417.555	28.168	794.851	631.643
418.569	28.114	793.798	630.565
419.584	28.052	793.178	629.804
420.599	28.126	792.992	629.855
421.613	111.540	1286.527	1460.343
422.628	96.029	1358.406	1460.464
