DTS Sentinel unit serial number:	SN413079Multiplexer serial number:	ORYXHardware model number:	OX4-SRSoftware version number:	ORYX F/W v4.00 Oryx Data Collector v3.7.2.0data status	okinstallation	princeton_trtdifferential loss correction	single-endedforward channel	channel 3reverse channel	N/Adate	2019/09/17time	08:08:35forward acquisition time	60.00reverse acquisition time	0.00gamma	496.2192k internal	0.2334k external	0.2334temperature offset calibration	0.9938default loss term (dB/km)	0.3790temperature slope calibration	1.0000multiplexer offset coefficient	1.0000multiplexer slope coefficient	1.0000fibre end	0.00T internal ref (°C)	27.31T ext. ref 1 (°C)	0.12T ext. ref 2 (°C)	22.58length (m)	temperature (°C)	Stokes	anti-Stokes-747.200	242.516	-0.103	0.174
-746.185	56.313	-0.235	-0.229
-745.171	-19.657	0.083	0.051
-744.156	93.632	-0.213	0.242
-743.142	-153.450	0.376	0.026
-742.127	800.000	0.077	0.219
-741.112	-195.126	-0.297	-0.002
-740.098	108.986	-0.116	0.140
-739.083	-145.968	-0.240	0.021
-738.069	-200.000	0.015	0.130
-737.054	-16.396	0.098	0.062
-736.039	-200.000	-0.068	0.335
-735.025	-200.000	0.117	0.587
-734.010	-156.544	-0.324	-0.020
-732.996	-200.000	-0.002	-0.204
-731.981	-200.000	0.066	0.000
-730.966	-110.719	-0.416	-0.086
-729.952	122.427	-0.099	0.124
-728.937	-42.827	-0.226	-0.115
-727.923	800.000	0.052	-0.216
-726.908	20.463	-0.083	0.067
-725.894	360.148	0.105	-0.212
-724.879	800.000	-0.090	0.287
-723.864	167.096	-0.072	-0.103
-722.850	-94.362	-0.384	0.105
-721.835	-200.000	0.001	0.102
-720.821	-200.000	-0.014	-0.098
-719.806	-2.289	0.289	0.203
-718.791	-179.018	0.192	-0.004
-717.777	800.000	0.102	0.412
-716.762	350.138	0.075	-0.150
-715.748	612.963	0.079	-0.198
-714.733	-55.740	0.357	-0.160
-713.718	-38.878	0.188	-0.100
-712.704	117.546	0.080	0.098
-711.689	229.021	0.131	0.215
-710.675	787.325	0.032	-0.087
-709.660	800.000	-0.054	0.155
-708.645	38.556	-0.148	0.133
-707.631	42.636	0.123	0.112
-706.616	-144.750	-0.152	0.014
-705.602	-101.876	0.259	-0.063
-704.587	-137.140	-0.168	0.019
-703.572	-38.866	-0.262	0.139
-702.558	26.487	0.037	0.031
-701.543	800.000	-0.058	0.254
-700.529	-127.325	0.214	-0.031
-699.514	74.611	-0.156	0.165
-698.499	410.177	0.166	0.352
-697.485	-26.527	0.041	-0.024
-696.470	168.217	-0.117	-0.167
-695.456	65.331	0.166	0.169
-694.441	-49.585	0.202	0.097
-693.426	26.101	-0.138	0.116
-692.412	-117.127	-0.260	0.048
-691.397	-36.007	0.221	-0.120
-690.383	800.000	0.056	0.207
-689.368	-49.250	0.260	-0.125
-688.354	2.697	-0.282	0.205
-687.339	-96.643	-0.238	0.063
-686.324	-23.783	-0.166	0.099
-685.310	800.000	0.085	0.249
-684.295	-2.246	-0.052	-0.036
-683.281	-200.000	0.026	-0.341
-682.266	116.130	-0.148	0.182
-681.251	-48.376	-0.085	-0.041
-680.237	-88.121	0.283	0.085
-679.222	-116.380	0.073	0.014
-678.208	64.611	-0.280	-0.283
-677.193	-93.500	-0.247	-0.068
-676.178	-39.601	-0.117	0.061
-675.164	-49.944	0.143	-0.068
-674.149	555.596	-0.076	-0.185
-673.135	45.439	-0.418	0.386
-672.120	-200.000	-0.016	0.080
-671.105	-44.138	-0.283	-0.142
-670.091	-10.762	-0.229	-0.152
-669.076	-26.173	-0.172	0.101
-668.062	800.000	-0.094	0.278
-667.047	71.089	-0.226	-0.235
-666.032	-126.295	-0.150	-0.022
-665.018	236.794	-0.092	0.152
-664.003	-143.595	-0.196	-0.019
-662.989	-30.848	-0.136	-0.077
-661.974	21.211	0.009	-0.007
-660.959	-200.000	0.067	0.403
-659.945	-200.000	-0.028	-0.235
-658.930	-80.745	-0.036	0.012
-657.916	333.504	-0.053	0.102
-656.901	-72.451	0.175	-0.065
-655.886	-142.785	0.158	0.015
-654.872	30.588	0.246	-0.211
-653.857	78.904	0.048	0.051
-652.843	-200.000	-0.014	-0.257
-651.828	-200.000	0.004	-0.393
-650.814	-91.772	-0.059	-0.017
-649.799	-4.741	0.101	-0.070
-648.784	-200.000	0.029	-0.234
-647.770	135.485	0.141	0.183
-646.755	16.252	0.062	0.049
-645.741	-55.935	-0.344	-0.154
-644.726	-200.000	-0.005	-0.039
-643.711	32.156	-0.324	0.280
-642.697	-200.000	0.026	0.308
-641.682	58.391	0.222	0.218
-640.668	123.079	0.062	0.078
-639.653	-103.783	-0.383	-0.090
-638.638	-119.813	-0.331	-0.057
-637.624	-15.854	-0.080	-0.051
-636.609	-0.256	0.181	-0.129
-635.595	-21.865	-0.043	-0.026
-634.580	283.447	0.136	0.244
-633.565	266.796	0.106	0.186
-632.551	-200.000	-0.064	0.424
-631.536	-200.000	-0.031	0.235
-630.522	16.513	-0.166	-0.131
-629.507	12.050	0.067	0.051
-628.492	-53.202	0.058	0.027
-627.478	-200.000	0.064	-0.366
-626.463	96.399	-0.199	0.228
-625.449	-54.236	-0.333	0.152
-624.434	21.315	0.226	-0.184
-623.419	-200.000	-0.005	0.388
-622.405	-129.212	0.216	-0.030
-621.390	-200.000	-0.023	0.170
-620.376	-112.382	0.234	-0.047
-619.361	65.961	-0.186	0.189
-618.346	168.893	0.134	0.191
-617.332	-101.622	-0.319	0.078
-616.317	110.216	-0.279	-0.335
-615.303	-8.330	-0.178	0.119
-614.288	94.991	-0.116	0.132
-613.273	-200.000	0.017	0.077
-612.259	-74.314	0.145	0.052
-611.244	-28.823	-0.081	0.047
-610.230	231.050	-0.234	0.383
-609.215	-36.380	0.382	-0.206
-608.201	-200.000	0.034	0.256
-607.186	57.909	0.148	-0.145
-606.171	-3.158	-0.376	0.262
-605.157	-61.693	0.215	0.090
-604.142	156.950	-0.194	-0.267
-603.128	-80.397	-0.088	0.029
-602.113	800.000	-0.100	-0.325
-601.098	427.728	0.072	0.156
-600.084	-89.296	0.282	-0.083
-599.069	158.527	0.112	-0.155
-598.055	-9.745	-0.043	-0.029
-597.040	-101.414	0.341	-0.083
-596.025	-140.937	-0.033	0.003
-595.011	-87.517	-0.506	-0.153
-593.996	-58.453	-0.245	0.106
-592.982	165.051	-0.133	-0.188
-591.967	-42.332	0.134	0.068
-590.952	365.086	0.027	-0.054
-589.938	800.000	-0.047	-0.153
-588.923	-38.189	-0.167	-0.088
-587.909	-66.253	-0.162	0.065
-586.894	125.915	-0.058	-0.073
-585.879	-85.524	-0.359	-0.112
-584.865	49.990	0.077	0.072
-583.850	27.447	-0.258	-0.217
-582.836	800.000	0.078	0.307
-581.821	-110.838	-0.204	0.042
-580.806	-200.000	-0.055	-0.259
-579.792	-113.819	-0.173	-0.034
-578.777	-144.236	0.118	-0.011
-577.763	-0.367	-0.079	-0.056
-576.748	-75.926	-0.160	-0.057
-575.733	71.488	0.452	-0.469
-574.719	-85.219	0.044	-0.014
-573.704	-50.319	0.156	-0.074
-572.690	159.759	-0.054	-0.075
-571.675	-200.000	-0.034	0.269
-570.661	-200.000	0.013	-0.209
-569.646	-145.216	-0.285	0.026
-568.631	151.300	-0.177	-0.241
-567.617	589.463	0.072	-0.177
-566.602	4.628	-0.151	-0.111
-565.588	14.655	-0.165	0.129
-564.573	800.000	0.067	-0.233
-563.558	-139.806	0.239	-0.025
-562.544	49.355	0.147	0.138
-561.529	103.184	-0.077	-0.090
-560.515	2.209	-0.252	-0.182
-559.500	512.507	0.040	-0.093
-558.485	146.476	0.162	-0.217
-557.471	237.437	-0.170	-0.282
-556.456	760.255	0.049	0.133
-555.442	14.972	0.408	0.318
-554.427	-50.679	0.325	0.153
-553.412	-65.787	-0.198	-0.079
-552.398	80.671	0.114	-0.122
-551.383	-199.010	0.427	0.002
-550.369	-155.309	0.195	-0.013
-549.354	121.925	-0.321	-0.400
-548.339	-0.538	0.242	0.171
-547.325	215.852	-0.109	-0.172
-546.310	223.486	-0.162	-0.260
-545.296	31.496	-0.120	0.103
-544.281	-200.000	0.009	0.132
-543.266	98.860	-0.182	-0.209
-542.252	32.771	-0.013	-0.011
-541.237	122.406	0.104	-0.129
-540.223	-200.000	0.040	0.280
-539.208	-200.000	-0.006	0.161
-538.193	-200.000	0.021	-0.495
-537.179	-157.305	0.193	-0.012
-536.164	94.955	-0.220	-0.249
-535.150	74.861	0.210	0.221
-534.135	9.543	0.316	0.239
-533.121	-200.000	0.003	-0.090
-532.106	691.761	-0.098	0.256
-531.091	-50.037	0.181	-0.085
-530.077	-81.419	-0.169	0.055
-529.062	-200.000	-0.004	-0.356
-528.048	362.269	0.128	-0.256
-527.033	-4.096	-0.190	-0.131
-526.018	11.125	0.074	0.056
-525.004	-99.567	-0.315	-0.079
-523.989	-32.353	0.227	0.126
-522.975	11.315	-0.217	-0.166
-521.960	800.000	-0.098	0.276
-520.945	-16.636	0.175	0.110
-519.931	246.166	0.140	0.235
-518.916	79.835	0.130	0.139
-517.902	-200.000	-0.061	-0.326
-516.887	-106.977	-0.164	-0.036
-515.872	-60.756	-0.267	0.113
-514.858	-139.227	0.309	-0.033
-513.843	-200.000	0.004	-0.246
-512.829	701.404	0.108	-0.282
-511.814	-60.551	0.166	-0.070
-510.799	215.467	-0.158	-0.250
-509.785	-200.000	-0.023	0.117
-508.770	20.913	-0.226	-0.182
-507.756	17.024	0.080	-0.063
-506.741	-200.000	0.029	0.572
-505.726	149.231	-0.134	0.181
-504.712	21.543	-0.117	-0.095
-503.697	33.316	0.207	0.179
-502.683	800.000	-0.046	0.177
-501.668	119.722	-0.072	0.089
-500.653	-143.433	0.211	0.020
-499.639	-200.000	0.008	0.131
-498.624	800.000	0.069	0.292
-497.610	800.000	0.018	-0.074
-496.595	-99.485	0.107	0.027
-495.581	-200.000	-0.029	-0.154
-494.566	-63.798	-0.341	0.139
-493.551	-200.000	0.018	0.118
-492.537	370.047	-0.050	0.100
-491.522	-200.000	0.005	-0.170
-490.508	272.687	-0.090	0.158
-489.493	-200.000	0.004	0.114
-488.478	43.500	0.322	0.293
-487.464	800.000	-0.068	-0.198
-486.449	-93.675	0.137	0.038
-485.435	-52.973	0.313	-0.143
-484.420	621.655	0.133	0.332
-483.405	-147.088	0.483	-0.041
-482.391	-200.000	0.301	0.001
-481.376	-30.468	0.069	0.039
-480.362	-58.997	0.044	0.019
-479.347	34.821	0.041	0.036
-478.332	800.000	-0.031	0.097
-477.318	800.000	-0.057	0.184
-476.303	-39.906	0.032	0.016
-475.289	83.552	0.156	-0.169
-474.274	800.000	-0.028	-0.116
-473.259	51.653	-0.183	0.173
-472.245	-200.000	0.015	0.085
-471.230	192.444	-0.067	-0.101
-470.216	-113.400	-0.260	0.051
-469.201	85.299	-0.083	0.091
-468.186	-11.713	0.418	-0.273
-467.172	-74.175	0.233	-0.084
-466.157	388.169	-0.056	0.114
-465.143	164.541	-0.106	-0.149
-464.128	-133.935	0.104	0.013
-463.113	-200.000	-0.005	-0.104
-462.099	-97.809	0.077	-0.020
-461.084	212.631	-0.105	-0.165
-460.070	-10.929	-0.174	-0.114
-459.055	-192.373	0.202	0.002
-458.040	281.208	0.031	-0.056
-457.026	800.000	-0.125	-0.400
-456.011	-117.187	-0.371	0.067
-454.997	97.688	-0.159	0.182
-453.982	-79.946	-0.403	-0.134
-452.968	153.224	0.074	-0.100
-451.953	-55.118	0.257	0.115
-450.938	800.000	0.140	0.397
-449.924	-52.020	-0.112	0.052
-448.909	398.403	-0.130	0.270
-447.895	272.763	0.142	0.249
-446.880	-131.539	0.192	-0.025
-445.865	5.056	-0.052	0.038
-444.851	25.635	-0.071	-0.059
-443.836	-139.768	0.127	0.013
-442.822	-13.498	0.181	-0.116
-441.807	-20.118	0.195	0.120
-440.792	-39.310	0.236	-0.123
-439.778	7.389	-0.103	-0.076
-438.763	800.000	-0.113	0.421
-437.749	-62.906	-0.125	0.052
-436.734	125.808	-0.053	0.067
-435.719	-200.000	-0.008	-0.365
-434.705	-200.000	-0.018	0.149
-433.690	-103.485	0.148	-0.034
-432.676	-14.650	0.238	-0.152
-431.661	-103.766	0.094	0.022
-430.646	-70.930	-0.268	0.100
-429.632	8.998	-0.125	0.094
-428.617	-77.786	-0.176	0.060
-427.603	9.929	0.211	0.159
-426.588	44.183	-0.250	-0.227
-425.573	-76.136	0.105	-0.037
-424.559	150.067	0.116	0.156
-423.544	-33.855	-0.166	-0.091
-422.530	-109.099	0.330	0.070
-421.515	91.949	-0.276	-0.309
-420.500	-159.529	-0.307	-0.017
-419.486	-200.000	0.068	-0.299
-418.471	164.618	0.109	-0.152
-417.457	-74.208	-0.185	-0.066
-416.442	-200.000	0.059	0.324
-415.428	12.091	-0.146	0.112
-414.413	-200.000	0.069	-0.515
-413.398	-172.104	-0.142	0.005
-412.384	159.556	-0.162	-0.224
-411.369	-60.581	-0.278	-0.117
-410.355	-57.403	0.221	-0.096
-409.340	-41.410	0.020	-0.010
-408.325	-36.873	-0.094	0.050
-407.311	265.490	0.010	0.017
-406.296	800.000	0.042	0.176
-405.282	-200.000	-0.023	0.187
-404.267	84.173	0.060	-0.065
-403.252	-104.240	0.052	0.012
-402.238	-124.892	-0.038	0.006
-401.223	218.436	-0.180	0.285
-400.209	40.601	0.160	0.143
-399.194	2.773	-0.122	0.088
-398.179	-200.000	-0.006	-0.051
-397.165	240.648	0.202	0.334
-396.150	28.915	0.206	0.173
-395.136	-119.388	0.250	-0.043
-394.121	206.906	0.047	-0.073
-393.106	258.190	0.214	-0.365
-392.092	-73.912	0.131	0.047
-391.077	-200.000	-0.065	0.309
-390.063	5.429	0.053	0.039
-389.048	159.752	0.140	0.193
-388.033	-128.512	-0.240	-0.034
-387.019	-200.000	-0.015	0.107
-386.004	-52.007	0.254	-0.117
-384.990	-147.806	-0.087	-0.007
-383.975	800.000	-0.131	0.438
-382.960	-200.000	0.005	0.266
-381.946	137.305	0.165	0.214
-380.931	273.658	-0.081	0.141
-379.917	-200.000	0.049	0.227
-378.902	-133.247	-0.110	0.014
-377.888	-200.000	-0.018	-0.138
-376.873	181.153	0.155	0.225
-375.858	800.000	0.099	-0.281
-374.844	800.000	-0.057	0.200
-373.829	-200.000	0.044	0.239
-372.815	-200.000	0.021	-0.120
-371.800	-3.435	0.102	0.070
-370.785	136.501	0.159	0.206
-369.771	31.914	-0.297	-0.253
-368.756	-200.000	-0.008	0.044
-367.742	-76.761	0.050	0.017
-366.727	-19.533	0.212	-0.130
-365.712	-200.000	-0.008	-0.150
-364.698	48.699	0.182	-0.169
-363.683	339.232	0.044	-0.085
-362.669	-158.895	-0.133	0.008
-361.654	-188.562	-0.521	-0.006
-360.639	56.183	0.241	0.232
-359.625	616.385	0.096	0.238
-358.610	-14.442	0.196	-0.125
-357.596	717.299	-0.137	0.359
-356.581	-98.598	-0.152	0.038
-355.566	-3.949	-0.216	-0.149
-354.552	-123.347	0.150	0.024
-353.537	141.113	-0.012	0.015
-352.523	112.272	-0.113	0.136
-351.508	174.890	0.295	-0.423
-350.493	-200.000	-0.002	-0.205
-349.479	186.758	-0.182	0.269
-348.464	16.126	-0.171	0.133
-347.450	-38.391	0.174	-0.091
-346.435	800.000	-0.046	0.165
-345.420	116.019	0.319	-0.386
-344.406	-200.000	0.003	0.232
-343.391	-2.232	0.114	0.079
-342.377	-74.845	-0.044	-0.015
-341.362	-200.000	-0.022	-0.402
-340.348	-55.294	-0.137	0.061
-339.333	-82.079	-0.294	-0.095
-338.318	-1.662	0.156	0.109
-337.304	-200.000	0.040	0.196
-336.289	-134.400	-0.156	0.019
-335.275	69.891	0.294	0.300
-334.260	-200.000	0.029	0.134
-333.245	-19.676	0.260	-0.159
-332.231	-99.250	0.140	0.035
-331.216	92.965	-0.111	-0.124
-330.202	-47.810	-0.268	-0.128
-329.187	10.800	-0.072	0.055
-328.172	-82.771	-0.264	0.084
-327.158	606.900	0.015	-0.038
-326.143	-62.140	-0.170	-0.070
-325.129	-23.169	0.290	-0.172
-324.114	47.703	-0.126	-0.116
-323.099	-64.714	-0.161	0.064
-322.085	9.301	0.140	0.105
-321.070	-119.684	0.119	-0.020
-320.056	-74.974	-0.054	0.019
-319.041	75.141	-0.270	-0.281
-318.026	-200.000	0.050	-0.280
-317.012	-25.984	-0.112	0.065
-315.997	115.868	0.065	-0.079
-314.983	-78.529	-0.201	-0.068
-313.968	-200.000	-0.022	-0.313
-312.953	-92.162	-0.040	-0.011
-311.939	-89.807	-0.048	-0.014
-310.924	-200.000	-0.038	-0.252
-309.910	-200.000	-0.000	-0.087
-308.895	-106.074	0.220	-0.049
-307.880	-159.805	0.113	-0.006
-306.866	348.282	0.083	-0.161
-305.851	366.297	0.068	0.135
-304.837	-200.000	0.003	-0.026
-303.822	800.000	-0.098	0.331
-302.807	138.218	0.072	-0.093
-301.793	-200.000	-0.027	-0.178
-300.778	33.867	-0.191	-0.164
-299.764	56.561	0.256	0.246
-298.749	109.295	-0.137	0.162
-297.735	-34.275	0.043	0.023
-296.720	-103.388	-0.224	0.052
-295.705	-48.312	0.459	-0.218
-294.691	-200.000	-0.001	-0.105
-293.676	-200.000	-0.046	-0.282
-292.662	-59.562	0.191	0.081
-291.647	-44.141	0.287	0.142
-290.632	-200.000	0.007	-0.156
-289.618	11.844	-0.158	-0.120
-288.603	674.267	0.099	0.254
-287.589	10.907	-0.144	0.108
-286.574	-10.405	-0.107	-0.070
-285.559	-124.154	0.313	0.048
-284.545	-200.000	0.044	-0.236
-283.530	800.000	0.166	-0.485
-282.516	-200.000	0.061	-0.274
-281.501	77.846	0.107	0.113
-280.486	69.734	-0.142	-0.145
-279.472	-200.000	0.027	0.192
-278.457	800.000	0.115	0.413
-277.443	-126.619	-0.245	-0.036
-276.428	800.000	0.031	-0.090
-275.413	124.074	-0.217	-0.268
-274.399	-200.000	0.049	0.249
-273.384	-63.261	-0.563	0.229
-272.370	-23.919	0.314	0.185
-271.355	-86.995	-0.114	0.034
-270.340	51.836	0.082	0.077
-269.326	794.372	0.075	0.203
-268.311	-15.229	-0.425	0.268
-267.297	-127.795	0.446	0.063
-266.282	-87.507	-0.293	0.087
-265.267	76.063	0.164	-0.171
-264.253	-38.686	0.197	-0.102
-263.238	430.540	-0.013	0.027
-262.224	44.629	-0.297	0.270
-261.209	800.000	0.039	-0.122
-260.195	-25.682	-0.062	0.036
-259.180	-121.663	0.100	0.016
-258.165	-115.579	0.231	-0.043
-257.151	197.216	-0.245	-0.368
-256.136	-200.000	0.197	0.001
-255.122	-43.599	-0.262	0.130
-254.107	-200.000	0.009	0.138
-253.092	-66.767	0.268	0.105
-252.078	684.093	-0.072	-0.186
-251.063	167.221	0.067	0.093
-250.049	-29.439	0.032	-0.018
-249.034	800.000	-0.062	0.186
-248.019	-85.733	0.283	0.087
-247.005	-200.000	-0.031	-0.289
-245.990	74.704	0.209	-0.217
-244.976	385.406	0.203	-0.413
-243.961	84.517	-0.061	0.066
-242.946	-139.623	0.261	0.027
-241.932	-200.000	-0.002	0.123
-240.917	-76.641	-0.319	0.110
-239.903	448.002	-0.070	-0.152
-238.888	-94.528	-0.538	-0.145
-237.873	-41.152	-0.155	-0.079
-236.859	258.363	0.137	-0.232
-235.844	-200.000	0.013	-0.158
-234.830	149.859	-0.275	0.367
-233.815	-11.725	-0.240	0.155
-232.800	190.017	0.070	-0.104
-231.786	-200.000	-0.066	0.327
-230.771	-68.153	-0.127	-0.049
-229.757	800.000	0.032	0.129
-228.742	-145.213	0.111	0.010
-227.727	-200.000	0.043	-0.319
-226.713	800.000	0.042	-0.160
-225.698	119.562	0.077	0.094
-224.684	-162.222	-0.077	-0.004
-223.669	124.792	-0.161	0.200
-222.655	239.354	-0.068	0.112
-221.640	78.652	0.223	-0.235
-220.625	-15.468	-0.215	-0.135
-219.611	-188.001	-0.312	0.004
-218.596	-200.000	-0.029	-0.147
-217.582	327.792	0.168	0.318
-216.567	50.614	0.062	0.057
-215.552	-200.000	-0.031	-0.173
-214.538	800.000	0.146	0.591
-213.523	-200.000	-0.041	-0.257
-212.509	48.036	0.170	-0.157
-211.494	-123.920	-0.369	-0.057
-210.479	-200.000	0.051	-0.252
-209.465	600.290	-0.026	0.064
-208.450	800.000	0.093	0.339
-207.436	711.721	-0.032	0.084
-206.421	27.278	0.181	0.150
-205.406	-124.062	-0.221	0.034
-204.392	800.000	-0.105	-0.376
-203.377	-158.272	0.335	0.019
-202.363	-200.000	-0.064	-0.292
-201.348	-52.524	0.159	0.072
-200.333	-38.725	-0.132	0.068
-199.319	-134.392	-0.148	-0.018
-198.304	-200.000	-0.006	-0.246
-197.290	-200.000	0.078	0.382
-196.275	-150.345	-0.038	-0.003
-195.260	-188.263	-0.241	-0.003
-194.246	800.000	-0.053	-0.204
-193.231	-200.000	-0.075	0.339
-192.217	-116.874	0.224	0.040
-191.202	-30.965	-0.127	0.071
-190.187	90.569	0.189	0.209
-189.173	28.884	-0.104	0.087
-188.158	-200.000	0.004	0.023
-187.144	-82.134	0.094	-0.030
-186.129	82.396	-0.241	0.258
-185.114	-62.984	-0.217	-0.088
-184.100	-88.389	-0.077	0.022
-183.085	800.000	-0.093	-0.300
-182.071	545.865	-0.107	-0.252
-181.056	120.264	0.293	0.357
-180.042	-39.709	0.140	-0.072
-179.027	-63.202	0.317	-0.128
-178.012	85.294	0.130	-0.140
-176.998	-75.050	-0.017	-0.006
-175.983	38.970	0.136	-0.120
-174.969	-109.711	-0.084	0.017
-173.954	-200.000	0.015	0.088
-172.939	-82.645	0.234	-0.075
-171.925	-2.480	-0.139	0.096
-170.910	800.000	0.084	0.301
-169.896	-38.819	0.240	-0.124
-168.881	178.391	-0.264	0.378
-167.866	-152.659	0.185	0.013
-166.852	-200.000	-0.015	-0.267
-165.837	-200.000	0.014	-0.120
-164.823	800.000	-0.053	-0.198
-163.808	-38.483	0.110	0.057
-162.793	-11.426	-0.062	-0.040
-161.779	53.102	0.181	0.170
-160.764	-86.334	-0.038	-0.011
-159.750	37.414	0.281	-0.245
-158.735	-56.930	-0.097	0.042
-157.720	90.982	0.109	0.120
-156.706	579.990	-0.093	-0.224
-155.691	-200.000	-0.001	-0.056
-154.677	145.399	0.132	-0.174
-153.662	16.680	-0.101	0.079
-152.647	-48.488	-0.237	-0.112
-151.633	800.000	0.069	-0.198
-150.618	800.000	0.078	0.236
-149.604	-84.311	0.156	-0.048
-148.589	630.302	0.106	0.263
-147.574	-200.000	0.063	0.291
-146.560	-139.578	0.145	-0.015
-145.545	314.009	0.182	0.336
-144.531	-200.000	-0.292	0.001
-143.516	-68.813	0.187	0.071
-142.502	341.703	0.123	-0.236
-141.487	68.780	0.253	-0.255
-140.472	594.452	0.043	-0.105
-139.458	-39.144	-0.324	0.167
-138.443	-105.276	0.165	0.037
-137.429	93.131	0.152	0.169
-136.414	263.272	0.188	0.321
-135.399	129.544	0.091	0.114
-134.385	-28.575	-0.289	-0.163
-133.370	54.746	-0.060	-0.057
-132.356	167.555	-0.070	-0.097
-131.341	-70.035	0.380	0.142
-130.326	146.989	0.091	0.120
-129.312	355.193	0.159	0.310
-128.297	-91.714	-0.096	-0.027
-127.283	-7.572	0.095	-0.063
-126.268	-76.489	0.139	-0.048
-125.253	-200.000	0.020	0.242
-124.239	800.000	-0.066	0.182
-123.224	164.315	0.106	0.147
-122.210	-200.000	-0.055	0.399
-121.195	14.460	0.098	0.075
-120.180	42.116	-0.083	-0.074
-119.166	15.274	-0.041	0.031
-118.151	-125.052	0.181	-0.027
-117.137	800.000	0.005	-0.019
-116.122	-200.000	0.013	0.082
-115.107	-181.334	-0.256	-0.005
-114.093	-134.173	0.398	0.048
-113.078	-53.040	0.061	-0.027
-112.064	27.894	0.132	0.109
-111.049	-147.391	-0.146	0.012
-110.034	119.335	-0.162	0.197
-109.020	-11.313	0.130	0.084
-108.005	54.379	-0.175	0.165
-106.991	-137.319	-0.057	-0.006
-105.976	-187.173	0.086	0.001
-104.962	-82.746	-0.033	-0.010
-103.947	800.000	-0.069	-0.285
-102.932	-141.380	-0.024	-0.002
-101.918	-15.741	0.055	0.035
-100.903	178.299	0.159	0.227
-99.889	-86.122	0.118	-0.036
-98.874	408.425	0.066	0.136
-97.859	-135.308	-0.120	-0.014
-96.845	53.270	0.143	-0.134
-95.830	-160.775	0.278	-0.014
-94.816	-200.000	-0.015	0.260
-93.801	217.290	0.038	0.059
-92.786	-200.000	-0.045	0.493
-91.772	-200.000	-0.012	0.090
-90.757	-184.441	-0.134	-0.002
-89.743	326.995	-0.005	0.010
-88.728	-200.000	0.046	0.352
-87.713	4.286	0.164	0.118
-86.699	-183.486	-0.109	-0.002
-85.684	-41.057	0.393	0.199
-84.670	80.537	-0.194	-0.205
-83.655	-200.000	-0.053	-0.327
-82.640	-200.000	0.010	-0.064
-81.626	227.802	-0.025	0.039
-80.611	800.000	0.123	0.382
-79.597	110.946	-0.235	0.278
-78.582	15.774	0.116	-0.089
-77.567	118.307	0.246	-0.297
-76.553	703.503	-0.038	0.098
-75.538	585.066	0.044	-0.105
-74.524	-200.000	0.005	0.026
-73.509	-22.201	0.320	-0.190
-72.494	800.000	0.057	0.222
-71.480	92.076	0.132	0.145
-70.465	31.446	0.216	-0.182
-69.451	-24.880	0.125	0.073
-68.436	206.263	-0.060	0.091
-67.422	-173.213	0.234	-0.007
-66.407	800.000	0.053	0.143
-65.392	233.639	0.228	0.368
-64.378	-35.039	0.031	0.017
-63.363	66.374	0.155	0.154
-62.349	299.993	-0.231	0.416
-61.334	72.663	-1.116	-1.140
-60.319	325.879	0.297	0.556
-59.305	117.238	-0.772	-0.929
-58.290	255.602	0.862	1.446
-57.276	339.807	0.738	1.408
-56.261	-200.000	113.631	641.861
-55.246	468.931	1506.597	3309.710
-54.232	148.176	2670.511	3526.010
-53.217	102.798	2173.038	2488.862
-52.203	37.799	1700.873	1478.297
-51.188	30.356	1518.663	1269.224
-50.173	28.179	1493.599	1233.573
-49.159	52.392	1550.984	1447.821
-48.144	50.937	1566.690	1452.450
-47.130	30.722	1523.541	1275.607
-46.115	27.615	1508.378	1241.736
-45.100	27.301	1505.521	1237.203
-44.086	27.359	1503.321	1235.738
-43.071	27.339	1501.205	1233.814
-42.057	27.210	1499.807	1231.743
-41.042	27.368	1497.886	1231.184
-40.027	27.279	1496.381	1229.296
-39.013	27.251	1494.992	1227.918
-37.998	27.253	1493.969	1227.044
-36.984	27.176	1492.709	1225.439
-35.969	27.324	1490.989	1224.978
-34.954	27.201	1490.074	1223.347
-33.940	27.295	1488.558	1222.690
-32.925	27.269	1487.065	1221.237
-31.911	27.368	1485.474	1220.551
-30.896	27.235	1484.574	1218.870
-29.881	27.379	1483.431	1218.848
-28.867	27.399	1482.028	1217.778
-27.852	27.353	1480.694	1216.326
-26.838	27.397	1479.429	1215.535
-25.823	27.354	1477.794	1213.856
-24.809	27.312	1476.340	1212.335
-23.794	27.405	1474.642	1211.507
-22.779	27.317	1473.973	1210.323
-21.765	27.345	1472.459	1209.219
-20.750	27.482	1471.193	1209.044
-19.736	27.389	1470.268	1207.614
-18.721	27.281	1469.755	1206.433
-17.706	27.345	1468.382	1205.678
-16.692	27.395	1467.106	1204.919
-15.677	27.346	1466.280	1203.867
-14.663	27.261	1465.553	1202.657
-13.648	27.319	1464.323	1201.988
-12.633	27.277	1463.413	1200.913
-11.619	27.272	1462.987	1200.486
-10.604	27.245	1462.316	1199.704
-9.590	27.309	1460.951	1198.964
-8.575	27.347	1460.032	1198.411
-7.560	27.351	1458.840	1197.407
-6.546	27.344	1457.922	1196.563
-5.531	27.255	1457.432	1195.529
-4.517	27.251	1456.577	1194.755
-3.502	27.318	1455.269	1194.071
-2.487	27.233	1454.611	1192.930
-1.473	27.351	1453.180	1192.480
-0.458	27.258	1452.103	1190.939
0.556	25.501	1442.710	1180.826
1.571	22.528	1417.967	1141.242
2.586	19.158	1356.195	1070.515
3.600	17.496	1272.905	994.973
4.615	16.413	1228.353	953.954
5.629	14.261	1172.380	898.799
6.644	7.263	1088.285	799.069
7.659	1.215	1049.578	741.100
8.673	0.241	1044.368	732.622
9.688	0.082	1041.112	729.502
10.702	0.111	1039.309	728.313
11.717	0.037	1037.449	726.588
12.731	2.402	1039.418	739.339
13.746	9.797	1050.016	782.801
14.761	16.032	1057.274	818.517
15.775	17.130	1057.921	824.279
16.790	16.498	1055.621	819.352
17.804	15.426	1053.649	812.559
18.819	14.634	1051.947	807.346
19.834	14.126	1050.907	804.022
20.848	13.793	1049.556	801.310
21.863	13.715	1048.707	800.213
22.877	13.344	1047.975	797.796
23.892	13.161	1046.987	796.088
24.907	13.026	1046.755	795.193
25.921	13.086	1045.502	794.458
26.936	13.079	1045.425	794.299
27.950	13.196	1044.464	794.057
28.965	13.198	1043.573	793.321
29.980	13.199	1042.788	792.661
30.994	13.315	1041.821	792.409
32.009	13.350	1041.164	792.006
33.023	13.343	1040.445	791.355
34.038	13.412	1039.816	791.137
35.053	13.377	1038.638	790.004
36.067	13.325	1037.691	788.966
37.082	13.253	1036.775	787.859
38.096	13.203	1036.131	787.060
39.111	13.361	1035.209	787.043
40.126	13.263	1034.725	786.136
41.140	13.307	1033.245	785.152
42.155	13.154	1032.553	783.832
43.169	13.127	1031.741	783.018
44.184	13.176	1030.556	782.282
45.199	13.040	1029.521	780.785
46.213	13.002	1028.901	780.066
47.228	13.197	1027.364	779.749
48.242	13.164	1026.325	778.737
49.257	13.210	1025.777	778.471
50.271	13.147	1025.080	777.575
51.286	13.275	1023.657	777.029
52.301	13.231	1023.042	776.287
53.315	13.284	1021.907	775.605
54.330	13.172	1021.204	774.477
55.344	13.106	1020.476	773.548
56.359	13.173	1019.289	772.894
57.374	13.084	1018.520	771.828
58.388	13.176	1017.668	771.540
59.403	13.189	1016.721	770.815
60.417	13.072	1016.291	769.874
61.432	13.100	1015.263	769.158
62.447	13.065	1014.863	768.627
63.461	13.052	1013.455	767.430
64.476	13.001	1012.965	766.756
65.490	12.968	1012.180	765.941
66.505	13.130	1011.352	765.998
67.520	13.069	1010.838	765.258
68.534	12.990	1010.095	764.260
69.549	13.133	1009.242	764.208
70.563	13.028	1008.590	763.161
71.578	13.043	1008.176	762.851
72.593	13.088	1007.038	762.131
73.607	13.120	1005.347	760.931
74.622	12.941	1005.345	760.036
75.636	12.964	1004.414	759.372
76.651	13.026	1003.621	758.989
77.666	13.173	1002.392	758.667
78.680	12.845	1002.279	757.007
79.695	12.995	1001.270	756.867
80.709	13.067	1000.667	756.678
81.724	13.117	999.567	756.005
82.739	13.165	998.964	755.703
83.753	13.159	998.738	755.439
84.768	13.211	997.798	754.898
85.782	13.246	997.019	754.401
86.797	13.337	996.252	754.168
87.812	13.187	995.418	752.785
88.826	13.184	994.825	752.256
89.841	13.145	993.752	751.205
90.855	13.226	993.221	751.104
91.870	13.296	992.238	750.614
92.884	13.294	991.679	750.114
93.899	13.417	990.665	749.838
94.914	13.275	990.254	748.816
95.928	13.395	989.439	748.675
96.943	13.397	988.648	748.021
97.957	13.346	988.422	747.555
98.972	13.300	987.600	746.659
99.987	13.295	986.630	745.834
101.001	13.300	985.755	745.129
102.016	13.339	984.923	744.613
103.030	13.384	983.662	743.797
104.045	13.402	982.768	743.135
105.060	13.327	981.948	742.111
106.074	13.331	980.874	741.254
107.089	13.251	980.027	740.187
108.103	13.294	979.498	739.915
109.118	13.155	978.549	738.512
110.133	13.129	977.842	737.797
111.147	13.095	977.196	737.091
112.162	13.137	976.032	736.335
113.176	13.206	975.171	735.928
114.191	13.201	974.574	735.393
115.206	13.204	973.677	734.664
116.220	13.286	972.364	733.972
117.235	13.134	972.303	733.184
118.249	13.213	971.088	732.556
119.264	13.221	969.998	731.702
120.279	13.229	969.913	731.608
121.293	13.446	968.426	731.383
122.308	13.125	968.066	729.629
123.322	13.237	967.029	729.273
124.337	13.189	965.884	728.138
125.352	13.279	964.520	727.441
126.366	13.185	964.149	726.683
127.381	13.129	962.682	725.267
128.395	13.018	962.002	724.204
129.410	13.201	960.698	723.960
130.424	13.218	960.077	723.502
131.439	13.232	958.942	722.643
132.454	13.269	958.115	722.117
133.468	13.288	957.379	721.583
134.483	13.192	956.753	720.627
135.497	13.291	956.099	720.501
136.512	13.230	955.259	719.540
137.527	13.132	955.240	719.037
138.541	13.258	953.960	718.557
139.556	13.226	952.971	717.609
140.570	13.189	952.536	717.059
141.585	13.319	951.512	716.784
142.600	13.204	950.932	715.789
143.614	13.224	950.448	715.445
144.629	13.379	949.643	715.450
145.643	13.365	948.747	714.651
146.658	13.378	948.085	714.146
147.673	13.357	946.953	713.135
148.687	13.351	946.146	712.441
149.702	13.305	945.253	711.506
150.716	13.304	944.667	710.999
151.731	13.223	943.650	709.824
152.746	13.388	942.873	709.882
153.760	13.390	942.314	709.407
154.775	13.497	941.155	708.930
155.789	13.425	940.742	708.249
156.804	13.419	940.088	707.668
157.819	13.308	939.188	706.452
158.833	13.468	938.754	706.748
159.848	13.469	937.748	705.933
160.862	13.573	937.230	705.923
161.877	13.417	936.498	704.645
162.892	13.470	935.461	704.030
163.906	13.531	934.209	703.282
164.921	13.428	933.473	702.230
165.935	13.418	932.595	701.466
166.950	13.455	931.546	700.768
167.964	13.408	930.912	700.032
168.979	13.474	929.803	699.413
169.994	13.526	929.016	698.981
171.008	13.478	928.063	697.999
172.023	13.478	927.767	697.715
173.037	13.601	926.653	697.332
174.052	13.572	925.990	696.652
175.067	13.638	925.072	696.176
176.081	13.604	924.414	695.477
177.096	13.442	924.080	694.484
178.110	13.535	923.017	694.011
179.125	13.563	921.991	693.296
180.140	13.602	921.226	692.824
181.154	13.703	920.446	692.600
182.169	13.685	919.745	691.933
183.183	13.719	919.607	691.910
184.198	13.791	918.374	691.223
185.213	13.619	918.185	690.301
186.227	13.743	917.652	690.356
187.242	13.737	916.962	689.751
188.256	13.777	916.412	689.442
189.271	13.770	915.724	688.834
190.286	13.839	914.655	688.258
191.300	13.710	914.129	687.263
192.315	13.744	912.747	686.307
193.329	13.657	912.555	685.739
194.344	13.573	912.412	685.226
195.359	13.869	911.118	685.416
196.373	13.642	911.079	684.386
197.388	13.770	910.438	684.375
198.402	13.713	910.364	684.024
199.417	13.862	909.802	684.154
200.432	13.931	909.310	684.006
201.446	13.902	908.587	683.282
202.461	13.914	908.151	682.946
203.475	14.043	907.437	682.876
204.490	14.036	906.719	682.246
205.504	14.001	905.875	681.409
206.519	13.939	905.267	680.637
207.534	14.146	904.147	680.583
208.548	14.041	903.624	679.698
209.563	13.935	903.158	678.855
210.577	14.023	902.476	678.643
211.592	14.086	901.620	678.197
212.607	14.112	901.422	678.092
213.621	14.280	900.423	677.963
214.636	14.123	900.070	677.001
215.650	14.188	899.278	676.608
216.665	14.032	898.870	675.607
217.680	14.143	898.411	675.653
218.694	14.105	897.968	675.105
219.709	14.263	897.072	675.013
220.723	14.245	896.619	674.542
221.738	14.245	895.622	673.732
222.753	14.295	894.829	673.277
223.767	14.189	894.695	672.688
224.782	14.400	893.743	672.763
225.796	14.350	892.931	671.891
226.811	14.237	892.716	671.216
227.826	14.362	891.351	670.632
228.840	14.401	890.957	670.434
229.855	14.323	890.039	669.369
230.869	14.381	889.515	669.150
231.884	14.432	888.655	668.647
232.899	14.368	888.059	667.882
233.913	14.371	887.405	667.345
234.928	14.311	886.865	666.641
235.942	14.297	886.439	666.204
236.957	14.283	885.733	665.561
237.972	14.303	884.760	664.848
238.986	14.365	884.148	664.578
240.001	14.405	883.351	664.080
241.015	14.343	883.005	663.513
242.030	14.425	882.253	663.216
243.045	14.403	881.500	662.504
244.059	14.483	880.830	662.260
245.074	14.581	880.131	662.065
246.088	14.547	879.512	661.403
247.103	14.439	879.485	660.898
248.117	14.514	878.670	660.523
249.132	14.628	877.791	660.256
250.147	14.656	877.542	660.120
251.161	14.716	876.617	659.603
252.176	14.740	876.048	659.212
253.190	14.885	875.127	659.033
254.205	14.834	874.697	658.449
255.220	14.789	874.339	657.943
256.234	14.864	873.420	657.490
257.249	14.873	873.065	657.199
258.263	14.851	872.348	656.515
259.278	14.874	871.741	656.089
260.293	14.963	871.262	656.022
261.307	14.900	870.828	655.390
262.322	15.044	870.132	655.371
263.336	15.022	869.614	654.836
264.351	15.182	868.511	654.575
265.366	15.147	867.755	653.809
266.380	15.055	867.546	653.237
267.395	15.021	866.934	652.584
268.409	15.130	866.186	652.388
269.424	15.026	865.392	651.328
270.439	15.051	864.635	650.799
271.453	15.057	863.923	650.226
272.468	15.057	863.537	649.879
273.482	15.117	862.605	649.351
274.497	15.063	862.343	648.889
275.512	15.059	861.580	648.242
276.526	15.130	860.717	647.810
277.541	15.119	860.203	647.321
278.555	15.087	859.895	646.909
279.570	15.283	859.418	647.252
280.585	15.281	858.448	646.455
281.599	15.231	857.940	645.822
282.614	15.113	857.575	645.038
283.628	15.331	856.304	644.860
284.643	15.236	856.057	644.253
285.657	15.148	855.664	643.561
286.672	15.217	855.470	643.625
287.687	15.239	854.935	643.249
288.701	15.224	854.751	642.997
289.716	15.409	853.482	642.694
290.730	15.360	853.164	642.209
291.745	15.271	852.849	641.576
292.760	15.361	851.859	641.119
293.774	15.367	851.195	640.586
294.789	15.411	850.831	640.422
295.803	15.588	849.865	640.313
296.818	15.516	849.402	639.635
297.833	15.386	849.133	638.880
298.847	15.383	848.235	638.136
299.862	15.415	847.390	637.565
300.876	15.555	846.734	637.547
301.891	15.502	846.027	636.755
302.906	15.507	845.406	636.253
303.920	15.645	844.649	636.147
304.935	15.646	844.558	636.027
305.949	15.795	843.448	635.699
306.964	15.727	842.990	635.039
307.979	15.648	842.610	634.399
308.993	15.636	842.176	633.970
310.008	15.754	841.869	634.127
311.022	15.766	840.925	633.407
312.037	15.759	840.656	633.121
313.052	15.811	839.844	632.651
314.066	15.767	839.279	632.003
315.081	15.674	838.479	630.996
316.095	15.662	837.934	630.486
317.110	15.698	837.488	630.229
318.125	15.689	837.083	629.835
319.139	15.741	836.651	629.648
320.154	15.610	836.435	628.939
321.168	15.621	836.042	628.629
322.183	15.838	835.140	628.707
323.197	15.827	834.455	628.092
324.212	15.834	834.088	627.789
325.227	15.726	833.317	626.749
326.241	15.756	833.237	626.746
327.256	15.762	832.674	626.290
328.270	15.816	831.469	625.528
329.285	15.837	831.196	625.344
330.300	15.764	830.500	624.494
331.314	15.806	829.996	624.218
332.329	15.986	828.867	623.980
333.343	15.898	829.044	623.731
334.358	15.771	828.494	622.791
335.373	15.850	828.027	622.678
336.387	15.832	827.457	622.129
337.402	15.946	827.047	622.186
338.416	16.058	826.271	621.961
339.431	15.923	825.957	621.172
340.446	16.108	825.214	621.240
341.460	16.018	824.573	620.370
342.475	16.328	823.715	620.810
343.489	16.296	823.476	620.456
344.504	16.169	823.328	619.825
345.519	16.235	822.643	619.496
346.533	16.265	822.077	619.123
347.548	16.271	821.167	618.408
348.562	16.259	820.958	618.151
349.577	16.375	819.912	617.731
350.592	16.318	819.311	617.017
351.606	16.155	819.322	616.373
352.621	16.171	818.727	615.931
353.635	16.082	818.677	615.515
354.650	16.156	817.977	615.202
355.665	16.178	817.758	615.065
356.679	16.208	816.905	614.479
357.694	16.328	816.502	614.558
358.708	16.393	815.796	614.206
359.723	16.342	815.285	613.584
360.738	16.360	814.786	613.218
361.752	16.318	814.372	612.700
362.767	16.423	813.580	612.430
363.781	16.479	813.325	612.386
364.796	16.605	812.940	612.498
365.810	16.491	812.569	611.755
366.825	16.598	812.321	611.898
367.840	16.474	812.272	611.360
368.854	16.626	811.625	611.369
369.869	16.503	811.444	610.733
370.883	16.574	810.330	610.099
371.898	16.579	810.105	609.892
372.913	16.589	809.409	609.351
373.927	16.747	808.691	609.324
374.942	16.635	808.159	608.467
375.956	16.650	807.268	607.794
376.971	16.670	807.167	607.736
377.986	16.751	806.612	607.556
379.000	16.933	806.127	607.791
380.015	16.786	805.284	606.574
381.029	16.719	805.352	606.330
382.044	16.891	804.324	606.120
383.059	16.937	804.044	606.018
384.073	17.021	803.535	605.882
385.088	16.942	802.790	604.985
386.102	16.813	802.117	603.964
387.117	16.834	801.881	603.809
388.132	16.847	801.482	603.500
389.146	16.828	801.060	603.059
390.161	16.943	800.731	603.168
391.175	16.990	800.137	602.835
392.190	16.995	799.483	602.309
393.205	17.044	799.231	602.237
394.219	16.989	798.822	601.682
395.234	16.799	798.605	600.789
396.248	16.909	797.857	600.563
397.263	16.903	797.298	600.070
398.278	16.828	797.206	599.681
399.292	16.984	796.382	599.559
400.307	16.931	796.408	599.340
401.321	16.975	795.901	599.062
402.336	16.940	795.621	598.674
403.350	17.101	794.636	598.446
404.365	17.000	794.457	597.902
405.380	17.033	794.275	597.830
406.394	17.188	793.453	597.703
407.409	17.150	793.150	597.288
408.423	17.212	792.585	597.029
409.438	17.342	792.036	597.018
410.453	17.269	791.958	596.649
411.467	17.240	791.289	595.990
412.482	17.259	790.778	595.620
413.496	17.280	790.384	595.346
414.511	17.353	789.763	595.078
415.526	17.338	790.026	595.173
416.540	17.433	789.581	595.117
417.555	17.399	788.823	594.373
418.569	17.328	788.605	593.908
419.584	17.381	788.210	593.743
420.599	17.437	787.418	593.291
421.613	111.330	1293.140	1478.353
422.628	95.544	1366.813	1478.444
