DTS Sentinel unit serial number:	SN413079Multiplexer serial number:	ORYXHardware model number:	OX4-SRSoftware version number:	ORYX F/W v4.00 Oryx Data Collector v3.7.2.0data status	okinstallation	princeton_trtdifferential loss correction	single-endedforward channel	channel 3reverse channel	N/Adate	2019/09/11time	04:42:11forward acquisition time	60.00reverse acquisition time	0.00gamma	496.2192k internal	0.2330k external	0.2330temperature offset calibration	0.9910default loss term (dB/km)	0.3790temperature slope calibration	1.0000multiplexer offset coefficient	1.0000multiplexer slope coefficient	1.0000fibre end	0.00T internal ref (°C)	29.50T ext. ref 1 (°C)	-0.27T ext. ref 2 (°C)	23.46length (m)	temperature (°C)	Stokes	anti-Stokes-747.200	800.000	-0.145	0.494
-746.185	-134.964	0.267	-0.032
-745.171	-200.000	-0.005	-0.271
-744.156	-200.000	0.179	-0.001
-743.142	61.028	0.133	0.133
-742.127	-61.025	-0.287	0.122
-741.112	273.475	-0.178	-0.317
-740.098	-38.752	0.096	-0.051
-739.083	514.152	-0.068	-0.159
-738.069	-200.000	0.019	0.240
-737.054	800.000	0.074	-0.228
-736.039	-37.287	-0.207	-0.111
-735.025	16.828	0.303	-0.242
-734.010	-104.557	-0.144	0.034
-732.996	77.665	-0.129	-0.139
-731.981	-200.000	-0.019	-0.168
-730.966	256.912	0.085	0.148
-729.952	-152.540	0.079	0.006
-728.937	0.533	-0.277	-0.199
-727.923	-118.432	-0.232	-0.041
-726.908	-9.609	-0.113	0.076
-725.894	41.080	0.107	-0.097
-724.879	800.000	-0.080	-0.275
-723.864	800.000	0.041	0.160
-722.850	-69.765	0.188	-0.072
-721.835	182.014	0.125	-0.185
-720.821	-6.634	0.116	-0.079
-719.806	800.000	0.079	-0.235
-718.791	-125.045	-0.307	-0.048
-717.777	-200.000	0.017	-0.459
-716.762	-87.703	-0.096	0.029
-715.748	175.652	-0.020	0.029
-714.733	281.466	0.081	0.146
-713.718	-64.516	-0.080	-0.033
-712.704	105.031	-0.201	0.239
-711.689	2.612	-0.236	-0.172
-710.675	600.236	0.109	-0.271
-709.660	137.341	-0.098	-0.129
-708.645	21.701	-0.308	-0.252
-707.631	-121.214	-0.150	0.025
-706.616	-89.423	0.153	0.045
-705.602	390.741	0.156	-0.326
-704.587	800.000	0.022	0.078
-703.572	96.638	0.196	-0.225
-702.558	-200.000	0.014	-0.094
-701.543	800.000	0.086	0.303
-700.529	299.410	-0.052	-0.096
-699.514	209.284	-0.115	-0.182
-698.499	-102.743	-0.183	0.044
-697.485	-33.367	-0.558	-0.310
-696.470	60.450	-0.363	-0.362
-695.456	122.070	0.198	0.248
-694.441	236.101	-0.223	0.370
-693.426	-71.055	-0.224	0.085
-692.412	-49.214	0.125	-0.060
-691.397	-22.472	0.300	-0.182
-690.383	470.692	0.085	0.193
-689.368	800.000	0.061	0.185
-688.354	-58.945	-0.258	-0.112
-687.339	-38.867	-0.149	0.079
-686.324	26.209	-0.208	-0.175
-685.310	589.147	0.094	0.233
-684.295	166.410	-0.151	0.215
-683.281	-148.656	-0.109	0.009
-682.266	-200.000	-0.012	-0.192
-681.251	19.394	-0.313	-0.252
-680.237	149.712	0.130	0.177
-679.222	-31.989	0.084	-0.047
-678.208	-55.279	-0.183	0.083
-677.193	98.966	0.239	-0.277
-676.178	625.739	-0.073	-0.185
-675.164	-185.877	0.355	-0.005
-674.149	-1.444	-0.066	0.047
-673.135	800.000	-0.021	-0.087
-672.120	-200.000	0.021	0.223
-671.105	87.541	0.107	0.119
-670.091	486.551	-0.174	0.398
-669.076	-5.420	-0.145	-0.100
-668.062	412.654	-0.029	0.062
-667.047	199.366	0.080	0.123
-666.032	226.282	-0.182	-0.296
-665.018	-200.000	-0.009	-0.090
-664.003	-200.000	0.028	-0.192
-662.989	214.261	0.151	0.240
-661.974	88.171	0.059	0.066
-660.959	125.554	-0.072	0.091
-659.945	118.680	0.158	0.196
-658.930	-114.833	0.081	-0.016
-657.916	-76.710	-0.198	0.069
-656.901	-200.000	0.028	-0.171
-655.886	-137.112	0.164	-0.019
-654.872	-84.720	0.150	-0.047
-653.857	8.700	0.155	-0.118
-652.843	-112.378	-0.225	0.045
-651.828	56.013	-0.304	-0.296
-650.814	-200.000	0.090	-0.407
-649.799	67.521	0.294	-0.301
-648.784	216.952	-0.126	-0.200
-647.770	316.737	-0.094	-0.177
-646.755	171.171	0.135	-0.194
-645.741	168.319	-0.212	-0.303
-644.726	70.668	-0.152	0.158
-643.711	13.670	0.189	0.147
-642.697	670.424	-0.050	-0.129
-641.682	800.000	-0.084	0.359
-640.668	35.474	0.062	0.055
-639.653	42.853	0.144	-0.132
-638.638	-1.448	-0.147	-0.104
-637.624	800.000	-0.027	-0.077
-636.609	62.001	-0.085	0.085
-635.595	-113.927	-0.125	0.024
-634.580	125.994	-0.111	0.140
-633.565	-63.297	-0.393	-0.162
-632.551	38.028	0.300	0.267
-631.536	-200.000	-0.026	0.155
-630.522	-200.000	0.003	0.020
-629.507	-45.353	0.124	-0.062
-628.492	61.229	-0.200	-0.199
-627.478	800.000	0.096	0.382
-626.463	-37.481	0.258	0.138
-625.449	-98.358	-0.454	0.117
-624.434	-156.161	-0.098	-0.006
-623.419	-29.443	-0.177	0.101
-622.405	-200.000	-0.022	-0.102
-621.390	91.237	-0.130	-0.146
-620.376	269.768	-0.049	-0.086
-619.361	-176.339	-0.214	0.006
-618.346	38.967	0.318	0.285
-617.332	374.149	0.221	-0.451
-616.317	435.443	-0.155	-0.339
-615.303	-16.448	0.122	0.077
-614.288	401.428	-0.051	-0.108
-613.273	-200.000	-0.013	0.174
-612.259	83.664	-0.057	-0.062
-611.244	8.885	-0.217	0.164
-610.230	267.042	-0.058	0.102
-609.215	-109.697	0.151	0.032
-608.201	-88.516	0.162	0.048
-607.186	-113.504	-0.022	-0.004
-606.171	-177.344	-0.245	-0.006
-605.157	800.000	-0.098	0.367
-604.142	800.000	-0.083	0.305
-603.128	-22.316	-0.124	-0.075
-602.113	-112.112	-0.034	0.007
-601.098	2.683	-0.071	-0.051
-600.084	26.160	-0.136	-0.114
-599.069	-126.793	-0.187	0.028
-598.055	-103.770	-0.165	0.039
-597.040	226.668	0.232	0.378
-596.025	-111.553	0.228	0.046
-595.011	-60.801	-0.165	0.070
-593.996	-200.000	-0.007	-0.074
-592.982	219.454	-0.013	-0.022
-591.967	-45.190	0.252	0.125
-590.952	-117.720	0.230	-0.041
-589.938	137.226	0.180	-0.235
-588.923	-200.000	0.017	-0.144
-587.909	-200.000	-0.001	0.126
-586.894	800.000	0.064	-0.179
-585.879	87.163	-0.117	0.129
-584.865	-200.000	-0.011	-0.134
-583.850	-102.130	0.100	0.024
-582.836	-113.770	-0.357	-0.070
-581.821	-30.931	-0.166	-0.094
-580.806	-6.446	-0.118	-0.080
-579.792	-153.623	-0.364	0.025
-578.777	248.350	0.173	-0.293
-577.763	13.666	-0.053	-0.041
-576.748	69.406	0.146	-0.150
-575.733	-200.000	0.028	0.188
-574.719	800.000	-0.041	0.178
-573.704	248.838	-0.073	0.124
-572.690	-116.775	0.176	0.032
-571.675	132.155	-0.068	0.088
-570.661	-163.212	-0.258	0.012
-569.646	-73.953	-0.049	0.018
-568.631	24.857	0.236	-0.196
-567.617	41.836	-0.202	0.183
-566.602	13.996	-0.161	-0.125
-565.588	383.575	-0.116	0.238
-564.573	257.824	-0.155	-0.267
-563.558	103.326	0.095	-0.111
-562.544	96.314	0.055	-0.063
-561.529	165.072	-0.097	-0.137
-560.515	-167.897	0.243	-0.010
-559.500	89.151	-0.223	0.249
-558.485	262.900	0.169	-0.294
-557.471	57.204	0.079	0.077
-556.456	800.000	0.073	0.238
-555.442	-22.660	-0.187	0.113
-554.427	330.800	0.047	0.091
-553.412	184.995	-0.122	-0.181
-552.398	-103.132	-0.160	0.038
-551.383	-200.000	0.014	-0.173
-550.369	-31.119	0.151	-0.085
-549.354	-153.318	0.366	-0.025
-548.339	-155.304	-0.295	-0.019
-547.325	-200.000	-0.051	0.237
-546.310	-67.451	-0.189	0.074
-545.296	-71.883	-0.038	-0.014
-544.281	4.665	-0.306	-0.224
-543.266	-144.488	-0.336	-0.031
-542.252	-26.349	-0.187	-0.109
-541.237	-101.230	0.097	-0.024
-540.223	-29.669	0.131	0.075
-539.208	275.024	-0.030	-0.054
-538.193	16.686	0.100	-0.079
-537.179	-181.553	-0.372	-0.007
-536.164	-99.815	-0.083	0.021
-535.150	408.651	-0.022	0.047
-534.135	-15.975	0.240	0.152
-533.121	-165.897	0.172	-0.007
-532.106	800.000	0.019	0.065
-531.091	-169.920	-0.432	0.015
-530.077	-67.770	-0.106	-0.041
-529.062	271.973	-0.175	0.308
-528.048	-114.931	-0.420	-0.080
-527.033	-200.000	-0.003	-0.127
-526.018	73.235	0.092	0.096
-525.004	226.994	0.124	0.201
-523.989	146.967	0.157	0.211
-522.975	-111.305	0.042	-0.009
-521.960	800.000	0.054	-0.198
-520.945	800.000	0.026	-0.078
-519.931	-123.876	-0.280	-0.044
-518.916	-73.683	-0.257	0.093
-517.902	-200.000	0.052	0.446
-516.887	24.590	-0.154	0.128
-515.872	-75.629	-0.134	-0.047
-514.858	800.000	-0.132	-0.382
-513.843	-72.972	0.469	-0.172
-512.829	-200.000	0.001	-0.286
-511.814	-83.557	0.269	-0.086
-510.799	-147.124	0.416	0.035
-509.785	481.428	-0.132	0.300
-508.770	-115.408	-0.136	-0.026
-507.756	-17.276	0.114	0.071
-506.741	668.083	0.161	0.416
-505.726	-200.000	0.066	-0.308
-504.712	26.430	-0.133	0.111
-503.697	727.939	-0.035	0.094
-502.683	-55.989	-0.044	0.020
-501.668	89.866	-0.264	0.294
-500.653	-200.000	0.059	0.322
-499.639	427.152	-0.105	-0.225
-498.624	115.404	-0.077	0.094
-497.610	165.628	-0.111	0.156
-496.595	800.000	-0.033	-0.124
-495.581	-200.000	0.042	0.212
-494.566	800.000	0.061	0.209
-493.551	-66.211	0.242	0.096
-492.537	415.327	-0.091	0.192
-491.522	-144.615	-0.180	0.017
-490.508	-130.324	0.011	0.002
-489.493	-84.398	-0.146	-0.046
-488.478	-24.215	0.110	0.065
-487.464	256.038	0.007	-0.011
-486.449	340.059	-0.077	0.150
-485.435	800.000	-0.048	-0.198
-484.420	-95.212	-0.400	0.107
-483.405	35.803	-0.172	0.150
-482.391	36.517	0.270	0.237
-481.376	-172.559	0.248	0.008
-480.362	158.517	-0.194	-0.268
-479.347	-46.831	-0.232	0.113
-478.332	243.684	-0.102	0.170
-477.318	534.290	0.050	0.117
-476.303	112.616	-0.124	-0.149
-475.289	201.403	0.152	0.234
-474.274	134.642	-0.160	-0.206
-473.259	-200.000	0.042	-0.230
-472.245	-130.628	-0.300	-0.040
-471.230	800.000	0.117	-0.337
-470.216	129.094	0.298	-0.378
-469.201	-51.205	0.173	0.081
-468.186	-124.536	-0.237	-0.037
-467.172	-20.852	0.211	-0.129
-466.157	239.831	-0.099	0.165
-465.143	-168.413	-0.216	0.008
-464.128	91.648	-0.092	-0.103
-463.113	233.896	0.164	-0.270
-462.099	456.563	-0.092	0.203
-461.084	274.970	-0.172	0.303
-460.070	-200.000	0.006	0.082
-459.055	-160.558	0.256	0.014
-458.040	-132.575	-0.209	0.027
-457.026	-71.226	0.053	-0.020
-456.011	800.000	-0.013	-0.047
-454.997	341.681	-0.071	0.139
-453.982	-167.288	0.106	-0.004
-452.968	-156.099	-0.011	0.001
-451.953	345.100	-0.138	-0.270
-450.938	589.575	0.090	-0.222
-449.924	-200.000	0.033	-0.206
-448.909	-48.203	-0.083	-0.040
-447.895	-53.768	-0.076	-0.035
-446.880	800.000	0.077	0.285
-445.865	51.484	0.202	0.191
-444.851	269.847	0.049	0.085
-443.836	75.598	0.183	0.192
-442.822	225.857	0.134	0.216
-441.807	-25.129	0.018	0.011
-440.792	-94.067	-0.551	0.150
-439.778	800.000	-0.019	-0.067
-438.763	182.639	0.167	-0.245
-437.749	110.606	0.071	-0.085
-436.734	346.750	-0.155	-0.303
-435.719	13.024	-0.093	0.072
-434.705	150.628	-0.046	0.062
-433.690	328.626	-0.114	0.219
-432.676	-65.622	0.117	0.047
-431.661	594.585	-0.075	0.183
-430.646	239.052	-0.035	0.057
-429.632	-47.070	0.182	0.088
-428.617	-113.381	-0.108	0.021
-427.603	-55.559	0.294	-0.131
-426.588	212.689	0.241	0.378
-425.573	182.811	-0.164	-0.240
-424.559	-57.309	0.070	-0.031
-423.544	-200.000	0.036	0.307
-422.530	82.173	0.358	0.386
-421.515	89.889	0.148	-0.164
-420.500	800.000	0.096	-0.416
-419.486	-200.000	0.046	0.246
-418.471	800.000	0.030	-0.093
-417.457	207.692	0.107	-0.167
-416.442	-25.982	-0.093	0.054
-415.428	39.055	0.064	-0.056
-414.413	-99.951	-0.208	-0.052
-413.398	99.909	-0.044	-0.051
-412.384	-127.439	-0.047	0.007
-411.369	322.019	-0.181	0.342
-410.355	622.693	0.152	0.380
-409.340	-200.000	0.011	0.173
-408.325	241.569	-0.179	-0.297
-407.311	800.000	0.028	-0.088
-406.296	800.000	-0.089	0.263
-405.282	-200.000	-0.033	-0.184
-404.267	-200.000	-0.018	0.570
-403.252	14.599	-0.345	0.268
-402.238	4.905	-0.090	0.066
-401.223	-200.000	0.002	-0.188
-400.209	64.370	-0.215	0.215
-399.194	-117.060	-0.286	0.052
-398.179	-200.000	0.014	0.340
-397.165	-37.655	-0.320	0.169
-396.150	241.691	-0.044	0.072
-395.136	-101.136	-0.025	0.006
-394.121	31.361	0.143	0.122
-393.106	-192.347	0.304	0.003
-392.092	10.435	0.210	-0.159
-391.077	800.000	-0.016	0.060
-390.063	-98.326	-0.086	-0.022
-389.048	-30.609	0.484	-0.272
-388.033	232.340	-0.036	-0.059
-387.019	20.493	0.167	-0.134
-386.004	395.215	0.105	-0.217
-384.990	-43.579	0.237	0.119
-383.975	-125.495	0.425	0.064
-382.960	-200.000	-0.014	-0.062
-381.946	178.766	0.056	-0.081
-380.931	71.974	0.178	-0.184
-379.917	10.774	0.216	0.164
-378.902	250.741	0.360	-0.607
-377.888	76.565	-0.160	-0.169
-376.873	-200.000	-0.069	-0.404
-375.858	-200.000	0.010	-0.090
-374.844	-200.000	-0.004	0.243
-373.829	-139.465	-0.277	0.029
-372.815	-72.724	-0.170	0.062
-371.800	-1.745	0.143	0.100
-370.785	-83.377	-0.291	-0.093
-369.771	-72.338	0.506	-0.186
-368.756	318.115	0.067	0.125
-367.742	-74.260	0.330	-0.118
-366.727	-30.591	0.158	-0.089
-365.712	-200.000	0.009	-0.345
-364.698	407.880	-0.053	0.112
-363.683	381.898	0.087	0.177
-362.669	-200.000	0.062	-0.324
-361.654	-137.877	0.125	0.014
-360.639	4.269	-0.145	0.105
-359.625	370.922	-0.159	0.321
-358.610	170.749	0.120	-0.170
-357.596	800.000	-0.107	0.362
-356.581	-90.504	-0.287	-0.082
-355.566	-13.268	0.220	0.141
-354.552	95.404	0.211	-0.238
-353.537	-40.202	-0.324	-0.167
-352.523	79.422	-0.146	-0.155
-351.508	800.000	-0.058	-0.228
-350.493	-8.675	-0.362	0.241
-349.479	330.672	-0.074	0.141
-348.464	54.783	-0.066	0.063
-347.450	-33.034	-0.126	-0.069
-346.435	-0.785	0.374	-0.262
-345.420	429.283	0.227	-0.486
-344.406	-200.000	-0.002	-0.090
-343.391	-83.397	-0.298	0.095
-342.377	35.303	-0.208	-0.181
-341.362	269.200	-0.087	-0.152
-340.348	800.000	-0.089	-0.316
-339.333	454.027	-0.097	-0.214
-338.318	218.894	0.228	0.361
-337.304	-126.895	-0.533	-0.078
-336.289	226.162	0.141	-0.226
-335.275	-92.892	0.161	0.045
-334.260	-10.062	0.177	-0.117
-333.245	-93.678	0.178	-0.049
-332.231	93.925	0.091	-0.102
-331.216	38.252	-0.064	0.057
-330.202	208.794	-0.119	-0.185
-329.187	-200.000	-0.005	-0.311
-328.172	-101.076	-0.155	-0.038
-327.158	-63.231	0.214	-0.087
-326.143	-3.049	0.070	0.048
-325.129	647.696	0.055	-0.138
-324.114	54.525	-0.060	0.057
-323.099	298.878	-0.089	0.163
-322.085	800.000	-0.063	0.184
-321.070	-130.298	0.050	0.007
-320.056	-68.870	-0.134	0.051
-319.041	128.931	0.337	0.426
-318.026	800.000	0.059	0.182
-317.012	-21.640	-0.191	0.115
-315.997	271.328	0.081	-0.141
-314.983	-149.205	-0.119	0.009
-313.968	20.454	0.079	-0.063
-312.953	-100.897	0.226	0.055
-311.939	-49.114	-0.036	-0.017
-310.924	-200.000	-0.013	-0.377
-309.910	12.538	0.089	-0.068
-308.895	800.000	0.065	0.260
-307.880	800.000	-0.090	-0.300
-306.866	-142.369	0.048	0.005
-305.851	74.825	-0.162	0.168
-304.837	160.123	-0.112	0.155
-303.822	800.000	-0.054	0.186
-302.807	247.674	-0.107	-0.179
-301.793	-200.000	-0.000	-0.080
-300.778	251.376	0.129	-0.217
-299.764	2.096	0.062	-0.044
-298.749	-82.989	0.190	0.061
-297.735	-200.000	-0.011	0.340
-296.720	-22.495	0.326	-0.195
-295.705	405.904	0.123	-0.258
-294.691	-153.136	-0.289	-0.020
-293.676	-200.000	0.035	-0.321
-292.662	591.188	0.122	-0.297
-291.647	-200.000	-0.037	-0.315
-290.632	-116.808	0.207	0.037
-289.618	-138.414	0.136	-0.015
-288.603	-7.745	0.414	0.277
-287.589	32.789	-0.116	-0.099
-286.574	800.000	-0.160	0.667
-285.559	-200.000	0.048	0.311
-284.545	462.906	0.067	-0.148
-283.530	-33.717	0.288	-0.157
-282.516	-25.488	0.161	0.094
-281.501	-200.000	-0.038	-0.193
-280.486	253.386	-0.108	0.182
-279.472	371.717	-0.198	0.397
-278.457	-200.000	-0.063	-0.296
-277.443	-200.000	-0.049	-0.251
-276.428	136.023	0.141	0.182
-275.413	800.000	0.058	0.174
-274.399	-148.360	-0.123	0.010
-273.384	0.154	0.137	-0.096
-272.370	800.000	0.065	-0.182
-271.355	268.823	0.057	-0.099
-270.340	800.000	0.036	0.111
-269.326	-172.609	0.304	-0.009
-268.311	-34.637	-0.087	-0.047
-267.297	-39.209	0.383	0.199
-266.282	-200.000	0.011	-0.267
-265.267	800.000	0.013	-0.038
-264.253	-8.031	-0.143	-0.095
-263.238	49.731	-0.250	0.233
-262.224	138.098	0.120	-0.155
-261.209	800.000	0.103	0.343
-260.195	-54.228	-0.164	0.074
-259.180	800.000	0.032	-0.135
-258.165	-200.000	-0.058	-0.367
-257.151	-73.095	0.406	0.147
-256.136	45.520	0.320	0.292
-255.122	-200.000	0.012	-0.057
-254.107	-24.044	-0.082	-0.048
-253.092	800.000	0.032	-0.106
-252.078	405.028	0.060	-0.124
-251.063	-200.000	0.003	-0.144
-250.049	-200.000	0.013	-0.227
-249.034	-113.174	-0.151	-0.029
-248.019	64.646	-0.122	-0.121
-247.005	-62.037	0.394	-0.162
-245.990	-45.854	-0.268	-0.131
-244.976	-141.827	-0.141	-0.014
-243.961	-129.965	-0.236	-0.032
-242.946	587.901	-0.106	-0.257
-241.932	347.772	0.157	0.305
-240.917	75.567	-0.085	-0.088
-239.903	-108.165	-0.300	0.064
-238.888	404.235	-0.135	0.281
-237.873	5.932	-0.144	0.106
-236.859	-200.000	0.014	-0.064
-235.844	572.488	-0.077	0.185
-234.830	406.989	0.074	0.154
-233.815	-42.488	0.145	0.073
-232.800	202.134	-0.097	-0.147
-231.786	230.570	0.079	-0.127
-230.771	187.966	0.129	0.190
-229.757	-57.570	0.177	0.077
-228.742	-59.841	-0.151	-0.064
-227.727	-97.593	-0.171	-0.044
-226.713	153.057	-0.026	0.035
-225.698	-200.000	-0.045	-0.254
-224.684	-100.976	0.323	-0.078
-223.669	760.376	-0.082	-0.219
-222.655	-75.169	0.252	0.089
-221.640	-200.000	0.027	-0.277
-220.625	88.525	0.093	-0.102
-219.611	629.944	0.131	0.326
-218.596	-184.863	-0.121	-0.002
-217.582	104.221	0.105	0.122
-216.567	800.000	0.047	0.164
-215.552	-68.323	-0.130	0.050
-214.538	-46.478	0.130	-0.063
-213.523	123.891	0.110	-0.136
-212.509	-143.230	0.655	-0.062
-211.494	-9.359	-0.192	-0.126
-210.479	800.000	-0.041	0.152
-209.465	-200.000	0.020	0.102
-208.450	124.215	0.091	-0.112
-207.436	-5.114	0.298	-0.202
-206.421	367.783	-0.130	-0.259
-205.406	90.630	0.268	0.296
-204.392	541.995	-0.077	-0.180
-203.377	-4.627	0.283	0.193
-202.363	629.625	0.091	-0.226
-201.348	40.682	-0.144	-0.128
-200.333	800.000	0.074	0.220
-199.319	1.904	-0.065	-0.046
-198.304	-157.718	0.174	-0.010
-197.290	-156.142	-0.163	-0.010
-196.275	-200.000	0.044	-0.241
-195.260	-191.985	0.134	0.001
-194.246	-168.050	0.236	0.009
-193.231	190.564	-0.064	-0.095
-192.217	-116.522	0.469	0.085
-191.202	-54.087	0.187	-0.084
-190.187	-80.461	-0.246	-0.081
-189.173	56.290	-0.161	-0.154
-188.158	482.742	-0.141	0.316
-187.144	-91.326	0.102	-0.029
-186.129	-51.592	0.095	-0.044
-185.114	-67.084	0.177	0.069
-184.100	85.104	-0.228	0.247
-183.085	22.924	-0.133	0.108
-182.071	-200.000	0.014	0.162
-181.056	-200.000	-0.056	0.339
-180.042	-200.000	0.020	-0.092
-179.027	-200.000	0.010	0.042
-178.012	800.000	-0.039	-0.142
-176.998	-200.000	-0.065	0.299
-175.983	404.914	-0.031	-0.064
-174.969	-152.967	-0.285	-0.020
-173.954	800.000	-0.070	0.285
-172.939	14.472	0.162	-0.124
-171.925	-11.247	0.054	-0.035
-170.910	663.654	-0.115	-0.292
-169.896	-41.974	0.122	0.061
-168.881	-124.987	-0.076	-0.011
-167.866	6.400	0.223	0.163
-166.852	492.062	0.089	-0.202
-165.837	123.673	0.146	0.180
-164.823	1.100	-0.143	-0.101
-163.808	-200.000	-0.008	0.130
-162.793	-158.379	-0.081	-0.005
-161.779	-193.543	-0.242	-0.002
-160.764	-200.000	-0.004	0.029
-159.750	53.849	0.290	-0.274
-158.735	19.894	-0.219	0.173
-157.720	-200.000	-0.057	0.287
-156.706	63.432	-0.154	-0.152
-155.691	-200.000	0.012	-0.219
-154.677	27.658	0.166	-0.137
-153.662	-200.000	0.011	0.139
-152.647	80.823	0.234	0.248
-151.633	-200.000	0.007	0.083
-150.618	-200.000	-0.004	0.550
-149.604	800.000	0.038	0.140
-148.589	29.634	0.132	0.110
-147.574	-172.934	-0.335	-0.010
-146.560	50.192	0.317	-0.294
-145.545	-200.000	0.010	-0.104
-144.531	-24.222	0.093	0.055
-143.516	3.375	-0.161	0.115
-142.502	98.983	0.093	0.106
-141.487	-41.590	0.286	-0.145
-140.472	-91.438	0.343	-0.096
-139.458	33.693	0.085	0.073
-138.443	727.182	0.050	-0.132
-137.429	62.339	-0.075	0.074
-136.414	54.226	0.071	-0.068
-135.399	66.929	-0.307	0.307
-134.385	-79.142	-0.134	0.045
-133.370	103.429	-0.276	-0.318
-132.356	-93.780	-0.262	-0.071
-131.341	28.030	0.326	-0.270
-130.326	11.187	-0.039	-0.029
-129.312	-181.385	-0.102	0.002
-128.297	-84.773	-0.277	-0.086
-127.283	800.000	-0.026	0.109
-126.268	800.000	-0.074	0.231
-125.253	800.000	-0.049	0.186
-124.239	-200.000	0.071	0.426
-123.224	198.547	-0.118	-0.178
-122.210	82.752	0.097	0.104
-121.195	70.794	-0.195	0.198
-120.180	-13.634	0.361	-0.229
-119.166	800.000	-0.048	0.162
-118.151	-51.819	0.146	0.067
-117.137	-45.277	0.383	0.187
-116.122	-187.464	-0.263	-0.003
-115.107	511.954	0.109	0.250
-114.093	143.686	-0.101	0.133
-113.078	800.000	0.067	-0.288
-112.064	-200.000	-0.009	-0.076
-111.049	-170.743	-0.146	0.005
-110.034	-200.000	0.017	0.124
-109.020	31.715	0.249	0.211
-108.005	142.578	0.133	-0.174
-106.991	-200.000	0.033	-0.179
-105.976	794.213	0.019	0.051
-104.962	285.108	-0.066	-0.116
-103.947	-200.000	0.077	0.413
-102.932	-107.436	-0.338	0.073
-101.918	90.251	-0.048	0.053
-100.903	-200.000	-0.043	-0.335
-99.889	-123.774	-0.060	-0.009
-98.874	-73.321	-0.221	0.079
-97.859	95.163	0.157	0.176
-96.845	-109.077	-0.077	-0.016
-95.830	-170.595	-0.076	-0.003
-94.816	728.935	0.051	0.135
-93.801	173.659	-0.058	-0.083
-92.786	-153.347	0.249	-0.017
-91.772	227.648	-0.086	0.137
-90.757	-58.276	-0.163	-0.070
-89.743	-58.955	0.172	-0.073
-88.728	-99.044	0.361	0.090
-87.713	-200.000	0.018	0.114
-86.699	257.466	0.081	0.136
-85.684	-200.000	-0.013	0.093
-84.670	-44.424	0.309	-0.152
-83.655	-26.235	-0.122	-0.070
-82.640	-103.963	0.419	0.096
-81.626	6.756	0.228	0.167
-80.611	-200.000	0.006	-0.133
-79.597	-59.026	0.227	0.096
-78.582	-200.000	-0.001	0.069
-77.567	17.553	0.085	0.066
-76.553	257.452	0.147	0.248
-75.538	315.982	-0.121	0.225
-74.524	-138.170	0.460	-0.050
-73.509	-200.000	-0.016	0.074
-72.494	-126.397	0.384	0.056
-71.480	-200.000	-0.011	0.168
-70.465	23.358	-0.073	-0.059
-69.451	-200.000	-0.012	0.114
-68.436	16.725	-0.185	0.144
-67.422	658.305	-0.094	-0.238
-66.407	-15.635	-0.118	0.074
-65.392	-44.221	0.255	-0.125
-64.378	467.896	-0.052	0.115
-63.363	-186.339	0.143	0.002
-62.349	-200.000	-0.017	-0.158
-61.334	223.922	-0.611	-0.966
-60.319	73.050	0.702	0.719
-59.305	800.000	-0.362	-1.124
-58.290	101.307	0.769	0.877
-57.276	567.620	0.613	1.460
-56.261	-200.000	106.105	615.544
-55.246	506.503	1510.266	3431.919
-54.232	176.276	2701.353	3845.454
-53.217	110.471	2185.738	2574.501
-52.203	40.232	1704.085	1501.960
-51.188	32.667	1514.759	1283.759
-50.173	30.267	1488.077	1245.011
-49.159	51.604	1543.902	1438.193
-48.144	51.656	1561.100	1454.505
-47.130	32.843	1516.294	1286.056
-46.115	29.844	1500.806	1252.602
-45.100	29.589	1498.310	1248.741
-44.086	29.489	1495.855	1245.972
-43.071	29.571	1493.184	1244.247
-42.057	29.468	1491.837	1242.388
-41.042	29.491	1490.641	1241.493
-40.027	29.480	1489.310	1240.261
-39.013	29.565	1487.447	1239.232
-37.998	29.434	1486.555	1237.559
-36.984	29.491	1485.156	1236.727
-35.969	29.454	1483.434	1235.001
-34.954	29.497	1482.133	1234.154
-33.940	29.465	1481.012	1232.961
-32.925	29.441	1479.499	1231.492
-31.911	29.548	1477.706	1230.663
-30.896	29.523	1476.941	1229.810
-29.881	29.579	1475.712	1229.108
-28.867	29.634	1474.348	1228.287
-27.852	29.555	1473.413	1226.936
-26.838	29.498	1471.773	1225.145
-25.823	29.632	1469.759	1224.309
-24.809	29.644	1468.015	1222.883
-23.794	29.665	1466.972	1222.108
-22.779	29.506	1466.355	1220.491
-21.765	29.513	1465.191	1219.520
-20.750	29.498	1463.795	1218.215
-19.736	29.525	1462.824	1217.537
-18.721	29.583	1461.645	1216.889
-17.706	29.528	1460.440	1215.472
-16.692	29.465	1459.328	1214.088
-15.677	29.540	1458.110	1213.518
-14.663	29.518	1457.380	1212.716
-13.648	29.468	1456.478	1211.588
-12.633	29.402	1455.642	1210.413
-11.619	29.485	1454.517	1209.974
-10.604	29.432	1453.998	1209.150
-9.590	29.394	1453.472	1208.415
-8.575	29.413	1452.053	1207.311
-7.560	29.567	1451.042	1207.429
-6.546	29.360	1450.793	1205.818
-5.531	29.418	1450.017	1205.504
-4.517	29.460	1448.859	1204.769
-3.502	29.518	1447.612	1204.064
-2.487	29.501	1446.359	1202.865
-1.473	29.428	1445.111	1201.304
-0.458	29.378	1444.540	1200.454
0.556	27.072	1434.941	1190.005
1.571	24.216	1409.384	1150.301
2.586	20.891	1351.571	1082.400
3.600	19.392	1270.982	1009.008
4.615	18.313	1226.109	967.204
5.629	16.133	1172.019	912.670
6.644	8.085	1088.684	807.093
7.659	1.086	1047.855	742.553
8.673	-0.087	1042.716	733.127
9.688	-0.313	1039.596	729.770
10.702	-0.378	1037.552	727.953
11.717	-0.291	1035.472	726.850
12.731	2.901	1039.451	745.087
13.746	11.722	1051.724	796.965
14.761	18.660	1060.848	837.794
15.775	20.465	1062.296	847.679
16.790	20.703	1062.203	848.694
17.804	20.581	1061.226	847.241
18.819	20.406	1060.327	845.595
19.834	20.558	1059.872	845.898
20.848	20.722	1059.350	846.206
21.863	20.734	1059.135	846.017
22.877	20.680	1058.636	845.282
23.892	20.656	1057.960	844.548
24.907	20.559	1056.934	843.186
25.921	20.653	1056.516	843.233
26.936	20.550	1056.172	842.382
27.950	20.643	1054.284	841.255
28.965	20.635	1053.044	840.150
29.980	20.511	1051.836	838.515
30.994	20.368	1050.614	836.779
32.009	20.679	1049.070	836.968
33.023	20.754	1048.288	836.634
34.038	20.560	1047.423	834.939
35.053	20.553	1046.425	834.035
36.067	20.711	1045.709	834.145
37.082	20.641	1045.233	833.356
38.096	20.776	1044.159	833.073
39.111	20.890	1043.657	833.145
40.126	20.930	1042.686	832.487
41.140	20.780	1041.453	830.713
42.155	20.580	1039.998	828.526
43.169	20.255	1038.860	826.000
44.184	20.285	1037.883	825.292
45.199	20.458	1036.546	824.979
46.213	20.311	1035.773	823.591
47.228	20.224	1034.905	822.417
48.242	20.389	1034.144	822.520
49.257	20.580	1032.933	822.390
50.271	20.620	1031.950	821.721
51.286	20.629	1031.732	821.519
52.301	20.742	1030.686	821.145
53.315	20.637	1030.019	820.048
54.330	20.737	1029.536	820.061
55.344	20.598	1028.613	818.599
56.359	20.797	1027.044	818.214
57.374	20.690	1026.954	817.564
58.388	20.547	1025.405	815.589
59.403	20.403	1025.198	814.679
60.417	20.540	1024.088	814.364
61.432	20.283	1023.430	812.566
62.447	20.297	1022.575	811.882
63.461	20.394	1022.169	811.939
64.476	20.556	1021.126	811.797
65.490	20.492	1020.283	810.755
66.505	20.596	1019.076	810.211
67.520	20.428	1018.746	809.092
68.534	20.528	1017.618	808.589
69.549	20.270	1017.161	806.957
70.563	19.927	1015.421	803.913
71.578	19.990	1014.714	803.574
72.593	20.099	1013.796	803.280
73.607	19.996	1012.480	801.689
74.622	19.869	1011.896	800.571
75.636	20.230	1011.004	801.459
76.651	20.320	1009.995	801.007
77.666	20.179	1009.553	799.935
78.680	19.902	1008.629	797.855
79.695	20.069	1008.117	798.150
80.709	20.186	1007.330	797.994
81.724	20.329	1006.549	797.961
82.739	20.266	1005.598	796.847
83.753	20.272	1004.786	796.159
84.768	20.541	1004.436	797.045
85.782	20.726	1003.703	797.243
86.797	20.872	1002.949	797.239
87.812	20.795	1001.872	795.964
88.826	20.755	1000.823	794.875
89.841	20.694	1000.127	793.976
90.855	20.850	999.478	794.101
91.870	20.798	998.613	793.107
92.884	20.813	997.644	792.335
93.899	20.857	996.315	791.409
94.914	20.668	995.751	790.033
95.928	20.787	995.140	790.016
96.943	20.851	994.318	789.585
97.957	20.520	992.727	786.755
98.972	20.373	992.015	785.453
99.987	20.254	990.430	783.595
101.001	20.238	990.581	783.570
102.016	20.483	989.750	783.950
103.030	20.572	988.944	783.642
104.045	20.567	987.414	782.337
105.060	20.301	986.078	780.017
106.074	20.213	984.913	778.630
107.089	20.324	984.299	778.573
108.103	20.567	984.310	779.604
109.118	20.732	983.024	779.253
110.133	20.573	981.567	777.320
111.147	20.416	980.990	776.094
112.162	20.389	979.453	774.687
113.176	20.100	978.280	772.402
114.191	20.300	977.251	772.414
115.206	20.226	976.509	771.428
116.220	20.019	975.559	769.692
117.235	19.874	974.457	768.108
118.249	20.126	973.787	768.630
119.264	20.086	973.143	767.876
120.279	20.167	972.222	767.440
121.293	20.142	971.225	766.478
122.308	20.168	970.494	765.947
123.322	20.214	969.817	765.547
124.337	20.260	968.462	764.612
125.352	20.099	967.122	762.776
126.366	19.656	965.890	759.790
127.381	19.291	964.746	757.220
128.395	19.952	964.031	759.495
129.410	20.411	963.963	761.388
130.424	20.498	963.061	760.987
131.439	20.551	961.961	760.282
132.454	20.535	960.242	758.785
133.468	20.455	959.662	757.914
134.483	20.475	958.877	757.312
135.497	20.475	958.066	756.605
136.512	20.755	957.610	757.394
137.527	20.785	956.677	756.720
138.541	20.843	955.882	756.277
139.556	20.841	954.961	755.474
140.570	20.897	954.209	755.055
141.585	20.743	953.407	753.688
142.600	20.798	952.861	753.426
143.614	20.793	951.565	752.314
144.629	20.876	951.083	752.222
145.643	21.247	949.857	752.785
146.658	20.931	949.154	750.803
147.673	20.731	948.058	749.006
148.687	20.620	946.990	747.620
149.702	20.761	945.704	747.144
150.716	20.717	944.111	745.631
151.731	20.654	943.808	745.055
152.746	20.617	943.213	744.363
153.760	20.751	942.364	744.201
154.775	20.929	941.723	744.390
155.789	21.118	940.450	744.123
156.804	21.017	939.805	743.114
157.819	20.831	938.853	741.507
158.833	20.858	938.206	741.046
159.848	21.068	937.238	741.104
160.862	21.075	936.326	740.349
161.877	20.949	935.770	739.309
162.892	20.912	934.250	737.888
163.906	20.945	933.628	737.469
164.921	20.913	933.236	736.958
165.935	20.999	931.593	735.958
166.950	21.111	930.461	735.473
167.964	20.899	930.097	734.226
168.979	20.935	929.046	733.485
169.994	20.765	927.849	731.759
171.008	20.652	926.747	730.351
172.023	20.853	926.306	730.784
173.037	21.043	925.100	730.563
174.052	20.822	924.228	728.882
175.067	20.610	923.360	727.247
176.081	20.625	922.314	726.422
177.096	20.859	921.251	726.498
178.110	20.840	920.425	725.702
179.125	20.645	919.620	724.192
180.140	20.437	918.513	722.390
181.154	20.394	918.219	721.917
182.169	20.454	917.598	721.612
183.183	20.653	917.174	722.042
184.198	21.099	916.823	723.553
185.213	20.928	915.928	722.072
186.227	20.762	915.447	720.945
187.242	20.842	915.008	720.863
188.256	20.993	914.030	720.654
189.271	21.001	913.329	720.073
190.286	20.945	912.811	719.370
191.300	20.867	911.503	717.953
192.315	20.374	910.259	714.878
193.329	19.777	908.621	711.074
194.344	19.263	907.448	707.984
195.359	20.002	907.817	711.245
196.373	20.768	908.089	714.541
197.388	20.938	907.936	715.052
198.402	20.824	906.968	713.761
199.417	20.707	906.747	713.044
200.432	20.871	906.181	713.210
201.446	20.734	905.159	711.780
202.461	20.525	904.460	710.315
203.475	20.339	904.106	709.214
204.490	19.961	902.421	706.287
205.504	18.919	900.341	700.352
206.519	19.396	900.273	702.183
207.534	20.393	900.892	706.663
208.548	20.390	900.224	706.064
209.563	20.766	900.197	707.509
210.577	20.652	899.741	706.624
211.592	20.518	898.462	705.014
212.607	20.880	898.429	706.392
213.621	21.000	898.133	706.585
214.636	20.839	897.408	705.300
215.650	20.986	896.492	705.113
216.665	20.924	895.999	704.411
217.680	20.983	895.422	704.134
218.694	21.091	894.737	703.969
219.709	20.811	893.741	701.993
220.723	20.391	892.698	699.420
221.738	20.548	892.614	699.925
222.753	20.842	892.264	700.773
223.767	20.719	891.671	699.748
224.782	20.784	890.769	699.239
225.796	20.927	889.991	699.142
226.811	21.185	889.469	699.703
227.826	20.676	888.256	696.649
228.840	20.119	886.327	692.849
229.855	19.996	885.962	692.011
230.869	20.273	885.701	692.851
231.884	19.752	884.596	689.850
232.899	19.882	883.761	689.655
233.913	20.744	884.499	693.607
234.928	20.864	883.989	693.624
235.942	20.836	883.480	693.050
236.957	20.850	882.521	692.292
237.972	20.635	881.698	690.734
238.986	20.326	881.077	688.959
240.001	20.612	880.209	689.353
241.015	20.555	879.531	688.534
242.030	20.608	879.014	688.278
243.045	20.809	878.495	688.606
244.059	20.703	878.444	688.086
245.074	20.987	877.267	688.226
246.088	20.939	876.928	687.710
247.103	20.578	875.855	685.383
248.117	20.660	875.214	685.143
249.132	21.031	875.116	686.467
250.147	21.310	875.228	687.591
251.161	21.445	874.501	687.490
252.176	21.536	874.256	687.593
253.190	21.653	873.037	687.033
254.205	21.738	872.652	687.004
255.220	21.824	872.181	686.909
256.234	21.764	871.624	686.174
257.249	21.720	870.630	685.158
258.263	21.478	870.288	683.883
259.278	21.439	869.754	683.253
260.293	21.544	869.446	683.359
261.307	21.688	868.853	683.393
262.322	21.670	867.755	682.399
263.336	21.436	867.136	680.943
264.351	21.033	866.037	678.451
265.366	20.023	863.551	672.524
266.380	19.618	862.680	670.214
267.395	20.484	863.191	673.914
268.409	21.168	863.492	676.741
269.424	21.262	862.797	676.503
270.439	21.362	862.530	676.620
271.453	21.391	862.223	676.431
272.468	21.485	861.126	675.873
273.482	21.535	861.096	675.982
274.497	21.654	860.233	675.705
275.512	21.705	859.260	675.079
276.526	21.007	857.994	671.335
277.541	21.219	857.894	672.017
278.555	21.511	857.382	672.676
279.570	21.441	856.427	671.600
280.585	21.128	856.168	670.137
281.599	21.262	855.458	670.035
282.614	21.359	855.055	670.032
283.628	20.939	853.665	667.275
284.643	20.634	853.227	665.705
285.657	21.015	853.164	667.057
286.672	21.023	852.113	666.207
287.687	20.470	850.974	663.145
288.701	20.738	851.431	664.466
289.716	21.242	850.760	665.807
290.730	20.838	849.965	663.588
291.745	20.787	849.232	662.762
292.760	20.588	848.168	661.115
293.774	20.575	847.544	660.521
294.789	21.288	848.017	663.540
295.803	22.170	847.904	666.742
296.818	21.952	847.835	665.800
297.833	22.224	847.100	666.195
298.847	21.917	845.408	663.646
299.862	21.493	845.368	661.950
300.876	21.709	844.683	662.171
301.891	21.994	844.050	662.694
302.906	21.858	843.728	661.868
303.920	21.755	842.723	660.634
304.935	21.385	842.251	658.812
305.949	21.928	841.320	660.069
306.964	22.237	840.727	660.707
307.979	21.919	840.154	659.003
308.993	21.794	839.949	658.314
310.008	21.966	839.623	658.647
311.022	22.260	839.018	659.215
312.037	22.075	838.512	658.068
313.052	21.854	837.980	656.762
314.066	21.694	837.626	655.828
315.081	21.131	835.884	652.304
316.095	20.356	834.796	648.502
317.110	20.714	835.270	650.150
318.125	21.616	835.593	653.715
319.139	21.348	834.006	651.417
320.154	20.164	832.555	645.817
321.168	19.853	831.200	643.552
322.183	20.470	831.508	646.029
323.197	21.103	831.942	648.664
324.212	21.620	831.446	650.141
325.227	21.626	831.462	650.116
326.241	21.825	830.782	650.265
327.256	21.799	829.949	649.460
328.270	21.572	829.765	648.418
329.285	21.610	829.052	647.942
330.300	21.485	828.473	646.972
331.314	21.205	827.325	644.984
332.329	21.240	826.980	644.786
333.343	21.641	826.610	645.918
334.358	21.976	825.925	646.563
335.373	21.869	825.558	645.824
336.387	21.789	825.179	645.174
337.402	22.019	824.747	645.627
338.416	22.363	824.226	646.426
339.431	22.373	823.402	645.759
340.446	22.311	823.000	645.157
341.460	22.507	822.728	645.609
342.475	22.619	822.103	645.469
343.489	22.228	821.355	643.393
344.504	22.265	820.735	642.987
345.519	22.517	820.441	643.619
346.533	22.647	820.108	643.778
347.548	22.715	819.753	643.688
348.562	22.885	819.246	643.853
349.577	22.533	819.255	642.519
350.592	22.562	818.334	641.848
351.606	22.713	817.663	641.816
352.621	22.734	816.904	641.238
353.635	22.527	816.678	640.254
354.650	22.391	816.224	639.345
355.665	22.078	815.292	637.424
356.679	21.131	813.613	632.622
357.694	21.022	813.152	631.814
358.708	21.748	812.865	634.163
359.723	21.708	812.357	633.566
360.738	21.933	812.268	634.254
361.752	22.165	812.263	635.032
362.767	22.297	812.127	635.345
363.781	22.816	811.461	636.640
364.796	22.877	811.504	636.840
365.810	22.994	810.942	636.764
366.825	23.188	810.578	637.119
367.840	23.023	810.196	636.168
368.854	22.758	809.477	634.595
369.869	22.375	808.775	632.612
370.883	22.399	808.069	632.089
371.898	22.468	807.246	631.636
372.913	22.419	806.487	630.813
373.927	22.388	806.274	630.479
374.942	22.319	805.787	629.796
375.956	22.474	805.184	629.823
376.971	22.603	804.766	629.902
377.986	22.869	804.254	630.393
379.000	22.961	803.804	630.313
380.015	23.028	803.235	630.051
381.029	22.663	802.866	628.407
382.044	22.702	802.139	627.920
383.059	22.931	801.601	628.259
384.073	23.030	801.227	628.260
385.088	22.931	800.707	627.446
386.102	22.783	800.564	626.752
387.117	22.892	799.396	626.170
388.132	22.713	798.796	625.009
389.146	22.570	798.051	623.866
390.161	22.055	797.115	621.256
391.175	22.140	796.772	621.236
392.190	22.548	796.658	622.534
393.205	22.650	796.263	622.528
394.219	21.728	794.569	617.899
395.234	20.207	792.466	610.857
396.248	19.435	791.626	607.439
397.263	20.668	792.142	612.121
398.278	22.346	793.604	619.107
399.292	22.767	793.247	620.255
400.307	22.374	792.715	618.402
401.321	22.446	792.371	618.330
402.336	22.404	792.074	617.898
403.350	22.626	791.942	618.518
404.365	22.896	792.043	619.492
405.380	23.237	791.703	620.365
406.394	23.456	791.750	621.114
407.409	23.704	791.047	621.377
408.423	23.553	790.833	620.625
409.438	23.490	790.209	619.860
410.453	23.523	789.312	619.215
411.467	23.673	789.112	619.529
412.482	23.647	788.576	618.961
413.496	23.617	787.807	618.197
414.511	23.772	787.489	618.436
415.526	23.754	787.143	618.046
416.540	23.671	786.691	617.349
417.555	23.747	786.001	617.013
418.569	23.255	785.301	614.705
419.584	23.336	785.194	614.846
420.599	23.437	784.638	614.708
421.613	157.389	1364.719	1799.175
422.628	136.102	1449.225	1799.250
