DTS Sentinel unit serial number:	SN413079Multiplexer serial number:	ORYXHardware model number:	OX4-SRSoftware version number:	ORYX F/W v4.00 Oryx Data Collector v3.7.2.0data status	okinstallation	princeton_trtdifferential loss correction	single-endedforward channel	channel 3reverse channel	N/Adate	2019/09/12time	12:18:10forward acquisition time	60.00reverse acquisition time	0.00gamma	496.2192k internal	0.2293k external	0.2293temperature offset calibration	1.0041default loss term (dB/km)	0.3790temperature slope calibration	1.0000multiplexer offset coefficient	1.0000multiplexer slope coefficient	1.0000fibre end	0.00T internal ref (°C)	40.62T ext. ref 1 (°C)	2.03T ext. ref 2 (°C)	35.29length (m)	temperature (°C)	Stokes	anti-Stokes-747.200	-20.703	-0.331	0.208
-746.185	800.000	-0.060	0.177
-745.171	101.031	-0.237	0.282
-744.156	14.633	0.209	0.167
-743.142	-106.155	0.364	-0.084
-742.127	132.506	-0.084	-0.111
-741.112	149.676	0.095	0.132
-740.098	800.000	-0.148	0.589
-739.083	-59.405	0.287	-0.126
-738.069	88.840	-0.102	0.117
-737.054	403.670	-0.069	-0.148
-736.039	384.277	-0.090	0.189
-735.025	309.973	0.119	0.228
-734.010	66.417	0.239	-0.248
-732.996	65.715	0.247	0.256
-731.981	-160.861	-0.484	-0.026
-730.966	392.445	-0.046	0.097
-729.952	800.000	0.099	-0.375
-728.937	37.079	-0.182	-0.165
-727.923	800.000	0.097	-0.345
-726.908	174.918	-0.207	-0.307
-725.894	347.977	-0.253	-0.510
-724.879	32.423	0.173	0.153
-723.864	-152.536	-0.450	-0.033
-722.850	23.520	-0.265	0.223
-721.835	-59.633	0.085	-0.037
-720.821	151.633	-0.041	-0.057
-719.806	-56.863	0.264	0.119
-718.791	226.066	-0.210	-0.348
-717.777	-77.182	-0.260	-0.092
-716.762	-200.000	0.006	-0.328
-715.748	224.689	-0.049	0.081
-714.733	-80.626	0.161	0.055
-713.718	16.799	0.258	0.209
-712.704	-113.001	0.207	-0.042
-711.689	-142.684	0.075	0.008
-710.675	-200.000	-0.001	-0.059
-709.660	800.000	-0.141	0.454
-708.645	525.712	0.046	0.110
-707.631	364.530	-0.026	0.054
-706.616	-133.422	-0.371	0.048
-705.602	-51.528	-0.132	-0.063
-704.587	80.602	-0.300	-0.330
-703.572	-145.564	-0.473	-0.043
-702.558	713.921	0.061	-0.166
-701.543	87.797	-0.229	-0.259
-700.529	-19.505	-0.315	0.199
-699.514	-17.159	-0.113	-0.073
-698.499	-200.000	-0.012	0.066
-697.485	-88.092	0.320	0.098
-696.470	118.729	0.105	0.133
-695.456	-139.318	-0.241	0.027
-694.441	-4.672	0.188	-0.133
-693.426	12.310	-0.147	0.116
-692.412	-49.755	-0.211	0.102
-691.397	348.268	0.185	-0.373
-690.383	800.000	0.081	0.277
-689.368	114.330	0.115	0.143
-688.354	112.123	-0.095	0.117
-687.339	800.000	-0.068	0.208
-686.324	61.999	0.164	0.167
-685.310	-59.546	-0.189	-0.083
-684.295	-23.019	0.083	0.051
-683.281	-200.000	0.018	0.168
-682.266	-161.878	-0.228	0.012
-681.251	-200.000	0.037	-0.313
-680.237	147.370	-0.202	-0.278
-679.222	-104.877	-0.136	-0.032
-678.208	121.171	-0.080	0.101
-677.193	178.558	-0.085	0.127
-676.178	637.121	0.108	-0.279
-675.164	-121.890	0.412	0.069
-674.149	-120.469	-0.230	-0.040
-673.135	23.260	-0.231	-0.194
-672.120	800.000	-0.070	-0.278
-671.105	800.000	-0.010	-0.037
-670.091	-77.472	-0.329	0.116
-669.076	292.242	0.162	0.301
-668.062	-199.026	0.150	-0.001
-667.047	460.393	0.135	-0.308
-666.032	-86.163	-0.088	-0.028
-665.018	-40.964	0.219	-0.115
-664.003	48.223	-0.081	0.077
-662.989	800.000	0.068	0.235
-661.974	464.990	-0.087	0.199
-660.959	-200.000	-0.030	-0.288
-659.945	142.590	-0.251	-0.340
-658.930	800.000	-0.074	0.267
-657.916	-139.685	-0.202	-0.022
-656.901	-81.261	0.056	0.019
-655.886	204.320	-0.157	0.249
-654.872	-60.245	-0.200	0.087
-653.857	-11.178	-0.119	-0.080
-652.843	341.650	0.122	0.242
-651.828	-63.023	0.234	0.099
-650.814	-177.807	-0.319	0.008
-649.799	-173.704	0.134	0.004
-648.784	187.026	-0.138	-0.209
-647.770	529.569	-0.111	-0.268
-646.755	-105.520	-0.240	-0.056
-645.741	75.008	-0.317	-0.341
-644.726	350.493	0.114	-0.229
-643.711	-83.112	-0.332	-0.109
-642.697	-97.146	0.130	0.035
-641.682	-64.185	0.201	-0.084
-640.668	127.164	0.067	0.087
-639.653	543.403	-0.113	0.275
-638.638	-155.110	0.262	0.017
-637.624	-124.831	0.168	0.026
-636.609	800.000	-0.047	-0.181
-635.595	-139.780	0.234	0.025
-634.580	133.959	-0.184	0.243
-633.565	666.004	-0.110	0.290
-632.551	-148.450	0.064	0.005
-631.536	10.087	-0.165	0.128
-630.522	-200.000	-0.004	-0.086
-629.507	509.981	0.142	0.337
-628.492	362.018	0.056	0.115
-627.478	-168.981	0.232	-0.009
-626.463	157.986	-0.163	0.230
-625.449	-46.726	-0.351	-0.175
-624.434	-146.312	0.315	0.028
-623.419	-114.250	-0.078	-0.015
-622.405	-200.000	0.045	-0.404
-621.390	164.841	0.085	-0.122
-620.376	-147.183	0.303	-0.026
-619.361	-88.143	0.160	-0.049
-618.346	-105.245	0.075	-0.017
-617.332	-103.635	-0.146	-0.035
-616.317	-73.537	-0.105	-0.039
-615.303	-200.000	0.002	-0.122
-614.288	-200.000	-0.013	-0.164
-613.273	-62.155	-0.286	-0.121
-612.259	136.747	0.065	0.087
-611.244	-110.621	-0.167	-0.035
-610.230	-200.000	-0.007	-0.187
-609.215	267.832	-0.122	0.218
-608.201	-20.370	0.120	-0.075
-607.186	52.304	0.266	0.259
-606.171	-184.992	0.252	-0.004
-605.157	-200.000	0.085	-0.430
-604.142	262.288	0.202	0.356
-603.128	-157.510	-0.067	-0.004
-602.113	375.158	-0.037	-0.077
-601.098	-200.000	-0.060	0.466
-600.084	-200.000	-0.048	-0.269
-599.069	-200.000	-0.026	-0.160
-598.055	-200.000	-0.021	0.128
-597.040	-25.284	0.189	0.114
-596.025	104.969	0.073	0.087
-595.011	-61.418	0.117	-0.050
-593.996	-13.878	0.254	0.167
-592.982	-60.255	0.229	0.099
-591.967	800.000	-0.030	0.093
-590.952	-135.195	-0.244	-0.030
-589.938	-200.000	0.033	-0.491
-588.923	167.647	0.260	-0.376
-587.909	-200.000	-0.026	-0.440
-586.894	800.000	-0.070	0.279
-585.879	7.122	-0.230	-0.174
-584.865	55.724	0.137	0.135
-583.850	-61.998	-0.347	-0.147
-582.836	68.162	-0.206	0.214
-581.821	547.465	0.060	-0.146
-580.806	332.995	-0.127	-0.249
-579.792	-26.550	0.088	0.052
-578.777	-200.000	-0.073	0.423
-577.763	-121.673	0.091	0.015
-576.748	33.305	-0.225	-0.199
-575.733	82.680	-0.153	-0.169
-574.719	-40.361	-0.112	-0.059
-573.704	-11.539	0.091	0.061
-572.690	-86.602	0.163	-0.051
-571.675	-76.847	0.262	0.093
-570.661	-30.869	-0.268	0.154
-569.646	-107.474	0.303	0.068
-568.631	185.299	-0.179	0.270
-567.617	-82.325	-0.291	0.096
-566.602	-200.000	-0.048	0.274
-565.588	-56.150	0.142	-0.064
-564.573	26.113	-0.300	0.254
-563.558	143.937	0.060	-0.081
-562.544	800.000	0.032	0.118
-561.529	707.186	0.114	0.307
-560.515	-57.091	-0.198	-0.088
-559.500	-83.282	-0.178	-0.058
-558.485	219.876	-0.097	0.159
-557.471	-27.093	-0.142	0.084
-556.456	4.946	0.053	-0.040
-555.442	-124.306	-0.132	0.021
-554.427	239.534	-0.163	-0.276
-553.412	-96.425	0.081	0.022
-552.398	-200.000	-0.061	0.315
-551.383	-200.000	0.022	0.164
-550.369	800.000	-0.055	-0.184
-549.354	800.000	-0.036	-0.106
-548.339	387.395	-0.143	0.301
-547.325	446.686	0.074	0.165
-546.310	800.000	-0.107	-0.354
-545.296	-57.632	-0.140	-0.062
-544.281	23.071	0.055	0.045
-543.266	35.282	-0.472	-0.420
-542.252	693.999	-0.089	-0.238
-541.237	198.781	-0.302	-0.469
-540.223	-200.000	-0.079	0.517
-539.208	-7.017	-0.116	-0.080
-538.193	-48.068	-0.166	-0.081
-537.179	-54.994	0.205	0.094
-536.164	800.000	0.017	0.070
-535.150	76.001	-0.236	0.254
-534.135	-27.229	0.217	-0.129
-533.121	4.656	0.308	-0.229
-532.106	-200.000	-0.003	0.072
-531.091	380.092	0.187	0.390
-530.077	-200.000	-0.036	0.433
-529.062	89.241	-0.134	0.152
-528.048	-200.000	0.009	0.050
-527.033	-56.238	0.321	-0.145
-526.018	-200.000	0.009	-0.158
-525.004	-200.000	0.014	-0.129
-523.989	422.071	-0.113	0.245
-522.975	-86.018	-0.195	0.061
-521.960	481.350	-0.005	-0.011
-520.945	467.591	-0.076	0.173
-519.931	119.323	0.145	-0.182
-518.916	-10.014	0.119	-0.081
-517.902	-115.067	0.138	-0.027
-516.887	-117.770	-0.264	0.048
-515.872	315.178	-0.104	-0.199
-514.858	-115.841	0.318	-0.060
-513.843	376.270	-0.187	-0.388
-512.829	62.978	-0.086	-0.087
-511.814	-48.153	-0.118	0.058
-510.799	800.000	-0.166	0.503
-509.785	235.086	-0.056	0.094
-508.770	800.000	0.056	0.172
-507.756	499.760	0.121	0.283
-506.741	-41.560	0.278	0.145
-505.726	-82.256	-0.084	-0.028
-504.712	-200.000	0.006	-0.028
-503.697	-99.564	0.163	0.042
-502.683	-37.131	0.391	-0.212
-501.668	478.937	0.053	0.122
-500.653	185.666	-0.179	0.270
-499.639	120.437	-0.177	-0.223
-498.624	-91.897	0.352	-0.101
-497.610	-79.941	-0.385	-0.131
-496.595	7.281	0.226	0.171
-495.581	-124.161	0.323	-0.051
-494.566	-86.075	0.335	0.105
-493.551	-86.122	0.207	0.065
-492.537	800.000	-0.081	0.336
-491.522	-91.065	0.300	0.087
-490.508	-75.374	-0.266	0.096
-489.493	242.449	-0.123	-0.209
-488.478	-64.628	-0.166	-0.068
-487.464	-200.000	-0.028	0.273
-486.449	800.000	-0.121	-0.425
-485.435	-200.000	-0.001	0.017
-484.420	-98.421	-0.166	0.043
-483.405	8.584	0.116	0.088
-482.391	-154.834	-0.136	-0.009
-481.376	-200.000	0.030	0.170
-480.362	-82.107	-0.047	-0.015
-479.347	-200.000	0.027	-0.129
-478.332	267.198	-0.108	-0.191
-477.318	40.539	0.168	-0.153
-476.303	500.298	0.073	0.170
-475.289	-10.818	0.358	0.240
-474.274	-200.000	-0.022	0.122
-473.259	176.643	0.111	-0.164
-472.245	-200.000	-0.095	0.527
-471.230	-95.324	0.126	-0.034
-470.216	141.396	-0.057	0.077
-469.201	200.178	-0.121	-0.188
-468.186	12.209	-0.085	-0.067
-467.172	-61.398	-0.154	0.066
-466.157	-56.446	-0.188	0.084
-465.143	-5.654	-0.311	-0.216
-464.128	800.000	0.020	0.069
-463.113	-44.591	0.095	-0.048
-462.099	-77.223	-0.112	0.039
-461.084	22.357	0.280	0.232
-460.070	276.040	-0.079	0.143
-459.055	499.783	-0.142	0.332
-458.040	-200.000	-0.009	0.167
-457.026	199.339	0.105	0.163
-456.011	-200.000	0.054	-0.593
-454.997	458.647	-0.103	-0.231
-453.982	-70.519	-0.189	-0.073
-452.968	42.926	0.029	-0.027
-451.953	74.719	-0.195	-0.207
-450.938	-200.000	0.033	-0.232
-449.924	169.699	0.182	-0.263
-448.909	-91.642	0.106	0.031
-447.895	17.504	0.419	0.337
-446.880	-66.129	0.067	0.027
-445.865	614.848	-0.079	0.200
-444.851	-86.635	0.191	-0.059
-443.836	-200.000	0.025	-0.449
-442.822	-28.721	-0.075	-0.044
-441.807	-200.000	-0.024	-0.276
-440.792	363.572	-0.050	-0.103
-439.778	-89.044	-0.421	0.126
-438.763	45.816	0.259	0.242
-437.749	-92.741	0.087	0.025
-436.734	-58.237	0.123	0.054
-435.719	101.603	-0.072	-0.085
-434.705	467.123	-0.058	0.131
-433.690	46.232	0.098	0.092
-432.676	2.064	0.227	-0.166
-431.661	-200.000	-0.030	0.152
-430.646	154.911	-0.148	0.205
-429.632	-1.350	-0.067	-0.048
-428.617	55.013	0.121	0.118
-427.603	800.000	0.093	0.338
-426.588	37.310	0.220	-0.197
-425.573	-76.767	0.091	-0.032
-424.559	78.867	0.149	-0.161
-423.544	-164.321	0.262	0.012
-422.530	-159.118	-0.163	-0.009
-421.515	-32.175	0.257	-0.145
-420.500	485.522	0.138	-0.317
-419.486	115.520	-0.183	-0.226
-418.471	-200.000	-0.024	-0.363
-417.457	800.000	0.029	-0.082
-416.442	194.896	0.064	-0.099
-415.428	-200.000	-0.035	0.157
-414.413	-78.116	-0.034	0.012
-413.398	-200.000	-0.335	-0.000
-412.384	-25.585	-0.096	-0.057
-411.369	-200.000	0.028	0.183
-410.355	358.725	0.098	0.198
-409.340	-25.153	-0.239	-0.143
-408.325	525.622	0.125	-0.296
-407.311	-58.249	-0.360	0.158
-406.296	-60.958	-0.443	-0.189
-405.282	-37.175	0.231	-0.125
-404.267	-101.077	-0.300	0.074
-403.252	488.363	0.102	0.234
-402.238	-13.775	0.194	0.127
-401.223	-75.730	0.138	0.049
-400.209	-200.000	-0.002	-0.021
-399.194	86.946	-0.046	-0.051
-398.179	-200.000	-0.015	-0.223
-397.165	-200.000	-0.017	0.438
-396.150	-76.805	-0.356	0.126
-395.136	77.300	-0.221	0.237
-394.121	-36.027	0.083	0.045
-393.106	274.236	-0.082	0.146
-392.092	-78.896	0.258	0.089
-391.077	64.290	0.069	-0.070
-390.063	240.881	-0.084	0.142
-389.048	9.846	-0.201	-0.154
-388.033	-185.452	-0.061	0.001
-387.019	-90.375	-0.074	0.022
-386.004	-6.141	0.279	-0.193
-384.990	-32.627	-0.255	-0.143
-383.975	-200.000	-0.019	0.231
-382.960	138.384	0.204	-0.269
-381.946	800.000	0.047	-0.153
-380.931	205.093	-0.134	0.209
-379.917	92.897	-0.133	-0.152
-378.902	115.569	-0.070	0.087
-377.888	13.119	0.230	-0.180
-376.873	-200.000	0.005	-0.070
-375.858	326.491	-0.019	-0.038
-374.844	-173.589	-0.156	0.005
-373.829	137.701	-0.145	0.192
-372.815	-200.000	0.020	-0.388
-371.800	-200.000	-0.064	-0.332
-370.785	800.000	0.020	0.064
-369.771	452.681	0.068	0.152
-368.756	80.706	-0.101	0.110
-367.742	-200.000	-0.067	-0.000
-366.727	54.376	-0.080	0.078
-365.712	121.134	-0.023	-0.029
-364.698	110.076	0.132	-0.159
-363.683	-200.000	0.025	0.148
-362.669	71.915	-0.124	-0.131
-361.654	236.862	0.122	-0.204
-360.639	800.000	0.102	0.381
-359.625	21.499	0.284	0.233
-358.610	53.282	0.204	0.197
-357.596	-144.591	-0.372	-0.035
-356.581	330.172	-0.126	-0.244
-355.566	-200.000	-0.035	0.163
-354.552	-0.026	0.099	0.071
-353.537	16.763	-0.149	0.119
-352.523	20.700	0.100	-0.082
-351.508	-75.428	0.473	-0.170
-350.493	76.821	-0.224	-0.239
-349.479	-81.690	-0.241	0.080
-348.464	800.000	-0.062	0.230
-347.450	-109.600	-0.140	0.030
-346.435	800.000	-0.040	-0.139
-345.420	-74.670	0.177	-0.064
-344.406	-124.568	-0.249	0.039
-343.391	-118.900	0.227	-0.040
-342.377	-92.640	-0.060	-0.017
-341.362	-200.000	-0.037	-0.262
-340.348	-74.816	-0.198	-0.072
-339.333	-200.000	0.024	-0.181
-338.318	-115.099	0.182	0.035
-337.304	800.000	-0.020	0.075
-336.289	-200.000	0.070	-0.440
-335.275	-40.594	0.068	-0.035
-334.260	107.769	-0.058	0.070
-333.245	287.711	-0.146	0.265
-332.231	3.226	0.252	0.184
-331.216	800.000	-0.036	0.148
-330.202	-5.041	0.252	0.175
-329.187	800.000	0.057	0.245
-328.172	292.985	-0.139	-0.255
-327.158	-200.000	-0.030	-0.317
-326.143	-108.595	-0.222	-0.048
-325.129	140.188	-0.072	0.095
-324.114	-69.901	0.402	-0.154
-323.099	330.269	-0.167	-0.324
-322.085	800.000	-0.137	-0.452
-321.070	-6.929	-0.219	-0.150
-320.056	800.000	-0.058	0.168
-319.041	396.298	-0.137	0.288
-318.026	-73.911	0.268	0.098
-317.012	-200.000	0.034	-0.284
-315.997	-71.567	0.341	0.128
-314.983	-6.562	-0.239	0.163
-313.968	-200.000	-0.010	0.113
-312.953	112.517	0.155	0.189
-311.939	83.175	0.217	-0.238
-310.924	-58.620	0.160	-0.070
-309.910	800.000	0.171	0.486
-308.895	-123.800	0.162	0.026
-307.880	800.000	0.055	0.230
-306.866	-10.945	-0.137	-0.091
-305.851	462.549	0.038	-0.085
-304.837	-40.257	0.185	-0.097
-303.822	-200.000	-0.039	0.216
-302.807	-11.967	-0.169	0.111
-301.793	116.403	0.033	0.040
-300.778	44.585	-0.084	0.078
-299.764	-12.862	-0.214	-0.140
-298.749	-183.903	0.082	0.001
-297.735	-159.399	-0.354	-0.020
-296.720	42.203	0.197	-0.180
-295.705	19.933	-0.169	-0.137
-294.691	2.544	-0.368	0.268
-293.676	-166.809	-0.239	0.010
-292.662	25.495	0.188	0.157
-291.647	-193.229	0.255	-0.002
-290.632	-200.000	-0.008	0.079
-289.618	-115.367	0.304	-0.058
-288.603	749.144	-0.002	0.006
-287.589	-10.101	0.136	0.091
-286.574	117.093	-0.172	0.212
-285.559	-49.104	0.152	-0.073
-284.545	800.000	0.113	-0.376
-283.530	38.742	-0.032	-0.029
-282.516	341.892	0.098	-0.192
-281.501	81.559	-0.072	0.079
-280.486	-41.885	-0.184	0.095
-279.472	-200.000	0.020	0.211
-278.457	-37.645	0.145	0.077
-277.443	-200.000	-0.025	0.174
-276.428	-157.532	0.348	0.021
-275.413	127.705	-0.210	-0.268
-274.399	612.765	0.107	-0.268
-273.384	357.489	-0.124	-0.249
-272.370	196.752	0.017	-0.026
-271.355	445.973	-0.019	0.041
-270.340	65.534	0.093	0.095
-269.326	-73.895	0.166	0.061
-268.311	748.137	-0.195	0.529
-267.297	-34.591	0.323	-0.178
-266.282	-175.562	-0.285	0.008
-265.267	-149.412	-0.303	0.024
-264.253	800.000	-0.045	-0.166
-263.238	800.000	0.039	-0.120
-262.224	-129.532	-0.289	-0.040
-261.209	-200.000	-0.052	0.327
-260.195	39.875	-0.221	0.199
-259.180	290.642	-0.155	-0.283
-258.165	800.000	-0.041	-0.150
-257.151	-87.135	0.166	-0.051
-256.136	800.000	-0.049	0.158
-255.122	-200.000	0.007	0.140
-254.107	-60.246	0.162	-0.069
-253.092	-151.455	-0.270	0.020
-252.078	-76.026	0.301	-0.107
-251.063	62.683	-0.140	0.140
-250.049	43.128	0.066	-0.060
-249.034	-200.000	0.001	0.312
-248.019	648.143	-0.120	0.308
-247.005	800.000	-0.088	0.358
-245.990	176.621	0.243	0.354
-244.976	800.000	0.084	0.239
-243.961	-86.875	0.230	0.070
-242.946	-200.000	-0.037	-0.292
-241.932	-200.000	0.026	-0.120
-240.917	-200.000	-0.039	-0.191
-239.903	-66.532	0.236	0.094
-238.888	108.961	0.074	-0.089
-237.873	84.969	0.113	0.124
-236.859	-190.352	0.146	0.002
-235.844	-25.468	-0.239	-0.142
-234.830	-65.938	-0.048	-0.019
-233.815	-47.788	-0.176	-0.086
-232.800	-200.000	-0.049	0.306
-231.786	-200.000	-0.034	0.166
-230.771	-200.000	-0.048	0.279
-229.757	-101.322	0.157	0.038
-228.742	296.016	0.100	-0.183
-227.727	800.000	0.059	0.215
-226.713	-159.845	0.011	-0.001
-225.698	135.656	-0.095	0.124
-224.684	24.470	-0.127	-0.105
-223.669	23.877	-0.265	-0.219
-222.655	-200.000	-0.072	-0.422
-221.640	-61.480	-0.132	0.056
-220.625	-200.000	-0.004	0.091
-219.611	294.221	0.030	0.055
-218.596	262.807	-0.017	0.030
-217.582	-57.797	-0.130	0.057
-216.567	18.176	-0.066	0.052
-215.552	71.792	0.243	-0.253
-214.538	800.000	-0.087	-0.298
-213.523	-69.527	-0.164	-0.063
-212.509	-62.199	0.088	-0.037
-211.494	-197.394	0.416	-0.003
-210.479	71.086	0.273	-0.284
-209.465	106.864	-0.225	-0.268
-208.450	-200.000	0.019	0.254
-207.436	317.158	0.097	-0.183
-206.421	32.784	-0.199	0.173
-205.406	800.000	-0.041	-0.120
-204.392	-134.597	-0.246	0.030
-203.377	-200.000	0.029	0.310
-202.363	-200.000	-0.014	0.085
-201.348	557.174	-0.158	-0.381
-200.333	800.000	0.097	-0.333
-199.319	-71.402	-0.161	0.060
-198.304	-200.000	0.042	-0.196
-197.290	303.317	-0.042	0.079
-196.275	-95.080	-0.164	0.044
-195.260	-200.000	0.007	-0.274
-194.246	61.228	-0.076	0.076
-193.231	256.506	0.147	-0.253
-192.217	292.687	0.134	-0.244
-191.202	444.071	0.038	0.083
-190.187	422.201	0.107	-0.230
-189.173	800.000	-0.035	-0.126
-188.158	-73.357	0.394	0.144
-187.144	-200.000	-0.013	0.264
-186.129	-78.463	-0.164	0.056
-185.114	800.000	0.053	0.212
-184.100	800.000	-0.064	0.279
-183.085	-99.968	-0.221	0.055
-182.071	-59.009	0.084	-0.037
-181.056	100.491	0.132	-0.154
-180.042	-106.615	0.281	-0.063
-179.027	-138.690	0.334	0.037
-178.012	-200.000	-0.019	0.349
-176.998	11.726	-0.154	0.118
-175.983	-124.875	-0.304	-0.047
-174.969	-138.386	0.339	-0.037
-173.954	-35.695	0.056	0.030
-172.939	-8.651	0.170	-0.114
-171.925	-200.000	0.033	-0.398
-170.910	383.638	-0.085	-0.174
-169.896	-200.000	-0.000	-0.066
-168.881	-101.863	0.199	0.048
-167.866	-191.382	0.289	0.003
-166.852	107.123	0.251	-0.299
-165.837	800.000	-0.079	0.240
-164.823	-55.318	0.221	-0.099
-163.808	-81.026	0.308	0.102
-162.793	-45.913	-0.215	0.106
-161.779	-200.000	-0.001	-0.146
-160.764	-101.919	0.108	-0.026
-159.750	800.000	0.019	0.058
-158.735	781.998	-0.102	-0.279
-157.720	-25.293	0.090	-0.053
-156.706	71.664	-0.153	-0.159
-155.691	-136.895	0.073	-0.008
-154.677	-133.042	0.304	0.039
-153.662	-74.396	-0.208	0.075
-152.647	277.344	-0.085	0.150
-151.633	-200.000	-0.040	0.240
-150.618	-200.000	0.004	0.110
-149.604	-54.996	0.238	0.107
-148.589	86.959	-0.034	0.038
-147.574	-71.355	-0.300	-0.112
-146.560	-157.602	-0.066	-0.004
-145.545	-80.089	-0.309	-0.103
-144.531	198.792	-0.101	-0.154
-143.516	218.114	0.053	-0.085
-142.502	715.004	-0.046	0.122
-141.487	-139.698	-0.210	0.022
-140.472	-66.041	-0.227	-0.090
-139.458	-200.000	-0.006	0.044
-138.443	-111.153	-0.208	0.042
-137.429	79.449	-0.284	-0.305
-136.414	800.000	-0.043	-0.168
-135.399	-148.250	0.397	0.033
-134.385	17.082	0.179	-0.142
-133.370	-102.295	-0.268	-0.064
-132.356	667.810	0.126	0.326
-131.341	-200.000	-0.044	-0.347
-130.326	-79.740	0.361	-0.121
-129.312	800.000	0.093	0.301
-128.297	86.439	0.025	-0.027
-127.283	24.936	0.017	0.014
-126.268	483.274	-0.056	0.128
-125.253	-85.136	-0.123	-0.038
-124.239	443.062	0.155	-0.339
-123.224	9.011	0.188	-0.142
-122.210	59.981	0.102	-0.100
-121.195	53.544	0.208	0.200
-120.180	-200.000	-0.005	0.326
-119.166	-82.986	-0.081	-0.026
-118.151	135.527	0.130	0.169
-117.137	-146.540	-0.059	0.005
-116.122	-164.586	0.130	-0.006
-115.107	-101.173	0.147	-0.036
-114.093	78.486	0.088	0.094
-113.078	-111.289	-0.139	0.028
-112.064	-69.747	-0.194	0.074
-111.049	-161.215	-0.168	0.009
-110.034	-167.579	0.281	0.011
-109.020	525.196	0.056	0.131
-108.005	-200.000	-0.004	-0.067
-106.991	-76.852	0.288	-0.101
-105.976	382.956	0.093	-0.191
-104.962	-66.273	-0.411	0.163
-103.947	800.000	0.043	0.120
-102.932	-29.183	-0.315	0.180
-101.918	-25.019	0.146	-0.087
-100.903	590.049	-0.112	-0.276
-99.889	454.236	0.099	-0.219
-98.874	99.433	0.177	-0.204
-97.859	120.267	-0.147	0.183
-96.845	27.695	-0.205	0.172
-95.830	-96.457	-0.207	-0.055
-94.816	-200.000	0.024	0.123
-93.801	-200.000	0.047	-0.333
-92.786	57.132	0.222	-0.216
-91.772	800.000	0.033	-0.138
-90.757	-10.831	-0.122	0.080
-89.743	-200.000	0.047	0.247
-88.728	141.931	0.126	0.167
-87.713	-192.261	0.351	0.003
-86.699	312.639	0.060	-0.112
-85.684	-22.118	0.066	0.040
-84.670	34.932	-0.219	0.191
-83.655	-26.253	-0.320	0.188
-82.640	-200.000	0.007	-0.287
-81.626	506.242	0.012	-0.028
-80.611	-51.151	0.221	-0.103
-79.597	28.329	0.138	0.116
-78.582	61.100	-0.193	-0.191
-77.567	-23.570	-0.262	0.157
-76.553	800.000	-0.071	0.246
-75.538	-13.816	-0.134	-0.086
-74.524	-200.000	0.030	0.301
-73.509	800.000	-0.018	0.077
-72.494	-51.236	-0.511	0.238
-71.480	-200.000	-0.106	0.583
-70.465	-200.000	-0.012	0.226
-69.451	-49.883	0.069	0.033
-68.436	89.461	0.048	0.054
-67.422	-200.000	-0.010	-0.100
-66.407	446.666	-0.192	-0.422
-65.392	-82.098	0.242	-0.079
-64.378	-97.445	-0.228	-0.059
-63.363	-92.160	0.222	0.062
-62.349	-200.000	0.010	-0.302
-61.334	25.388	-0.689	-0.571
-60.319	73.474	-0.391	0.407
-59.305	-200.000	-0.136	-0.790
-58.290	522.669	0.427	1.000
-57.276	-200.000	0.282	1.984
-56.261	-200.000	76.250	509.578
-55.246	510.604	1337.399	3099.142
-54.232	144.508	2573.717	3423.769
-53.217	115.636	2255.068	2746.423
-52.203	51.200	1777.957	1680.323
-51.188	44.049	1576.146	1439.042
-50.173	41.269	1546.777	1392.773
-49.159	57.459	1583.151	1540.002
-48.144	63.283	1602.530	1599.821
-47.130	44.627	1566.076	1433.688
-46.115	40.997	1552.096	1395.428
-45.100	40.803	1548.648	1390.920
-44.086	40.694	1546.780	1388.418
-43.071	40.650	1544.386	1385.909
-42.057	40.675	1542.049	1383.934
-41.042	40.644	1541.181	1382.882
-40.027	40.579	1539.748	1381.089
-39.013	40.516	1538.221	1379.228
-37.998	40.568	1536.990	1378.426
-36.984	40.558	1536.238	1377.630
-35.969	40.518	1534.805	1376.012
-34.954	40.604	1533.034	1374.964
-33.940	40.600	1531.550	1373.551
-32.925	40.619	1529.951	1372.198
-31.911	40.679	1528.549	1371.303
-30.896	40.688	1526.978	1369.900
-29.881	40.785	1525.749	1369.412
-28.867	40.654	1524.631	1367.450
-27.852	40.631	1523.248	1365.996
-26.838	40.748	1521.466	1365.146
-25.823	40.740	1519.976	1363.703
-24.809	40.719	1518.207	1361.916
-23.794	40.685	1517.006	1360.551
-22.779	40.639	1516.065	1359.339
-21.765	40.677	1514.571	1358.205
-20.750	40.735	1513.075	1357.205
-19.736	40.631	1512.809	1356.206
-18.721	40.672	1511.208	1354.997
-17.706	40.659	1510.137	1353.892
-16.692	40.573	1508.927	1352.170
-15.677	40.632	1507.565	1351.292
-14.663	40.641	1506.545	1350.386
-13.648	40.678	1505.455	1349.610
-12.633	40.572	1505.132	1348.545
-11.619	40.581	1504.457	1347.950
-10.604	40.583	1503.368	1346.932
-9.590	40.597	1502.114	1345.853
-8.575	40.587	1501.410	1345.096
-7.560	40.597	1500.462	1344.266
-6.546	40.537	1499.497	1342.939
-5.531	40.607	1498.600	1342.558
-4.517	40.552	1498.237	1341.808
-3.502	40.492	1497.049	1340.283
-2.487	40.694	1495.534	1340.234
-1.473	40.589	1495.029	1339.024
-0.458	40.591	1493.426	1337.547
0.556	40.772	1484.029	1326.889
1.571	37.695	1456.590	1282.027
2.586	33.526	1393.657	1200.193
3.600	31.297	1309.429	1114.282
4.615	29.437	1260.459	1061.824
5.629	24.829	1201.722	986.905
6.644	13.061	1109.348	850.672
7.659	3.875	1061.544	768.471
8.673	2.436	1055.277	756.757
9.688	2.095	1052.392	752.939
10.702	1.851	1050.835	750.555
11.717	1.730	1049.798	749.151
12.731	5.174	1053.448	768.674
13.746	15.898	1068.755	833.098
14.761	24.096	1079.558	882.238
15.775	25.350	1080.413	889.072
16.790	25.432	1079.806	888.902
17.804	25.299	1078.914	887.433
18.819	25.175	1077.847	885.863
19.834	25.266	1077.396	885.863
20.848	25.300	1077.085	885.697
21.863	25.503	1076.199	885.891
22.877	25.362	1076.376	885.262
23.892	25.515	1075.445	885.170
24.907	25.237	1074.583	883.017
25.921	25.289	1074.113	882.806
26.936	25.376	1073.028	882.263
27.950	25.265	1072.172	880.937
28.965	25.394	1070.895	880.442
29.980	25.222	1069.386	878.285
30.994	25.131	1067.987	876.614
32.009	25.336	1067.573	877.197
33.023	25.393	1067.090	877.002
34.038	25.254	1066.122	875.449
35.053	25.179	1065.217	874.261
36.067	25.371	1064.418	874.463
37.082	25.280	1064.129	873.705
38.096	25.362	1063.022	873.120
39.111	25.576	1062.232	873.432
40.126	25.539	1061.903	872.905
41.140	25.501	1060.007	871.083
42.155	25.250	1059.118	869.063
43.169	24.870	1057.994	866.224
44.184	24.904	1056.786	865.325
45.199	24.979	1055.524	864.574
46.213	24.864	1054.723	863.290
47.228	24.812	1054.172	862.509
48.242	25.071	1053.285	862.954
49.257	25.244	1052.576	863.132
50.271	25.179	1051.482	861.844
51.286	25.235	1051.258	861.855
52.301	25.280	1050.397	861.289
53.315	25.504	1049.260	861.351
54.330	25.444	1048.253	860.163
55.344	25.281	1047.954	859.059
56.359	25.277	1047.582	858.658
57.374	25.284	1046.402	857.649
58.388	25.116	1045.315	855.884
59.403	25.027	1044.759	854.927
60.417	25.153	1043.735	854.614
61.432	24.897	1043.416	853.056
62.447	24.884	1042.830	852.439
63.461	25.111	1041.802	852.606
64.476	25.010	1041.511	851.812
65.490	25.049	1040.414	851.023
66.505	24.898	1039.681	849.630
67.520	24.951	1038.591	848.916
68.534	24.991	1037.768	848.360
69.549	25.096	1036.684	847.895
70.563	24.643	1035.672	844.851
71.578	24.539	1034.976	843.716
72.593	24.494	1034.485	843.028
73.607	24.379	1033.036	841.231
74.622	24.417	1032.127	840.597
75.636	24.702	1031.414	841.282
76.651	24.903	1030.471	841.384
77.666	24.810	1029.904	840.412
78.680	24.698	1029.139	839.185
79.695	24.627	1028.559	838.306
80.709	24.763	1028.208	838.585
81.724	24.862	1027.135	838.097
82.739	24.938	1026.206	837.620
83.753	24.976	1025.487	837.136
84.768	25.178	1025.207	837.776
85.782	25.539	1024.645	838.928
86.797	25.689	1023.759	838.830
87.812	25.726	1022.769	838.117
88.826	25.410	1021.701	835.696
89.841	25.489	1021.276	835.641
90.855	25.422	1020.727	834.810
91.870	25.492	1020.057	834.509
92.884	25.485	1019.260	833.750
93.899	25.385	1018.191	832.341
94.914	25.366	1016.884	831.112
95.928	25.457	1016.166	830.873
96.943	25.477	1015.899	830.674
97.957	25.149	1014.300	827.776
98.972	25.035	1013.139	826.231
99.987	24.724	1012.674	824.344
101.001	24.969	1011.903	824.771
102.016	25.239	1011.243	825.405
103.030	25.338	1010.463	825.148
104.045	25.224	1009.413	823.694
105.060	25.076	1008.313	822.047
106.074	24.850	1007.139	819.982
107.089	24.927	1006.462	819.712
108.103	25.142	1005.814	820.091
109.118	25.414	1004.985	820.586
110.133	25.092	1004.017	818.256
111.147	24.995	1003.427	817.260
112.162	24.835	1001.862	815.181
113.176	24.672	1001.003	813.672
114.191	24.816	999.945	813.394
115.206	24.913	999.398	813.318
116.220	24.648	998.522	811.330
117.235	24.432	997.469	809.425
118.249	24.609	997.173	809.915
119.264	24.559	996.441	809.021
120.279	24.497	995.163	807.632
121.293	24.578	994.204	807.149
122.308	24.712	993.488	807.101
123.322	24.631	992.989	806.255
124.337	24.696	991.512	805.279
125.352	24.597	990.321	803.795
126.366	24.237	988.743	800.827
127.381	23.939	987.098	798.086
128.395	24.429	986.977	800.116
129.410	25.102	987.138	803.193
130.424	25.207	986.312	802.917
131.439	25.299	985.348	802.473
132.454	25.284	984.623	801.748
133.468	25.170	983.638	800.364
134.483	25.151	982.959	799.657
135.497	25.130	982.589	799.189
136.512	25.437	981.541	799.635
137.527	25.449	981.007	799.181
138.541	25.542	980.373	799.006
139.556	25.497	979.346	797.898
140.570	25.440	978.735	797.081
141.585	25.554	977.725	796.693
142.600	25.494	977.475	796.150
143.614	25.469	976.321	795.029
144.629	25.626	975.667	795.120
145.643	25.832	974.757	795.218
146.658	25.603	973.880	793.424
147.673	25.635	972.698	792.529
148.687	25.421	971.665	790.679
149.702	25.267	970.755	789.189
150.716	25.236	969.451	787.922
151.731	25.134	968.758	786.842
152.746	25.196	968.182	786.578
153.760	25.460	967.128	786.809
154.775	25.556	966.521	786.663
155.789	25.655	965.502	786.198
156.804	25.655	964.739	785.507
157.819	25.489	963.697	783.865
158.833	25.614	962.855	783.657
159.848	25.649	962.182	783.192
160.862	25.704	961.386	782.714
161.877	25.665	960.350	781.629
162.892	25.472	959.588	780.104
163.906	25.697	958.875	780.431
164.921	25.485	957.945	778.688
165.935	25.481	956.593	777.500
166.950	25.636	955.443	777.169
167.964	25.610	954.846	776.501
168.979	25.508	954.069	775.360
169.994	25.571	952.548	774.326
171.008	25.351	951.568	772.517
172.023	25.465	950.868	772.370
173.037	25.691	950.370	772.868
174.052	25.614	949.068	771.410
175.067	25.135	948.551	768.869
176.081	25.133	947.777	768.163
177.096	25.192	946.923	767.655
178.110	25.371	945.893	767.520
179.125	25.183	945.133	766.031
180.140	24.937	943.675	763.734
181.154	24.882	943.137	762.994
182.169	25.039	942.521	763.097
183.183	25.265	942.346	763.848
184.198	25.475	942.463	764.774
185.213	25.393	941.229	763.354
186.227	25.349	940.769	762.726
187.242	25.474	940.206	762.731
188.256	25.575	939.402	762.444
189.271	25.565	938.553	761.642
190.286	25.560	938.220	761.285
191.300	25.342	937.434	759.658
192.315	24.930	935.985	756.674
193.329	24.105	934.048	751.561
194.344	23.751	933.125	749.260
195.359	24.283	933.734	751.926
196.373	25.224	933.836	755.907
197.388	25.552	933.500	756.952
198.402	25.498	932.533	755.873
199.417	25.332	932.274	754.896
200.432	25.462	931.544	754.785
201.446	25.214	931.377	753.541
202.461	25.046	930.345	751.937
203.475	25.161	929.809	751.917
204.490	24.867	928.093	749.235
205.504	23.440	926.473	741.892
206.519	23.826	926.290	743.297
207.534	24.855	926.554	747.743
208.548	24.997	925.949	747.779
209.563	25.333	926.174	749.300
210.577	25.441	925.179	748.876
211.592	25.140	924.137	746.713
212.607	25.549	924.186	748.390
213.621	25.746	923.438	748.539
214.636	25.591	922.968	747.446
215.650	25.468	922.663	746.623
216.665	25.509	921.906	746.116
217.680	25.560	921.494	745.925
218.694	25.730	920.834	746.032
219.709	25.470	919.703	743.973
220.723	24.978	919.201	741.464
221.738	25.263	918.660	742.141
222.753	25.507	917.889	742.461
223.767	25.367	917.642	741.616
224.782	25.423	916.684	741.008
225.796	25.692	916.203	741.663
226.811	25.624	915.911	741.080
227.826	25.401	914.221	738.729
228.840	24.606	912.752	734.213
229.855	24.346	912.178	732.618
230.869	24.685	911.912	733.733
231.884	24.288	911.112	731.393
232.899	24.404	910.138	731.024
233.913	24.986	911.288	734.268
234.928	25.357	909.969	734.658
235.942	25.195	909.646	733.670
236.957	25.343	908.390	733.196
237.972	25.021	907.963	731.474
238.986	24.889	906.974	730.072
240.001	25.069	906.351	730.242
241.015	25.032	905.990	729.734
242.030	25.163	905.345	729.684
243.045	25.219	904.601	729.248
244.059	25.290	904.451	729.349
245.074	25.540	903.839	729.809
246.088	25.485	903.053	728.884
247.103	25.094	902.214	726.557
248.117	25.085	901.870	726.183
249.132	25.610	901.898	728.265
250.147	26.039	901.372	729.512
251.161	26.097	900.845	729.255
252.176	26.272	900.658	729.747
253.190	26.282	899.897	729.105
254.205	26.275	899.329	728.551
255.220	26.485	898.961	729.037
256.234	26.524	898.030	728.374
257.249	26.396	897.319	727.217
258.263	26.193	896.944	726.033
259.278	26.177	896.510	725.552
260.293	26.358	896.144	725.921
261.307	26.361	895.426	725.285
262.322	26.457	894.366	724.750
263.336	26.135	893.899	723.015
264.351	25.720	892.925	720.504
265.366	24.658	890.629	714.343
266.380	24.293	889.715	712.092
267.395	24.960	890.042	714.952
268.409	25.858	889.859	718.325
269.424	25.642	889.952	717.476
270.439	25.933	889.010	717.810
271.453	26.160	888.437	718.189
272.468	25.994	887.986	717.100
273.482	26.258	887.821	717.954
274.497	26.432	886.829	717.778
275.512	26.326	885.730	716.404
276.526	25.718	884.204	712.700
277.541	25.848	883.895	712.901
278.555	26.186	884.325	714.526
279.570	26.166	883.290	713.545
280.585	25.782	882.641	711.443
281.599	25.811	882.544	711.414
282.614	26.023	881.649	711.467
283.628	25.540	880.834	708.842
284.643	25.103	880.188	706.539
285.657	25.573	879.703	707.937
286.672	25.466	879.084	706.956
287.687	25.122	877.992	704.664
288.701	25.331	878.102	705.510
289.716	25.872	877.760	707.299
290.730	25.376	877.208	704.843
291.745	25.367	876.137	703.885
292.760	25.299	875.060	702.693
293.774	25.105	874.368	701.315
294.789	25.838	875.215	704.803
295.803	26.638	875.104	707.778
296.818	26.602	874.707	707.255
297.833	26.787	874.111	707.432
298.847	26.620	872.684	705.562
299.862	26.050	872.165	702.860
300.876	26.283	871.923	703.511
301.891	26.593	871.604	704.397
302.906	26.687	870.829	704.072
303.920	26.397	869.553	701.853
304.935	26.144	868.773	700.181
305.949	26.418	869.236	701.557
306.964	26.511	868.534	701.288
307.979	26.460	867.322	700.049
308.993	26.338	867.226	699.439
310.008	26.487	867.022	699.787
311.022	26.805	866.494	700.528
312.037	26.656	865.632	699.195
313.052	26.359	865.279	697.702
314.066	26.226	864.250	696.298
315.081	25.693	862.825	693.035
316.095	24.931	861.135	688.690
317.110	25.436	861.598	690.939
318.125	26.225	862.029	694.258
319.139	25.899	860.899	692.036
320.154	24.701	859.363	686.143
321.168	24.093	858.602	683.146
322.183	24.870	858.473	685.960
323.197	25.922	859.056	690.396
324.212	25.983	859.052	690.568
325.227	26.147	858.654	690.813
326.241	26.432	858.055	691.359
327.256	26.378	857.178	690.387
328.270	26.292	856.381	689.356
329.285	26.097	855.844	688.117
330.300	25.927	855.381	687.036
331.314	25.636	854.424	685.098
332.329	25.773	853.960	685.190
333.343	26.171	853.665	686.406
334.358	26.504	853.280	687.299
335.373	26.487	852.510	686.556
336.387	26.420	852.062	685.880
337.402	26.697	852.087	686.888
338.416	26.843	851.687	687.057
339.431	26.985	851.007	686.985
340.446	26.819	850.540	685.922
341.460	27.123	849.874	686.471
342.475	27.206	849.174	686.160
343.489	26.776	848.795	684.168
344.504	26.850	848.001	683.748
345.519	27.227	848.020	685.125
346.533	27.270	847.761	685.017
347.548	27.346	846.997	684.624
348.562	27.655	846.531	685.346
349.577	27.362	846.058	683.802
350.592	27.378	845.037	682.976
351.606	27.240	844.675	682.107
352.621	27.184	844.162	681.423
353.635	27.080	843.718	680.614
354.650	27.092	843.234	680.209
355.665	26.917	842.012	678.507
356.679	25.669	840.807	672.816
357.694	25.528	840.454	671.946
358.708	26.221	840.334	674.377
359.723	26.161	839.626	673.527
360.738	26.288	839.505	673.842
361.752	26.772	839.717	675.759
362.767	26.886	839.024	675.564
363.781	27.220	838.707	676.495
364.796	27.474	838.838	677.485
365.810	27.839	838.006	678.110
366.825	27.618	837.866	677.115
367.840	27.588	837.801	676.889
368.854	27.621	837.081	676.371
369.869	26.991	835.798	672.939
370.883	26.945	834.932	672.014
371.898	27.075	834.874	672.389
372.913	26.974	833.781	671.074
373.927	26.976	833.247	670.594
374.942	27.129	832.837	670.770
375.956	27.392	831.833	670.871
376.971	27.391	831.649	670.659
377.986	27.361	831.241	670.160
379.000	27.567	831.078	670.728
380.015	27.638	830.335	670.332
381.029	27.436	829.623	668.956
382.044	27.289	829.187	668.003
383.059	27.395	828.977	668.165
384.073	27.417	828.589	667.875
385.088	27.469	827.833	667.396
386.102	27.686	827.048	667.497
387.117	27.470	826.287	666.036
388.132	27.238	826.032	664.922
389.146	27.129	824.742	663.427
390.161	26.684	824.048	661.184
391.175	26.732	823.634	660.972
392.190	27.266	823.789	662.982
393.205	27.349	823.389	662.904
394.219	26.231	821.857	657.546
395.234	24.581	819.631	649.712
396.248	23.773	818.457	645.788
397.263	24.836	819.240	650.213
398.278	26.638	820.323	657.563
399.292	27.244	820.192	659.601
400.307	26.824	819.885	657.772
401.321	26.743	819.289	656.942
402.336	26.726	819.284	656.819
403.350	27.043	819.178	657.823
404.365	27.609	819.228	659.855
405.380	27.854	818.530	660.121
406.394	28.107	818.280	660.775
407.409	28.357	817.793	661.223
408.423	28.406	817.227	660.885
409.438	28.242	817.030	660.078
410.453	28.139	816.971	659.598
411.467	28.286	816.100	659.368
412.482	28.418	815.387	659.207
413.496	28.317	814.738	658.262
414.511	28.320	814.551	658.063
415.526	28.456	814.187	658.200
416.540	28.225	813.911	657.088
417.555	28.282	813.231	656.685
418.569	27.944	812.422	654.763
419.584	27.979	811.754	654.292
420.599	28.025	811.842	654.471
421.613	95.150	1263.976	1375.725
422.628	81.807	1329.872	1375.839
