DTS Sentinel unit serial number:	SN413079Multiplexer serial number:	ORYXHardware model number:	OX4-SRSoftware version number:	ORYX F/W v4.00 Oryx Data Collector v3.7.2.0data status	okinstallation	princeton_trtdifferential loss correction	single-endedforward channel	channel 3reverse channel	N/Adate	2019/09/12time	18:34:04forward acquisition time	15.00reverse acquisition time	0.00gamma	496.2192k internal	0.2317k external	0.2317temperature offset calibration	1.0093default loss term (dB/km)	0.3790temperature slope calibration	1.0000multiplexer offset coefficient	1.0000multiplexer slope coefficient	1.0000fibre end	0.00T internal ref (°C)	33.19T ext. ref 1 (°C)	2.96T ext. ref 2 (°C)	27.75length (m)	temperature (°C)	Stokes	anti-Stokes-747.200	147.054	0.200	0.272
-746.185	310.128	-0.246	0.466
-745.171	-133.924	0.379	-0.048
-744.156	-101.362	-0.118	-0.029
-743.142	-6.350	-0.077	-0.053
-742.127	-78.206	0.480	-0.167
-741.112	22.208	0.371	0.306
-740.098	107.413	-0.369	-0.444
-739.083	-14.683	-0.737	-0.479
-738.069	-146.377	-1.497	0.132
-737.054	-5.121	-0.246	0.171
-736.039	391.079	0.231	-0.486
-735.025	161.400	0.209	0.296
-734.010	800.000	0.138	-0.438
-732.996	-11.938	-0.695	-0.461
-731.981	255.653	-0.297	0.514
-730.966	56.568	-0.179	0.176
-729.952	329.598	0.106	-0.206
-728.937	-200.000	-0.097	-0.580
-727.923	245.578	-0.293	-0.498
-726.908	-119.963	-0.517	0.090
-725.894	-165.216	0.428	0.019
-724.879	150.172	0.036	0.049
-723.864	-85.922	0.311	-0.097
-722.850	-42.467	-0.509	0.262
-721.835	-94.809	-0.513	-0.141
-720.821	-118.940	-0.821	-0.146
-719.806	218.300	-0.577	-0.932
-718.791	312.900	0.526	-1.000
-717.777	-200.000	-0.098	-1.005
-716.762	507.233	0.446	-1.047
-715.748	-16.212	-0.366	-0.235
-714.733	212.961	-0.377	0.602
-713.718	405.482	0.051	-0.108
-712.704	-67.392	-0.731	-0.291
-711.689	-200.000	-0.050	-0.939
-710.675	-121.132	-0.210	0.036
-709.660	-22.327	-0.590	-0.362
-708.645	-103.875	0.353	-0.083
-707.631	11.407	0.192	-0.149
-706.616	-200.000	0.159	0.845
-705.602	119.808	-0.153	0.192
-704.587	800.000	-0.146	0.419
-703.572	289.841	-0.561	-1.029
-702.558	-35.074	0.550	0.303
-701.543	690.725	0.082	0.217
-700.529	-99.516	0.812	0.206
-699.514	166.771	0.254	-0.364
-698.499	91.707	0.466	-0.529
-697.485	-50.106	0.526	-0.252
-696.470	6.062	-0.292	-0.219
-695.456	17.676	-0.750	0.603
-694.441	800.000	-0.172	-0.611
-693.426	-40.815	-0.304	0.159
-692.412	-200.000	-0.054	-1.011
-691.397	296.182	0.368	-0.681
-690.383	155.285	0.456	0.635
-689.368	-58.184	-0.984	0.433
-688.354	800.000	0.045	0.161
-687.339	-67.569	0.334	-0.132
-686.324	64.461	0.500	0.509
-685.310	47.660	-0.520	0.490
-684.295	800.000	-0.222	-0.703
-683.281	-73.365	-0.119	0.044
-682.266	8.370	-0.474	0.360
-681.251	100.212	0.469	-0.549
-680.237	-200.000	0.061	-1.221
-679.222	-82.618	0.568	-0.186
-678.208	-200.000	0.063	0.561
-677.193	800.000	0.158	0.555
-676.178	800.000	-0.120	0.514
-675.164	65.609	0.292	0.299
-674.149	800.000	0.266	-0.909
-673.135	800.000	0.175	0.547
-672.120	98.329	-0.643	-0.748
-671.105	-200.000	-0.063	-0.563
-670.091	-200.000	-0.061	-0.552
-669.076	-19.405	-0.643	-0.402
-668.062	-55.919	0.626	0.282
-667.047	800.000	0.163	0.559
-666.032	635.848	0.429	-1.099
-665.018	264.015	0.321	-0.564
-664.003	16.089	-0.332	-0.264
-662.989	-64.273	-0.519	-0.213
-661.974	206.689	-0.268	0.421
-660.959	-81.915	-0.657	0.217
-659.945	683.348	-0.224	-0.590
-658.930	-200.000	-0.035	0.424
-657.916	-200.000	0.000	0.185
-656.901	-10.038	0.624	-0.418
-655.886	-104.068	0.552	-0.130
-654.872	47.664	0.318	-0.300
-653.857	-200.000	0.078	0.452
-652.843	44.062	-0.608	-0.562
-651.828	449.533	-0.209	0.465
-650.814	800.000	-0.149	0.526
-649.799	674.690	-0.325	-0.850
-648.784	800.000	-0.226	0.647
-647.770	-77.950	0.506	-0.176
-646.755	800.000	0.130	-0.390
-645.741	-169.922	0.356	0.013
-644.726	-200.000	0.029	-0.309
-643.711	-34.554	0.132	-0.073
-642.697	-79.565	-0.656	0.223
-641.682	236.984	0.212	-0.355
-640.668	800.000	-0.240	-0.877
-639.653	-200.000	0.251	-1.285
-638.638	231.334	-0.208	-0.344
-637.624	82.759	-0.877	0.960
-636.609	-2.176	0.393	0.278
-635.595	800.000	0.096	0.397
-634.580	59.809	-0.646	0.643
-633.565	131.981	-0.517	0.671
-632.551	-56.440	-0.060	0.027
-631.536	-116.588	-0.427	-0.079
-630.522	-22.492	-0.487	-0.297
-629.507	-200.000	0.032	-0.706
-628.492	-200.000	-0.039	-0.898
-627.478	289.466	0.332	-0.607
-626.463	182.363	-0.461	-0.684
-625.449	154.440	0.251	0.347
-624.434	59.496	-0.191	0.189
-623.419	-46.142	-0.300	0.149
-622.405	-70.205	-0.222	0.085
-621.390	-159.649	0.580	-0.032
-620.376	-129.466	0.314	-0.044
-619.361	-200.000	0.131	-0.608
-618.346	800.000	0.174	-0.610
-617.332	78.501	-0.670	-0.721
-616.317	538.477	0.148	-0.353
-615.303	-57.794	0.491	0.216
-614.288	-200.000	0.067	0.357
-613.273	502.957	0.290	0.675
-612.259	800.000	-0.177	-0.645
-611.244	800.000	-0.152	-0.444
-610.230	-78.659	-0.340	-0.117
-609.215	-6.119	0.547	0.376
-608.201	-200.000	-0.022	0.465
-607.186	-127.098	-0.610	-0.090
-606.171	-123.813	-0.546	-0.087
-605.157	800.000	-0.133	0.537
-604.142	-174.796	-0.369	-0.010
-603.128	229.065	0.091	-0.150
-602.113	-127.413	0.349	0.051
-601.098	-114.982	0.435	-0.083
-600.084	-142.515	0.321	0.032
-599.069	-96.420	0.592	-0.158
-598.055	800.000	0.333	-1.157
-597.040	-200.000	-0.095	-1.343
-596.025	-114.708	-0.124	0.024
-595.011	-78.385	-0.423	-0.146
-593.996	-200.000	-0.103	1.258
-592.982	41.079	0.260	-0.236
-591.967	48.306	0.492	0.463
-590.952	175.449	-0.081	-0.118
-589.938	418.894	0.169	0.364
-588.923	-35.187	-0.268	0.147
-587.909	-200.000	0.014	-0.473
-586.894	306.879	-0.398	0.746
-585.879	-200.000	0.019	-0.882
-584.865	-44.061	-0.191	0.096
-583.850	82.077	-0.458	0.499
-582.836	24.135	0.098	0.081
-581.821	-51.065	-0.303	-0.143
-580.806	-200.000	0.034	-0.220
-579.792	11.070	0.191	-0.147
-578.777	76.263	-0.366	-0.389
-577.763	-75.129	0.351	-0.126
-576.748	155.947	0.101	-0.140
-575.733	-196.641	0.036	0.000
-574.719	800.000	0.023	0.064
-573.704	-150.890	0.672	0.051
-572.690	-71.175	-0.162	-0.061
-571.675	800.000	0.185	-0.625
-570.661	31.938	0.326	0.283
-569.646	58.211	-0.098	-0.096
-568.631	505.324	0.194	0.452
-567.617	21.688	0.584	0.478
-566.602	102.013	0.327	0.384
-565.588	-200.000	-0.008	-0.123
-564.573	-200.000	0.106	-0.711
-563.558	800.000	0.196	-0.815
-562.544	-8.889	0.425	0.286
-561.529	160.027	0.179	0.251
-560.515	263.465	-0.233	0.408
-559.500	800.000	0.209	-0.796
-558.485	-155.800	0.279	0.018
-557.471	-0.497	0.623	0.445
-556.456	-142.789	-0.134	0.013
-555.442	800.000	-0.142	0.449
-554.427	-200.000	-0.006	0.323
-553.412	-53.277	0.512	-0.236
-552.398	-55.252	-0.756	0.341
-551.383	800.000	0.110	0.381
-550.369	410.774	0.299	-0.637
-549.354	-47.101	-0.411	-0.202
-548.339	800.000	-0.164	0.466
-547.325	334.290	0.171	-0.333
-546.310	-27.719	0.513	0.299
-545.296	-4.599	-0.462	0.320
-544.281	-90.842	0.356	-0.103
-543.266	-122.545	-1.063	-0.174
-542.252	240.830	0.401	-0.671
-541.237	-75.042	-0.064	-0.023
-540.223	-128.521	-0.814	-0.116
-539.208	29.569	-0.245	0.210
-538.193	-128.068	-0.652	-0.094
-537.179	252.221	0.144	-0.246
-536.164	163.668	0.039	0.055
-535.150	-187.055	0.306	-0.004
-534.135	-38.970	0.183	0.097
-533.121	43.020	-0.271	-0.248
-532.106	-200.000	0.081	-0.405
-531.091	368.076	-0.165	-0.334
-530.077	6.733	0.391	0.292
-529.062	-59.653	0.385	-0.166
-528.048	-110.363	-0.719	0.150
-527.033	800.000	-0.088	0.352
-526.018	-200.000	-0.082	-0.500
-525.004	-23.526	0.252	0.152
-523.989	-200.000	-0.007	0.564
-522.975	-200.000	-0.044	0.928
-521.960	800.000	0.102	-0.382
-520.945	-200.000	0.040	0.242
-519.931	-159.938	0.453	-0.025
-518.916	-200.000	0.001	-0.863
-517.902	-200.000	-0.034	0.189
-516.887	-8.250	0.420	-0.284
-515.872	-200.000	0.022	-0.295
-514.858	163.382	-0.391	-0.552
-513.843	-64.032	0.874	0.358
-512.829	-200.000	-0.053	0.515
-511.814	42.530	-0.305	-0.279
-510.799	800.000	-0.091	-0.270
-509.785	-163.480	-1.062	0.051
-508.770	316.397	0.122	-0.232
-507.756	-14.312	0.395	0.255
-506.741	-200.000	0.128	0.956
-505.726	-200.000	0.070	-0.658
-504.712	38.918	0.239	-0.214
-503.697	-107.007	-0.126	0.028
-502.683	130.262	-0.367	-0.471
-501.668	233.290	-0.075	-0.124
-500.653	638.041	-0.275	0.702
-499.639	-200.000	-0.014	0.725
-498.624	-14.725	0.720	0.464
-497.610	-200.000	-0.032	0.506
-496.595	-162.445	-0.247	0.012
-495.581	496.593	-0.357	-0.823
-494.566	-146.120	0.647	0.057
-493.551	151.357	-0.369	-0.504
-492.537	138.069	0.186	0.244
-491.522	-64.169	0.195	-0.080
-490.508	-116.571	0.233	-0.043
-489.493	-61.656	0.390	-0.164
-488.478	-162.753	-0.507	-0.025
-487.464	341.940	0.359	0.703
-486.449	-89.761	-0.060	0.018
-485.435	-200.000	-0.017	0.806
-484.420	342.346	0.090	0.176
-483.405	80.296	0.854	-0.921
-482.391	800.000	0.305	-0.913
-481.376	134.179	-0.432	0.561
-480.362	333.964	-0.108	-0.210
-479.347	104.855	0.342	0.404
-478.332	800.000	0.118	0.483
-477.318	-169.531	-1.215	-0.044
-476.303	-200.000	0.036	-0.164
-475.289	-200.000	-0.181	1.275
-474.274	23.853	0.287	0.237
-473.259	-200.000	-0.085	0.391
-472.245	135.717	0.424	0.553
-471.230	-164.355	0.162	-0.007
-470.216	2.115	-0.545	-0.394
-469.201	-82.941	0.572	0.185
-468.186	21.667	0.616	0.502
-467.172	22.703	0.489	-0.401
-466.157	-50.735	-0.434	0.205
-465.143	-112.371	-1.013	0.203
-464.128	6.102	0.155	-0.115
-463.113	-8.758	0.431	0.289
-462.099	-24.518	0.345	0.206
-461.084	107.703	-0.071	0.084
-460.070	-200.000	-0.057	-0.256
-459.055	126.501	0.182	-0.231
-458.040	112.117	0.168	0.204
-457.026	-200.000	0.059	-0.716
-456.011	-73.097	0.130	-0.048
-454.997	20.120	-0.388	0.314
-453.982	-90.324	-0.656	0.191
-452.968	464.983	-0.205	-0.460
-451.953	-200.000	-0.117	-0.949
-450.938	3.681	-0.399	-0.291
-449.924	-168.537	0.325	0.012
-448.909	-41.261	-0.529	-0.273
-447.895	-144.409	-0.358	0.033
-446.880	-40.985	-0.081	-0.042
-445.865	-45.189	-0.317	-0.158
-444.851	66.026	-0.513	-0.521
-443.836	-61.947	0.241	-0.101
-442.822	-13.975	-0.754	0.487
-441.807	-200.000	0.133	0.596
-440.792	732.186	-0.290	-0.775
-439.778	447.261	0.391	-0.861
-438.763	-200.000	-0.016	0.815
-437.749	-81.991	0.236	-0.077
-436.734	-200.000	0.110	-0.533
-435.719	-18.350	-0.865	0.541
-434.705	37.801	-0.520	0.462
-433.690	15.137	-0.327	-0.257
-432.676	-200.000	0.055	0.703
-431.661	-137.242	-1.586	0.180
-430.646	-200.000	0.154	0.845
-429.632	-77.143	0.237	-0.082
-428.617	72.159	-0.299	-0.312
-427.603	93.754	-0.379	0.429
-426.588	-70.065	0.493	-0.188
-425.573	-152.374	0.501	-0.036
-424.559	-34.640	0.742	0.406
-423.544	800.000	0.090	-0.298
-422.530	216.157	-0.161	-0.256
-421.515	20.717	-0.163	0.132
-420.500	-34.729	0.411	0.224
-419.486	-200.000	-0.163	0.787
-418.471	3.219	-0.347	-0.252
-417.457	19.884	0.683	-0.550
-416.442	-70.990	0.210	0.079
-415.428	-55.430	-0.446	0.200
-414.413	206.947	0.242	0.376
-413.398	-24.527	0.690	0.411
-412.384	95.647	0.147	0.168
-411.369	175.122	0.475	-0.687
-410.355	-105.913	-0.216	0.049
-409.340	157.595	1.031	-1.426
-408.325	45.484	-0.210	-0.193
-407.311	-200.000	0.003	0.473
-406.296	-200.000	-0.034	-0.555
-405.282	243.409	-0.145	0.243
-404.267	-123.786	0.666	-0.105
-403.252	70.733	-0.304	-0.314
-402.238	800.000	0.222	-0.721
-401.223	800.000	0.054	0.180
-400.209	333.955	-0.125	0.242
-399.194	512.905	-0.152	-0.353
-398.179	-59.406	-0.330	0.142
-397.165	153.602	0.601	0.823
-396.150	-48.668	-0.179	0.086
-395.136	-63.056	0.197	0.081
-394.121	-47.636	1.483	0.719
-393.106	-124.729	-0.524	0.081
-392.092	221.377	-0.370	0.594
-391.077	-149.996	-0.398	-0.031
-390.063	800.000	0.091	0.290
-389.048	-136.675	0.844	-0.097
-388.033	800.000	0.141	-0.425
-387.019	33.944	-0.301	-0.262
-386.004	-48.286	-0.980	0.472
-384.990	800.000	0.049	-0.166
-383.975	-200.000	0.043	-0.336
-382.960	212.049	0.127	-0.200
-381.946	74.571	-0.493	-0.517
-380.931	-85.246	-0.690	0.215
-379.917	160.258	-0.286	0.398
-378.902	-109.114	0.751	0.159
-377.888	-68.288	-0.334	-0.130
-376.873	-137.303	-0.532	-0.060
-375.858	-200.000	-0.083	0.488
-374.844	-177.237	-0.798	0.020
-373.829	740.695	0.216	-0.580
-372.815	220.043	0.338	-0.541
-371.800	800.000	0.147	0.410
-370.785	28.531	-0.627	0.529
-369.771	-97.926	-0.675	0.174
-368.756	800.000	-0.183	-0.621
-367.742	800.000	0.110	-0.392
-366.727	451.366	-0.299	0.659
-365.712	526.868	-0.019	0.045
-364.698	-69.493	-0.442	0.169
-363.683	-75.212	-0.329	0.117
-362.669	122.859	-0.538	-0.672
-361.654	800.000	0.125	-0.416
-360.639	-61.877	0.261	0.109
-359.625	-144.742	0.646	-0.059
-358.610	-200.000	0.233	-1.037
-357.596	-200.000	0.204	-1.071
-356.581	-82.482	-0.836	0.271
-355.566	120.202	-0.198	0.245
-354.552	-5.819	0.565	-0.385
-353.537	-105.295	-0.972	0.221
-352.523	-24.891	0.418	-0.247
-351.508	800.000	0.175	0.653
-350.493	-200.000	0.012	-0.202
-349.479	368.261	-0.163	-0.328
-348.464	25.882	-0.586	-0.487
-347.450	-200.000	-0.010	-0.636
-346.435	-58.754	0.583	0.252
-345.420	45.694	0.188	0.174
-344.406	322.738	-0.225	-0.427
-343.391	239.774	-0.154	0.255
-342.377	31.348	0.200	0.171
-341.362	800.000	-0.103	0.369
-340.348	77.645	0.427	0.453
-339.333	-22.888	0.674	-0.405
-338.318	800.000	0.163	-0.688
-337.304	-29.883	0.328	0.186
-336.289	141.996	0.407	0.537
-335.275	60.815	-0.265	-0.262
-334.260	-200.000	0.071	0.651
-333.245	19.863	-0.255	0.205
-332.231	181.388	0.159	0.233
-331.216	-26.695	-0.379	-0.221
-330.202	173.987	0.296	0.425
-329.187	117.755	0.097	-0.119
-328.172	-24.835	-0.288	-0.171
-327.158	217.677	0.300	0.476
-326.143	-200.000	0.078	0.369
-325.129	-200.000	-0.105	-0.516
-324.114	83.995	0.932	-1.014
-323.099	-200.000	-0.008	-0.366
-322.085	-56.875	-0.723	0.318
-321.070	-24.508	0.313	0.185
-320.056	330.451	0.447	-0.858
-319.041	-161.692	0.230	-0.012
-318.026	-200.000	-0.174	0.810
-317.012	800.000	-0.061	0.200
-315.997	-33.504	-0.610	0.336
-314.983	-200.000	-0.050	0.220
-313.968	800.000	-0.192	-0.634
-312.953	-156.750	-0.147	-0.009
-311.939	563.087	-0.215	0.517
-310.924	-27.710	0.536	0.310
-309.910	-150.479	0.545	0.042
-308.895	-44.563	0.494	-0.246
-307.880	-98.588	-0.483	0.123
-306.866	100.278	0.604	-0.697
-305.851	-165.261	0.503	-0.022
-304.837	69.258	-0.582	0.596
-303.822	-200.000	-0.067	0.474
-302.807	-200.000	-0.061	0.650
-301.793	339.045	-0.187	-0.362
-300.778	-14.352	0.969	0.621
-299.764	-150.272	0.369	0.028
-298.749	43.297	-0.108	0.098
-297.735	-2.734	0.167	-0.116
-296.720	-200.000	0.047	0.520
-295.705	367.629	0.474	-0.952
-294.691	28.101	0.229	-0.192
-293.676	-200.000	0.056	-0.346
-292.662	-137.530	0.397	0.045
-291.647	-61.426	0.422	0.177
-290.632	509.658	0.049	0.113
-289.618	-200.000	0.173	0.852
-288.603	-24.745	-0.386	0.228
-287.589	95.925	0.668	-0.758
-286.574	-200.000	0.083	-0.494
-285.559	13.927	-0.578	0.447
-284.545	-17.274	0.291	0.182
-283.530	0.733	-0.647	-0.461
-282.516	-200.000	0.028	-0.422
-281.501	-79.714	-0.317	-0.106
-280.486	800.000	0.399	1.346
-279.472	-75.014	-0.398	-0.142
-278.457	330.311	-0.131	-0.251
-277.443	-7.749	-0.613	0.411
-276.428	-166.686	-0.201	0.008
-275.413	356.080	0.154	0.305
-274.399	-200.000	-0.088	-0.428
-273.384	262.137	-0.294	0.507
-272.370	-200.000	-0.138	0.812
-271.355	-200.000	-0.024	0.198
-270.340	800.000	0.094	-0.327
-269.326	-200.000	-0.073	-0.422
-268.311	128.453	0.589	-0.745
-267.297	103.136	-0.536	0.625
-266.282	-84.013	-0.494	0.156
-265.267	736.486	0.517	1.378
-264.253	56.377	0.401	0.387
-263.238	-200.000	-0.044	0.409
-262.224	-58.612	-0.272	0.117
-261.209	-47.159	-0.835	0.404
-260.195	129.554	0.245	0.311
-259.180	-64.278	-0.676	0.273
-258.165	49.380	-0.247	0.231
-257.151	-200.000	0.001	0.327
-256.136	-200.000	-0.056	-0.668
-255.122	60.534	0.192	0.189
-254.107	224.451	-0.149	0.239
-253.092	-2.450	-0.429	-0.298
-252.078	363.386	0.217	0.433
-251.063	213.775	-0.427	-0.670
-250.049	800.000	-0.093	-0.360
-249.034	156.577	-0.221	0.303
-248.019	-81.719	0.589	-0.192
-247.005	-100.230	-0.334	0.082
-245.990	-5.024	-0.424	0.290
-244.976	1.751	0.493	0.353
-243.961	800.000	0.105	0.308
-242.946	-37.686	0.608	0.322
-241.932	800.000	-0.137	0.442
-240.917	548.809	-0.148	0.352
-239.903	167.504	0.554	-0.782
-238.888	-14.159	0.310	-0.199
-237.873	85.691	0.405	-0.442
-236.859	-200.000	-0.038	-0.573
-235.844	-30.460	-0.420	0.236
-234.830	299.185	-0.488	0.892
-233.815	204.099	-0.165	-0.254
-232.800	-102.625	0.448	0.106
-231.786	-131.249	-0.940	0.124
-230.771	279.046	-0.344	0.609
-229.757	-92.781	0.619	0.172
-228.742	-200.000	-0.173	0.926
-227.727	-161.205	0.487	0.025
-226.713	199.188	-0.377	-0.573
-225.698	350.844	-0.399	0.784
-224.684	379.490	0.406	0.824
-223.669	110.427	-0.501	0.598
-222.655	-8.257	-0.161	0.107
-221.640	10.698	0.180	0.136
-220.625	-120.035	-0.524	-0.089
-219.611	52.643	-0.218	-0.207
-218.596	-72.249	-0.651	0.239
-217.582	465.503	0.202	-0.447
-216.567	-14.557	-0.380	-0.242
-215.552	308.340	-0.318	0.588
-214.538	-86.175	0.613	-0.188
-213.523	800.000	0.130	-0.505
-212.509	-106.615	0.476	-0.105
-211.494	-45.073	-0.230	-0.113
-210.479	-94.989	0.636	0.170
-209.465	-52.925	0.532	-0.243
-208.450	-163.314	0.714	0.034
-207.436	45.409	-0.866	-0.792
-206.421	800.000	-0.213	0.727
-205.406	-73.665	-0.176	-0.063
-204.392	237.639	0.501	0.824
-203.377	-200.000	-0.087	-0.382
-202.363	422.754	0.128	-0.272
-201.348	-95.024	-0.510	-0.137
-200.333	72.585	-0.320	0.330
-199.319	-71.266	-0.579	-0.215
-198.304	800.000	0.170	-0.668
-197.290	95.117	0.551	0.622
-196.275	-68.222	0.069	-0.026
-195.260	-122.229	1.334	0.216
-194.246	800.000	0.066	0.188
-193.231	329.663	0.352	0.671
-192.217	113.902	0.302	0.363
-191.202	792.275	-0.155	-0.423
-190.187	86.249	-0.464	-0.506
-189.173	800.000	-0.036	0.122
-188.158	66.766	-0.433	0.436
-187.144	304.653	0.225	0.413
-186.129	-200.000	0.052	0.359
-185.114	800.000	0.182	-0.621
-184.100	-52.618	-0.681	-0.312
-183.085	7.208	0.311	-0.230
-182.071	295.828	0.256	0.464
-181.056	-30.553	-0.394	-0.221
-180.042	6.339	0.411	0.302
-179.027	-200.000	-0.142	-0.906
-178.012	561.640	0.132	-0.315
-176.998	78.757	-0.869	-0.921
-175.983	-82.665	0.940	-0.301
-174.969	-200.000	-0.004	0.807
-173.954	420.483	-0.158	0.336
-172.939	-200.000	0.131	0.788
-171.925	67.045	0.455	-0.459
-170.910	-135.584	-0.422	-0.050
-169.896	-23.489	0.578	0.344
-168.881	-161.136	0.392	-0.020
-167.866	-121.663	0.581	0.095
-166.852	576.381	0.115	0.279
-165.837	-3.941	-0.305	-0.209
-164.823	136.020	0.440	-0.567
-163.808	-200.000	0.104	-0.968
-162.793	103.450	-0.385	-0.447
-161.779	40.734	0.197	-0.176
-160.764	107.996	-0.620	0.731
-159.750	133.230	0.238	-0.304
-158.735	-42.906	-0.262	0.132
-157.720	-33.675	-0.433	-0.236
-156.706	-18.872	0.702	0.432
-155.691	-81.964	-0.551	-0.178
-154.677	90.768	0.987	-1.094
-153.662	415.303	0.278	-0.585
-152.647	-16.490	-0.623	-0.391
-151.633	-15.244	0.142	-0.090
-150.618	-66.770	-0.845	-0.331
-149.604	-200.000	0.005	0.557
-148.589	54.893	-0.293	-0.280
-147.574	-200.000	0.122	-0.673
-146.560	275.230	-0.408	0.716
-145.545	-126.543	0.856	-0.126
-144.531	-15.876	-0.491	-0.309
-143.516	-74.045	0.251	-0.090
-142.502	-2.464	0.213	0.148
-141.487	24.387	0.112	0.092
-140.472	517.242	-0.370	0.856
-139.458	-117.917	0.983	0.174
-138.443	120.731	0.611	0.750
-137.429	-200.000	0.102	-0.706
-136.414	800.000	-0.168	0.555
-135.399	-184.215	-1.132	-0.019
-134.385	-200.000	-0.018	-0.478
-133.370	134.405	-0.320	-0.410
-132.356	-187.127	0.451	-0.006
-131.341	121.670	0.168	-0.207
-130.326	-18.867	0.652	0.401
-129.312	130.751	-0.362	-0.459
-128.297	433.607	-0.198	-0.425
-127.283	24.387	-0.297	0.243
-126.268	-200.000	-0.026	0.496
-125.253	117.786	-0.212	0.258
-124.239	-57.061	0.429	0.187
-123.224	179.635	0.189	0.274
-122.210	421.799	-0.147	0.311
-121.195	96.640	0.272	0.307
-120.180	800.000	0.129	0.548
-119.166	438.385	-0.159	-0.342
-118.151	-74.588	-0.400	-0.142
-117.137	270.883	0.103	-0.179
-116.122	-72.489	0.813	-0.297
-115.107	-66.443	0.280	-0.110
-114.093	800.000	0.086	0.263
-113.078	-48.398	0.345	0.164
-112.064	378.233	-0.149	-0.301
-111.049	21.229	0.871	0.699
-110.034	240.081	-0.179	-0.294
-109.020	221.334	0.584	-0.926
-108.005	800.000	0.141	-0.405
-106.991	-35.553	0.754	-0.404
-105.976	-102.513	0.605	-0.143
-104.962	139.866	-0.429	-0.559
-103.947	83.545	0.067	0.072
-102.932	167.539	0.147	-0.207
-101.918	800.000	-0.281	1.186
-100.903	51.522	-0.214	-0.201
-99.889	-145.452	-0.468	-0.042
-98.874	50.950	-0.830	0.777
-97.859	-80.145	-0.540	0.178
-96.845	-200.000	-0.123	0.541
-95.830	-67.615	0.902	-0.349
-94.816	800.000	-0.192	0.589
-93.801	-81.322	-0.894	0.291
-92.786	635.353	-0.387	-0.970
-91.772	-200.000	-0.150	1.035
-90.757	296.427	0.071	0.128
-89.743	-168.238	0.439	0.017
-88.728	-57.260	-0.170	-0.074
-87.713	652.491	0.192	-0.486
-86.699	-33.810	0.584	-0.317
-85.684	-85.150	0.673	-0.208
-84.670	188.124	-0.200	0.295
-83.655	-184.703	0.778	0.012
-82.640	-200.000	0.713	-0.000
-81.626	-200.000	0.036	-0.692
-80.611	-35.371	-0.167	0.090
-79.597	-70.214	-0.479	0.180
-78.582	114.046	0.369	-0.443
-77.567	-200.000	0.040	-0.437
-76.553	125.680	0.371	-0.461
-75.538	90.876	-0.193	-0.213
-74.524	-39.196	-0.556	0.288
-73.509	45.925	-0.334	0.304
-72.494	-147.492	0.689	-0.057
-71.480	-12.899	-0.197	0.126
-70.465	-60.455	0.363	-0.152
-69.451	-99.030	0.273	-0.068
-68.436	451.847	-0.458	0.998
-67.422	-200.000	-0.090	-0.609
-66.407	-70.057	0.331	0.124
-65.392	92.726	0.257	0.286
-64.378	105.686	0.292	0.340
-63.363	-84.480	0.507	-0.158
-62.349	-61.540	-0.099	-0.041
-61.334	39.417	-1.037	-0.916
-60.319	168.143	0.450	0.631
-59.305	98.512	-0.714	-0.812
-58.290	-174.127	0.582	0.017
-57.276	800.000	0.361	1.435
-56.261	-200.000	94.377	568.743
-55.246	642.850	1365.964	3431.028
-54.232	200.967	2532.008	3838.488
-53.217	116.969	2150.288	2601.988
-52.203	43.607	1698.140	1530.470
-51.188	36.375	1512.615	1314.214
-50.173	33.986	1485.976	1275.020
-49.159	53.752	1537.402	1454.457
-48.144	54.873	1554.842	1478.554
-47.130	36.660	1512.875	1316.176
-46.115	33.514	1498.685	1282.529
-45.100	33.155	1496.495	1278.180
-44.086	33.407	1493.921	1277.627
-43.071	33.093	1491.961	1273.783
-42.057	33.264	1489.630	1272.897
-41.042	33.042	1489.734	1271.440
-40.027	33.306	1486.462	1270.368
-39.013	33.231	1484.834	1268.427
-37.998	33.284	1484.583	1268.514
-36.984	33.102	1483.749	1266.535
-35.969	33.217	1481.548	1265.376
-34.954	33.290	1479.822	1264.338
-33.940	33.113	1479.766	1263.058
-32.925	33.267	1478.019	1262.540
-31.911	33.250	1476.562	1261.132
-30.896	33.499	1474.780	1261.221
-29.881	33.141	1473.599	1257.782
-28.867	33.369	1471.493	1257.447
-27.852	33.317	1470.885	1256.529
-26.838	33.194	1469.863	1254.794
-25.823	33.118	1468.257	1252.866
-24.809	33.428	1466.445	1253.326
-23.794	33.230	1465.897	1251.495
-22.779	33.224	1463.381	1249.261
-21.765	33.137	1462.956	1248.274
-20.750	32.915	1462.758	1246.588
-19.736	33.140	1460.496	1246.091
-18.721	33.307	1458.729	1245.635
-17.706	33.172	1458.507	1244.509
-16.692	33.276	1456.618	1243.531
-15.677	32.845	1457.525	1241.424
-14.663	33.355	1454.998	1242.565
-13.648	33.126	1454.708	1240.770
-12.633	33.272	1453.632	1240.760
-11.619	33.018	1452.933	1238.448
-10.604	33.212	1452.138	1238.992
-9.590	33.129	1450.759	1237.221
-8.575	33.133	1450.423	1236.915
-7.560	33.264	1448.373	1235.974
-6.546	33.117	1448.916	1235.424
-5.531	32.907	1448.601	1233.732
-4.517	33.058	1446.051	1232.498
-3.502	33.402	1444.870	1233.689
-2.487	33.167	1444.889	1232.123
-1.473	33.252	1442.660	1230.725
-0.458	33.217	1441.419	1229.391
0.556	34.370	1431.999	1219.270
1.571	30.868	1406.706	1175.575
2.586	27.119	1347.804	1103.529
3.600	25.562	1266.289	1027.804
4.615	23.957	1219.253	980.696
5.629	20.393	1163.332	916.856
6.644	11.490	1078.062	805.821
7.659	4.170	1036.337	739.729
8.673	3.192	1030.667	730.976
9.688	3.063	1028.087	728.467
10.702	2.681	1026.583	725.531
11.717	2.905	1023.325	724.222
12.731	6.174	1026.940	742.168
13.746	15.394	1040.615	795.905
14.761	23.085	1050.801	840.317
15.775	24.793	1051.938	849.268
16.790	25.302	1051.672	851.393
17.804	24.831	1051.579	849.006
18.819	24.703	1050.373	847.353
19.834	24.863	1050.293	847.970
20.848	24.756	1050.463	847.526
21.863	24.932	1049.185	847.251
22.877	25.003	1049.092	847.439
23.892	24.817	1047.426	845.141
24.907	25.093	1047.473	846.408
25.921	24.980	1046.193	844.765
26.936	24.870	1044.638	842.916
27.950	24.872	1044.480	842.723
28.965	25.146	1042.461	842.308
29.980	24.872	1041.697	840.327
30.994	24.969	1040.810	839.993
32.009	25.047	1039.456	839.192
33.023	25.195	1039.986	840.237
34.038	25.040	1038.229	838.022
35.053	24.762	1038.157	836.588
36.067	25.004	1037.327	836.977
37.082	24.866	1036.079	835.249
38.096	24.766	1035.723	834.421
39.111	25.025	1035.053	835.015
40.126	24.958	1034.576	834.246
41.140	25.180	1032.355	833.414
42.155	24.627	1031.682	830.229
43.169	24.498	1031.013	829.015
44.184	24.633	1029.869	828.651
45.199	24.497	1029.280	827.472
46.213	24.467	1028.353	826.516
47.228	24.719	1026.599	826.194
48.242	25.029	1025.275	826.488
49.257	24.947	1025.782	826.445
50.271	25.012	1025.478	826.425
51.286	25.165	1023.456	825.430
52.301	25.558	1022.472	826.370
53.315	24.981	1023.233	824.255
54.330	25.050	1022.126	823.609
55.344	25.206	1021.105	823.428
56.359	24.939	1020.283	821.469
57.374	25.080	1019.831	821.680
58.388	25.012	1019.787	821.260
59.403	24.605	1018.746	818.482
60.417	24.983	1017.329	819.001
61.432	24.736	1016.600	817.214
62.447	24.657	1016.157	816.426
63.461	24.681	1016.088	816.408
64.476	24.775	1015.488	816.282
65.490	24.987	1014.138	816.087
66.505	24.901	1012.524	814.327
67.520	24.893	1012.346	814.074
68.534	24.917	1011.634	813.539
69.549	24.419	1010.545	810.333
70.563	24.603	1009.350	810.134
71.578	24.530	1008.710	809.222
72.593	24.740	1007.593	809.204
73.607	24.371	1007.037	807.016
74.622	24.375	1006.313	806.381
75.636	24.650	1005.449	806.862
76.651	24.700	1004.550	806.292
77.666	24.336	1004.398	804.456
78.680	24.517	1004.031	804.909
79.695	24.378	1002.684	803.132
80.709	24.604	1001.764	803.338
81.724	24.621	1002.321	803.792
82.739	25.005	999.947	803.539
83.753	24.472	999.957	801.086
84.768	25.057	998.180	802.211
85.782	25.317	999.240	804.157
86.797	25.656	998.185	804.753
87.812	25.467	997.001	802.883
88.826	25.369	996.176	801.710
89.841	25.372	995.118	800.799
90.855	25.388	994.992	800.701
91.870	25.657	993.056	800.267
92.884	25.630	992.525	799.647
93.899	25.487	992.468	798.896
94.914	25.109	992.473	797.152
95.928	25.221	991.007	796.398
96.943	25.272	989.353	795.225
97.957	25.007	989.268	793.913
98.972	24.938	988.781	793.146
99.987	24.877	986.950	791.336
101.001	25.110	986.565	791.986
102.016	25.336	986.264	792.675
103.030	25.278	985.429	791.677
104.045	25.061	985.024	790.326
105.060	25.236	982.756	789.207
106.074	24.979	982.316	787.653
107.089	24.662	981.723	785.712
108.103	25.135	981.221	787.319
109.118	25.592	979.600	787.952
110.133	25.155	978.674	785.223
111.147	24.827	978.297	783.417
112.162	24.726	976.848	781.746
113.176	24.904	975.734	781.561
114.191	25.023	974.362	780.913
115.206	24.743	974.949	780.092
116.220	24.599	973.589	778.310
117.235	24.322	973.305	776.807
118.249	24.527	972.529	777.008
119.264	24.677	972.004	777.176
120.279	24.294	970.907	774.566
121.293	24.366	970.567	774.539
122.308	24.620	969.350	774.599
123.322	24.880	967.600	774.255
124.337	24.452	967.499	772.257
125.352	24.596	965.687	771.366
126.366	24.274	963.254	767.963
127.381	23.899	963.589	766.548
128.395	24.568	963.780	769.515
129.410	24.982	962.355	770.090
130.424	25.012	962.054	769.909
131.439	25.211	960.884	769.758
132.454	25.000	960.267	768.294
133.468	25.308	958.850	768.410
134.483	25.215	958.509	767.672
135.497	25.158	958.063	767.002
136.512	25.243	957.161	766.575
137.527	25.338	955.527	765.602
138.541	25.310	955.349	765.271
139.556	25.175	955.807	764.996
140.570	24.922	954.348	762.682
141.585	25.519	953.239	764.267
142.600	25.184	954.062	763.433
143.614	25.632	951.376	763.120
144.629	25.636	950.342	762.237
145.643	25.455	950.720	761.706
146.658	25.663	948.925	761.084
147.673	25.561	948.212	760.012
148.687	25.322	947.444	758.318
149.702	25.165	946.543	756.867
150.716	25.030	945.111	755.088
151.731	25.165	944.515	755.115
152.746	25.258	943.450	754.587
153.760	25.442	942.695	754.691
154.775	25.877	941.691	755.643
155.789	25.987	941.428	755.825
156.804	25.822	940.636	754.430
157.819	25.268	940.864	752.226
158.833	25.296	939.855	751.471
159.848	25.535	939.391	752.034
160.862	25.743	937.312	751.171
161.877	25.845	936.695	751.034
162.892	25.687	936.706	750.319
163.906	25.717	935.375	749.310
164.921	25.448	935.064	747.878
165.935	25.552	933.828	747.255
166.950	25.368	932.694	745.516
167.964	25.326	932.121	744.820
168.979	25.543	931.529	745.180
169.994	25.532	929.720	743.619
171.008	25.202	929.514	742.025
172.023	25.379	928.756	742.083
173.037	25.679	928.691	743.207
174.052	25.621	926.452	741.110
175.067	25.614	926.119	740.748
176.081	25.439	924.591	738.743
177.096	24.902	924.362	736.287
178.110	25.202	923.486	736.754
179.125	24.942	922.090	734.510
180.140	25.364	920.420	734.842
181.154	24.721	920.729	732.393
182.169	25.109	920.888	734.043
183.183	25.314	920.721	734.684
184.198	25.367	920.221	734.435
185.213	25.396	919.231	733.700
186.227	25.435	917.711	732.579
187.242	25.670	917.409	733.231
188.256	25.892	916.616	733.439
189.271	25.721	916.674	732.721
190.286	26.023	915.572	733.004
191.300	25.729	915.045	731.322
192.315	25.034	914.026	727.622
193.329	24.391	912.459	723.705
194.344	24.091	910.798	721.109
195.359	24.574	911.250	723.358
196.373	25.379	910.866	726.247
197.388	25.499	911.597	727.250
198.402	25.773	910.503	727.418
199.417	25.628	910.668	726.903
200.432	25.457	910.589	726.083
201.446	25.767	909.545	726.437
202.461	25.724	908.747	725.561
203.475	25.649	908.737	725.188
204.490	25.407	906.023	721.984
205.504	24.341	905.361	717.110
206.519	24.754	905.427	718.758
207.534	25.388	905.453	721.265
208.548	25.363	903.883	719.850
209.563	25.627	904.454	721.298
210.577	25.259	903.720	719.176
211.592	25.316	903.049	718.804
212.607	25.780	902.731	720.347
213.621	25.626	902.474	719.462
214.636	25.940	901.265	719.687
215.650	25.640	901.447	718.569
216.665	25.821	899.756	717.882
217.680	25.707	899.288	716.989
218.694	26.039	898.956	717.982
219.709	25.416	898.944	715.431
220.723	25.220	897.934	713.783
221.738	25.610	896.242	713.923
222.753	25.542	896.457	713.760
223.767	25.688	895.475	713.494
224.782	26.132	893.516	713.625
225.796	25.656	894.872	712.759
226.811	25.672	894.545	712.500
227.826	25.810	892.902	711.676
228.840	24.805	892.652	707.440
229.855	24.878	891.175	706.495
230.869	24.965	891.005	706.641
231.884	24.712	889.557	704.436
232.899	24.949	889.257	705.067
233.913	25.606	888.927	707.327
234.928	25.757	888.006	707.125
235.942	25.458	887.725	705.668
236.957	25.520	887.146	705.387
237.972	25.331	885.801	703.516
238.986	25.248	885.680	703.032
240.001	25.317	885.378	702.997
241.015	25.411	885.148	703.122
242.030	25.454	884.380	702.617
243.045	25.345	883.855	701.714
244.059	25.386	883.366	701.421
245.074	26.124	881.334	702.620
246.088	25.990	881.171	701.908
247.103	25.608	881.224	700.399
248.117	25.628	880.646	699.957
249.132	26.144	879.996	701.383
250.147	26.708	879.586	703.185
251.161	26.400	880.011	702.267
252.176	26.628	879.406	702.605
253.190	26.358	878.354	700.655
254.205	26.399	878.348	700.748
255.220	26.525	878.316	701.150
256.234	26.699	876.712	700.481
257.249	26.585	876.411	699.738
258.263	26.058	876.145	697.425
259.278	26.059	875.660	696.980
260.293	25.975	875.323	696.326
261.307	26.322	873.892	696.463
262.322	26.038	874.520	695.808
263.336	26.257	873.394	695.696
264.351	26.348	871.640	694.584
265.366	25.476	870.355	690.155
266.380	25.381	869.628	689.149
267.395	25.891	870.307	691.584
268.409	26.194	869.923	692.380
269.424	25.910	869.630	690.999
270.439	25.938	869.435	690.891
271.453	26.079	868.823	690.882
272.468	26.165	866.864	689.592
273.482	26.226	866.866	689.766
274.497	26.565	866.595	690.784
275.512	26.337	865.177	688.724
276.526	25.974	864.327	686.604
277.541	26.097	863.863	686.642
278.555	26.422	863.209	687.298
279.570	26.327	862.431	686.254
280.585	26.359	862.688	686.521
281.599	26.441	861.271	685.644
282.614	26.226	861.552	684.990
283.628	26.155	860.452	683.788
284.643	25.497	860.732	681.453
285.657	25.947	859.817	682.375
286.672	25.782	859.081	681.105
287.687	25.358	858.773	679.199
288.701	25.981	857.764	680.691
289.716	26.406	857.098	681.704
290.730	26.164	856.760	680.462
291.745	26.105	855.440	679.136
292.760	25.589	855.727	677.358
293.774	25.658	854.775	676.807
294.789	26.300	854.268	678.757
295.803	26.647	854.754	680.388
296.818	26.679	854.383	680.152
297.833	26.630	854.198	679.759
298.847	26.732	851.851	678.213
299.862	26.263	851.739	676.307
300.876	26.495	851.048	676.569
301.891	26.828	850.544	677.352
302.906	26.850	849.901	676.862
303.920	26.662	849.646	675.896
304.935	26.381	849.203	674.438
305.949	26.803	848.345	675.268
306.964	26.822	847.667	674.741
307.979	26.852	847.341	674.531
308.993	26.654	846.471	673.042
310.008	26.779	846.857	673.757
311.022	26.867	844.955	672.508
312.037	26.947	845.525	673.201
313.052	26.107	845.966	670.373
314.066	26.536	844.148	670.463
315.081	25.696	843.237	666.569
316.095	25.450	842.535	665.047
317.110	25.885	842.036	666.201
318.125	26.316	841.564	667.360
319.139	26.227	840.930	666.472
320.154	25.596	840.588	663.811
321.168	24.542	839.648	659.122
322.183	25.236	839.470	661.486
323.197	25.864	839.629	663.867
324.212	26.154	838.907	664.304
325.227	26.085	837.725	663.057
326.241	26.388	837.573	663.988
327.256	26.276	836.902	662.990
328.270	26.315	836.600	662.834
329.285	26.257	835.856	661.972
330.300	26.313	834.448	661.006
331.314	25.932	834.232	659.383
332.329	25.848	833.656	658.561
333.343	26.397	833.141	660.100
334.358	26.383	832.712	659.649
335.373	26.544	832.004	659.617
336.387	26.582	832.140	659.808
337.402	26.468	832.420	659.555
338.416	26.692	831.974	659.959
339.431	26.415	832.127	659.011
340.446	27.097	830.172	659.885
341.460	26.955	829.306	658.624
342.475	27.002	829.242	658.682
343.489	27.015	828.774	658.299
344.504	27.127	829.102	658.908
345.519	27.302	827.593	658.284
346.533	27.303	827.489	658.147
347.548	27.216	826.778	657.209
348.562	27.117	826.595	656.647
349.577	26.982	826.035	655.657
350.592	27.120	824.961	655.243
351.606	26.990	824.399	654.271
352.621	26.782	824.174	653.285
353.635	26.601	823.565	652.094
354.650	26.455	823.604	651.539
355.665	26.458	822.590	650.692
356.679	26.205	821.704	649.023
357.694	26.272	820.955	648.614
358.708	26.362	821.419	649.248
359.723	26.293	820.513	648.227
360.738	26.483	819.685	648.195
361.752	26.224	819.516	647.078
362.767	26.435	819.108	647.454
363.781	27.005	819.208	649.516
364.796	27.116	819.004	649.695
365.810	27.094	818.116	648.853
366.825	27.221	818.282	649.381
367.840	27.277	817.269	648.718
368.854	27.243	817.450	648.684
369.869	26.904	816.085	646.334
370.883	26.689	815.725	645.228
371.898	26.652	814.947	644.423
372.913	26.643	814.503	643.985
373.927	27.093	813.863	645.020
374.942	27.090	812.225	643.653
375.956	26.928	812.225	643.021
376.971	26.914	812.342	643.006
377.986	27.505	811.252	644.180
379.000	27.443	810.280	643.131
380.015	27.471	810.154	643.073
381.029	27.214	810.080	642.051
382.044	27.021	809.797	641.086
383.059	27.294	808.874	641.262
384.073	27.207	809.078	641.062
385.088	27.316	808.037	640.564
386.102	26.820	808.126	638.832
387.117	26.625	807.552	637.634
388.132	26.761	805.681	636.578
389.146	26.824	805.324	636.461
390.161	26.493	805.799	635.615
391.175	26.574	804.536	634.847
392.190	26.966	805.554	636.971
393.205	27.258	803.890	636.622
394.219	26.351	803.063	632.739
395.234	25.884	800.079	628.701
396.248	24.982	799.915	625.369
397.263	25.459	801.159	627.955
398.278	26.328	801.253	631.009
399.292	27.048	799.636	632.186
400.307	26.508	799.753	630.343
401.321	26.388	799.091	629.347
402.336	26.360	799.137	629.230
403.350	26.433	799.586	629.780
404.365	26.950	798.799	630.902
405.380	27.254	798.309	631.517
406.394	26.895	798.727	630.545
407.409	27.468	797.544	631.541
408.423	27.914	796.687	632.352
409.438	27.629	796.815	631.410
410.453	27.508	796.674	630.825
411.467	27.682	795.503	630.443
412.482	27.501	794.978	629.345
413.496	26.965	795.589	627.921
414.511	27.281	794.329	627.960
415.526	27.272	794.124	627.713
416.540	27.486	793.319	627.757
417.555	27.019	793.374	626.138
418.569	27.311	792.851	626.672
419.584	27.385	792.577	626.658
420.599	27.271	791.627	625.458
421.613	159.657	1369.070	1792.606
422.628	138.292	1453.224	1792.658
