DTS Sentinel unit serial number:	SN413079Multiplexer serial number:	ORYXHardware model number:	OX4-SRSoftware version number:	ORYX F/W v4.00 Oryx Data Collector v3.7.2.0data status	okinstallation	princeton_trtdifferential loss correction	single-endedforward channel	channel 3reverse channel	N/Adate	2019/09/13time	07:44:34forward acquisition time	60.00reverse acquisition time	0.00gamma	496.2192k internal	0.2336k external	0.2336temperature offset calibration	1.0137default loss term (dB/km)	0.3790temperature slope calibration	1.0000multiplexer offset coefficient	1.0000multiplexer slope coefficient	1.0000fibre end	0.00T internal ref (°C)	26.44T ext. ref 1 (°C)	4.21T ext. ref 2 (°C)	22.69length (m)	temperature (°C)	Stokes	anti-Stokes-747.200	341.133	0.016	0.032
-746.185	-120.886	0.210	-0.035
-745.171	-200.000	-0.020	0.172
-744.156	-138.056	-0.395	0.044
-743.142	-19.867	0.052	0.032
-742.127	800.000	-0.159	0.539
-741.112	-37.498	-0.206	0.111
-740.098	623.273	0.102	0.257
-739.083	-200.000	-0.023	0.241
-738.069	-164.573	0.078	0.004
-737.054	800.000	-0.010	0.029
-736.039	-46.380	-0.194	-0.096
-735.025	-200.000	0.013	0.113
-734.010	51.562	-0.067	0.064
-732.996	-200.000	-0.012	-0.145
-731.981	-199.472	-0.283	-0.001
-730.966	-200.000	-0.031	-0.347
-729.952	51.837	-0.052	-0.050
-728.937	351.970	0.084	-0.166
-727.923	-200.000	-0.003	0.176
-726.908	-200.000	-0.061	-0.323
-725.894	599.907	-0.073	-0.182
-724.879	271.970	0.085	-0.151
-723.864	197.708	0.092	-0.141
-722.850	-200.000	0.007	0.189
-721.835	-200.000	0.007	-0.293
-720.821	290.723	-0.115	0.210
-719.806	597.052	-0.087	0.217
-718.791	268.455	0.094	-0.165
-717.777	304.801	0.117	0.218
-716.762	329.475	-0.041	0.078
-715.748	-72.435	0.171	0.063
-714.733	-200.000	-0.022	0.198
-713.718	-111.457	-0.198	0.040
-712.704	72.895	-0.063	-0.066
-711.689	283.291	0.170	0.306
-710.675	-153.148	0.153	0.011
-709.660	-85.844	-0.294	-0.091
-708.645	1.355	0.102	0.073
-707.631	-158.081	-0.063	0.004
-706.616	-39.948	-0.158	-0.083
-705.602	61.873	-0.418	-0.418
-704.587	-8.585	0.268	0.180
-703.572	800.000	0.069	-0.249
-702.558	-69.299	0.362	-0.139
-701.543	-183.138	0.042	-0.001
-700.529	800.000	-0.023	-0.079
-699.514	45.362	-0.391	-0.362
-698.499	575.046	0.090	-0.220
-697.485	33.940	-0.325	0.284
-696.470	-161.869	-0.413	0.021
-695.456	-200.000	-0.031	-0.165
-694.441	-49.534	-0.074	-0.035
-693.426	-88.443	-0.315	0.094
-692.412	-200.000	-0.022	-0.131
-691.397	800.000	0.073	0.223
-690.383	-175.790	-0.214	0.006
-689.368	800.000	-0.072	-0.296
-688.354	-76.442	0.143	0.051
-687.339	4.423	0.486	-0.357
-686.324	800.000	0.038	0.155
-685.310	-153.540	-0.334	-0.023
-684.295	800.000	0.151	-0.445
-683.281	-197.798	-0.172	0.001
-682.266	21.114	-0.237	0.192
-681.251	-81.303	-0.201	0.066
-680.237	-148.302	0.090	-0.007
-679.222	425.835	-0.171	-0.369
-678.208	308.458	0.087	-0.163
-677.193	-200.000	-0.007	-0.199
-676.178	-200.000	-0.014	0.149
-675.164	180.839	0.239	0.351
-674.149	-143.940	-0.275	0.026
-673.135	-5.221	-0.288	0.198
-672.120	173.884	-0.149	-0.216
-671.105	671.505	-0.055	-0.144
-670.091	106.110	-0.116	-0.138
-669.076	21.592	0.248	-0.202
-668.062	-92.307	-0.323	-0.091
-667.047	-200.000	0.047	0.353
-666.032	-200.000	-0.017	0.247
-665.018	-101.106	-0.122	0.030
-664.003	-51.065	-0.075	0.035
-662.989	800.000	-0.091	0.252
-661.974	-200.000	0.020	0.163
-660.959	24.591	0.236	0.196
-659.945	25.159	0.146	0.121
-658.930	-0.616	-0.046	-0.033
-657.916	192.055	0.134	-0.202
-656.901	419.589	-0.145	0.311
-655.886	-178.010	-0.326	-0.008
-654.872	21.222	-0.263	0.214
-653.857	-68.302	0.101	0.039
-652.843	800.000	-0.150	-0.530
-651.828	800.000	-0.057	-0.221
-650.814	46.143	-0.105	0.097
-649.799	-37.702	-0.243	-0.130
-648.784	800.000	0.119	-0.329
-647.770	-38.583	-0.375	-0.198
-646.755	141.174	-0.230	-0.304
-645.741	-34.931	0.014	-0.008
-644.726	-65.578	0.119	-0.048
-643.711	713.512	0.134	0.356
-642.697	288.401	0.059	0.107
-641.682	-200.000	-0.003	-0.020
-640.668	-200.000	-0.157	0.001
-639.653	-90.522	-0.110	0.032
-638.638	-93.944	0.349	-0.096
-637.624	6.026	-0.163	0.121
-636.609	132.229	-0.044	-0.057
-635.595	-200.000	0.063	-0.390
-634.580	442.275	-0.040	0.088
-633.565	217.574	0.125	-0.200
-632.551	-17.676	0.138	-0.086
-631.536	-64.804	-0.233	-0.094
-630.522	63.619	-0.127	0.127
-629.507	-200.000	0.024	-0.202
-628.492	-71.590	0.348	-0.130
-627.478	-3.836	0.240	-0.166
-626.463	-36.802	0.372	-0.200
-625.449	-47.145	-0.239	-0.116
-624.434	350.419	-0.041	0.082
-623.419	-118.880	-0.100	0.018
-622.405	623.239	0.034	-0.086
-621.390	121.220	0.063	-0.078
-620.376	375.935	0.071	-0.145
-619.361	800.000	0.076	0.260
-618.346	106.038	-0.148	0.176
-617.332	319.605	-0.125	-0.236
-616.317	-200.000	0.013	0.176
-615.303	-90.318	0.279	0.081
-614.288	-198.794	0.187	-0.001
-613.273	68.022	0.085	0.087
-612.259	136.756	-0.062	0.081
-611.244	-95.202	0.163	0.044
-610.230	338.723	-0.099	0.193
-609.215	-54.270	0.230	-0.104
-608.201	353.560	-0.170	0.337
-607.186	-27.438	0.157	0.091
-606.171	0.607	-0.239	-0.171
-605.157	-136.499	-0.035	0.004
-604.142	-148.477	0.243	0.020
-603.128	-80.668	-0.280	-0.093
-602.113	-55.036	-0.325	-0.146
-601.098	126.771	-0.265	-0.335
-600.084	-97.805	0.369	-0.095
-599.069	800.000	0.021	-0.060
-598.055	249.890	0.059	-0.101
-597.040	337.542	-0.068	-0.131
-596.025	-96.783	0.211	-0.055
-595.011	-18.276	0.092	-0.058
-593.996	-118.787	-0.137	-0.024
-592.982	402.331	-0.129	-0.270
-591.967	277.838	0.035	-0.062
-590.952	-200.000	0.007	-0.332
-589.938	-37.283	-0.142	-0.076
-588.923	2.170	-0.121	-0.087
-587.909	128.352	0.065	0.082
-586.894	-200.000	-0.005	-0.084
-585.879	-140.739	-0.115	-0.012
-584.865	223.169	-0.109	-0.176
-583.850	-200.000	-0.019	0.148
-582.836	-112.755	-0.158	0.031
-581.821	-197.284	-0.376	0.002
-580.806	-128.429	-0.080	0.011
-579.792	738.406	-0.103	-0.276
-578.777	-55.908	-0.297	-0.132
-577.763	-65.597	-0.269	-0.108
-576.748	-17.114	-0.212	0.134
-575.733	221.446	0.078	-0.125
-574.719	800.000	0.117	-0.358
-573.704	-200.000	-0.048	0.397
-572.690	-12.570	-0.424	0.276
-571.675	-93.107	0.128	-0.036
-570.661	-41.938	-0.319	-0.163
-569.646	800.000	0.086	-0.269
-568.631	52.594	0.082	0.078
-567.617	-200.000	0.020	-0.152
-566.602	-115.734	-0.163	0.031
-565.588	800.000	0.031	-0.096
-564.573	-86.131	-0.027	0.008
-563.558	-200.000	0.012	-0.095
-562.544	-200.000	-0.040	0.235
-561.529	68.466	-0.249	0.254
-560.515	197.651	-0.132	-0.201
-559.500	-200.000	-0.038	-0.290
-558.485	-123.278	-0.108	0.017
-557.471	-38.822	0.078	0.041
-556.456	800.000	0.048	0.156
-555.442	380.862	0.104	0.212
-554.427	-124.532	-0.070	-0.011
-553.412	-72.744	-0.319	0.117
-552.398	-39.568	0.167	0.087
-551.383	-200.000	0.054	0.261
-550.369	120.382	0.182	0.225
-549.354	-200.000	-0.022	0.283
-548.339	-18.115	0.112	-0.070
-547.325	-35.529	-0.114	0.062
-546.310	-200.000	0.036	-0.293
-545.296	-85.961	0.102	0.032
-544.281	-1.172	-0.139	-0.098
-543.266	-200.000	-0.057	0.301
-542.252	-101.040	-0.317	-0.077
-541.237	-52.010	-0.226	0.104
-540.223	-123.372	-0.338	0.054
-539.208	147.311	-0.068	-0.092
-538.193	-200.000	-0.017	0.118
-537.179	-89.720	0.097	0.028
-536.164	38.969	-0.106	-0.095
-535.150	-151.148	-0.331	0.025
-534.135	-102.563	0.242	0.057
-533.121	-24.128	0.267	0.159
-532.106	63.865	0.115	0.115
-531.091	-100.494	-0.163	0.040
-530.077	102.657	0.140	0.163
-529.062	-20.760	0.170	0.104
-528.048	50.021	0.159	-0.149
-527.033	149.014	0.126	-0.169
-526.018	800.000	-0.026	0.090
-525.004	-87.974	0.081	0.024
-523.989	466.055	-0.045	-0.101
-522.975	-62.616	-0.263	0.109
-521.960	800.000	0.063	0.211
-520.945	-47.251	-0.068	0.033
-519.931	671.986	0.094	-0.243
-518.916	15.842	0.300	-0.235
-517.902	800.000	-0.065	-0.265
-516.887	-41.145	-0.466	0.239
-515.872	276.263	-0.082	0.145
-514.858	-200.000	0.001	0.026
-513.843	-34.225	0.117	0.064
-512.829	-28.650	0.088	0.051
-511.814	-70.454	0.175	0.066
-510.799	91.359	-0.058	0.065
-509.785	-76.314	0.052	-0.018
-508.770	800.000	-0.072	0.250
-507.756	41.301	0.204	0.184
-506.741	-200.000	-0.005	-0.133
-505.726	116.865	0.209	0.255
-504.712	-39.390	0.153	0.080
-503.697	-56.895	0.284	-0.125
-502.683	-101.833	-0.365	-0.088
-501.668	62.349	-0.094	0.093
-500.653	-93.628	-0.140	0.038
-499.639	83.582	-0.244	0.264
-498.624	63.503	0.242	0.242
-497.610	-103.436	-0.258	0.060
-496.595	17.817	0.155	-0.122
-495.581	-182.273	0.254	0.005
-494.566	-132.759	-0.354	0.045
-493.551	-94.835	0.228	-0.061
-492.537	345.252	-0.163	-0.319
-491.522	157.857	0.188	0.259
-490.508	84.841	0.123	0.133
-489.493	-50.144	-0.331	-0.156
-488.478	-159.453	0.367	0.020
-487.464	-23.893	0.068	-0.040
-486.449	-9.696	0.154	-0.102
-485.435	800.000	0.102	0.421
-484.420	454.756	-0.082	0.181
-483.405	212.205	-0.228	-0.357
-482.391	-52.468	0.120	-0.055
-481.376	12.878	0.464	0.357
-480.362	800.000	0.052	-0.185
-479.347	-34.583	0.452	0.246
-478.332	-200.000	0.025	-0.191
-477.318	81.107	0.238	-0.256
-476.303	-200.000	-0.039	-0.396
-475.289	41.207	0.102	0.092
-474.274	-81.985	0.179	0.058
-473.259	118.262	-0.336	-0.412
-472.245	-200.000	0.001	-0.516
-471.230	291.149	-0.069	0.125
-470.216	236.677	-0.245	-0.402
-469.201	-200.000	0.040	0.499
-468.186	800.000	-0.029	-0.121
-467.172	-61.693	0.104	0.043
-466.157	71.222	0.117	0.120
-465.143	-10.099	-0.074	-0.049
-464.128	522.377	0.075	-0.174
-463.113	-42.443	-0.164	0.083
-462.099	800.000	0.047	-0.202
-461.084	-46.610	-0.109	-0.053
-460.070	-200.000	-0.020	-0.134
-459.055	30.073	0.346	-0.293
-458.040	-70.487	-0.131	-0.049
-457.026	800.000	0.067	-0.219
-456.011	-128.247	0.168	-0.024
-454.997	-155.789	0.157	-0.010
-453.982	-87.028	0.454	-0.137
-452.968	137.304	-0.146	-0.189
-451.953	-115.250	-0.228	-0.043
-450.938	97.593	-0.147	-0.167
-449.924	-21.908	-0.239	0.144
-448.909	-108.956	0.283	0.060
-447.895	-151.267	0.204	0.015
-446.880	-38.274	-0.202	0.106
-445.865	1.041	0.178	0.126
-444.851	-70.808	-0.199	0.074
-443.836	-80.758	-0.331	0.109
-442.822	-16.944	0.201	0.126
-441.807	-4.891	0.162	-0.111
-440.792	-117.066	-0.093	-0.017
-439.778	604.830	-0.064	0.157
-438.763	-68.072	0.187	-0.072
-437.749	-67.722	0.329	0.128
-436.734	478.443	-0.077	-0.173
-435.719	-200.000	-0.016	0.131
-434.705	117.057	0.011	0.013
-433.690	-200.000	-0.038	0.318
-432.676	800.000	-0.097	0.366
-431.661	-154.011	-0.332	-0.022
-430.646	141.702	-0.096	-0.127
-429.632	-18.385	0.082	-0.051
-428.617	42.180	0.023	0.021
-427.603	329.974	0.160	0.305
-426.588	-30.690	-0.177	-0.099
-425.573	185.739	-0.055	-0.081
-424.559	228.430	-0.166	-0.267
-423.544	-64.594	-0.102	0.041
-422.530	782.297	0.099	-0.268
-421.515	-200.000	-0.014	-0.127
-420.500	34.450	0.092	-0.080
-419.486	545.667	0.133	0.315
-418.471	228.188	0.046	0.075
-417.457	697.679	0.065	-0.168
-416.442	-44.630	-0.322	-0.159
-415.428	505.565	0.097	-0.222
-414.413	89.018	0.079	-0.087
-413.398	-200.000	-0.007	-0.313
-412.384	375.594	0.100	-0.202
-411.369	94.429	-0.239	0.269
-410.355	800.000	0.033	0.091
-409.340	184.301	-0.119	0.174
-408.325	-200.000	0.000	0.108
-407.311	-135.113	-0.407	0.048
-406.296	455.835	0.093	0.205
-405.282	-200.000	-0.026	-0.122
-404.267	168.812	-0.042	-0.060
-403.252	-156.596	-0.268	0.016
-402.238	-106.498	-0.153	0.034
-401.223	-200.000	-0.013	0.092
-400.209	22.150	0.309	0.250
-399.194	22.295	-0.024	-0.019
-398.179	-200.000	0.038	-0.184
-397.165	-157.495	0.042	0.003
-396.150	194.093	0.138	0.207
-395.136	-109.654	-0.449	-0.094
-394.121	-79.361	-0.225	0.076
-393.106	-143.206	0.165	-0.016
-392.092	25.784	0.116	-0.096
-391.077	465.514	-0.089	0.196
-390.063	-68.793	0.212	-0.081
-389.048	-78.338	-0.154	-0.052
-388.033	-96.032	0.161	-0.042
-387.019	160.109	-0.075	-0.104
-386.004	-200.000	0.012	-0.090
-384.990	800.000	-0.063	-0.199
-383.975	11.150	-0.129	0.097
-382.960	196.114	0.144	0.218
-381.946	101.250	-0.094	0.108
-380.931	800.000	-0.036	-0.131
-379.917	2.548	-0.302	-0.217
-378.902	-8.708	0.047	0.031
-377.888	270.048	0.087	0.152
-376.873	-200.000	-0.049	0.348
-375.858	-74.312	-0.344	0.123
-374.844	337.096	0.035	0.068
-373.829	-72.000	0.093	0.034
-372.815	-19.056	-0.054	-0.033
-371.800	327.983	0.037	0.071
-370.785	-131.859	0.176	-0.023
-369.771	800.000	0.024	-0.086
-368.756	-108.397	-0.212	0.045
-367.742	-104.675	-0.256	-0.058
-366.727	795.199	0.062	0.168
-365.712	351.555	-0.039	-0.077
-364.698	98.450	0.031	-0.036
-363.683	-48.172	0.124	-0.059
-362.669	93.467	0.027	0.030
-361.654	-200.000	-0.025	0.213
-360.639	-98.266	0.113	0.029
-359.625	154.331	0.086	0.116
-358.610	562.297	0.104	0.249
-357.596	91.647	-0.197	0.219
-356.581	-168.105	0.258	0.010
-355.566	-92.488	0.358	-0.100
-354.552	-188.875	0.185	-0.002
-353.537	-126.322	0.532	-0.078
-352.523	-125.655	0.162	-0.024
-351.508	-175.035	-0.141	-0.004
-350.493	37.629	-0.030	0.026
-349.479	-43.926	0.152	0.076
-348.464	-200.000	-0.077	0.353
-347.450	-200.000	0.065	0.392
-346.435	23.894	0.181	0.148
-345.420	-41.761	0.045	0.023
-344.406	-119.635	0.271	0.046
-343.391	-84.699	0.129	0.040
-342.377	-200.000	-0.009	-0.471
-341.362	-200.000	-0.071	-0.344
-340.348	52.580	0.072	-0.068
-339.333	-95.941	-0.354	-0.093
-338.318	535.085	0.200	-0.469
-337.304	-200.000	-0.011	-0.376
-336.289	10.657	-0.185	-0.139
-335.275	311.239	0.106	-0.197
-334.260	-172.186	0.154	0.005
-333.245	1.391	0.296	0.210
-332.231	662.566	0.059	0.151
-331.216	-200.000	-0.037	0.185
-330.202	-113.650	0.084	0.016
-329.187	232.821	-0.192	0.312
-328.172	184.470	-0.034	0.049
-327.158	455.142	0.127	0.278
-326.143	-200.000	0.030	-0.323
-325.129	68.230	-0.084	0.085
-324.114	32.646	-0.235	0.201
-323.099	-31.565	0.116	-0.064
-322.085	207.224	0.080	0.122
-321.070	232.431	0.155	0.252
-320.056	428.683	-0.041	0.088
-319.041	-200.000	0.092	-0.410
-318.026	353.680	0.228	-0.448
-317.012	800.000	0.046	0.175
-315.997	-200.000	0.033	0.267
-314.983	800.000	-0.114	0.344
-313.968	224.761	0.055	0.088
-312.953	618.626	0.124	-0.308
-311.939	240.585	0.042	-0.069
-310.924	578.363	-0.088	-0.211
-309.910	-200.000	0.015	0.220
-308.895	361.560	0.030	0.060
-307.880	-200.000	0.011	0.406
-306.866	-112.883	0.212	0.041
-305.851	288.611	0.089	-0.159
-304.837	-200.000	0.019	0.153
-303.822	46.171	0.179	0.163
-302.807	800.000	-0.094	0.363
-301.793	104.847	-0.195	0.227
-300.778	-101.902	-0.277	-0.066
-299.764	-100.732	-0.290	-0.070
-298.749	28.661	0.597	0.499
-297.735	249.570	-0.117	0.195
-296.720	144.116	0.224	0.295
-295.705	18.402	-0.155	-0.122
-294.691	103.963	-0.222	0.258
-293.676	117.526	-0.081	0.099
-292.662	-20.278	0.302	-0.183
-291.647	-200.000	0.072	-0.388
-290.632	-78.293	0.166	-0.056
-289.618	-86.206	-0.327	0.100
-288.603	-133.485	0.148	-0.018
-287.589	-140.145	-0.182	0.019
-286.574	-137.692	0.083	-0.009
-285.559	800.000	0.054	-0.169
-284.545	-126.200	0.196	0.029
-283.530	-10.386	-0.126	-0.083
-282.516	-137.549	0.182	-0.020
-281.501	-200.000	0.041	-0.238
-280.486	800.000	-0.066	-0.243
-279.472	-200.000	0.018	-0.207
-278.457	-7.421	-0.100	0.067
-277.443	83.998	0.116	0.124
-276.428	583.452	-0.093	-0.225
-275.413	-72.183	0.187	-0.069
-274.399	589.321	0.124	-0.302
-273.384	-98.995	-0.078	-0.019
-272.370	-85.521	0.131	-0.040
-271.355	83.863	0.088	0.094
-270.340	125.380	0.086	0.107
-269.326	-200.000	0.052	-0.352
-268.311	121.258	0.093	-0.114
-267.297	-200.000	0.008	0.103
-266.282	800.000	-0.136	0.378
-265.267	-73.694	0.475	-0.170
-264.253	63.318	0.108	-0.107
-263.238	800.000	-0.130	-0.413
-262.224	14.324	-0.249	-0.191
-261.209	446.564	-0.179	0.388
-260.195	-200.000	0.040	-0.175
-259.180	116.756	-0.071	0.086
-258.165	-74.154	-0.225	0.080
-257.151	47.133	0.277	-0.254
-256.136	-73.351	0.239	-0.086
-255.122	167.896	-0.139	-0.194
-254.107	147.171	0.140	0.185
-253.092	599.512	0.037	-0.091
-252.078	-179.038	0.346	0.008
-251.063	-29.128	0.131	0.074
-250.049	-56.139	0.138	0.061
-249.034	423.043	-0.121	0.255
-248.019	-158.280	0.362	-0.021
-247.005	162.121	-0.156	0.215
-245.990	-9.718	-0.406	-0.266
-244.976	174.730	0.099	0.142
-243.961	64.350	-0.014	-0.013
-242.946	-111.690	-0.139	0.028
-241.932	-134.063	-0.095	-0.012
-240.917	-101.117	-0.216	0.052
-239.903	15.243	0.116	0.090
-238.888	-122.401	-0.111	-0.018
-237.873	55.566	-0.462	0.441
-236.859	112.055	-0.188	-0.223
-235.844	-36.298	0.198	0.105
-234.830	170.529	0.120	0.169
-233.815	166.996	-0.104	0.145
-232.800	79.722	0.176	-0.187
-231.786	-63.988	0.157	0.063
-230.771	115.552	0.216	0.260
-229.757	247.984	0.018	-0.030
-228.742	-107.175	-0.092	0.020
-227.727	17.514	0.132	0.103
-226.713	-200.000	0.008	-0.061
-225.698	476.183	0.064	-0.142
-224.684	-143.803	0.120	-0.011
-223.669	89.678	0.222	0.243
-222.655	800.000	-0.152	-0.451
-221.640	-125.983	-0.285	-0.042
-220.625	-49.713	0.060	0.028
-219.611	20.474	-0.264	-0.210
-218.596	800.000	0.071	-0.215
-217.582	48.777	-0.178	-0.164
-216.567	283.313	-0.167	-0.294
-215.552	-85.538	-0.156	-0.048
-214.538	800.000	0.060	0.203
-213.523	180.231	-0.136	-0.196
-212.509	-200.000	-0.031	0.142
-211.494	179.950	-0.070	-0.101
-210.479	167.260	-0.076	0.106
-209.465	-30.737	-0.316	0.176
-208.450	-99.417	0.117	-0.029
-207.436	649.461	-0.087	0.219
-206.421	56.241	0.173	-0.165
-205.406	240.159	0.107	-0.176
-204.392	160.476	0.066	-0.090
-203.377	-0.796	-0.333	-0.232
-202.363	800.000	-0.072	-0.209
-201.348	67.143	-0.152	-0.153
-200.333	-101.673	-0.147	0.035
-199.319	104.848	0.086	0.099
-198.304	-39.063	0.190	0.098
-197.290	-51.512	-0.092	0.042
-196.275	-200.000	0.000	0.105
-195.260	-189.377	-0.228	0.003
-194.246	15.575	-0.220	0.170
-193.231	-4.664	0.106	-0.072
-192.217	-62.254	0.321	0.132
-191.202	456.731	0.132	0.288
-190.187	-175.232	0.066	0.002
-189.173	111.759	0.222	-0.263
-188.158	800.000	0.029	0.087
-187.144	800.000	-0.034	0.132
-186.129	-89.218	-0.296	-0.086
-185.114	-61.941	0.268	0.110
-184.100	138.672	0.362	0.467
-183.085	-78.504	0.164	-0.055
-182.071	309.639	-0.112	0.205
-181.056	-200.000	-0.077	0.358
-180.042	-89.056	-0.155	0.045
-179.027	-200.000	-0.017	-0.218
-178.012	-200.000	0.027	0.143
-176.998	-91.681	-0.341	0.095
-175.983	-173.415	-0.110	0.003
-174.969	-149.699	0.183	-0.014
-173.954	-72.608	0.279	-0.101
-172.939	-37.203	-0.183	0.096
-171.925	800.000	0.052	-0.193
-170.910	7.221	-0.133	0.098
-169.896	-21.625	-0.233	0.140
-168.881	-84.428	-0.294	0.091
-167.866	-176.008	0.256	-0.007
-166.852	800.000	-0.041	-0.153
-165.837	384.253	-0.029	0.059
-164.823	-89.330	-0.077	0.022
-163.808	105.193	0.195	0.226
-162.793	800.000	-0.033	0.133
-161.779	-200.000	0.027	-0.236
-160.764	667.909	0.167	0.425
-159.750	130.687	-0.021	0.027
-158.735	-200.000	-0.046	-0.320
-157.720	-200.000	0.039	0.242
-156.706	-73.638	0.090	-0.032
-155.691	-17.404	-0.131	-0.081
-154.677	-69.131	-0.223	0.084
-153.662	232.536	-0.029	-0.047
-152.647	-200.000	0.031	-0.224
-151.633	-155.799	-0.111	-0.007
-150.618	365.073	-0.069	0.137
-149.604	17.136	-0.160	-0.124
-148.589	-38.915	0.290	-0.150
-147.574	-103.726	-0.114	-0.026
-146.560	14.105	-0.252	-0.192
-145.545	227.647	-0.109	0.174
-144.531	-200.000	-0.026	-0.198
-143.516	141.233	-0.092	-0.120
-142.502	-25.735	0.296	0.171
-141.487	542.748	-0.100	-0.234
-140.472	-72.349	0.285	0.103
-139.458	-200.000	0.001	0.333
-138.443	409.360	-0.047	0.099
-137.429	-200.000	-0.008	-0.104
-136.414	-200.000	-0.028	-0.133
-135.399	-130.120	0.358	-0.048
-134.385	-110.899	-0.058	0.012
-133.370	-132.186	0.127	-0.016
-132.356	118.963	0.136	0.165
-131.341	237.257	-0.133	0.216
-130.326	153.582	-0.083	0.111
-129.312	737.090	0.104	0.273
-128.297	44.467	0.150	-0.135
-127.283	-90.136	0.285	0.081
-126.268	276.627	-0.122	-0.212
-125.253	537.917	-0.111	-0.258
-124.239	162.533	-0.078	-0.107
-123.224	-48.860	0.213	-0.100
-122.210	16.335	0.213	0.165
-121.195	189.140	-0.147	0.215
-120.180	-73.499	0.356	0.127
-119.166	46.744	0.114	-0.104
-118.151	581.116	-0.046	-0.110
-117.137	800.000	0.059	0.167
-116.122	21.200	0.195	0.155
-115.107	-113.629	0.258	-0.049
-114.093	200.430	-0.059	-0.089
-113.078	67.806	0.173	0.173
-112.064	3.236	0.102	0.073
-111.049	-81.635	0.115	0.037
-110.034	732.779	-0.125	0.327
-109.020	-128.037	-0.371	0.052
-108.005	-29.187	-0.115	0.065
-106.991	302.862	0.107	0.194
-105.976	-19.756	-0.216	0.131
-104.962	72.054	-0.032	0.033
-103.947	-121.462	-0.354	-0.058
-102.932	-200.000	-0.093	0.433
-101.918	38.807	0.080	-0.070
-100.903	-164.240	0.197	-0.009
-99.889	-71.974	-0.131	-0.048
-98.874	-154.062	-0.098	0.007
-97.859	178.254	0.086	0.123
-96.845	-200.000	-0.021	0.288
-95.830	104.598	0.078	-0.090
-94.816	174.926	-0.087	-0.124
-93.801	630.570	0.127	-0.315
-92.786	800.000	0.083	0.284
-91.772	-95.690	-0.156	0.041
-90.757	134.396	0.086	-0.110
-89.743	71.736	-0.057	0.058
-88.728	66.304	-0.251	0.249
-87.713	57.570	0.173	-0.165
-86.699	-119.504	0.146	0.025
-85.684	62.239	-0.262	0.256
-84.670	-103.963	0.195	0.044
-83.655	5.002	0.108	-0.078
-82.640	800.000	-0.081	-0.251
-81.626	165.270	0.131	-0.181
-80.611	-200.000	0.003	-0.028
-79.597	-112.032	0.207	-0.041
-78.582	189.763	0.049	-0.073
-77.567	89.147	-0.087	0.095
-76.553	-200.000	-0.039	0.280
-75.538	-132.334	0.126	-0.016
-74.524	-43.636	-0.398	-0.196
-73.509	231.156	0.127	0.204
-72.494	800.000	0.005	-0.018
-71.480	-17.376	-0.214	0.132
-70.465	-200.000	-0.003	0.107
-69.451	-13.190	-0.126	0.080
-68.436	8.159	-0.060	0.044
-67.422	-200.000	0.005	0.107
-66.407	-6.185	-0.213	-0.143
-65.392	-106.172	-0.162	-0.036
-64.378	-25.913	0.021	0.012
-63.363	102.424	-0.274	0.313
-62.349	-131.742	0.174	0.022
-61.334	152.871	-0.867	-1.159
-60.319	3.368	0.888	0.632
-59.305	243.911	-0.592	-0.971
-58.290	95.607	0.973	1.085
-57.276	800.000	0.481	1.599
-56.261	-200.000	116.986	658.612
-55.246	521.767	1542.566	3539.172
-54.232	174.888	2714.794	3841.352
-53.217	106.414	2179.841	2525.697
-52.203	37.131	1696.025	1467.555
-51.188	29.416	1510.666	1254.884
-50.173	27.263	1486.036	1219.949
-49.159	51.633	1545.974	1436.563
-48.144	49.760	1560.990	1437.658
-47.130	29.611	1516.157	1260.575
-46.115	26.619	1501.168	1227.815
-45.100	26.464	1497.749	1223.917
-44.086	26.562	1495.321	1222.544
-43.071	26.404	1493.635	1220.052
-42.057	26.278	1492.429	1218.169
-41.042	26.412	1490.576	1217.513
-40.027	26.402	1489.277	1216.339
-39.013	26.388	1487.744	1214.943
-37.998	26.359	1486.651	1213.808
-36.984	26.399	1485.632	1213.193
-35.969	26.494	1484.000	1212.451
-34.954	26.386	1482.654	1210.582
-33.940	26.340	1481.448	1209.238
-32.925	26.507	1479.810	1208.971
-31.911	26.534	1478.352	1207.912
-30.896	26.441	1477.448	1206.501
-29.881	26.500	1475.991	1205.657
-28.867	26.481	1474.731	1204.455
-27.852	26.523	1473.584	1203.748
-26.838	26.539	1472.206	1202.687
-25.823	26.550	1470.377	1201.218
-24.809	26.562	1469.064	1200.173
-23.794	26.465	1467.416	1198.140
-22.779	26.499	1466.423	1197.503
-21.765	26.443	1465.891	1196.655
-20.750	26.455	1464.425	1195.485
-19.736	26.416	1463.304	1194.270
-18.721	26.461	1461.919	1193.387
-17.706	26.449	1460.843	1192.378
-16.692	26.455	1460.107	1191.773
-15.677	26.326	1459.616	1190.476
-14.663	26.446	1458.156	1190.027
-13.648	26.358	1457.436	1188.810
-12.633	26.448	1456.216	1188.360
-11.619	26.403	1454.970	1187.001
-10.604	26.434	1454.316	1186.623
-9.590	26.452	1453.217	1185.799
-8.575	26.385	1452.180	1184.467
-7.560	26.439	1451.318	1184.073
-6.546	26.366	1451.219	1183.466
-5.531	26.390	1450.028	1182.605
-4.517	26.399	1448.913	1181.706
-3.502	26.409	1448.019	1180.996
-2.487	26.398	1447.070	1180.100
-1.473	26.342	1446.584	1179.292
-0.458	26.449	1444.577	1178.310
0.556	28.213	1435.387	1167.949
1.571	25.567	1410.782	1131.209
2.586	22.185	1352.309	1063.798
3.600	20.749	1270.612	991.271
4.615	19.530	1225.710	949.455
5.629	17.077	1169.523	892.962
6.644	10.278	1087.740	797.075
7.659	5.117	1050.274	744.965
8.673	4.422	1045.167	737.975
9.688	4.208	1041.834	734.543
10.702	4.001	1040.347	732.448
11.717	4.210	1037.979	731.705
12.731	6.668	1040.088	744.739
13.746	13.930	1049.882	786.173
14.761	20.036	1058.134	821.323
15.775	22.092	1059.453	832.022
16.790	21.670	1058.544	829.240
17.804	20.667	1056.391	822.738
18.819	19.999	1054.660	818.163
19.834	19.483	1053.469	814.732
20.848	19.347	1053.041	813.686
21.863	19.473	1052.456	813.755
22.877	19.277	1051.927	812.349
23.892	19.025	1051.307	810.611
24.907	19.030	1050.001	809.557
25.921	19.027	1048.967	808.672
26.936	18.799	1048.977	807.540
27.950	18.941	1047.366	806.894
28.965	19.023	1046.370	806.439
29.980	19.034	1045.438	805.699
30.994	19.180	1044.313	805.445
32.009	19.384	1043.341	805.580
33.023	19.434	1042.847	805.358
34.038	19.301	1042.109	804.097
35.053	19.242	1040.978	802.877
36.067	19.063	1040.054	801.262
37.082	19.029	1039.035	800.250
38.096	19.140	1038.563	800.329
39.111	19.253	1037.703	800.118
40.126	19.428	1036.677	800.072
41.140	19.192	1035.548	798.035
42.155	18.957	1034.173	795.816
43.169	18.616	1033.426	793.593
44.184	18.553	1031.877	792.045
45.199	18.503	1030.995	791.066
46.213	18.760	1029.878	791.324
47.228	18.688	1029.586	790.695
48.242	18.958	1029.068	791.474
49.257	19.238	1027.560	791.530
50.271	19.033	1026.928	790.033
51.286	19.006	1026.364	789.404
52.301	19.160	1025.906	789.689
53.315	19.185	1024.573	788.704
54.330	19.004	1023.956	787.332
55.344	18.895	1022.897	785.950
56.359	18.808	1021.828	784.662
57.374	18.793	1021.315	784.133
58.388	18.848	1019.916	783.238
59.403	18.674	1019.469	782.034
60.417	18.540	1018.725	780.783
61.432	18.576	1018.259	780.522
62.447	18.466	1017.517	779.381
63.461	18.552	1016.231	778.720
64.476	18.521	1015.272	777.773
65.490	18.463	1014.644	776.959
66.505	18.401	1014.073	776.173
67.520	18.457	1013.078	775.598
68.534	18.487	1012.416	775.156
69.549	18.408	1011.694	774.178
70.563	18.426	1010.854	773.550
71.578	18.264	1009.898	772.018
72.593	18.281	1008.598	771.032
73.607	18.113	1007.785	769.586
74.622	18.051	1006.893	768.561
75.636	18.170	1005.796	768.189
76.651	18.256	1005.599	768.355
77.666	18.332	1004.669	767.920
78.680	18.298	1003.697	766.956
79.695	18.382	1003.274	766.942
80.709	18.531	1002.535	766.975
81.724	18.551	1002.035	766.612
82.739	18.740	1001.294	766.824
83.753	18.735	1001.125	766.602
84.768	18.782	1000.628	766.365
85.782	19.297	999.718	767.895
86.797	19.466	999.363	768.307
87.812	19.409	998.669	767.451
88.826	19.258	997.416	765.751
89.841	19.178	996.558	764.670
90.855	19.332	995.704	764.628
91.870	19.259	995.393	763.999
92.884	19.420	994.321	763.819
93.899	19.299	993.650	762.703
94.914	19.287	992.862	761.975
95.928	19.396	992.295	761.957
96.943	19.330	991.634	761.089
97.957	19.248	990.345	759.669
98.972	19.229	989.563	758.922
99.987	19.288	988.599	758.372
101.001	19.261	987.802	757.578
102.016	19.273	987.275	757.159
103.030	19.245	986.572	756.429
104.045	19.366	985.456	756.036
105.060	19.408	984.297	755.263
106.074	19.176	983.700	753.726
107.089	18.945	982.607	751.812
108.103	18.718	981.281	749.737
109.118	18.578	980.107	748.162
110.133	18.538	979.141	747.188
111.147	18.483	978.513	746.404
112.162	18.404	977.290	745.059
113.176	18.416	976.629	744.540
114.191	18.632	976.316	745.177
115.206	18.737	975.259	744.756
116.220	18.652	974.708	743.901
117.235	18.574	973.521	742.593
118.249	18.598	972.597	741.925
119.264	18.555	972.062	741.265
120.279	18.472	971.077	740.092
121.293	18.392	970.679	739.376
122.308	18.385	969.661	738.505
123.322	18.445	968.846	738.079
124.337	18.263	967.419	736.144
125.352	18.198	966.241	734.905
126.366	18.228	965.265	734.226
127.381	18.195	964.397	733.358
128.395	18.274	963.196	732.718
129.410	18.144	963.202	732.101
130.424	18.193	961.911	731.264
131.439	18.344	960.948	731.113
132.454	18.399	960.738	731.125
133.468	18.545	959.922	731.062
134.483	18.693	958.876	730.830
135.497	18.689	958.382	730.371
136.512	18.587	957.808	729.436
137.527	18.651	957.219	729.193
138.541	18.591	956.246	728.133
139.556	18.682	955.933	728.216
140.570	18.521	955.181	726.896
141.585	18.796	954.349	727.362
142.600	19.033	953.793	727.878
143.614	19.190	953.244	728.058
144.629	19.263	952.424	727.679
145.643	19.387	951.726	727.601
146.658	19.342	950.793	726.634
147.673	19.198	949.796	725.202
148.687	18.943	948.740	723.261
149.702	18.999	947.307	722.337
150.716	18.672	946.741	720.472
151.731	18.730	946.064	720.133
152.746	18.770	945.494	719.807
153.760	18.731	944.697	718.972
154.775	18.877	943.591	718.676
155.789	18.883	943.056	718.232
156.804	19.069	942.418	718.458
157.819	19.105	941.614	717.932
158.833	19.097	941.010	717.373
159.848	19.276	940.005	717.289
160.862	19.336	940.129	717.569
161.877	19.299	939.074	716.546
162.892	18.981	937.742	714.146
163.906	18.732	936.812	712.342
164.921	18.644	936.128	711.397
165.935	18.681	935.053	710.669
166.950	18.844	933.839	710.358
167.964	18.864	933.492	710.112
168.979	18.970	932.065	709.401
169.994	18.741	931.282	707.801
171.008	18.870	929.897	707.217
172.023	18.901	929.402	706.905
173.037	19.080	928.572	706.947
174.052	19.302	928.041	707.390
175.067	19.236	927.521	706.662
176.081	18.870	926.487	704.311
177.096	18.641	925.659	702.680
178.110	18.718	924.514	702.064
179.125	18.714	924.032	701.620
180.140	18.868	923.385	701.696
181.154	18.817	922.661	700.874
182.169	19.038	922.329	701.460
183.183	19.185	921.986	701.737
184.198	19.271	921.232	701.452
185.213	19.138	920.526	700.311
186.227	19.121	919.920	699.719
187.242	19.297	919.784	700.270
188.256	19.308	918.936	699.607
189.271	19.561	918.265	700.059
190.286	19.461	917.732	699.184
191.300	19.217	916.767	697.401
192.315	18.759	915.315	694.384
193.329	18.527	914.600	692.840
194.344	18.700	914.042	693.057
195.359	18.808	913.648	693.131
196.373	18.886	913.106	692.972
197.388	19.148	912.620	693.600
198.402	19.216	912.121	693.433
199.417	19.533	911.837	694.431
200.432	19.622	911.727	694.644
201.446	19.681	911.132	694.367
202.461	19.818	911.420	695.072
203.475	19.875	910.530	694.562
204.490	19.815	909.880	693.766
205.504	19.546	908.716	691.737
206.519	19.245	907.896	689.848
207.534	19.217	907.345	689.254
208.548	19.280	906.269	688.630
209.563	19.349	905.578	688.319
210.577	19.388	904.866	687.874
211.592	19.345	904.639	687.469
212.607	19.478	904.407	687.760
213.621	19.624	903.918	687.910
214.636	19.754	902.262	687.106
215.650	19.572	902.013	686.129
216.665	19.658	901.809	686.255
217.680	19.837	901.269	686.494
218.694	19.761	901.169	686.056
219.709	19.831	900.394	685.683
220.723	19.827	899.758	685.123
221.738	19.766	898.945	684.204
222.753	19.673	898.080	683.117
223.767	19.592	897.606	682.373
224.782	19.738	896.970	682.407
225.796	19.946	895.981	682.415
226.811	19.941	895.567	682.017
227.826	19.858	894.799	681.048
228.840	19.828	893.542	679.913
229.855	19.584	893.117	678.571
230.869	19.698	892.533	678.515
231.884	19.621	891.823	677.612
232.899	19.617	890.835	676.786
233.913	19.319	890.644	675.413
234.928	19.331	890.053	674.953
235.942	19.391	888.969	674.305
236.957	19.319	888.104	673.307
237.972	19.226	887.667	672.555
238.986	19.218	887.352	672.225
240.001	19.438	886.524	672.395
241.015	19.398	885.761	671.601
242.030	19.560	884.963	671.566
243.045	19.571	884.699	671.350
244.059	19.592	884.131	670.942
245.074	19.584	883.769	670.576
246.088	19.689	882.615	670.047
247.103	19.784	882.349	670.156
248.117	19.875	882.109	670.267
249.132	20.199	881.655	671.117
250.147	20.381	881.313	671.499
251.161	20.501	880.912	671.599
252.176	20.541	880.594	671.453
253.190	20.559	879.614	670.713
254.205	20.704	879.120	670.836
255.220	20.793	878.331	670.518
256.234	20.752	877.687	669.811
257.249	20.647	877.013	668.833
258.263	20.706	876.653	668.727
259.278	20.731	876.125	668.358
260.293	20.482	875.476	666.851
261.307	20.746	874.994	667.437
262.322	20.748	874.485	666.998
263.336	20.685	874.031	666.350
264.351	20.713	873.458	665.963
265.366	20.762	872.727	665.534
266.380	20.985	872.013	665.783
267.395	20.895	871.088	664.671
268.409	20.620	870.659	663.240
269.424	20.492	869.854	662.078
270.439	20.457	870.093	662.069
271.453	20.615	868.391	661.313
272.468	20.505	867.555	660.204
273.482	20.401	866.781	659.162
274.497	20.398	866.814	659.118
275.512	20.436	865.838	658.459
276.526	20.442	864.787	657.623
277.541	20.479	864.406	657.417
278.555	20.583	863.616	657.152
279.570	20.599	863.321	656.928
280.585	20.801	863.631	657.868
281.599	20.939	862.496	657.466
282.614	20.859	861.775	656.558
283.628	20.524	861.482	655.013
284.643	20.495	860.595	654.172
285.657	20.584	859.955	653.962
286.672	20.622	859.516	653.713
287.687	20.599	858.850	653.063
288.701	20.621	858.745	653.008
289.716	20.638	858.002	652.449
290.730	20.705	857.335	652.136
291.745	20.686	856.921	651.691
292.760	20.785	856.171	651.433
293.774	20.690	855.974	650.870
294.789	20.997	855.281	651.435
295.803	20.982	855.032	651.129
296.818	20.743	853.730	649.190
297.833	20.528	853.429	648.101
298.847	20.598	852.697	647.751
299.862	20.909	851.467	647.914
300.876	20.727	851.631	647.305
301.891	20.979	851.049	647.741
302.906	20.971	850.472	647.214
303.920	21.196	849.663	647.378
304.935	21.283	849.187	647.281
305.949	21.254	849.043	647.006
306.964	21.490	847.806	646.879
307.979	21.131	847.292	645.103
308.993	20.905	846.986	643.976
310.008	21.119	846.190	644.104
311.022	21.237	845.897	644.261
312.037	21.177	845.489	643.670
313.052	21.139	845.156	643.221
314.066	20.860	843.841	641.137
315.081	20.687	843.448	640.146
316.095	20.722	842.583	639.562
317.110	20.787	842.125	639.395
318.125	20.668	841.881	638.716
319.139	20.548	841.194	637.697
320.154	20.794	840.520	638.032
321.168	20.797	839.981	637.577
322.183	20.898	839.666	637.651
323.197	20.886	839.516	637.437
324.212	20.866	838.533	636.560
325.227	20.761	838.123	635.809
326.241	20.958	837.459	635.969
327.256	20.817	836.823	634.917
328.270	20.794	836.603	634.607
329.285	20.783	835.919	633.994
330.300	20.929	834.845	633.653
331.314	20.860	834.130	632.806
332.329	20.809	834.349	632.729
333.343	21.042	833.592	632.945
334.358	21.170	832.960	632.872
335.373	21.207	832.541	632.634
336.387	21.129	832.168	632.012
337.402	21.067	831.945	631.563
338.416	21.256	831.365	631.750
339.431	21.443	830.960	632.063
340.446	21.577	830.260	631.955
341.460	21.750	829.702	632.100
342.475	21.690	829.612	631.758
343.489	21.748	828.913	631.379
344.504	21.876	828.098	631.164
345.519	21.918	827.924	631.126
346.533	21.984	827.473	630.964
347.548	21.808	827.275	630.124
348.562	21.651	826.256	628.730
349.577	21.340	825.481	626.969
350.592	21.301	824.662	626.152
351.606	21.235	824.154	625.473
352.621	21.226	823.806	625.123
353.635	21.231	823.503	624.854
354.650	21.288	823.275	624.831
355.665	21.427	822.310	624.540
356.679	21.457	821.859	624.248
357.694	21.567	821.840	624.573
358.708	21.528	821.311	623.973
359.723	21.571	820.513	623.467
360.738	21.647	819.994	623.287
361.752	21.424	819.389	621.980
362.767	21.563	819.142	622.233
363.781	21.661	819.178	622.551
364.796	21.879	818.684	622.895
365.810	22.034	818.417	623.187
366.825	22.165	817.906	623.206
367.840	22.229	817.416	623.007
368.854	22.148	817.475	622.709
369.869	21.985	816.578	621.394
370.883	22.129	815.615	621.115
371.898	21.941	815.286	620.144
372.913	22.060	814.667	620.040
373.927	22.155	814.146	619.922
374.942	22.093	813.616	619.245
375.956	21.836	813.174	617.947
376.971	21.963	812.598	617.904
377.986	22.386	811.523	618.519
379.000	22.327	811.380	618.149
380.015	22.437	810.798	618.037
381.029	22.334	810.741	617.577
382.044	22.203	810.066	616.548
383.059	22.434	809.209	616.649
384.073	22.389	808.902	616.204
385.088	22.199	807.974	614.779
386.102	22.111	807.352	613.943
387.117	21.960	806.403	612.641
388.132	21.925	806.130	612.257
389.146	21.920	805.713	611.868
390.161	21.880	805.553	611.553
391.175	22.121	805.279	612.132
392.190	22.269	804.944	612.336
393.205	22.171	804.494	611.600
394.219	21.899	804.052	610.264
395.234	21.927	803.614	609.973
396.248	21.865	802.745	609.044
397.263	21.727	802.331	608.199
398.278	21.700	801.524	607.440
399.292	21.543	801.319	606.687
400.307	21.694	801.025	606.933
401.321	21.711	800.350	606.427
402.336	21.927	799.721	606.642
403.350	21.863	800.071	606.635
404.365	21.801	799.506	605.937
405.380	22.183	799.099	606.893
406.394	22.168	799.128	606.810
407.409	22.444	798.079	606.912
408.423	22.537	797.911	607.050
409.438	22.516	797.467	606.585
410.453	22.474	797.248	606.222
411.467	22.674	796.616	606.376
412.482	22.695	796.076	605.982
413.496	22.769	796.100	606.202
414.511	22.723	795.882	605.825
415.526	22.920	795.325	606.024
416.540	22.839	794.754	605.257
417.555	22.764	794.312	604.609
418.569	22.637	793.397	603.426
419.584	22.706	792.927	603.250
420.599	22.676	792.738	602.949
421.613	165.179	1368.693	1795.783
422.628	143.337	1452.608	1795.866
