DTS Sentinel unit serial number:	SN413079Multiplexer serial number:	ORYXHardware model number:	OX4-SRSoftware version number:	ORYX F/W v4.00 Oryx Data Collector v3.7.2.0data status	okinstallation	princeton_trtdifferential loss correction	single-endedforward channel	channel 3reverse channel	N/Adate	2019/09/15time	05:32:35forward acquisition time	60.00reverse acquisition time	0.00gamma	496.2192k internal	0.2324k external	0.2324temperature offset calibration	0.9978default loss term (dB/km)	0.3790temperature slope calibration	1.0000multiplexer offset coefficient	1.0000multiplexer slope coefficient	1.0000fibre end	0.00T internal ref (°C)	30.58T ext. ref 1 (°C)	4.75T ext. ref 2 (°C)	25.73length (m)	temperature (°C)	Stokes	anti-Stokes-747.200	-200.000	-0.028	0.299
-746.185	94.558	-0.171	0.197
-745.171	-25.994	-0.279	-0.166
-744.156	-103.325	-0.084	0.020
-743.142	196.016	-0.251	-0.386
-742.127	-93.448	-0.319	-0.089
-741.112	-165.748	0.376	0.016
-740.098	-200.000	-0.060	0.283
-739.083	38.187	-0.210	-0.188
-738.069	-65.128	-0.175	-0.071
-737.054	335.673	-0.021	-0.040
-736.039	-30.330	-0.336	-0.193
-735.025	135.154	0.146	0.192
-734.010	131.111	-0.215	-0.279
-732.996	86.060	-0.172	-0.191
-731.981	43.009	0.217	0.200
-730.966	13.626	0.099	-0.077
-729.952	-200.000	0.016	-0.072
-728.937	800.000	-0.069	-0.295
-727.923	-40.220	-0.094	0.049
-726.908	171.535	0.115	0.166
-725.894	-121.627	-0.169	-0.028
-724.879	-137.485	-0.677	-0.077
-723.864	69.910	-0.162	0.169
-722.850	-200.000	0.009	0.229
-721.835	-92.128	0.158	-0.045
-720.821	-147.117	0.047	0.004
-719.806	146.387	0.071	-0.096
-718.791	-118.876	0.178	-0.032
-717.777	-8.866	-0.318	-0.215
-716.762	225.738	-0.047	0.076
-715.748	800.000	0.039	-0.113
-714.733	50.634	0.144	0.137
-713.718	122.359	0.079	0.100
-712.704	-106.321	-0.174	0.039
-711.689	800.000	0.045	-0.135
-710.675	89.484	0.182	0.205
-709.660	-200.000	-0.296	0.001
-708.645	-55.804	0.139	0.063
-707.631	37.671	0.053	0.048
-706.616	-154.148	-0.031	0.002
-705.602	-35.465	-0.066	-0.036
-704.587	91.985	-0.096	-0.109
-703.572	-127.518	0.327	-0.048
-702.558	-175.263	0.250	-0.007
-701.543	373.362	0.140	-0.287
-700.529	-200.000	0.045	-0.416
-699.514	-200.000	0.029	0.270
-698.499	-43.334	0.091	-0.047
-697.485	148.160	-0.165	-0.224
-696.470	269.040	0.021	-0.038
-695.456	-40.957	-0.336	0.175
-694.441	6.120	0.101	0.075
-693.426	-108.479	-0.111	-0.024
-692.412	260.019	-0.043	0.075
-691.397	105.247	-0.377	-0.448
-690.383	18.931	0.024	0.019
-689.368	-98.201	0.089	-0.023
-688.354	-200.000	-0.008	-0.293
-687.339	2.579	-0.219	-0.160
-686.324	1.987	0.145	-0.105
-685.310	-43.744	-0.230	0.116
-684.295	-200.000	-0.010	0.078
-683.281	139.704	-0.254	-0.337
-682.266	800.000	-0.018	-0.060
-681.251	198.596	0.211	-0.325
-680.237	800.000	0.045	-0.138
-679.222	-26.229	-0.162	-0.096
-678.208	-200.000	0.014	0.154
-677.193	43.174	-0.202	-0.186
-676.178	104.973	-0.183	-0.218
-675.164	38.380	-0.035	0.031
-674.149	-116.706	-0.228	0.042
-673.135	484.590	0.198	-0.455
-672.120	800.000	0.063	-0.207
-671.105	-114.844	0.188	0.036
-670.091	800.000	-0.142	0.494
-669.076	-200.000	0.031	-0.344
-668.062	-200.000	-0.013	-0.320
-667.047	-160.367	-0.379	-0.021
-666.032	17.103	-0.079	-0.063
-665.018	57.461	0.102	0.100
-664.003	80.350	0.086	-0.093
-662.989	-200.000	0.058	0.335
-661.974	182.678	0.107	-0.158
-660.959	-200.000	-0.010	-0.143
-659.945	-59.612	0.233	0.101
-658.930	120.852	0.155	-0.194
-657.916	-200.000	0.020	0.288
-656.901	379.716	0.120	-0.248
-655.886	194.121	0.233	0.356
-654.872	-200.000	0.012	-0.215
-653.857	-200.000	-0.000	-0.139
-652.843	127.778	0.091	-0.117
-651.828	-200.000	0.063	-0.332
-650.814	-53.975	0.199	-0.091
-649.799	153.652	-0.037	0.051
-648.784	143.031	-0.042	-0.056
-647.770	25.513	0.307	-0.257
-646.755	306.989	0.047	-0.089
-645.741	634.067	-0.063	0.159
-644.726	-200.000	0.000	-0.122
-643.711	-200.000	-0.009	-0.218
-642.697	302.049	0.187	-0.348
-641.682	-200.000	-0.023	0.464
-640.668	-56.110	-0.062	-0.028
-639.653	-200.000	-0.006	-0.153
-638.638	-134.061	-0.240	-0.030
-637.624	800.000	0.091	-0.263
-636.609	800.000	-0.067	-0.190
-635.595	263.856	-0.161	-0.281
-634.580	-200.000	0.037	-0.168
-633.565	-200.000	-0.023	-0.181
-632.551	-78.651	0.313	0.107
-631.536	-91.863	-0.168	0.048
-630.522	-11.625	-0.258	-0.171
-629.507	-117.078	-0.228	0.042
-628.492	-200.000	0.050	-0.270
-627.478	163.620	0.109	-0.155
-626.463	1.650	0.329	0.238
-625.449	-101.344	0.344	0.084
-624.434	163.094	-0.057	0.080
-623.419	169.512	0.086	0.123
-622.405	-116.253	0.286	-0.053
-621.390	-16.073	-0.065	-0.041
-620.376	800.000	-0.127	0.436
-619.361	56.436	0.088	-0.086
-618.346	74.205	-0.062	0.066
-617.332	-200.000	-0.041	0.193
-616.317	28.592	0.135	-0.115
-615.303	409.920	0.153	-0.326
-614.288	-111.870	-0.215	-0.044
-613.273	-30.456	-0.259	0.147
-612.259	-73.725	0.203	-0.074
-611.244	74.668	0.081	0.085
-610.230	18.206	0.198	-0.159
-609.215	-59.003	0.352	0.153
-608.201	30.266	0.223	0.191
-607.186	-86.630	-0.403	0.124
-606.171	139.097	-0.095	-0.126
-605.157	-200.000	0.006	0.038
-604.142	771.634	-0.051	-0.139
-603.128	-119.629	-0.146	-0.025
-602.113	-200.000	0.010	-0.063
-601.098	-200.000	0.004	0.191
-600.084	-97.193	0.323	0.085
-599.069	-106.704	-0.241	-0.054
-598.055	-127.728	0.113	0.016
-597.040	-91.702	-0.205	-0.058
-596.025	-200.000	-0.013	-0.170
-595.011	-200.000	-0.048	-0.281
-593.996	-139.145	0.189	-0.021
-592.982	800.000	0.070	0.259
-591.967	-200.000	-0.013	0.179
-590.952	127.000	-0.185	-0.235
-589.938	-200.000	0.006	-0.234
-588.923	800.000	-0.033	-0.140
-587.909	-36.907	-0.201	-0.108
-586.894	20.678	-0.271	0.220
-585.879	-17.123	0.182	-0.115
-584.865	-28.796	-0.045	-0.026
-583.850	485.357	0.026	0.059
-582.836	670.435	0.123	0.321
-581.821	-104.039	0.495	0.116
-580.806	-200.000	-0.052	0.281
-579.792	525.086	-0.047	0.111
-578.777	-98.946	-0.340	0.086
-577.763	-200.000	0.030	-0.158
-576.748	-60.139	0.367	0.157
-575.733	-138.014	-0.392	-0.044
-574.719	119.535	-0.049	-0.061
-573.704	519.491	-0.064	0.150
-572.690	86.584	-0.076	0.084
-571.675	-103.482	0.256	0.060
-570.661	-82.060	0.105	0.034
-569.646	-71.593	-0.311	-0.117
-568.631	-151.296	-0.179	0.013
-567.617	-94.804	-0.330	-0.090
-566.602	57.345	-0.234	-0.229
-565.588	78.744	0.095	-0.101
-564.573	21.735	-0.059	-0.048
-563.558	4.793	0.199	0.146
-562.544	701.563	-0.074	0.196
-561.529	-200.000	0.037	0.199
-560.515	-166.716	-0.402	0.017
-559.500	-151.130	-0.345	0.026
-558.485	204.950	0.037	-0.057
-557.471	-21.394	-0.088	0.054
-556.456	800.000	0.036	0.151
-555.442	269.365	-0.096	0.169
-554.427	-54.150	0.219	-0.100
-553.412	-32.935	0.155	0.086
-552.398	302.269	-0.159	-0.294
-551.383	414.219	0.070	-0.150
-550.369	411.973	-0.057	0.120
-549.354	91.877	0.188	-0.212
-548.339	30.411	0.318	-0.272
-547.325	-117.277	0.360	0.066
-546.310	-200.000	0.086	0.442
-545.296	800.000	-0.075	0.300
-544.281	189.539	0.070	-0.106
-543.266	-105.303	0.185	0.042
-542.252	16.243	0.012	-0.009
-541.237	-107.878	-0.170	0.037
-540.223	800.000	0.030	-0.098
-539.208	-22.835	0.118	0.071
-538.193	-109.015	-0.317	-0.068
-537.179	-159.018	0.177	0.010
-536.164	-81.821	-0.115	0.038
-535.150	50.002	0.260	-0.246
-534.135	-79.587	0.288	-0.097
-533.121	800.000	-0.073	-0.206
-532.106	34.599	0.067	0.058
-531.091	229.045	-0.059	0.096
-530.077	-112.571	-0.121	0.024
-529.062	800.000	-0.133	0.544
-528.048	-200.000	-0.004	-0.091
-527.033	-24.792	0.237	-0.141
-526.018	-168.279	-0.133	-0.005
-525.004	137.550	0.176	0.231
-523.989	-92.526	0.148	-0.042
-522.975	-139.416	0.092	-0.010
-521.960	-73.883	0.101	0.037
-520.945	54.587	0.357	-0.344
-519.931	-192.167	0.197	-0.002
-518.916	11.519	-0.199	0.153
-517.902	-61.409	-0.197	0.083
-516.887	-111.063	-0.259	0.053
-515.872	-130.747	0.082	0.011
-514.858	119.588	-0.209	-0.259
-513.843	6.449	-0.218	0.162
-512.829	-200.000	0.012	0.598
-511.814	-200.000	-0.017	0.262
-510.799	-87.759	-0.211	-0.064
-509.785	454.107	-0.096	-0.213
-508.770	-48.474	0.051	-0.024
-507.756	-83.965	0.259	0.082
-506.741	399.509	-0.020	-0.042
-505.726	113.587	0.167	-0.203
-504.712	80.398	-0.162	-0.174
-503.697	-200.000	0.017	0.100
-502.683	-110.089	0.310	0.065
-501.668	-200.000	0.010	-0.113
-500.653	353.991	0.056	-0.112
-499.639	-12.319	0.112	0.073
-498.624	19.236	-0.199	-0.160
-497.610	-200.000	0.043	-0.274
-496.595	-162.325	0.160	0.008
-495.581	-44.080	0.222	0.111
-494.566	800.000	0.066	-0.218
-493.551	-200.000	0.010	0.253
-492.537	53.417	0.181	0.173
-491.522	6.689	-0.087	-0.065
-490.508	131.726	0.129	0.166
-489.493	613.273	0.088	-0.221
-488.478	-200.000	0.002	0.279
-487.464	236.297	0.108	0.178
-486.449	342.441	-0.013	-0.026
-485.435	527.293	-0.201	-0.473
-484.420	-173.742	0.236	-0.007
-483.405	135.583	0.108	-0.141
-482.391	-105.320	-0.508	-0.116
-481.376	133.701	0.179	-0.231
-480.362	-92.383	0.082	-0.023
-479.347	-151.682	-0.563	0.041
-478.332	-35.828	0.109	0.059
-477.318	800.000	-0.077	0.335
-476.303	-110.722	0.254	-0.052
-475.289	800.000	0.060	0.174
-474.274	-200.000	0.013	0.131
-473.259	-183.584	0.365	0.006
-472.245	-200.000	0.047	-0.390
-471.230	118.990	0.279	-0.345
-470.216	-90.287	0.470	0.136
-469.201	-200.000	-0.035	-0.275
-468.186	33.154	0.142	-0.123
-467.172	-16.994	-0.012	0.008
-466.157	-200.000	-0.005	0.332
-465.143	-86.523	0.177	0.054
-464.128	308.386	-0.082	-0.152
-463.113	124.675	0.154	-0.193
-462.099	-200.000	0.025	0.323
-461.084	-172.352	0.234	0.007
-460.070	-60.723	-0.225	-0.095
-459.055	-200.000	0.065	0.303
-458.040	-38.921	-0.120	0.063
-457.026	205.859	0.012	0.019
-456.011	-108.587	-0.552	0.118
-454.997	610.088	0.042	0.103
-453.982	-188.016	0.200	-0.003
-452.968	-97.863	0.234	-0.060
-451.953	105.260	-0.108	-0.127
-450.938	800.000	0.056	-0.234
-449.924	-74.863	0.200	-0.072
-448.909	179.855	-0.189	0.276
-447.895	-200.000	-0.020	0.283
-446.880	326.650	-0.116	0.222
-445.865	-38.160	0.143	0.075
-444.851	-138.718	-0.039	-0.004
-443.836	-84.004	-0.249	0.079
-442.822	229.653	-0.050	-0.081
-441.807	12.480	-0.115	0.089
-440.792	-200.000	-0.016	-0.089
-439.778	-83.994	-0.222	0.070
-438.763	-4.449	0.253	0.175
-437.749	-200.000	-0.010	0.088
-436.734	800.000	-0.038	-0.116
-435.719	-110.865	-0.325	0.067
-434.705	95.581	-0.217	0.247
-433.690	-200.000	-0.086	-0.566
-432.676	-123.432	-0.379	0.060
-431.661	-161.936	-0.187	0.009
-430.646	-102.035	0.308	0.074
-429.632	-181.851	-0.254	0.005
-428.617	101.491	-0.179	0.208
-427.603	504.748	0.100	0.230
-426.588	-200.000	0.029	0.254
-425.573	-106.724	0.385	0.085
-424.559	-200.000	0.001	-0.049
-423.544	-200.000	-0.017	-0.155
-422.530	-200.000	-0.024	-0.226
-421.515	-87.816	-0.053	0.016
-420.500	-122.879	0.231	-0.037
-419.486	-200.000	-0.003	-0.420
-418.471	-52.257	0.320	-0.148
-417.457	800.000	-0.085	-0.236
-416.442	-53.850	0.189	0.086
-415.428	-129.994	-0.328	-0.045
-414.413	10.871	0.258	-0.196
-413.398	506.848	0.101	-0.232
-412.384	314.109	0.088	-0.164
-411.369	-200.000	-0.019	-0.218
-410.355	436.520	-0.095	-0.205
-409.340	800.000	-0.074	-0.222
-408.325	-103.355	0.107	-0.025
-407.311	-97.583	0.219	0.057
-406.296	-200.000	0.029	-0.236
-405.282	37.124	-0.128	-0.113
-404.267	-200.000	-0.058	0.257
-403.252	635.102	0.089	0.225
-402.238	-90.118	-0.368	-0.107
-401.223	-88.019	-0.173	-0.052
-400.209	800.000	0.023	-0.085
-399.194	-91.094	0.360	0.103
-398.179	565.853	0.048	0.116
-397.165	-200.000	0.004	0.114
-396.150	800.000	0.084	0.339
-395.136	32.182	-0.151	0.130
-394.121	-64.409	0.020	-0.008
-393.106	270.409	0.048	0.084
-392.092	157.050	0.068	-0.094
-391.077	771.629	-0.098	0.267
-390.063	800.000	0.024	-0.089
-389.048	153.513	-0.065	-0.089
-388.033	173.400	-0.062	0.089
-387.019	-134.254	0.147	0.018
-386.004	-127.366	0.251	0.036
-384.990	-12.635	0.339	0.220
-383.975	652.178	-0.162	0.413
-382.960	-95.250	-0.127	-0.034
-381.946	651.370	-0.090	0.229
-380.931	515.425	-0.130	0.303
-379.917	-200.000	0.018	-0.094
-378.902	100.693	0.079	0.092
-377.888	800.000	0.076	-0.317
-376.873	-43.183	-0.229	-0.115
-375.858	-200.000	0.011	-0.307
-374.844	-129.737	-0.366	0.050
-373.829	-56.529	0.318	0.140
-372.815	-200.000	0.074	-0.333
-371.800	-53.856	-0.193	-0.088
-370.785	-200.000	-0.019	-0.117
-369.771	-200.000	-0.008	0.396
-368.756	227.518	0.117	0.189
-367.742	-200.000	0.074	0.346
-366.727	580.157	-0.112	0.272
-365.712	-200.000	0.006	0.175
-364.698	-200.000	-0.021	0.193
-363.683	-6.113	0.334	-0.227
-362.669	80.756	0.327	-0.350
-361.654	231.902	-0.081	0.132
-360.639	487.600	-0.085	-0.194
-359.625	32.809	-0.245	-0.210
-358.610	118.017	-0.131	0.161
-357.596	-173.434	-0.288	0.009
-356.581	-106.623	-0.294	-0.065
-355.566	-200.000	0.065	-0.431
-354.552	-200.000	-0.040	0.175
-353.537	344.201	0.070	-0.136
-352.523	303.048	0.131	-0.241
-351.508	-108.941	0.307	0.065
-350.493	800.000	-0.005	-0.016
-349.479	-200.000	-0.349	0.000
-348.464	-95.822	0.258	-0.068
-347.450	-0.443	-0.346	0.244
-346.435	34.838	0.059	-0.051
-345.420	-104.705	-0.221	0.051
-344.406	-103.205	-0.270	0.063
-343.391	155.638	0.177	-0.242
-342.377	-85.725	0.361	-0.111
-341.362	782.775	0.121	0.330
-340.348	-5.958	-0.159	-0.108
-339.333	800.000	-0.009	0.036
-338.318	800.000	-0.048	-0.175
-337.304	-151.583	0.148	0.011
-336.289	553.458	0.015	0.036
-335.275	61.417	-0.116	-0.115
-334.260	-200.000	0.015	0.318
-333.245	-113.053	-0.208	0.041
-332.231	800.000	0.044	-0.186
-331.216	394.106	0.063	-0.131
-330.202	-34.528	0.154	-0.084
-329.187	-65.104	-0.297	0.119
-328.172	-147.777	-0.271	0.023
-327.158	-18.022	-0.053	-0.033
-326.143	-76.604	-0.204	-0.071
-325.129	-200.000	0.027	0.227
-324.114	702.970	-0.144	0.377
-323.099	-127.912	-0.128	0.018
-322.085	-200.000	-0.018	0.324
-321.070	-200.000	-0.000	0.251
-320.056	225.945	-0.076	-0.123
-319.041	800.000	0.089	0.303
-318.026	-166.850	0.220	0.009
-317.012	-200.000	-0.019	0.251
-315.997	-200.000	-0.004	-0.074
-314.983	-200.000	-0.034	0.190
-313.968	-200.000	0.012	0.127
-312.953	-173.909	0.224	0.007
-311.939	-100.534	-0.503	-0.124
-310.924	-87.240	0.296	0.089
-309.910	800.000	0.029	-0.107
-308.895	166.268	0.264	-0.371
-307.880	31.931	-0.123	0.105
-306.866	28.496	0.187	-0.157
-305.851	39.773	0.114	-0.101
-304.837	-17.699	-0.385	-0.240
-303.822	65.706	-0.116	0.116
-302.807	30.380	-0.136	-0.115
-301.793	800.000	-0.067	-0.204
-300.778	269.355	0.047	-0.082
-299.764	-138.333	-0.124	-0.014
-298.749	36.009	0.057	-0.050
-297.735	-146.064	-0.234	-0.021
-296.720	-136.295	-0.094	0.011
-295.705	-31.675	0.089	-0.050
-294.691	-89.327	0.218	0.064
-293.676	80.175	-0.189	0.201
-292.662	-200.000	0.050	-0.331
-291.647	-105.113	0.333	-0.076
-290.632	136.944	0.169	-0.219
-289.618	-20.536	-0.217	0.132
-288.603	-45.873	0.101	-0.049
-287.589	800.000	-0.084	-0.249
-286.574	-154.339	-0.124	-0.008
-285.559	76.223	0.176	-0.185
-284.545	83.185	0.123	0.133
-283.530	-41.938	0.150	0.076
-282.516	19.825	0.083	0.066
-281.501	-65.225	-0.140	0.056
-280.486	-134.410	0.047	-0.006
-279.472	656.179	0.086	0.219
-278.457	800.000	0.077	0.285
-277.443	353.431	-0.113	-0.222
-276.428	8.024	-0.368	-0.274
-275.413	-200.000	0.029	0.177
-274.399	-38.894	0.067	0.035
-273.384	-123.547	-0.367	0.058
-272.370	800.000	0.083	-0.313
-271.355	-104.018	-0.339	0.078
-270.340	-200.000	-0.021	0.493
-269.326	-200.000	-0.002	0.163
-268.311	635.072	-0.037	0.093
-267.297	-200.000	-0.012	0.225
-266.282	-140.944	0.377	0.038
-265.267	398.174	-0.025	-0.051
-264.253	-152.143	-0.250	0.018
-263.238	125.703	-0.090	-0.113
-262.224	177.405	-0.216	0.311
-261.209	800.000	-0.052	-0.164
-260.195	157.056	0.105	-0.144
-259.180	247.998	0.155	-0.260
-258.165	51.538	-0.041	0.038
-257.151	32.854	-0.172	0.147
-256.136	-127.263	0.126	0.018
-255.122	8.139	-0.071	-0.053
-254.107	800.000	-0.095	-0.343
-253.092	800.000	0.106	-0.392
-252.078	387.800	-0.055	0.112
-251.063	66.854	-0.166	0.168
-250.049	151.387	0.112	0.152
-249.034	-53.127	0.318	-0.145
-248.019	17.991	-0.210	0.165
-247.005	-173.774	0.436	-0.013
-245.990	228.141	0.358	0.577
-244.976	-162.691	-0.366	0.018
-243.961	52.281	0.085	-0.080
-242.946	81.062	0.191	-0.204
-241.932	138.086	0.137	0.177
-240.917	800.000	0.036	0.110
-239.903	800.000	-0.088	0.311
-238.888	-125.690	-0.385	0.058
-237.873	759.335	-0.037	0.100
-236.859	405.250	-0.111	0.231
-235.844	800.000	-0.122	-0.364
-234.830	-75.611	0.337	-0.118
-233.815	-6.196	0.063	0.043
-232.800	40.558	-0.100	0.089
-231.786	-200.000	0.002	0.100
-230.771	128.279	-0.161	0.203
-229.757	-200.000	0.015	0.116
-228.742	23.701	0.190	0.155
-227.727	-200.000	-0.002	-0.156
-226.713	123.881	-0.183	0.227
-225.698	623.625	0.035	0.087
-224.684	-29.300	0.209	0.118
-223.669	362.682	-0.046	0.091
-222.655	-200.000	0.053	-0.376
-221.640	-200.000	0.062	-0.351
-220.625	-200.000	-0.011	0.052
-219.611	-200.000	-0.059	-0.344
-218.596	800.000	-0.096	0.265
-217.582	5.521	0.131	0.095
-216.567	-85.711	-0.147	-0.045
-215.552	-53.599	-0.212	-0.096
-214.538	310.152	0.112	-0.208
-213.523	800.000	0.030	-0.107
-212.509	-200.000	0.014	-0.176
-211.494	800.000	0.060	0.218
-210.479	800.000	-0.079	-0.279
-209.465	-89.211	-0.381	-0.111
-208.450	-146.887	0.168	-0.014
-207.436	244.160	-0.041	0.068
-206.421	-150.816	0.274	0.021
-205.406	800.000	-0.053	0.157
-204.392	-200.000	-0.032	-0.265
-203.377	211.224	-0.114	0.177
-202.363	-200.000	0.021	0.130
-201.348	-141.468	-0.343	0.034
-200.333	-37.787	0.152	0.080
-199.319	-133.990	-0.158	0.019
-198.304	800.000	0.053	-0.150
-197.290	-200.000	0.000	-0.314
-196.275	-50.805	0.226	-0.105
-195.260	800.000	-0.121	-0.358
-194.246	302.671	0.271	0.495
-193.231	-94.002	0.118	0.032
-192.217	385.544	-0.061	0.123
-191.202	800.000	0.030	-0.114
-190.187	-55.568	0.166	-0.073
-189.173	-32.931	-0.131	0.072
-188.158	800.000	-0.047	0.193
-187.144	218.337	-0.105	0.166
-186.129	800.000	0.015	-0.047
-185.114	-126.358	0.502	0.074
-184.100	168.988	0.140	-0.197
-183.085	252.993	-0.099	-0.167
-182.071	-108.693	-0.212	0.045
-181.056	57.555	0.198	-0.191
-180.042	-101.765	0.108	0.026
-179.027	545.567	-0.043	-0.100
-178.012	249.746	0.131	0.219
-176.998	-200.000	0.013	-0.210
-175.983	800.000	0.022	-0.089
-174.969	800.000	0.027	0.089
-173.954	-100.208	-0.065	0.016
-172.939	-91.928	-0.245	0.069
-171.925	158.394	0.016	0.022
-170.910	-200.000	-0.002	0.217
-169.896	541.124	-0.107	-0.251
-168.881	-66.251	0.058	0.023
-167.866	800.000	-0.076	-0.227
-166.852	800.000	-0.061	-0.255
-165.837	-74.751	-0.052	0.019
-164.823	-165.463	-0.084	0.004
-163.808	-139.635	-0.220	0.023
-162.793	-129.878	-0.272	-0.037
-161.779	449.538	-0.108	0.236
-160.764	800.000	-0.061	-0.217
-159.750	-57.823	0.208	-0.090
-158.735	-50.428	0.139	-0.065
-157.720	187.216	-0.173	0.255
-156.706	-24.487	0.113	0.067
-155.691	-200.000	0.066	0.306
-154.677	-17.683	-0.111	0.069
-153.662	46.317	-0.068	-0.062
-152.647	-200.000	0.020	-0.574
-151.633	-65.401	-0.051	0.020
-150.618	-200.000	0.041	0.277
-149.604	800.000	-0.063	0.267
-148.589	217.199	-0.078	-0.123
-147.574	-200.000	-0.026	0.129
-146.560	131.608	0.210	0.267
-145.545	-200.000	0.032	-0.145
-144.531	49.075	0.159	-0.147
-143.516	-83.317	-0.294	-0.093
-142.502	-79.861	-0.089	-0.029
-141.487	800.000	-0.101	0.304
-140.472	180.138	0.126	-0.182
-139.458	-200.000	0.001	-0.049
-138.443	-4.261	0.135	0.092
-137.429	-179.175	0.117	-0.003
-136.414	111.877	0.016	-0.020
-135.399	31.288	-0.148	0.125
-134.385	22.989	0.138	-0.111
-133.370	-0.918	0.301	0.210
-132.356	-6.066	0.198	-0.133
-131.341	-86.998	-0.167	0.050
-130.326	-46.297	0.139	0.067
-129.312	253.563	0.115	-0.194
-128.297	146.792	-0.298	-0.395
-127.283	225.577	0.097	-0.155
-126.268	-200.000	0.150	0.000
-125.253	-127.144	-0.221	-0.032
-124.239	327.012	-0.015	-0.028
-123.224	235.789	0.178	0.291
-122.210	-200.000	-0.002	-0.268
-121.195	-24.052	-0.173	-0.102
-120.180	67.521	-0.035	-0.035
-119.166	-144.714	0.180	0.016
-118.151	26.252	-0.020	-0.016
-117.137	799.499	-0.051	-0.138
-116.122	-84.567	0.163	0.051
-115.107	79.468	0.232	0.245
-114.093	-200.000	-0.072	-0.000
-113.078	-87.050	0.243	-0.073
-112.064	-10.816	-0.205	-0.133
-111.049	800.000	0.013	-0.048
-110.034	800.000	-0.043	0.173
-109.020	61.339	-0.153	0.149
-108.005	80.357	0.252	0.267
-106.991	-53.446	0.160	0.072
-105.976	347.080	-0.065	-0.126
-104.962	800.000	-0.103	0.330
-103.947	-8.514	0.353	0.233
-102.932	-59.339	0.056	0.024
-101.918	-200.000	0.011	-0.448
-100.903	165.996	0.114	-0.158
-99.889	412.487	0.022	-0.046
-98.874	-200.000	-0.001	0.223
-97.859	-69.981	0.153	-0.057
-96.845	-200.000	0.026	-0.192
-95.830	-119.021	-0.171	0.029
-94.816	-38.641	0.251	-0.130
-93.801	-187.845	-0.309	-0.004
-92.786	-200.000	0.008	-0.106
-91.772	800.000	0.047	-0.162
-90.757	73.696	0.277	-0.286
-89.743	-200.000	0.036	0.268
-88.728	703.872	-0.019	-0.048
-87.713	-174.269	0.199	0.006
-86.699	279.582	0.062	-0.110
-85.684	364.631	0.048	-0.096
-84.670	454.911	-0.074	0.162
-83.655	53.723	0.159	0.150
-82.640	-67.390	0.215	-0.083
-81.626	-200.000	0.004	-0.224
-80.611	191.035	0.129	-0.191
-79.597	5.053	0.127	-0.092
-78.582	-123.750	0.170	-0.026
-77.567	-139.776	-0.098	-0.010
-76.553	41.114	0.230	0.204
-75.538	-186.246	-0.257	-0.004
-74.524	27.378	0.093	0.077
-73.509	146.949	-0.234	0.310
-72.494	-200.000	-0.044	0.445
-71.480	-80.759	-0.517	0.169
-70.465	-200.000	-0.025	-0.200
-69.451	284.922	-0.101	-0.179
-68.436	-130.387	0.212	-0.028
-67.422	-136.596	0.203	-0.023
-66.407	-200.000	0.007	0.103
-65.392	-47.822	-0.102	0.049
-64.378	-200.000	0.002	0.143
-63.363	-67.180	-0.279	0.108
-62.349	800.000	0.060	0.177
-61.334	34.741	-0.965	-0.829
-60.319	66.608	0.507	0.507
-59.305	800.000	-0.360	-1.108
-58.290	238.691	0.817	1.334
-57.276	800.000	0.439	1.398
-56.261	-200.000	102.592	592.165
-55.246	554.735	1434.986	3392.574
-54.232	187.422	2622.318	3843.701
-53.217	116.043	2167.539	2607.348
-52.203	41.342	1695.653	1506.698
-51.188	33.746	1505.518	1286.465
-50.173	31.293	1478.561	1247.025
-49.159	52.055	1531.899	1433.643
-48.144	53.052	1549.339	1456.685
-47.130	34.020	1506.439	1288.904
-46.115	30.803	1491.954	1254.818
-45.100	30.596	1488.472	1250.450
-44.086	30.570	1486.562	1248.623
-43.071	30.588	1484.484	1246.948
-42.057	30.482	1482.875	1244.838
-41.042	30.515	1481.098	1243.511
-40.027	30.532	1479.703	1242.408
-39.013	30.602	1478.089	1241.472
-37.998	30.461	1477.130	1239.674
-36.984	30.478	1475.598	1238.453
-35.969	30.434	1474.416	1237.122
-34.954	30.514	1473.196	1236.578
-33.940	30.503	1471.678	1235.183
-32.925	30.592	1469.958	1234.281
-31.911	30.600	1469.006	1233.485
-30.896	30.594	1467.691	1232.290
-29.881	30.705	1466.460	1231.946
-28.867	30.653	1465.334	1230.606
-27.852	30.597	1463.515	1228.658
-26.838	30.694	1462.176	1228.129
-25.823	30.703	1460.076	1226.372
-24.809	30.666	1458.616	1224.856
-23.794	30.611	1457.907	1223.847
-22.779	30.683	1456.470	1223.068
-21.765	30.665	1455.564	1222.141
-20.750	30.543	1454.887	1220.726
-19.736	30.615	1453.228	1219.752
-18.721	30.571	1452.374	1218.703
-17.706	30.572	1451.498	1217.925
-16.692	30.596	1450.066	1216.829
-15.677	30.595	1449.098	1215.960
-14.663	30.506	1448.299	1214.661
-13.648	30.525	1447.211	1213.829
-12.633	30.616	1446.618	1213.874
-11.619	30.624	1445.307	1212.781
-10.604	30.568	1444.480	1211.673
-9.590	30.596	1443.487	1210.972
-8.575	30.599	1442.709	1210.291
-7.560	30.602	1441.819	1209.517
-6.546	30.555	1441.021	1208.497
-5.531	30.453	1440.630	1207.454
-4.517	30.463	1439.846	1206.812
-3.502	30.507	1438.601	1206.009
-2.487	30.450	1437.797	1204.918
-1.473	30.425	1436.466	1203.591
-0.458	30.586	1434.728	1203.131
0.556	29.387	1425.560	1192.189
1.571	26.616	1400.798	1153.750
2.586	23.325	1343.010	1085.917
3.600	21.736	1263.343	1012.237
4.615	20.423	1217.683	968.253
5.629	17.974	1162.171	910.984
6.644	10.869	1080.750	811.725
7.659	5.565	1042.541	757.355
8.673	4.807	1037.402	749.904
9.688	4.858	1033.558	747.306
10.702	4.686	1032.334	745.528
11.717	4.660	1030.803	744.233
12.731	6.757	1032.273	755.268
13.746	13.394	1041.262	793.711
14.761	18.284	1047.030	821.564
15.775	18.453	1046.305	821.735
16.790	17.390	1044.139	814.871
17.804	16.312	1042.083	808.039
18.819	15.429	1040.152	802.251
19.834	15.032	1038.751	799.204
20.848	14.720	1037.922	797.005
21.863	14.501	1036.957	795.148
22.877	14.361	1036.124	793.771
23.892	14.148	1035.343	792.090
24.907	14.118	1034.607	791.313
25.921	14.121	1033.984	790.783
26.936	14.028	1033.111	789.604
27.950	14.147	1032.294	789.476
28.965	14.135	1031.026	788.378
29.980	14.290	1029.885	788.167
30.994	14.277	1028.768	787.182
32.009	14.294	1027.930	786.552
33.023	14.317	1027.562	786.308
34.038	14.382	1026.451	785.697
35.053	14.238	1025.825	784.471
36.067	14.323	1024.365	783.682
37.082	14.126	1024.089	782.476
38.096	14.075	1023.212	781.496
39.111	14.234	1022.557	781.675
40.126	14.358	1021.150	781.111
41.140	14.298	1019.970	779.857
42.155	14.170	1019.019	778.461
43.169	14.016	1018.048	776.934
44.184	13.862	1017.130	775.443
45.199	13.977	1015.702	774.822
46.213	13.916	1015.167	774.062
47.228	14.013	1014.445	773.896
48.242	13.988	1013.423	772.929
49.257	14.093	1012.206	772.422
50.271	14.153	1011.475	772.073
51.286	14.107	1010.788	771.268
52.301	14.242	1010.023	771.241
53.315	14.168	1009.051	770.089
54.330	14.234	1008.059	769.567
55.344	14.123	1007.051	768.220
56.359	14.191	1005.664	767.408
57.374	14.040	1005.195	766.283
58.388	14.032	1004.642	765.760
59.403	13.975	1003.655	764.674
60.417	13.921	1003.034	763.887
61.432	13.979	1002.567	763.728
62.447	14.084	1001.689	763.476
63.461	13.857	1000.578	761.519
64.476	13.877	999.913	761.040
65.490	13.841	999.089	760.177
66.505	13.912	997.872	759.513
67.520	13.933	996.891	758.795
68.534	13.884	996.680	758.343
69.549	13.989	995.760	758.051
70.563	13.847	995.331	757.011
71.578	13.871	994.153	756.161
72.593	13.815	993.691	755.487
73.607	13.792	992.345	754.292
74.622	13.774	991.609	753.581
75.636	13.718	990.589	752.487
76.651	13.672	990.033	751.788
77.666	13.759	988.987	751.323
78.680	13.831	988.657	751.330
79.695	13.760	988.408	750.756
80.709	13.949	987.323	750.717
81.724	13.862	986.480	749.619
82.739	14.080	985.496	749.789
83.753	14.096	985.026	749.437
84.768	14.131	984.441	749.082
85.782	14.114	983.971	748.581
86.797	14.273	983.085	748.555
87.812	14.257	982.316	747.831
88.826	14.157	981.744	746.879
89.841	14.186	980.397	745.918
90.855	14.204	979.685	745.393
91.870	14.247	979.139	745.102
92.884	14.377	978.402	745.060
93.899	14.278	977.520	743.878
94.914	14.212	977.089	743.191
95.928	14.387	976.310	743.314
96.943	14.342	975.233	742.228
97.957	14.290	974.824	741.617
98.972	14.496	973.648	741.575
99.987	14.208	973.387	740.032
101.001	14.309	972.437	739.691
102.016	14.371	971.670	739.316
103.030	14.345	970.704	738.403
104.045	14.320	969.839	737.566
105.060	14.212	968.989	736.378
106.074	14.310	967.794	735.836
107.089	14.080	967.259	734.348
108.103	13.914	966.099	732.671
109.118	13.925	965.542	732.231
110.133	14.051	964.562	731.979
111.147	13.929	963.748	730.762
112.162	13.932	963.019	730.154
113.176	13.840	962.392	729.213
114.191	14.091	961.219	729.360
115.206	14.144	960.349	728.865
116.220	13.984	959.636	727.562
117.235	14.003	959.376	727.383
118.249	14.001	958.491	726.638
119.264	13.985	957.583	725.814
120.279	13.999	956.359	724.884
121.293	13.890	956.044	724.108
122.308	14.027	955.360	724.123
123.322	13.971	954.454	723.129
124.337	13.908	953.060	721.734
125.352	13.821	951.821	720.355
126.366	13.834	950.773	719.554
127.381	13.992	950.140	719.694
128.395	13.978	948.705	718.485
129.410	13.914	948.142	717.715
130.424	14.021	947.220	717.418
131.439	13.955	946.498	716.523
132.454	14.070	945.686	716.343
133.468	14.107	944.822	715.783
134.483	14.175	944.304	715.619
135.497	14.026	943.454	714.269
136.512	14.041	943.219	714.094
137.527	14.008	942.275	713.173
138.541	14.193	941.023	712.956
139.556	14.133	940.815	712.477
140.570	14.071	940.222	711.701
141.585	14.143	939.204	711.177
142.600	14.307	938.725	711.449
143.614	14.296	937.689	710.556
144.629	14.313	936.907	709.976
145.643	14.327	936.645	709.770
146.658	14.363	935.607	709.073
147.673	14.313	934.625	708.056
148.687	14.226	933.875	707.054
149.702	14.141	932.887	705.883
150.716	14.110	932.352	705.285
151.731	14.122	931.378	704.538
152.746	14.066	930.726	703.745
153.760	14.077	930.213	703.339
154.775	14.107	929.640	702.971
155.789	14.253	928.828	702.914
156.804	14.394	927.605	702.517
157.819	14.365	927.093	701.946
158.833	14.404	926.180	701.356
159.848	14.515	925.723	701.418
160.862	14.362	925.503	700.543
161.877	14.316	924.993	699.904
162.892	14.160	923.975	698.417
163.906	14.155	922.622	697.312
164.921	14.281	921.860	697.202
165.935	14.228	920.880	696.178
166.950	14.305	919.714	695.556
167.964	14.320	919.105	695.094
168.979	14.486	917.768	694.714
169.994	14.342	917.204	693.628
171.008	14.231	915.997	692.192
172.023	14.336	915.298	692.037
173.037	14.465	914.554	691.951
174.052	14.434	914.218	691.507
175.067	14.594	912.962	691.157
176.081	14.280	912.940	689.777
177.096	14.252	911.676	688.648
178.110	14.202	911.175	688.001
179.125	14.376	910.099	687.847
180.140	14.354	909.188	687.004
181.154	14.378	908.633	686.626
182.169	14.351	908.445	686.308
183.183	14.515	907.566	686.260
184.198	14.430	906.927	685.368
185.213	14.528	906.200	685.159
186.227	14.521	905.648	684.652
187.242	14.534	905.083	684.216
188.256	14.579	904.711	684.062
189.271	14.688	903.536	683.557
190.286	14.747	903.120	683.424
191.300	14.556	902.173	681.867
192.315	14.334	901.208	680.171
193.329	14.268	900.409	679.237
194.344	14.363	899.664	679.002
195.359	14.458	899.079	678.888
196.373	14.449	899.228	678.904
197.388	14.606	898.496	678.933
198.402	14.780	897.922	679.146
199.417	14.745	897.590	678.689
200.432	14.941	897.154	679.095
201.446	14.818	896.664	678.166
202.461	15.112	896.021	678.811
203.475	14.851	896.136	677.780
204.490	14.912	895.236	677.289
205.504	14.887	893.829	676.061
206.519	14.840	893.509	675.571
207.534	14.734	893.257	674.890
208.548	14.895	892.227	674.704
209.563	14.854	891.401	673.854
210.577	14.828	890.776	673.217
211.592	14.773	890.197	672.498
212.607	14.864	889.846	672.541
213.621	14.947	889.139	672.279
214.636	14.913	888.712	671.760
215.650	14.844	887.968	670.862
216.665	15.032	887.001	670.826
217.680	15.028	886.612	670.456
218.694	15.034	886.480	670.321
219.709	15.028	885.984	669.864
220.723	15.156	885.008	669.576
221.738	15.171	884.214	668.978
222.753	15.015	883.936	668.084
223.767	15.047	882.912	667.378
224.782	15.051	882.249	666.833
225.796	15.194	881.621	666.870
226.811	15.179	881.185	666.422
227.826	15.040	880.377	665.199
228.840	15.074	879.791	664.833
229.855	15.212	878.718	664.511
230.869	15.042	878.478	663.598
231.884	15.091	877.791	663.212
232.899	15.094	877.358	662.841
233.913	15.054	876.492	661.969
234.928	15.153	875.582	661.612
235.942	14.952	874.706	660.098
236.957	15.029	874.139	659.918
237.972	15.100	873.411	659.590
238.986	15.016	873.040	658.919
240.001	15.145	871.901	658.509
241.015	15.084	872.020	658.301
242.030	15.164	871.224	657.955
243.045	15.173	870.477	657.369
244.059	15.138	870.104	656.890
245.074	15.237	869.137	656.492
246.088	15.290	868.647	656.271
247.103	15.198	868.345	655.625
248.117	15.229	867.596	655.124
249.132	15.338	866.937	654.993
250.147	15.497	866.593	655.293
251.161	15.692	865.893	655.468
252.176	15.728	865.142	654.983
253.190	15.935	864.330	655.113
254.205	15.669	864.355	654.040
255.220	15.751	863.716	653.818
256.234	15.761	862.989	653.246
257.249	15.781	862.568	652.949
258.263	15.677	862.091	652.126
259.278	15.700	861.551	651.750
260.293	15.749	860.916	651.402
261.307	15.846	860.057	651.069
262.322	15.787	859.890	650.659
263.336	15.985	859.070	650.743
264.351	15.879	858.668	649.971
265.366	15.773	858.128	649.099
266.380	15.988	857.191	649.158
267.395	16.027	856.480	648.712
268.409	15.823	856.132	647.608
269.424	15.712	855.300	646.492
270.439	15.939	854.307	646.557
271.453	15.883	853.598	645.751
272.468	15.793	852.920	644.836
273.482	15.956	852.313	644.945
274.497	15.868	852.115	644.399
275.512	15.921	851.334	643.954
276.526	15.772	850.663	642.820
277.541	15.868	850.019	642.642
278.555	15.932	849.374	642.345
279.570	15.989	848.911	642.152
280.585	16.060	848.250	641.866
281.599	16.111	847.718	641.601
282.614	16.096	847.260	641.141
283.628	15.929	846.672	640.004
284.643	15.966	846.300	639.807
285.657	15.978	845.637	639.296
286.672	16.062	845.145	639.187
287.687	16.027	844.799	638.734
288.701	16.071	844.266	638.443
289.716	16.166	843.276	637.997
290.730	15.993	842.852	636.964
291.745	16.079	842.452	636.929
292.760	16.187	841.804	636.792
293.774	16.160	841.399	636.329
294.789	16.278	840.448	635.997
295.803	16.258	839.903	635.454
296.818	16.174	839.248	634.585
297.833	16.265	838.505	634.308
298.847	16.164	837.891	633.407
299.862	16.159	837.361	632.932
300.876	16.282	836.673	632.820
301.891	16.250	836.194	632.281
302.906	16.094	835.559	631.160
303.920	16.480	834.565	631.796
304.935	16.637	833.445	631.478
305.949	16.509	833.653	631.103
306.964	16.519	832.689	630.354
307.979	16.326	832.279	629.271
308.993	16.326	831.779	628.835
310.008	16.521	831.219	629.082
311.022	16.496	830.743	628.575
312.037	16.567	830.364	628.495
313.052	16.459	829.690	627.527
314.066	16.350	829.464	626.896
315.081	16.386	828.190	626.013
316.095	16.472	827.772	625.959
317.110	16.317	827.425	625.067
318.125	16.573	826.803	625.489
319.139	16.314	826.471	624.225
320.154	16.321	826.084	623.903
321.168	16.578	825.343	624.236
322.183	16.495	824.768	623.442
323.197	16.488	824.590	623.225
324.212	16.655	823.848	623.226
325.227	16.550	823.118	622.231
326.241	16.498	822.994	621.891
327.256	16.590	822.030	621.446
328.270	16.455	821.642	620.600
329.285	16.628	821.102	620.775
330.300	16.339	820.678	619.337
331.314	16.418	820.020	619.077
332.329	16.572	819.332	619.067
333.343	16.637	818.666	618.744
334.358	16.632	818.549	618.584
335.373	16.604	817.749	617.821
336.387	16.598	817.352	617.448
337.402	16.817	816.740	617.729
338.416	16.867	816.489	617.664
339.431	16.712	815.908	616.608
340.446	17.057	815.011	617.127
341.460	16.927	814.463	616.188
342.475	16.858	814.060	615.575
343.489	16.818	813.866	615.232
344.504	17.034	813.363	615.578
345.519	17.075	812.710	615.181
346.533	17.143	811.752	614.645
347.548	17.052	811.600	614.146
348.562	16.909	811.052	613.159
349.577	16.848	810.642	612.578
350.592	16.831	810.121	612.066
351.606	16.883	809.414	611.667
352.621	16.822	809.016	611.092
353.635	16.735	808.823	610.579
354.650	16.910	808.373	610.815
355.665	17.032	807.537	610.568
356.679	17.060	807.349	610.473
357.694	16.929	807.193	609.830
358.708	17.078	806.265	609.610
359.723	17.161	805.108	608.977
360.738	17.065	804.928	608.443
361.752	17.203	804.655	608.677
362.767	16.948	804.766	607.794
363.781	17.070	803.932	607.549
364.796	17.388	803.399	608.227
365.810	17.384	802.590	607.549
366.825	17.274	802.537	607.063
367.840	17.352	802.470	607.236
368.854	17.395	801.940	606.933
369.869	17.326	801.339	606.180
370.883	17.340	800.814	605.779
371.898	17.349	800.236	605.319
372.913	17.450	799.721	605.236
373.927	17.438	799.040	604.624
374.942	17.402	798.493	604.030
375.956	17.357	797.809	603.297
376.971	17.470	797.557	603.453
377.986	17.504	796.679	602.859
379.000	17.767	796.224	603.391
380.015	17.611	796.038	602.647
381.029	17.633	795.124	601.977
382.044	17.697	794.518	601.692
383.059	17.666	794.127	601.233
384.073	17.647	793.745	600.824
385.088	17.558	793.281	600.103
386.102	17.545	792.860	599.689
387.117	17.436	791.967	598.577
388.132	17.586	791.553	598.736
389.146	17.560	791.536	598.579
390.161	17.700	791.163	598.738
391.175	17.640	790.393	597.889
392.190	17.591	790.109	597.450
393.205	17.768	789.600	597.635
394.219	17.640	789.270	596.883
395.234	17.588	789.051	596.481
396.248	17.670	787.746	595.731
397.263	17.672	787.517	595.509
398.278	17.561	786.894	594.600
399.292	17.525	786.567	594.173
400.307	17.540	786.602	594.200
401.321	17.501	786.190	593.699
402.336	17.615	785.367	593.422
403.350	17.658	784.959	593.212
404.365	17.692	784.540	592.961
405.380	17.623	784.546	592.673
406.394	17.918	783.747	593.043
407.409	17.808	784.070	592.853
408.423	17.885	783.493	592.631
409.438	17.912	783.158	592.418
410.453	17.899	782.418	591.762
411.467	17.927	781.782	591.324
412.482	18.048	781.122	591.193
413.496	18.118	780.942	591.246
414.511	17.858	780.975	590.320
415.526	18.082	780.417	590.619
416.540	18.115	779.699	590.136
417.555	18.145	779.292	589.879
418.569	18.061	778.904	589.244
419.584	18.125	778.443	589.065
420.599	18.189	778.076	588.954
421.613	157.138	1369.446	1796.526
422.628	135.565	1455.590	1796.607
