DTS Sentinel unit serial number:	SN413079Multiplexer serial number:	ORYXHardware model number:	OX4-SRSoftware version number:	ORYX F/W v4.00 Oryx Data Collector v3.7.2.0data status	okinstallation	princeton_trtdifferential loss correction	single-endedforward channel	channel 3reverse channel	N/Adate	2019/09/12time	16:42:10forward acquisition time	60.00reverse acquisition time	0.00gamma	496.2192k internal	0.2307k external	0.2307temperature offset calibration	1.0081default loss term (dB/km)	0.3790temperature slope calibration	1.0000multiplexer offset coefficient	1.0000multiplexer slope coefficient	1.0000fibre end	0.00T internal ref (°C)	36.64T ext. ref 1 (°C)	2.74T ext. ref 2 (°C)	29.67length (m)	temperature (°C)	Stokes	anti-Stokes-747.200	-200.000	-0.045	0.401
-746.185	434.354	0.130	0.286
-745.171	333.124	0.144	0.284
-744.156	800.000	-0.070	0.222
-743.142	-51.640	-0.154	0.073
-742.127	347.294	-0.110	0.220
-741.112	-73.133	-0.381	-0.142
-740.098	-200.000	-0.091	0.491
-739.083	-33.246	-0.137	-0.077
-738.069	271.620	-0.173	0.310
-737.054	799.220	0.096	-0.268
-736.039	-59.545	-0.250	0.109
-735.025	22.740	-0.107	0.089
-734.010	-142.164	0.090	0.009
-732.996	-37.876	-0.367	-0.198
-731.981	-167.316	-0.151	-0.006
-730.966	26.006	0.146	0.124
-729.952	-164.828	-0.136	-0.006
-728.937	2.116	0.090	-0.066
-727.923	-150.557	-0.186	-0.014
-726.908	0.767	0.220	-0.160
-725.894	-200.000	0.004	0.077
-724.879	-200.000	-0.008	-0.142
-723.864	-17.616	-0.380	-0.242
-722.850	-200.000	-0.049	-0.305
-721.835	-45.819	0.079	-0.040
-720.821	69.655	0.308	-0.322
-719.806	-200.000	0.032	0.204
-718.791	-108.363	0.045	0.010
-717.777	800.000	-0.050	-0.204
-716.762	800.000	-0.048	0.187
-715.748	-114.297	0.090	-0.018
-714.733	333.078	0.136	-0.267
-713.718	270.226	0.158	-0.282
-712.704	-168.118	0.168	-0.007
-711.689	800.000	-0.034	-0.148
-710.675	-22.487	-0.172	-0.106
-709.660	-11.118	-0.076	-0.051
-708.645	-6.798	-0.186	-0.128
-707.631	322.225	0.084	0.163
-706.616	52.208	-0.087	0.084
-705.602	454.718	0.072	-0.162
-704.587	36.188	0.181	-0.162
-703.572	-120.239	-0.127	-0.022
-702.558	-11.845	-0.225	-0.150
-701.543	-58.288	0.098	0.043
-700.529	-41.472	-0.169	-0.088
-699.514	39.522	0.052	-0.048
-698.499	-200.000	-0.021	0.134
-697.485	800.000	-0.041	-0.174
-696.470	-200.000	-0.039	-0.320
-695.456	800.000	-0.024	-0.079
-694.441	-150.035	0.120	-0.009
-693.426	8.859	0.105	-0.080
-692.412	-80.598	0.146	-0.049
-691.397	169.324	-0.045	-0.066
-690.383	177.709	-0.061	-0.090
-689.368	-200.000	0.013	-0.134
-688.354	-161.357	-0.259	-0.014
-687.339	-88.866	0.123	-0.037
-686.324	-67.515	0.205	-0.082
-685.310	-135.105	0.139	0.017
-684.295	236.898	0.157	-0.263
-683.281	26.850	0.116	-0.098
-682.266	-17.929	-0.176	-0.112
-681.251	-81.415	0.076	0.026
-680.237	-94.557	-0.215	0.059
-679.222	-200.000	0.028	0.206
-678.208	-80.143	0.088	-0.030
-677.193	-43.822	0.240	-0.122
-676.178	493.781	-0.139	-0.322
-675.164	-107.471	0.117	-0.026
-674.149	-4.211	-0.244	0.171
-673.135	194.604	0.085	0.131
-672.120	142.585	-0.081	0.108
-671.105	-46.762	-0.154	-0.076
-670.091	-88.992	0.184	-0.055
-669.076	-47.538	-0.186	0.091
-668.062	7.303	0.134	0.102
-667.047	15.798	-0.101	-0.081
-666.032	35.741	0.099	0.088
-665.018	-82.072	-0.174	0.057
-664.003	-90.939	0.224	0.065
-662.989	-12.848	0.242	0.160
-661.974	-92.078	0.064	-0.018
-660.959	103.196	0.191	0.227
-659.945	-0.680	-0.194	0.139
-658.930	544.161	-0.037	-0.090
-657.916	-104.007	0.181	0.043
-656.901	-151.503	0.200	0.015
-655.886	-4.059	0.192	-0.135
-654.872	419.475	0.066	-0.144
-653.857	-18.146	0.174	0.111
-652.843	42.603	-0.184	-0.170
-651.828	105.510	-0.041	0.049
-650.814	202.392	0.042	-0.065
-649.799	-135.815	0.260	0.031
-648.784	800.000	0.158	-0.607
-647.770	432.342	0.116	0.255
-646.755	346.716	-0.107	-0.213
-645.741	144.957	-0.107	0.145
-644.726	-87.884	-0.273	-0.083
-643.711	-16.619	-0.145	0.093
-642.697	-200.000	-0.005	-0.115
-641.682	253.241	-0.166	-0.286
-640.668	23.183	0.209	0.174
-639.653	-42.704	-0.381	-0.196
-638.638	-200.000	-0.018	0.125
-637.624	-66.719	-0.259	-0.104
-636.609	-76.411	0.083	0.029
-635.595	800.000	0.133	0.391
-634.580	-200.000	-0.070	0.337
-633.565	-64.969	0.036	-0.015
-632.551	-147.324	-0.117	-0.010
-631.536	-94.234	0.143	0.039
-630.522	141.012	0.096	-0.128
-629.507	-200.000	-0.039	-0.236
-628.492	-200.000	-0.000	-0.081
-627.478	92.997	0.122	-0.139
-626.463	-88.449	0.411	-0.124
-625.449	-84.017	-0.099	0.032
-624.434	-70.763	-0.043	-0.016
-623.419	207.204	-0.036	0.058
-622.405	108.618	0.107	-0.129
-621.390	-65.951	-0.180	0.073
-620.376	266.278	0.099	0.175
-619.361	474.545	-0.017	0.039
-618.346	-120.461	-0.222	0.038
-617.332	126.915	0.058	0.074
-616.317	27.934	-0.215	-0.184
-615.303	-146.437	0.217	0.019
-614.288	-154.667	0.244	-0.016
-613.273	-61.259	-0.295	0.126
-612.259	-19.407	0.071	0.044
-611.244	-164.014	-0.092	0.004
-610.230	-183.788	0.261	0.004
-609.215	111.303	-0.241	-0.294
-608.201	800.000	0.059	-0.257
-607.186	-81.416	0.107	-0.036
-606.171	-59.318	-0.143	0.062
-605.157	152.202	-0.145	-0.200
-604.142	69.395	0.119	0.124
-603.128	-102.084	-0.351	-0.086
-602.113	536.244	0.133	-0.319
-601.098	-98.214	0.125	0.032
-600.084	-76.537	-0.220	-0.078
-599.069	-57.020	-0.139	-0.062
-598.055	-37.031	-0.141	0.076
-597.040	-200.000	-0.003	0.065
-596.025	428.866	-0.048	-0.105
-595.011	30.950	-0.195	-0.169
-593.996	-132.012	-0.549	0.072
-592.982	175.205	-0.163	0.239
-591.967	800.000	0.147	0.434
-590.952	20.461	0.151	0.123
-589.938	417.464	-0.047	-0.101
-588.923	-90.968	0.296	0.086
-587.909	800.000	-0.028	-0.081
-586.894	14.417	0.172	-0.136
-585.879	75.887	0.219	-0.234
-584.865	-200.000	0.044	0.197
-583.850	26.994	0.095	-0.081
-582.836	-114.857	-0.470	0.090
-581.821	-64.364	-0.405	-0.166
-580.806	22.113	-0.058	-0.048
-579.792	593.836	-0.123	0.307
-578.777	150.671	-0.164	-0.226
-577.763	614.698	-0.179	0.452
-576.748	800.000	-0.068	0.234
-575.733	-40.753	-0.106	-0.055
-574.719	129.664	0.061	-0.078
-573.704	31.788	0.231	0.201
-572.690	285.946	-0.033	0.060
-571.675	-117.468	-0.153	-0.028
-570.661	318.707	0.062	-0.119
-569.646	-54.883	0.289	0.132
-568.631	-63.491	0.115	0.048
-567.617	117.620	-0.197	0.244
-566.602	-64.155	0.208	0.086
-565.588	664.619	0.051	-0.132
-564.573	563.210	-0.032	0.079
-563.558	78.995	-0.071	0.077
-562.544	-81.658	-0.089	-0.030
-561.529	-1.593	-0.369	0.262
-560.515	10.287	-0.199	0.153
-559.500	27.348	0.138	-0.117
-558.485	-62.787	-0.506	0.211
-557.471	272.976	0.208	-0.372
-556.456	17.677	0.080	0.064
-555.442	-48.566	-0.177	-0.086
-554.427	-200.000	0.030	-0.171
-553.412	-106.700	0.075	-0.017
-552.398	65.030	0.208	0.212
-551.383	730.815	0.099	-0.267
-550.369	506.630	0.131	-0.306
-549.354	212.233	0.010	-0.016
-548.339	715.648	-0.029	-0.077
-547.325	-41.091	-0.227	-0.118
-546.310	800.000	-0.095	-0.269
-545.296	460.695	0.108	0.242
-544.281	52.860	0.060	-0.058
-543.266	800.000	0.094	0.320
-542.252	800.000	-0.051	0.223
-541.237	172.085	-0.134	0.195
-540.223	47.622	0.083	-0.078
-539.208	800.000	-0.068	0.248
-538.193	800.000	-0.059	-0.201
-537.179	453.137	-0.023	0.051
-536.164	-98.510	0.036	0.009
-535.150	82.327	-0.212	-0.232
-534.135	413.404	-0.141	0.302
-533.121	494.397	-0.121	0.281
-532.106	-157.217	-0.090	0.006
-531.091	295.706	0.105	-0.194
-530.077	800.000	-0.030	0.097
-529.062	-0.625	-0.139	0.099
-528.048	-133.006	0.256	0.033
-527.033	-39.853	-0.213	-0.112
-526.018	327.660	0.131	-0.253
-525.004	-200.000	-0.036	-0.411
-523.989	34.209	0.294	-0.259
-522.975	189.254	-0.010	-0.016
-521.960	-153.672	0.071	0.005
-520.945	797.605	-0.115	0.319
-519.931	40.756	-0.230	-0.209
-518.916	800.000	0.020	0.076
-517.902	-136.340	0.166	0.019
-516.887	8.498	0.323	-0.245
-515.872	155.651	0.084	-0.117
-514.858	-71.058	-0.126	0.048
-513.843	-200.000	0.009	0.168
-512.829	-127.296	0.423	0.062
-511.814	-200.000	0.038	0.197
-510.799	60.371	-0.132	-0.132
-509.785	357.974	0.069	0.139
-508.770	-200.000	0.018	0.265
-507.756	145.495	0.126	0.170
-506.741	-161.150	0.140	-0.007
-505.726	61.612	-0.115	-0.116
-504.712	-177.905	-0.580	0.014
-503.697	-11.653	-0.410	-0.271
-502.683	516.330	-0.052	-0.123
-501.668	-83.569	-0.275	-0.089
-500.653	-54.522	0.014	0.006
-499.639	-200.000	0.037	0.244
-498.624	-163.419	-0.142	-0.007
-497.610	-117.892	-0.118	0.021
-496.595	-53.853	0.093	0.043
-495.581	-41.273	0.255	-0.132
-494.566	-200.000	-0.007	0.223
-493.551	9.179	0.167	0.127
-492.537	-118.070	0.206	-0.037
-491.522	-38.235	0.239	0.128
-490.508	800.000	-0.063	-0.263
-489.493	-105.337	0.376	0.086
-488.478	188.499	-0.167	0.251
-487.464	-28.372	0.197	-0.114
-486.449	-200.000	-0.002	0.064
-485.435	86.651	-0.050	0.055
-484.420	-85.375	0.025	0.008
-483.405	-200.000	0.012	-0.241
-482.391	4.811	0.057	-0.043
-481.376	-21.180	0.265	-0.163
-480.362	578.589	0.110	-0.270
-479.347	-176.851	0.216	0.006
-478.332	599.326	0.098	-0.243
-477.318	83.874	0.060	-0.066
-476.303	-124.642	0.300	0.047
-475.289	-143.872	-0.111	0.011
-474.274	-139.022	0.228	-0.025
-473.259	-200.000	0.002	-0.073
-472.245	0.981	0.183	-0.132
-471.230	304.071	0.106	-0.198
-470.216	-9.495	0.138	0.092
-469.201	13.844	0.320	0.251
-468.186	57.836	-0.141	0.139
-467.172	85.298	-0.144	-0.159
-466.157	-200.000	-0.040	0.182
-465.143	-200.000	0.042	0.191
-464.128	21.334	-0.252	-0.206
-463.113	-70.500	0.169	-0.064
-462.099	-127.399	0.332	0.049
-461.084	519.448	0.108	0.255
-460.070	-47.964	0.143	-0.069
-459.055	19.371	0.144	0.116
-458.040	-200.000	-0.016	-0.202
-457.026	-119.819	-0.251	-0.043
-456.011	4.602	0.133	0.098
-454.997	-200.000	0.025	-0.154
-453.982	20.508	-0.095	-0.077
-452.968	782.074	-0.106	0.291
-451.953	-200.000	0.012	-0.392
-450.938	-84.726	0.190	0.060
-449.924	-200.000	0.000	0.120
-448.909	28.227	-0.155	0.131
-447.895	-87.977	0.271	0.082
-446.880	631.364	-0.121	-0.307
-445.865	-200.000	-0.005	-0.243
-444.851	388.535	-0.078	0.163
-443.836	-108.414	-0.072	-0.016
-442.822	-70.979	0.203	-0.077
-441.807	146.886	0.246	-0.332
-440.792	205.788	-0.200	0.312
-439.778	124.822	-0.120	-0.152
-438.763	94.469	0.074	0.084
-437.749	149.221	-0.049	0.067
-436.734	-133.753	0.404	-0.051
-435.719	27.445	-0.196	0.165
-434.705	800.000	-0.043	-0.124
-433.690	-123.353	0.028	-0.004
-432.676	-200.000	-0.044	0.244
-431.661	23.386	-0.428	-0.354
-430.646	-64.527	0.407	-0.166
-429.632	233.772	-0.114	-0.188
-428.617	-200.000	0.205	-0.001
-427.603	93.959	0.154	-0.175
-426.588	-200.000	-0.017	0.133
-425.573	87.108	0.026	0.029
-424.559	-150.923	0.456	0.035
-423.544	-47.113	-0.202	0.099
-422.530	-200.000	0.009	0.111
-421.515	210.877	-0.066	0.104
-420.500	-200.000	0.001	-0.317
-419.486	-43.994	0.014	-0.007
-418.471	-106.147	-0.207	-0.047
-417.457	134.503	0.171	0.222
-416.442	-150.800	-0.362	-0.028
-415.428	800.000	-0.091	0.258
-414.413	469.684	-0.088	-0.198
-413.398	77.224	0.071	-0.076
-412.384	-116.448	-0.219	0.041
-411.369	-116.813	-0.388	-0.071
-410.355	-200.000	0.045	-0.235
-409.340	-157.380	-0.403	0.024
-408.325	-16.196	0.070	0.045
-407.311	69.605	0.192	0.199
-406.296	-79.335	-0.165	0.056
-405.282	300.158	0.142	0.264
-404.267	272.485	-0.027	0.048
-403.252	438.332	0.077	0.169
-402.238	800.000	-0.095	-0.272
-401.223	-64.300	0.065	-0.027
-400.209	-180.324	0.381	-0.008
-399.194	-200.000	0.007	0.063
-398.179	-200.000	-0.056	-0.493
-397.165	-86.881	-0.301	-0.092
-396.150	75.883	-0.062	0.066
-395.136	-16.040	0.173	0.110
-394.121	800.000	0.031	0.104
-393.106	-122.645	0.043	-0.007
-392.092	-34.447	0.422	0.232
-391.077	364.554	0.169	-0.342
-390.063	270.859	-0.187	-0.331
-389.048	-166.171	0.099	0.004
-388.033	-190.142	0.171	-0.002
-387.019	-200.000	-0.004	0.099
-386.004	10.429	0.221	0.169
-384.990	-39.650	-0.121	0.064
-383.975	50.512	-0.308	0.292
-382.960	60.683	0.134	-0.133
-381.946	289.782	-0.024	0.043
-380.931	-83.452	0.250	0.080
-379.917	76.401	-0.149	0.158
-378.902	80.110	-0.166	-0.179
-377.888	165.889	-0.057	-0.081
-376.873	-200.000	0.009	-0.240
-375.858	196.405	-0.191	-0.292
-374.844	42.761	-0.010	-0.009
-373.829	800.000	0.047	-0.144
-372.815	-200.000	-0.053	-0.357
-371.800	265.357	-0.058	-0.101
-370.785	47.079	-0.161	-0.150
-369.771	-46.121	0.132	0.065
-368.756	-6.573	-0.215	-0.147
-367.742	-6.781	0.038	-0.026
-366.727	-94.248	0.263	0.072
-365.712	609.714	0.143	0.357
-364.698	-106.895	0.387	-0.086
-363.683	-161.895	-0.106	0.005
-362.669	464.261	0.082	0.185
-361.654	-200.000	0.058	-0.326
-360.639	306.473	-0.109	0.203
-359.625	-178.307	0.172	0.004
-358.610	-79.529	0.156	-0.053
-357.596	-78.487	-0.131	-0.045
-356.581	-3.574	-0.277	-0.193
-355.566	-200.000	-0.015	-0.164
-354.552	-156.770	-0.210	0.013
-353.537	-200.000	0.028	0.193
-352.523	345.384	-0.159	0.312
-351.508	-149.508	0.211	-0.017
-350.493	68.992	0.272	0.280
-349.479	-18.225	-0.373	-0.233
-348.464	-182.091	-0.077	-0.001
-347.450	-39.230	-0.459	-0.241
-346.435	-170.427	0.490	-0.017
-345.420	-121.010	0.362	0.061
-344.406	129.170	-0.096	0.122
-343.391	-200.000	0.020	0.175
-342.377	427.725	-0.131	-0.284
-341.362	-63.595	-0.201	0.082
-340.348	-200.000	0.007	0.133
-339.333	-200.000	-0.001	-0.340
-338.318	-129.506	0.588	0.081
-337.304	-137.133	0.176	0.020
-336.289	-26.547	-0.128	0.075
-335.275	-99.474	0.171	-0.043
-334.260	-74.696	0.495	0.178
-333.245	-145.003	0.410	0.037
-332.231	-144.727	-0.037	-0.003
-331.216	-172.525	-0.126	-0.004
-330.202	321.105	0.069	0.132
-329.187	-71.482	0.214	-0.080
-328.172	-9.028	0.199	-0.133
-327.158	-200.000	-0.029	0.131
-326.143	-180.236	-0.418	0.009
-325.129	-129.612	0.211	0.029
-324.114	-17.662	0.143	0.090
-323.099	-200.000	-0.003	0.173
-322.085	-61.007	0.072	-0.030
-321.070	-200.000	-0.020	0.202
-320.056	-30.353	0.079	-0.045
-319.041	-24.115	0.023	-0.013
-318.026	141.770	0.150	-0.198
-317.012	56.714	0.118	-0.115
-315.997	439.033	-0.087	0.189
-314.983	-30.523	0.064	-0.036
-313.968	-118.641	-0.450	-0.079
-312.953	143.077	-0.019	-0.025
-311.939	17.079	0.266	-0.211
-310.924	-41.685	-0.141	0.072
-309.910	-94.327	0.121	-0.033
-308.895	-200.000	-0.063	-0.293
-307.880	-30.742	0.085	0.048
-306.866	-77.367	-0.410	0.142
-305.851	79.265	-0.116	0.125
-304.837	195.323	0.021	0.032
-303.822	-200.000	0.008	-0.096
-302.807	239.243	-0.181	0.301
-301.793	-171.043	0.289	0.010
-300.778	-19.688	-0.189	-0.117
-299.764	-61.705	-0.296	0.124
-298.749	439.595	0.056	0.123
-297.735	324.136	0.212	-0.405
-296.720	800.000	-0.031	-0.094
-295.705	-108.466	0.086	0.018
-294.691	800.000	-0.067	-0.282
-293.676	800.000	-0.101	-0.309
-292.662	64.285	-0.124	-0.125
-291.647	328.295	0.136	0.260
-290.632	-89.285	-0.390	0.115
-289.618	13.686	0.142	0.110
-288.603	36.927	-0.344	-0.304
-287.589	202.047	0.217	-0.334
-286.574	-176.642	0.347	-0.009
-285.559	-149.720	0.159	0.012
-284.545	-128.155	0.106	-0.015
-283.530	19.108	0.197	0.158
-282.516	-200.000	-0.013	0.139
-281.501	-53.810	-0.123	-0.056
-280.486	49.353	0.197	0.185
-279.472	104.844	0.088	0.103
-278.457	29.445	-0.139	0.118
-277.443	-4.796	-0.191	0.131
-276.428	800.000	-0.049	0.148
-275.413	-58.585	0.389	-0.168
-274.399	-200.000	0.010	-0.102
-273.384	-74.738	0.377	0.135
-272.370	-200.000	0.014	0.113
-271.355	450.033	-0.152	0.335
-270.340	-19.988	-0.123	-0.076
-269.326	-108.064	-0.358	0.078
-268.311	800.000	-0.072	0.214
-267.297	9.782	0.123	0.093
-266.282	45.982	0.196	-0.181
-265.267	144.822	-0.120	0.160
-264.253	-32.412	-0.179	0.100
-263.238	-195.975	-0.121	-0.001
-262.224	-200.000	0.010	0.155
-261.209	41.577	-0.320	0.289
-260.195	23.733	0.090	0.074
-259.180	11.762	-0.111	-0.085
-258.165	800.000	-0.084	-0.322
-257.151	-200.000	0.012	0.093
-256.136	-82.528	0.211	0.068
-255.122	254.182	-0.193	0.329
-254.107	433.082	0.076	-0.165
-253.092	116.451	-0.249	-0.305
-252.078	-138.076	-0.209	0.023
-251.063	-92.091	0.446	0.126
-250.049	800.000	0.079	-0.250
-249.034	-200.000	0.023	0.344
-248.019	637.691	-0.014	0.036
-247.005	-163.614	-0.355	-0.017
-245.990	-34.520	0.055	0.030
-244.976	92.379	0.171	-0.192
-243.961	276.593	0.094	0.167
-242.946	-200.000	-0.030	0.196
-241.932	72.772	0.324	-0.337
-240.917	-30.231	0.272	-0.154
-239.903	299.367	0.072	-0.132
-238.888	-200.000	-0.014	0.216
-237.873	16.941	0.221	0.175
-236.859	531.412	-0.177	-0.416
-235.844	-85.924	-0.029	-0.009
-234.830	-200.000	0.033	-0.226
-233.815	323.879	-0.040	0.077
-232.800	49.533	-0.031	0.030
-231.786	-86.498	-0.127	-0.039
-230.771	-73.008	-0.222	0.081
-229.757	323.168	0.111	-0.212
-228.742	389.956	0.140	0.288
-227.727	-103.498	-0.398	0.093
-226.713	-131.719	0.349	0.046
-225.698	-200.000	0.030	0.174
-224.684	-200.000	-0.029	-0.132
-223.669	-66.081	-0.125	-0.050
-222.655	-129.343	0.040	-0.006
-221.640	340.663	-0.051	-0.100
-220.625	253.966	-0.104	0.178
-219.611	-200.000	0.028	0.207
-218.596	-200.000	0.039	-0.223
-217.582	-57.269	-0.174	-0.076
-216.567	299.307	-0.049	-0.090
-215.552	-200.000	-0.018	-0.151
-214.538	-73.234	-0.124	0.045
-213.523	-35.608	0.143	-0.077
-212.509	-39.703	0.281	-0.146
-211.494	-83.221	0.287	-0.092
-210.479	-67.117	0.177	0.070
-209.465	-41.085	-0.181	-0.093
-208.450	-32.927	-0.454	0.251
-207.436	800.000	0.086	-0.272
-206.421	800.000	-0.062	-0.271
-205.406	59.462	0.094	0.092
-204.392	-1.729	-0.095	-0.066
-203.377	1.215	0.106	-0.076
-202.363	18.265	-0.225	0.178
-201.348	593.450	0.071	-0.176
-200.333	-190.508	-0.210	0.002
-199.319	-104.889	0.044	0.010
-198.304	-128.449	-0.043	-0.006
-197.290	8.251	-0.122	-0.091
-196.275	800.000	0.066	-0.196
-195.260	288.629	0.119	0.215
-194.246	-114.166	-0.156	-0.030
-193.231	3.796	-0.216	0.157
-192.217	249.516	0.151	0.255
-191.202	-200.000	-0.012	0.081
-190.187	-102.234	0.141	-0.034
-189.173	-200.000	0.096	0.427
-188.158	-200.000	-0.049	0.273
-187.144	-56.954	-0.294	0.129
-186.129	-50.191	0.094	-0.044
-185.114	-24.693	-0.272	-0.161
-184.100	800.000	0.038	-0.150
-183.085	-34.663	-0.276	0.150
-182.071	-200.000	-0.014	0.167
-181.056	-200.000	0.038	0.458
-180.042	-59.293	-0.245	0.105
-179.027	676.409	0.038	0.098
-178.012	-89.021	-0.257	-0.076
-176.998	15.983	-0.088	-0.069
-175.983	-200.000	-0.058	0.255
-174.969	87.297	0.290	-0.319
-173.954	-37.393	-0.022	0.012
-172.939	800.000	0.098	0.354
-171.925	113.666	0.118	-0.142
-170.910	-181.225	-0.054	0.001
-169.896	-0.705	0.061	0.043
-168.881	800.000	-0.008	-0.030
-167.866	65.353	0.057	-0.057
-166.852	-200.000	0.051	-0.376
-165.837	-182.746	0.208	0.004
-164.823	242.256	-0.109	0.182
-163.808	270.250	-0.094	0.165
-162.793	246.047	-0.244	0.408
-161.779	148.649	0.219	0.294
-160.764	426.355	0.127	0.273
-159.750	-164.582	-0.336	0.015
-158.735	-200.000	0.003	-0.083
-157.720	26.888	0.234	-0.195
-156.706	-200.000	0.022	0.210
-155.691	-74.699	-0.322	0.115
-154.677	309.537	0.048	-0.090
-153.662	-71.070	-0.260	-0.097
-152.647	-200.000	-0.002	-0.131
-151.633	-200.000	0.000	-0.284
-150.618	195.523	0.215	-0.324
-149.604	288.132	0.102	-0.184
-148.589	800.000	0.042	0.175
-147.574	328.163	0.114	-0.217
-146.560	149.989	0.102	0.138
-145.545	-21.814	-0.237	0.143
-144.531	61.873	-0.138	0.136
-143.516	-61.328	0.121	0.051
-142.502	5.913	-0.153	0.112
-141.487	800.000	-0.035	0.145
-140.472	-200.000	-0.010	-0.171
-139.458	98.329	-0.007	-0.008
-138.443	-102.094	0.239	-0.057
-137.429	-67.452	0.026	0.010
-136.414	-42.514	0.032	-0.016
-135.399	12.332	-0.057	0.043
-134.385	326.156	0.076	0.144
-133.370	4.995	-0.203	0.148
-132.356	98.634	0.189	0.217
-131.341	-104.436	-0.219	-0.050
-130.326	-150.790	-0.082	-0.006
-129.312	-124.792	0.276	0.042
-128.297	359.451	-0.056	0.111
-127.283	280.764	0.042	0.074
-126.268	-134.238	0.258	-0.032
-125.253	-200.000	-0.052	0.260
-124.239	245.783	0.069	0.116
-123.224	27.048	0.118	0.098
-122.210	800.000	-0.039	-0.161
-121.195	-90.785	0.162	-0.046
-120.180	-200.000	-0.024	-0.216
-119.166	569.052	0.049	0.119
-118.151	-103.065	0.292	-0.069
-117.137	49.366	-0.075	-0.070
-116.122	-131.413	0.276	0.036
-115.107	29.657	0.078	-0.066
-114.093	-139.441	-0.229	0.024
-113.078	2.372	-0.346	0.248
-112.064	-200.000	0.023	0.154
-111.049	114.533	-0.152	0.184
-110.034	636.576	0.036	0.092
-109.020	745.613	0.172	0.459
-108.005	-17.000	0.377	0.236
-106.991	-20.809	0.308	0.187
-105.976	-75.500	0.064	0.023
-104.962	-200.000	0.034	-0.152
-103.947	800.000	-0.075	0.268
-102.932	800.000	0.078	0.259
-101.918	-193.765	-0.528	-0.004
-100.903	356.469	-0.183	0.362
-99.889	-44.772	0.198	-0.098
-98.874	-74.457	0.191	0.068
-97.859	-200.000	0.017	0.093
-96.845	436.703	0.054	0.117
-95.830	-101.709	0.171	-0.041
-94.816	505.193	0.138	0.316
-93.801	-91.713	-0.130	0.037
-92.786	-121.905	-0.210	0.034
-91.772	-200.000	-0.048	0.262
-90.757	356.520	0.222	0.439
-89.743	-58.932	0.337	0.144
-88.728	-200.000	0.005	-0.172
-87.713	-184.851	-0.215	-0.003
-86.699	-175.536	0.092	-0.002
-85.684	367.744	0.097	0.194
-84.670	-72.778	0.020	-0.007
-83.655	-200.000	0.019	0.263
-82.640	-147.638	-0.081	-0.007
-81.626	310.147	0.084	0.156
-80.611	-131.875	-0.223	-0.029
-79.597	180.267	0.151	-0.219
-78.582	-200.000	0.024	0.110
-77.567	45.702	0.332	-0.304
-76.553	-32.655	0.206	0.114
-75.538	-101.395	0.291	0.070
-74.524	-1.396	0.126	-0.088
-73.509	77.946	0.196	-0.207
-72.494	0.729	0.234	-0.166
-71.480	-114.842	0.242	-0.046
-70.465	378.668	0.095	0.192
-69.451	-105.465	-0.523	-0.118
-68.436	109.645	0.231	0.274
-67.422	-200.000	-0.006	0.151
-66.407	-16.420	-0.223	0.140
-65.392	-18.652	-0.088	-0.054
-64.378	800.000	0.045	-0.193
-63.363	18.166	0.154	-0.122
-62.349	-46.473	0.232	0.113
-61.334	103.884	-0.743	-0.864
-60.319	-51.934	0.428	0.197
-59.305	-200.000	-0.082	-0.973
-58.290	800.000	0.372	1.043
-57.276	757.659	0.512	1.371
-56.261	-200.000	92.130	546.280
-55.246	532.424	1369.958	3208.676
-54.232	152.442	2574.318	3478.689
-53.217	115.614	2194.955	2655.787
-52.203	47.200	1731.492	1595.096
-51.188	39.762	1540.815	1368.070
-50.173	37.259	1512.967	1326.226
-49.159	55.478	1561.984	1496.019
-48.144	59.288	1581.836	1541.420
-47.130	40.204	1537.346	1367.829
-46.115	36.949	1521.519	1331.378
-45.100	36.629	1519.362	1327.246
-44.086	36.724	1516.759	1325.565
-43.071	36.646	1514.747	1323.222
-42.057	36.546	1513.527	1321.422
-41.042	36.478	1512.102	1319.662
-40.027	36.599	1510.846	1319.335
-39.013	36.592	1509.425	1317.995
-37.998	36.573	1507.925	1316.504
-36.984	36.547	1507.117	1315.571
-35.969	36.664	1505.296	1314.725
-34.954	36.601	1503.992	1313.104
-33.940	36.529	1502.841	1311.561
-32.925	36.634	1501.270	1310.846
-31.911	36.712	1499.823	1310.062
-30.896	36.706	1498.494	1308.806
-29.881	36.819	1497.233	1308.419
-28.867	36.785	1495.531	1306.653
-27.852	36.695	1494.331	1304.943
-26.838	36.768	1492.698	1303.958
-25.823	36.717	1491.315	1302.355
-24.809	36.736	1489.549	1300.886
-23.794	36.643	1488.641	1299.414
-22.779	36.608	1487.681	1298.293
-21.765	36.703	1486.267	1297.646
-20.750	36.710	1485.211	1296.716
-19.736	36.638	1484.104	1295.216
-18.721	36.701	1482.707	1294.369
-17.706	36.668	1481.579	1293.110
-16.692	36.562	1480.990	1291.836
-15.677	36.638	1479.642	1291.118
-14.663	36.633	1478.298	1289.861
-13.648	36.575	1477.606	1288.819
-12.633	36.616	1476.135	1287.759
-11.619	36.646	1475.875	1287.679
-10.604	36.646	1474.634	1286.548
-9.590	36.509	1474.126	1285.142
-8.575	36.556	1473.204	1284.600
-7.560	36.562	1472.195	1283.704
-6.546	36.650	1471.501	1283.639
-5.531	36.688	1470.332	1282.816
-4.517	36.634	1469.488	1281.669
-3.502	36.554	1468.702	1280.405
-2.487	36.698	1467.329	1280.110
-1.473	36.610	1466.417	1278.680
-0.458	36.604	1465.038	1277.393
0.556	37.247	1454.599	1264.187
1.571	33.360	1427.417	1215.557
2.586	28.688	1365.269	1133.764
3.600	26.492	1281.812	1051.617
4.615	24.788	1233.632	1002.456
5.629	20.868	1176.766	935.166
6.644	11.573	1090.214	819.867
7.659	4.101	1047.252	751.356
8.673	3.072	1041.789	742.403
9.688	2.819	1038.027	738.440
10.702	2.559	1036.788	736.243
11.717	2.532	1035.317	735.008
12.731	5.690	1038.304	752.240
13.746	14.998	1051.853	807.075
14.761	23.364	1062.738	855.949
15.775	25.837	1065.219	869.831
16.790	26.238	1065.138	871.624
17.804	26.066	1064.222	869.967
18.819	26.067	1063.422	869.243
19.834	26.022	1062.676	868.336
20.848	26.149	1062.820	868.989
21.863	26.257	1061.715	868.530
22.877	26.259	1061.650	868.406
23.892	26.321	1060.952	868.056
24.907	26.202	1060.086	866.701
25.921	26.176	1059.711	866.192
26.936	26.227	1058.544	865.409
27.950	26.107	1057.535	863.932
28.965	26.205	1056.343	863.352
29.980	26.016	1055.217	861.449
30.994	26.183	1053.464	860.740
32.009	26.240	1053.110	860.645
33.023	26.318	1052.698	860.605
34.038	26.143	1051.262	858.523
35.053	26.067	1050.728	857.649
36.067	26.152	1049.888	857.293
37.082	26.235	1048.879	856.784
38.096	26.265	1048.257	856.342
39.111	26.485	1047.645	856.809
40.126	26.482	1046.809	856.037
41.140	26.275	1045.767	854.129
42.155	26.179	1044.118	852.256
43.169	25.795	1042.892	849.366
44.184	25.847	1042.147	848.931
45.199	25.935	1040.914	848.268
46.213	25.760	1040.117	846.716
47.228	25.788	1039.418	846.207
48.242	26.048	1038.556	846.650
49.257	26.137	1037.865	846.429
50.271	26.118	1037.403	845.886
51.286	26.209	1036.666	845.639
52.301	26.328	1036.047	845.615
53.315	26.247	1035.432	844.662
54.330	26.178	1034.655	843.628
55.344	26.095	1033.612	842.315
56.359	26.152	1032.432	841.547
57.374	26.041	1032.057	840.646
58.388	25.988	1031.269	839.685
59.403	25.942	1030.134	838.475
60.417	25.930	1029.492	837.818
61.432	25.746	1028.690	836.241
62.447	25.985	1027.638	836.419
63.461	25.994	1027.235	836.058
64.476	25.941	1026.459	835.108
65.490	25.830	1026.009	834.152
66.505	25.844	1024.726	833.102
67.520	25.929	1024.090	832.905
68.534	26.055	1023.216	832.701
69.549	25.972	1022.504	831.664
70.563	25.570	1021.273	828.737
71.578	25.344	1020.705	827.161
72.593	25.404	1019.983	826.781
73.607	25.336	1018.336	825.058
74.622	25.257	1017.485	823.936
75.636	25.572	1016.983	824.903
76.651	25.662	1016.657	824.976
77.666	25.688	1015.429	824.026
78.680	25.557	1014.433	822.546
79.695	25.387	1014.568	821.806
80.709	25.754	1013.354	822.424
81.724	25.847	1012.611	822.175
82.739	25.767	1011.711	821.005
83.753	25.783	1010.838	820.299
84.768	26.100	1010.211	821.157
85.782	26.378	1009.953	822.140
86.797	26.514	1009.273	822.131
87.812	26.585	1008.525	821.772
88.826	26.252	1007.409	819.280
89.841	26.340	1006.688	819.021
90.855	26.494	1005.791	818.915
91.870	26.509	1005.033	818.294
92.884	26.452	1004.397	817.446
93.899	26.454	1003.130	816.351
94.914	26.261	1002.487	814.886
95.928	26.442	1001.708	814.997
96.943	26.437	1000.699	814.078
97.957	26.108	999.778	811.778
98.972	26.026	998.481	810.286
99.987	25.837	997.407	808.496
101.001	25.818	996.932	807.952
102.016	26.136	996.454	808.917
103.030	26.199	995.791	808.592
104.045	26.073	994.500	806.906
105.060	26.134	993.165	806.026
106.074	25.737	992.358	803.527
107.089	25.708	992.248	803.237
108.103	26.163	991.228	804.369
109.118	26.200	990.551	803.913
110.133	25.910	989.283	801.524
111.147	25.836	988.721	800.670
112.162	25.821	987.237	799.329
113.176	25.557	986.145	797.204
114.191	25.733	985.456	797.356
115.206	25.805	984.727	797.013
116.220	25.520	983.299	794.528
117.235	25.445	982.762	793.695
118.249	25.493	982.676	793.766
119.264	25.512	981.511	792.836
120.279	25.535	980.516	792.067
121.293	25.351	980.187	790.918
122.308	25.549	979.559	791.213
123.322	25.481	978.673	790.130
124.337	25.720	977.044	789.793
125.352	25.471	975.750	787.585
126.366	25.031	974.397	784.498
127.381	24.659	973.231	781.863
128.395	25.215	973.799	784.683
129.410	25.857	973.056	786.820
130.424	25.995	972.200	786.660
131.439	26.058	971.298	786.136
132.454	25.908	970.390	784.679
133.468	25.939	969.471	784.001
134.483	25.973	968.409	783.219
135.497	26.054	968.007	783.177
136.512	26.275	967.485	783.642
137.527	26.377	967.024	783.642
138.541	26.263	966.083	782.318
139.556	26.467	965.176	782.394
140.570	26.319	964.380	781.041
141.585	26.390	963.628	780.672
142.600	26.438	963.115	780.395
143.614	26.365	962.023	779.123
144.629	26.343	961.566	778.589
145.643	26.652	960.893	779.305
146.658	26.421	959.991	777.513
147.673	26.279	958.509	775.636
148.687	26.283	957.270	774.582
149.702	26.125	956.682	773.361
150.716	25.935	955.579	771.584
151.731	26.061	954.151	770.904
152.746	26.136	953.658	770.757
153.760	26.242	953.364	770.905
154.775	26.460	952.752	771.270
155.789	26.286	952.259	770.063
156.804	26.389	950.897	769.331
157.819	26.323	949.957	768.222
158.833	26.435	949.081	767.920
159.848	26.581	948.506	768.007
160.862	26.607	947.649	767.354
161.877	26.444	947.204	766.235
162.892	26.333	946.090	764.796
163.906	26.554	945.113	764.873
164.921	26.557	943.988	763.909
165.935	26.422	942.816	762.325
166.950	26.548	941.602	761.805
167.964	26.308	941.390	760.557
168.979	26.367	940.073	759.671
169.994	26.403	939.126	758.992
171.008	26.223	938.130	757.365
172.023	26.407	937.451	757.522
173.037	26.561	936.909	757.660
174.052	26.332	935.975	755.881
175.067	26.145	934.589	753.914
176.081	26.239	933.546	753.398
177.096	26.206	933.008	752.757
178.110	26.261	932.224	752.288
179.125	26.191	931.346	751.221
180.140	25.835	930.188	748.744
181.154	25.696	929.738	747.736
182.169	25.851	929.671	748.260
183.183	26.067	929.076	748.610
184.198	26.353	928.726	749.450
185.213	26.419	927.876	748.971
186.227	26.293	927.362	747.969
187.242	26.332	926.966	747.743
188.256	26.486	926.063	747.585
189.271	26.350	925.473	746.481
190.286	26.517	924.460	746.286
191.300	26.415	923.465	744.995
192.315	25.763	922.422	741.406
193.329	25.038	920.902	737.140
194.344	24.530	919.705	734.027
195.359	25.177	920.165	736.987
196.373	26.154	920.127	740.906
197.388	26.501	919.992	742.156
198.402	26.256	919.844	740.963
199.417	26.201	919.318	740.249
200.432	26.459	918.615	740.674
201.446	26.219	917.904	739.053
202.461	25.884	917.106	736.978
203.475	26.092	916.685	737.421
204.490	25.634	915.176	734.273
205.504	24.405	912.681	727.204
206.519	24.646	913.514	728.787
207.534	25.770	913.661	733.417
208.548	25.904	912.516	732.980
209.563	26.219	912.612	734.272
210.577	26.408	911.385	733.989
211.592	25.975	910.837	731.725
212.607	26.431	911.057	733.688
213.621	26.536	910.598	733.678
214.636	26.496	909.460	732.533
215.650	26.585	908.960	732.426
216.665	26.471	908.706	731.694
217.680	26.481	908.390	731.417
218.694	26.548	907.922	731.248
219.709	26.197	907.041	729.055
220.723	25.986	905.439	726.854
221.738	26.168	905.083	727.236
222.753	26.381	904.978	727.943
223.767	26.230	904.197	726.644
224.782	26.340	903.434	726.409
225.796	26.634	903.089	727.249
226.811	26.629	902.373	726.587
227.826	26.284	901.200	724.196
228.840	25.424	899.685	719.473
229.855	25.319	899.172	718.578
230.869	25.613	898.665	719.285
231.884	25.180	897.881	716.865
232.899	25.223	897.350	716.548
233.913	26.117	897.426	720.115
234.928	26.295	897.035	720.446
235.942	26.193	896.281	719.371
236.957	26.289	895.650	719.182
237.972	26.072	894.627	717.435
238.986	25.835	894.035	715.955
240.001	25.963	893.624	716.072
241.015	25.793	892.934	714.780
242.030	25.959	892.671	715.166
243.045	26.148	892.128	715.416
244.059	26.382	891.075	715.433
245.074	26.442	890.730	715.332
246.088	26.496	890.099	714.973
247.103	26.037	889.394	712.534
248.117	26.021	888.764	711.901
249.132	26.634	888.381	713.947
250.147	26.852	889.009	715.249
251.161	27.141	887.589	715.180
252.176	27.279	887.554	715.635
253.190	27.135	887.404	714.883
254.205	27.303	886.611	714.840
255.220	27.376	886.371	714.871
256.234	27.276	885.575	713.775
257.249	27.178	885.002	712.863
258.263	27.181	884.457	712.374
259.278	27.158	883.471	711.425
260.293	27.172	883.279	711.264
261.307	27.221	882.733	710.953
262.322	27.108	881.749	709.657
263.336	27.267	881.027	709.633
264.351	26.503	880.154	705.888
265.366	25.528	878.002	700.303
266.380	25.026	877.043	697.523
267.395	25.860	877.505	701.077
268.409	26.747	877.789	704.691
269.424	26.788	877.069	704.209
270.439	26.803	876.625	703.848
271.453	27.020	875.643	703.839
272.468	26.855	875.389	702.932
273.482	27.062	874.867	703.255
274.497	27.359	874.356	703.930
275.512	27.030	873.736	702.097
276.526	26.630	871.863	698.986
277.541	26.648	871.862	698.991
278.555	27.107	871.488	700.401
279.570	26.807	870.976	698.771
280.585	26.559	870.526	697.391
281.599	26.787	869.872	697.685
282.614	27.073	869.296	698.260
283.628	26.548	867.938	695.095
284.643	26.171	867.236	693.023
285.657	26.545	867.299	694.448
286.672	26.541	866.597	693.807
287.687	25.933	865.347	690.419
288.701	26.287	865.682	691.981
289.716	26.678	865.477	693.251
290.730	26.347	864.533	691.169
291.745	26.203	863.788	689.962
292.760	25.977	862.689	688.162
293.774	25.731	862.494	687.006
294.789	27.054	862.243	691.789
295.803	27.524	862.722	693.903
296.818	27.532	862.258	693.498
297.833	27.508	862.106	693.220
298.847	27.449	860.586	691.716
299.862	27.076	859.545	689.403
300.876	27.032	859.701	689.299
301.891	27.426	859.315	690.421
302.906	27.582	858.346	690.173
303.920	27.253	857.310	688.034
304.935	26.995	856.906	686.675
305.949	27.386	856.731	687.953
306.964	27.498	856.419	688.063
307.979	27.358	855.226	686.514
308.993	27.127	855.187	685.552
310.008	27.390	855.262	686.545
311.022	27.783	854.118	687.045
312.037	27.596	853.674	685.922
313.052	27.164	853.195	683.852
314.066	27.240	852.039	683.150
315.081	26.444	851.125	679.368
316.095	25.633	849.716	675.141
317.110	26.290	849.508	677.380
318.125	27.199	849.863	681.013
319.139	26.696	849.150	678.495
320.154	25.583	847.200	672.719
321.168	25.031	846.667	670.170
322.183	25.700	846.574	672.541
323.197	26.745	846.856	676.608
324.212	27.036	846.743	677.543
325.227	27.034	846.059	676.928
326.241	27.198	846.176	677.573
327.256	27.234	845.197	676.862
328.270	27.035	844.457	675.468
329.285	26.956	844.007	674.758
330.300	26.831	843.272	673.644
331.314	26.695	842.370	672.360
332.329	26.604	842.128	671.772
333.343	27.060	841.510	672.906
334.358	27.382	841.268	673.847
335.373	27.394	840.685	673.366
336.387	27.486	839.938	673.047
337.402	27.679	839.300	673.189
338.416	27.809	839.586	673.840
339.431	27.786	838.797	673.061
340.446	27.909	838.066	672.866
341.460	28.029	838.002	673.198
342.475	27.998	837.396	672.539
343.489	27.779	836.520	670.972
344.504	27.607	836.114	669.954
345.519	28.050	835.832	671.295
346.533	28.152	835.656	671.467
347.548	28.325	835.047	671.556
348.562	28.188	834.666	670.685
349.577	28.089	833.831	669.592
350.592	28.022	833.493	669.018
351.606	27.931	833.121	668.327
352.621	27.953	832.822	668.108
353.635	27.938	831.865	667.226
354.650	27.819	831.959	666.809
355.665	27.606	830.190	664.556
356.679	26.572	828.889	659.691
357.694	26.547	828.065	658.883
358.708	27.015	828.490	660.867
359.723	27.129	827.523	660.454
360.738	27.332	827.568	661.168
361.752	27.871	827.241	662.806
362.767	27.900	826.976	662.640
363.781	28.155	827.111	663.612
364.796	28.475	826.646	664.341
365.810	28.543	826.424	664.352
366.825	28.543	826.053	663.994
367.840	28.668	825.553	663.986
368.854	28.481	824.808	662.652
369.869	28.000	823.910	660.136
370.883	27.725	823.363	658.643
371.898	27.863	822.668	658.530
372.913	27.987	821.891	658.294
373.927	27.825	821.500	657.342
374.942	27.966	820.990	657.383
375.956	28.064	820.429	657.228
376.971	28.123	820.072	657.093
377.986	28.273	819.622	657.213
379.000	28.455	818.931	657.254
380.015	28.578	818.604	657.374
381.029	28.338	817.880	655.874
382.044	28.290	817.224	655.119
383.059	28.548	816.691	655.556
384.073	28.529	816.148	654.995
385.088	28.406	816.082	654.445
386.102	28.449	815.392	653.985
387.117	28.198	814.455	652.285
388.132	28.170	813.930	651.706
389.146	28.045	813.416	650.791
390.161	27.545	812.355	648.105
391.175	27.496	812.052	647.633
392.190	28.192	812.026	650.028
393.205	28.062	811.531	649.112
394.219	27.146	809.920	644.522
395.234	25.533	807.633	636.933
396.248	24.560	806.478	632.523
397.263	25.637	807.339	636.958
398.278	27.541	808.892	644.873
399.292	27.962	808.760	646.199
400.307	27.773	807.765	644.682
401.321	27.620	807.381	643.777
402.336	27.764	807.048	643.961
403.350	28.073	807.382	645.263
404.365	28.444	807.253	646.411
405.380	28.777	806.926	647.264
406.394	28.985	806.637	647.707
407.409	29.171	806.493	648.191
408.423	29.283	805.841	648.004
409.438	29.122	805.006	646.707
410.453	29.149	804.968	646.715
411.467	29.146	804.707	646.439
412.482	29.235	803.511	645.733
413.496	29.170	803.011	645.046
414.511	29.273	802.890	645.252
415.526	29.261	802.466	644.812
416.540	29.266	802.435	644.748
417.555	29.046	801.946	643.528
418.569	28.930	800.883	642.212
419.584	28.967	800.074	641.636
420.599	28.847	800.084	641.171
421.613	105.716	1279.204	1430.617
422.628	91.000	1348.990	1430.758
