DTS Sentinel unit serial number:	SN413079Multiplexer serial number:	ORYXHardware model number:	OX4-SRSoftware version number:	ORYX F/W v4.00 Oryx Data Collector v3.7.2.0data status	okinstallation	princeton_trtdifferential loss correction	single-endedforward channel	channel 3reverse channel	N/Adate	2019/09/19time	02:16:34forward acquisition time	60.00reverse acquisition time	0.00gamma	496.2192k internal	0.2348k external	0.2348temperature offset calibration	0.9998default loss term (dB/km)	0.3790temperature slope calibration	1.0000multiplexer offset coefficient	1.0000multiplexer slope coefficient	1.0000fibre end	0.00T internal ref (°C)	21.12T ext. ref 1 (°C)	0.67T ext. ref 2 (°C)	14.59length (m)	temperature (°C)	Stokes	anti-Stokes-747.200	282.084	-0.108	-0.193
-746.185	327.914	-0.119	0.227
-745.171	-200.000	0.007	-0.058
-744.156	-200.000	0.009	0.307
-743.142	-133.781	-0.175	-0.022
-742.127	-61.535	-0.361	0.152
-741.112	280.045	-0.149	0.266
-740.098	299.252	-0.203	0.374
-739.083	-85.170	-0.313	-0.098
-738.069	-79.383	-0.337	0.114
-737.054	-151.408	0.177	-0.013
-736.039	78.238	-0.244	-0.260
-735.025	-98.041	0.232	0.060
-734.010	-82.962	-0.441	-0.142
-732.996	-113.958	-0.185	0.036
-731.981	384.059	-0.121	0.248
-730.966	-47.827	-0.019	-0.009
-729.952	-200.000	0.068	-0.385
-728.937	257.077	0.243	-0.417
-727.923	-80.666	-0.238	-0.079
-726.908	-151.042	-0.724	0.054
-725.894	-200.000	0.088	-0.536
-724.879	77.255	-0.083	0.088
-723.864	454.158	-0.065	0.145
-722.850	-200.000	-0.019	-0.232
-721.835	800.000	-0.066	-0.186
-720.821	98.929	-0.152	0.175
-719.806	-200.000	-0.003	-0.051
-718.791	800.000	0.023	-0.064
-717.777	-142.969	-0.156	0.015
-716.762	-200.000	0.018	-0.211
-715.748	-30.641	0.247	-0.139
-714.733	-95.690	0.042	-0.011
-713.718	-200.000	0.051	-0.233
-712.704	208.804	0.032	-0.051
-711.689	-200.000	-0.036	-0.302
-710.675	33.054	-0.045	-0.039
-709.660	-200.000	0.032	-0.278
-708.645	-191.034	0.160	0.002
-707.631	-35.954	-0.235	0.127
-706.616	800.000	-0.027	-0.100
-705.602	344.391	-0.167	-0.326
-704.587	-200.000	0.011	-0.311
-703.572	529.129	-0.166	-0.391
-702.558	-109.600	0.471	0.099
-701.543	-112.176	-0.459	0.092
-700.529	-106.846	-0.201	-0.044
-699.514	10.776	-0.157	-0.120
-698.499	800.000	-0.066	0.245
-697.485	-186.047	-0.297	-0.004
-696.470	171.140	-0.110	-0.157
-695.456	-200.000	0.075	-0.564
-694.441	800.000	-0.018	-0.058
-693.426	225.005	-0.094	-0.151
-692.412	84.056	0.063	0.069
-691.397	-66.080	-0.376	0.150
-690.383	-86.819	-0.131	0.040
-689.368	412.196	-0.062	-0.130
-688.354	800.000	-0.020	0.079
-687.339	-200.000	0.014	-0.082
-686.324	57.024	-0.178	-0.173
-685.310	-37.617	0.292	0.155
-684.295	-76.838	0.175	0.061
-683.281	100.025	0.207	-0.240
-682.266	41.116	0.101	0.091
-681.251	-47.019	0.378	-0.184
-680.237	-67.841	-0.255	0.099
-679.222	-103.714	-0.299	-0.070
-678.208	-131.395	0.214	-0.028
-677.193	258.356	0.217	-0.372
-676.178	-121.569	0.075	0.012
-675.164	-59.324	-0.090	0.039
-674.149	-69.748	-0.044	0.017
-673.135	-49.295	0.236	-0.112
-672.120	-200.000	-0.015	-0.078
-671.105	-148.502	0.023	-0.002
-670.091	-39.772	0.292	-0.152
-669.076	-56.595	-0.074	0.033
-668.062	-11.193	0.191	-0.125
-667.047	-6.727	0.120	-0.081
-666.032	800.000	0.096	0.298
-665.018	800.000	0.066	-0.226
-664.003	800.000	-0.044	-0.192
-662.989	-120.705	-0.247	0.042
-661.974	411.640	0.138	-0.292
-660.959	-200.000	-0.008	-0.142
-659.945	-113.890	0.192	-0.037
-658.930	39.227	-0.101	-0.090
-657.916	629.246	0.086	0.216
-656.901	-60.153	0.189	0.080
-655.886	-71.014	-0.228	0.086
-654.872	-200.000	-0.015	-0.226
-653.857	299.615	0.100	0.184
-652.843	13.194	0.058	-0.045
-651.828	-70.679	0.096	-0.036
-650.814	-79.336	0.285	0.096
-649.799	-56.646	-0.182	0.080
-648.784	-12.323	-0.125	-0.081
-647.770	25.540	0.116	-0.096
-646.755	-33.034	0.333	-0.184
-645.741	-200.000	0.050	0.265
-644.726	-25.272	-0.085	-0.050
-643.711	-87.462	-0.056	0.017
-642.697	-85.582	0.186	-0.058
-641.682	324.900	0.141	0.268
-640.668	800.000	-0.080	0.334
-639.653	21.825	-0.099	-0.081
-638.638	278.428	0.074	0.131
-637.624	-200.000	-0.256	-0.001
-636.609	1.548	0.111	-0.080
-635.595	800.000	0.035	-0.106
-634.580	-85.262	0.244	0.076
-633.565	-81.391	0.061	-0.020
-632.551	2.727	0.375	-0.270
-631.536	-31.162	-0.092	0.052
-630.522	-58.205	-0.367	-0.159
-629.507	444.151	-0.142	-0.310
-628.492	-200.000	-0.020	0.323
-627.478	-200.000	0.094	-0.453
-626.463	-200.000	0.012	-0.239
-625.449	459.882	-0.095	-0.210
-624.434	800.000	-0.040	-0.133
-623.419	-95.388	-0.341	-0.091
-622.405	800.000	-0.039	0.136
-621.390	-200.000	-0.014	-0.199
-620.376	182.562	-0.260	0.382
-619.361	-200.000	0.016	-0.159
-618.346	-200.000	-0.063	-0.314
-617.332	401.064	-0.093	-0.194
-616.317	28.054	-0.017	0.014
-615.303	41.411	0.150	0.135
-614.288	-25.172	0.198	0.117
-613.273	-200.000	0.018	0.206
-612.259	-132.564	-0.111	0.014
-611.244	10.046	0.030	0.022
-610.230	87.401	-0.357	-0.392
-609.215	202.765	-0.206	-0.316
-608.201	47.932	0.203	-0.188
-607.186	-200.000	0.003	-0.183
-606.171	-38.879	-0.075	-0.040
-605.157	800.000	0.049	-0.200
-604.142	66.070	-0.137	-0.138
-603.128	800.000	-0.073	0.274
-602.113	31.454	-0.231	-0.197
-601.098	-28.349	0.121	0.070
-600.084	132.972	-0.115	0.147
-599.069	-44.640	0.249	-0.123
-598.055	-143.361	-0.200	0.019
-597.040	19.768	0.222	-0.177
-596.025	-118.921	0.245	-0.043
-595.011	-126.312	-0.456	0.068
-593.996	800.000	-0.026	-0.103
-592.982	-11.603	0.361	-0.236
-591.967	-132.650	-0.497	-0.063
-590.952	-17.817	0.190	0.118
-589.938	272.154	0.127	-0.223
-588.923	-140.084	0.650	0.068
-587.909	-105.208	0.108	0.024
-586.894	-63.824	0.304	-0.124
-585.879	7.876	-0.133	-0.099
-584.865	-200.000	0.295	0.001
-583.850	148.280	0.124	0.166
-582.836	800.000	0.079	-0.234
-581.821	-200.000	0.077	0.480
-580.806	-142.803	0.314	-0.030
-579.792	-200.000	0.063	-0.314
-578.777	-200.000	-0.031	-0.276
-577.763	109.984	-0.155	-0.185
-576.748	-200.000	0.023	-0.282
-575.733	-10.692	-0.109	-0.072
-574.719	76.808	-0.101	0.107
-573.704	-28.556	-0.193	-0.110
-572.690	-119.211	0.163	-0.028
-571.675	-164.770	-0.098	0.004
-570.661	-19.497	0.333	0.205
-569.646	289.748	-0.039	0.071
-568.631	-130.779	-0.040	0.005
-567.617	-87.463	0.340	-0.102
-566.602	-200.000	-0.083	0.369
-565.588	101.640	0.205	-0.237
-564.573	-200.000	-0.009	0.059
-563.558	-67.212	-0.266	-0.104
-562.544	-30.914	0.170	-0.095
-561.529	-134.468	0.369	-0.045
-560.515	-37.861	-0.410	-0.216
-559.500	54.374	-0.428	0.409
-558.485	23.089	0.246	0.201
-557.471	-158.842	-0.167	0.009
-556.456	508.159	-0.066	-0.152
-555.442	800.000	-0.083	0.259
-554.427	-130.632	0.185	-0.025
-553.412	-200.000	-0.085	0.457
-552.398	-65.061	-0.058	0.023
-551.383	-115.817	0.163	-0.030
-550.369	198.833	0.097	-0.147
-549.354	-153.801	-0.062	0.004
-548.339	-42.640	0.133	-0.067
-547.325	617.903	0.039	0.098
-546.310	-68.582	0.122	-0.047
-545.296	800.000	-0.080	0.294
-544.281	-83.344	0.089	0.028
-543.266	640.993	-0.205	0.518
-542.252	-200.000	-0.106	0.487
-541.237	113.592	0.100	-0.120
-540.223	287.210	0.221	-0.396
-539.208	153.641	-0.174	-0.237
-538.193	-73.934	-0.165	0.059
-537.179	-200.000	0.048	0.373
-536.164	17.395	-0.046	0.036
-535.150	182.428	-0.123	-0.179
-534.135	-50.910	-0.233	0.109
-533.121	20.917	-0.363	-0.292
-532.106	14.903	0.239	-0.185
-531.091	188.548	0.064	0.094
-530.077	46.734	-0.139	-0.128
-529.062	-42.143	-0.179	-0.091
-528.048	-61.474	0.155	0.065
-527.033	121.039	0.106	0.131
-526.018	-47.059	0.146	-0.071
-525.004	-169.275	0.172	-0.006
-523.989	-6.693	0.226	-0.152
-522.975	800.000	0.020	-0.065
-521.960	158.491	-0.258	-0.354
-520.945	14.625	0.189	-0.146
-519.931	800.000	0.036	-0.136
-518.916	7.661	0.051	-0.038
-517.902	800.000	0.060	0.187
-516.887	24.629	0.068	0.056
-515.872	-88.858	-0.371	0.109
-514.858	70.697	0.157	-0.161
-513.843	-174.563	-0.536	0.015
-512.829	628.877	0.136	-0.341
-511.814	300.453	0.102	-0.187
-510.799	-200.000	-0.040	-0.270
-509.785	-55.237	-0.159	0.071
-508.770	-13.856	-0.290	0.185
-507.756	800.000	-0.045	-0.167
-506.741	-200.000	-0.049	0.374
-505.726	-200.000	-0.062	-0.345
-504.712	92.153	-0.225	-0.251
-503.697	2.486	0.389	0.279
-502.683	200.006	0.181	-0.274
-501.668	149.074	-0.096	0.129
-500.653	-122.957	0.403	-0.064
-499.639	-108.768	-0.163	-0.035
-498.624	18.686	0.068	0.054
-497.610	233.394	-0.216	0.352
-496.595	-84.174	0.097	0.030
-495.581	-200.000	-0.008	0.218
-494.566	208.158	0.183	0.282
-493.551	-166.612	-0.226	-0.009
-492.537	-200.000	0.058	-0.352
-491.522	99.171	-0.151	-0.173
-490.508	-200.000	0.060	0.405
-489.493	85.943	0.075	-0.081
-488.478	-61.607	-0.374	-0.155
-487.464	800.000	0.032	0.089
-486.449	74.615	0.380	-0.395
-485.435	-200.000	0.020	-0.090
-484.420	-31.223	-0.230	0.128
-483.405	-77.022	0.039	0.014
-482.391	454.294	-0.102	0.223
-481.376	800.000	0.072	0.253
-480.362	-200.000	0.007	0.161
-479.347	-94.475	-0.152	0.041
-478.332	180.971	0.098	0.142
-477.318	-65.383	0.440	-0.175
-476.303	-200.000	0.007	-0.219
-475.289	41.228	0.201	-0.180
-474.274	31.885	-0.100	-0.085
-473.259	-91.026	-0.388	0.110
-472.245	-200.000	0.012	-0.064
-471.230	800.000	0.154	-0.507
-470.216	-140.543	-0.223	0.023
-469.201	800.000	0.012	0.033
-468.186	164.447	-0.137	0.191
-467.172	-73.096	0.214	-0.078
-466.157	15.702	-0.224	0.174
-465.143	19.427	-0.036	0.028
-464.128	-20.258	0.244	-0.148
-463.113	-200.000	-0.043	0.198
-462.099	153.173	0.080	0.108
-461.084	-200.000	-0.051	0.417
-460.070	-35.424	-0.302	0.162
-459.055	36.951	0.232	-0.203
-458.040	300.713	-0.052	-0.095
-457.026	-5.961	-0.425	0.287
-456.011	561.667	-0.196	0.468
-454.997	-200.000	-0.036	-0.302
-453.982	108.630	-0.185	-0.219
-452.968	-83.783	-0.249	-0.078
-451.953	47.227	-0.270	0.248
-450.938	800.000	0.091	0.339
-449.924	577.440	0.118	-0.284
-448.909	424.359	0.019	0.040
-447.895	53.543	0.279	-0.264
-446.880	800.000	0.013	-0.041
-445.865	-97.011	0.517	-0.134
-444.851	44.809	0.170	0.155
-443.836	51.184	0.196	0.184
-442.822	45.213	0.265	-0.242
-441.807	-11.815	-0.128	0.083
-440.792	-20.887	0.189	-0.115
-439.778	800.000	0.024	-0.092
-438.763	81.903	-0.084	-0.089
-437.749	15.494	0.231	0.179
-436.734	800.000	-0.058	-0.242
-435.719	-86.101	0.118	0.036
-434.705	-200.000	0.002	0.132
-433.690	772.225	0.110	-0.295
-432.676	800.000	-0.038	-0.108
-431.661	87.675	-0.103	-0.112
-430.646	-74.031	0.626	0.224
-429.632	-200.000	0.047	0.303
-428.617	800.000	0.042	0.152
-427.603	125.667	-0.149	-0.186
-426.588	328.118	-0.075	0.142
-425.573	-98.177	0.066	-0.017
-424.559	-137.647	-0.166	0.018
-423.544	-82.638	-0.428	0.137
-422.530	-74.838	-0.102	-0.036
-421.515	389.493	-0.070	0.144
-420.500	-152.162	0.286	-0.020
-419.486	800.000	0.028	0.120
-418.471	-145.240	0.332	-0.030
-417.457	212.799	0.177	0.276
-416.442	-52.535	0.237	0.108
-415.428	-51.732	0.087	-0.040
-414.413	21.038	-0.226	0.181
-413.398	-69.384	0.251	-0.095
-412.384	398.877	0.209	0.432
-411.369	-33.613	0.322	0.176
-410.355	202.146	-0.156	-0.237
-409.340	-200.000	0.061	-0.407
-408.325	29.695	0.252	0.212
-407.311	800.000	0.089	0.363
-406.296	269.960	0.070	0.121
-405.282	-200.000	-0.001	-0.056
-404.267	-134.000	0.215	0.026
-403.252	-11.510	-0.102	0.066
-402.238	-200.000	-0.034	0.240
-401.223	-135.605	0.135	0.016
-400.209	-1.704	-0.200	0.139
-399.194	64.584	0.038	0.038
-398.179	208.932	0.145	0.223
-397.165	-188.959	-0.356	0.004
-396.150	-200.000	-0.013	0.219
-395.136	132.278	0.081	0.103
-394.121	107.533	-0.131	0.154
-393.106	-32.576	0.206	0.113
-392.092	387.998	0.040	-0.081
-391.077	-78.259	-0.218	-0.074
-390.063	42.161	-0.218	0.195
-389.048	-24.390	0.069	-0.041
-388.033	800.000	0.065	0.207
-387.019	-200.000	-0.029	-0.196
-386.004	-200.000	-0.002	-0.110
-384.990	-95.604	-0.395	0.104
-383.975	679.466	0.103	-0.263
-382.960	-200.000	0.012	-0.094
-381.946	-9.450	-0.117	0.077
-380.931	798.400	-0.035	0.096
-379.917	-200.000	0.005	-0.140
-378.902	-28.360	-0.154	0.088
-377.888	-200.000	-0.048	0.285
-376.873	-1.112	-0.239	-0.167
-375.858	336.918	-0.181	0.347
-374.844	-200.000	-0.019	-0.138
-373.829	800.000	-0.106	-0.422
-372.815	100.677	-0.169	-0.194
-371.800	-80.691	-0.146	-0.048
-370.785	-200.000	-0.001	-0.009
-369.771	160.705	-0.075	-0.103
-368.756	-143.841	0.306	0.028
-367.742	-200.000	-0.017	0.208
-366.727	278.822	0.035	-0.062
-365.712	95.419	-0.172	-0.193
-364.698	-162.689	-0.176	-0.009
-363.683	78.764	-0.087	-0.092
-362.669	45.837	-0.205	0.187
-361.654	-200.000	-0.014	0.170
-360.639	20.890	0.136	0.108
-359.625	-67.423	-0.245	0.095
-358.610	-200.000	0.037	-0.223
-357.596	-130.137	-0.299	-0.040
-356.581	-110.024	-0.123	-0.025
-355.566	-66.829	-0.138	0.054
-354.552	-200.000	-0.017	0.248
-353.537	109.912	0.201	0.238
-352.523	-69.346	0.072	-0.027
-351.508	-66.012	-0.171	-0.067
-350.493	-64.480	-0.186	-0.075
-349.479	0.887	-0.145	-0.102
-348.464	-200.000	-0.044	-0.250
-347.450	800.000	-0.040	-0.170
-346.435	726.819	0.065	0.170
-345.420	800.000	-0.045	-0.142
-344.406	-200.000	-0.037	-0.193
-343.391	268.913	0.148	-0.255
-342.377	-67.361	0.171	0.066
-341.362	800.000	-0.013	0.046
-340.348	222.489	0.046	-0.072
-339.333	69.086	0.054	0.055
-338.318	355.476	-0.038	0.074
-337.304	-157.975	0.131	0.008
-336.289	16.528	0.088	-0.069
-335.275	28.879	0.100	-0.083
-334.260	-200.000	-0.004	0.081
-333.245	319.267	0.140	0.261
-332.231	-48.178	0.152	0.072
-331.216	-64.911	-0.172	-0.068
-330.202	-200.000	-0.047	-0.376
-329.187	92.287	-0.191	-0.212
-328.172	-106.055	-0.320	0.071
-327.158	86.766	0.098	0.106
-326.143	121.828	-0.233	0.286
-325.129	-200.000	0.051	0.407
-324.114	800.000	-0.058	0.212
-323.099	124.281	-0.277	-0.342
-322.085	800.000	0.085	0.281
-321.070	800.000	0.030	-0.125
-320.056	-54.754	-0.279	-0.124
-319.041	-99.999	-0.167	0.041
-318.026	59.978	0.045	-0.043
-317.012	-115.274	0.050	0.009
-315.997	-51.609	0.313	0.144
-314.983	-105.687	0.398	0.088
-313.968	195.686	-0.073	0.109
-312.953	47.546	0.044	0.041
-311.939	-143.504	0.094	0.009
-310.924	507.080	0.058	0.132
-309.910	414.639	0.191	0.399
-308.895	225.628	-0.059	0.093
-307.880	-200.000	0.001	0.175
-306.866	800.000	0.049	0.133
-305.851	-64.240	0.331	-0.133
-304.837	494.617	0.016	-0.036
-303.822	-18.373	-0.381	-0.233
-302.807	168.588	0.025	0.035
-301.793	138.960	0.135	-0.174
-300.778	-200.000	-0.014	-0.067
-299.764	-200.000	0.006	0.092
-298.749	-200.000	0.007	0.035
-297.735	-200.000	0.026	-0.149
-296.720	-55.113	0.112	-0.049
-295.705	28.960	-0.037	-0.031
-294.691	-107.836	-0.173	-0.037
-293.676	173.650	-0.072	0.102
-292.662	-200.000	-0.006	0.055
-291.647	-11.840	-0.164	-0.106
-290.632	-147.426	-0.243	0.020
-289.618	-125.543	0.398	-0.059
-288.603	-200.000	0.014	0.214
-287.589	-77.261	-0.398	-0.136
-286.574	-16.881	0.199	0.123
-285.559	-79.936	0.135	-0.044
-284.545	-200.000	-0.008	-0.234
-283.530	-117.319	0.103	-0.018
-282.516	-31.145	-0.168	0.093
-281.501	635.415	-0.053	-0.131
-280.486	-88.601	0.408	-0.119
-279.472	-200.000	0.045	-0.357
-278.457	-155.847	0.120	-0.008
-277.443	800.000	0.024	-0.073
-276.428	98.148	-0.020	0.023
-275.413	-16.724	-0.101	-0.063
-274.399	301.461	-0.052	0.093
-273.384	3.046	0.170	0.121
-272.370	-200.000	-0.002	-0.026
-271.355	800.000	0.079	0.277
-270.340	-109.254	0.197	-0.041
-269.326	800.000	0.038	-0.116
-268.311	-200.000	-0.055	0.292
-267.297	-12.258	-0.132	0.085
-266.282	-131.780	0.221	-0.028
-265.267	-29.895	0.171	-0.096
-264.253	-102.503	-0.270	-0.063
-263.238	-77.738	0.240	0.081
-262.224	-200.000	-0.004	0.031
-261.209	18.764	-0.137	0.108
-260.195	-200.000	0.063	-0.275
-259.180	-76.597	-0.167	0.057
-258.165	125.936	-0.199	-0.247
-257.151	88.591	0.045	0.049
-256.136	-155.597	-0.371	-0.023
-255.122	-60.257	0.374	0.156
-254.107	547.571	-0.118	-0.276
-253.092	-70.166	-0.275	-0.103
-252.078	-33.549	0.173	0.093
-251.063	226.805	0.138	0.220
-250.049	-56.165	0.136	0.059
-249.034	-78.061	0.152	0.051
-248.019	-200.000	-0.102	0.458
-247.005	-200.000	0.010	0.103
-245.990	-126.063	-0.139	-0.020
-244.976	-33.450	0.262	0.142
-243.961	-200.000	-0.016	0.253
-242.946	73.219	-0.138	0.141
-241.932	-101.141	-0.461	0.111
-240.917	-132.308	-0.345	-0.044
-239.903	163.111	0.149	-0.205
-238.888	800.000	-0.056	-0.181
-237.873	-200.000	0.012	0.095
-236.859	144.343	0.104	-0.136
-235.844	-162.137	-0.262	-0.013
-234.830	-120.472	0.233	-0.039
-233.815	158.641	-0.171	0.233
-232.800	210.527	0.075	0.115
-231.786	-51.041	0.116	-0.054
-230.771	291.552	-0.103	-0.184
-229.757	-58.377	0.397	-0.169
-228.742	-200.000	-0.028	-0.206
-227.727	-154.011	-0.173	-0.012
-226.713	592.242	0.123	-0.297
-225.698	-151.590	0.278	-0.020
-224.684	67.437	-0.075	-0.075
-223.669	-81.381	-0.470	-0.152
-222.655	70.705	-0.211	-0.214
-221.640	155.985	0.096	-0.130
-220.625	300.332	-0.178	-0.321
-219.611	370.507	0.116	-0.231
-218.596	191.433	-0.103	-0.153
-217.582	190.350	-0.138	0.203
-216.567	-62.024	0.187	0.076
-215.552	39.852	-0.165	-0.145
-214.538	-199.381	0.162	0.001
-213.523	395.507	-0.024	0.049
-212.509	-200.000	0.045	0.271
-211.494	127.294	-0.110	-0.136
-210.479	-76.961	-0.206	0.070
-209.465	-86.225	-0.239	0.072
-208.450	800.000	-0.077	-0.210
-207.436	-200.000	0.079	-0.372
-206.421	5.027	0.207	-0.149
-205.406	49.181	0.272	0.250
-204.392	-24.963	-0.126	-0.073
-203.377	757.550	-0.085	-0.225
-202.363	650.552	0.036	0.090
-201.348	800.000	-0.012	-0.034
-200.333	-200.000	0.022	0.176
-199.319	-88.274	-0.270	0.079
-198.304	192.246	-0.122	-0.180
-197.290	-47.788	-0.265	0.126
-196.275	-119.918	0.216	0.036
-195.260	-200.000	0.004	-0.063
-194.246	800.000	0.040	-0.147
-193.231	64.744	-0.225	0.222
-192.217	-84.834	0.101	0.031
-191.202	-25.197	0.342	-0.198
-190.187	-53.448	0.225	0.101
-189.173	-200.000	-0.018	0.194
-188.158	-19.603	-0.207	-0.126
-187.144	-164.830	-0.219	-0.010
-186.129	-143.206	0.411	0.039
-185.114	-65.664	0.317	-0.124
-184.100	146.991	-0.053	-0.069
-183.085	-200.000	-0.012	0.191
-182.071	-160.574	0.277	-0.014
-181.056	-157.029	-0.120	0.007
-180.042	800.000	-0.107	-0.308
-179.027	100.201	0.269	-0.305
-178.012	-70.130	-0.053	0.020
-176.998	800.000	-0.088	0.276
-175.983	-74.483	-0.264	0.093
-174.969	237.286	-0.047	0.077
-173.954	-200.000	-0.026	0.195
-172.939	62.316	0.150	0.146
-171.925	800.000	0.037	0.156
-170.910	96.087	0.089	-0.099
-169.896	140.780	0.126	-0.163
-168.881	-18.819	0.223	0.135
-167.866	800.000	-0.037	0.145
-166.852	-98.840	0.169	0.042
-165.837	800.000	0.092	0.372
-164.823	-195.328	-0.228	0.002
-163.808	-90.290	-0.099	0.028
-162.793	800.000	0.058	0.245
-161.779	-141.951	0.135	-0.013
-160.764	-19.842	0.162	-0.098
-159.750	72.525	0.099	-0.101
-158.735	25.573	-0.052	0.042
-157.720	28.311	0.168	0.139
-156.706	0.557	-0.277	0.194
-155.691	800.000	0.096	0.313
-154.677	-89.777	-0.037	-0.010
-153.662	-200.000	0.046	0.389
-152.647	-17.086	-0.268	-0.165
-151.633	216.313	-0.066	-0.103
-150.618	800.000	0.138	-0.448
-149.604	-140.830	0.282	-0.028
-148.589	-88.742	0.088	0.025
-147.574	-200.000	0.003	0.196
-146.560	-200.000	0.000	0.050
-145.545	262.280	0.074	0.125
-144.531	-142.923	-0.047	-0.004
-143.516	800.000	0.039	0.116
-142.502	800.000	-0.080	-0.241
-141.487	-25.020	0.103	0.059
-140.472	-74.585	0.284	-0.100
-139.458	590.117	-0.046	0.110
-138.443	379.601	0.173	0.346
-137.429	-36.318	0.338	-0.178
-136.414	-128.354	-0.182	0.025
-135.399	14.273	-0.057	-0.044
-134.385	-150.816	0.159	0.012
-133.370	-200.000	-0.004	0.375
-132.356	-2.489	-0.312	0.213
-131.341	-200.000	0.008	0.162
-130.326	404.298	0.121	-0.248
-129.312	-62.275	0.074	0.030
-128.297	-90.078	-0.208	-0.059
-127.283	-142.386	0.240	0.023
-126.268	120.241	-0.213	-0.258
-125.253	34.339	-0.159	-0.135
-124.239	800.000	-0.036	0.115
-123.224	398.247	-0.043	-0.089
-122.210	-100.122	0.146	0.035
-121.195	-18.788	-0.071	0.043
-120.180	269.160	0.042	0.071
-119.166	4.050	-0.163	0.116
-118.151	-200.000	-0.040	-0.181
-117.137	391.997	0.115	-0.233
-116.122	25.407	-0.144	0.117
-115.107	-158.195	0.335	0.019
-114.093	800.000	0.087	-0.280
-113.078	557.667	0.066	-0.156
-112.064	-200.000	-0.003	-0.134
-111.049	800.000	0.059	-0.248
-110.034	89.854	-0.251	0.273
-109.020	-127.236	-0.259	0.037
-108.005	-104.128	0.280	-0.063
-106.991	800.000	-0.070	-0.250
-105.976	-19.200	-0.447	-0.270
-104.962	-185.793	-0.098	0.001
-103.947	364.935	0.084	-0.164
-102.932	122.242	-0.086	-0.104
-101.918	-31.641	0.351	-0.192
-100.903	800.000	0.125	-0.352
-99.889	-200.000	0.000	0.235
-98.874	64.165	-0.184	-0.181
-97.859	69.118	0.207	0.207
-96.845	0.121	0.076	0.052
-95.830	-105.897	0.398	-0.087
-94.816	20.194	0.023	0.018
-93.801	-79.898	0.222	-0.073
-92.786	456.271	-0.036	0.078
-91.772	800.000	0.091	-0.305
-90.757	455.764	-0.105	-0.228
-89.743	800.000	-0.092	0.283
-88.728	247.535	-0.097	0.160
-87.713	-51.977	0.220	0.100
-86.699	800.000	0.047	-0.199
-85.684	2.640	0.187	0.132
-84.670	800.000	-0.085	0.330
-83.655	-200.000	-0.056	-0.000
-82.640	-94.602	0.206	-0.054
-81.626	47.422	0.241	0.219
-80.611	349.424	-0.103	-0.199
-79.597	-200.000	-0.040	0.334
-78.582	143.256	-0.116	-0.150
-77.567	-47.883	0.332	-0.156
-76.553	-117.035	-0.180	-0.032
-75.538	-153.773	0.256	0.017
-74.524	5.739	-0.320	0.230
-73.509	-15.315	-0.036	0.022
-72.494	-157.272	0.246	0.014
-71.480	-150.486	0.059	-0.004
-70.465	-142.048	-0.401	0.039
-69.451	-42.932	0.059	0.029
-68.436	-139.272	-0.158	-0.017
-67.422	-4.609	-0.115	-0.077
-66.407	-100.947	-0.235	-0.056
-65.392	-111.939	0.138	-0.027
-64.378	72.690	-0.262	0.266
-63.363	-86.275	0.446	-0.134
-62.349	-165.885	-0.243	-0.010
-61.334	9.757	-1.395	-1.029
-60.319	55.048	0.542	0.510
-59.305	800.000	-0.458	-1.405
-58.290	76.133	1.253	1.290
-57.276	527.447	0.700	1.605
-56.261	-200.000	134.954	683.495
-55.246	338.770	1677.728	3177.375
-54.232	134.627	2804.950	3539.527
-53.217	87.282	2195.522	2361.136
-52.203	31.229	1711.113	1428.024
-51.188	24.092	1534.117	1231.116
-50.173	22.433	1511.947	1201.961
-49.159	46.563	1588.467	1433.314
-48.144	43.308	1598.460	1419.436
-47.130	24.235	1546.366	1241.747
-46.115	21.440	1530.479	1209.633
-45.100	21.199	1527.174	1205.310
-44.086	21.160	1525.092	1203.353
-43.071	21.172	1523.595	1202.204
-42.057	21.027	1522.481	1200.279
-41.042	21.103	1520.551	1199.236
-40.027	20.977	1519.376	1197.395
-39.013	21.089	1517.280	1196.464
-37.998	21.013	1516.655	1195.407
-36.984	21.005	1515.381	1194.295
-35.969	21.053	1513.919	1193.424
-34.954	21.083	1512.144	1192.181
-33.940	21.024	1511.086	1190.899
-32.925	21.089	1509.663	1190.173
-31.911	21.070	1508.535	1189.111
-30.896	21.220	1507.088	1188.940
-29.881	21.212	1505.604	1187.669
-28.867	21.201	1504.220	1186.456
-27.852	21.134	1503.315	1185.242
-26.838	21.165	1501.509	1183.976
-25.823	21.220	1499.956	1183.079
-24.809	21.311	1498.161	1182.233
-23.794	21.134	1497.358	1180.358
-22.779	21.084	1496.248	1179.096
-21.765	21.154	1495.419	1178.870
-20.750	21.213	1493.994	1178.098
-19.736	21.181	1493.078	1177.112
-18.721	21.201	1492.047	1176.390
-17.706	21.138	1491.016	1175.105
-16.692	21.024	1490.210	1173.657
-15.677	21.192	1488.877	1173.689
-14.663	21.158	1487.825	1172.586
-13.648	21.129	1486.653	1171.416
-12.633	21.147	1485.988	1170.967
-11.619	21.170	1485.009	1170.306
-10.604	21.139	1484.398	1169.569
-9.590	21.054	1483.442	1168.202
-8.575	21.137	1482.512	1167.978
-7.560	21.157	1481.525	1167.284
-6.546	21.109	1480.871	1166.404
-5.531	21.072	1479.888	1165.334
-4.517	21.137	1478.967	1164.999
-3.502	21.211	1477.524	1164.310
-2.487	21.105	1476.534	1162.774
-1.473	21.082	1475.628	1161.861
-0.458	21.053	1474.546	1160.771
0.556	20.183	1464.129	1148.820
1.571	16.982	1440.011	1108.903
2.586	13.575	1377.508	1039.337
3.600	11.864	1292.961	965.381
4.615	10.984	1249.137	927.564
5.629	9.686	1192.227	878.160
6.644	5.047	1111.884	795.295
7.659	1.297	1077.503	752.080
8.673	0.832	1072.444	746.193
9.688	0.622	1069.110	742.774
10.702	0.575	1067.509	741.365
11.717	0.651	1065.459	740.246
12.731	2.121	1065.196	747.194
13.746	7.637	1072.713	779.523
14.761	14.053	1080.941	817.064
15.775	17.068	1084.737	834.707
16.790	17.009	1083.520	833.406
17.804	15.940	1081.825	826.783
18.819	15.133	1079.784	821.195
19.834	14.783	1078.031	818.079
20.848	14.643	1077.123	816.632
21.863	14.325	1076.416	814.470
22.877	14.052	1075.605	812.450
23.892	13.707	1075.169	810.361
24.907	13.693	1073.972	809.322
25.921	13.693	1073.395	808.814
26.936	13.798	1072.298	808.429
27.950	13.724	1072.040	807.801
28.965	13.890	1070.885	807.664
29.980	13.929	1070.376	807.402
30.994	13.889	1069.313	806.334
32.009	14.012	1068.048	805.904
33.023	13.946	1067.664	805.222
34.038	13.996	1066.950	804.854
35.053	13.911	1066.241	803.836
36.067	13.894	1064.883	802.659
37.082	13.916	1064.252	802.221
38.096	13.905	1063.584	801.595
39.111	13.890	1062.858	800.903
40.126	13.874	1061.744	799.913
41.140	13.804	1060.840	798.826
42.155	13.741	1060.060	797.865
43.169	13.783	1058.827	797.067
44.184	13.769	1057.690	796.077
45.199	13.815	1056.384	795.242
46.213	13.723	1055.831	794.316
47.228	13.807	1054.220	793.432
48.242	13.879	1053.021	792.806
49.257	13.935	1052.272	792.439
50.271	13.880	1051.399	791.446
51.286	13.958	1050.791	791.292
52.301	13.857	1050.472	790.502
53.315	13.957	1049.218	789.964
54.330	13.959	1048.300	789.212
55.344	13.875	1047.420	788.080
56.359	13.885	1046.351	787.256
57.374	13.794	1045.629	786.212
58.388	13.806	1044.931	785.672
59.403	13.777	1044.121	784.855
60.417	13.751	1043.495	784.193
61.432	13.704	1042.704	783.307
62.447	13.820	1041.385	782.797
63.461	13.690	1041.188	781.964
64.476	13.762	1040.257	781.534
65.490	13.659	1039.376	780.319
66.505	13.797	1038.165	779.990
67.520	13.794	1037.511	779.413
68.534	13.838	1036.561	778.841
69.549	13.686	1036.208	777.793
70.563	13.786	1035.090	777.354
71.578	13.829	1034.325	776.909
72.593	13.726	1033.671	775.867
73.607	13.809	1032.398	775.231
74.622	13.807	1031.504	774.484
75.636	13.700	1030.835	773.411
76.651	13.749	1030.301	773.173
77.666	13.739	1029.410	772.387
78.680	13.752	1028.552	771.739
79.695	13.669	1028.195	771.015
80.709	13.619	1027.457	770.162
81.724	13.733	1026.454	769.872
82.739	13.769	1025.644	769.363
83.753	13.872	1024.693	769.056
84.768	13.897	1023.912	768.521
85.782	13.904	1023.000	767.798
86.797	13.987	1022.682	767.876
87.812	13.969	1022.040	767.242
88.826	13.899	1021.228	766.244
89.841	13.798	1020.179	764.923
90.855	13.833	1019.228	764.302
91.870	13.924	1018.259	763.928
92.884	13.891	1017.936	763.466
93.899	13.858	1017.168	762.668
94.914	13.926	1016.111	762.122
95.928	13.935	1015.872	761.916
96.943	14.075	1015.028	761.856
97.957	13.978	1013.976	760.558
98.972	13.896	1013.292	759.603
99.987	14.107	1012.317	759.768
101.001	13.957	1011.697	758.549
102.016	14.117	1010.823	758.557
103.030	14.014	1009.898	757.326
104.045	13.945	1008.818	756.137
105.060	13.958	1007.967	755.489
106.074	13.783	1007.289	754.122
107.089	13.783	1006.395	753.385
108.103	13.791	1005.194	752.454
109.118	13.805	1004.223	751.723
110.133	13.922	1003.474	751.628
111.147	13.979	1002.607	751.170
112.162	13.865	1001.822	750.000
113.176	13.972	1000.461	749.395
114.191	14.013	999.992	749.165
115.206	13.968	998.966	748.127
116.220	13.968	998.316	747.572
117.235	13.880	997.294	746.346
118.249	13.974	996.301	745.959
119.264	13.926	995.452	745.040
120.279	13.896	994.947	744.464
121.293	14.062	993.434	744.011
122.308	13.882	993.242	742.993
123.322	13.973	992.368	742.680
124.337	13.859	991.149	741.195
125.352	13.790	989.911	739.897
126.366	13.778	988.984	739.085
127.381	13.924	987.832	738.806
128.395	13.866	986.821	737.727
129.410	13.725	986.171	736.552
130.424	13.918	984.690	736.234
131.439	13.748	984.286	735.116
132.454	13.771	983.642	734.669
133.468	13.871	982.899	734.492
134.483	14.027	981.827	734.316
135.497	13.895	981.400	733.348
136.512	13.963	980.538	732.941
137.527	13.901	979.929	732.145
138.541	13.958	979.169	731.766
139.556	13.817	978.500	730.578
140.570	13.945	977.938	730.658
141.585	14.036	976.767	730.120
142.600	14.021	975.730	729.214
143.614	14.095	975.206	729.082
144.629	14.201	974.260	728.772
145.643	14.186	973.632	728.175
146.658	14.062	973.177	727.226
147.673	14.130	971.690	726.348
148.687	14.044	970.900	725.317
149.702	14.017	970.226	724.631
150.716	14.142	969.389	724.487
151.731	14.084	968.618	723.595
152.746	14.113	967.286	722.662
153.760	13.986	967.199	721.980
154.775	14.013	966.539	721.544
155.789	14.146	965.429	721.227
156.804	14.170	964.827	720.817
157.819	14.065	963.934	719.633
158.833	14.061	963.706	719.380
159.848	14.201	962.628	719.116
160.862	14.373	961.622	719.045
161.877	14.245	960.994	717.960
162.892	14.389	959.912	717.706
163.906	14.109	959.318	715.992
164.921	14.092	958.842	715.502
165.935	14.196	957.320	714.749
166.950	14.222	957.210	714.717
167.964	14.290	955.978	714.023
168.979	14.258	954.771	712.925
169.994	14.201	954.097	712.112
171.008	14.258	953.113	711.559
172.023	14.223	952.036	710.544
173.037	14.229	951.743	710.287
174.052	14.358	950.710	710.005
175.067	14.340	950.456	709.674
176.081	14.230	949.535	708.455
177.096	14.167	948.789	707.568
178.110	14.316	947.974	707.531
179.125	14.417	946.905	707.098
180.140	14.475	946.115	706.694
181.154	14.387	945.356	705.690
182.169	14.453	944.857	705.533
183.183	14.535	943.891	705.097
184.198	14.429	943.510	704.301
185.213	14.576	942.510	704.116
186.227	14.477	942.220	703.419
187.242	14.460	941.809	702.978
188.256	14.550	940.973	702.669
189.271	14.542	940.548	702.255
190.286	14.596	939.763	701.834
191.300	14.624	938.486	700.938
192.315	14.352	938.453	699.707
193.329	14.333	937.507	698.862
194.344	14.401	937.007	698.712
195.359	14.497	935.749	698.113
196.373	14.402	935.504	697.472
197.388	14.548	935.006	697.649
198.402	14.508	935.014	697.427
199.417	14.620	934.026	697.094
200.432	14.708	933.701	697.159
201.446	14.710	933.267	696.779
202.461	14.673	933.027	696.387
203.475	14.737	932.463	696.171
204.490	14.622	931.583	694.974
205.504	14.823	930.607	695.017
206.519	14.807	929.750	694.251
207.534	14.737	928.957	693.308
208.548	14.721	928.090	692.533
209.563	14.883	927.140	692.435
210.577	14.830	927.024	692.068
211.592	14.835	926.194	691.405
212.607	14.915	925.778	691.363
213.621	15.064	925.002	691.339
214.636	14.907	924.536	690.282
215.650	14.956	923.919	689.961
216.665	14.987	923.142	689.450
217.680	15.005	922.652	689.096
218.694	15.008	922.216	688.724
219.709	15.059	921.302	688.186
220.723	15.001	920.759	687.483
221.738	14.847	920.478	686.581
222.753	15.012	919.634	686.568
223.767	15.100	918.139	685.751
224.782	15.029	917.807	685.151
225.796	15.034	917.343	684.765
226.811	15.131	916.528	684.493
227.826	15.141	915.584	683.766
228.840	15.160	915.310	683.581
229.855	15.197	914.426	683.008
230.869	15.137	913.871	682.291
231.884	15.071	913.263	681.509
232.899	15.053	912.408	680.735
233.913	15.056	911.817	680.249
234.928	15.058	911.005	679.588
235.942	15.113	910.394	679.296
236.957	15.139	909.926	678.992
237.972	15.125	909.256	678.373
238.986	15.133	908.332	677.660
240.001	15.309	907.401	677.616
241.015	15.174	906.794	676.558
242.030	15.227	906.351	676.379
243.045	15.346	905.511	676.175
244.059	15.212	904.959	675.162
245.074	15.274	904.414	674.945
246.088	15.202	903.776	674.121
247.103	15.292	903.527	674.235
248.117	15.271	902.520	673.342
249.132	15.255	902.254	673.018
250.147	15.339	901.635	672.832
251.161	15.370	900.930	672.372
252.176	15.543	899.859	672.208
253.190	15.461	899.493	671.547
254.205	15.542	899.211	671.601
255.220	15.625	898.166	671.090
256.234	15.540	897.552	670.235
257.249	15.598	896.945	669.950
258.263	15.642	896.614	669.822
259.278	15.573	895.771	668.859
260.293	15.773	895.336	669.269
261.307	15.660	894.828	668.380
262.322	15.645	894.171	667.772
263.336	15.797	893.516	667.827
264.351	15.758	893.094	667.297
265.366	15.848	891.872	666.681
266.380	15.727	891.704	666.018
267.395	15.811	890.861	665.661
268.409	15.897	890.073	665.353
269.424	15.828	889.477	664.575
270.439	15.847	888.565	663.912
271.453	15.835	887.824	663.253
272.468	15.905	886.888	662.771
273.482	15.820	886.302	661.937
274.497	15.854	886.386	662.076
275.512	16.028	884.776	661.498
276.526	15.815	884.537	660.427
277.541	15.840	883.957	660.031
278.555	15.854	883.330	659.561
279.570	15.876	882.538	658.996
280.585	15.917	881.945	658.655
281.599	16.089	881.448	658.898
282.614	16.084	880.627	658.209
283.628	16.129	879.825	657.727
284.643	16.222	879.371	657.689
285.657	16.034	879.652	657.107
286.672	16.093	878.586	656.485
287.687	16.035	878.059	655.807
288.701	16.063	877.725	655.609
289.716	16.072	877.033	655.068
290.730	16.238	876.264	655.080
291.745	16.150	875.628	654.206
292.760	16.183	875.000	653.806
293.774	16.183	874.170	653.129
294.789	16.107	873.991	652.644
295.803	16.284	873.240	652.708
296.818	16.220	872.581	651.910
297.833	16.205	871.684	651.127
298.847	16.210	871.399	650.872
299.862	16.227	870.535	650.235
300.876	16.166	869.804	649.398
301.891	16.448	869.053	649.865
302.906	16.378	868.199	648.900
303.920	16.492	867.799	648.980
304.935	16.528	866.633	648.191
305.949	16.347	866.673	647.466
306.964	16.368	865.633	646.712
307.979	16.472	865.200	646.732
308.993	16.369	865.188	646.271
310.008	16.479	864.154	645.861
311.022	16.454	863.972	645.573
312.037	16.450	863.236	644.953
313.052	16.603	862.357	644.820
314.066	16.555	862.149	644.424
315.081	16.521	861.683	643.891
316.095	16.365	861.328	642.975
317.110	16.518	860.373	642.787
318.125	16.506	859.833	642.279
319.139	16.602	859.473	642.318
320.154	16.495	858.854	641.394
321.168	16.534	858.420	641.161
322.183	16.699	857.470	641.021
323.197	16.543	857.462	640.364
324.212	16.588	856.481	639.746
325.227	16.707	855.733	639.580
326.241	16.612	855.732	639.164
327.256	16.681	854.984	638.808
328.270	16.630	854.430	638.148
329.285	16.677	853.574	637.627
330.300	16.486	853.568	636.846
331.314	16.703	852.617	636.900
332.329	16.866	851.670	636.748
333.343	16.681	851.114	635.582
334.358	16.660	850.739	635.167
335.373	16.802	850.218	635.254
336.387	16.794	849.492	634.625
337.402	16.877	849.202	634.664
338.416	16.718	848.439	633.441
339.431	16.817	848.174	633.556
340.446	16.976	846.992	633.211
341.460	16.850	846.909	632.625
342.475	17.023	846.490	632.898
343.489	16.921	845.523	631.742
344.504	17.001	845.155	631.707
345.519	17.003	844.369	631.073
346.533	17.091	843.962	631.038
347.548	16.954	843.974	630.483
348.562	17.187	843.067	630.613
349.577	16.969	842.561	629.371
350.592	16.980	842.326	629.180
351.606	17.015	841.396	628.561
352.621	17.005	841.340	628.425
353.635	17.043	840.653	627.999
354.650	17.112	840.454	628.048
355.665	16.954	839.880	626.979
356.679	17.209	839.076	627.266
357.694	17.202	838.824	626.997
358.708	17.216	838.237	626.555
359.723	17.297	837.239	626.049
360.738	17.174	837.018	625.376
361.752	17.192	836.334	624.875
362.767	17.205	836.130	624.717
363.781	17.418	835.289	624.815
364.796	17.271	834.728	623.801
365.810	17.322	834.862	624.033
366.825	17.453	834.544	624.222
367.840	17.439	834.167	623.834
368.854	17.365	833.526	623.027
369.869	17.376	833.121	622.708
370.883	17.314	832.379	621.873
371.898	17.524	831.714	622.087
372.913	17.416	831.219	621.267
373.927	17.577	830.858	621.530
374.942	17.504	830.022	620.583
375.956	17.291	829.521	619.380
376.971	17.441	828.967	619.458
377.986	17.587	828.004	619.212
379.000	17.617	827.492	618.884
380.015	17.750	827.005	618.948
381.029	17.570	826.910	618.168
382.044	17.632	826.152	617.773
383.059	17.624	825.734	617.377
384.073	17.576	825.309	616.830
385.088	17.648	824.783	616.641
386.102	17.597	824.035	615.844
387.117	17.625	823.757	615.684
388.132	17.721	823.020	615.424
389.146	17.612	822.822	614.829
390.161	17.733	822.251	614.783
391.175	17.638	822.027	614.219
392.190	17.792	821.521	614.342
393.205	17.740	821.019	613.727
394.219	17.766	820.419	613.316
395.234	17.709	819.943	612.700
396.248	17.866	819.068	612.555
397.263	17.688	819.126	611.908
398.278	17.728	818.665	611.653
399.292	17.716	817.970	611.034
400.307	17.707	817.889	610.890
401.321	17.775	817.119	610.502
402.336	17.762	816.885	610.226
403.350	17.945	816.281	610.376
404.365	17.954	815.902	610.070
405.380	17.960	815.559	609.781
406.394	17.857	815.295	609.162
407.409	17.939	814.589	608.874
408.423	17.985	814.305	608.770
409.438	17.921	813.715	608.050
410.453	18.026	813.364	608.108
411.467	18.056	812.855	607.779
412.482	18.071	812.608	607.593
413.496	17.908	812.108	606.587
414.511	18.032	811.628	606.615
415.526	18.100	811.292	606.550
416.540	18.171	810.826	606.403
417.555	18.286	809.995	606.135
418.569	18.063	810.353	605.557
419.584	18.153	809.446	605.146
420.599	18.109	809.236	604.779
421.613	116.453	1300.111	1493.593
422.628	100.788	1371.563	1493.678
