DTS Sentinel unit serial number:	SN413079Multiplexer serial number:	ORYXHardware model number:	OX4-SRSoftware version number:	ORYX F/W v4.00 Oryx Data Collector v3.7.2.0data status	okinstallation	princeton_trtdifferential loss correction	single-endedforward channel	channel 3reverse channel	N/Adate	2019/09/17time	21:16:34forward acquisition time	60.00reverse acquisition time	0.00gamma	496.2192k internal	0.2340k external	0.2340temperature offset calibration	0.9957default loss term (dB/km)	0.3790temperature slope calibration	1.0000multiplexer offset coefficient	1.0000multiplexer slope coefficient	1.0000fibre end	0.00T internal ref (°C)	27.78T ext. ref 1 (°C)	0.19T ext. ref 2 (°C)	19.62length (m)	temperature (°C)	Stokes	anti-Stokes-747.200	50.807	-0.089	-0.084
-746.185	-29.822	-0.143	-0.082
-745.171	-112.441	-0.299	-0.060
-744.156	320.075	0.203	0.387
-743.142	-58.775	-0.251	0.109
-742.127	-47.039	-0.115	-0.056
-741.112	458.072	-0.133	0.295
-740.098	122.894	-0.265	-0.333
-739.083	112.427	0.120	0.146
-738.069	-128.364	-0.140	0.020
-737.054	-97.721	0.019	-0.005
-736.039	16.172	-0.389	-0.307
-735.025	-15.019	0.494	-0.317
-734.010	-200.000	0.062	-0.336
-732.996	-84.476	-0.361	-0.114
-731.981	-200.000	0.036	0.310
-730.966	130.868	-0.217	-0.278
-729.952	63.851	0.175	-0.177
-728.937	-200.000	0.276	0.001
-727.923	-18.234	-0.273	-0.171
-726.908	-54.040	-0.425	-0.194
-725.894	-176.696	-0.293	0.007
-724.879	-200.000	-0.009	-0.251
-723.864	-45.012	-0.137	-0.068
-722.850	128.320	0.051	0.065
-721.835	178.715	-0.042	0.061
-720.821	-200.000	-0.001	0.179
-719.806	-54.857	0.238	-0.108
-718.791	449.636	-0.205	-0.453
-717.777	73.400	-0.040	-0.042
-716.762	33.863	0.193	-0.168
-715.748	123.513	0.044	-0.055
-714.733	-200.000	-0.061	0.289
-713.718	800.000	-0.029	-0.126
-712.704	647.845	-0.077	-0.198
-711.689	-93.736	-0.042	0.012
-710.675	800.000	0.069	0.267
-709.660	39.396	0.090	-0.081
-708.645	-200.000	0.003	-0.157
-707.631	800.000	0.018	0.069
-706.616	800.000	-0.065	0.213
-705.602	-200.000	0.044	0.286
-704.587	35.555	-0.190	-0.167
-703.572	306.049	0.154	0.286
-702.558	-200.000	-0.017	0.086
-701.543	10.024	0.197	0.150
-700.529	-200.000	0.041	-0.273
-699.514	800.000	-0.124	-0.414
-698.499	-200.000	-0.083	-0.377
-697.485	261.870	-0.009	0.016
-696.470	-200.000	0.025	0.224
-695.456	800.000	-0.110	0.330
-694.441	-100.206	0.178	-0.044
-693.426	383.340	-0.247	0.509
-692.412	-5.021	-0.150	0.103
-691.397	-200.000	-0.006	-0.112
-690.383	-200.000	-0.013	-0.145
-689.368	-20.615	0.041	0.025
-688.354	-168.843	-0.151	-0.006
-687.339	142.118	-0.133	-0.176
-686.324	136.611	-0.259	-0.338
-685.310	-96.905	0.400	-0.105
-684.295	258.729	-0.229	-0.395
-683.281	203.384	-0.119	-0.185
-682.266	541.099	-0.086	0.204
-681.251	-200.000	0.028	0.160
-680.237	9.234	0.174	0.131
-679.222	126.418	0.032	0.040
-678.208	800.000	0.046	0.148
-677.193	800.000	0.078	-0.233
-676.178	387.291	0.060	0.123
-675.164	13.437	-0.077	-0.060
-674.149	124.364	0.148	-0.186
-673.135	-200.000	-0.005	-0.217
-672.120	-102.960	-0.151	-0.036
-671.105	67.212	0.171	0.174
-670.091	237.729	-0.066	-0.109
-669.076	182.083	-0.203	0.298
-668.062	-47.146	-0.514	-0.251
-667.047	266.673	0.062	-0.108
-666.032	-200.000	0.007	0.152
-665.018	303.379	-0.288	0.534
-664.003	23.896	-0.232	-0.191
-662.989	-178.850	-0.448	0.010
-661.974	-27.462	0.396	-0.230
-660.959	295.238	-0.072	-0.131
-659.945	287.709	0.096	0.173
-658.930	116.336	-0.196	-0.239
-657.916	-7.728	0.257	-0.174
-656.901	-131.956	0.331	-0.043
-655.886	-8.895	-0.184	0.123
-654.872	218.659	-0.264	0.421
-653.857	-40.953	-0.459	0.237
-652.843	-102.814	0.100	0.024
-651.828	620.538	0.085	-0.213
-650.814	800.000	-0.032	0.108
-649.799	113.134	0.369	-0.447
-648.784	-118.691	0.445	-0.078
-647.770	-63.952	-0.161	-0.066
-646.755	261.214	0.130	0.224
-645.741	184.636	0.148	0.219
-644.726	118.834	-0.192	0.237
-643.711	241.251	0.206	-0.343
-642.697	-200.000	0.083	-0.439
-641.682	-138.001	-0.164	-0.018
-640.668	-200.000	-0.012	-0.353
-639.653	24.943	0.195	-0.161
-638.638	248.276	0.148	-0.251
-637.624	155.872	-0.100	-0.138
-636.609	-200.000	0.005	-0.179
-635.595	-124.148	-0.251	-0.039
-634.580	162.673	-0.121	0.170
-633.565	356.649	-0.072	0.142
-632.551	276.653	-0.129	-0.229
-631.536	398.355	-0.099	-0.208
-630.522	-83.211	-0.256	-0.082
-629.507	-78.530	0.251	-0.086
-628.492	108.875	-0.231	0.276
-627.478	800.000	0.064	0.246
-626.463	163.154	-0.214	-0.300
-625.449	567.753	0.017	0.042
-624.434	-138.576	-0.295	0.032
-623.419	-37.469	-0.218	-0.116
-622.405	-0.250	-0.057	0.041
-621.390	-200.000	0.049	-0.318
-620.376	55.164	0.111	0.107
-619.361	18.425	0.402	-0.320
-618.346	-155.618	0.107	-0.007
-617.332	-15.875	0.368	-0.234
-616.317	91.225	-0.041	0.046
-615.303	33.430	-0.220	0.191
-614.288	-200.000	0.082	0.381
-613.273	64.014	0.094	-0.095
-612.259	-137.556	-0.101	-0.011
-611.244	-59.199	-0.341	-0.147
-610.230	-166.041	-0.364	-0.015
-609.215	-200.000	0.011	0.244
-608.201	800.000	-0.020	-0.070
-607.186	-55.350	-0.368	-0.165
-606.171	-200.000	0.016	0.353
-605.157	407.313	0.134	-0.282
-604.142	139.754	-0.039	0.051
-603.128	63.490	0.116	0.117
-602.113	33.725	-0.135	-0.117
-601.098	-200.000	-0.030	0.189
-600.084	-76.273	-0.148	-0.052
-599.069	-200.000	0.083	0.368
-598.055	175.945	-0.066	0.096
-597.040	-50.374	0.296	-0.139
-596.025	139.943	0.023	-0.030
-595.011	-200.000	0.025	0.341
-593.996	-99.131	-0.130	0.033
-592.982	-200.000	-0.001	-0.141
-591.967	-200.000	0.046	-0.221
-590.952	343.149	0.154	0.301
-589.938	23.239	0.182	-0.149
-588.923	-0.745	-0.156	0.110
-587.909	428.944	-0.091	-0.197
-586.894	79.988	-0.383	0.410
-585.879	-142.533	0.072	-0.007
-584.865	385.928	0.161	-0.330
-583.850	781.308	-0.077	0.210
-582.836	119.885	-0.225	0.278
-581.821	-106.335	-0.203	-0.045
-580.806	208.892	-0.156	-0.244
-579.792	44.779	-0.094	0.086
-578.777	230.571	-0.023	0.038
-577.763	575.094	-0.088	-0.214
-576.748	-22.387	-0.114	-0.069
-575.733	73.199	-0.047	0.048
-574.719	-92.893	-0.130	-0.036
-573.704	490.320	0.131	0.298
-572.690	72.584	-0.162	0.168
-571.675	-200.000	-0.024	0.106
-570.661	364.308	-0.033	0.065
-569.646	130.138	-0.044	0.056
-568.631	-83.867	-0.242	0.077
-567.617	-58.287	-0.282	-0.122
-566.602	190.678	0.103	0.154
-565.588	-200.000	-0.001	-0.224
-564.573	-165.551	-0.139	0.006
-563.558	60.850	0.159	0.157
-562.544	-87.796	-0.219	-0.066
-561.529	-82.483	0.255	-0.083
-560.515	-81.862	0.128	0.042
-559.500	-200.000	0.026	0.321
-558.485	-17.839	0.114	0.071
-557.471	800.000	0.044	0.163
-556.456	-108.956	-0.243	0.052
-555.442	-43.172	-0.197	0.099
-554.427	-86.132	0.089	-0.027
-553.412	612.055	0.105	-0.263
-552.398	800.000	0.044	0.183
-551.383	-141.239	0.070	0.007
-550.369	141.120	-0.073	-0.096
-549.354	88.293	0.201	0.221
-548.339	289.801	0.126	0.227
-547.325	-145.165	-0.057	-0.005
-546.310	-37.481	0.120	0.064
-545.296	447.810	-0.008	0.018
-544.281	14.109	0.222	-0.172
-543.266	56.667	0.180	-0.174
-542.252	-69.284	-0.372	0.142
-541.237	253.709	0.186	-0.316
-540.223	-12.040	-0.152	-0.099
-539.208	800.000	0.006	0.023
-538.193	-158.611	-0.081	-0.005
-537.179	-51.527	0.214	0.099
-536.164	800.000	0.104	0.296
-535.150	-200.000	0.005	-0.282
-534.135	30.120	0.199	0.169
-533.121	-200.000	0.023	0.175
-532.106	-44.942	0.210	-0.104
-531.091	142.313	-0.080	0.105
-530.077	579.809	0.020	0.050
-529.062	-200.000	-0.065	-0.396
-528.048	-110.912	-0.319	-0.065
-527.033	-73.936	0.291	0.105
-526.018	-90.992	0.224	0.064
-525.004	-87.933	-0.381	-0.114
-523.989	800.000	-0.100	-0.287
-522.975	-200.000	0.019	0.142
-521.960	-69.091	0.185	-0.071
-520.945	-200.000	0.008	0.094
-519.931	188.423	-0.059	0.087
-518.916	-143.095	-0.044	-0.004
-517.902	800.000	-0.043	-0.165
-516.887	-42.360	0.090	-0.045
-515.872	-28.745	-0.303	-0.173
-514.858	-15.060	-0.286	0.182
-513.843	-68.900	-0.251	0.096
-512.829	109.560	-0.104	-0.124
-511.814	8.169	-0.361	-0.269
-510.799	-62.231	0.254	-0.105
-509.785	800.000	-0.064	0.188
-508.770	-25.852	0.229	-0.134
-507.756	441.871	-0.048	0.105
-506.741	-150.303	0.293	-0.022
-505.726	593.010	0.096	0.236
-504.712	-145.907	0.218	-0.019
-503.697	440.396	-0.079	-0.172
-502.683	257.573	0.193	0.330
-501.668	-90.057	-0.525	0.152
-500.653	-200.000	0.022	-0.347
-499.639	45.081	0.359	-0.328
-498.624	-83.549	0.091	-0.029
-497.610	-17.356	0.039	-0.025
-496.595	185.467	-0.335	0.494
-495.581	-78.407	0.282	-0.096
-494.566	-200.000	-0.016	0.100
-493.551	70.061	0.153	0.156
-492.537	-56.417	0.114	-0.050
-491.522	67.995	-0.133	-0.135
-490.508	135.134	0.065	-0.084
-489.493	419.065	-0.103	0.219
-488.478	-152.251	0.094	-0.007
-487.464	-200.000	-0.018	0.210
-486.449	65.869	0.223	-0.224
-485.435	-21.873	-0.110	0.067
-484.420	-131.798	-0.328	-0.043
-483.405	-20.742	0.213	0.130
-482.391	-132.820	-0.331	-0.042
-481.376	-91.935	0.455	-0.128
-480.362	-96.895	-0.051	-0.013
-479.347	-200.000	0.033	0.382
-478.332	-187.703	0.346	-0.005
-477.318	-97.958	-0.178	0.045
-476.303	0.203	-0.087	-0.062
-475.289	-200.000	0.001	0.052
-474.274	-48.225	0.137	-0.065
-473.259	260.194	0.189	0.324
-472.245	-200.000	0.023	-0.177
-471.230	-180.057	0.129	-0.003
-470.216	-88.902	0.202	0.059
-469.201	-181.877	-0.301	-0.006
-468.186	127.846	-0.156	0.197
-467.172	221.180	-0.120	-0.191
-466.157	-100.989	-0.165	-0.040
-465.143	-156.197	-0.217	-0.014
-464.128	-49.112	0.214	0.101
-463.113	-73.799	0.340	-0.123
-462.099	-145.867	-0.262	0.023
-461.084	45.524	0.070	0.064
-460.070	-99.597	0.182	0.045
-459.055	602.651	0.101	0.248
-458.040	-53.133	-0.139	-0.063
-457.026	-154.352	0.206	0.014
-456.011	114.642	0.213	-0.257
-454.997	-82.038	0.008	0.002
-453.982	-200.000	0.005	0.060
-452.968	689.971	0.081	-0.209
-451.953	-111.150	0.098	-0.020
-450.938	232.793	0.017	0.028
-449.924	110.183	-0.144	-0.171
-448.909	89.178	0.192	0.212
-447.895	-200.000	-0.032	-0.456
-446.880	-40.521	0.037	-0.019
-445.865	11.853	0.186	-0.141
-444.851	-113.827	-0.254	0.049
-443.836	134.972	-0.028	0.037
-442.822	-90.411	0.173	-0.050
-441.807	166.512	0.141	0.199
-440.792	-200.000	-0.009	-0.351
-439.778	103.044	-0.337	-0.391
-438.763	108.366	0.093	0.110
-437.749	800.000	-0.012	0.042
-436.734	468.909	0.033	-0.074
-435.719	260.023	-0.102	0.175
-434.705	-200.000	0.009	0.270
-433.690	413.052	-0.154	-0.324
-432.676	89.046	0.086	0.094
-431.661	-200.000	-0.345	0.001
-430.646	10.703	-0.187	-0.142
-429.632	-200.000	0.042	0.265
-428.617	-6.223	0.133	0.090
-427.603	-90.833	-0.014	0.004
-426.588	800.000	0.100	-0.360
-425.573	-200.000	-0.020	0.121
-424.559	-200.000	0.062	0.435
-423.544	800.000	0.084	0.282
-422.530	-200.000	-0.021	0.141
-421.515	-42.266	-0.100	0.051
-420.500	31.177	0.216	-0.183
-419.486	457.678	-0.069	0.151
-418.471	261.727	-0.044	-0.075
-417.457	-147.778	-0.022	0.002
-416.442	800.000	0.017	0.065
-415.428	-87.825	-0.174	-0.052
-414.413	-6.784	-0.078	-0.053
-413.398	800.000	0.057	-0.218
-412.384	-96.278	0.191	-0.050
-411.369	-200.000	0.006	0.076
-410.355	170.841	-0.013	-0.019
-409.340	60.907	0.103	0.101
-408.325	-138.713	0.113	-0.012
-407.311	-120.647	0.204	-0.034
-406.296	27.286	-0.413	0.343
-405.282	-42.416	0.138	-0.070
-404.267	-97.169	-0.190	0.049
-403.252	-87.063	-0.178	0.054
-402.238	49.444	0.330	-0.307
-401.223	-114.261	0.291	0.056
-400.209	158.807	-0.150	-0.206
-399.194	-82.135	-0.220	0.071
-398.179	-154.229	0.224	0.015
-397.165	800.000	-0.085	-0.340
-396.150	-131.482	-0.371	0.048
-395.136	-82.060	0.163	0.053
-394.121	9.454	0.259	-0.194
-393.106	800.000	-0.038	0.115
-392.092	800.000	0.090	0.322
-391.077	-72.795	0.478	-0.174
-390.063	-41.275	0.187	-0.095
-389.048	614.132	0.139	-0.345
-388.033	229.821	-0.107	-0.172
-387.019	-127.185	0.227	-0.033
-386.004	242.839	-0.135	-0.224
-384.990	143.902	0.071	-0.093
-383.975	184.031	-0.091	-0.134
-382.960	353.812	-0.133	0.261
-381.946	800.000	-0.081	0.276
-380.931	-13.076	-0.453	-0.291
-379.917	156.742	0.059	-0.081
-378.902	-154.455	-0.131	0.009
-377.888	800.000	-0.075	-0.259
-376.873	-200.000	0.012	0.130
-375.858	800.000	0.135	0.375
-374.844	-128.235	0.188	-0.026
-373.829	173.722	-0.078	0.112
-372.815	-15.644	-0.160	-0.101
-371.800	-184.171	-0.232	0.004
-370.785	110.837	-0.176	0.209
-369.771	-200.000	0.019	0.129
-368.756	-200.000	0.004	0.096
-367.742	-160.841	0.167	0.009
-366.727	119.148	-0.039	-0.048
-365.712	-66.431	0.286	-0.112
-364.698	67.400	-0.018	0.018
-363.683	-118.372	0.207	0.036
-362.669	-90.883	-0.035	0.010
-361.654	-158.444	0.017	0.001
-360.639	3.792	0.175	-0.126
-359.625	263.007	-0.060	-0.103
-358.610	192.673	-0.032	-0.048
-357.596	-25.050	0.388	-0.227
-356.581	800.000	0.071	0.209
-355.566	-200.000	0.070	-0.379
-354.552	-34.450	-0.147	0.080
-353.537	-10.976	0.135	-0.088
-352.523	800.000	0.041	0.128
-351.508	278.418	-0.077	-0.135
-350.493	-35.640	0.171	-0.092
-349.479	304.166	-0.150	0.275
-348.464	179.648	-0.020	0.029
-347.450	56.461	-0.190	0.183
-346.435	693.629	0.136	0.353
-345.420	800.000	0.059	-0.201
-344.406	-65.941	0.055	-0.022
-343.391	-200.000	-0.015	0.097
-342.377	-200.000	-0.024	0.421
-341.362	137.990	0.166	0.215
-340.348	-158.594	-0.132	0.007
-339.333	-129.281	-0.270	-0.037
-338.318	-14.757	-0.086	-0.055
-337.304	39.241	0.079	-0.069
-336.289	-90.034	0.289	-0.083
-335.275	-200.000	-0.003	-0.232
-334.260	-25.758	0.447	-0.260
-333.245	-70.866	-0.202	-0.075
-332.231	519.701	-0.069	-0.160
-331.216	605.393	-0.129	0.316
-330.202	-135.738	0.121	-0.014
-329.187	64.371	0.085	0.085
-328.172	800.000	-0.079	0.245
-327.158	313.665	0.114	-0.212
-326.143	199.799	-0.130	-0.196
-325.129	800.000	-0.070	0.195
-324.114	-71.862	0.249	0.091
-323.099	14.894	-0.123	0.095
-322.085	283.112	-0.082	0.145
-321.070	-200.000	-0.055	0.398
-320.056	-101.819	-0.232	0.055
-319.041	180.992	-0.198	-0.287
-318.026	-155.759	0.217	-0.014
-317.012	371.094	0.070	0.140
-315.997	71.765	-0.198	0.203
-314.983	800.000	0.070	0.219
-313.968	-157.212	-0.309	0.018
-312.953	-62.240	-0.367	-0.151
-311.939	353.121	0.094	0.183
-310.924	338.971	-0.134	-0.258
-309.910	448.718	-0.102	0.220
-308.895	63.047	0.069	-0.068
-307.880	-35.735	0.112	-0.060
-306.866	-79.522	-0.156	0.052
-305.851	119.032	0.156	-0.190
-304.837	-95.080	0.111	-0.029
-303.822	-200.000	-0.043	0.314
-302.807	-73.361	0.305	0.110
-301.793	-94.498	-0.223	-0.060
-300.778	-107.872	0.295	-0.063
-299.764	-112.142	0.091	-0.018
-298.749	-123.016	-0.329	0.052
-297.735	732.955	-0.075	0.198
-296.720	-14.279	0.229	0.145
-295.705	-72.407	-0.552	0.201
-294.691	800.000	0.085	-0.312
-293.676	673.718	-0.031	-0.079
-292.662	-52.153	-0.362	0.165
-291.647	470.447	0.150	0.333
-290.632	-77.019	-0.155	-0.053
-289.618	63.020	-0.339	0.335
-288.603	-50.848	0.038	-0.017
-287.589	-82.117	0.180	-0.058
-286.574	-130.879	0.216	0.028
-285.559	-200.000	0.014	-0.260
-284.545	5.884	-0.069	0.051
-283.530	800.000	0.081	0.248
-282.516	246.655	0.059	-0.098
-281.501	-30.090	0.358	0.201
-280.486	512.237	0.032	0.074
-279.472	212.839	-0.136	-0.211
-278.457	-200.000	0.049	-0.236
-277.443	-98.800	-0.141	0.035
-276.428	-143.599	0.210	0.020
-275.413	-22.702	0.175	-0.104
-274.399	800.000	-0.017	-0.059
-273.384	104.065	-0.194	-0.225
-272.370	-12.314	-0.193	0.124
-271.355	17.123	-0.067	0.052
-270.340	-200.000	0.010	0.179
-269.326	-110.206	-0.227	0.047
-268.311	196.463	0.091	-0.136
-267.297	-200.000	-0.045	-0.215
-266.282	-200.000	-0.026	-0.437
-265.267	800.000	0.075	-0.316
-264.253	92.458	-0.364	0.403
-263.238	-200.000	-0.034	-0.217
-262.224	179.616	0.125	0.180
-261.209	-87.881	-0.167	-0.049
-260.195	-200.000	-0.020	-0.216
-259.180	22.215	0.307	-0.247
-258.165	75.659	0.209	-0.217
-257.151	187.089	-0.131	-0.192
-256.136	-174.544	-0.107	-0.003
-255.122	800.000	-0.079	0.270
-254.107	800.000	-0.039	-0.155
-253.092	72.483	-0.012	0.012
-252.078	259.666	0.110	-0.186
-251.063	-91.843	-0.242	0.068
-250.049	-85.061	0.145	-0.045
-249.034	-147.737	0.206	0.017
-248.019	800.000	0.074	0.248
-247.005	-49.630	0.137	-0.064
-245.990	179.920	0.104	0.149
-244.976	-40.664	0.238	0.121
-243.961	-38.006	-0.348	-0.181
-242.946	5.532	0.330	0.239
-241.932	-75.056	0.213	-0.075
-240.917	-200.000	0.034	-0.231
-239.903	800.000	0.067	0.188
-238.888	95.139	-0.099	-0.111
-237.873	546.531	0.031	0.072
-236.859	-134.669	0.148	0.018
-235.844	290.584	-0.172	0.306
-234.830	-67.149	-0.331	0.128
-233.815	-200.000	0.037	-0.370
-232.800	-200.000	-0.020	-0.185
-231.786	300.876	-0.083	-0.151
-230.771	800.000	0.071	0.220
-229.757	161.076	0.120	0.165
-228.742	56.529	-0.077	0.073
-227.727	-84.637	-0.350	-0.108
-226.713	-76.644	0.152	0.052
-225.698	-109.921	-0.324	-0.067
-224.684	-25.066	0.211	-0.123
-223.669	169.833	0.133	-0.186
-222.655	-200.000	0.061	0.272
-221.640	-153.015	0.156	0.011
-220.625	174.600	0.145	-0.206
-219.611	-84.255	-0.406	0.126
-218.596	209.321	-0.155	-0.238
-217.582	170.193	-0.086	-0.121
-216.567	-200.000	0.027	0.174
-215.552	-156.023	0.337	-0.021
-214.538	-37.814	-0.075	0.039
-213.523	-27.886	0.240	-0.137
-212.509	-114.125	-0.048	-0.009
-211.494	-8.833	0.230	0.152
-210.479	-153.081	-0.268	0.018
-209.465	-109.750	0.138	0.029
-208.450	-200.000	-0.026	0.240
-207.436	-58.125	0.182	-0.078
-206.421	403.290	0.050	0.102
-205.406	-124.432	-0.260	0.040
-204.392	183.745	0.187	0.271
-203.377	-56.298	-0.258	-0.112
-202.363	59.877	0.139	-0.134
-201.348	-137.874	0.102	0.011
-200.333	-101.941	0.249	-0.059
-199.319	-155.288	-0.422	0.027
-198.304	394.359	-0.024	-0.050
-197.290	-42.784	-0.130	0.065
-196.275	800.000	-0.051	-0.159
-195.260	579.470	0.126	0.302
-194.246	-159.475	-0.248	0.014
-193.231	12.345	0.109	0.082
-192.217	318.985	0.199	0.371
-191.202	-131.884	-0.330	-0.042
-190.187	583.531	-0.071	0.171
-189.173	-104.770	0.263	0.059
-188.158	-119.334	0.055	0.009
-187.144	-200.000	-0.055	0.272
-186.129	-200.000	-0.053	0.271
-185.114	774.041	0.058	0.156
-184.100	89.881	-0.173	-0.189
-183.085	-7.798	0.165	0.109
-182.071	-119.645	0.228	-0.039
-181.056	77.207	0.308	-0.321
-180.042	-178.807	-0.143	0.003
-179.027	-200.000	-0.039	0.205
-178.012	632.442	-0.104	-0.258
-176.998	222.231	-0.099	-0.155
-175.983	-200.000	-0.006	0.115
-174.969	39.552	-0.105	0.092
-173.954	-74.197	0.093	0.033
-172.939	-136.153	0.374	0.043
-171.925	800.000	0.079	-0.273
-170.910	800.000	-0.014	0.048
-169.896	-11.048	-0.407	0.263
-168.881	44.048	-0.154	-0.138
-167.866	-200.000	-0.008	-0.074
-166.852	-41.942	-0.100	0.050
-165.837	-137.325	0.387	-0.043
-164.823	6.624	0.274	0.200
-163.808	-106.823	-0.132	0.029
-162.793	150.864	0.154	-0.205
-161.779	-200.000	-0.020	-0.184
-160.764	279.948	-0.087	-0.151
-159.750	800.000	0.077	-0.223
-158.735	-200.000	-0.017	-0.108
-157.720	-42.310	0.203	-0.102
-156.706	-150.143	-0.072	0.005
-155.691	24.823	0.152	0.123
-154.677	-136.230	0.067	-0.008
-153.662	-51.071	-0.168	-0.077
-152.647	-20.990	-0.343	-0.206
-151.633	86.810	0.066	0.071
-150.618	-200.000	0.028	-0.195
-149.604	-41.049	-0.283	0.143
-148.589	-130.454	-0.258	0.034
-147.574	389.306	-0.084	-0.170
-146.560	-53.706	0.250	0.112
-145.545	-200.000	0.014	0.077
-144.531	62.054	0.201	-0.196
-143.516	-135.456	-0.208	0.024
-142.502	-87.713	0.453	-0.134
-141.487	145.186	-0.176	-0.231
-140.472	-85.757	0.244	0.074
-139.458	313.538	-0.083	0.152
-138.443	342.555	0.116	-0.221
-137.429	-200.000	0.009	-0.208
-136.414	-200.000	0.044	0.276
-135.399	-140.404	-0.036	0.004
-134.385	2.409	0.166	0.118
-133.370	-92.050	0.323	-0.089
-132.356	-200.000	0.005	0.616
-131.341	96.239	0.229	-0.257
-130.326	800.000	-0.081	0.296
-129.312	60.001	-0.112	0.108
-128.297	398.466	-0.230	-0.471
-127.283	-170.752	-0.192	0.006
-126.268	525.630	-0.029	0.067
-125.253	-67.933	0.166	0.063
-124.239	387.566	0.018	0.036
-123.224	-23.346	-0.113	-0.067
-122.210	-33.229	0.303	0.164
-121.195	-90.102	0.294	-0.084
-120.180	109.197	-0.233	0.273
-119.166	26.226	0.125	0.102
-118.151	-155.150	0.265	-0.017
-117.137	-117.977	-0.176	0.031
-116.122	112.476	-0.033	-0.039
-115.107	269.565	-0.125	0.215
-114.093	-96.367	0.473	-0.122
-113.078	-72.557	0.230	-0.083
-112.064	118.657	0.104	0.126
-111.049	301.137	-0.025	-0.045
-110.034	-200.000	-0.017	-0.096
-109.020	145.517	-0.031	0.040
-108.005	490.747	0.053	-0.118
-106.991	115.518	0.222	0.266
-105.976	237.163	-0.083	0.135
-104.962	800.000	-0.020	-0.079
-103.947	-74.438	-0.309	-0.109
-102.932	162.321	-0.104	0.143
-101.918	236.448	0.113	-0.183
-100.903	-36.805	-0.325	-0.171
-99.889	8.755	0.302	0.222
-98.874	-78.081	0.189	-0.064
-97.859	-158.371	0.281	0.016
-96.845	-82.943	0.316	0.100
-95.830	-52.425	0.190	-0.086
-94.816	228.085	0.018	0.028
-93.801	621.048	-0.048	-0.117
-92.786	-200.000	0.037	0.208
-91.772	464.361	0.011	-0.023
-90.757	-200.000	0.038	-0.316
-89.743	-10.021	0.284	0.184
-88.728	-55.324	0.231	0.102
-87.713	316.934	0.091	-0.169
-86.699	-166.688	-0.053	0.002
-85.684	-84.760	0.181	-0.056
-84.670	-149.601	0.107	0.008
-83.655	-99.707	0.186	0.046
-82.640	-200.000	-0.080	0.409
-81.626	-200.000	-0.006	-0.048
-80.611	4.326	-0.074	0.053
-79.597	-200.000	-0.052	-0.231
-78.582	-75.968	-0.220	0.076
-77.567	7.385	0.237	0.173
-76.553	800.000	-0.046	0.153
-75.538	-47.025	-0.236	0.113
-74.524	-118.049	-0.148	-0.026
-73.509	-27.246	-0.083	-0.047
-72.494	-143.563	-0.156	0.014
-71.480	-200.000	0.020	0.188
-70.465	-200.000	0.019	0.126
-69.451	565.204	-0.124	0.293
-68.436	18.063	0.162	0.126
-67.422	-31.014	-0.150	-0.083
-66.407	163.159	0.177	0.243
-65.392	800.000	-0.049	-0.152
-64.378	-129.350	0.216	-0.029
-63.363	-200.000	-0.032	-0.600
-62.349	89.338	-0.192	0.209
-61.334	48.613	-0.974	-0.891
-60.319	120.804	0.472	0.573
-59.305	533.675	-0.683	-1.578
-58.290	345.568	0.652	1.249
-57.276	800.000	0.435	1.347
-56.261	-200.000	111.900	634.672
-55.246	484.973	1476.949	3281.378
-54.232	154.377	2633.695	3527.170
-53.217	101.459	2149.212	2442.965
-52.203	37.839	1683.173	1459.022
-51.188	30.970	1500.992	1254.995
-50.173	28.729	1476.228	1219.383
-49.159	50.199	1534.667	1413.791
-48.144	49.353	1550.052	1422.171
-47.130	30.928	1506.527	1259.144
-46.115	27.910	1491.903	1226.635
-45.100	27.804	1488.100	1222.750
-44.086	27.796	1486.532	1221.362
-43.071	27.824	1483.882	1219.320
-42.057	27.722	1482.788	1217.697
-41.042	27.712	1481.367	1216.414
-40.027	27.838	1479.409	1215.595
-39.013	27.761	1478.350	1214.165
-37.998	27.777	1477.057	1213.164
-36.984	27.832	1475.598	1212.280
-35.969	27.775	1474.241	1210.738
-34.954	27.764	1473.497	1210.009
-33.940	27.760	1472.156	1208.833
-32.925	27.836	1470.704	1208.096
-31.911	27.802	1469.352	1206.714
-30.896	27.925	1467.885	1206.272
-29.881	27.846	1466.867	1204.868
-28.867	27.774	1465.180	1202.959
-27.852	27.891	1463.860	1202.597
-26.838	27.673	1463.021	1200.424
-25.823	27.844	1460.964	1199.813
-24.809	27.800	1459.701	1198.439
-23.794	27.839	1458.050	1197.292
-22.779	27.742	1457.002	1195.749
-21.765	27.853	1455.538	1195.224
-20.750	27.887	1454.585	1194.616
-19.736	27.898	1453.287	1193.579
-18.721	27.726	1452.993	1192.165
-17.706	27.704	1451.866	1191.047
-16.692	27.748	1450.839	1190.443
-15.677	27.737	1449.755	1189.437
-14.663	27.673	1448.932	1188.297
-13.648	27.798	1447.487	1187.876
-12.633	27.760	1446.550	1186.815
-11.619	27.767	1446.280	1186.593
-10.604	27.773	1445.229	1185.720
-9.590	27.765	1444.432	1184.967
-8.575	27.823	1443.463	1184.501
-7.560	27.704	1442.981	1183.288
-6.546	27.783	1442.067	1183.002
-5.531	27.751	1440.710	1181.638
-4.517	27.737	1440.315	1181.174
-3.502	27.809	1439.057	1180.566
-2.487	27.717	1438.179	1179.201
-1.473	27.731	1437.032	1178.302
-0.458	27.735	1435.654	1177.153
0.556	25.933	1425.082	1163.664
1.571	22.107	1399.435	1118.319
2.586	17.647	1336.652	1040.873
3.600	15.602	1253.619	964.405
4.615	14.404	1209.302	923.590
5.629	12.440	1154.516	871.271
6.644	6.371	1073.980	780.416
7.659	1.233	1036.500	728.492
8.673	0.359	1031.032	720.407
9.688	0.210	1027.468	717.147
10.702	0.097	1026.350	715.762
11.717	0.115	1024.554	714.533
12.731	2.197	1025.589	725.082
13.746	8.891	1034.257	763.094
14.761	15.166	1041.769	798.570
15.775	16.957	1043.752	808.566
16.790	16.485	1042.463	805.248
17.804	15.482	1040.633	798.990
18.819	14.660	1038.504	793.380
19.834	14.226	1037.296	790.327
20.848	13.976	1035.999	788.084
21.863	13.659	1035.428	786.076
22.877	13.587	1034.712	785.121
23.892	13.415	1033.694	783.464
24.907	13.266	1032.917	782.105
25.921	13.252	1032.016	781.286
26.936	13.232	1031.795	780.953
27.950	13.298	1030.938	780.549
28.965	13.434	1029.897	780.333
29.980	13.391	1029.586	779.826
30.994	13.417	1028.107	778.757
32.009	13.479	1027.761	778.721
33.023	13.493	1027.033	778.164
34.038	13.570	1025.891	777.592
35.053	13.352	1025.334	776.079
36.067	13.415	1024.405	775.602
37.082	13.364	1023.846	774.871
38.096	13.313	1023.323	774.165
39.111	13.439	1022.052	773.726
40.126	13.423	1020.978	772.771
41.140	13.433	1020.148	772.118
42.155	13.252	1018.855	770.231
43.169	13.307	1017.819	769.634
44.184	13.162	1017.202	768.424
45.199	13.181	1016.106	767.618
46.213	13.205	1015.303	767.054
47.228	13.299	1014.071	766.490
48.242	13.213	1013.010	765.226
49.257	13.402	1011.824	765.136
50.271	13.285	1011.753	764.471
51.286	13.297	1010.534	763.539
52.301	13.474	1009.512	763.514
53.315	13.448	1008.829	762.813
54.330	13.342	1007.898	761.552
55.344	13.346	1007.013	760.832
56.359	13.342	1006.468	760.338
57.374	13.342	1005.350	759.425
58.388	13.291	1004.297	758.327
59.403	13.243	1003.805	757.669
60.417	13.315	1002.662	757.068
61.432	13.270	1002.153	756.410
62.447	13.296	1001.702	756.122
63.461	13.268	1000.200	754.796
64.476	13.303	999.671	754.489
65.490	13.245	998.651	753.389
66.505	13.280	998.104	753.066
67.520	13.090	997.615	751.767
68.534	13.202	996.562	751.417
69.549	13.299	995.943	751.325
70.563	13.241	995.157	750.403
71.578	13.147	994.484	749.403
72.593	13.200	993.568	748.886
73.607	13.057	993.081	747.805
74.622	12.978	992.097	746.638
75.636	13.116	990.895	746.291
76.651	13.079	990.502	745.764
77.666	13.063	989.529	744.894
78.680	13.157	988.783	744.690
79.695	13.067	988.515	744.018
80.709	13.150	987.977	743.919
81.724	13.193	987.004	743.315
82.739	13.180	986.340	742.690
83.753	13.209	985.569	742.175
84.768	13.201	984.790	741.487
85.782	13.394	983.613	741.400
86.797	13.513	982.665	741.153
87.812	13.470	982.044	740.423
88.826	13.362	981.366	739.367
89.841	13.327	980.578	738.548
90.855	13.378	979.697	738.049
91.870	13.397	978.797	737.391
92.884	13.409	978.219	736.942
93.899	13.350	977.608	736.155
94.914	13.391	977.017	735.828
95.928	13.479	976.494	735.757
96.943	13.494	975.183	734.771
97.957	13.499	974.521	734.233
98.972	13.471	973.704	733.428
99.987	13.472	973.073	732.889
101.001	13.427	972.368	732.095
102.016	13.376	971.462	731.122
103.030	13.485	970.594	730.886
104.045	13.447	969.779	730.040
105.060	13.445	969.183	729.518
106.074	13.381	968.016	728.293
107.089	13.424	967.438	727.985
108.103	13.315	966.481	726.719
109.118	13.186	965.732	725.526
110.133	13.321	964.995	725.503
111.147	13.307	963.713	724.412
112.162	13.332	962.927	723.865
113.176	13.383	962.351	723.594
114.191	13.315	961.741	722.770
115.206	13.315	960.578	721.834
116.220	13.353	959.547	721.162
117.235	13.315	959.054	720.560
118.249	13.349	958.258	720.048
119.264	13.487	956.982	719.623
120.279	13.383	956.128	718.466
121.293	13.384	955.442	717.893
122.308	13.413	954.733	717.425
123.322	13.345	954.212	716.674
124.337	13.362	952.918	715.709
125.352	13.323	952.021	714.807
126.366	13.390	950.861	714.160
127.381	13.283	949.777	712.824
128.395	13.316	948.814	712.176
129.410	13.351	947.663	711.401
130.424	13.241	947.167	710.494
131.439	13.356	946.103	710.128
132.454	13.375	945.032	709.340
133.468	13.399	944.564	709.031
134.483	13.354	944.194	708.499
135.497	13.391	943.333	707.947
136.512	13.377	942.236	707.001
137.527	13.467	941.200	706.544
138.541	13.308	941.107	705.733
139.556	13.378	940.161	705.258
140.570	13.347	939.352	704.458
141.585	13.427	938.506	704.104
142.600	13.493	937.587	703.632
143.614	13.430	937.117	702.948
144.629	13.475	936.585	702.677
145.643	13.612	935.579	702.444
146.658	13.559	934.874	701.626
147.673	13.511	933.728	700.501
148.687	13.491	933.088	699.876
149.702	13.270	932.721	698.602
150.716	13.466	931.676	698.586
151.731	13.461	930.518	697.634
152.746	13.465	929.734	697.005
153.760	13.445	929.019	696.319
154.775	13.591	928.438	696.438
155.789	13.525	927.647	695.507
156.804	13.579	926.628	694.906
157.819	13.623	925.977	694.544
158.833	13.519	925.607	693.765
159.848	13.541	925.228	693.511
160.862	13.698	923.917	693.124
161.877	13.761	923.331	692.887
162.892	13.573	922.831	691.665
163.906	13.696	921.463	691.091
164.921	13.721	920.908	690.718
165.935	13.596	919.764	689.282
166.950	13.610	918.966	688.680
167.964	13.607	918.129	687.978
168.979	13.673	917.153	687.461
169.994	13.613	916.464	686.635
171.008	13.580	915.618	685.802
172.023	13.548	914.912	685.081
173.037	13.716	914.147	685.143
174.052	13.814	913.088	684.693
175.067	13.678	912.953	683.967
176.081	13.680	912.101	683.279
177.096	13.823	910.978	682.964
178.110	13.673	910.301	681.783
179.125	13.723	909.619	681.416
180.140	13.797	908.836	681.074
181.154	13.751	908.108	680.276
182.169	13.730	907.684	679.812
183.183	13.770	907.002	679.408
184.198	13.839	906.345	679.136
185.213	13.954	905.489	678.907
186.227	13.916	904.890	678.243
187.242	13.945	904.696	678.154
188.256	13.941	903.977	677.538
189.271	13.953	903.159	676.915
190.286	13.906	902.501	676.168
191.300	13.926	901.585	675.505
192.315	13.737	900.993	674.233
193.329	13.876	899.967	673.969
194.344	13.806	899.598	673.351
195.359	13.784	899.235	672.930
196.373	13.904	898.738	672.983
197.388	13.843	898.388	672.415
198.402	13.966	897.558	672.232
199.417	14.128	897.384	672.699
200.432	14.224	896.876	672.646
201.446	14.157	896.044	671.691
202.461	14.117	896.554	671.854
203.475	14.199	895.507	671.342
204.490	14.169	894.746	670.589
205.504	14.245	893.548	669.939
206.519	14.061	893.679	669.235
207.534	14.116	892.287	668.356
208.548	14.183	891.563	668.023
209.563	14.269	891.022	667.905
210.577	14.264	890.187	667.198
211.592	14.148	889.646	666.268
212.607	14.309	889.063	666.418
213.621	14.282	888.737	666.008
214.636	14.405	888.066	665.937
215.650	14.195	887.692	664.760
216.665	14.356	886.902	664.750
217.680	14.499	886.003	664.588
218.694	14.355	885.722	663.745
219.709	14.298	885.635	663.395
220.723	14.304	885.018	662.899
221.738	14.433	883.958	662.559
222.753	14.296	883.448	661.574
223.767	14.361	882.191	660.830
224.782	14.522	881.236	660.693
225.796	14.551	880.939	660.528
226.811	14.604	880.234	660.152
227.826	14.558	879.620	659.449
228.840	14.516	879.045	658.795
229.855	14.501	878.652	658.384
230.869	14.487	877.804	657.634
231.884	14.373	877.491	656.890
232.899	14.571	876.269	656.697
233.913	14.506	875.474	655.788
234.928	14.393	875.158	655.049
235.942	14.510	874.369	654.862
236.957	14.491	873.828	654.322
237.972	14.530	872.997	653.794
238.986	14.599	872.378	653.546
240.001	14.496	871.840	652.680
241.015	14.642	871.137	652.667
242.030	14.550	870.424	651.715
243.045	14.534	869.713	651.065
244.059	14.654	869.396	651.238
245.074	14.557	868.865	650.402
246.088	14.686	867.827	650.070
247.103	14.661	867.627	649.767
248.117	14.618	866.883	648.985
249.132	14.738	866.150	648.846
250.147	14.841	865.688	648.842
251.161	14.706	865.497	648.118
252.176	14.904	864.324	647.950
253.190	14.882	863.687	647.328
254.205	14.914	863.066	646.929
255.220	14.956	862.759	646.802
256.234	15.096	861.909	646.651
257.249	15.001	861.229	645.715
258.263	15.069	860.729	645.548
259.278	15.070	860.267	645.146
260.293	14.989	859.571	644.254
261.307	15.103	859.282	644.421
262.322	15.108	859.028	644.193
263.336	15.216	858.448	644.115
264.351	15.108	857.753	643.123
265.366	15.224	857.273	643.149
266.380	15.366	856.054	642.724
267.395	15.298	855.289	641.832
268.409	15.115	854.767	640.682
269.424	15.104	854.059	640.053
270.439	15.153	853.457	639.733
271.453	15.189	852.570	639.149
272.468	15.248	851.771	638.721
273.482	15.209	851.443	638.266
274.497	15.211	850.671	637.642
275.512	15.203	850.135	637.151
276.526	15.218	849.352	636.567
277.541	15.240	848.702	636.107
278.555	15.294	848.342	635.985
279.570	15.300	847.728	635.491
280.585	15.364	847.099	635.205
281.599	15.440	846.472	634.966
282.614	15.424	845.891	634.413
283.628	15.469	845.297	634.084
284.643	15.474	844.471	633.423
285.657	15.393	844.299	632.933
286.672	15.437	843.777	632.652
287.687	15.397	843.281	632.074
288.701	15.433	842.822	631.810
289.716	15.483	842.244	631.510
290.730	15.397	841.871	630.852
291.745	15.523	840.680	630.375
292.760	15.575	839.913	629.938
293.774	15.453	839.572	629.168
294.789	15.587	839.312	629.421
295.803	15.695	838.543	629.195
296.818	15.680	838.099	628.750
297.833	15.582	837.223	627.669
298.847	15.482	836.619	626.788
299.862	15.650	836.036	626.924
300.876	15.562	835.366	626.035
301.891	15.627	834.521	625.590
302.906	15.778	833.669	625.459
303.920	15.644	833.250	624.588
304.935	15.758	833.028	624.789
305.949	15.857	832.064	624.378
306.964	15.797	831.540	623.710
307.979	16.042	830.767	623.983
308.993	15.796	830.816	623.052
310.008	15.911	829.972	622.791
311.022	15.953	829.474	622.515
312.037	15.840	829.247	621.874
313.052	15.837	828.450	621.208
314.066	15.817	828.010	620.752
315.081	15.772	827.330	620.021
316.095	15.831	826.683	619.699
317.110	15.886	826.158	619.452
318.125	15.952	825.890	619.438
319.139	15.821	825.341	618.491
320.154	15.786	824.811	617.909
321.168	15.892	824.425	617.957
322.183	15.917	823.592	617.369
323.197	16.074	823.179	617.579
324.212	16.029	822.705	617.004
325.227	16.006	822.231	616.509
326.241	16.148	821.358	616.318
327.256	16.153	820.562	615.686
328.270	15.951	820.421	614.788
329.285	16.016	820.199	614.805
330.300	15.931	819.738	614.095
331.314	16.031	818.720	613.642
332.329	16.025	817.977	613.009
333.343	16.031	817.666	612.745
334.358	16.034	817.107	612.281
335.373	16.011	816.559	611.732
336.387	16.192	816.207	612.073
337.402	16.177	815.372	611.337
338.416	16.343	814.584	611.293
339.431	16.341	813.991	610.786
340.446	16.243	813.483	609.997
341.460	16.457	812.962	610.327
342.475	16.326	812.536	609.479
343.489	16.377	811.836	609.086
344.504	16.498	811.395	609.134
345.519	16.367	811.158	608.433
346.533	16.202	810.909	607.595
347.548	16.440	810.352	607.982
348.562	16.474	809.570	607.463
349.577	16.375	808.788	606.468
350.592	16.352	808.424	606.057
351.606	16.237	808.106	605.356
352.621	16.382	807.856	605.633
353.635	16.360	807.588	605.300
354.650	16.370	807.074	604.897
355.665	16.298	806.591	604.225
356.679	16.535	805.925	604.517
357.694	16.380	805.522	603.608
358.708	16.462	804.569	603.134
359.723	16.529	804.355	603.159
360.738	16.520	803.715	602.594
361.752	16.575	803.135	602.303
362.767	16.385	803.132	601.569
363.781	16.623	802.321	601.756
364.796	16.616	801.914	601.371
365.810	16.706	801.410	601.262
366.825	16.682	801.370	601.094
367.840	16.711	800.863	600.763
368.854	16.782	800.242	600.495
369.869	16.755	799.701	599.939
370.883	16.791	799.100	599.562
371.898	16.706	798.467	598.733
372.913	16.764	798.065	598.584
373.927	16.786	797.344	598.070
374.942	16.783	797.036	597.775
375.956	16.855	796.223	597.365
376.971	16.975	795.265	597.017
377.986	17.034	794.789	596.815
379.000	16.943	794.806	596.455
380.015	16.933	794.118	595.849
381.029	16.954	793.802	595.633
382.044	17.004	793.317	595.393
383.059	16.981	792.739	594.823
384.073	17.137	792.233	594.938
385.088	17.020	791.714	594.088
386.102	17.022	791.072	593.562
387.117	17.124	790.485	593.425
388.132	16.995	790.023	592.572
389.146	16.970	789.745	592.225
390.161	17.298	788.961	592.730
391.175	17.166	788.936	592.197
392.190	17.049	789.012	591.792
393.205	17.022	788.321	591.129
394.219	17.104	787.704	590.899
395.234	17.223	787.010	590.740
396.248	17.211	786.682	590.402
397.263	16.999	786.449	589.436
398.278	17.160	785.692	589.375
399.292	17.103	785.370	588.883
400.307	17.121	785.069	588.669
401.321	17.074	784.808	588.257
402.336	17.143	784.288	588.055
403.350	17.211	783.661	587.769
404.365	17.181	783.375	587.399
405.380	17.290	782.845	587.325
406.394	17.229	782.652	586.920
407.409	17.293	782.081	586.659
408.423	17.393	781.536	586.542
409.438	17.345	781.177	586.055
410.453	17.357	780.703	585.691
411.467	17.516	780.106	585.737
412.482	17.387	779.993	585.159
413.496	17.473	779.481	585.018
414.511	17.567	778.796	584.775
415.526	17.486	778.481	584.209
416.540	17.532	778.334	584.202
417.555	17.488	777.913	583.683
418.569	17.519	777.379	583.340
419.584	17.547	776.948	583.058
420.599	17.526	776.518	582.613
421.613	113.130	1292.893	1479.951
422.628	96.891	1368.096	1480.061
