DTS Sentinel unit serial number:	SN413079Multiplexer serial number:	ORYXHardware model number:	OX4-SRSoftware version number:	ORYX F/W v4.00 Oryx Data Collector v3.7.2.0data status	okinstallation	princeton_trtdifferential loss correction	single-endedforward channel	channel 3reverse channel	N/Adate	2019/09/19time	08:32:35forward acquisition time	60.00reverse acquisition time	0.00gamma	496.2192k internal	0.2347k external	0.2347temperature offset calibration	0.9986default loss term (dB/km)	0.3790temperature slope calibration	1.0000multiplexer offset coefficient	1.0000multiplexer slope coefficient	1.0000fibre end	0.00T internal ref (°C)	20.69T ext. ref 1 (°C)	0.56T ext. ref 2 (°C)	16.37length (m)	temperature (°C)	Stokes	anti-Stokes-747.200	-200.000	0.052	-0.000
-746.185	64.594	-0.192	0.194
-745.171	215.525	0.130	-0.207
-744.156	242.983	-0.173	-0.289
-743.142	-138.020	0.491	-0.055
-742.127	-200.000	-0.000	0.125
-741.112	39.938	0.159	0.143
-740.098	-14.765	-0.283	0.181
-739.083	8.820	-0.114	-0.086
-738.069	-54.521	0.143	0.065
-737.054	-163.202	0.267	-0.013
-736.039	25.234	-0.049	-0.040
-735.025	27.405	0.231	0.194
-734.010	105.658	-0.249	-0.295
-732.996	59.203	-0.102	-0.100
-731.981	30.540	0.130	0.111
-730.966	115.061	-0.012	-0.015
-729.952	800.000	0.044	-0.155
-728.937	154.480	-0.122	0.167
-727.923	107.926	0.047	-0.056
-726.908	-200.000	0.010	-0.188
-725.894	16.434	-0.134	0.106
-724.879	525.313	-0.174	-0.408
-723.864	9.717	-0.288	0.218
-722.850	-200.000	-0.036	-0.205
-721.835	301.308	-0.102	-0.188
-720.821	86.796	0.132	0.145
-719.806	3.770	-0.234	0.170
-718.791	577.283	-0.046	0.112
-717.777	-200.000	-0.000	-0.106
-716.762	510.367	0.105	-0.243
-715.748	-169.972	-0.216	-0.008
-714.733	339.235	-0.183	0.357
-713.718	135.917	-0.207	-0.270
-712.704	-200.000	0.041	-0.293
-711.689	-200.000	-0.002	-0.042
-710.675	-200.000	-0.054	-0.306
-709.660	-200.000	-0.012	0.161
-708.645	464.133	0.046	0.102
-707.631	-24.701	-0.267	0.159
-706.616	40.384	-0.256	-0.230
-705.602	-150.657	0.163	-0.012
-704.587	-200.000	-0.024	-0.279
-703.572	800.000	-0.076	0.220
-702.558	-166.988	-0.456	0.019
-701.543	-200.000	-0.072	-0.331
-700.529	728.349	-0.100	-0.268
-699.514	-200.000	0.004	-0.280
-698.499	-97.801	-0.447	-0.115
-697.485	-200.000	0.038	-0.251
-696.470	-165.018	-0.208	0.009
-695.456	-89.100	0.166	-0.049
-694.441	381.396	-0.077	-0.158
-693.426	9.371	0.310	0.234
-692.412	-200.000	0.058	-0.389
-691.397	-155.650	-0.426	0.027
-690.383	228.261	-0.084	0.136
-689.368	-36.572	0.070	0.038
-688.354	-101.833	0.027	-0.006
-687.339	340.448	0.061	0.119
-686.324	-200.000	0.037	0.438
-685.310	-81.678	0.254	-0.083
-684.295	-200.000	-0.018	-0.119
-683.281	-51.580	0.362	-0.168
-682.266	800.000	0.013	-0.046
-681.251	51.554	-0.104	-0.099
-680.237	-124.678	0.158	0.024
-679.222	33.928	0.051	-0.044
-678.208	181.259	0.116	-0.170
-677.193	29.897	0.192	0.163
-676.178	-200.000	0.010	0.132
-675.164	424.030	-0.065	0.139
-674.149	280.439	0.087	-0.155
-673.135	-37.641	-0.241	0.128
-672.120	-109.470	0.153	-0.032
-671.105	800.000	0.084	-0.240
-670.091	-25.864	-0.337	-0.198
-669.076	800.000	0.056	0.195
-668.062	292.069	0.154	-0.280
-667.047	-19.746	0.191	0.118
-666.032	-6.603	0.109	0.074
-665.018	247.818	-0.153	-0.258
-664.003	-104.876	-0.239	0.055
-662.989	558.215	0.032	-0.077
-661.974	-200.000	-0.032	0.270
-660.959	-200.000	-0.004	-0.098
-659.945	-200.000	0.001	-0.137
-658.930	800.000	0.041	-0.147
-657.916	-96.605	0.080	0.021
-656.901	-200.000	0.003	-0.452
-655.886	-41.344	-0.215	-0.110
-654.872	-126.293	-0.178	-0.027
-653.857	800.000	0.088	-0.318
-652.843	19.315	0.212	0.170
-651.828	-200.000	0.033	0.330
-650.814	-11.180	-0.029	0.019
-649.799	-200.000	0.006	0.180
-648.784	-24.333	0.233	0.139
-647.770	-89.115	-0.127	0.037
-646.755	-48.927	-0.162	-0.077
-645.741	322.039	0.113	-0.214
-644.726	-114.961	-0.082	0.016
-643.711	238.690	-0.096	0.159
-642.697	-109.662	-0.122	-0.026
-641.682	-105.205	0.165	-0.038
-640.668	800.000	0.038	-0.138
-639.653	-115.958	0.266	0.049
-638.638	40.712	0.169	0.151
-637.624	-200.000	0.017	-0.291
-636.609	-137.404	0.189	-0.021
-635.595	-19.149	0.194	0.120
-634.580	-111.875	-0.190	-0.038
-633.565	-139.808	-0.293	-0.031
-632.551	-132.780	0.454	0.058
-631.536	238.433	0.135	-0.224
-630.522	-124.402	0.131	-0.020
-629.507	-200.000	0.080	0.419
-628.492	20.151	-0.050	-0.040
-627.478	-78.441	-0.122	-0.042
-626.463	229.273	0.026	-0.042
-625.449	-143.916	-0.126	0.012
-624.434	-200.000	-0.070	-0.440
-623.419	8.003	-0.114	0.085
-622.405	645.143	0.083	-0.211
-621.390	-121.074	-0.144	0.024
-620.376	-58.295	-0.286	-0.124
-619.361	-89.106	0.243	-0.071
-618.346	114.107	0.085	0.103
-617.332	531.134	-0.054	-0.126
-616.317	-159.902	-0.308	0.017
-615.303	-73.159	-0.396	-0.144
-614.288	16.833	0.214	-0.168
-613.273	50.574	0.088	0.083
-612.259	-199.975	-0.238	-0.001
-611.244	201.078	0.092	-0.141
-610.230	70.587	0.162	-0.167
-609.215	14.877	-0.176	-0.137
-608.201	-78.642	-0.119	0.040
-607.186	71.323	0.243	-0.251
-606.171	-200.000	0.004	-0.208
-605.157	-115.802	-0.185	0.034
-604.142	-105.341	0.350	-0.079
-603.128	6.024	-0.163	0.120
-602.113	192.952	0.174	-0.261
-601.098	-145.795	0.148	-0.013
-600.084	-60.974	0.261	0.110
-599.069	-200.000	0.017	-0.153
-598.055	30.357	0.334	-0.284
-597.040	754.582	-0.004	-0.011
-596.025	16.569	0.134	-0.105
-595.011	101.887	-0.141	-0.164
-593.996	-28.624	-0.164	0.094
-592.982	224.381	0.139	-0.224
-591.967	800.000	0.116	0.364
-590.952	15.266	-0.051	0.039
-589.938	-200.000	0.013	0.149
-588.923	69.053	-0.285	0.291
-587.909	246.395	0.029	0.048
-586.894	-147.816	0.183	-0.015
-585.879	-200.000	0.031	0.192
-584.865	148.050	-0.115	-0.154
-583.850	-56.676	-0.257	-0.113
-582.836	-200.000	-0.010	-0.182
-581.821	-200.000	0.017	0.341
-580.806	224.233	-0.157	-0.252
-579.792	-83.379	-0.226	-0.072
-578.777	-82.478	-0.342	0.110
-577.763	-51.136	-0.142	-0.066
-576.748	-33.378	0.166	0.091
-575.733	800.000	-0.040	-0.139
-574.719	-200.000	0.031	0.167
-573.704	-147.165	-0.292	0.025
-572.690	180.750	-0.122	-0.178
-571.675	42.094	0.192	-0.173
-570.661	-200.000	0.006	-0.158
-569.646	-200.000	-0.006	0.194
-568.631	-51.960	0.148	0.068
-567.617	-75.009	-0.273	0.097
-566.602	-90.151	-0.274	-0.079
-565.588	-150.739	0.116	-0.009
-564.573	-62.646	0.127	0.052
-563.558	-200.000	0.007	0.099
-562.544	-144.884	-0.161	-0.015
-561.529	-118.734	0.057	0.010
-560.515	379.325	0.089	-0.181
-559.500	270.527	-0.124	0.216
-558.485	-30.190	-0.287	-0.162
-557.471	232.053	-0.106	0.172
-556.456	800.000	-0.077	0.271
-555.442	346.127	-0.116	-0.227
-554.427	168.938	0.118	-0.167
-553.412	-96.996	-0.213	-0.055
-552.398	-200.000	-0.112	0.614
-551.383	-37.343	-0.060	-0.032
-550.369	215.786	0.140	-0.220
-549.354	525.120	0.212	-0.494
-548.339	-185.616	0.292	-0.004
-547.325	27.070	-0.156	0.130
-546.310	0.247	-0.279	0.197
-545.296	-200.000	0.014	-0.138
-544.281	16.238	0.330	0.258
-543.266	800.000	0.075	-0.244
-542.252	-37.601	-0.458	-0.242
-541.237	-50.102	-0.048	0.022
-540.223	-98.884	0.326	-0.082
-539.208	282.778	0.236	-0.420
-538.193	3.601	-0.158	-0.114
-537.179	90.857	-0.214	-0.238
-536.164	392.159	-0.110	0.226
-535.150	800.000	0.160	-0.486
-534.135	2.756	-0.292	-0.210
-533.121	13.834	0.250	-0.193
-532.106	800.000	-0.100	0.286
-531.091	69.231	-0.049	0.050
-530.077	-65.030	-0.276	0.110
-529.062	169.385	-0.156	0.221
-528.048	-7.620	0.226	0.152
-527.033	1.731	-0.380	0.272
-526.018	-56.831	-0.105	0.046
-525.004	-54.604	0.270	0.121
-523.989	352.773	-0.145	-0.286
-522.975	34.795	-0.029	-0.025
-521.960	-200.000	-0.004	-0.095
-520.945	800.000	-0.054	-0.224
-519.931	296.550	0.063	0.114
-518.916	-200.000	-0.004	0.159
-517.902	767.906	-0.037	-0.099
-516.887	-200.000	0.042	0.292
-515.872	-42.693	0.100	0.050
-514.858	-29.529	0.134	-0.076
-513.843	-200.000	-0.053	0.271
-512.829	-27.274	0.164	-0.095
-511.814	800.000	-0.038	0.135
-510.799	-200.000	-0.003	0.087
-509.785	-113.210	0.366	0.071
-508.770	-84.449	0.252	-0.079
-507.756	800.000	-0.036	0.150
-506.741	-40.843	-0.148	-0.076
-505.726	105.200	0.203	0.238
-504.712	-41.422	-0.154	0.079
-503.697	-200.000	-0.012	0.079
-502.683	-200.000	-0.052	0.244
-501.668	-90.375	0.146	-0.042
-500.653	236.460	-0.193	0.316
-499.639	800.000	0.029	0.123
-498.624	-200.000	-0.055	0.326
-497.610	-100.753	-0.138	-0.034
-496.595	-131.973	-0.281	-0.036
-495.581	-128.616	0.144	0.020
-494.566	626.942	-0.193	-0.482
-493.551	-200.000	-0.009	0.082
-492.537	29.500	0.521	0.438
-491.522	-95.627	-0.250	-0.066
-490.508	-200.000	0.042	0.194
-489.493	129.388	0.018	0.023
-488.478	-200.000	0.023	-0.140
-487.464	800.000	0.037	-0.141
-486.449	-160.756	0.136	0.007
-485.435	60.420	0.057	-0.056
-484.420	106.676	0.074	-0.086
-483.405	-93.776	0.109	-0.030
-482.391	-79.687	-0.148	0.049
-481.376	566.638	0.067	-0.160
-480.362	800.000	-0.069	0.218
-479.347	-45.043	-0.240	0.118
-478.332	181.326	-0.079	-0.114
-477.318	135.585	0.079	0.102
-476.303	-121.624	-0.111	0.018
-475.289	-200.000	-0.053	-0.289
-474.274	-33.646	0.310	-0.169
-473.259	-78.798	-0.257	-0.087
-472.245	166.214	-0.165	0.231
-471.230	-200.000	-0.003	-0.158
-470.216	-3.954	-0.263	0.181
-469.201	-76.425	-0.068	-0.024
-468.186	-111.196	-0.100	-0.020
-467.172	-88.577	-0.373	-0.110
-466.157	41.401	-0.112	-0.100
-465.143	800.000	0.097	0.320
-464.128	53.571	0.239	0.226
-463.113	-84.221	-0.065	0.020
-462.099	-200.000	-0.005	-0.032
-461.084	-200.000	0.081	0.364
-460.070	-118.440	0.041	-0.007
-459.055	694.485	0.087	-0.225
-458.040	41.624	0.110	-0.098
-457.026	-90.586	0.162	0.046
-456.011	130.746	-0.084	0.106
-454.997	124.723	-0.136	0.169
-453.982	-27.058	-0.253	0.146
-452.968	9.293	-0.263	0.197
-451.953	-200.000	0.013	-0.068
-450.938	1.908	0.179	-0.128
-449.924	800.000	0.082	-0.241
-448.909	-200.000	0.057	0.355
-447.895	-200.000	-0.023	0.104
-446.880	-197.787	0.336	-0.002
-445.865	111.320	-0.140	0.167
-444.851	72.623	0.250	0.258
-443.836	-200.000	-0.035	-0.179
-442.822	-143.111	-0.172	-0.016
-441.807	143.565	-0.218	-0.287
-440.792	-106.639	0.339	0.075
-439.778	-119.815	0.133	0.023
-438.763	132.283	0.094	-0.120
-437.749	166.490	-0.166	0.232
-436.734	-93.872	0.192	-0.052
-435.719	207.897	0.164	-0.253
-434.705	800.000	0.043	0.121
-433.690	-86.122	-0.139	0.042
-432.676	-39.849	0.167	-0.086
-431.661	-132.635	0.181	-0.023
-430.646	72.087	-0.344	-0.353
-429.632	-3.757	-0.029	0.020
-428.617	-138.262	0.328	-0.036
-427.603	326.591	-0.055	0.104
-426.588	800.000	0.056	0.154
-425.573	-200.000	0.023	0.140
-424.559	-200.000	0.046	-0.305
-423.544	148.617	-0.045	-0.059
-422.530	-99.708	0.200	0.049
-421.515	-65.605	0.279	0.110
-420.500	95.544	0.128	-0.145
-419.486	-74.335	-0.014	0.005
-418.471	-38.410	0.098	0.051
-417.457	273.425	0.259	-0.452
-416.442	800.000	0.065	-0.214
-415.428	-55.558	0.450	-0.199
-414.413	644.073	-0.134	0.338
-413.398	-20.327	0.040	0.024
-412.384	-200.000	-0.062	-0.314
-411.369	-17.120	-0.207	-0.129
-410.355	-136.238	-0.254	0.029
-409.340	305.281	0.078	0.143
-408.325	-125.525	0.267	0.040
-407.311	78.513	0.040	-0.042
-406.296	-112.259	0.153	0.030
-405.282	-140.842	0.375	-0.038
-404.267	250.663	-0.100	-0.168
-403.252	800.000	-0.060	-0.215
-402.238	9.422	0.325	-0.243
-401.223	123.604	-0.190	-0.235
-400.209	-200.000	0.013	-0.270
-399.194	726.140	-0.129	-0.340
-398.179	-20.269	-0.164	-0.100
-397.165	240.096	0.086	-0.141
-396.150	275.084	0.176	-0.308
-395.136	800.000	0.079	-0.293
-394.121	152.768	0.023	0.032
-393.106	-94.381	-0.245	0.066
-392.092	85.396	-0.224	0.242
-391.077	172.466	0.093	0.132
-390.063	-76.018	0.111	-0.039
-389.048	169.944	0.110	0.155
-388.033	-19.437	0.143	0.087
-387.019	212.246	0.160	0.249
-386.004	-160.916	-0.267	-0.014
-384.990	167.727	0.084	-0.118
-383.975	14.013	0.287	-0.220
-382.960	-98.542	-0.014	0.004
-381.946	268.594	0.069	-0.119
-380.931	405.091	0.080	0.167
-379.917	800.000	-0.025	-0.092
-378.902	-200.000	-0.022	-0.281
-377.888	-108.631	-0.036	-0.008
-376.873	96.117	-0.242	0.273
-375.858	-200.000	-0.031	0.233
-374.844	-79.164	0.299	0.100
-373.829	-23.742	0.194	-0.115
-372.815	-10.459	-0.069	-0.045
-371.800	-119.971	-0.154	-0.026
-370.785	800.000	0.025	0.080
-369.771	-200.000	-0.001	0.188
-368.756	63.284	-0.224	-0.221
-367.742	414.260	0.041	-0.086
-366.727	-45.712	0.243	0.118
-365.712	800.000	0.176	-0.511
-364.698	55.650	-0.054	-0.051
-363.683	177.644	-0.118	0.170
-362.669	127.222	0.283	-0.354
-361.654	239.165	-0.202	0.330
-360.639	-200.000	-0.045	0.437
-359.625	-200.000	0.034	0.154
-358.610	-200.000	0.001	-0.126
-357.596	-169.413	0.117	0.004
-356.581	-40.990	-0.176	-0.090
-355.566	-161.456	0.253	0.013
-354.552	18.565	0.130	0.102
-353.537	-102.720	0.196	-0.046
-352.523	599.156	-0.017	-0.041
-351.508	-76.463	-0.142	0.049
-350.493	-200.000	0.061	-0.301
-349.479	124.713	0.107	-0.132
-348.464	638.252	0.081	-0.202
-347.450	-162.472	-0.123	0.006
-346.435	800.000	-0.080	-0.326
-345.420	-180.602	0.245	0.005
-344.406	510.000	-0.143	-0.327
-343.391	-200.000	-0.009	0.398
-342.377	-36.286	-0.105	0.056
-341.362	108.321	-0.128	0.151
-340.348	-59.641	-0.363	0.153
-339.333	-145.854	-0.259	0.023
-338.318	-153.254	-0.412	-0.028
-337.304	178.609	0.073	0.104
-336.289	-143.001	0.385	0.037
-335.275	-21.954	-0.353	-0.211
-334.260	800.000	-0.049	0.165
-333.245	25.976	0.133	-0.109
-332.231	-101.186	-0.237	-0.057
-331.216	30.795	-0.132	-0.111
-330.202	197.000	-0.234	0.351
-329.187	-200.000	-0.006	-0.131
-328.172	259.296	-0.091	-0.154
-327.158	34.720	-0.439	-0.378
-326.143	510.500	0.024	0.054
-325.129	737.265	-0.070	0.184
-324.114	-52.752	-0.419	-0.190
-323.099	-87.029	0.265	0.079
-322.085	-200.000	0.007	-0.236
-321.070	-200.000	0.003	0.051
-320.056	800.000	-0.054	-0.156
-319.041	-200.000	-0.057	-0.337
-318.026	-200.000	0.041	0.226
-317.012	-85.150	0.418	-0.129
-315.997	94.985	0.268	0.300
-314.983	790.295	-0.147	-0.398
-313.968	531.245	-0.034	-0.079
-312.953	197.522	0.077	-0.116
-311.939	-17.271	0.092	-0.057
-310.924	-57.253	-0.174	0.075
-309.910	-46.834	-0.531	-0.255
-308.895	51.963	0.245	0.230
-307.880	-30.974	0.180	0.100
-306.866	-200.000	-0.034	0.243
-305.851	800.000	0.079	-0.291
-304.837	34.927	0.042	0.036
-303.822	-200.000	0.044	0.240
-302.807	-200.000	-0.019	-0.211
-301.793	20.113	-0.123	0.098
-300.778	749.391	0.073	-0.193
-299.764	-74.415	-0.179	0.063
-298.749	-50.606	0.113	0.052
-297.735	800.000	0.063	-0.250
-296.720	-56.799	0.310	-0.135
-295.705	800.000	0.113	0.333
-294.691	-36.821	0.317	0.167
-293.676	800.000	0.008	0.025
-292.662	348.177	0.022	-0.042
-291.647	-138.721	0.271	-0.029
-290.632	-161.308	0.223	0.011
-289.618	13.262	-0.083	0.063
-288.603	-157.122	-0.264	-0.016
-287.589	-47.970	0.218	0.104
-286.574	292.912	0.206	-0.370
-285.559	113.195	0.007	-0.008
-284.545	800.000	-0.032	0.138
-283.530	205.909	-0.152	0.232
-282.516	-36.012	0.334	-0.177
-281.501	-176.455	-0.233	-0.006
-280.486	800.000	-0.072	-0.225
-279.472	-56.778	0.164	0.071
-278.457	800.000	0.046	0.125
-277.443	-64.555	-0.323	0.129
-276.428	-14.059	-0.222	-0.141
-275.413	699.354	-0.064	-0.166
-274.399	-34.997	-0.500	0.267
-273.384	-200.000	0.013	0.199
-272.370	-200.000	-0.004	-0.024
-271.355	-27.200	0.133	0.076
-270.340	444.702	-0.262	0.564
-269.326	-18.906	0.393	0.240
-268.311	-200.000	-0.034	0.217
-267.297	552.768	-0.132	0.311
-266.282	-63.614	0.029	0.011
-265.267	82.641	0.146	0.155
-264.253	-200.000	0.015	0.091
-263.238	116.682	0.006	0.007
-262.224	-30.670	-0.026	-0.014
-261.209	47.064	0.225	0.205
-260.195	-138.128	0.035	-0.004
-259.180	-92.939	0.099	-0.027
-258.165	2.163	0.103	0.073
-257.151	85.423	-0.141	-0.152
-256.136	-107.042	0.269	-0.058
-255.122	-94.024	-0.210	-0.057
-254.107	114.477	-0.119	0.143
-253.092	231.065	0.172	0.277
-252.078	-1.635	-0.073	0.051
-251.063	800.000	-0.049	0.186
-250.049	-200.000	-0.038	0.319
-249.034	-110.368	0.411	0.084
-248.019	-101.814	-0.215	-0.051
-247.005	-200.000	-0.028	0.222
-245.990	569.192	0.124	0.295
-244.976	345.981	-0.021	0.040
-243.961	-1.461	0.130	0.090
-242.946	-108.536	-0.300	-0.063
-241.932	194.625	0.252	0.375
-240.917	-59.077	-0.167	0.071
-239.903	210.939	0.092	-0.142
-238.888	391.434	-0.033	-0.066
-237.873	58.830	-0.089	-0.086
-236.859	-44.233	0.110	-0.054
-235.844	-30.765	-0.069	0.038
-234.830	-146.387	0.258	-0.022
-233.815	151.718	0.088	0.118
-232.800	476.167	-0.079	-0.176
-231.786	129.017	-0.208	-0.260
-230.771	-200.000	0.023	0.111
-229.757	343.129	0.112	0.216
-228.742	38.716	0.176	-0.153
-227.727	-176.286	0.281	0.007
-226.713	-53.105	-0.110	-0.049
-225.698	-50.965	0.368	-0.169
-224.684	636.726	-0.129	0.320
-223.669	-20.955	0.126	0.075
-222.655	-136.566	0.182	-0.021
-221.640	223.720	0.046	0.073
-220.625	486.817	0.012	-0.027
-219.611	-32.358	0.179	0.098
-218.596	-112.133	-0.202	0.040
-217.582	-146.936	-0.205	-0.017
-216.567	-5.645	0.136	-0.091
-215.552	800.000	0.116	0.327
-214.538	800.000	-0.025	0.101
-213.523	-38.863	0.146	-0.076
-212.509	-43.313	-0.180	0.089
-211.494	-106.012	-0.223	-0.049
-210.479	9.565	0.140	-0.104
-209.465	41.222	0.120	-0.106
-208.450	-19.021	0.056	-0.034
-207.436	-144.354	0.188	0.017
-206.421	-200.000	-0.015	0.207
-205.406	749.321	-0.181	-0.478
-204.392	-13.269	-0.351	0.223
-203.377	-19.772	-0.203	-0.123
-202.363	-200.000	-0.050	0.226
-201.348	-119.514	-0.145	-0.025
-200.333	-56.517	0.168	-0.073
-199.319	12.852	-0.115	0.087
-198.304	72.745	-0.044	-0.045
-197.290	-141.287	-0.124	0.012
-196.275	193.902	0.129	-0.191
-195.260	-29.812	0.110	-0.061
-194.246	245.778	0.064	-0.105
-193.231	61.122	-0.361	0.351
-192.217	-92.492	0.162	-0.045
-191.202	740.713	-0.072	0.189
-190.187	-103.257	-0.282	0.065
-189.173	800.000	-0.131	0.375
-188.158	-56.760	-0.328	-0.142
-187.144	-179.179	-0.174	-0.004
-186.129	340.138	-0.125	-0.238
-185.114	20.021	0.101	0.080
-184.100	156.272	-0.192	0.260
-183.085	501.126	0.098	0.220
-182.071	-132.672	-0.193	0.024
-181.056	150.990	-0.119	-0.158
-180.042	-157.315	0.243	-0.014
-179.027	-7.527	-0.193	-0.128
-178.012	383.028	0.079	-0.159
-176.998	-55.376	-0.343	0.150
-175.983	-200.000	-0.025	0.121
-174.969	-200.000	-0.019	0.095
-173.954	800.000	-0.040	0.116
-172.939	800.000	-0.029	0.099
-171.925	-200.000	0.034	0.287
-170.910	-79.003	-0.250	0.083
-169.896	297.499	-0.086	0.155
-168.881	-200.000	0.000	-0.005
-167.866	-28.719	0.171	0.096
-166.852	-79.177	-0.337	0.112
-165.837	152.354	-0.082	-0.109
-164.823	252.029	-0.090	-0.150
-163.808	-165.039	0.259	0.011
-162.793	468.800	0.060	-0.132
-161.779	-108.003	0.299	0.063
-160.764	648.315	-0.011	0.028
-159.750	800.000	0.061	0.230
-158.735	462.309	0.221	-0.481
-157.720	-133.609	0.214	0.026
-156.706	146.940	0.216	-0.284
-155.691	-55.013	0.189	0.083
-154.677	535.005	0.063	0.146
-153.662	-200.000	0.012	-0.293
-152.647	-200.000	-0.043	-0.199
-151.633	-102.139	-0.305	0.072
-150.618	196.769	-0.152	-0.226
-149.604	92.736	0.183	0.202
-148.589	381.274	0.050	0.101
-147.574	251.868	-0.056	-0.094
-146.560	-55.626	-0.051	-0.022
-145.545	-173.528	-0.151	-0.004
-144.531	-61.234	0.387	0.159
-143.516	66.374	0.179	0.177
-142.502	-47.932	0.036	-0.017
-141.487	99.038	-0.200	0.226
-140.472	800.000	-0.140	-0.441
-139.458	-200.000	0.032	0.167
-138.443	-118.633	0.197	-0.034
-137.429	262.220	-0.088	0.150
-136.414	-88.187	0.080	0.023
-135.399	-200.000	-0.183	-0.001
-134.385	83.879	-0.167	0.178
-133.370	-142.313	-0.069	0.007
-132.356	-200.000	0.034	0.226
-131.341	-200.000	0.043	-0.190
-130.326	-85.733	-0.129	0.039
-129.312	-39.295	0.112	0.058
-128.297	-52.903	-0.240	0.108
-127.283	21.264	0.259	-0.205
-126.268	-48.073	-0.182	0.086
-125.253	599.378	0.141	0.342
-124.239	731.323	-0.101	0.263
-123.224	83.115	-0.042	-0.044
-122.210	307.354	0.081	0.148
-121.195	118.633	-0.181	0.219
-120.180	-98.877	0.166	-0.041
-119.166	-129.226	0.148	0.020
-118.151	167.473	-0.228	-0.317
-117.137	-200.000	-0.032	-0.166
-116.122	-105.039	-0.371	0.083
-115.107	-95.319	-0.450	0.118
-114.093	-200.000	0.017	-0.201
-113.078	668.832	-0.013	-0.032
-112.064	-116.526	0.194	0.035
-111.049	800.000	0.021	0.085
-110.034	-200.000	-0.049	0.249
-109.020	-24.221	-0.264	-0.154
-108.005	7.237	0.241	0.176
-106.991	800.000	-0.112	0.328
-105.976	-200.000	-0.019	-0.176
-104.962	-37.422	0.096	0.050
-103.947	67.266	-0.271	-0.270
-102.932	295.160	-0.153	0.273
-101.918	11.157	0.168	-0.125
-100.903	71.269	-0.229	0.231
-99.889	-200.000	-0.050	0.226
-98.874	153.190	-0.055	-0.074
-97.859	328.961	0.149	-0.279
-96.845	280.273	-0.066	0.115
-95.830	9.975	0.106	-0.079
-94.816	52.621	0.154	0.143
-93.801	134.912	-0.136	-0.172
-92.786	-128.994	0.262	-0.036
-91.772	-36.578	-0.237	-0.124
-90.757	-200.000	0.014	-0.277
-89.743	-193.479	-0.397	-0.003
-88.728	-61.476	-0.066	0.027
-87.713	-200.000	0.053	-0.347
-86.699	-200.000	-0.035	0.191
-85.684	-103.449	-0.274	0.063
-84.670	-92.952	-0.493	-0.134
-83.655	-73.606	0.120	0.043
-82.640	-57.743	0.196	0.084
-81.626	-122.313	0.208	-0.033
-80.611	358.582	-0.055	-0.108
-79.597	-85.666	0.125	0.038
-78.582	-37.802	-0.084	0.043
-77.567	85.916	0.241	-0.258
-76.553	-146.772	0.275	-0.023
-75.538	163.135	0.149	-0.204
-74.524	416.735	0.113	-0.235
-73.509	-200.000	0.030	-0.331
-72.494	174.812	0.131	-0.184
-71.480	97.232	0.097	-0.109
-70.465	-62.794	-0.164	0.066
-69.451	-122.118	0.224	0.036
-68.436	175.355	0.263	-0.371
-67.422	448.111	0.291	0.624
-66.407	-200.000	0.020	0.257
-65.392	730.124	0.037	-0.095
-64.378	-200.000	0.030	0.227
-63.363	-90.923	0.419	0.117
-62.349	800.000	0.021	0.079
-61.334	85.292	-1.443	-1.541
-60.319	102.224	0.659	0.750
-59.305	250.634	-0.904	-1.494
-58.290	304.056	0.823	1.485
-57.276	342.063	0.640	1.219
-56.261	-200.000	133.357	667.908
-55.246	325.985	1682.623	3134.204
-54.232	132.144	2821.707	3536.739
-53.217	86.213	2211.050	2369.797
-52.203	30.970	1723.169	1437.113
-51.188	23.697	1544.468	1237.548
-50.173	21.988	1522.314	1208.004
-49.159	46.183	1598.968	1441.152
-48.144	42.999	1609.062	1427.673
-47.130	23.795	1556.702	1247.841
-46.115	20.984	1540.416	1215.178
-45.100	20.759	1536.694	1210.631
-44.086	20.664	1535.597	1209.058
-43.071	20.674	1533.264	1207.241
-42.057	20.597	1532.275	1205.883
-41.042	20.604	1530.200	1204.247
-40.027	20.669	1528.191	1203.070
-39.013	20.553	1527.297	1201.514
-37.998	20.605	1525.952	1200.772
-36.984	20.559	1525.175	1199.791
-35.969	20.682	1523.420	1199.212
-34.954	20.665	1522.277	1198.147
-33.940	20.568	1520.818	1196.283
-32.925	20.638	1519.617	1195.773
-31.911	20.622	1518.171	1194.476
-30.896	20.675	1516.834	1193.746
-29.881	20.784	1515.498	1193.388
-28.867	20.774	1514.047	1192.134
-27.852	20.751	1512.679	1190.852
-26.838	20.796	1511.490	1190.176
-25.823	20.811	1509.152	1188.387
-24.809	20.733	1508.279	1187.120
-23.794	20.791	1506.737	1186.260
-22.779	20.708	1506.240	1185.256
-21.765	20.689	1505.494	1184.492
-20.750	20.672	1503.643	1182.873
-19.736	20.737	1502.811	1182.612
-18.721	20.672	1502.095	1181.563
-17.706	20.671	1500.949	1180.607
-16.692	20.750	1499.304	1179.799
-15.677	20.742	1498.239	1178.857
-14.663	20.768	1497.066	1178.064
-13.648	20.700	1496.184	1176.868
-12.633	20.721	1495.255	1176.230
-11.619	20.667	1494.761	1175.431
-10.604	20.696	1493.113	1174.281
-9.590	20.700	1492.416	1173.713
-8.575	20.642	1491.360	1172.450
-7.560	20.708	1490.297	1172.007
-6.546	20.725	1489.610	1171.540
-5.531	20.616	1489.189	1170.426
-4.517	20.738	1488.036	1170.296
-3.502	20.697	1486.863	1169.050
-2.487	20.683	1485.750	1168.033
-1.473	20.642	1484.731	1166.913
-0.458	20.700	1483.683	1166.430
0.556	19.827	1474.030	1156.418
1.571	17.000	1450.292	1119.075
2.586	14.097	1387.533	1052.208
3.600	12.790	1302.039	979.527
4.615	11.853	1258.284	941.140
5.629	10.366	1201.363	890.316
6.644	5.415	1119.216	803.964
7.659	1.224	1084.688	758.181
8.673	0.649	1079.177	751.402
9.688	0.569	1075.668	748.495
10.702	0.535	1074.391	747.371
11.717	0.507	1071.855	745.402
12.731	2.253	1072.619	754.490
13.746	7.961	1080.103	787.998
14.761	13.912	1088.050	823.307
15.775	16.744	1091.706	840.069
16.790	16.834	1090.329	839.383
17.804	15.923	1088.199	833.160
18.819	15.154	1086.269	827.812
19.834	14.589	1085.205	824.137
20.848	14.466	1083.791	822.387
21.863	14.187	1083.236	820.516
22.877	13.953	1082.607	818.812
23.892	13.754	1081.405	816.851
24.907	13.555	1081.048	815.531
25.921	13.547	1080.340	814.886
26.936	13.685	1079.768	815.056
27.950	13.685	1078.816	814.269
28.965	13.740	1077.893	813.770
29.980	13.731	1077.228	813.150
30.994	13.638	1076.308	811.928
32.009	13.721	1075.340	811.535
33.023	13.705	1074.855	811.016
34.038	13.773	1074.149	810.744
35.053	13.766	1072.708	809.552
36.067	13.832	1071.586	808.954
37.082	13.829	1071.160	808.545
38.096	13.773	1070.298	807.553
39.111	13.767	1069.542	806.879
40.126	13.828	1068.696	806.466
41.140	13.849	1067.262	805.415
42.155	13.628	1066.692	803.840
43.169	13.636	1065.644	803.020
44.184	13.810	1064.155	802.669
45.199	13.638	1063.525	801.291
46.213	13.566	1062.333	799.977
47.228	13.706	1061.133	799.674
48.242	13.689	1060.203	798.823
49.257	13.702	1059.452	798.248
50.271	13.777	1058.140	797.549
51.286	13.688	1057.354	796.458
52.301	13.664	1056.667	795.755
53.315	13.758	1055.904	795.563
54.330	13.809	1054.755	794.872
55.344	13.727	1054.107	793.920
56.359	13.694	1053.227	793.029
57.374	13.693	1052.172	792.157
58.388	13.739	1051.087	791.493
59.403	13.754	1050.740	791.231
60.417	13.658	1050.174	790.280
61.432	13.614	1049.234	789.293
62.447	13.761	1048.181	789.130
63.461	13.615	1047.681	787.986
64.476	13.626	1046.595	787.152
65.490	13.648	1045.626	786.461
66.505	13.587	1045.012	785.638
67.520	13.675	1044.022	785.244
68.534	13.730	1043.676	785.173
69.549	13.799	1042.283	784.381
70.563	13.620	1041.962	783.225
71.578	13.685	1041.265	782.938
72.593	13.800	1039.989	782.453
73.607	13.602	1039.400	781.004
74.622	13.517	1038.314	779.720
75.636	13.550	1037.137	778.924
76.651	13.542	1036.637	778.440
77.666	13.587	1035.446	777.690
78.680	13.643	1035.061	777.596
79.695	13.619	1034.032	776.642
80.709	13.467	1034.545	776.246
81.724	13.568	1033.054	775.529
82.739	13.581	1031.955	774.698
83.753	13.751	1031.713	775.239
84.768	13.714	1030.691	774.231
85.782	13.792	1029.971	773.984
86.797	13.861	1028.929	773.454
87.812	13.811	1028.426	772.779
88.826	13.750	1027.354	771.621
89.841	13.820	1026.347	771.119
90.855	13.841	1025.728	770.686
91.870	13.786	1024.888	769.729
92.884	13.909	1024.388	769.858
93.899	13.906	1023.374	769.013
94.914	13.947	1022.711	768.637
95.928	13.916	1021.871	767.794
96.943	13.940	1020.810	767.041
97.957	13.989	1019.764	766.409
98.972	13.907	1019.182	765.526
99.987	13.852	1018.901	764.995
101.001	13.814	1017.912	764.008
102.016	13.673	1017.165	762.732
103.030	13.668	1016.268	761.968
104.045	13.782	1014.879	761.383
105.060	13.831	1014.075	760.937
106.074	13.724	1013.439	759.903
107.089	13.649	1012.555	758.831
108.103	13.680	1011.435	758.068
109.118	13.679	1010.689	757.435
110.133	13.772	1009.538	756.929
111.147	13.790	1008.546	756.201
112.162	13.676	1008.142	755.310
113.176	13.726	1006.929	754.565
114.191	13.830	1006.052	754.311
115.206	13.758	1005.625	753.598
116.220	13.748	1004.766	752.841
117.235	13.681	1004.294	752.117
118.249	13.847	1002.677	751.591
119.264	13.844	1002.127	751.102
120.279	13.838	1001.345	750.421
121.293	13.817	1000.165	749.377
122.308	13.892	999.250	748.961
123.322	13.775	998.804	748.034
124.337	13.675	997.676	746.673
125.352	13.730	996.254	745.792
126.366	13.764	994.980	744.921
127.381	13.753	993.739	743.878
128.395	13.768	993.125	743.420
129.410	13.639	992.199	742.083
130.424	13.744	991.083	741.652
131.439	13.707	990.422	740.925
132.454	13.866	989.157	740.625
133.468	13.821	988.628	739.961
134.483	13.777	987.856	739.122
135.497	13.712	987.453	738.469
136.512	13.831	986.168	737.971
137.527	13.851	985.923	737.812
138.541	13.848	984.867	736.941
139.556	13.712	984.366	735.897
140.570	13.762	983.402	735.331
141.585	13.859	982.678	735.157
142.600	13.828	982.024	734.464
143.614	13.877	981.331	734.099
144.629	13.914	980.261	733.397
145.643	13.995	979.642	733.226
146.658	13.987	978.490	732.263
147.673	13.851	977.990	731.225
148.687	13.838	977.136	730.466
149.702	13.875	976.109	729.795
150.716	13.996	974.942	729.388
151.731	13.978	973.988	728.534
152.746	13.978	973.679	728.237
153.760	13.909	972.844	727.244
154.775	13.929	972.020	726.654
155.789	13.906	971.333	725.974
156.804	14.052	970.888	726.213
157.819	13.998	969.933	725.202
158.833	14.031	969.101	724.658
159.848	14.119	968.360	724.424
160.862	14.128	967.538	723.787
161.877	14.053	967.227	723.159
162.892	14.168	965.669	722.431
163.906	13.968	965.318	721.237
164.921	14.033	964.856	721.111
165.935	13.935	963.786	719.824
166.950	14.155	962.303	719.602
167.964	14.214	961.611	719.275
168.979	14.105	960.852	718.174
169.994	14.047	959.997	717.221
171.008	14.137	959.245	716.985
172.023	14.178	958.134	716.268
173.037	14.069	957.610	715.342
174.052	14.185	956.566	714.998
175.067	14.274	955.586	714.583
176.081	14.185	954.836	713.580
177.096	14.100	954.391	712.818
178.110	14.058	953.669	712.037
179.125	14.293	952.743	712.286
180.140	14.221	952.163	711.485
181.154	14.307	951.172	711.047
182.169	14.282	950.857	710.639
183.183	14.181	950.384	709.795
184.198	14.260	949.557	709.452
185.213	14.304	948.668	708.912
186.227	14.284	948.219	708.428
187.242	14.302	947.825	708.146
188.256	14.447	946.841	707.967
189.271	14.409	946.404	707.417
190.286	14.388	945.510	706.596
191.300	14.431	944.532	705.984
192.315	14.262	944.404	705.111
193.329	14.293	942.973	704.110
194.344	14.365	942.379	703.907
195.359	14.296	942.044	703.306
196.373	14.395	941.135	702.980
197.388	14.442	940.831	702.890
198.402	14.602	940.181	703.017
199.417	14.510	939.980	702.415
200.432	14.611	939.112	702.132
201.446	14.540	939.028	701.707
202.461	14.651	938.330	701.589
203.475	14.577	937.876	700.879
204.490	14.665	937.205	700.682
205.504	14.634	936.043	699.623
206.519	14.523	935.313	698.550
207.534	14.684	934.441	698.510
208.548	14.523	933.668	697.198
209.563	14.610	933.379	697.286
210.577	14.761	932.174	696.951
211.592	14.667	931.920	696.308
212.607	14.722	931.535	696.189
213.621	14.802	930.953	696.026
214.636	14.760	929.678	694.837
215.650	14.735	929.210	694.321
216.665	14.741	928.726	693.923
217.680	14.748	928.400	693.649
218.694	14.768	927.753	693.184
219.709	14.935	926.691	693.022
220.723	14.937	926.214	692.614
221.738	14.805	925.600	691.546
222.753	14.937	924.471	691.186
223.767	14.931	924.087	690.812
224.782	14.973	922.911	690.048
225.796	14.830	922.720	689.253
226.811	14.969	922.026	689.247
227.826	14.910	921.095	688.246
228.840	14.895	920.677	687.810
229.855	14.984	919.420	687.177
230.869	14.967	918.872	686.635
231.884	14.938	918.707	686.336
232.899	15.182	917.421	686.311
233.913	15.052	916.556	685.071
234.928	14.884	916.331	684.155
235.942	14.971	915.679	683.966
236.957	14.842	915.143	682.976
237.972	15.039	914.162	682.988
238.986	15.003	913.994	682.655
240.001	14.837	913.600	681.624
241.015	14.999	912.254	681.218
242.030	14.981	911.688	680.663
243.045	15.081	910.723	680.288
244.059	15.130	910.271	680.088
245.074	15.159	909.563	679.616
246.088	15.016	909.459	678.899
247.103	15.090	908.798	678.646
248.117	15.211	907.657	678.225
249.132	15.265	906.903	677.818
250.147	15.237	906.543	677.378
251.161	15.287	905.865	677.012
252.176	15.356	904.974	676.564
253.190	15.333	904.548	676.093
254.205	15.388	903.846	675.731
255.220	15.494	903.031	675.486
256.234	15.470	902.435	674.887
257.249	15.353	901.679	673.791
258.263	15.499	901.193	673.954
259.278	15.363	900.913	673.139
260.293	15.553	900.177	673.291
261.307	15.422	899.593	672.269
262.322	15.665	898.842	672.622
263.336	15.590	898.804	672.235
264.351	15.730	897.739	671.936
265.366	15.723	896.933	671.248
266.380	15.649	896.533	670.591
267.395	15.659	895.668	669.925
268.409	15.730	894.928	669.596
269.424	15.620	894.231	668.579
270.439	15.709	893.189	668.094
271.453	15.658	892.791	667.533
272.468	15.601	892.087	666.725
273.482	15.664	891.412	666.410
274.497	15.662	890.951	665.997
275.512	15.681	890.256	665.494
276.526	15.791	889.084	664.996
277.541	15.605	888.826	664.009
278.555	15.677	888.217	663.776
279.570	15.587	887.893	663.122
280.585	15.849	886.905	663.358
281.599	15.776	886.825	662.952
282.614	15.909	885.860	662.696
283.628	15.842	885.061	661.777
284.643	15.781	884.444	661.015
285.657	15.919	884.095	661.238
286.672	15.767	883.823	660.379
287.687	15.922	883.333	660.562
288.701	15.907	882.602	659.900
289.716	15.851	882.191	659.315
290.730	15.917	881.121	658.716
291.745	15.787	880.588	657.750
292.760	15.902	880.207	657.858
293.774	16.086	879.011	657.622
294.789	16.150	878.417	657.371
295.803	16.053	878.212	656.779
296.818	16.002	877.715	656.153
297.833	15.821	877.020	654.869
298.847	16.099	876.181	655.264
299.862	16.095	875.353	654.572
300.876	16.091	874.685	653.998
301.891	16.148	873.567	653.324
302.906	16.274	873.224	653.501
303.920	16.234	872.914	653.056
304.935	16.242	871.880	652.253
305.949	16.276	871.506	652.048
306.964	16.254	870.517	651.167
307.979	16.311	870.322	651.182
308.993	16.385	869.609	650.877
310.008	16.312	869.429	650.403
311.022	16.378	868.682	650.039
312.037	16.385	867.898	649.425
313.052	16.367	867.400	648.925
314.066	16.344	867.308	648.711
315.081	16.229	866.586	647.670
316.095	16.394	865.888	647.726
317.110	16.418	865.150	647.206
318.125	16.218	865.047	646.308
319.139	16.414	864.138	646.320
320.154	16.363	863.616	645.679
321.168	16.439	862.731	645.248
322.183	16.412	862.285	644.757
323.197	16.551	861.849	644.904
324.212	16.532	860.872	644.043
325.227	16.686	860.237	644.097
326.241	16.459	860.382	643.284
327.256	16.412	859.615	642.475
328.270	16.399	859.337	642.159
329.285	16.518	858.535	641.956
330.300	16.337	858.420	641.125
331.314	16.600	857.159	641.125
332.329	16.634	856.397	640.626
333.343	16.581	855.971	640.051
334.358	16.533	856.078	639.893
335.373	16.552	855.235	639.278
336.387	16.579	854.826	639.018
337.402	16.638	853.886	638.481
338.416	16.673	853.213	638.052
339.431	16.738	852.524	637.725
340.446	16.718	852.260	637.398
341.460	16.936	851.378	637.501
342.475	16.776	850.976	636.542
343.489	16.932	850.333	636.588
344.504	16.952	849.865	636.257
345.519	16.839	849.291	635.350
346.533	16.968	848.761	635.379
347.548	16.909	848.511	634.916
348.562	16.676	848.093	633.675
349.577	17.009	847.219	634.208
350.592	16.802	846.926	633.162
351.606	17.010	846.106	633.269
352.621	16.791	845.932	632.265
353.635	16.965	844.994	632.155
354.650	16.827	845.030	631.614
355.665	17.003	844.303	631.667
356.679	16.954	844.077	631.260
357.694	16.905	844.175	631.098
358.708	16.834	842.950	629.861
359.723	17.066	842.231	630.128
360.738	17.020	841.564	629.404
361.752	16.936	841.109	628.698
362.767	17.070	840.622	628.775
363.781	17.166	840.582	629.041
364.796	17.057	840.272	628.352
365.810	17.150	839.369	627.966
366.825	17.154	839.370	627.925
367.840	17.324	838.671	627.974
368.854	17.259	838.170	627.303
369.869	17.134	837.985	626.651
370.883	17.206	837.120	626.214
371.898	17.193	836.762	625.840
372.913	17.335	835.949	625.702
373.927	17.391	835.202	625.292
374.942	17.343	835.069	624.961
375.956	17.338	834.057	624.129
376.971	17.428	833.478	623.971
377.986	17.357	833.038	623.324
379.000	17.533	832.334	623.387
380.015	17.514	832.075	623.070
381.029	17.404	831.481	622.167
382.044	17.510	830.827	622.010
383.059	17.506	830.058	621.364
384.073	17.578	829.733	621.330
385.088	17.534	829.237	620.744
386.102	17.500	828.789	620.226
387.117	17.433	828.218	619.502
388.132	17.466	827.789	619.247
389.146	17.476	827.288	618.854
390.161	17.661	826.997	619.253
391.175	17.467	826.818	618.360
392.190	17.620	826.341	618.502
393.205	17.769	825.668	618.485
394.219	17.675	825.301	617.814
395.234	17.588	825.172	617.348
396.248	17.529	824.293	616.423
397.263	17.575	823.524	615.959
398.278	17.474	823.474	615.502
399.292	17.543	822.820	615.207
400.307	17.636	822.632	615.348
401.321	17.551	821.933	614.466
402.336	17.682	821.452	614.522
403.350	17.606	821.400	614.154
404.365	17.730	820.486	613.863
405.380	17.657	820.148	613.294
406.394	17.778	819.678	613.323
407.409	17.868	819.213	613.246
408.423	17.845	818.398	612.497
409.438	17.875	817.910	612.188
410.453	17.823	817.973	611.993
411.467	17.771	817.701	611.551
412.482	17.887	817.112	611.469
413.496	18.015	816.234	611.217
414.511	17.998	815.804	610.779
415.526	18.002	815.885	610.802
416.540	17.976	815.333	610.241
417.555	18.007	814.606	609.755
418.569	18.076	814.090	609.560
419.584	17.910	814.002	608.846
420.599	18.038	813.164	608.624
421.613	115.149	1300.758	1490.801
422.628	99.695	1371.742	1490.916
