DTS Sentinel unit serial number:	SN413079Multiplexer serial number:	ORYXHardware model number:	OX4-SRSoftware version number:	ORYX F/W v4.00 Oryx Data Collector v3.7.2.0data status	okinstallation	princeton_trtdifferential loss correction	single-endedforward channel	channel 3reverse channel	N/Adate	2019/09/15time	12:24:35forward acquisition time	60.00reverse acquisition time	0.00gamma	496.2192k internal	0.2301k external	0.2301temperature offset calibration	0.9970default loss term (dB/km)	0.3790temperature slope calibration	1.0000multiplexer offset coefficient	1.0000multiplexer slope coefficient	1.0000fibre end	0.00T internal ref (°C)	34.92T ext. ref 1 (°C)	5.03T ext. ref 2 (°C)	32.42length (m)	temperature (°C)	Stokes	anti-Stokes-747.200	800.000	-0.040	0.176
-746.185	-200.000	-0.021	0.486
-745.171	800.000	-0.110	-0.422
-744.156	-182.364	0.234	0.004
-743.142	-166.755	-0.283	-0.012
-742.127	3.231	0.200	0.149
-741.112	662.165	0.093	0.244
-740.098	83.540	-0.185	0.205
-739.083	-39.449	0.154	-0.082
-738.069	387.017	-0.112	0.237
-737.054	-200.000	0.004	-0.209
-736.039	75.375	-0.297	-0.319
-735.025	-63.845	0.211	0.088
-734.010	140.544	-0.198	-0.266
-732.996	800.000	-0.076	0.225
-731.981	-183.014	-0.279	-0.005
-730.966	412.014	0.114	0.247
-729.952	69.324	-0.364	-0.381
-728.937	120.883	-0.122	-0.155
-727.923	-108.045	0.149	-0.033
-726.908	90.498	-0.354	-0.403
-725.894	-12.709	0.347	-0.231
-724.879	225.397	-0.131	-0.216
-723.864	-19.152	-0.082	-0.052
-722.850	800.000	0.048	0.189
-721.835	800.000	-0.091	-0.395
-720.821	-20.351	0.112	0.070
-719.806	-28.301	-0.339	0.200
-718.791	45.781	0.061	-0.057
-717.777	800.000	0.089	-0.315
-716.762	-101.627	-0.091	-0.022
-715.748	-200.000	-0.020	-0.292
-714.733	-66.002	0.333	-0.136
-713.718	-137.446	-0.347	0.040
-712.704	-183.413	-0.069	-0.001
-711.689	-118.625	-0.401	-0.072
-710.675	198.245	0.043	-0.066
-709.660	-4.801	0.227	-0.159
-708.645	800.000	-0.041	-0.137
-707.631	-78.971	0.183	-0.063
-706.616	-47.801	-0.181	0.089
-705.602	91.177	-0.211	-0.241
-704.587	-85.166	-0.068	0.022
-703.572	231.878	-0.106	0.177
-702.558	-200.000	-0.032	-0.286
-701.543	-94.953	-0.136	-0.038
-700.529	-126.606	0.272	-0.041
-699.514	-200.000	-0.044	-0.505
-698.499	16.168	0.356	0.285
-697.485	-169.592	-0.197	-0.007
-696.470	427.465	-0.093	0.204
-695.456	798.939	-0.120	0.336
-694.441	-16.982	-0.291	0.187
-693.426	3.867	-0.267	-0.198
-692.412	329.038	0.083	0.162
-691.397	-49.519	0.356	0.172
-690.383	800.000	0.030	-0.114
-689.368	-126.264	0.240	-0.037
-688.354	314.083	-0.113	0.216
-687.339	-124.261	-0.119	-0.019
-686.324	-145.460	-0.142	0.013
-685.310	8.562	0.077	0.059
-684.295	81.312	0.179	0.196
-683.281	101.941	-0.087	0.103
-682.266	187.891	-0.105	0.160
-681.251	-200.000	-0.085	0.449
-680.237	-176.384	0.380	0.010
-679.222	-46.887	0.268	0.133
-678.208	-6.353	-0.317	0.220
-677.193	-127.592	-0.286	0.042
-676.178	-200.000	-0.068	-0.458
-675.164	-200.000	0.025	-0.195
-674.149	-92.683	-0.258	-0.074
-673.135	-132.251	-0.172	0.023
-672.120	590.056	-0.078	0.194
-671.105	-98.722	-0.404	0.105
-670.091	800.000	0.042	0.142
-669.076	261.174	0.078	-0.136
-668.062	158.959	-0.070	0.099
-667.047	-168.196	-0.200	-0.008
-666.032	305.487	-0.152	-0.287
-665.018	-36.273	-0.086	-0.047
-664.003	75.316	0.130	0.140
-662.989	434.488	-0.084	-0.186
-661.974	-200.000	-0.013	-0.309
-660.959	-105.919	-0.207	-0.047
-659.945	-137.240	0.191	-0.022
-658.930	800.000	0.016	-0.060
-657.916	-200.000	-0.027	-0.160
-656.901	-102.956	-0.066	0.016
-655.886	5.661	-0.068	-0.051
-654.872	262.974	0.192	-0.339
-653.857	86.552	-0.094	-0.105
-652.843	495.397	-0.088	-0.205
-651.828	-71.635	-0.169	-0.064
-650.814	-70.447	-0.299	-0.115
-649.799	97.934	-0.273	-0.319
-648.784	15.191	-0.277	-0.221
-647.770	-78.885	0.105	0.036
-646.755	-115.529	-0.137	-0.026
-645.741	800.000	-0.057	-0.195
-644.726	-50.125	-0.126	0.061
-643.711	-118.885	0.061	0.011
-642.697	79.724	0.094	-0.102
-641.682	-80.383	0.252	-0.085
-640.668	-40.723	-0.247	-0.130
-639.653	35.098	0.310	-0.276
-638.638	49.471	-0.232	0.222
-637.624	-126.762	-0.252	-0.038
-636.609	27.957	0.130	0.111
-635.595	602.235	0.057	0.144
-634.580	237.937	-0.054	0.091
-633.565	-200.000	0.000	-0.314
-632.551	-200.000	-0.055	0.305
-631.536	-29.680	-0.018	0.011
-630.522	-66.883	-0.356	-0.143
-629.507	-90.918	0.121	0.035
-628.492	-39.014	0.320	-0.171
-627.478	318.508	-0.029	-0.056
-626.463	-130.748	-0.206	0.028
-625.449	694.976	-0.005	-0.013
-624.434	800.000	0.069	0.234
-623.419	-200.000	0.026	-0.411
-622.405	695.319	0.023	-0.060
-621.390	-3.283	-0.195	-0.138
-620.376	23.364	-0.219	-0.183
-619.361	-200.000	0.047	0.225
-618.346	-29.996	-0.271	-0.157
-617.332	-22.141	0.281	-0.173
-616.317	303.089	-0.086	0.162
-615.303	-97.756	0.201	-0.053
-614.288	28.696	0.136	-0.117
-613.273	106.070	0.061	0.073
-612.259	-146.213	0.126	0.011
-611.244	19.977	-0.193	0.158
-610.230	-200.000	-0.059	-0.276
-609.215	238.181	-0.126	-0.212
-608.201	26.639	-0.109	0.093
-607.186	-42.814	0.189	-0.098
-606.171	729.976	0.086	-0.233
-605.157	-74.344	-0.299	-0.110
-604.142	155.691	-0.176	-0.246
-603.128	143.506	0.137	0.185
-602.113	290.750	0.074	0.137
-601.098	319.633	0.144	-0.277
-600.084	-43.888	0.330	0.168
-599.069	-137.251	-0.180	0.021
-598.055	-63.180	0.257	0.107
-597.040	99.614	-0.173	-0.203
-596.025	-78.713	0.432	0.150
-595.011	170.937	0.138	-0.200
-593.996	800.000	0.056	0.228
-592.982	56.755	0.113	-0.111
-591.967	6.311	0.151	-0.113
-590.952	-101.022	-0.409	-0.102
-589.938	800.000	-0.036	-0.102
-588.923	-200.000	-0.050	-0.364
-587.909	-34.292	-0.355	0.197
-586.894	39.945	-0.174	-0.158
-585.879	336.375	-0.052	0.102
-584.865	800.000	-0.134	0.395
-583.850	-14.655	0.211	-0.137
-582.836	71.906	0.252	0.265
-581.821	-75.821	0.166	0.060
-580.806	104.326	0.231	0.275
-579.792	-29.994	-0.204	-0.118
-578.777	-200.000	-0.001	0.035
-577.763	235.624	0.122	0.204
-576.748	-157.243	-0.051	-0.003
-575.733	127.969	0.197	-0.253
-574.719	22.082	0.184	0.152
-573.704	800.000	-0.093	0.281
-572.690	-200.000	0.062	-0.330
-571.675	22.350	-0.283	-0.234
-570.661	-45.219	-0.235	-0.118
-569.646	-152.903	0.366	0.026
-568.631	-1.950	0.112	-0.080
-567.617	-200.000	-0.038	-0.445
-566.602	55.536	0.159	-0.155
-565.588	6.132	-0.196	-0.147
-564.573	-4.488	-0.111	-0.078
-563.558	-200.000	0.002	-0.267
-562.544	-200.000	0.001	0.168
-561.529	62.291	-0.170	-0.172
-560.515	118.919	-0.109	-0.136
-559.500	-151.475	-0.369	0.028
-558.485	-200.000	0.025	-0.174
-557.471	317.911	-0.099	-0.189
-556.456	-47.684	-0.167	0.082
-555.442	-200.000	0.066	0.463
-554.427	-200.000	0.031	-0.451
-553.412	-64.454	-0.159	0.066
-552.398	-200.000	-0.005	0.205
-551.383	-101.220	-0.293	0.072
-550.369	-200.000	0.027	-0.211
-549.354	-200.000	0.004	0.029
-548.339	-67.283	0.077	-0.031
-547.325	-200.000	-0.021	0.256
-546.310	-144.357	0.149	-0.014
-545.296	800.000	-0.037	-0.132
-544.281	800.000	-0.093	-0.388
-543.266	-101.823	0.224	0.055
-542.252	9.820	-0.169	-0.130
-541.237	-58.875	0.272	-0.119
-540.223	-16.123	0.151	0.097
-539.208	676.669	-0.085	-0.224
-538.193	51.235	-0.161	-0.154
-537.179	513.270	-0.053	0.126
-536.164	-86.170	-0.020	0.006
-535.150	800.000	-0.066	0.274
-534.135	272.080	-0.103	0.183
-533.121	-97.650	-0.437	0.115
-532.106	800.000	0.086	-0.378
-531.091	627.056	-0.027	-0.070
-530.077	-200.000	0.030	-0.319
-529.062	800.000	-0.074	-0.276
-528.048	800.000	-0.064	0.201
-527.033	-155.975	-0.171	0.011
-526.018	90.856	-0.219	0.248
-525.004	449.842	-0.057	-0.126
-523.989	53.644	-0.235	0.228
-522.975	-63.665	0.211	0.087
-521.960	-132.800	0.105	-0.014
-520.945	-79.682	0.085	-0.029
-519.931	-106.569	-0.215	0.048
-518.916	800.000	-0.059	0.185
-517.902	-193.911	0.128	-0.001
-516.887	160.061	-0.126	0.178
-515.872	-80.456	0.349	0.118
-514.858	-73.573	0.284	-0.105
-513.843	69.243	-0.179	-0.186
-512.829	136.081	0.063	-0.083
-511.814	800.000	0.064	-0.229
-510.799	-30.417	0.322	0.185
-509.785	411.582	0.075	0.161
-508.770	-200.000	0.014	0.129
-507.756	-2.243	0.239	-0.170
-506.741	151.392	-0.073	-0.100
-505.726	-200.000	-0.016	0.231
-504.712	36.216	-0.064	0.057
-503.697	-200.000	0.028	0.278
-502.683	632.676	-0.057	-0.147
-501.668	-93.640	0.405	-0.113
-500.653	-174.097	0.075	0.002
-499.639	-0.419	-0.070	0.050
-498.624	-200.000	-0.019	-0.106
-497.610	-114.871	-0.092	-0.018
-496.595	-144.617	0.538	-0.050
-495.581	-59.091	-0.240	0.105
-494.566	800.000	0.051	0.209
-493.551	85.638	0.197	0.218
-492.537	-144.165	0.187	0.018
-491.522	100.830	-0.102	0.120
-490.508	-39.428	-0.327	-0.173
-489.493	-139.534	-0.209	-0.023
-488.478	57.504	0.158	-0.156
-487.464	79.150	-0.136	-0.147
-486.449	35.345	-0.107	-0.095
-485.435	437.366	0.117	0.258
-484.420	11.367	0.043	0.033
-483.405	800.000	-0.120	-0.371
-482.391	278.012	0.099	-0.178
-481.376	56.613	0.345	-0.339
-480.362	800.000	0.110	0.358
-479.347	97.418	-0.012	-0.014
-478.332	50.595	-0.106	0.101
-477.318	-29.266	0.208	0.120
-476.303	-200.000	0.014	0.357
-475.289	47.298	-0.054	0.051
-474.274	800.000	-0.093	-0.267
-473.259	-58.289	-0.484	-0.213
-472.245	-34.248	-0.216	-0.120
-471.230	-30.368	-0.424	-0.243
-470.216	-179.411	0.014	-0.000
-469.201	217.518	0.096	0.154
-468.186	64.476	-0.078	0.080
-467.172	-131.210	0.529	0.071
-466.157	-153.200	-0.202	-0.014
-465.143	-48.451	0.143	0.069
-464.128	-45.442	0.166	0.083
-463.113	-200.000	-0.021	0.210
-462.099	-200.000	0.011	-0.083
-461.084	-13.881	-0.247	-0.161
-460.070	305.089	-0.053	0.099
-459.055	226.860	0.068	0.112
-458.040	-157.778	0.128	0.008
-457.026	-32.421	-0.272	-0.153
-456.011	42.035	0.222	0.203
-454.997	172.362	0.081	0.117
-453.982	800.000	0.119	0.377
-452.968	-66.991	0.172	-0.068
-451.953	33.975	0.193	0.169
-450.938	18.979	0.081	0.065
-449.924	-4.043	-0.249	0.174
-448.909	381.904	0.030	0.062
-447.895	-28.605	-0.195	0.113
-446.880	96.962	-0.050	-0.058
-445.865	60.370	-0.056	-0.056
-444.851	-49.043	0.083	0.040
-443.836	800.000	0.098	-0.413
-442.822	9.867	0.452	-0.346
-441.807	-200.000	-0.003	-0.334
-440.792	134.485	-0.066	-0.086
-439.778	411.295	-0.106	0.226
-438.763	-135.574	-0.331	0.040
-437.749	133.613	-0.033	-0.043
-436.734	-200.000	-0.080	-0.383
-435.719	-108.203	0.335	0.073
-434.705	-200.000	-0.013	0.210
-433.690	-69.876	-0.288	-0.111
-432.676	2.431	-0.391	0.285
-431.661	-31.441	0.382	-0.216
-430.646	-97.076	-0.434	0.114
-429.632	800.000	0.060	-0.222
-428.617	-200.000	-0.004	-0.133
-427.603	455.736	-0.109	-0.244
-426.588	227.987	0.167	-0.273
-425.573	293.604	-0.077	0.141
-424.559	173.886	-0.166	0.241
-423.544	-150.161	0.424	-0.033
-422.530	-70.391	-0.080	-0.030
-421.515	-200.000	0.002	-0.126
-420.500	-200.000	-0.012	-0.065
-419.486	-36.132	-0.132	0.072
-418.471	-17.783	-0.137	0.087
-417.457	502.985	-0.079	0.183
-416.442	114.640	0.143	0.175
-415.428	800.000	0.077	-0.228
-414.413	-70.321	-0.138	0.053
-413.398	800.000	-0.074	0.280
-412.384	43.652	0.346	0.318
-411.369	-137.012	-0.192	0.022
-410.355	268.146	-0.163	0.287
-409.340	126.391	0.363	0.462
-408.325	22.224	-0.241	0.198
-407.311	-200.000	0.009	-0.091
-406.296	-200.000	-0.026	0.340
-405.282	800.000	0.039	-0.111
-404.267	187.228	0.149	0.224
-403.252	-64.216	-0.277	0.114
-402.238	-184.978	0.110	0.002
-401.223	180.077	0.221	0.326
-400.209	-200.000	0.004	-0.052
-399.194	-26.088	-0.494	-0.292
-398.179	317.250	0.160	-0.305
-397.165	-120.886	-0.034	-0.006
-396.150	666.324	0.162	0.420
-395.136	-157.410	0.159	0.010
-394.121	-197.016	0.221	0.001
-393.106	-41.510	-0.176	-0.091
-392.092	-81.328	-0.104	0.034
-391.077	-98.095	0.355	0.092
-390.063	800.000	0.041	0.165
-389.048	171.913	-0.128	-0.185
-388.033	-98.527	0.269	0.069
-387.019	90.529	-0.343	-0.386
-386.004	800.000	-0.049	0.208
-384.990	-136.927	0.179	0.021
-383.975	-124.406	-0.199	-0.031
-382.960	800.000	0.087	-0.342
-381.946	37.512	0.214	-0.190
-380.931	-17.750	-0.271	-0.171
-379.917	-200.000	-0.129	0.645
-378.902	-73.641	-0.073	0.027
-377.888	-200.000	-0.001	0.088
-376.873	-151.068	-0.210	0.016
-375.858	631.256	0.095	-0.241
-374.844	-200.000	-0.041	-0.189
-373.829	-96.668	0.043	-0.011
-372.815	-200.000	-0.006	-0.173
-371.800	53.556	-0.017	0.016
-370.785	-41.385	-0.264	-0.136
-369.771	494.789	0.039	0.089
-368.756	367.681	0.082	-0.167
-367.742	-200.000	-0.076	0.333
-366.727	31.224	0.165	-0.143
-365.712	-92.772	0.159	-0.045
-364.698	321.710	-0.032	-0.061
-363.683	800.000	0.090	0.354
-362.669	-120.406	-0.181	0.031
-361.654	271.662	-0.139	0.245
-360.639	531.183	-0.070	-0.165
-359.625	171.088	0.194	0.279
-358.610	93.052	0.052	0.059
-357.596	800.000	-0.116	0.363
-356.581	-200.000	-0.007	-0.150
-355.566	800.000	0.083	0.277
-354.552	-116.183	0.140	-0.026
-353.537	-112.814	-0.045	0.009
-352.523	800.000	0.095	-0.286
-351.508	85.306	0.067	-0.074
-350.493	180.458	0.122	0.180
-349.479	-200.000	0.016	0.134
-348.464	344.350	-0.117	-0.231
-347.450	-52.739	0.442	-0.205
-346.435	90.451	0.133	0.150
-345.420	-8.634	0.297	-0.200
-344.406	-167.522	-0.363	-0.015
-343.391	193.921	0.073	-0.111
-342.377	60.169	0.426	-0.423
-341.362	99.513	0.074	-0.085
-340.348	386.629	-0.074	0.154
-339.333	189.611	0.163	0.245
-338.318	-200.000	0.000	0.007
-337.304	11.510	-0.268	-0.206
-336.289	-39.236	0.111	-0.058
-335.275	-200.000	-0.030	0.253
-334.260	117.349	0.066	-0.081
-333.245	-125.007	0.301	-0.046
-332.231	39.180	0.075	0.068
-331.216	-200.000	0.014	0.114
-330.202	338.674	-0.132	0.258
-329.187	-87.508	-0.182	0.055
-328.172	-43.980	-0.167	0.084
-327.158	-24.418	0.072	-0.043
-326.143	-176.336	0.192	0.005
-325.129	-200.000	0.071	0.429
-324.114	-58.920	0.191	0.083
-323.099	-80.125	-0.216	-0.073
-322.085	3.396	0.206	0.150
-321.070	-53.477	0.233	-0.107
-320.056	800.000	-0.125	-0.370
-319.041	-183.809	-0.281	-0.005
-318.026	-200.000	0.005	-0.190
-317.012	40.734	-0.242	-0.219
-315.997	160.207	0.055	0.077
-314.983	-186.706	0.365	0.005
-313.968	-122.671	0.208	0.034
-312.953	800.000	-0.038	0.152
-311.939	30.739	-0.124	0.106
-310.924	695.921	-0.153	-0.402
-309.910	-24.840	0.128	-0.076
-308.895	594.884	-0.045	-0.112
-307.880	6.537	-0.147	-0.109
-306.866	-155.879	0.261	-0.017
-305.851	-134.842	0.166	-0.020
-304.837	-3.093	-0.118	0.082
-303.822	744.855	0.064	-0.174
-302.807	-68.029	-0.465	-0.182
-301.793	-200.000	0.033	0.209
-300.778	-200.000	0.004	-0.145
-299.764	-99.832	0.085	0.021
-298.749	-12.945	-0.131	-0.085
-297.735	275.452	0.114	0.202
-296.720	-200.000	-0.022	0.212
-295.705	78.527	-0.207	0.222
-294.691	261.913	-0.084	0.145
-293.676	-70.794	-0.140	0.053
-292.662	-26.989	-0.143	-0.084
-291.647	-200.000	-0.013	-0.081
-290.632	113.030	-0.006	0.008
-289.618	285.457	0.120	0.216
-288.603	336.443	-0.113	-0.220
-287.589	24.908	0.163	-0.136
-286.574	-200.000	0.062	0.300
-285.559	-140.507	0.096	-0.010
-284.545	-82.380	-0.169	0.055
-283.530	-27.418	0.142	-0.082
-282.516	-44.403	-0.373	0.187
-281.501	-146.340	0.109	-0.010
-280.486	-200.000	-0.043	-0.247
-279.472	173.534	0.115	0.166
-278.457	-200.000	0.000	-0.057
-277.443	102.505	0.116	0.135
-276.428	-120.081	0.315	-0.054
-275.413	406.792	-0.039	-0.082
-274.399	119.279	-0.055	0.068
-273.384	268.267	0.153	-0.268
-272.370	14.782	0.260	-0.204
-271.355	339.321	-0.136	-0.265
-270.340	215.532	-0.130	0.206
-269.326	-200.000	0.038	0.218
-268.311	12.011	0.127	0.098
-267.297	-200.000	-0.014	0.157
-266.282	-200.000	0.000	-0.154
-265.267	240.742	-0.155	0.258
-264.253	-200.000	0.081	0.428
-263.238	-200.000	0.002	0.053
-262.224	150.338	-0.111	0.151
-261.209	-158.165	-0.162	0.009
-260.195	-200.000	0.156	-0.000
-259.180	-60.924	0.229	0.097
-258.165	-111.850	0.070	-0.014
-257.151	463.353	-0.175	0.392
-256.136	-99.299	-0.247	-0.062
-255.122	-81.065	-0.141	0.047
-254.107	569.815	0.107	0.259
-253.092	241.586	0.150	-0.252
-252.078	-142.682	-0.282	0.028
-251.063	-112.211	0.075	-0.015
-250.049	-16.215	-0.193	-0.123
-249.034	-141.114	-0.244	-0.025
-248.019	28.491	0.148	0.126
-247.005	47.210	0.163	0.152
-245.990	-27.635	-0.083	0.048
-244.976	-200.000	-0.045	-0.241
-243.961	-128.510	-0.273	-0.039
-242.946	32.680	-0.153	0.132
-241.932	-151.652	0.085	-0.006
-240.917	-200.000	0.002	0.129
-239.903	-200.000	0.011	-0.110
-238.888	-65.893	0.129	0.051
-237.873	5.239	0.168	0.124
-236.859	800.000	-0.030	-0.084
-235.844	-67.076	0.055	0.022
-234.830	-200.000	-0.012	-0.232
-233.815	-25.949	0.128	-0.075
-232.800	59.059	-0.189	0.186
-231.786	-176.941	0.037	-0.001
-230.771	-6.838	-0.109	-0.074
-229.757	800.000	-0.066	0.201
-228.742	-37.559	0.192	0.102
-227.727	-41.890	0.166	-0.085
-226.713	-200.000	0.020	0.322
-225.698	431.399	0.128	-0.276
-224.684	-7.880	-0.053	-0.036
-223.669	-135.031	0.210	-0.025
-222.655	-134.649	0.244	-0.030
-221.640	-111.311	-0.183	-0.037
-220.625	-69.657	-0.300	0.114
-219.611	-200.000	-0.019	0.243
-218.596	800.000	0.074	-0.295
-217.582	469.859	-0.084	-0.188
-216.567	504.112	-0.167	-0.386
-215.552	563.040	0.251	-0.608
-214.538	192.714	-0.034	-0.052
-213.523	763.512	-0.047	0.126
-212.509	515.400	0.061	-0.142
-211.494	-200.000	-0.041	-0.219
-210.479	79.886	0.338	0.362
-209.465	-7.870	-0.140	0.094
-208.450	800.000	0.047	0.169
-207.436	0.155	0.029	-0.021
-206.421	-200.000	0.068	-0.588
-205.406	-133.076	-0.354	-0.045
-204.392	-48.397	-0.010	0.005
-203.377	627.600	0.071	-0.178
-202.363	236.020	0.070	0.115
-201.348	-122.862	-0.057	-0.009
-200.333	-133.638	0.054	-0.007
-199.319	477.000	0.127	-0.286
-198.304	800.000	-0.042	0.132
-197.290	-83.294	-0.117	0.037
-196.275	-26.544	-0.220	0.129
-195.260	54.910	-0.144	-0.139
-194.246	800.000	0.037	0.149
-193.231	-200.000	-0.027	-0.155
-192.217	-138.517	-0.223	-0.024
-191.202	51.186	-0.089	0.084
-190.187	-117.046	-0.086	-0.016
-189.173	183.070	0.211	0.311
-188.158	99.260	-0.335	0.387
-187.144	51.316	0.296	0.281
-186.129	366.315	0.077	0.155
-185.114	-6.597	-0.344	-0.234
-184.100	-116.778	-0.213	-0.039
-183.085	-200.000	0.006	0.114
-182.071	-31.752	-0.033	0.019
-181.056	526.329	-0.112	-0.264
-180.042	-12.661	0.241	-0.157
-179.027	-95.077	0.109	-0.029
-178.012	-37.890	0.032	0.017
-176.998	-200.000	0.012	0.184
-175.983	47.234	0.145	0.135
-174.969	800.000	-0.017	0.057
-173.954	-1.023	0.111	-0.078
-172.939	198.537	0.077	-0.118
-171.925	299.213	0.163	-0.299
-170.910	25.649	0.154	-0.127
-169.896	-200.000	0.026	0.360
-168.881	61.234	-0.217	0.215
-167.866	-200.000	-0.059	0.483
-166.852	800.000	0.117	0.415
-165.837	10.714	0.142	-0.108
-164.823	222.300	-0.184	-0.296
-163.808	-200.000	-0.022	0.170
-162.793	-200.000	0.054	0.399
-161.779	530.983	0.038	-0.090
-160.764	243.612	0.110	0.184
-159.750	-15.523	0.243	0.154
-158.735	50.354	0.176	-0.166
-157.720	-72.626	0.255	-0.094
-156.706	-92.284	0.139	0.039
-155.691	55.194	0.169	0.163
-154.677	222.171	-0.070	0.112
-153.662	-12.841	-0.335	0.218
-152.647	-200.000	0.012	-0.262
-151.633	-159.002	-0.258	-0.015
-150.618	176.479	-0.291	0.421
-149.604	112.419	0.219	0.264
-148.589	773.981	0.079	-0.214
-147.574	313.181	-0.219	-0.409
-146.560	177.434	-0.164	-0.238
-145.545	800.000	-0.057	-0.210
-144.531	111.947	0.137	-0.165
-143.516	647.764	-0.159	-0.404
-142.502	108.153	-0.077	-0.092
-141.487	-61.969	0.133	-0.055
-140.472	316.641	-0.076	0.143
-139.458	-99.592	-0.171	-0.043
-138.443	-32.694	-0.146	0.081
-137.429	-38.952	0.068	-0.036
-136.414	1.032	-0.208	-0.148
-135.399	72.376	-0.026	0.027
-134.385	139.666	0.076	0.099
-133.370	-160.931	0.387	0.020
-132.356	-65.765	0.208	0.083
-131.341	37.432	0.225	0.199
-130.326	-200.000	-0.032	0.372
-129.312	-111.505	-0.090	-0.018
-128.297	-200.000	-0.002	-0.369
-127.283	-69.709	-0.071	-0.027
-126.268	-89.913	-0.184	0.053
-125.253	16.005	0.279	0.218
-124.239	-200.000	0.054	-0.400
-123.224	50.998	-0.155	-0.146
-122.210	-193.566	-0.300	-0.003
-121.195	330.067	0.128	0.244
-120.180	-23.841	0.140	0.084
-119.166	-103.283	0.175	0.041
-118.151	800.000	0.081	0.276
-117.137	63.284	0.210	-0.210
-116.122	-149.488	-0.125	-0.010
-115.107	210.403	0.046	-0.072
-114.093	-200.000	0.025	-0.382
-113.078	-200.000	-0.038	0.224
-112.064	-117.134	0.229	-0.042
-111.049	-183.776	0.043	0.001
-110.034	-200.000	0.006	0.165
-109.020	-139.871	0.232	0.024
-108.005	-18.109	0.137	-0.085
-106.991	-159.790	0.388	-0.021
-105.976	-76.869	-0.079	-0.027
-104.962	-112.892	0.328	-0.065
-103.947	-63.038	-0.371	0.153
-102.932	-84.284	-0.218	0.069
-101.918	455.274	0.079	0.175
-100.903	-21.560	0.054	-0.033
-99.889	-115.834	0.277	0.051
-98.874	90.933	0.273	0.304
-97.859	-200.000	0.009	0.343
-96.845	227.548	-0.203	0.328
-95.830	32.430	-0.034	0.029
-94.816	-108.076	-0.433	0.093
-93.801	800.000	-0.031	-0.102
-92.786	-131.989	0.149	-0.019
-91.772	-200.000	-0.004	-0.215
-90.757	262.385	0.164	-0.282
-89.743	229.794	0.100	-0.163
-88.728	800.000	-0.050	0.189
-87.713	0.405	-0.079	-0.056
-86.699	-74.840	0.600	-0.214
-85.684	-92.240	0.025	0.007
-84.670	-108.924	-0.209	-0.044
-83.655	-200.000	0.009	-0.371
-82.640	-101.926	0.250	0.060
-81.626	800.000	-0.091	-0.384
-80.611	93.198	0.112	-0.126
-79.597	244.932	0.155	-0.259
-78.582	53.524	-0.294	0.280
-77.567	-22.253	-0.043	0.026
-76.553	-200.000	0.028	-0.258
-75.538	800.000	0.079	-0.340
-74.524	91.506	-0.158	0.176
-73.509	-51.059	-0.173	0.080
-72.494	-129.923	-0.471	0.064
-71.480	41.649	0.052	-0.046
-70.465	-200.000	0.002	0.014
-69.451	749.628	-0.069	-0.185
-68.436	216.374	-0.105	0.167
-67.422	729.208	-0.065	-0.173
-66.407	-72.213	0.122	0.045
-65.392	31.414	-0.188	-0.160
-64.378	-58.989	0.144	-0.062
-63.363	-200.000	0.002	0.382
-62.349	78.591	0.240	0.254
-61.334	248.144	-0.514	-0.863
-60.319	-150.535	0.398	0.030
-59.305	800.000	-0.318	-0.914
-58.290	187.695	0.525	0.778
-57.276	671.936	0.578	1.487
-56.261	-200.000	94.047	550.600
-55.246	612.377	1381.585	3430.711
-54.232	187.135	2591.166	3833.972
-53.217	120.026	2210.689	2721.134
-52.203	45.285	1743.561	1595.852
-51.188	38.052	1552.348	1370.242
-50.173	35.564	1525.029	1328.887
-49.159	53.361	1574.169	1497.248
-48.144	56.789	1592.883	1539.096
-47.130	38.372	1549.589	1369.835
-46.115	35.088	1534.250	1333.394
-45.100	34.967	1531.057	1329.730
-44.086	34.971	1528.517	1327.495
-43.071	34.925	1527.136	1325.925
-42.057	34.900	1525.151	1323.975
-41.042	34.863	1523.903	1322.586
-40.027	34.849	1522.419	1321.144
-39.013	34.941	1520.744	1320.279
-37.998	34.887	1519.679	1318.929
-36.984	34.964	1518.357	1318.256
-35.969	34.920	1517.126	1316.832
-34.954	34.915	1515.300	1315.165
-33.940	34.894	1514.212	1314.024
-32.925	34.979	1512.542	1313.103
-31.911	34.974	1511.639	1312.231
-30.896	35.078	1509.915	1311.399
-29.881	35.010	1508.597	1309.737
-28.867	34.948	1507.373	1308.195
-27.852	34.949	1505.929	1306.901
-26.838	35.003	1504.452	1305.932
-25.823	34.946	1503.074	1304.293
-24.809	35.003	1500.890	1302.740
-23.794	34.910	1500.162	1301.421
-22.779	35.038	1498.806	1301.060
-21.765	34.921	1497.990	1299.508
-20.750	34.994	1496.485	1298.648
-19.736	34.919	1495.449	1297.187
-18.721	34.945	1494.378	1296.384
-17.706	34.901	1493.021	1294.857
-16.692	34.870	1492.285	1293.954
-15.677	34.925	1491.198	1293.332
-14.663	34.883	1490.397	1292.304
-13.648	34.866	1488.998	1290.925
-12.633	34.925	1488.146	1290.536
-11.619	34.963	1487.067	1289.804
-10.604	34.705	1487.287	1288.204
-9.590	34.888	1485.829	1288.121
-8.575	34.867	1485.363	1287.524
-7.560	34.820	1484.563	1286.466
-6.546	34.898	1483.439	1285.961
-5.531	34.927	1482.204	1285.038
-4.517	34.886	1481.171	1283.815
-3.502	34.810	1480.808	1282.937
-2.487	34.881	1479.353	1282.107
-1.473	34.786	1478.522	1280.697
-0.458	34.937	1476.770	1280.138
0.556	33.961	1468.195	1271.873
1.571	31.674	1442.710	1234.627
2.586	28.617	1379.962	1161.511
3.600	26.606	1295.869	1078.666
4.615	24.816	1248.601	1028.949
5.629	21.436	1191.194	962.975
6.644	12.932	1105.532	850.002
7.659	6.233	1063.134	784.035
8.673	5.198	1057.170	774.438
9.688	5.025	1054.100	771.263
10.702	4.919	1052.600	769.575
11.717	4.967	1050.823	768.445
12.731	7.765	1053.431	784.091
13.746	15.297	1064.163	829.397
14.761	19.528	1068.959	854.040
15.775	18.542	1066.725	847.309
16.790	17.337	1064.498	839.522
17.804	16.353	1062.110	832.716
18.819	15.545	1060.163	827.137
19.834	15.056	1058.774	823.576
20.848	14.636	1057.664	820.576
21.863	14.399	1057.287	819.047
22.877	14.242	1055.923	817.145
23.892	14.045	1055.215	815.558
24.907	13.922	1054.503	814.330
25.921	13.907	1053.837	813.671
26.936	13.931	1052.966	813.043
27.950	13.862	1052.320	812.135
28.965	14.035	1050.804	811.741
29.980	13.944	1049.832	810.473
30.994	14.081	1048.221	809.824
32.009	14.234	1047.567	809.993
33.023	14.222	1046.663	809.163
34.038	14.180	1046.286	808.596
35.053	14.180	1045.171	807.665
36.067	14.226	1043.829	806.779
37.082	14.070	1043.036	805.341
38.096	14.047	1042.818	804.987
39.111	14.090	1042.191	804.642
40.126	14.271	1040.773	804.350
41.140	14.066	1039.864	802.585
42.155	13.882	1038.767	800.782
43.169	13.817	1037.995	799.803
44.184	13.879	1036.631	798.979
45.199	13.777	1035.807	797.784
46.213	13.752	1035.203	797.124
47.228	13.757	1033.937	796.105
48.242	13.929	1033.030	796.158
49.257	14.076	1031.856	795.888
50.271	14.003	1031.027	794.832
51.286	14.027	1030.231	794.263
52.301	14.071	1029.664	793.962
53.315	13.962	1028.794	792.703
54.330	14.081	1027.407	792.130
55.344	13.953	1026.616	790.844
56.359	13.921	1025.522	789.777
57.374	13.838	1024.833	788.780
58.388	13.940	1023.660	788.293
59.403	13.874	1022.917	787.336
60.417	13.767	1022.448	786.399
61.432	13.824	1021.591	785.942
62.447	13.775	1021.091	785.253
63.461	13.778	1019.921	784.302
64.476	13.838	1018.935	783.755
65.490	13.710	1018.245	782.552
66.505	13.703	1017.613	781.963
67.520	13.694	1016.611	781.080
68.534	13.642	1015.900	780.220
69.549	13.713	1015.243	779.982
70.563	13.730	1014.568	779.477
71.578	13.809	1013.613	779.042
72.593	13.660	1012.920	777.742
73.607	13.628	1011.990	776.808
74.622	13.609	1010.752	775.701
75.636	13.565	1010.261	775.049
76.651	13.525	1009.559	774.258
77.666	13.726	1008.361	774.209
78.680	13.634	1007.894	773.350
79.695	13.657	1007.149	772.819
80.709	13.696	1006.623	772.526
81.724	13.754	1005.925	772.193
82.739	13.688	1005.011	771.116
83.753	13.694	1004.565	770.736
84.768	14.006	1003.813	771.537
85.782	14.031	1002.804	770.811
86.797	14.048	1002.271	770.411
87.812	14.141	1001.104	769.879
88.826	14.012	1000.380	768.657
89.841	13.913	999.604	767.532
90.855	13.945	999.147	767.261
91.870	14.070	998.230	767.069
92.884	14.060	997.777	766.607
93.899	14.123	996.656	765.966
94.914	14.094	995.955	765.226
95.928	14.264	995.475	765.570
96.943	14.229	994.524	764.613
97.957	13.989	993.808	762.894
98.972	13.994	993.238	762.408
99.987	14.061	992.293	761.923
101.001	14.135	991.427	761.532
102.016	14.056	990.579	760.449
103.030	14.083	989.990	760.054
104.045	14.035	988.755	758.819
105.060	14.036	987.520	757.809
106.074	14.051	986.522	757.045
107.089	13.875	985.977	755.759
108.103	13.838	985.006	754.781
109.118	13.790	984.106	753.804
110.133	13.851	983.167	753.296
111.147	13.837	982.522	752.669
112.162	13.769	981.388	751.428
113.176	13.818	980.656	751.021
114.191	13.714	980.288	750.202
115.206	13.953	978.987	750.223
116.220	13.937	978.130	749.424
117.235	13.834	977.343	748.291
118.249	13.888	976.821	748.071
119.264	13.914	975.258	746.922
120.279	13.803	974.676	745.912
121.293	13.948	973.602	745.677
122.308	13.784	972.947	744.372
123.322	13.757	972.401	743.767
124.337	13.694	971.236	742.528
125.352	13.819	969.996	742.075
126.366	13.717	969.241	740.975
127.381	13.664	968.393	740.025
128.395	13.594	967.478	738.949
129.410	13.715	966.192	738.439
130.424	13.849	965.412	738.374
131.439	13.763	964.696	737.381
132.454	13.725	963.930	736.560
133.468	13.929	962.876	736.594
134.483	13.921	962.303	736.054
135.497	13.887	962.087	735.674
136.512	13.957	961.342	735.350
137.527	14.046	960.156	734.772
138.541	13.876	959.378	733.360
139.556	13.895	958.555	732.750
140.570	13.876	958.099	732.252
141.585	14.003	957.325	732.155
142.600	13.980	957.005	731.745
143.614	14.152	956.187	731.811
144.629	14.123	954.784	730.544
145.643	14.048	954.646	730.044
146.658	14.160	953.402	729.521
147.673	14.040	952.271	728.064
148.687	13.936	951.699	727.109
149.702	13.969	950.631	726.372
150.716	13.868	949.983	725.371
151.731	13.820	949.130	724.447
152.746	13.885	948.309	724.040
153.760	13.908	947.308	723.312
154.775	13.897	947.007	722.967
155.789	14.095	945.790	722.834
156.804	14.051	945.302	722.207
157.819	14.159	944.503	722.004
158.833	14.134	943.803	721.294
159.848	14.039	943.293	720.430
160.862	14.205	942.376	720.385
161.877	14.259	941.632	719.987
162.892	14.077	940.900	718.578
163.906	13.963	940.305	717.566
164.921	14.002	939.472	717.035
165.935	14.051	938.334	716.312
166.950	14.097	937.204	715.586
167.964	14.161	936.420	715.199
168.979	13.924	935.674	713.550
169.994	14.003	934.474	712.910
171.008	13.980	933.455	711.972
172.023	14.170	932.819	712.235
173.037	14.201	932.089	711.747
174.052	14.235	931.627	711.477
175.067	14.236	930.848	710.825
176.081	14.152	929.964	709.727
177.096	14.040	929.156	708.570
178.110	13.996	928.445	707.777
179.125	14.064	927.821	707.529
180.140	14.263	926.811	707.542
181.154	14.123	926.127	706.362
182.169	14.255	925.507	706.388
183.183	14.255	925.229	706.111
184.198	14.303	924.555	705.741
185.213	14.215	923.817	704.743
186.227	14.483	922.850	705.074
187.242	14.395	922.585	704.436
188.256	14.420	921.730	703.830
189.271	14.496	921.533	703.936
190.286	14.567	920.477	703.367
191.300	14.405	919.486	701.863
192.315	14.114	918.919	700.146
193.329	14.126	918.210	699.593
194.344	14.108	917.307	698.769
195.359	14.132	916.980	698.557
196.373	14.324	916.118	698.645
197.388	14.262	916.022	698.250
198.402	14.371	915.469	698.222
199.417	14.379	915.580	698.278
200.432	14.665	914.661	698.715
201.446	14.671	914.044	698.205
202.461	14.777	913.711	698.332
203.475	14.645	913.599	697.634
204.490	14.792	912.287	697.182
205.504	14.690	911.395	696.016
206.519	14.506	910.973	694.865
207.534	14.536	910.227	694.360
208.548	14.542	909.415	693.701
209.563	14.582	908.947	693.451
210.577	14.688	907.801	692.957
211.592	14.585	907.539	692.265
212.607	14.609	907.155	692.014
213.621	14.889	906.016	692.241
214.636	14.708	905.648	691.151
215.650	14.611	904.956	690.159
216.665	14.642	904.455	689.844
217.680	14.840	903.856	690.143
218.694	14.821	903.623	689.826
219.709	14.852	902.939	689.370
220.723	14.903	902.118	688.894
221.738	14.908	901.465	688.355
222.753	14.768	900.842	687.243
223.767	14.838	900.004	686.828
224.782	14.976	899.215	686.734
225.796	14.946	898.205	685.779
226.811	14.984	897.916	685.652
227.826	15.042	896.895	685.050
228.840	14.809	896.871	684.015
229.855	14.905	896.030	683.707
230.869	14.896	895.018	682.840
231.884	14.861	894.318	682.102
232.899	14.781	894.142	681.582
233.913	14.874	892.992	681.021
234.928	14.795	892.511	680.275
235.942	15.017	891.721	680.514
236.957	14.838	890.986	679.168
237.972	14.909	890.534	679.049
238.986	14.906	889.696	678.337
240.001	14.883	888.931	677.602
241.015	14.870	888.655	677.277
242.030	14.907	888.038	676.897
243.045	14.951	887.292	676.447
244.059	14.974	886.693	676.026
245.074	15.104	885.705	675.737
246.088	15.035	885.290	675.080
247.103	15.077	885.093	675.039
248.117	15.116	884.609	674.767
249.132	15.277	883.930	674.841
250.147	15.227	883.643	674.359
251.161	15.297	882.565	673.759
252.176	15.484	882.037	674.044
253.190	15.431	881.389	673.278
254.205	15.554	880.571	673.086
255.220	15.556	880.126	672.694
256.234	15.511	879.305	671.830
257.249	15.490	878.894	671.373
258.263	15.526	878.387	671.069
259.278	15.406	878.101	670.309
260.293	15.461	877.391	669.929
261.307	15.586	877.030	670.093
262.322	15.501	876.295	669.133
263.336	15.702	875.731	669.443
264.351	15.631	875.175	668.677
265.366	15.798	874.095	668.455
266.380	15.699	873.497	667.548
267.395	15.735	872.948	667.212
268.409	15.643	872.195	666.211
269.424	15.552	871.622	665.354
270.439	15.586	870.679	664.711
271.453	15.631	870.175	664.445
272.468	15.690	869.215	663.884
273.482	15.579	868.568	662.895
274.497	15.591	868.108	662.531
275.512	15.650	867.115	661.948
276.526	15.587	867.202	661.707
277.541	15.644	866.201	661.110
278.555	15.718	865.647	660.919
279.570	15.733	865.156	660.547
280.585	15.766	864.392	660.032
281.599	15.981	864.165	660.643
282.614	15.728	863.522	659.105
283.628	15.808	862.619	658.668
284.643	15.662	862.462	657.920
285.657	16.071	861.362	658.622
286.672	15.718	861.180	657.044
287.687	15.906	860.232	656.997
288.701	15.876	859.951	656.607
289.716	15.919	859.368	656.272
290.730	15.760	859.313	655.549
291.745	15.908	858.607	655.528
292.760	15.976	857.554	654.932
293.774	16.075	857.012	654.846
294.789	16.148	856.251	654.489
295.803	15.979	855.983	653.572
296.818	15.998	855.168	652.966
297.833	15.933	854.747	652.332
298.847	15.930	853.745	651.500
299.862	16.090	853.093	651.564
300.876	16.099	852.422	651.027
301.891	16.038	851.867	650.310
302.906	16.268	851.117	650.567
303.920	16.158	850.601	649.692
304.935	16.293	849.783	649.528
305.949	16.300	849.543	649.313
306.964	16.173	848.737	648.154
307.979	16.198	848.494	648.006
308.993	16.321	847.712	647.824
310.008	16.347	847.248	647.512
311.022	16.299	846.887	646.992
312.037	16.327	846.299	646.596
313.052	16.156	845.865	645.553
314.066	16.165	845.457	645.217
315.081	16.045	844.656	644.092
316.095	16.005	844.204	643.535
317.110	16.176	843.714	643.757
318.125	16.115	843.018	642.939
319.139	16.209	842.309	642.697
320.154	16.307	841.596	642.470
321.168	16.150	841.297	641.586
322.183	16.140	840.930	641.212
323.197	16.404	839.973	641.428
324.212	16.272	839.795	640.737
325.227	16.320	838.954	640.218
326.241	16.490	838.442	640.416
327.256	16.258	838.031	639.167
328.270	16.267	837.683	638.878
329.285	16.230	837.177	638.298
330.300	16.270	836.257	637.689
331.314	16.277	835.983	637.449
332.329	16.178	835.006	636.277
333.343	16.322	834.361	636.272
334.358	16.375	834.060	636.187
335.373	16.563	833.103	636.106
336.387	16.527	832.772	635.661
337.402	16.478	832.168	634.961
338.416	16.577	831.703	634.919
339.431	16.582	831.479	634.711
340.446	16.600	831.148	634.471
341.460	16.677	830.240	634.012
342.475	16.738	829.593	633.689
343.489	16.728	829.229	633.317
344.504	16.829	828.999	633.461
345.519	16.811	827.931	632.524
346.533	16.681	828.034	632.060
347.548	16.864	827.501	632.281
348.562	16.751	826.612	631.125
349.577	16.617	826.378	630.391
350.592	16.770	825.359	630.126
351.606	16.682	824.577	629.145
352.621	16.589	824.613	628.772
353.635	16.700	824.168	628.791
354.650	16.679	823.781	628.360
355.665	16.642	823.241	627.756
356.679	16.929	822.497	628.197
357.694	16.772	822.079	627.240
358.708	16.818	821.562	626.960
359.723	16.827	820.998	626.510
360.738	16.863	820.299	626.054
361.752	16.825	819.750	625.439
362.767	16.901	819.438	625.424
363.781	16.975	819.164	625.432
364.796	16.881	819.337	625.163
365.810	16.931	818.429	624.600
366.825	17.173	817.714	624.887
367.840	17.309	817.220	624.955
368.854	17.093	817.076	623.997
369.869	17.112	816.743	623.755
370.883	17.152	815.821	623.143
371.898	17.121	815.548	622.766
372.913	17.159	814.891	622.349
373.927	17.203	814.262	621.976
374.942	17.213	813.882	621.668
375.956	17.252	813.140	621.187
376.971	17.253	812.461	620.618
377.986	17.371	811.755	620.454
379.000	17.281	811.509	619.884
380.015	17.416	811.005	619.934
381.029	17.330	810.421	619.121
382.044	17.279	810.123	618.651
383.059	17.306	809.352	618.107
384.073	17.475	808.598	618.089
385.088	17.424	808.250	617.585
386.102	17.303	807.825	616.764
387.117	17.208	807.219	615.904
388.132	17.195	806.867	615.535
389.146	17.210	806.526	615.275
390.161	17.330	806.093	615.323
391.175	17.357	805.509	614.920
392.190	17.402	805.341	614.901
393.205	17.426	804.873	614.577
394.219	17.376	804.192	613.819
395.234	17.377	803.741	613.426
396.248	17.343	803.115	612.769
397.263	17.297	802.700	612.233
398.278	17.251	802.304	611.714
399.292	17.338	801.944	611.695
400.307	17.258	801.421	610.958
401.321	17.386	800.706	610.816
402.336	17.382	800.514	610.603
403.350	17.377	800.039	610.167
404.365	17.307	799.837	609.709
405.380	17.696	798.852	610.299
406.394	17.556	798.671	609.603
407.409	17.588	798.367	609.431
408.423	17.609	798.155	609.291
409.438	17.690	797.962	609.381
410.453	17.615	797.400	608.629
411.467	17.762	796.527	608.432
412.482	17.811	796.066	608.200
413.496	17.759	795.689	607.674
414.511	17.819	795.295	607.534
415.526	17.822	795.356	607.537
416.540	17.864	794.656	607.097
417.555	17.761	794.289	606.398
418.569	17.781	794.125	606.289
419.584	17.913	793.035	605.872
420.599	18.000	792.636	605.821
421.613	151.528	1367.806	1786.443
422.628	131.009	1451.618	1786.546
