DTS Sentinel unit serial number:	SN413079Multiplexer serial number:	ORYXHardware model number:	OX4-SRSoftware version number:	ORYX F/W v4.00 Oryx Data Collector v3.7.2.0data status	okinstallation	princeton_trtdifferential loss correction	single-endedforward channel	channel 3reverse channel	N/Adate	2019/09/13time	05:04:34forward acquisition time	60.00reverse acquisition time	0.00gamma	496.2192k internal	0.2338k external	0.2338temperature offset calibration	1.0138default loss term (dB/km)	0.3790temperature slope calibration	1.0000multiplexer offset coefficient	1.0000multiplexer slope coefficient	1.0000fibre end	0.00T internal ref (°C)	26.44T ext. ref 1 (°C)	4.05T ext. ref 2 (°C)	20.88length (m)	temperature (°C)	Stokes	anti-Stokes-747.200	-200.000	0.012	0.123
-746.185	-200.000	0.103	0.543
-745.171	-183.724	-0.165	-0.003
-744.156	-200.000	0.048	0.369
-743.142	-51.927	0.203	-0.095
-742.127	-200.000	-0.049	0.417
-741.112	800.000	-0.137	0.397
-740.098	-124.417	0.155	-0.024
-739.083	-200.000	0.027	-0.177
-738.069	-7.440	-0.133	-0.090
-737.054	143.993	-0.170	-0.228
-736.039	226.183	-0.149	-0.243
-735.025	800.000	-0.010	0.040
-734.010	-43.010	0.121	-0.062
-732.996	-36.890	0.407	-0.219
-731.981	-200.000	-0.006	-0.226
-730.966	-44.886	-0.246	-0.123
-729.952	56.138	-0.258	-0.252
-728.937	36.703	-0.091	0.080
-727.923	51.688	-0.185	-0.177
-726.908	-200.000	-0.029	-0.269
-725.894	-25.516	0.138	-0.082
-724.879	113.818	0.349	-0.426
-723.864	-153.343	-0.321	-0.022
-722.850	131.654	-0.111	-0.143
-721.835	153.278	-0.285	-0.392
-720.821	-86.657	-0.250	0.077
-719.806	106.034	0.162	0.192
-718.791	81.531	0.194	0.211
-717.777	61.437	-0.172	-0.171
-716.762	-200.000	-0.014	0.070
-715.748	7.101	0.449	0.336
-714.733	800.000	-0.045	0.132
-713.718	-111.641	-0.216	0.044
-712.704	-68.016	-0.081	-0.032
-711.689	113.540	-0.131	-0.159
-710.675	-113.792	0.522	-0.102
-709.660	-143.832	-0.302	-0.029
-708.645	-200.000	-0.019	0.138
-707.631	-139.331	-0.264	-0.028
-706.616	226.952	0.052	-0.085
-705.602	800.000	0.062	-0.180
-704.587	133.476	-0.227	0.294
-703.572	-123.916	-0.130	-0.020
-702.558	-41.014	-0.195	-0.101
-701.543	62.055	-0.090	-0.090
-700.529	-162.267	-0.359	-0.018
-699.514	120.160	0.111	0.139
-698.499	-200.000	-0.046	-0.447
-697.485	-189.973	0.251	0.003
-696.470	-200.000	-0.023	-0.103
-695.456	112.741	0.173	-0.210
-694.441	-197.404	-0.025	-0.000
-693.426	-129.635	-0.176	0.024
-692.412	65.696	0.127	0.129
-691.397	-78.222	-0.213	0.073
-690.383	120.800	-0.208	0.259
-689.368	217.488	0.095	0.152
-688.354	-179.072	0.192	-0.004
-687.339	79.896	0.206	-0.222
-686.324	-200.000	-0.010	-0.168
-685.310	160.790	0.163	-0.227
-684.295	-113.293	-0.343	0.067
-683.281	-81.014	-0.175	0.058
-682.266	95.239	-0.114	-0.131
-681.251	-87.472	0.168	0.051
-680.237	800.000	0.052	0.198
-679.222	92.986	-0.087	0.098
-678.208	246.455	-0.085	-0.144
-677.193	-154.739	-0.118	-0.008
-676.178	108.668	-0.189	0.226
-675.164	-200.000	0.064	0.308
-674.149	332.584	-0.115	-0.223
-673.135	-80.199	0.042	-0.014
-672.120	74.204	-0.051	0.053
-671.105	800.000	0.054	0.159
-670.091	62.051	0.225	0.224
-669.076	-200.000	0.017	0.156
-668.062	-55.263	-0.311	0.140
-667.047	197.981	0.152	0.233
-666.032	800.000	-0.044	-0.156
-665.018	186.439	0.091	-0.135
-664.003	40.157	-0.150	-0.135
-662.989	208.772	0.157	-0.246
-661.974	271.076	-0.150	-0.265
-660.959	-200.000	0.032	-0.320
-659.945	-180.985	-0.059	-0.001
-658.930	-90.377	-0.077	0.022
-657.916	38.719	-0.121	-0.108
-656.901	800.000	0.056	0.174
-655.886	21.057	-0.113	-0.092
-654.872	76.201	-0.231	0.245
-653.857	-46.706	-0.083	-0.040
-652.843	-30.135	-0.285	-0.162
-651.828	-182.890	-0.446	0.008
-650.814	335.103	0.040	0.077
-649.799	8.347	-0.137	0.103
-648.784	-94.545	0.295	0.080
-647.770	-152.141	0.145	-0.011
-646.755	800.000	-0.030	-0.107
-645.741	-39.142	0.298	0.157
-644.726	289.099	-0.150	-0.272
-643.711	-109.396	0.175	0.037
-642.697	576.766	-0.033	0.082
-641.682	-3.934	-0.095	-0.066
-640.668	800.000	0.101	0.336
-639.653	-104.579	-0.212	-0.049
-638.638	-98.139	-0.182	0.047
-637.624	-36.540	-0.260	0.140
-636.609	-32.638	-0.144	-0.080
-635.595	800.000	-0.051	0.212
-634.580	-30.737	-0.114	-0.064
-633.565	-200.000	0.009	0.091
-632.551	77.341	-0.240	-0.255
-631.536	59.645	0.159	0.157
-630.522	-110.651	-0.075	0.016
-629.507	800.000	0.058	0.240
-628.492	-54.231	-0.242	-0.110
-627.478	-200.000	0.003	-0.164
-626.463	-139.769	-0.159	-0.017
-625.449	-84.195	-0.358	-0.113
-624.434	-154.772	0.323	-0.021
-623.419	-116.806	0.214	0.039
-622.405	192.779	-0.081	0.122
-621.390	-102.640	-0.151	-0.036
-620.376	-200.000	0.035	0.241
-619.361	-200.000	0.017	0.271
-618.346	-52.265	0.089	-0.041
-617.332	-31.235	0.144	0.081
-616.317	800.000	0.034	0.131
-615.303	800.000	-0.086	0.286
-614.288	800.000	0.010	-0.040
-613.273	800.000	-0.032	-0.122
-612.259	595.127	0.058	-0.143
-611.244	-102.364	-0.151	-0.036
-610.230	127.882	0.229	-0.291
-609.215	612.138	0.052	-0.131
-608.201	-104.934	-0.373	-0.085
-607.186	27.128	0.133	-0.111
-606.171	-200.000	0.109	-0.494
-605.157	800.000	-0.037	0.135
-604.142	606.568	0.166	-0.413
-603.128	-57.059	0.169	0.074
-602.113	419.637	0.043	0.091
-601.098	-48.064	0.144	-0.069
-600.084	127.890	-0.049	-0.063
-599.069	248.302	-0.108	0.182
-598.055	118.446	-0.127	-0.157
-597.040	-200.000	-0.013	-0.318
-596.025	123.381	-0.185	-0.231
-595.011	69.385	0.186	-0.191
-593.996	369.543	0.151	0.306
-592.982	355.841	-0.192	-0.382
-591.967	-120.541	-0.175	-0.030
-590.952	800.000	0.082	0.271
-589.938	800.000	-0.045	0.184
-588.923	-200.000	0.008	-0.346
-587.909	13.916	-0.241	0.187
-586.894	-150.818	-0.174	0.013
-585.879	-200.000	-0.013	0.239
-584.865	8.870	0.111	0.083
-583.850	-200.000	-0.021	0.097
-582.836	800.000	-0.028	-0.108
-581.821	64.173	0.193	0.193
-580.806	-26.659	0.164	0.095
-579.792	9.672	-0.084	-0.063
-578.777	-200.000	-0.010	0.185
-577.763	173.628	0.157	-0.225
-576.748	800.000	-0.050	0.146
-575.733	-81.669	0.142	-0.047
-574.719	-101.011	-0.036	-0.009
-573.704	318.589	-0.172	-0.324
-572.690	800.000	-0.044	-0.147
-571.675	221.890	0.181	0.291
-570.661	469.136	-0.096	0.214
-569.646	-73.121	-0.200	-0.073
-568.631	800.000	-0.055	0.209
-567.617	-113.191	-0.191	-0.038
-566.602	-200.000	0.029	-0.254
-565.588	0.461	-0.222	0.158
-564.573	-200.000	-0.029	0.346
-563.558	-111.096	-0.091	-0.019
-562.544	226.560	-0.184	0.297
-561.529	-133.462	-0.321	-0.040
-560.515	800.000	-0.024	0.095
-559.500	285.994	0.208	-0.373
-558.485	800.000	0.041	-0.158
-557.471	77.607	-0.191	-0.203
-556.456	355.197	-0.179	0.355
-555.442	-120.079	0.192	0.033
-554.427	38.676	-0.286	-0.254
-553.412	-182.409	0.508	0.009
-552.398	800.000	0.091	-0.273
-551.383	800.000	0.048	0.191
-550.369	-200.000	0.075	0.503
-549.354	-135.697	-0.285	0.034
-548.339	-4.813	-0.059	-0.041
-547.325	-74.193	0.500	0.180
-546.310	-154.185	0.156	0.011
-545.296	-129.738	-0.144	-0.020
-544.281	-200.000	-0.013	0.060
-543.266	56.735	0.177	-0.171
-542.252	578.198	0.041	0.099
-541.237	-172.721	-0.190	0.006
-540.223	29.151	0.177	-0.150
-539.208	-200.000	-0.010	-0.297
-538.193	-33.161	0.007	-0.004
-537.179	460.097	0.077	-0.171
-536.164	-52.080	-0.040	-0.019
-535.150	-137.494	0.380	-0.043
-534.135	660.177	-0.117	-0.300
-533.121	-200.000	-0.013	-0.082
-532.106	-78.192	-0.086	0.029
-531.091	-85.183	-0.227	-0.071
-530.077	-200.000	0.005	-0.128
-529.062	262.290	-0.048	-0.083
-528.048	95.912	0.013	0.014
-527.033	16.861	-0.139	-0.110
-526.018	48.519	-0.157	0.146
-525.004	-54.790	-0.116	0.052
-523.989	-113.433	-0.301	-0.059
-522.975	-200.000	0.000	0.109
-521.960	-83.117	0.126	0.040
-520.945	154.578	-0.019	-0.026
-519.931	-83.785	-0.220	0.070
-518.916	346.345	0.084	0.165
-517.902	800.000	0.124	-0.445
-516.887	143.031	-0.189	0.249
-515.872	-158.145	-0.135	-0.008
-514.858	-55.784	-0.176	-0.078
-513.843	487.826	-0.101	-0.229
-512.829	-36.912	-0.195	0.104
-511.814	159.201	0.073	0.101
-510.799	50.683	-0.264	0.249
-509.785	800.000	0.014	0.061
-508.770	81.116	0.096	-0.103
-507.756	127.753	-0.125	0.158
-506.741	-129.608	-0.146	-0.020
-505.726	-14.692	0.358	-0.229
-504.712	-89.523	-0.257	0.075
-503.697	654.726	0.116	-0.296
-502.683	800.000	-0.013	0.044
-501.668	30.850	-0.171	-0.146
-500.653	800.000	-0.059	-0.255
-499.639	613.921	-0.019	-0.048
-498.624	170.714	0.330	0.471
-497.610	-178.482	0.161	0.004
-496.595	-200.000	0.017	-0.134
-495.581	54.990	0.101	-0.097
-494.566	-142.829	-0.187	0.018
-493.551	84.199	0.027	0.029
-492.537	-167.741	0.049	-0.002
-491.522	800.000	-0.076	0.277
-490.508	488.154	-0.085	0.193
-489.493	491.437	0.070	0.158
-488.478	126.672	0.045	0.056
-487.464	-118.985	-0.172	0.030
-486.449	479.212	0.101	0.226
-485.435	-200.000	-0.013	-0.139
-484.420	284.943	-0.081	0.145
-483.405	65.571	-0.038	-0.038
-482.391	-200.000	-0.027	-0.165
-481.376	486.132	0.135	0.305
-480.362	-192.487	0.465	0.004
-479.347	-31.194	-0.321	0.179
-478.332	-200.000	-0.003	0.059
-477.318	-169.148	-0.217	0.008
-476.303	-149.179	0.166	0.013
-475.289	375.284	0.136	-0.275
-474.274	-157.637	-0.255	-0.015
-473.259	-86.264	-0.214	-0.066
-472.245	299.905	0.080	0.147
-471.230	-41.837	-0.053	-0.027
-470.216	-103.951	0.263	0.061
-469.201	-48.997	0.243	0.116
-468.186	125.979	0.095	0.120
-467.172	22.227	0.112	-0.091
-466.157	0.553	-0.123	0.087
-465.143	212.883	0.061	0.095
-464.128	-100.602	-0.336	-0.082
-463.113	800.000	0.054	0.153
-462.099	40.037	-0.224	-0.200
-461.084	-27.178	-0.061	-0.035
-460.070	-200.000	0.022	0.220
-459.055	-200.000	-0.067	0.319
-458.040	-89.782	-0.225	0.065
-457.026	800.000	-0.115	-0.362
-456.011	-200.000	0.038	0.247
-454.997	800.000	0.052	-0.182
-453.982	-14.232	0.231	0.148
-452.968	144.958	-0.094	0.125
-451.953	800.000	-0.104	-0.315
-450.938	-5.866	-0.092	-0.062
-449.924	-138.564	-0.082	0.009
-448.909	-170.258	0.305	0.011
-447.895	340.668	0.117	-0.226
-446.880	-105.491	0.127	0.029
-445.865	-200.000	0.010	0.131
-444.851	800.000	0.008	-0.023
-443.836	13.680	0.185	0.143
-442.822	-200.000	-0.021	0.482
-441.807	-200.000	0.006	-0.287
-440.792	-17.592	-0.095	0.059
-439.778	-127.653	-0.068	-0.010
-438.763	-106.687	0.145	0.032
-437.749	-200.000	0.033	0.307
-436.734	-128.632	-0.119	0.017
-435.719	457.395	0.126	-0.277
-434.705	134.017	-0.093	0.120
-433.690	36.036	0.218	0.191
-432.676	-44.301	0.175	0.087
-431.661	214.164	-0.080	0.125
-430.646	240.210	-0.174	0.288
-429.632	-64.875	0.318	0.128
-428.617	-200.000	-0.038	-0.353
-427.603	800.000	-0.090	-0.344
-426.588	316.452	-0.130	0.243
-425.573	299.470	-0.009	-0.016
-424.559	-131.412	0.084	0.011
-423.544	119.340	0.186	-0.229
-422.530	540.822	-0.061	-0.144
-421.515	-79.580	-0.068	0.023
-420.500	-28.355	-0.057	0.033
-419.486	337.740	-0.179	-0.345
-418.471	620.959	-0.066	-0.164
-417.457	283.135	0.115	0.204
-416.442	-104.786	-0.198	-0.045
-415.428	445.277	0.138	0.300
-414.413	660.940	0.094	-0.241
-413.398	-13.852	-0.098	-0.063
-412.384	71.155	-0.079	0.081
-411.369	385.240	-0.048	0.099
-410.355	79.834	-0.105	-0.112
-409.340	712.176	0.071	0.187
-408.325	-200.000	0.013	0.416
-407.311	-200.000	-0.069	-0.426
-406.296	226.091	-0.093	0.149
-405.282	-6.283	0.216	0.146
-404.267	-14.458	-0.192	0.123
-403.252	117.992	-0.111	-0.135
-402.238	-7.242	0.214	0.143
-401.223	-144.747	-0.137	-0.012
-400.209	800.000	0.135	-0.554
-399.194	13.606	0.271	0.208
-398.179	800.000	-0.082	-0.226
-397.165	16.657	-0.178	0.139
-396.150	800.000	0.044	-0.134
-395.136	92.563	0.152	0.170
-394.121	-54.832	-0.114	-0.051
-393.106	3.135	-0.258	-0.185
-392.092	597.852	0.067	-0.164
-391.077	355.923	0.105	-0.208
-390.063	-117.937	-0.076	-0.014
-389.048	800.000	-0.019	0.053
-388.033	-200.000	0.003	-0.117
-387.019	4.911	0.154	0.112
-386.004	480.036	0.103	-0.231
-384.990	-27.322	0.213	-0.123
-383.975	-41.395	0.050	0.026
-382.960	-1.298	0.213	0.149
-381.946	-34.838	0.102	0.055
-380.931	178.128	-0.022	0.032
-379.917	185.268	0.095	-0.139
-378.902	10.423	-0.089	-0.067
-377.888	409.498	-0.210	-0.440
-376.873	225.612	-0.177	-0.284
-375.858	-200.000	-0.043	-0.337
-374.844	103.400	0.057	0.066
-373.829	101.025	-0.256	0.295
-372.815	-147.276	-0.178	0.015
-371.800	800.000	0.041	-0.163
-370.785	-29.866	0.229	-0.129
-369.771	-200.000	0.041	-0.230
-368.756	-95.967	0.129	-0.034
-367.742	459.409	-0.011	0.024
-366.727	-76.081	-0.290	0.101
-365.712	-43.806	0.216	-0.107
-364.698	110.494	-0.253	0.301
-363.683	262.455	-0.029	-0.049
-362.669	800.000	0.010	-0.028
-361.654	144.539	0.061	0.080
-360.639	-67.416	0.317	-0.123
-359.625	-158.424	-0.562	-0.032
-358.610	-200.000	0.010	-0.120
-357.596	-63.053	-0.064	0.026
-356.581	800.000	0.063	-0.260
-355.566	241.884	0.036	0.059
-354.552	-200.000	-0.024	0.138
-353.537	-27.989	0.418	0.239
-352.523	261.697	0.159	0.273
-351.508	-200.000	-0.022	0.154
-350.493	174.612	-0.198	-0.282
-349.479	404.926	-0.005	0.010
-348.464	-159.552	0.235	0.013
-347.450	-200.000	0.062	-0.286
-346.435	118.147	-0.063	-0.077
-345.420	-119.505	0.335	-0.057
-344.406	-143.322	0.269	0.026
-343.391	105.394	0.219	0.256
-342.377	134.208	0.083	-0.106
-341.362	-130.451	0.273	-0.036
-340.348	-75.546	0.328	-0.115
-339.333	-72.286	-0.260	-0.095
-338.318	109.144	-0.013	0.016
-337.304	-114.537	-0.189	0.036
-336.289	-76.288	0.175	0.061
-335.275	-117.412	0.449	-0.080
-334.260	146.904	0.144	-0.191
-333.245	150.514	0.233	-0.313
-332.231	107.808	0.072	-0.085
-331.216	-160.595	0.178	-0.009
-330.202	268.673	-0.201	0.348
-329.187	800.000	-0.016	-0.053
-328.172	-114.910	-0.231	0.043
-327.158	734.428	0.058	-0.154
-326.143	64.699	-0.273	-0.272
-325.129	-84.975	0.363	-0.112
-324.114	-59.069	-0.028	0.012
-323.099	292.693	0.031	-0.056
-322.085	76.262	0.228	-0.238
-321.070	118.438	-0.374	-0.455
-320.056	800.000	0.095	0.349
-319.041	800.000	0.055	0.202
-318.026	-40.300	-0.179	-0.092
-317.012	800.000	-0.047	0.137
-315.997	50.197	0.160	-0.149
-314.983	143.825	-0.106	0.139
-313.968	800.000	-0.069	-0.269
-312.953	58.532	-0.078	0.076
-311.939	237.095	-0.079	-0.130
-310.924	-170.588	-0.091	0.003
-309.910	-89.572	0.074	-0.021
-308.895	-74.070	0.261	-0.093
-307.880	-81.871	-0.160	-0.052
-306.866	-200.000	0.001	0.296
-305.851	-66.664	0.199	-0.078
-304.837	-119.665	-0.278	-0.047
-303.822	-143.818	-0.288	-0.027
-302.807	799.438	0.103	-0.281
-301.793	6.134	-0.065	-0.047
-300.778	48.254	0.156	-0.144
-299.764	431.639	-0.004	-0.009
-298.749	497.692	-0.016	0.036
-297.735	-53.487	-0.174	0.079
-296.720	792.670	0.079	-0.213
-295.705	85.099	0.161	0.175
-294.691	-200.000	0.027	0.422
-293.676	-103.585	0.159	0.037
-292.662	-200.000	-0.014	-0.273
-291.647	222.455	0.083	-0.132
-290.632	-200.000	-0.035	-0.354
-289.618	-175.526	-0.078	0.002
-288.603	-66.078	-0.052	-0.021
-287.589	-109.430	-0.271	0.057
-286.574	304.483	-0.074	0.136
-285.559	-8.606	-0.290	-0.192
-284.545	-32.686	-0.182	0.100
-283.530	800.000	-0.093	0.271
-282.516	-152.265	-0.192	-0.014
-281.501	-200.000	0.023	-0.260
-280.486	-200.000	-0.014	0.108
-279.472	-93.901	-0.129	-0.035
-278.457	800.000	-0.031	-0.113
-277.443	-200.000	0.011	-0.167
-276.428	276.722	0.167	0.292
-275.413	37.477	-0.298	0.260
-274.399	-14.165	0.121	-0.077
-273.384	118.883	-0.073	0.088
-272.370	507.564	0.112	-0.256
-271.355	48.718	0.252	0.233
-270.340	355.627	-0.042	0.083
-269.326	-131.445	0.432	0.056
-268.311	-16.384	0.208	-0.130
-267.297	-37.282	0.329	0.173
-266.282	321.848	0.111	0.208
-265.267	800.000	-0.155	0.428
-264.253	213.514	0.217	0.337
-263.238	13.304	0.167	0.128
-262.224	-99.338	0.232	-0.058
-261.209	-36.849	0.249	-0.132
-260.195	-78.214	0.202	-0.069
-259.180	-19.282	0.268	-0.164
-258.165	290.953	0.058	-0.105
-257.151	-30.081	-0.150	-0.084
-256.136	800.000	0.146	0.434
-255.122	-200.000	0.047	0.281
-254.107	-200.000	-0.001	-0.131
-253.092	-94.308	0.017	0.005
-252.078	-200.000	0.001	0.026
-251.063	-200.000	-0.012	0.065
-250.049	800.000	0.050	-0.144
-249.034	-13.305	-0.029	-0.019
-248.019	78.357	0.069	-0.072
-247.005	-200.000	0.017	-0.124
-245.990	-177.860	-0.232	0.005
-244.976	324.593	-0.006	0.012
-243.961	92.721	0.164	-0.182
-242.946	780.675	0.152	-0.409
-241.932	-14.165	-0.122	0.078
-240.917	-97.137	-0.060	0.015
-239.903	-39.287	0.181	0.094
-238.888	1.028	0.104	-0.073
-237.873	-123.618	0.084	0.013
-236.859	800.000	-0.181	-0.529
-235.844	112.542	-0.108	-0.129
-234.830	-200.000	0.008	0.098
-233.815	90.987	0.201	-0.221
-232.800	800.000	0.049	0.182
-231.786	-19.914	-0.038	-0.023
-230.771	-92.732	-0.114	-0.031
-229.757	-200.000	-0.003	0.140
-228.742	-61.919	0.216	0.089
-227.727	116.270	-0.223	-0.269
-226.713	-89.881	-0.456	0.131
-225.698	-114.192	-0.073	0.014
-224.684	-200.000	0.191	-0.001
-223.669	-200.000	0.009	0.068
-222.655	-111.842	-0.187	-0.037
-221.640	13.647	-0.029	-0.022
-220.625	67.984	-0.037	0.037
-219.611	-200.000	0.006	0.172
-218.596	-89.706	-0.229	0.066
-217.582	179.355	-0.058	-0.083
-216.567	-81.895	-0.137	0.044
-215.552	800.000	-0.093	0.397
-214.538	-200.000	-0.011	0.049
-213.523	86.939	-0.093	-0.101
-212.509	-72.905	-0.182	-0.066
-211.494	-200.000	-0.014	0.069
-210.479	150.214	-0.221	0.295
-209.465	83.227	-0.128	0.137
-208.450	800.000	-0.077	0.248
-207.436	105.533	-0.078	-0.090
-206.421	300.632	0.106	-0.191
-205.406	56.137	-0.089	-0.085
-204.392	-17.549	0.224	-0.138
-203.377	-79.049	0.186	0.062
-202.363	-77.043	0.154	-0.053
-201.348	231.228	0.015	-0.025
-200.333	800.000	0.085	0.357
-199.319	-139.754	-0.085	0.009
-198.304	5.110	-0.174	0.126
-197.290	0.194	0.040	-0.028
-196.275	-200.000	0.012	-0.468
-195.260	84.774	-0.151	-0.163
-194.246	212.629	0.061	0.095
-193.231	-200.000	-0.015	-0.245
-192.217	-176.650	-0.183	0.005
-191.202	-66.692	0.077	-0.030
-190.187	-45.145	-0.304	0.148
-189.173	79.460	0.171	0.180
-188.158	-61.538	0.370	-0.153
-187.144	141.366	-0.042	0.054
-186.129	-92.314	0.322	-0.089
-185.114	-52.791	-0.114	0.051
-184.100	-166.332	0.280	-0.012
-183.085	220.607	-0.013	-0.021
-182.071	-160.970	0.287	-0.015
-181.056	-200.000	-0.030	0.182
-180.042	800.000	0.115	0.359
-179.027	-22.224	-0.123	-0.073
-178.012	517.828	0.143	0.327
-176.998	56.652	-0.231	0.220
-175.983	193.971	-0.164	-0.244
-174.969	-140.397	-0.294	0.030
-173.954	754.358	0.009	-0.024
-172.939	-45.345	0.252	0.123
-171.925	183.487	-0.115	0.166
-170.910	-32.225	-0.220	0.121
-169.896	146.580	0.119	0.157
-168.881	-141.602	0.214	0.021
-167.866	-72.422	-0.353	-0.128
-166.852	-200.000	0.000	-0.062
-165.837	-56.070	0.165	-0.072
-164.823	-39.621	0.223	0.114
-163.808	-200.000	0.026	0.319
-162.793	318.747	-0.071	0.131
-161.779	-129.668	0.142	-0.019
-160.764	-131.947	0.202	0.026
-159.750	155.176	-0.133	0.179
-158.735	-200.000	0.024	0.137
-157.720	156.260	-0.112	0.151
-156.706	715.225	-0.061	0.158
-155.691	136.228	-0.197	-0.251
-154.677	800.000	-0.046	0.151
-153.662	-91.016	-0.047	0.013
-152.647	729.866	0.051	-0.133
-151.633	-101.196	0.175	0.042
-150.618	359.926	-0.109	-0.215
-149.604	158.584	-0.164	-0.224
-148.589	19.091	0.235	0.185
-147.574	-61.373	-0.165	-0.068
-146.560	-132.446	-0.213	-0.027
-145.545	539.569	0.114	0.265
-144.531	-46.049	-0.125	-0.060
-143.516	800.000	-0.048	-0.140
-142.502	322.388	0.069	0.129
-141.487	-91.624	-0.370	0.103
-140.472	-141.420	0.018	-0.002
-139.458	-10.346	0.059	-0.038
-138.443	-200.000	-0.013	-0.127
-137.429	-200.000	-0.025	-0.227
-136.414	-200.000	0.020	-0.186
-135.399	-7.859	-0.180	0.119
-134.385	437.872	-0.014	0.030
-133.370	-62.247	-0.088	-0.036
-132.356	-200.000	0.016	0.107
-131.341	-63.810	0.075	-0.030
-130.326	-72.125	-0.117	-0.042
-129.312	150.960	0.161	0.215
-128.297	-86.994	0.133	0.040
-127.283	-110.297	0.175	0.036
-126.268	-70.220	-0.086	-0.032
-125.253	28.744	-0.464	-0.385
-124.239	60.840	-0.185	0.179
-123.224	-12.398	-0.220	0.141
-122.210	-200.000	0.050	-0.325
-121.195	-137.235	0.367	-0.041
-120.180	-120.766	0.125	0.021
-119.166	64.552	-0.030	-0.030
-118.151	190.686	-0.105	-0.155
-117.137	-131.659	-0.350	-0.045
-116.122	800.000	0.081	-0.232
-115.107	-70.641	0.328	0.121
-114.093	129.259	0.103	-0.129
-113.078	800.000	0.049	-0.186
-112.064	50.710	-0.181	-0.168
-111.049	-200.000	0.032	0.159
-110.034	39.794	0.281	0.247
-109.020	123.244	-0.135	-0.166
-108.005	-51.943	-0.195	0.089
-106.991	-200.000	-0.059	-0.336
-105.976	-200.000	-0.038	0.331
-104.962	350.628	-0.134	-0.260
-103.947	104.647	0.099	-0.115
-102.932	15.846	0.152	-0.117
-101.918	800.000	-0.061	0.181
-100.903	-62.369	0.178	0.073
-99.889	-89.743	0.220	0.063
-98.874	-24.110	0.248	-0.145
-97.859	506.428	0.019	-0.043
-96.845	800.000	-0.115	0.346
-95.830	569.467	0.090	-0.214
-94.816	136.941	0.181	0.231
-93.801	-21.195	0.094	-0.056
-92.786	729.897	0.046	-0.121
-91.772	150.870	-0.198	0.264
-90.757	-17.755	0.217	-0.133
-89.743	800.000	0.058	0.238
-88.728	41.812	-0.048	0.042
-87.713	-200.000	-0.006	0.269
-86.699	-21.996	0.271	0.161
-85.684	800.000	0.018	-0.051
-84.670	-65.247	-0.126	0.050
-83.655	800.000	0.059	-0.160
-82.640	-118.675	-0.260	0.045
-81.626	5.674	0.216	0.156
-80.611	-66.951	-0.058	0.022
-79.597	-133.662	0.058	-0.007
-78.582	800.000	0.044	-0.132
-77.567	445.383	-0.148	0.317
-76.553	344.223	-0.083	0.159
-75.538	800.000	-0.069	-0.271
-74.524	195.117	-0.118	0.175
-73.509	-59.650	0.080	0.034
-72.494	-135.157	-0.302	-0.035
-71.480	33.802	-0.238	0.202
-70.465	-56.427	0.210	-0.091
-69.451	-57.406	0.194	-0.083
-68.436	-142.489	-0.209	0.020
-67.422	-200.000	0.039	0.181
-66.407	-45.369	0.274	0.133
-65.392	-74.284	0.348	0.123
-64.378	-200.000	-0.025	-0.117
-63.363	56.049	0.084	-0.080
-62.349	58.224	-0.219	0.210
-61.334	72.531	-0.897	-0.914
-60.319	207.396	0.447	0.681
-59.305	692.889	-0.414	-1.061
-58.290	278.016	0.658	1.144
-57.276	273.515	0.866	1.495
-56.261	-200.000	117.249	653.797
-55.246	506.029	1545.346	3498.727
-54.232	175.986	2711.441	3844.372
-53.217	105.589	2170.974	2506.550
-52.203	37.074	1688.701	1459.784
-51.188	29.571	1504.447	1249.908
-50.173	27.367	1480.154	1214.981
-49.159	49.918	1540.614	1419.043
-48.144	48.381	1555.308	1422.042
-47.130	29.651	1510.112	1254.958
-46.115	26.685	1495.098	1222.451
-45.100	26.498	1491.915	1218.542
-44.086	26.440	1489.916	1216.469
-43.071	26.438	1487.879	1214.745
-42.057	26.392	1486.568	1213.319
-41.042	26.394	1485.172	1212.143
-40.027	26.331	1483.780	1210.541
-39.013	26.397	1481.653	1209.199
-37.998	26.371	1480.774	1208.260
-36.984	26.460	1479.894	1208.085
-35.969	26.435	1478.399	1206.648
-34.954	26.412	1476.969	1205.286
-33.940	26.296	1476.128	1203.778
-32.925	26.403	1474.047	1202.742
-31.911	26.377	1473.072	1201.730
-30.896	26.471	1471.404	1200.942
-29.881	26.457	1470.353	1199.944
-28.867	26.478	1469.420	1199.273
-27.852	26.521	1467.541	1197.978
-26.838	26.417	1466.485	1196.378
-25.823	26.528	1464.878	1195.753
-24.809	26.498	1463.559	1194.431
-23.794	26.552	1462.034	1193.500
-22.779	26.480	1460.692	1191.880
-21.765	26.418	1460.083	1190.926
-20.750	26.451	1458.931	1190.156
-19.736	26.505	1457.498	1189.299
-18.721	26.376	1456.704	1187.758
-17.706	26.523	1455.674	1187.829
-16.692	26.350	1454.631	1185.801
-15.677	26.482	1453.412	1185.624
-14.663	26.416	1452.657	1184.529
-13.648	26.435	1451.347	1183.538
-12.633	26.504	1450.456	1183.214
-11.619	26.432	1450.123	1182.425
-10.604	26.495	1449.057	1181.922
-9.590	26.438	1447.629	1180.335
-8.575	26.387	1447.119	1179.539
-7.560	26.391	1446.046	1178.646
-6.546	26.449	1445.320	1178.389
-5.531	26.496	1443.991	1177.559
-4.517	26.354	1444.014	1176.611
-3.502	26.408	1443.054	1176.131
-2.487	26.396	1441.704	1174.909
-1.473	26.332	1440.647	1173.581
-0.458	26.375	1439.177	1172.616
0.556	28.100	1428.945	1161.143
1.571	24.825	1405.022	1121.117
2.586	21.281	1346.214	1052.784
3.600	19.718	1265.159	980.448
4.615	18.423	1220.678	938.803
5.629	16.415	1164.495	885.010
6.644	10.015	1084.157	792.580
7.659	4.937	1047.831	741.834
8.673	4.211	1042.261	734.386
9.688	4.051	1039.003	731.269
10.702	3.922	1037.130	729.279
11.717	4.016	1035.321	728.385
12.731	6.465	1036.733	740.837
13.746	13.429	1046.752	780.894
14.761	20.147	1055.101	818.895
15.775	22.332	1057.344	830.892
16.790	21.967	1056.504	828.438
17.804	21.103	1054.312	822.573
18.819	20.288	1052.662	817.378
19.834	19.958	1051.474	814.826
20.848	19.889	1050.428	813.621
21.863	19.892	1049.891	813.146
22.877	19.746	1049.479	812.072
23.892	19.496	1048.855	810.343
24.907	19.500	1047.911	809.559
25.921	19.371	1047.098	808.258
26.936	19.340	1046.447	807.535
27.950	19.336	1045.262	806.530
28.965	19.375	1044.532	806.078
29.980	19.306	1043.736	805.070
30.994	19.622	1042.093	805.206
32.009	19.759	1041.882	805.610
33.023	19.768	1041.245	805.087
34.038	19.868	1040.142	804.627
35.053	19.611	1039.490	802.861
36.067	19.505	1037.770	800.969
37.082	19.605	1036.771	800.591
38.096	19.449	1036.684	799.729
39.111	19.654	1035.974	800.060
40.126	19.741	1034.984	799.624
41.140	19.525	1034.128	797.895
42.155	19.417	1031.951	795.647
43.169	19.081	1031.315	793.537
44.184	18.918	1029.974	791.686
45.199	19.001	1029.121	791.341
46.213	19.000	1028.413	790.721
47.228	19.119	1027.421	790.435
48.242	19.400	1026.772	791.154
49.257	19.503	1026.447	791.308
50.271	19.529	1024.941	790.198
51.286	19.532	1024.340	789.679
52.301	19.656	1024.186	790.054
53.315	19.604	1023.150	788.948
54.330	19.400	1022.168	787.191
55.344	19.291	1021.125	785.822
56.359	19.201	1020.614	784.947
57.374	19.209	1019.254	783.869
58.388	19.189	1018.659	783.252
59.403	19.111	1018.076	782.379
60.417	18.869	1017.413	780.700
61.432	19.002	1016.343	780.414
62.447	19.088	1015.428	780.031
63.461	18.771	1014.995	778.193
64.476	18.798	1014.030	777.507
65.490	18.687	1012.622	775.859
66.505	18.665	1012.203	775.370
67.520	18.776	1011.290	775.101
68.534	18.937	1010.422	775.092
69.549	18.786	1009.994	774.019
70.563	18.854	1008.967	773.468
71.578	18.707	1008.357	772.272
72.593	18.627	1007.115	770.893
73.607	18.473	1005.854	769.168
74.622	18.362	1005.733	768.508
75.636	18.514	1004.265	767.998
76.651	18.622	1003.506	767.833
77.666	18.674	1003.117	767.700
78.680	18.543	1002.397	766.499
79.695	18.609	1002.366	766.699
80.709	18.689	1001.168	766.075
81.724	18.837	1000.628	766.252
82.739	19.174	999.718	766.988
83.753	19.175	999.317	766.617
84.768	19.380	998.896	767.141
85.782	19.623	998.382	767.758
86.797	19.907	997.942	768.612
87.812	19.940	996.975	767.944
88.826	19.697	995.593	765.738
89.841	19.509	995.181	764.517
90.855	19.716	994.588	764.911
91.870	19.704	993.615	764.043
92.884	19.891	992.924	764.272
93.899	19.904	992.010	763.556
94.914	19.733	991.479	762.325
95.928	19.891	990.763	762.406
96.943	19.941	989.720	761.755
97.957	19.791	988.934	760.420
98.972	19.632	987.970	758.917
99.987	19.698	986.970	758.370
101.001	19.842	986.198	758.339
102.016	19.582	985.873	756.886
103.030	19.662	984.817	756.358
104.045	19.680	983.842	755.618
105.060	19.790	982.997	755.386
106.074	19.652	982.071	754.004
107.089	19.383	980.701	751.713
108.103	19.034	979.514	749.215
109.118	18.924	978.729	748.073
110.133	18.897	977.870	747.232
111.147	18.804	976.989	746.090
112.162	18.803	975.723	745.051
113.176	18.754	975.403	744.527
114.191	18.993	974.337	744.684
115.206	19.002	974.035	744.428
116.220	19.098	972.724	743.773
117.235	18.907	972.551	742.750
118.249	18.866	971.539	741.736
119.264	18.885	970.444	740.914
120.279	18.792	970.111	740.194
121.293	18.727	968.952	738.963
122.308	18.780	967.707	738.177
123.322	18.614	967.132	736.963
124.337	18.451	966.013	735.345
125.352	18.506	964.377	734.271
126.366	18.492	963.581	733.539
127.381	18.574	962.685	733.140
128.395	18.485	962.087	732.239
129.410	18.702	960.531	731.918
130.424	18.691	959.712	731.181
131.439	18.723	959.089	730.776
132.454	18.838	958.693	730.900
133.468	18.948	957.915	730.711
134.483	18.808	957.609	729.819
135.497	19.200	956.498	730.570
136.512	19.097	955.610	729.389
137.527	19.022	955.172	728.672
138.541	19.010	954.433	727.993
139.556	19.052	953.825	727.644
140.570	19.051	953.040	726.979
141.585	19.224	952.439	727.185
142.600	19.481	952.241	728.052
143.614	19.533	951.116	727.348
144.629	19.702	950.620	727.616
145.643	19.836	950.326	727.889
146.658	19.800	948.716	726.441
147.673	19.517	948.246	724.831
148.687	19.408	946.542	723.006
149.702	19.104	946.120	721.344
150.716	18.973	945.168	720.007
151.731	18.977	944.058	719.114
152.746	18.991	943.390	718.600
153.760	19.162	942.674	718.705
154.775	19.136	942.127	718.118
155.789	19.192	941.246	717.614
156.804	19.401	940.762	718.054
157.819	19.239	939.944	716.693
158.833	19.577	938.947	717.273
159.848	19.557	938.697	716.935
160.862	19.725	938.122	717.129
161.877	19.715	937.242	716.352
162.892	19.319	935.938	713.652
163.906	19.160	934.864	712.114
164.921	19.010	934.068	710.821
165.935	18.965	933.232	709.938
166.950	19.172	932.311	710.028
167.964	19.340	931.325	709.906
168.979	19.257	930.180	708.631
169.994	19.227	929.500	707.927
171.008	19.101	928.647	706.697
172.023	19.073	928.090	706.095
173.037	19.314	927.505	706.575
174.052	19.692	927.008	707.681
175.067	19.544	925.730	706.039
176.081	19.280	925.239	704.522
177.096	19.077	923.921	702.629
178.110	18.997	922.985	701.527
179.125	19.041	922.683	701.417
180.140	19.131	921.903	701.126
181.154	19.245	921.157	700.962
182.169	19.386	921.011	701.361
183.183	19.482	920.679	701.438
184.198	19.566	919.787	701.036
185.213	19.593	919.021	700.500
186.227	19.720	918.225	700.347
187.242	19.673	918.252	700.115
188.256	19.754	917.643	699.917
189.271	19.933	916.878	699.996
190.286	19.870	916.514	699.398
191.300	19.738	915.362	697.925
192.315	19.206	913.643	694.408
193.329	18.863	913.334	692.729
194.344	18.994	912.450	692.526
195.359	19.106	912.273	692.782
196.373	19.196	911.878	692.785
197.388	19.355	911.255	692.886
198.402	19.556	910.855	693.328
199.417	19.918	910.352	694.336
200.432	20.006	910.209	694.520
201.446	20.026	910.048	694.416
202.461	20.152	909.849	694.707
203.475	20.209	909.330	694.479
204.490	20.312	908.133	693.913
205.504	19.927	907.437	691.781
206.519	19.721	905.942	689.759
207.534	19.828	905.265	689.608
208.548	19.619	904.587	688.200
209.563	19.717	903.934	688.031
210.577	19.686	903.626	687.613
211.592	19.686	903.142	687.184
212.607	20.006	902.509	687.914
213.621	20.098	901.913	687.761
214.636	19.946	901.706	686.941
215.650	19.977	900.371	685.987
216.665	20.004	899.945	685.706
217.680	20.063	899.634	685.644
218.694	20.174	899.085	685.603
219.709	20.202	898.929	685.536
220.723	20.055	898.089	684.252
221.738	20.091	897.152	683.622
222.753	20.105	896.518	683.131
223.767	19.978	895.630	681.893
224.782	20.121	895.345	682.181
225.796	20.206	894.607	681.891
226.811	20.412	893.621	681.889
227.826	20.290	893.281	681.091
228.840	20.275	892.236	680.175
229.855	20.064	891.690	678.870
230.869	19.999	890.973	678.012
231.884	19.872	890.363	676.989
232.899	19.868	889.785	676.476
233.913	19.824	888.925	675.587
234.928	19.775	888.001	674.638
235.942	19.784	887.309	674.085
236.957	19.794	886.405	673.378
237.972	19.712	885.836	672.567
238.986	19.542	885.642	671.698
240.001	19.571	884.574	670.941
241.015	19.686	884.280	671.109
242.030	19.862	883.634	671.241
243.045	19.865	883.086	670.775
244.059	19.904	882.787	670.640
245.074	19.936	881.812	669.964
246.088	20.041	881.458	670.043
247.103	20.245	880.767	670.247
248.117	20.368	880.296	670.305
249.132	20.452	880.283	670.557
250.147	20.673	880.118	671.224
251.161	20.844	879.875	671.641
252.176	21.174	878.949	672.143
253.190	20.992	878.583	671.105
254.205	21.088	878.008	670.976
255.220	21.251	877.374	671.058
256.234	21.063	876.852	669.876
257.249	21.059	875.991	669.146
258.263	20.960	875.375	668.235
259.278	20.908	874.952	667.654
260.293	20.981	874.485	667.520
261.307	21.133	874.040	667.702
262.322	21.168	873.678	667.501
263.336	21.239	872.926	667.140
264.351	21.313	872.091	666.724
265.366	21.188	871.603	665.815
266.380	21.174	870.719	665.026
267.395	21.108	870.616	664.636
268.409	21.147	869.695	664.025
269.424	21.051	868.500	662.688
270.439	20.942	868.305	662.065
271.453	21.068	867.005	661.494
272.468	20.834	866.372	660.065
273.482	20.807	865.875	659.526
274.497	20.669	865.470	658.639
275.512	20.712	865.013	658.393
276.526	20.832	863.678	657.772
277.541	20.804	863.174	657.225
278.555	21.028	862.453	657.465
279.570	20.995	862.541	657.350
280.585	21.380	861.837	658.203
281.599	21.331	861.051	657.362
282.614	21.209	860.588	656.489
283.628	21.009	859.760	655.051
284.643	20.768	859.455	653.853
285.657	20.896	858.870	653.833
286.672	20.885	858.324	653.317
287.687	21.063	857.770	653.502
288.701	21.029	857.507	653.118
289.716	20.893	857.280	652.379
290.730	20.910	856.483	651.778
291.745	20.982	855.694	651.390
292.760	21.016	854.837	650.807
293.774	21.100	854.478	650.787
294.789	21.368	853.980	651.349
295.803	21.482	853.274	651.179
296.818	21.106	852.550	649.171
297.833	21.068	851.535	648.199
298.847	20.958	851.488	647.697
299.862	21.011	850.942	647.420
300.876	21.065	849.838	646.724
301.891	21.249	849.904	647.398
302.906	21.237	849.690	647.132
303.920	21.404	848.965	647.144
304.935	21.638	848.079	647.277
305.949	21.668	847.776	647.097
306.964	21.770	846.717	646.608
307.979	21.554	846.134	645.309
308.993	21.388	845.468	644.132
310.008	21.511	845.038	644.203
311.022	21.566	844.651	644.052
312.037	21.573	844.322	643.769
313.052	21.322	843.409	642.093
314.066	21.313	842.470	641.288
315.081	21.027	841.875	639.731
316.095	21.065	841.308	639.384
317.110	21.202	840.597	639.287
318.125	21.118	839.978	638.452
319.139	21.138	839.885	638.398
320.154	20.980	839.492	637.463
321.168	20.963	838.829	636.844
322.183	21.032	838.320	636.651
323.197	21.042	838.171	636.521
324.212	21.180	837.449	636.417
325.227	21.167	836.884	635.887
326.241	21.180	836.325	635.453
327.256	21.076	835.835	634.645
328.270	21.147	835.178	634.349
329.285	21.185	834.497	633.912
330.300	21.125	833.984	633.250
331.314	20.935	833.599	632.210
332.329	21.088	832.838	632.132
333.343	21.345	832.276	632.580
334.358	21.374	832.103	632.498
335.373	21.507	831.445	632.424
336.387	21.586	830.789	632.152
337.402	21.627	830.008	631.652
338.416	21.691	829.688	631.584
339.431	21.770	829.636	631.771
340.446	21.957	829.121	631.996
341.460	22.046	828.643	631.897
342.475	22.149	827.921	631.661
343.489	22.172	827.645	631.476
344.504	22.140	827.180	630.950
345.519	22.396	826.586	631.361
346.533	22.327	826.240	630.792
347.548	22.188	825.720	629.842
348.562	21.984	825.211	628.667
349.577	21.865	824.298	627.489
350.592	21.727	823.379	626.243
351.606	21.455	823.153	625.044
352.621	21.500	822.666	624.779
353.635	21.482	822.167	624.280
354.650	21.540	821.720	624.093
355.665	21.698	821.352	624.322
356.679	21.779	820.898	624.210
357.694	21.896	820.296	624.113
358.708	21.979	820.027	624.147
359.723	21.820	819.015	622.757
360.738	21.681	818.838	622.076
361.752	21.825	818.554	622.314
362.767	21.806	817.962	621.742
363.781	22.072	817.267	622.101
364.796	22.166	817.702	622.709
365.810	22.310	817.198	622.780
366.825	22.383	816.891	622.751
367.840	22.478	816.499	622.732
368.854	22.394	816.139	622.104
369.869	22.387	815.407	621.469
370.883	21.990	814.825	619.567
371.898	22.286	813.732	619.726
372.913	22.204	813.433	619.154
373.927	22.362	813.023	619.342
374.942	22.455	811.852	618.724
375.956	22.290	811.246	617.628
376.971	22.460	811.092	618.053
377.986	22.640	810.584	618.240
379.000	22.634	810.244	617.905
380.015	22.706	810.128	618.017
381.029	22.759	809.137	617.391
382.044	22.623	808.235	616.171
383.059	22.742	807.398	615.896
384.073	22.724	807.422	615.794
385.088	22.530	806.886	614.656
386.102	22.340	806.196	613.412
387.117	22.224	805.319	612.289
388.132	22.083	804.930	611.447
389.146	22.090	804.598	611.165
390.161	22.327	804.081	611.543
391.175	22.369	804.255	611.766
392.190	22.573	803.826	612.094
393.205	22.505	802.997	611.175
394.219	22.318	802.642	610.200
395.234	22.248	801.966	609.389
396.248	22.064	801.454	608.311
397.263	21.910	801.086	607.444
398.278	21.870	800.548	606.845
399.292	21.932	800.003	606.591
400.307	22.049	799.183	606.321
401.321	21.972	798.912	605.794
402.336	22.065	798.278	605.579
403.350	22.111	798.374	605.760
404.365	22.258	797.874	605.833
405.380	22.378	797.781	606.121
406.394	22.645	797.288	606.611
407.409	22.717	797.030	606.611
408.423	22.862	796.432	606.599
409.438	22.974	796.123	606.695
410.453	23.078	795.471	606.500
411.467	23.130	794.939	606.219
412.482	23.010	794.675	605.553
413.496	23.222	794.303	605.943
414.511	23.152	794.181	605.556
415.526	23.279	793.613	605.504
416.540	23.031	793.565	604.566
417.555	23.071	792.931	604.166
418.569	22.861	792.424	603.007
419.584	23.056	791.612	603.004
420.599	22.889	791.346	602.178
421.613	165.598	1370.826	1799.209
422.628	143.628	1455.221	1799.277
