DTS Sentinel unit serial number:	SN413079Multiplexer serial number:	ORYXHardware model number:	OX4-SRSoftware version number:	ORYX F/W v4.00 Oryx Data Collector v3.7.2.0data status	okinstallation	princeton_trtdifferential loss correction	single-endedforward channel	channel 3reverse channel	N/Adate	2019/09/16time	15:08:34forward acquisition time	60.00reverse acquisition time	0.00gamma	496.2192k internal	0.2293k external	0.2293temperature offset calibration	0.9944default loss term (dB/km)	0.3790temperature slope calibration	1.0000multiplexer offset coefficient	1.0000multiplexer slope coefficient	1.0000fibre end	0.00T internal ref (°C)	41.11T ext. ref 1 (°C)	14.52T ext. ref 2 (°C)	36.46length (m)	temperature (°C)	Stokes	anti-Stokes-747.200	247.436	-0.183	-0.317
-746.185	51.369	-0.187	0.182
-745.171	220.184	-0.055	0.090
-744.156	-181.611	-0.339	-0.007
-743.142	240.841	0.040	-0.069
-742.127	74.492	0.259	0.279
-741.112	162.052	-0.063	0.090
-740.098	7.859	-0.201	0.154
-739.083	158.888	0.251	-0.357
-738.069	43.882	0.395	0.370
-737.054	-27.397	0.191	-0.114
-736.039	800.000	0.127	0.415
-735.025	-24.689	-0.223	-0.136
-734.010	-0.772	-0.206	-0.149
-732.996	-200.000	-0.014	-0.163
-731.981	-174.303	-0.212	-0.006
-730.966	110.739	-0.180	0.221
-729.952	-200.000	-0.003	0.142
-728.937	-103.416	-0.171	0.041
-727.923	-139.295	0.151	0.017
-726.908	165.210	-0.246	0.355
-725.894	-200.000	0.009	-0.069
-724.879	-69.571	-0.008	-0.003
-723.864	-200.000	-0.029	-0.148
-722.850	-1.020	-0.161	0.117
-721.835	-200.000	-0.027	-0.191
-720.821	215.342	-0.032	0.052
-719.806	321.583	0.132	0.257
-718.791	-117.219	0.309	-0.057
-717.777	800.000	-0.054	-0.236
-716.762	33.289	0.035	0.031
-715.748	-200.000	-0.019	0.123
-714.733	-112.900	-0.057	-0.012
-713.718	-200.000	0.027	-0.189
-712.704	-200.000	0.000	-0.388
-711.689	157.489	-0.040	-0.057
-710.675	-200.000	0.108	-0.513
-709.660	-200.000	-0.049	-0.351
-708.645	121.372	-0.122	0.156
-707.631	-200.000	0.023	-0.158
-706.616	17.330	-0.301	-0.244
-705.602	75.042	0.191	-0.206
-704.587	-164.789	-0.129	0.006
-703.572	190.901	-0.086	0.132
-702.558	483.526	0.091	0.211
-701.543	-0.659	0.055	-0.039
-700.529	-75.732	0.096	-0.035
-699.514	169.452	-0.143	0.208
-698.499	800.000	-0.030	-0.107
-697.485	69.980	-0.045	0.047
-696.470	187.301	-0.252	0.383
-695.456	-127.319	0.200	0.030
-694.441	-53.449	0.258	0.121
-693.426	172.298	-0.132	-0.193
-692.412	170.930	-0.133	0.195
-691.397	-32.559	-0.221	-0.126
-690.383	-200.000	0.004	0.059
-689.368	-200.000	0.014	-0.139
-688.354	-49.451	-0.132	0.064
-687.339	63.389	-0.120	0.123
-686.324	210.296	0.184	-0.296
-685.310	0.372	-0.130	-0.095
-684.295	800.000	-0.046	-0.181
-683.281	475.587	0.115	-0.265
-682.266	800.000	-0.039	-0.131
-681.251	-200.000	-0.014	-0.129
-680.237	290.223	-0.158	-0.292
-679.222	-64.386	-0.148	-0.062
-678.208	800.000	0.114	0.389
-677.193	-200.000	0.012	-0.107
-676.178	-156.631	0.387	-0.024
-675.164	-181.402	0.313	-0.006
-674.149	223.981	-0.131	0.215
-673.135	520.613	-0.074	0.176
-672.120	77.391	-0.276	-0.300
-671.105	800.000	-0.049	0.204
-670.091	-84.759	-0.074	0.024
-669.076	-200.000	0.030	-0.459
-668.062	175.371	0.252	0.373
-667.047	-45.462	0.053	-0.027
-666.032	800.000	-0.036	-0.101
-665.018	-87.275	-0.197	-0.061
-664.003	-200.000	0.005	0.156
-662.989	800.000	-0.018	0.056
-661.974	-200.000	-0.036	-0.297
-660.959	342.883	-0.023	-0.046
-659.945	94.380	-0.095	0.110
-658.930	-134.116	0.256	-0.032
-657.916	-4.270	-0.146	-0.103
-656.901	-57.360	-0.310	0.139
-655.886	-107.180	-0.206	0.046
-654.872	-118.636	0.067	-0.012
-653.857	-200.000	0.016	0.125
-652.843	-200.000	-0.051	-0.242
-651.828	48.860	-0.085	-0.082
-650.814	-99.017	-0.192	-0.050
-649.799	-84.961	-0.410	0.131
-648.784	-27.894	-0.307	-0.181
-647.770	261.678	-0.025	-0.043
-646.755	-190.040	0.269	0.003
-645.741	-200.000	0.009	0.104
-644.726	81.977	-0.097	0.107
-643.711	514.547	0.054	0.128
-642.697	-30.404	-0.064	0.037
-641.682	-78.144	-0.227	-0.079
-640.668	431.260	0.099	0.219
-639.653	-200.000	-0.001	-0.074
-638.638	140.819	0.107	-0.144
-637.624	44.019	0.144	-0.135
-636.609	-200.000	0.040	-0.182
-635.595	25.753	0.207	-0.176
-634.580	57.719	-0.164	-0.164
-633.565	135.038	-0.130	-0.172
-632.551	109.698	0.210	-0.256
-631.536	-200.000	0.046	-0.221
-630.522	-75.528	-0.334	-0.121
-629.507	-56.537	-0.486	-0.219
-628.492	257.889	0.079	0.138
-627.478	141.046	-0.128	0.172
-626.463	-37.510	0.224	0.122
-625.449	297.783	0.129	-0.242
-624.434	-30.666	0.228	-0.131
-623.419	800.000	0.016	-0.058
-622.405	316.699	-0.112	-0.215
-621.390	-114.089	0.149	0.029
-620.376	800.000	-0.034	-0.143
-619.361	-200.000	0.008	-0.385
-618.346	-200.000	-0.085	0.549
-617.332	-78.172	0.328	0.115
-616.317	-200.000	-0.067	-0.307
-615.303	-128.752	-0.140	-0.020
-614.288	-200.000	-0.008	0.068
-613.273	-32.263	-0.157	0.089
-612.259	-143.230	-0.356	0.035
-611.244	-200.000	0.028	0.155
-610.230	-7.298	-0.047	-0.033
-609.215	221.630	0.113	0.185
-608.201	-154.182	-0.242	-0.017
-607.186	-200.000	0.014	-0.129
-606.171	-94.579	-0.183	0.051
-605.157	353.858	-0.017	0.034
-604.142	-200.000	-0.013	-0.214
-603.128	92.592	-0.165	-0.190
-602.113	-106.649	0.239	-0.054
-601.098	49.994	-0.111	-0.106
-600.084	-200.000	-0.001	0.021
-599.069	-200.000	-0.046	0.252
-598.055	-200.000	0.002	-0.170
-597.040	-37.352	-0.188	-0.102
-596.025	-200.000	-0.004	0.449
-595.011	558.147	0.118	-0.290
-593.996	131.240	0.209	-0.273
-592.982	-67.477	0.142	-0.057
-591.967	617.947	0.197	-0.503
-590.952	-95.284	0.256	0.070
-589.938	-170.483	-0.131	-0.005
-588.923	128.258	-0.054	0.069
-587.909	-105.961	0.164	0.038
-586.894	800.000	0.119	-0.362
-585.879	495.667	0.115	-0.270
-584.865	411.281	-0.136	-0.292
-583.850	109.801	0.149	0.181
-582.836	2.207	0.168	-0.124
-581.821	-200.000	-0.068	-0.527
-580.806	-23.874	0.195	0.118
-579.792	668.633	-0.064	0.167
-578.777	-129.840	0.071	-0.010
-577.763	-45.033	0.288	0.146
-576.748	-0.749	0.257	0.185
-575.733	-17.401	0.085	-0.055
-574.719	-174.798	0.222	-0.006
-573.704	800.000	0.071	-0.214
-572.690	-141.387	0.023	0.002
-571.675	11.896	-0.185	0.145
-570.661	-200.000	0.024	-0.137
-569.646	-103.440	-0.119	0.028
-568.631	-61.495	-0.216	-0.092
-567.617	-49.888	-0.066	-0.032
-566.602	-78.841	-0.232	-0.080
-565.588	-200.000	0.021	0.263
-564.573	-160.493	0.338	0.018
-563.558	166.166	0.219	0.316
-562.544	62.247	0.085	0.086
-561.529	-50.748	0.396	-0.189
-560.515	-51.229	-0.309	-0.147
-559.500	-52.069	-0.212	-0.100
-558.485	-20.226	-0.052	-0.032
-557.471	142.244	-0.248	-0.334
-556.456	-130.328	-0.426	0.059
-555.442	93.793	-0.213	-0.245
-554.427	64.044	0.047	-0.048
-553.412	33.949	0.252	-0.222
-552.398	-200.000	0.260	-0.001
-551.383	-109.240	0.147	-0.032
-550.369	100.726	0.155	0.183
-549.354	800.000	-0.072	-0.244
-548.339	-81.776	-0.191	-0.064
-547.325	-200.000	-0.034	0.192
-546.310	48.471	0.203	-0.193
-545.296	56.810	0.136	-0.134
-544.281	-94.445	0.399	-0.111
-543.266	800.000	-0.026	0.098
-542.252	-200.000	0.050	-0.341
-541.237	-30.203	0.038	-0.022
-540.223	406.705	0.014	0.031
-539.208	800.000	0.076	-0.294
-538.193	800.000	0.052	-0.169
-537.179	-200.000	0.052	0.340
-536.164	-159.806	-0.079	-0.004
-535.150	-200.000	-0.010	-0.094
-534.135	675.257	0.012	0.032
-533.121	-109.491	0.241	-0.052
-532.106	-200.000	-0.330	-0.002
-531.091	-111.426	-0.115	-0.024
-530.077	92.037	0.229	-0.261
-529.062	-94.912	0.079	-0.022
-528.048	-45.735	0.327	-0.164
-527.033	-40.786	0.184	0.096
-526.018	-134.239	-0.166	0.021
-525.004	-200.000	-0.002	0.171
-523.989	91.695	-0.180	-0.206
-522.975	-101.422	-0.265	0.065
-521.960	201.584	0.124	-0.193
-520.945	710.570	-0.005	-0.014
-519.931	-200.000	0.076	-0.447
-518.916	-70.175	0.141	-0.054
-517.902	-70.005	0.430	0.166
-516.887	-24.928	0.135	-0.081
-515.872	-200.000	-0.000	0.318
-514.858	1.090	-0.555	-0.404
-513.843	100.973	-0.071	0.084
-512.829	-63.171	-0.153	0.064
-511.814	271.275	-0.157	0.281
-510.799	-54.180	0.316	0.145
-509.785	-135.824	0.191	-0.023
-508.770	218.865	-0.025	0.041
-507.756	-22.634	-0.109	0.067
-506.741	55.449	0.188	0.184
-505.726	-151.239	-0.307	0.023
-504.712	-169.977	-0.089	0.003
-503.697	137.707	-0.223	0.295
-502.683	-65.332	-0.124	-0.050
-501.668	-70.997	-0.240	0.092
-500.653	-177.791	0.166	-0.004
-499.639	60.612	-0.083	0.083
-498.624	-122.753	0.299	-0.049
-497.610	323.220	0.169	0.326
-496.595	800.000	0.037	-0.131
-495.581	282.909	0.120	0.218
-494.566	-200.000	0.034	0.172
-493.551	-200.000	-0.002	0.109
-492.537	45.288	0.188	-0.176
-491.522	800.000	-0.044	-0.158
-490.508	800.000	-0.027	-0.101
-489.493	-6.293	0.193	-0.134
-488.478	-74.643	-0.036	0.013
-487.464	-2.053	-0.468	0.333
-486.449	-144.392	0.309	-0.029
-485.435	172.674	0.194	0.282
-484.420	-108.253	-0.085	-0.019
-483.405	727.817	-0.058	-0.157
-482.391	51.561	-0.209	0.201
-481.376	163.621	0.234	-0.333
-480.362	-29.141	-0.171	-0.099
-479.347	-43.315	-0.148	0.076
-478.332	470.262	-0.136	-0.310
-477.318	-62.063	0.059	-0.025
-476.303	800.000	-0.074	-0.253
-475.289	-142.412	-0.085	-0.008
-474.274	300.329	-0.071	-0.132
-473.259	152.826	-0.085	0.118
-472.245	-200.000	0.012	0.146
-471.230	800.000	-0.096	0.296
-470.216	800.000	0.094	0.373
-469.201	800.000	0.073	-0.205
-468.186	468.674	-0.131	0.297
-467.172	-102.700	0.429	0.104
-466.157	-158.547	-0.252	-0.015
-465.143	800.000	0.172	0.623
-464.128	800.000	-0.017	0.072
-463.113	134.332	0.277	0.363
-462.099	-29.684	-0.249	-0.144
-461.084	-147.680	-0.351	-0.030
-460.070	-200.000	0.001	-0.149
-459.055	-200.000	0.065	-0.349
-458.040	800.000	-0.025	-0.109
-457.026	800.000	-0.114	-0.388
-456.011	27.313	-0.049	-0.041
-454.997	-144.762	-0.115	0.011
-453.982	-168.266	0.168	-0.007
-452.968	800.000	-0.048	-0.187
-451.953	110.810	0.140	-0.170
-450.938	800.000	0.093	-0.307
-449.924	-200.000	-0.026	0.199
-448.909	115.764	-0.098	0.122
-447.895	9.314	0.139	0.107
-446.880	-51.970	0.171	0.080
-445.865	-200.000	0.016	0.196
-444.851	599.245	0.071	0.178
-443.836	-70.969	-0.122	0.046
-442.822	-51.784	0.443	0.209
-441.807	47.458	-0.105	0.099
-440.792	-200.000	0.026	-0.275
-439.778	-103.521	0.272	-0.065
-438.763	-200.000	0.049	0.222
-437.749	547.289	0.176	0.426
-436.734	-200.000	-0.009	0.312
-435.719	-160.816	0.246	0.013
-434.705	-44.671	-0.191	0.096
-433.690	800.000	-0.067	0.243
-432.676	402.905	-0.064	-0.136
-431.661	-70.153	0.345	0.133
-430.646	83.848	-0.124	0.137
-429.632	-51.629	-0.181	-0.085
-428.617	-200.000	-0.028	-0.165
-427.603	573.727	-0.074	0.183
-426.588	15.958	0.210	0.167
-425.573	105.703	-0.214	-0.256
-424.559	-28.895	-0.031	0.018
-423.544	5.410	-0.154	0.115
-422.530	-34.632	-0.215	0.119
-421.515	-167.472	0.052	-0.002
-420.500	800.000	0.083	0.258
-419.486	-7.837	-0.081	0.056
-418.471	-10.029	-0.140	0.094
-417.457	-103.380	-0.301	-0.072
-416.442	173.670	-0.129	0.188
-415.428	149.571	-0.047	-0.064
-414.413	107.289	-0.075	0.091
-413.398	-106.827	0.199	-0.045
-412.384	800.000	0.049	0.183
-411.369	-18.827	-0.084	-0.053
-410.355	622.812	-0.089	0.227
-409.340	127.182	0.171	-0.219
-408.325	-160.860	0.083	-0.004
-407.311	273.628	0.170	-0.303
-406.296	-108.962	0.120	0.026
-405.282	-55.777	0.181	0.082
-404.267	800.000	0.044	-0.193
-403.252	345.991	-0.102	-0.203
-402.238	-74.543	0.324	-0.118
-401.223	-200.000	-0.007	0.172
-400.209	-118.934	-0.287	0.051
-399.194	340.216	-0.100	-0.197
-398.179	-16.824	0.096	0.061
-397.165	-200.000	-0.003	-0.436
-396.150	43.963	-0.057	0.053
-395.136	-200.000	0.012	0.308
-394.121	118.612	0.105	-0.130
-393.106	-71.624	-0.178	0.067
-392.092	-200.000	-0.015	-0.075
-391.077	299.223	-0.087	-0.162
-390.063	800.000	0.146	-0.478
-389.048	556.138	-0.128	0.312
-388.033	800.000	0.012	0.053
-387.019	-0.151	0.257	0.185
-386.004	38.121	0.253	-0.227
-384.990	-3.170	0.284	-0.200
-383.975	1.073	-0.187	0.135
-382.960	15.818	-0.137	-0.109
-381.946	800.000	0.089	0.271
-380.931	-200.000	0.012	-0.126
-379.917	-84.382	-0.145	-0.046
-378.902	-200.000	0.006	0.040
-377.888	198.934	-0.204	-0.315
-376.873	800.000	0.049	-0.147
-375.858	14.999	0.143	-0.113
-374.844	800.000	0.093	0.397
-373.829	-14.161	0.289	0.188
-372.815	1.311	0.210	0.152
-371.800	-200.000	-0.020	-0.457
-370.785	-200.000	0.017	0.345
-369.771	-200.000	-0.005	0.148
-368.756	20.587	0.157	0.128
-367.742	189.232	-0.167	0.253
-366.727	-200.000	0.013	-0.155
-365.712	102.680	-0.154	-0.181
-364.698	-200.000	0.045	0.200
-363.683	-116.859	0.163	0.030
-362.669	-200.000	-0.102	-0.000
-361.654	-167.548	-0.126	0.005
-360.639	-102.140	0.329	0.080
-359.625	-44.390	0.122	-0.062
-358.610	43.176	-0.307	0.282
-357.596	452.901	0.021	-0.047
-356.581	-200.000	0.044	-0.205
-355.566	-166.623	-0.248	0.010
-354.552	-117.409	-0.274	-0.050
-353.537	83.095	0.143	0.157
-352.523	-70.631	0.144	0.055
-351.508	528.594	0.090	0.214
-350.493	-200.000	-0.043	0.283
-349.479	-135.667	0.283	-0.034
-348.464	-5.492	0.103	-0.072
-347.450	-112.436	0.229	0.046
-346.435	421.190	0.069	0.149
-345.420	396.132	-0.083	0.174
-344.406	800.000	0.028	0.112
-343.391	373.420	-0.077	0.159
-342.377	-130.303	-0.033	0.005
-341.362	-19.177	0.422	-0.264
-340.348	-135.806	0.056	-0.007
-339.333	319.967	-0.075	-0.143
-338.318	24.751	-0.035	0.029
-337.304	176.067	-0.083	0.121
-336.289	-200.000	-0.187	0.001
-335.275	2.565	0.195	-0.142
-334.260	800.000	-0.060	0.172
-333.245	-200.000	-0.059	-0.396
-332.231	682.801	-0.022	-0.057
-331.216	800.000	-0.099	-0.282
-330.202	-115.712	-0.036	-0.007
-329.187	111.253	0.071	-0.087
-328.172	-64.454	0.208	0.085
-327.158	-200.000	-0.014	0.128
-326.143	6.761	-0.175	-0.131
-325.129	-200.000	0.003	0.085
-324.114	-90.783	0.182	0.053
-323.099	-139.563	-0.225	0.024
-322.085	-81.644	-0.299	-0.099
-321.070	-41.440	-0.342	-0.177
-320.056	800.000	-0.034	0.122
-319.041	51.283	-0.119	-0.114
-318.026	106.647	-0.180	0.215
-317.012	-200.000	0.030	0.262
-315.997	-39.313	-0.167	-0.088
-314.983	800.000	-0.007	0.028
-313.968	455.572	0.060	-0.133
-312.953	800.000	-0.041	0.121
-311.939	618.277	-0.095	-0.240
-310.924	50.091	0.065	0.062
-309.910	-200.000	0.010	-0.265
-308.895	23.428	-0.208	0.172
-307.880	114.835	-0.219	0.269
-306.866	-200.000	-0.011	-0.128
-305.851	-200.000	0.036	0.190
-304.837	-32.687	0.093	0.052
-303.822	152.239	-0.007	-0.009
-302.807	-200.000	-0.050	0.272
-301.793	-26.521	0.026	0.015
-300.778	-200.000	0.022	0.235
-299.764	2.445	0.062	0.045
-298.749	44.744	0.190	0.175
-297.735	-200.000	0.055	-0.335
-296.720	-22.595	-0.223	0.136
-295.705	-154.944	0.191	-0.013
-294.691	63.168	0.056	-0.056
-293.676	-44.815	0.450	-0.225
-292.662	761.468	0.122	-0.332
-291.647	192.062	-0.133	-0.202
-290.632	534.846	-0.102	-0.243
-289.618	-44.187	0.122	-0.062
-288.603	68.447	-0.109	0.112
-287.589	-144.761	-0.248	-0.023
-286.574	8.822	-0.168	-0.127
-285.559	-51.820	0.086	0.040
-284.545	-200.000	-0.032	0.143
-283.530	-81.537	-0.361	0.119
-282.516	-169.236	0.123	-0.005
-281.501	800.000	-0.061	0.185
-280.486	188.214	-0.011	-0.016
-279.472	325.079	-0.088	0.169
-278.457	-200.000	0.018	-0.292
-277.443	89.440	0.070	-0.078
-276.428	286.696	-0.179	0.324
-275.413	-136.758	-0.347	0.040
-274.399	87.972	0.146	0.162
-273.384	9.247	-0.253	-0.192
-272.370	-200.000	-0.131	0.000
-271.355	-130.629	-0.116	-0.016
-270.340	-88.413	0.225	0.067
-269.326	-76.429	0.147	-0.052
-268.311	-115.573	-0.104	0.020
-267.297	-200.000	0.007	0.193
-266.282	-95.755	-0.157	0.042
-265.267	800.000	0.071	0.235
-264.253	800.000	-0.074	0.226
-263.238	87.665	-0.142	0.158
-262.224	-120.881	-0.222	0.038
-261.209	-200.000	0.021	0.292
-260.195	-200.000	0.000	-0.090
-259.180	-81.997	0.213	-0.070
-258.165	94.538	-0.171	-0.195
-257.151	-113.857	0.326	-0.064
-256.136	229.583	0.132	0.216
-255.122	76.918	-0.228	0.243
-254.107	241.992	0.216	0.362
-253.092	800.000	0.051	-0.174
-252.078	-200.000	0.009	-0.098
-251.063	54.626	-0.221	-0.213
-250.049	-153.104	0.175	0.012
-249.034	-51.948	-0.470	0.219
-248.019	129.853	-0.351	-0.450
-247.005	-112.981	0.251	-0.050
-245.990	10.297	0.368	-0.281
-244.976	-148.309	0.327	-0.027
-243.961	-152.855	-0.119	-0.008
-242.946	-48.837	-0.323	0.156
-241.932	32.068	0.122	0.105
-240.917	-8.729	0.077	0.052
-239.903	-28.874	0.246	-0.142
-238.888	-200.000	0.058	-0.262
-237.873	185.777	0.029	-0.043
-236.859	92.908	0.191	-0.217
-235.844	406.712	0.136	-0.289
-234.830	140.992	-0.085	0.112
-233.815	-200.000	-0.039	-0.345
-232.800	25.784	-0.202	0.169
-231.786	-44.562	-0.132	0.066
-230.771	-95.396	-0.451	0.121
-229.757	168.326	-0.068	-0.097
-228.742	141.374	0.254	-0.337
-227.727	20.253	-0.129	-0.105
-226.713	-85.718	0.238	0.074
-225.698	309.951	-0.080	-0.150
-224.684	-13.476	-0.082	-0.053
-223.669	142.192	0.149	-0.199
-222.655	800.000	0.034	-0.104
-221.640	23.998	-0.141	0.117
-220.625	124.615	-0.115	0.145
-219.611	-22.956	-0.250	0.151
-218.596	-25.731	0.237	0.140
-217.582	-44.994	0.070	0.035
-216.567	-81.758	-0.337	-0.111
-215.552	-53.340	0.351	-0.161
-214.538	800.000	0.065	0.251
-213.523	96.406	0.144	0.165
-212.509	-200.000	0.028	0.286
-211.494	134.072	0.102	-0.133
-210.479	169.945	-0.129	0.184
-209.465	-200.000	-0.015	0.428
-208.450	-200.000	0.013	-0.100
-207.436	-200.000	0.025	0.409
-206.421	-33.515	-0.083	-0.046
-205.406	-48.169	0.100	0.048
-204.392	-200.000	0.001	-0.056
-203.377	-6.574	-0.297	-0.203
-202.363	286.826	0.108	0.195
-201.348	-200.000	-0.003	0.364
-200.333	-200.000	0.000	0.131
-199.319	228.399	-0.018	0.030
-198.304	-109.496	0.184	0.039
-197.290	-200.000	0.060	-0.297
-196.275	-124.370	-0.144	-0.022
-195.260	800.000	0.041	-0.150
-194.246	215.922	0.171	-0.271
-193.231	-12.518	0.230	-0.151
-192.217	19.124	-0.299	-0.240
-191.202	35.604	-0.127	-0.111
-190.187	-29.604	0.268	-0.153
-189.173	-138.644	0.089	-0.010
-188.158	-82.785	0.320	-0.104
-187.144	219.483	-0.159	-0.255
-186.129	-76.388	0.118	-0.042
-185.114	234.970	0.025	0.041
-184.100	-200.000	-0.002	-0.059
-183.085	154.414	0.151	-0.207
-182.071	-200.000	0.012	0.127
-181.056	-68.671	-0.359	-0.139
-180.042	-113.786	0.070	0.014
-179.027	531.810	0.140	0.331
-178.012	-200.000	0.034	-0.153
-176.998	800.000	-0.096	0.306
-175.983	616.388	-0.130	0.327
-174.969	-174.138	0.163	0.005
-173.954	-125.352	0.177	0.027
-172.939	-200.000	-0.014	0.095
-171.925	-96.590	0.045	-0.012
-170.910	159.557	-0.045	-0.063
-169.896	489.134	-0.026	0.059
-168.881	-118.780	-0.190	0.034
-167.866	-116.456	-0.190	-0.035
-166.852	-61.277	-0.164	0.069
-165.837	286.019	-0.185	0.334
-164.823	65.108	-0.280	0.283
-163.808	767.545	-0.087	0.237
-162.793	-200.000	-0.030	0.413
-161.779	28.819	-0.162	0.137
-160.764	-200.000	-0.079	0.384
-159.750	-80.299	-0.232	0.078
-158.735	309.689	-0.142	0.266
-157.720	305.851	0.002	-0.004
-156.706	-95.171	0.210	0.057
-155.691	-55.091	0.324	0.146
-154.677	-53.390	-0.313	-0.143
-153.662	6.040	0.210	-0.156
-152.647	-200.000	-0.005	-0.204
-151.633	301.616	-0.111	-0.206
-150.618	-200.000	0.053	0.246
-149.604	-200.000	-0.061	-0.315
-148.589	30.518	0.189	0.161
-147.574	-43.978	0.213	-0.107
-146.560	72.378	-0.150	0.157
-145.545	11.043	-0.254	-0.194
-144.531	-26.191	0.226	0.133
-143.516	-200.000	0.001	-0.019
-142.502	377.908	-0.196	0.401
-141.487	-61.688	0.071	0.030
-140.472	-200.000	0.078	0.402
-139.458	800.000	0.155	-0.454
-138.443	-30.181	0.244	0.139
-137.429	-39.666	0.208	0.109
-136.414	-100.924	0.273	-0.067
-135.399	-45.221	-0.280	0.139
-134.385	-55.955	-0.527	-0.235
-133.370	-200.000	-0.009	-0.153
-132.356	-28.036	0.191	-0.110
-131.341	-70.153	-0.210	0.080
-130.326	39.152	-0.125	0.112
-129.312	-60.154	0.144	0.061
-128.297	-77.266	0.175	0.061
-127.283	234.169	-0.171	-0.281
-126.268	-200.000	0.002	-0.225
-125.253	-200.000	-0.031	-0.288
-124.239	-200.000	0.019	0.251
-123.224	762.536	-0.085	0.229
-122.210	800.000	-0.036	-0.107
-121.195	92.215	0.160	0.180
-120.180	19.342	-0.119	-0.095
-119.166	-75.504	0.359	0.127
-118.151	80.115	0.114	0.123
-117.137	-200.000	-0.030	-0.238
-116.122	71.781	0.106	0.110
-115.107	-41.903	-0.108	0.055
-114.093	-200.000	-0.059	-0.328
-113.078	-44.297	0.305	-0.153
-112.064	-50.765	0.081	-0.038
-111.049	-1.130	-0.172	0.121
-110.034	-200.000	-0.053	0.264
-109.020	-52.024	-0.073	0.034
-108.005	-42.225	0.209	0.106
-106.991	162.077	0.117	-0.163
-105.976	-200.000	0.027	0.250
-104.962	-200.000	-0.037	0.362
-103.947	-76.699	-0.280	-0.098
-102.932	27.817	0.108	0.091
-101.918	-134.505	-0.289	0.035
-100.903	42.739	0.234	0.212
-99.889	-87.126	-0.197	-0.060
-98.874	-62.452	-0.166	0.069
-97.859	157.428	0.114	0.158
-96.845	-2.900	0.039	0.027
-95.830	-20.484	0.088	-0.054
-94.816	20.250	0.142	-0.114
-93.801	-200.000	0.018	-0.153
-92.786	-22.978	-0.237	-0.143
-91.772	-200.000	-0.010	-0.095
-90.757	-113.298	0.434	0.085
-89.743	-66.311	-0.159	-0.063
-88.728	563.996	-0.053	-0.128
-87.713	-89.842	0.235	0.069
-86.699	-200.000	0.068	-0.406
-85.684	-118.150	-0.019	0.003
-84.670	-52.574	0.098	-0.045
-83.655	-113.289	0.175	-0.034
-82.640	43.387	0.040	0.036
-81.626	-200.000	0.070	0.374
-80.611	165.851	-0.050	0.070
-79.597	7.137	-0.025	0.018
-78.582	99.750	-0.045	0.052
-77.567	-118.005	0.402	0.072
-76.553	-200.000	-0.015	-0.182
-75.538	-200.000	0.009	0.338
-74.524	130.577	0.022	0.029
-73.509	323.694	0.068	0.129
-72.494	180.581	-0.081	-0.119
-71.480	800.000	0.107	-0.389
-70.465	55.114	-0.097	-0.093
-69.451	800.000	-0.031	0.129
-68.436	800.000	-0.057	-0.226
-67.422	176.979	0.104	0.151
-66.407	800.000	-0.021	-0.064
-65.392	800.000	0.069	0.230
-64.378	59.535	-0.076	-0.075
-63.363	74.471	-0.170	0.178
-62.349	255.044	0.070	0.120
-61.334	10.159	-0.901	-0.683
-60.319	-42.038	0.343	0.175
-59.305	-200.000	-0.086	-0.632
-58.290	800.000	0.260	0.896
-57.276	255.314	0.765	1.305
-56.261	-200.000	76.087	519.302
-55.246	539.312	1308.761	3100.879
-54.232	148.857	2539.636	3419.487
-53.217	117.566	2246.454	2752.779
-52.203	51.832	1771.300	1678.745
-51.188	44.412	1568.925	1434.774
-50.173	41.810	1538.859	1389.171
-49.159	57.933	1575.230	1535.338
-48.144	63.558	1595.174	1594.137
-47.130	45.105	1558.323	1429.708
-46.115	41.459	1543.963	1391.110
-45.100	41.217	1540.795	1386.519
-44.086	41.232	1538.299	1384.317
-43.071	41.162	1536.001	1381.713
-42.057	41.055	1534.443	1379.511
-41.042	41.045	1533.330	1378.386
-40.027	41.133	1531.341	1377.156
-39.013	41.170	1529.674	1375.857
-37.998	41.116	1528.392	1374.277
-36.984	41.048	1527.780	1373.204
-35.969	41.131	1526.229	1372.323
-34.954	41.104	1524.935	1370.920
-33.940	41.090	1523.389	1369.382
-32.925	41.162	1521.627	1368.238
-31.911	41.072	1520.284	1366.354
-30.896	41.189	1519.079	1366.023
-29.881	41.286	1517.669	1365.365
-28.867	41.196	1516.144	1363.326
-27.852	41.132	1515.514	1362.268
-26.838	41.192	1513.162	1360.504
-25.823	41.182	1511.636	1359.015
-24.809	41.087	1510.681	1357.453
-23.794	41.011	1509.191	1355.539
-22.779	41.196	1507.700	1355.405
-21.765	41.117	1506.887	1354.086
-20.750	41.064	1506.241	1353.088
-19.736	41.242	1504.435	1352.621
-18.721	41.145	1503.670	1351.226
-17.706	41.101	1502.695	1349.993
-16.692	41.066	1501.206	1348.367
-15.677	41.082	1500.544	1347.830
-14.663	41.065	1499.419	1346.648
-13.648	41.104	1498.092	1345.666
-12.633	41.092	1497.115	1344.657
-11.619	41.091	1496.198	1343.769
-10.604	41.040	1495.566	1342.805
-9.590	41.059	1494.722	1342.122
-8.575	41.065	1493.644	1341.139
-7.560	41.143	1492.900	1340.947
-6.546	41.085	1491.553	1339.291
-5.531	41.048	1490.806	1338.317
-4.517	41.008	1489.901	1337.187
-3.502	40.980	1489.343	1336.446
-2.487	41.048	1487.943	1335.592
-1.473	41.001	1487.417	1334.751
-0.458	41.083	1485.445	1333.474
0.556	39.401	1475.612	1322.855
1.571	36.296	1448.188	1277.642
2.586	31.949	1384.734	1193.959
3.600	29.615	1299.918	1106.765
4.615	27.564	1250.627	1052.866
5.629	25.244	1196.980	994.769
6.644	20.064	1114.909	899.656
7.659	15.484	1073.236	843.010
8.673	14.723	1067.544	834.660
9.688	14.612	1064.810	831.898
10.702	14.397	1063.283	829.562
11.717	14.349	1062.153	828.365
12.731	16.428	1063.657	839.807
13.746	20.924	1068.942	866.308
14.761	21.437	1067.910	867.944
15.775	18.619	1063.305	850.181
16.790	17.057	1060.356	840.019
17.804	15.771	1058.216	831.893
18.819	14.947	1055.968	825.989
19.834	14.347	1054.719	821.976
20.848	13.867	1054.084	819.042
21.863	13.699	1053.131	817.400
22.877	13.432	1052.050	815.174
23.892	13.364	1051.040	813.985
24.907	13.323	1050.158	813.028
25.921	13.294	1049.762	812.508
26.936	13.280	1048.221	811.172
27.950	13.255	1047.478	810.406
28.965	13.339	1046.652	810.104
29.980	13.436	1045.556	809.658
30.994	13.374	1044.354	808.354
32.009	13.399	1043.406	807.669
33.023	13.520	1042.438	807.441
34.038	13.412	1041.942	806.461
35.053	13.445	1040.421	805.373
36.067	13.460	1039.391	804.574
37.082	13.308	1038.839	803.338
38.096	13.450	1038.023	803.326
39.111	13.344	1037.523	802.353
40.126	13.523	1036.661	802.483
41.140	13.322	1035.514	800.552
42.155	13.255	1034.607	799.454
43.169	13.201	1033.760	798.468
44.184	13.156	1032.230	796.999
45.199	13.279	1031.149	796.687
46.213	13.161	1030.679	795.684
47.228	13.208	1029.510	794.941
48.242	13.267	1028.347	794.254
49.257	13.286	1027.477	793.605
50.271	13.172	1026.949	792.578
51.286	13.351	1025.423	792.190
52.301	13.277	1025.130	791.536
53.315	13.283	1024.499	791.007
54.330	13.272	1023.347	789.996
55.344	13.334	1022.113	789.271
56.359	13.263	1020.948	787.962
57.374	13.199	1020.850	787.510
58.388	13.174	1019.631	786.384
59.403	13.080	1019.174	785.513
60.417	13.236	1017.998	785.279
61.432	13.218	1017.055	784.397
62.447	13.187	1016.638	783.860
63.461	13.187	1015.844	783.178
64.476	13.069	1014.754	781.710
65.490	13.098	1013.930	781.142
66.505	13.110	1013.002	780.415
67.520	13.140	1012.044	779.749
68.534	12.941	1011.925	778.649
69.549	13.181	1011.008	779.004
70.563	13.201	1010.225	778.426
71.578	13.095	1009.384	777.214
72.593	13.117	1008.332	776.438
73.607	13.097	1007.561	775.680
74.622	13.029	1007.049	774.899
75.636	13.137	1005.529	774.168
76.651	13.138	1005.306	773.933
77.666	13.052	1004.974	773.204
78.680	12.999	1003.634	771.858
79.695	13.037	1003.217	771.644
80.709	13.103	1002.629	771.434
81.724	13.113	1001.490	770.536
82.739	13.081	1001.069	769.996
83.753	13.112	1000.403	769.558
84.768	13.147	999.872	769.245
85.782	13.281	998.735	768.927
86.797	13.369	997.642	768.424
87.812	13.489	996.668	768.164
88.826	13.417	996.210	767.409
89.841	13.300	995.459	766.220
90.855	13.264	994.964	765.605
91.870	13.406	993.693	765.214
92.884	13.424	993.207	764.855
93.899	13.437	992.059	763.964
94.914	13.423	991.495	763.396
95.928	13.410	990.863	762.783
96.943	13.478	990.327	762.619
97.957	13.500	989.313	761.869
98.972	13.420	988.564	760.857
99.987	13.452	988.015	760.514
101.001	13.402	987.194	759.585
102.016	13.364	986.514	758.823
103.030	13.335	985.819	758.088
104.045	13.476	984.480	757.634
105.060	13.475	983.377	756.714
106.074	13.344	982.270	755.198
107.089	13.341	981.589	754.595
108.103	13.153	980.734	753.011
109.118	13.182	979.915	752.449
110.133	13.226	978.840	751.759
111.147	13.219	977.872	750.914
112.162	13.350	976.691	750.536
113.176	13.261	975.991	749.530
114.191	13.284	975.233	748.983
115.206	13.218	974.764	748.261
116.220	13.365	973.616	747.977
117.235	13.323	972.818	747.110
118.249	13.370	971.910	746.557
119.264	13.377	970.675	745.575
120.279	13.389	970.141	745.151
121.293	13.237	969.738	744.091
122.308	13.298	968.703	743.505
123.322	13.203	968.406	742.784
124.337	13.221	967.048	741.759
125.352	13.201	965.902	740.727
126.366	12.985	965.237	739.179
127.381	13.188	964.164	739.204
128.395	13.149	962.985	738.058
129.410	13.213	962.023	737.540
130.424	13.144	961.530	736.791
131.439	13.273	960.250	736.319
132.454	13.278	959.603	735.782
133.468	13.328	958.928	735.421
134.483	13.400	958.505	735.349
135.497	13.405	957.616	734.625
136.512	13.325	956.702	733.503
137.527	13.380	956.207	733.303
138.541	13.387	955.216	732.512
139.556	13.324	954.723	731.790
140.570	13.290	953.740	730.822
141.585	13.393	952.900	730.568
142.600	13.479	952.119	730.283
143.614	13.528	951.244	729.762
144.629	13.503	950.606	729.099
145.643	13.577	949.810	728.750
146.658	13.494	949.279	727.912
147.673	13.475	947.956	726.752
148.687	13.386	947.265	725.765
149.702	13.503	945.753	725.058
150.716	13.295	945.435	723.838
151.731	13.205	944.935	722.996
152.746	13.350	944.125	722.948
153.760	13.378	943.085	722.208
154.775	13.442	942.301	721.826
155.789	13.467	941.888	721.551
156.804	13.499	941.114	721.037
157.819	13.474	939.964	719.981
158.833	13.442	939.193	719.188
159.848	13.568	938.668	719.268
160.862	13.687	937.955	719.177
161.877	13.578	937.365	718.189
162.892	13.452	936.498	716.916
163.906	13.460	935.468	716.097
164.921	13.476	934.611	715.445
165.935	13.334	933.918	714.238
166.950	13.369	933.071	713.677
167.964	13.416	932.260	713.199
168.979	13.494	931.381	712.800
169.994	13.513	930.078	711.820
171.008	13.601	929.193	711.457
172.023	13.494	928.774	710.615
173.037	13.684	927.673	710.523
174.052	13.684	927.141	710.052
175.067	13.658	926.432	709.337
176.081	13.573	925.987	708.570
177.096	13.564	924.614	707.419
178.110	13.604	923.630	706.775
179.125	13.568	923.290	706.295
180.140	13.590	922.494	705.721
181.154	13.508	922.377	705.218
182.169	13.625	921.385	704.896
183.183	13.757	920.497	704.715
184.198	13.756	919.786	704.105
185.213	13.731	919.488	703.706
186.227	13.727	918.562	702.917
187.242	13.802	918.237	702.926
188.256	13.751	917.434	702.034
189.271	13.759	917.149	701.786
190.286	13.851	915.684	700.994
191.300	13.758	915.311	700.253
192.315	13.606	914.187	698.688
193.329	13.428	913.869	697.632
194.344	13.592	912.932	697.546
195.359	13.609	912.589	697.293
196.373	13.678	912.128	697.172
197.388	13.932	911.342	697.577
198.402	13.999	910.582	697.214
199.417	13.913	910.498	696.729
200.432	14.038	910.300	697.037
201.446	14.086	909.461	696.535
202.461	14.055	909.076	696.049
203.475	14.050	908.590	695.593
204.490	14.204	907.902	695.650
205.504	14.190	907.242	695.025
206.519	14.115	906.097	693.771
207.534	13.976	905.520	692.688
208.548	13.980	904.682	692.004
209.563	13.980	903.974	691.400
210.577	14.001	903.426	691.006
211.592	14.082	902.652	690.691
212.607	14.052	902.473	690.369
213.621	14.175	901.855	690.344
214.636	14.160	900.896	689.488
215.650	14.099	900.453	688.833
216.665	14.146	899.877	688.530
217.680	14.235	899.524	688.567
218.694	14.331	898.938	688.454
219.709	14.218	898.217	687.375
220.723	14.192	897.666	686.782
221.738	14.117	896.893	685.822
222.753	14.253	896.316	685.881
223.767	14.284	895.339	685.198
224.782	14.248	894.677	684.483
225.796	14.421	893.872	684.517
226.811	14.421	893.374	684.074
227.826	14.332	892.890	683.280
228.840	14.398	891.851	682.695
229.855	14.261	891.431	681.753
230.869	14.309	890.928	681.504
231.884	14.287	889.972	680.623
232.899	14.348	889.078	680.125
233.913	14.260	888.681	679.405
234.928	14.373	887.987	679.275
235.942	14.265	887.168	678.146
236.957	14.247	886.573	677.559
237.972	14.462	885.586	677.621
238.986	14.345	885.307	676.871
240.001	14.254	885.117	676.295
241.015	14.467	883.991	676.240
242.030	14.406	883.329	675.428
243.045	14.480	883.104	675.495
244.059	14.542	882.012	674.852
245.074	14.357	881.507	673.658
246.088	14.504	880.684	673.562
247.103	14.490	880.161	673.047
248.117	14.388	880.064	672.498
249.132	14.640	878.967	672.618
250.147	14.651	878.785	672.461
251.161	14.692	878.117	672.057
252.176	14.872	877.350	672.135
253.190	14.785	876.118	670.783
254.205	14.963	875.942	671.302
255.220	14.888	875.339	670.478
256.234	14.857	874.844	669.918
257.249	14.840	874.244	669.329
258.263	14.896	873.730	669.102
259.278	14.816	872.795	668.006
260.293	14.860	872.368	667.797
261.307	14.900	871.973	667.595
262.322	14.900	871.569	667.226
263.336	15.104	870.703	667.315
264.351	15.059	870.136	666.644
265.366	15.062	869.361	666.004
266.380	15.000	869.083	665.486
267.395	15.041	868.379	665.051
268.409	15.061	867.429	664.344
269.424	15.047	866.551	663.555
270.439	15.115	865.763	663.163
271.453	15.048	865.348	662.522
272.468	14.993	864.831	661.851
273.482	15.137	863.916	661.660
274.497	15.005	863.610	660.847
275.512	15.060	862.843	660.417
276.526	15.179	861.830	660.053
277.541	15.044	861.251	659.021
278.555	15.164	861.014	659.254
279.570	15.140	860.207	658.483
280.585	15.238	859.875	658.555
281.599	15.241	858.990	657.832
282.614	15.339	858.507	657.787
283.628	15.287	857.800	656.984
284.643	15.321	856.931	656.391
285.657	15.303	856.446	655.893
286.672	15.272	856.122	655.466
287.687	15.320	855.619	655.209
288.701	15.269	855.348	654.744
289.716	15.417	854.500	654.615
290.730	15.297	854.248	653.897
291.745	15.305	853.550	653.334
292.760	15.391	852.458	652.776
293.774	15.229	852.335	651.992
294.789	15.352	851.991	652.152
295.803	15.440	851.023	651.696
296.818	15.401	850.652	651.203
297.833	15.375	849.904	650.470
298.847	15.443	848.972	649.961
299.862	15.376	848.655	649.403
300.876	15.488	847.618	648.983
301.891	15.414	847.276	648.382
302.906	15.440	846.504	647.833
303.920	15.547	845.957	647.771
304.935	15.698	844.855	647.447
305.949	15.641	844.510	646.908
306.964	15.689	844.000	646.645
307.979	15.541	843.509	645.642
308.993	15.557	843.270	645.463
310.008	15.695	842.761	645.546
311.022	15.667	842.078	644.861
312.037	15.738	841.400	644.556
313.052	15.745	841.113	644.306
314.066	15.636	840.295	643.205
315.081	15.654	839.534	642.634
316.095	15.633	839.134	642.189
317.110	15.755	838.413	642.046
318.125	15.511	838.180	640.881
319.139	15.592	837.754	640.808
320.154	15.640	836.973	640.336
321.168	15.774	836.451	640.390
322.183	15.773	835.993	639.979
323.197	15.642	835.362	638.940
324.212	15.796	834.687	638.954
325.227	15.792	834.377	638.644
326.241	15.743	833.642	637.838
327.256	15.823	833.354	637.868
328.270	15.849	832.762	637.456
329.285	15.780	832.016	636.567
330.300	15.822	831.531	636.300
331.314	15.922	830.562	635.879
332.329	15.887	830.105	635.339
333.343	15.837	829.653	634.750
334.358	15.940	829.177	634.717
335.373	15.966	828.771	634.447
336.387	15.894	828.450	633.875
337.402	15.954	827.703	633.473
338.416	15.988	827.114	633.095
339.431	15.937	826.743	632.560
340.446	15.998	826.186	632.309
341.460	16.016	825.533	631.822
342.475	16.109	824.891	631.621
343.489	16.213	824.200	631.426
344.504	16.238	823.627	631.025
345.519	16.156	823.568	630.616
346.533	16.265	822.815	630.391
347.548	16.134	822.486	629.596
348.562	16.343	821.876	629.853
349.577	16.128	821.505	628.711
350.592	16.116	820.848	628.106
351.606	16.125	820.322	627.685
352.621	16.166	819.757	627.348
353.635	16.166	819.357	626.987
354.650	16.058	819.256	626.451
355.665	16.120	818.727	626.222
356.679	16.126	818.339	625.893
357.694	16.279	817.471	625.742
358.708	16.365	817.087	625.709
359.723	16.280	816.351	624.775
360.738	16.325	815.938	624.571
361.752	16.232	815.586	623.902
362.767	16.299	815.160	623.769
363.781	16.323	814.633	623.397
364.796	16.390	814.383	623.399
365.810	16.474	813.848	623.247
366.825	16.631	813.168	623.249
367.840	16.578	813.073	622.924
368.854	16.608	812.392	622.457
369.869	16.613	812.189	622.264
370.883	16.514	811.847	621.584
371.898	16.543	811.132	621.088
372.913	16.568	810.682	620.781
373.927	16.666	810.024	620.582
374.942	16.666	809.176	619.877
375.956	16.567	809.034	619.351
376.971	16.695	807.968	618.947
377.986	16.800	807.509	618.926
379.000	16.867	806.846	618.607
380.015	16.943	806.495	618.559
381.029	16.895	806.023	617.970
382.044	16.860	805.821	617.633
383.059	16.801	805.000	616.732
384.073	16.782	804.413	616.157
385.088	16.985	803.862	616.420
386.102	16.737	803.600	615.265
387.117	16.737	802.826	614.616
388.132	16.854	802.354	614.626
389.146	16.722	802.243	614.006
390.161	16.742	801.951	613.804
391.175	16.923	801.056	613.717
392.190	16.879	800.896	613.383
393.205	16.754	800.681	612.712
394.219	16.849	800.076	612.538
395.234	16.879	799.476	612.132
396.248	16.821	799.110	611.587
397.263	16.748	798.819	611.046
398.278	16.865	798.192	610.936
399.292	16.873	797.744	610.568
400.307	16.833	797.060	609.845
401.321	16.798	796.786	609.456
402.336	16.785	796.482	609.124
403.350	16.887	796.507	609.453
404.365	17.087	795.582	609.410
405.380	17.040	795.383	609.038
406.394	16.997	794.960	608.505
407.409	17.051	794.384	608.202
408.423	17.052	793.825	607.726
409.438	17.170	793.313	607.700
410.453	17.178	793.022	607.454
411.467	17.238	792.258	607.029
412.482	17.322	791.890	606.992
413.496	17.334	791.637	606.788
414.511	17.272	791.303	606.257
415.526	17.198	791.297	605.937
416.540	17.307	790.527	605.678
417.555	17.312	789.992	605.235
418.569	17.289	789.672	604.854
419.584	17.335	788.999	604.448
420.599	17.243	788.761	603.884
421.613	92.043	1262.404	1371.426
422.628	78.315	1331.433	1371.526
