DTS Sentinel unit serial number:	SN413079Multiplexer serial number:	ORYXHardware model number:	OX4-SRSoftware version number:	ORYX F/W v4.00 Oryx Data Collector v3.7.2.0data status	okinstallation	princeton_trtdifferential loss correction	single-endedforward channel	channel 3reverse channel	N/Adate	2019/09/12time	15:54:11forward acquisition time	60.00reverse acquisition time	0.00gamma	496.2192k internal	0.2297k external	0.2297temperature offset calibration	1.0064default loss term (dB/km)	0.3790temperature slope calibration	1.0000multiplexer offset coefficient	1.0000multiplexer slope coefficient	1.0000fibre end	0.00T internal ref (°C)	39.37T ext. ref 1 (°C)	2.48T ext. ref 2 (°C)	32.34length (m)	temperature (°C)	Stokes	anti-Stokes-747.200	85.023	0.108	-0.121
-746.185	0.450	0.085	0.062
-745.171	-200.000	-0.027	-0.191
-744.156	338.860	0.105	0.208
-743.142	197.081	-0.037	0.057
-742.127	-41.179	-0.116	0.061
-741.112	-136.867	0.388	-0.046
-740.098	-25.734	-0.153	0.092
-739.083	-163.147	-0.290	0.014
-738.069	267.304	0.134	0.239
-737.054	480.124	0.057	-0.132
-736.039	26.974	-0.156	-0.133
-735.025	7.309	-0.088	-0.067
-734.010	191.673	-0.109	-0.168
-732.996	-158.503	0.083	-0.005
-731.981	-100.211	-0.431	-0.109
-730.966	-35.528	-0.310	-0.172
-729.952	-200.000	-0.023	0.131
-728.937	436.191	-0.044	0.097
-727.923	-141.345	-0.216	0.022
-726.908	236.343	-0.194	-0.327
-725.894	-178.566	-0.398	-0.009
-724.879	305.430	0.096	-0.183
-723.864	-42.834	-0.132	0.069
-722.850	-36.457	0.233	0.128
-721.835	670.859	-0.045	0.119
-720.821	123.383	-0.271	-0.347
-719.806	-200.000	0.010	-0.274
-718.791	-115.648	0.179	-0.034
-717.777	199.920	-0.264	-0.414
-716.762	583.253	0.107	-0.268
-715.748	55.900	0.076	0.075
-714.733	27.736	-0.238	0.204
-713.718	800.000	-0.051	-0.187
-712.704	5.987	-0.262	0.198
-711.689	-89.027	0.031	0.009
-710.675	-200.000	0.009	-0.061
-709.660	-127.917	0.227	0.033
-708.645	-200.000	-0.001	-0.218
-707.631	-39.117	-0.302	-0.162
-706.616	-200.000	0.015	0.087
-705.602	-146.442	-0.269	-0.024
-704.587	200.204	-0.129	-0.201
-703.572	49.645	-0.134	-0.128
-702.558	-200.000	-0.000	0.167
-701.543	-7.245	0.286	-0.198
-700.529	-125.623	0.468	0.072
-699.514	-85.612	-0.205	0.065
-698.499	-154.111	0.043	-0.003
-697.485	-148.202	-0.139	0.012
-696.470	800.000	-0.074	-0.235
-695.456	-66.177	-0.214	0.087
-694.441	706.545	-0.043	0.116
-693.426	-200.000	-0.018	-0.151
-692.412	800.000	0.115	0.349
-691.397	-77.726	-0.345	-0.122
-690.383	440.242	0.041	-0.091
-689.368	-200.000	0.002	0.254
-688.354	-200.000	-0.015	-0.545
-687.339	304.283	0.088	0.166
-686.324	615.073	0.170	0.434
-685.310	-88.064	-0.198	0.061
-684.295	-61.968	-0.279	-0.119
-683.281	313.894	0.166	0.318
-682.266	-88.623	-0.261	-0.079
-681.251	93.845	0.167	-0.193
-680.237	38.477	-0.017	-0.015
-679.222	-200.000	-0.016	0.182
-678.208	-119.762	0.158	-0.028
-677.193	137.375	0.179	-0.239
-676.178	-200.000	0.006	0.085
-675.164	-200.000	0.021	-0.272
-674.149	356.830	-0.114	0.231
-673.135	6.225	-0.110	0.083
-672.120	-200.000	-0.381	-0.001
-671.105	90.464	-0.144	0.165
-670.091	463.569	-0.016	0.037
-669.076	681.786	-0.086	-0.228
-668.062	398.214	0.025	-0.053
-667.047	76.344	-0.080	0.086
-666.032	317.958	-0.055	0.105
-665.018	-200.000	0.029	-0.236
-664.003	-200.000	-0.070	-0.370
-662.989	115.784	0.103	-0.129
-661.974	-78.502	-0.138	0.048
-660.959	-74.809	-0.189	-0.069
-659.945	424.192	-0.081	0.177
-658.930	800.000	-0.112	0.331
-657.916	-25.360	-0.201	-0.121
-656.901	-59.535	0.142	0.062
-655.886	125.046	-0.095	0.122
-654.872	-200.000	0.045	-0.569
-653.857	-45.544	-0.345	0.174
-652.843	-23.717	0.207	-0.126
-651.828	25.753	0.319	-0.271
-650.814	-17.003	0.098	-0.063
-649.799	687.023	-0.036	-0.095
-648.784	15.889	-0.174	0.140
-647.770	37.507	-0.136	0.123
-646.755	183.536	0.176	-0.265
-645.741	-124.367	0.214	0.034
-644.726	800.000	0.060	-0.198
-643.711	-200.000	-0.005	-0.054
-642.697	-93.107	-0.165	-0.047
-641.682	-26.384	0.273	-0.163
-640.668	-93.530	0.051	-0.014
-639.653	-91.338	-0.075	-0.022
-638.638	17.710	0.303	0.245
-637.624	484.610	0.041	0.095
-636.609	103.356	-0.132	-0.157
-635.595	-200.000	0.010	-0.246
-634.580	-18.769	-0.245	-0.155
-633.565	-6.165	0.230	-0.160
-632.551	712.944	0.048	-0.130
-631.536	-126.987	-0.114	0.017
-630.522	-156.572	0.446	0.028
-629.507	179.094	-0.042	-0.062
-628.492	81.511	-0.344	-0.378
-627.478	500.550	-0.200	0.469
-626.463	-44.647	0.205	0.104
-625.449	125.037	0.101	0.129
-624.434	-38.914	-0.126	0.067
-623.419	-56.445	0.203	-0.091
-622.405	-164.225	0.305	-0.014
-621.390	-62.672	-0.064	-0.027
-620.376	179.786	0.149	0.221
-619.361	800.000	0.124	0.389
-618.346	800.000	0.045	-0.134
-617.332	286.354	0.179	-0.329
-616.317	800.000	0.099	0.402
-615.303	-200.000	-0.041	0.274
-614.288	-85.236	0.058	0.019
-613.273	5.885	0.297	-0.223
-612.259	60.874	-0.174	0.175
-611.244	-71.787	-0.138	0.052
-610.230	-75.301	-0.261	0.095
-609.215	30.645	-0.096	-0.083
-608.201	800.000	0.059	0.231
-607.186	76.865	-0.120	-0.130
-606.171	-200.000	0.014	0.144
-605.157	-162.134	0.210	0.011
-604.142	80.207	-0.219	0.240
-603.128	-7.999	0.274	0.187
-602.113	800.000	0.096	0.382
-601.098	-76.831	-0.300	0.107
-600.084	800.000	-0.073	0.209
-599.069	172.104	-0.045	0.066
-598.055	-200.000	-0.071	0.388
-597.040	-27.283	-0.379	0.224
-596.025	800.000	0.026	-0.099
-595.011	-200.000	0.032	-0.188
-593.996	776.937	-0.111	-0.309
-592.982	-200.000	-0.018	0.352
-591.967	-133.184	-0.205	-0.026
-590.952	-46.252	-0.053	0.026
-589.938	508.325	-0.139	0.329
-588.923	-39.120	0.109	0.058
-587.909	-34.450	0.088	-0.049
-586.894	-0.093	-0.250	0.180
-585.879	182.798	0.169	0.253
-584.865	-130.909	-0.264	0.036
-583.850	-200.000	-0.019	-0.224
-582.836	-131.525	0.202	-0.027
-581.821	231.041	0.017	0.029
-580.806	136.238	0.104	0.137
-579.792	-97.806	-0.445	0.117
-578.777	-58.507	-0.166	-0.073
-577.763	-130.326	0.167	-0.023
-576.748	-81.016	-0.103	0.035
-575.733	800.000	-0.048	-0.179
-574.719	8.004	0.072	-0.055
-573.704	-92.479	0.326	-0.093
-572.690	201.723	-0.168	0.263
-571.675	-126.891	-0.308	0.046
-570.661	69.582	-0.197	0.206
-569.646	-81.100	-0.449	-0.151
-568.631	800.000	-0.043	0.192
-567.617	28.983	-0.276	0.237
-566.602	-200.000	0.043	0.258
-565.588	800.000	0.079	0.231
-564.573	-200.000	0.003	0.074
-563.558	-200.000	-0.025	-0.312
-562.544	338.162	-0.060	-0.119
-561.529	311.229	-0.094	0.178
-560.515	382.778	-0.042	0.088
-559.500	-99.282	0.257	-0.066
-558.485	39.125	-0.120	-0.109
-557.471	-124.895	-0.197	0.031
-556.456	-122.908	0.358	-0.058
-555.442	-117.353	0.232	-0.043
-554.427	39.042	-0.264	0.239
-553.412	-1.181	0.276	-0.198
-552.398	-200.000	-0.026	-0.215
-551.383	2.894	0.412	0.303
-550.369	-200.000	0.062	0.293
-549.354	-200.000	-0.003	-0.036
-548.339	-27.333	-0.215	-0.127
-547.325	-200.000	0.030	0.383
-546.310	-170.544	-0.168	0.006
-545.296	-172.743	-0.121	0.004
-544.281	800.000	-0.089	0.330
-543.266	430.011	-0.084	0.185
-542.252	800.000	0.086	0.261
-541.237	-200.000	-0.016	0.165
-540.223	13.634	-0.130	-0.102
-539.208	-106.789	0.174	-0.039
-538.193	-15.579	0.209	-0.135
-537.179	-80.517	-0.381	-0.129
-536.164	96.764	0.053	0.062
-535.150	800.000	0.042	-0.153
-534.135	81.344	-0.126	0.138
-533.121	-55.505	-0.174	0.079
-532.106	-57.195	0.194	0.087
-531.091	0.895	0.164	0.119
-530.077	436.268	-0.063	-0.139
-529.062	38.604	-0.165	-0.149
-528.048	201.826	0.206	0.322
-527.033	-104.821	0.178	0.041
-526.018	-108.396	0.177	0.039
-525.004	168.182	-0.106	0.152
-523.989	800.000	-0.049	-0.193
-522.975	26.581	0.090	-0.076
-521.960	70.370	0.341	0.357
-520.945	-200.000	0.006	-0.109
-519.931	-200.000	0.007	0.436
-518.916	-143.801	-0.304	0.029
-517.902	49.863	-0.380	0.363
-516.887	-157.270	-0.225	0.014
-515.872	-200.000	-0.041	0.263
-514.858	14.242	0.269	-0.212
-513.843	-200.000	-0.007	-0.040
-512.829	-61.909	0.088	-0.037
-511.814	800.000	-0.062	0.260
-510.799	-200.000	0.042	-0.350
-509.785	334.292	0.174	-0.341
-508.770	-200.000	-0.014	0.175
-507.756	-92.053	0.152	-0.043
-506.741	-56.202	0.220	0.099
-505.726	80.439	-0.075	0.082
-504.712	-57.099	0.126	-0.056
-503.697	-57.212	-0.223	-0.099
-502.683	-88.659	-0.222	-0.067
-501.668	-99.033	0.141	0.036
-500.653	-139.267	0.152	0.017
-499.639	-19.341	-0.223	-0.140
-498.624	306.813	0.146	-0.275
-497.610	20.760	-0.543	-0.445
-496.595	3.780	-0.191	-0.141
-495.581	104.615	-0.268	0.319
-494.566	-50.260	0.381	0.182
-493.551	-83.252	-0.253	-0.082
-492.537	-5.367	0.117	-0.081
-491.522	-200.000	-0.003	0.316
-490.508	644.357	-0.064	0.165
-489.493	-200.000	-0.011	0.156
-488.478	-188.028	0.389	-0.005
-487.464	-200.000	-0.062	0.304
-486.449	800.000	0.041	0.162
-485.435	405.397	-0.036	-0.077
-484.420	63.961	0.176	0.179
-483.405	164.336	0.191	0.273
-482.391	-146.436	0.079	-0.007
-481.376	800.000	0.024	-0.080
-480.362	67.004	-0.136	-0.140
-479.347	38.211	0.311	-0.279
-478.332	13.905	0.136	-0.107
-477.318	-113.770	0.230	-0.045
-476.303	23.410	-0.132	-0.110
-475.289	130.801	-0.088	-0.114
-474.274	-37.930	0.024	-0.013
-473.259	800.000	0.096	-0.354
-472.245	-200.000	0.042	-0.341
-471.230	249.120	-0.097	-0.166
-470.216	21.041	0.469	-0.385
-469.201	153.744	-0.071	-0.098
-468.186	432.800	-0.070	0.153
-467.172	-54.002	-0.297	-0.137
-466.157	-154.362	0.199	-0.014
-465.143	800.000	-0.085	0.250
-464.128	-7.500	0.187	0.128
-463.113	52.732	0.127	-0.122
-462.099	-200.000	-0.012	-0.222
-461.084	-1.554	-0.069	0.049
-460.070	-20.820	0.072	-0.045
-459.055	-33.278	-0.124	-0.069
-458.040	-7.546	-0.359	-0.245
-457.026	230.931	-0.135	-0.224
-456.011	163.600	0.190	0.270
-454.997	-200.000	0.003	0.353
-453.982	800.000	0.039	-0.148
-452.968	-200.000	-0.007	-0.044
-451.953	55.059	-0.034	-0.033
-450.938	-165.309	0.251	0.011
-449.924	-200.000	0.072	0.338
-448.909	800.000	-0.059	-0.228
-447.895	-44.102	-0.146	-0.074
-446.880	84.807	0.090	0.100
-445.865	-200.000	-0.028	0.210
-444.851	-6.848	-0.226	-0.155
-443.836	730.739	0.148	-0.400
-442.822	245.187	-0.339	-0.576
-441.807	229.356	0.036	-0.059
-440.792	65.126	0.115	-0.117
-439.778	-49.348	-0.175	-0.084
-438.763	-168.373	-0.153	-0.006
-437.749	-3.020	0.426	-0.300
-436.734	-200.000	-0.001	0.100
-435.719	-200.000	-0.083	-0.494
-434.705	-113.481	-0.367	-0.072
-433.690	-8.074	0.052	-0.035
-432.676	800.000	-0.008	0.034
-431.661	-200.000	0.013	0.253
-430.646	-173.710	-0.301	-0.009
-429.632	310.611	0.127	0.240
-428.617	-81.207	0.163	-0.054
-427.603	-58.466	-0.084	0.037
-426.588	158.684	-0.120	0.168
-425.573	800.000	-0.057	0.171
-424.559	-156.987	0.219	-0.014
-423.544	-96.729	-0.254	-0.067
-422.530	559.347	-0.074	-0.181
-421.515	176.690	-0.075	-0.110
-420.500	-176.145	0.056	-0.001
-419.486	324.747	0.064	0.124
-418.471	-200.000	0.008	-0.197
-417.457	60.467	-0.079	0.079
-416.442	162.565	-0.045	0.063
-415.428	-200.000	-0.041	0.227
-414.413	-97.863	0.345	0.090
-413.398	-122.799	-0.466	0.076
-412.384	179.441	-0.172	-0.254
-411.369	116.869	-0.124	0.153
-410.355	98.414	-0.096	-0.111
-409.340	-200.000	-0.001	0.140
-408.325	800.000	0.043	-0.181
-407.311	-200.000	0.006	-0.273
-406.296	-149.094	0.569	-0.046
-405.282	-92.184	-0.210	0.060
-404.267	-114.629	-0.070	0.014
-403.252	-200.000	-0.011	0.277
-402.238	40.797	0.456	-0.414
-401.223	438.923	-0.109	0.240
-400.209	800.000	-0.005	0.022
-399.194	-122.248	-0.437	-0.072
-398.179	-149.746	0.412	0.033
-397.165	410.649	0.027	-0.057
-396.150	-85.934	0.139	-0.043
-395.136	1.490	-0.183	-0.133
-394.121	89.984	-0.153	0.172
-393.106	-200.000	0.004	-0.309
-392.092	-32.482	0.315	0.177
-391.077	800.000	0.039	-0.140
-390.063	751.825	-0.121	-0.329
-389.048	38.310	-0.195	0.175
-388.033	-33.407	-0.139	-0.077
-387.019	-22.249	0.294	0.180
-386.004	-137.699	-0.028	0.003
-384.990	363.069	-0.141	-0.285
-383.975	-63.813	0.062	0.026
-382.960	2.572	-0.194	-0.141
-381.946	15.377	-0.226	0.179
-380.931	-63.800	0.268	-0.111
-379.917	596.571	-0.185	-0.462
-378.902	129.114	-0.216	-0.277
-377.888	-143.832	0.425	0.040
-376.873	800.000	-0.055	0.170
-375.858	800.000	0.080	0.265
-374.844	244.616	-0.147	0.248
-373.829	59.801	0.061	0.060
-372.815	-200.000	0.042	0.303
-371.800	800.000	-0.044	0.190
-370.785	-115.856	-0.009	0.002
-369.771	217.143	0.162	0.259
-368.756	-118.656	0.090	0.016
-367.742	-200.000	-0.050	-0.447
-366.727	17.330	0.195	-0.156
-365.712	-110.449	0.092	-0.019
-364.698	800.000	-0.044	0.165
-363.683	51.145	0.113	0.108
-362.669	243.821	0.140	0.237
-361.654	-200.000	-0.007	-0.224
-360.639	-114.503	0.151	0.029
-359.625	-76.652	0.164	0.058
-358.610	-9.176	-0.107	0.072
-357.596	1.087	0.239	0.172
-356.581	-200.000	0.026	0.235
-355.566	800.000	-0.044	-0.154
-354.552	-200.000	0.046	-0.251
-353.537	735.774	0.051	0.139
-352.523	369.459	0.085	-0.173
-351.508	-30.917	0.241	0.137
-350.493	204.124	0.123	0.191
-349.479	-177.674	-0.237	0.006
-348.464	800.000	0.034	-0.111
-347.450	-49.463	-0.267	0.128
-346.435	-23.567	-0.195	0.118
-345.420	-24.147	0.231	0.139
-344.406	115.118	0.196	-0.240
-343.391	-52.825	0.298	-0.138
-342.377	-103.319	-0.133	-0.032
-341.362	-74.490	0.171	-0.062
-340.348	800.000	-0.122	-0.445
-339.333	797.980	0.129	-0.358
-338.318	-64.147	-0.379	0.156
-337.304	298.589	0.080	0.148
-336.289	-200.000	0.055	-0.277
-335.275	-16.925	-0.204	-0.130
-334.260	-161.081	-0.190	-0.010
-333.245	-200.000	0.023	-0.192
-332.231	-200.000	-0.016	-0.108
-331.216	60.724	0.137	0.136
-330.202	64.172	0.284	0.287
-329.187	39.824	-0.340	0.306
-328.172	-81.115	-0.063	-0.021
-327.158	74.229	-0.171	0.180
-326.143	67.221	0.126	-0.129
-325.129	-172.499	0.107	-0.003
-324.114	-85.475	-0.177	0.055
-323.099	-200.000	0.031	-0.184
-322.085	153.141	0.098	-0.135
-321.070	586.304	-0.056	-0.140
-320.056	22.103	0.260	-0.213
-319.041	800.000	0.080	0.251
-318.026	-200.000	-0.009	-0.211
-317.012	-200.000	-0.036	0.284
-315.997	-168.624	0.116	0.004
-314.983	90.664	-0.077	0.086
-313.968	2.476	0.044	-0.032
-312.953	-32.510	-0.362	0.202
-311.939	52.926	-0.025	-0.024
-310.924	82.077	0.073	0.079
-309.910	96.946	0.398	0.459
-308.895	-189.263	-0.200	-0.002
-307.880	-71.773	0.336	-0.126
-306.866	-200.000	-0.016	0.206
-305.851	80.969	0.024	0.026
-304.837	14.655	0.157	0.123
-303.822	445.435	-0.102	0.224
-302.807	-38.416	0.127	-0.068
-301.793	-115.886	-0.308	-0.058
-300.778	-41.397	-0.223	0.115
-299.764	-68.975	-0.354	-0.137
-298.749	800.000	0.049	-0.156
-297.735	109.350	0.067	0.080
-296.720	-71.358	0.146	0.055
-295.705	800.000	-0.032	-0.126
-294.691	-105.559	0.119	-0.027
-293.676	-127.079	0.275	-0.040
-292.662	291.798	0.086	-0.157
-291.647	-46.237	0.470	0.232
-290.632	-45.416	0.224	0.112
-289.618	-200.000	0.053	-0.364
-288.603	-200.000	-0.035	-0.618
-287.589	738.208	-0.098	-0.263
-286.574	16.050	-0.293	0.231
-285.559	-12.124	-0.229	0.150
-284.545	35.359	-0.234	-0.206
-283.530	-1.062	-0.078	0.055
-282.516	294.988	-0.141	-0.259
-281.501	9.956	0.169	0.129
-280.486	141.740	-0.074	-0.099
-279.472	-166.650	-0.167	0.007
-278.457	-26.560	-0.189	-0.111
-277.443	222.773	-0.050	0.081
-276.428	-35.339	0.019	-0.010
-275.413	-31.539	0.104	-0.059
-274.399	800.000	-0.024	-0.086
-273.384	339.755	0.115	0.224
-272.370	-149.802	-0.238	-0.019
-271.355	175.205	-0.183	-0.265
-270.340	-70.647	-0.207	0.078
-269.326	389.058	0.108	-0.225
-268.311	-200.000	-0.023	0.437
-267.297	465.059	-0.132	0.297
-266.282	43.924	-0.215	0.198
-265.267	-200.000	-0.020	-0.117
-264.253	800.000	0.041	0.148
-263.238	-200.000	-0.001	0.149
-262.224	542.320	0.033	-0.080
-261.209	69.575	-0.310	-0.320
-260.195	-24.150	-0.229	0.137
-259.180	-1.902	-0.013	-0.009
-258.165	-71.618	0.253	0.095
-257.151	174.042	-0.066	0.095
-256.136	-96.423	-0.131	-0.035
-255.122	23.318	0.221	-0.182
-254.107	-54.705	0.297	0.134
-253.092	-124.458	-0.201	0.031
-252.078	21.468	-0.257	-0.209
-251.063	19.537	-0.044	0.036
-250.049	292.504	0.254	-0.463
-249.034	77.221	-0.227	0.242
-248.019	-86.953	-0.095	-0.029
-247.005	-11.852	0.154	0.101
-245.990	-25.064	-0.088	-0.052
-244.976	-19.974	0.234	-0.144
-243.961	30.323	-0.114	-0.098
-242.946	119.926	0.138	-0.171
-241.932	800.000	-0.069	-0.229
-240.917	-12.164	0.097	-0.064
-239.903	-66.684	0.163	0.065
-238.888	-104.504	-0.322	-0.074
-237.873	-200.000	-0.008	0.232
-236.859	225.829	0.036	-0.058
-235.844	68.926	-0.196	-0.202
-234.830	64.528	-0.088	-0.089
-233.815	59.121	-0.064	-0.064
-232.800	-153.376	0.256	-0.018
-231.786	-105.389	0.461	-0.105
-230.771	-40.303	0.332	0.173
-229.757	-63.448	0.211	0.087
-228.742	-7.854	-0.172	0.116
-227.727	800.000	-0.150	-0.587
-226.713	-25.340	-0.078	0.046
-225.698	518.019	-0.017	0.039
-224.684	-87.272	0.195	0.059
-223.669	-155.885	-0.079	0.005
-222.655	-128.983	-0.215	-0.030
-221.640	-29.468	0.218	-0.125
-220.625	800.000	-0.071	0.238
-219.611	-118.762	-0.196	-0.035
-218.596	-200.000	0.008	-0.330
-217.582	230.639	0.204	-0.334
-216.567	-103.224	0.100	-0.024
-215.552	406.033	-0.107	-0.226
-214.538	-109.351	-0.152	-0.032
-213.523	550.038	0.136	0.327
-212.509	101.075	0.049	0.057
-211.494	675.304	0.124	-0.321
-210.479	304.570	-0.122	0.226
-209.465	-152.539	-0.292	-0.021
-208.450	1.088	-0.099	0.071
-207.436	-83.818	0.493	-0.157
-206.421	-89.451	-0.080	0.023
-205.406	-138.155	-0.072	0.008
-204.392	377.319	0.070	0.143
-203.377	7.158	-0.182	-0.136
-202.363	-9.263	0.060	-0.040
-201.348	-38.913	-0.155	-0.082
-200.333	800.000	0.076	-0.317
-199.319	-126.723	0.082	0.012
-198.304	-200.000	0.015	0.184
-197.290	-60.553	-0.100	0.042
-196.275	705.097	-0.060	0.158
-195.260	-56.918	0.265	-0.117
-194.246	-161.629	-0.269	0.014
-193.231	-27.815	-0.210	-0.122
-192.217	-80.930	-0.178	0.059
-191.202	800.000	0.082	0.240
-190.187	577.935	-0.129	0.316
-189.173	800.000	-0.095	0.265
-188.158	800.000	0.110	0.362
-187.144	-147.010	0.246	-0.021
-186.129	3.329	0.083	-0.060
-185.114	-85.085	0.156	-0.049
-184.100	63.461	-0.024	-0.024
-183.085	-200.000	0.047	-0.253
-182.071	120.392	0.260	-0.322
-181.056	-107.463	0.116	0.025
-180.042	-144.883	0.266	0.024
-179.027	25.415	0.314	0.261
-178.012	800.000	-0.051	-0.193
-176.998	11.989	-0.150	-0.115
-175.983	9.942	-0.271	0.206
-174.969	241.855	0.255	0.425
-173.954	-77.850	0.379	0.131
-172.939	800.000	-0.055	0.174
-171.925	135.887	-0.262	0.341
-170.910	-176.438	0.132	0.003
-169.896	-151.831	0.164	0.012
-168.881	-132.277	0.157	-0.020
-167.866	800.000	-0.094	-0.266
-166.852	-200.000	0.012	-0.118
-165.837	325.058	-0.139	-0.265
-164.823	800.000	0.074	-0.216
-163.808	-124.431	0.247	0.038
-162.793	-200.000	-0.073	-0.391
-161.779	-85.079	-0.259	-0.081
-160.764	465.015	-0.026	-0.058
-159.750	-200.000	-0.038	-0.268
-158.735	-200.000	0.048	0.239
-157.720	-147.143	0.173	-0.015
-156.706	-97.382	0.209	0.054
-155.691	-115.278	-0.350	0.066
-154.677	-97.093	-0.338	0.088
-153.662	-200.000	0.060	-0.370
-152.647	483.373	-0.091	-0.207
-151.633	-123.983	0.203	0.032
-150.618	800.000	0.024	-0.069
-149.604	118.521	0.080	-0.099
-148.589	62.631	-0.253	0.253
-147.574	-144.719	-0.312	0.029
-146.560	-3.124	0.069	0.048
-145.545	-107.192	-0.149	0.033
-144.531	271.549	0.115	0.202
-143.516	-127.276	0.442	0.064
-142.502	-200.000	0.015	0.077
-141.487	800.000	0.022	0.089
-140.472	-200.000	-0.004	0.096
-139.458	-43.409	0.220	-0.111
-138.443	87.146	-0.085	0.094
-137.429	169.430	0.093	-0.133
-136.414	355.083	-0.053	-0.104
-135.399	-54.954	0.124	-0.056
-134.385	25.893	0.195	-0.162
-133.370	374.153	-0.167	-0.339
-132.356	389.933	-0.058	0.119
-131.341	89.579	-0.308	-0.343
-130.326	0.140	-0.127	0.090
-129.312	-200.000	0.013	-0.214
-128.297	800.000	-0.047	0.174
-127.283	-200.000	0.031	0.190
-126.268	-200.000	-0.016	0.206
-125.253	353.806	0.098	0.195
-124.239	-135.516	0.166	-0.020
-123.224	376.227	-0.097	0.198
-122.210	220.744	-0.115	-0.184
-121.195	48.354	-0.114	-0.107
-120.180	-115.090	-0.148	-0.028
-119.166	-200.000	0.006	0.043
-118.151	314.738	-0.057	-0.107
-117.137	-94.553	0.194	-0.053
-116.122	310.934	-0.041	0.077
-115.107	66.838	0.376	0.381
-114.093	-125.255	0.377	0.057
-113.078	-160.404	0.113	0.006
-112.064	2.581	-0.172	0.124
-111.049	800.000	0.055	0.153
-110.034	-133.826	0.025	-0.003
-109.020	54.822	0.182	0.175
-108.005	-12.126	0.274	0.179
-106.991	581.795	0.034	-0.082
-105.976	-13.184	-0.450	0.291
-104.962	-200.000	0.029	0.148
-103.947	-85.799	0.233	-0.072
-102.932	-200.000	-0.002	-0.032
-101.918	800.000	-0.032	0.120
-100.903	431.598	0.177	-0.382
-99.889	619.197	-0.090	0.226
-98.874	-200.000	0.007	-0.105
-97.859	-74.953	-0.104	-0.037
-96.845	51.404	-0.092	-0.087
-95.830	800.000	-0.046	-0.186
-94.816	136.894	-0.119	0.155
-93.801	108.249	-0.178	0.211
-92.786	173.710	0.140	-0.201
-91.772	-200.000	0.057	0.390
-90.757	-19.639	-0.180	0.111
-89.743	-35.443	-0.157	0.085
-88.728	100.472	-0.089	-0.103
-87.713	-114.587	0.295	0.056
-86.699	376.566	0.128	-0.260
-85.684	800.000	0.040	0.119
-84.670	-200.000	0.018	0.115
-83.655	31.412	-0.147	0.126
-82.640	207.044	-0.044	0.068
-81.626	800.000	-0.063	-0.259
-80.611	109.136	0.142	-0.170
-79.597	800.000	0.037	0.132
-78.582	-95.985	-0.106	0.028
-77.567	243.630	0.089	0.148
-76.553	-14.974	0.359	0.229
-75.538	738.828	-0.087	0.233
-74.524	-200.000	-0.020	-0.255
-73.509	-110.473	0.291	0.060
-72.494	91.877	0.037	-0.042
-71.480	-200.000	-0.026	0.188
-70.465	-182.800	0.125	-0.002
-69.451	800.000	-0.014	0.048
-68.436	-109.758	-0.398	-0.083
-67.422	318.196	-0.100	0.189
-66.407	-89.853	0.174	0.051
-65.392	-200.000	0.001	-0.024
-64.378	251.098	0.226	0.382
-63.363	150.142	0.235	0.317
-62.349	118.114	0.211	-0.259
-61.334	24.540	-0.901	-0.742
-60.319	274.861	0.254	0.447
-59.305	354.526	-0.422	-0.834
-58.290	150.201	0.453	0.611
-57.276	800.000	0.511	1.863
-56.261	-200.000	82.428	506.161
-55.246	502.705	1351.166	3104.749
-54.232	149.371	2563.749	3450.597
-53.217	112.152	2232.064	2681.885
-52.203	49.055	1769.120	1651.744
-51.188	42.419	1576.827	1425.242
-50.173	39.978	1548.840	1382.834
-49.159	55.756	1591.612	1533.199
-48.144	60.616	1611.690	1586.957
-47.130	43.016	1571.392	1424.323
-46.115	39.647	1556.833	1387.417
-45.100	39.511	1553.140	1383.122
-44.086	39.357	1551.616	1380.624
-43.071	39.326	1549.481	1378.451
-42.057	39.288	1548.036	1376.848
-41.042	39.279	1546.484	1375.353
-40.027	39.308	1545.057	1374.227
-39.013	39.379	1542.810	1372.670
-37.998	39.349	1541.822	1371.525
-36.984	39.286	1540.556	1369.912
-35.969	39.295	1539.614	1369.077
-34.954	39.411	1538.086	1368.475
-33.940	39.321	1537.067	1366.884
-32.925	39.306	1535.463	1365.300
-31.911	39.427	1533.600	1364.429
-30.896	39.454	1532.862	1363.907
-29.881	39.416	1531.221	1362.132
-28.867	39.451	1529.619	1360.891
-27.852	39.470	1528.349	1359.839
-26.838	39.488	1526.816	1358.543
-25.823	39.509	1525.020	1357.038
-24.809	39.421	1523.705	1355.207
-23.794	39.464	1521.817	1353.771
-22.779	39.382	1520.821	1352.267
-21.765	39.444	1519.642	1351.590
-20.750	39.435	1518.436	1350.406
-19.736	39.428	1517.091	1349.108
-18.721	39.366	1516.332	1347.952
-17.706	39.342	1515.260	1346.783
-16.692	39.435	1513.516	1345.816
-15.677	39.328	1513.372	1344.901
-14.663	39.296	1512.256	1343.635
-13.648	39.227	1511.046	1342.040
-12.633	39.332	1509.944	1341.721
-11.619	39.370	1509.688	1341.700
-10.604	39.373	1508.017	1340.181
-9.590	39.390	1507.523	1339.809
-8.575	39.386	1506.027	1338.398
-7.560	39.385	1505.286	1337.676
-6.546	39.395	1504.194	1336.725
-5.531	39.246	1504.050	1335.532
-4.517	39.277	1502.718	1334.501
-3.502	39.352	1501.718	1334.070
-2.487	39.326	1500.535	1332.793
-1.473	39.293	1499.492	1331.591
-0.458	39.275	1498.445	1330.484
0.556	39.679	1487.896	1317.337
1.571	35.854	1459.160	1266.668
2.586	30.994	1395.138	1180.306
3.600	28.893	1309.401	1095.173
4.615	26.990	1261.233	1043.861
5.629	22.588	1202.080	970.634
6.644	12.026	1112.255	843.911
7.659	3.992	1067.366	769.950
8.673	2.804	1061.705	759.918
9.688	2.550	1058.217	756.098
10.702	2.189	1056.693	753.165
11.717	2.369	1054.996	752.774
12.731	5.591	1059.588	771.887
13.746	16.082	1073.539	834.140
14.761	24.112	1084.503	882.556
15.775	25.950	1086.039	892.837
16.790	26.067	1085.608	892.986
17.804	25.940	1084.679	891.513
18.819	25.641	1084.335	889.670
19.834	25.721	1083.941	889.667
20.848	25.900	1082.480	889.273
21.863	25.979	1083.018	890.024
22.877	25.888	1082.441	889.024
23.892	25.946	1081.422	888.394
24.907	25.743	1080.709	886.729
25.921	25.853	1079.999	886.608
26.936	25.951	1078.990	886.187
27.950	25.863	1078.100	884.944
28.965	25.863	1076.942	883.913
29.980	25.713	1075.348	881.791
30.994	25.784	1074.094	881.035
32.009	25.960	1073.021	880.937
33.023	26.013	1072.338	880.554
34.038	25.832	1071.697	879.070
35.053	25.898	1070.971	878.718
36.067	25.965	1069.827	878.028
37.082	25.936	1069.450	877.498
38.096	25.943	1068.413	876.605
39.111	25.990	1068.310	876.669
40.126	26.242	1067.134	876.852
41.140	26.083	1065.888	874.978
42.155	25.800	1064.735	872.584
43.169	25.455	1063.607	869.911
44.184	25.499	1062.470	869.120
45.199	25.642	1061.304	868.778
46.213	25.668	1060.209	867.930
47.228	25.593	1059.346	866.789
48.242	25.759	1058.571	866.873
49.257	25.753	1058.153	866.425
50.271	25.816	1057.295	865.951
51.286	25.884	1056.946	865.914
52.301	26.055	1055.915	865.815
53.315	25.896	1056.001	865.047
54.330	25.988	1054.631	864.288
55.344	25.947	1053.895	863.409
56.359	25.910	1052.761	862.230
57.374	25.894	1052.233	861.642
58.388	25.751	1051.034	859.905
59.403	25.674	1050.432	858.965
60.417	25.705	1049.562	858.326
61.432	25.623	1049.006	857.404
62.447	25.527	1048.462	856.426
63.461	25.681	1047.641	856.413
64.476	25.666	1047.361	856.039
65.490	25.608	1046.072	854.635
66.505	25.536	1044.839	853.209
67.520	25.541	1044.842	853.161
68.534	25.482	1044.243	852.314
69.549	25.555	1042.694	851.323
70.563	25.233	1041.430	848.690
71.578	25.095	1040.905	847.535
72.593	25.228	1039.836	847.217
73.607	25.065	1038.537	845.316
74.622	24.940	1037.418	843.741
75.636	25.268	1036.817	844.721
76.651	25.597	1035.870	845.423
77.666	25.420	1035.597	844.292
78.680	25.263	1034.497	842.584
79.695	25.142	1034.156	841.664
80.709	25.340	1033.489	841.975
81.724	25.527	1032.579	842.036
82.739	25.579	1031.556	841.371
83.753	25.438	1030.880	840.086
84.768	25.749	1030.777	841.381
85.782	26.047	1030.181	842.212
86.797	26.305	1029.030	842.400
87.812	26.133	1028.808	841.341
88.826	26.000	1027.259	839.378
89.841	26.007	1026.430	838.662
90.855	26.134	1025.779	838.645
91.870	26.095	1025.323	838.017
92.884	26.153	1024.301	837.377
93.899	26.037	1023.298	835.947
94.914	25.920	1022.443	834.631
95.928	26.015	1021.960	834.603
96.943	26.077	1020.807	833.872
97.957	25.808	1019.957	831.866
98.972	25.602	1018.973	830.039
99.987	25.365	1017.949	828.037
101.001	25.479	1017.199	827.880
102.016	25.903	1016.848	829.471
103.030	25.972	1016.030	829.048
104.045	25.646	1015.190	826.791
105.060	25.626	1013.988	825.647
106.074	25.558	1012.322	823.906
107.089	25.505	1011.745	823.119
108.103	25.790	1011.938	824.510
109.118	25.874	1010.890	823.969
110.133	25.747	1009.486	822.169
111.147	25.542	1008.443	820.313
112.162	25.514	1007.195	819.099
113.176	25.251	1006.240	817.052
114.191	25.341	1005.831	817.058
115.206	25.541	1004.839	817.090
116.220	25.298	1003.521	814.840
117.235	25.037	1003.082	813.229
118.249	25.116	1002.415	812.976
119.264	25.180	1001.121	812.140
120.279	25.158	1000.520	811.483
121.293	25.204	999.633	810.902
122.308	25.304	998.994	810.763
123.322	25.273	998.194	809.902
124.337	25.334	997.142	809.248
125.352	25.190	995.515	807.211
126.366	24.834	994.331	804.580
127.381	24.465	993.032	801.797
128.395	24.925	993.081	803.834
129.410	25.634	992.626	806.572
130.424	25.743	992.139	806.597
131.439	25.794	990.956	805.790
132.454	25.862	989.442	804.793
133.468	25.736	989.359	804.091
134.483	25.693	988.056	802.768
135.497	25.761	987.676	802.692
136.512	25.937	987.256	803.064
137.527	26.007	986.789	802.925
138.541	26.142	985.541	802.436
139.556	25.955	985.068	801.152
140.570	26.063	983.913	800.619
141.585	25.991	983.592	799.968
142.600	26.061	982.809	799.569
143.614	26.089	981.539	798.590
144.629	26.099	980.847	798.001
145.643	26.412	980.278	798.853
146.658	26.197	979.246	796.989
147.673	26.014	978.047	795.136
148.687	25.981	976.571	793.724
149.702	25.896	975.665	792.540
150.716	25.728	974.809	791.039
151.731	25.825	973.507	790.336
152.746	25.783	972.974	789.652
153.760	26.064	972.480	790.411
154.775	26.185	972.016	790.493
155.789	26.218	970.803	789.582
156.804	26.141	970.081	788.590
157.819	26.130	968.944	787.544
158.833	26.204	968.093	787.106
159.848	26.213	967.892	786.912
160.862	26.236	967.110	786.308
161.877	26.223	965.736	785.065
162.892	26.073	965.155	783.873
163.906	26.167	963.936	783.219
164.921	26.136	963.078	782.318
165.935	26.106	961.865	781.134
166.950	26.149	961.346	780.828
167.964	26.114	960.305	779.766
168.979	26.064	959.390	778.738
169.994	26.093	957.928	777.605
171.008	25.721	957.408	775.514
172.023	26.095	956.562	776.368
173.037	26.173	955.724	775.957
174.052	26.052	954.478	774.356
175.067	25.848	953.514	772.632
176.081	25.875	952.690	772.009
177.096	25.834	952.360	771.498
178.110	25.876	951.374	770.810
179.125	25.719	950.101	769.043
180.140	25.489	949.380	767.406
181.154	25.349	948.776	766.254
182.169	25.561	948.150	766.586
183.183	25.854	947.639	767.351
184.198	25.981	947.790	767.946
185.213	26.006	946.445	766.896
186.227	25.907	945.873	765.941
187.242	26.006	945.373	765.890
188.256	26.063	945.160	765.894
189.271	26.268	943.467	765.319
190.286	26.319	943.211	765.261
191.300	26.084	942.571	763.682
192.315	25.463	941.239	759.908
193.329	24.793	939.227	755.390
194.344	24.374	937.690	752.319
195.359	24.980	938.421	755.395
196.373	25.819	938.870	759.228
197.388	26.115	938.708	760.275
198.402	25.833	938.366	758.744
199.417	25.926	937.651	758.491
200.432	26.036	936.977	758.343
201.446	25.885	936.555	757.297
202.461	25.550	935.949	755.336
203.475	25.731	935.158	755.390
204.490	25.346	933.795	752.608
205.504	24.244	931.456	746.044
206.519	24.478	931.633	747.099
207.534	25.517	931.474	751.251
208.548	25.550	931.131	751.045
209.563	25.853	931.029	752.162
210.577	25.976	930.194	751.933
211.592	25.639	929.481	749.888
212.607	26.041	929.504	751.517
213.621	26.279	928.729	751.814
214.636	26.090	928.058	750.418
215.650	26.157	927.793	750.417
216.665	26.188	927.162	749.967
217.680	26.258	926.483	749.641
218.694	26.251	926.183	749.303
219.709	25.790	925.404	746.697
220.723	25.577	923.933	744.562
221.738	25.704	924.268	745.292
222.753	26.051	923.453	746.005
223.767	25.933	922.593	744.754
224.782	26.034	922.055	744.670
225.796	26.152	921.397	744.562
226.811	26.306	920.888	744.717
227.826	25.907	919.780	742.114
228.840	25.160	917.936	737.490
229.855	25.004	917.282	736.257
230.869	25.343	916.845	737.234
231.884	24.985	916.103	735.106
232.899	25.040	915.328	734.645
233.913	25.743	916.093	738.076
234.928	26.017	915.502	738.654
235.942	25.844	914.635	737.182
236.957	25.891	913.843	736.673
237.972	25.634	913.132	734.983
238.986	25.427	912.565	733.616
240.001	25.569	912.172	733.815
241.015	25.549	911.109	732.812
242.030	25.599	911.019	732.880
243.045	25.767	910.488	733.071
244.059	25.827	909.947	732.817
245.074	26.086	909.703	733.607
246.088	26.106	908.718	732.830
247.103	25.585	907.642	729.782
248.117	25.713	907.017	729.735
249.132	26.325	906.902	732.058
250.147	26.664	906.959	733.412
251.161	26.672	906.453	732.972
252.176	27.044	905.627	733.742
253.190	26.901	905.049	732.629
254.205	26.868	905.050	732.434
255.220	27.038	904.412	732.539
256.234	27.103	903.610	732.084
257.249	27.086	902.554	731.096
258.263	26.803	902.467	729.823
259.278	26.798	901.758	729.166
260.293	26.987	900.951	729.206
261.307	27.020	900.769	729.126
262.322	26.859	900.184	727.944
263.336	26.814	899.238	726.934
264.351	26.305	897.894	723.746
265.366	25.209	896.040	717.803
266.380	24.757	895.207	715.266
267.395	25.581	895.737	718.921
268.409	26.534	895.588	722.545
269.424	26.325	895.129	721.279
270.439	26.521	894.741	721.682
271.453	26.699	894.068	721.784
272.468	26.561	893.580	720.776
273.482	26.771	893.091	721.156
274.497	26.840	893.270	721.512
275.512	26.703	891.874	719.773
276.526	26.180	890.276	716.346
277.541	26.392	889.963	716.870
278.555	26.668	889.701	717.691
279.570	26.570	888.836	716.540
280.585	26.508	887.875	715.460
281.599	26.469	887.350	714.819
282.614	26.516	887.619	715.159
283.628	26.163	886.273	712.615
284.643	25.751	885.483	710.295
285.657	26.188	885.620	712.063
286.672	26.123	884.615	710.935
287.687	25.704	883.288	708.160
288.701	25.964	883.020	708.905
289.716	26.381	883.104	710.549
290.730	25.968	882.073	708.036
291.745	25.965	881.283	707.326
292.760	25.797	880.279	705.801
293.774	25.549	880.081	704.608
294.789	26.679	880.383	709.211
295.803	27.214	880.211	711.104
296.818	27.211	880.167	710.994
297.833	27.351	879.659	711.068
298.847	26.969	878.356	708.459
299.862	26.739	877.353	706.691
300.876	26.790	876.905	706.467
301.891	27.150	876.460	707.450
302.906	27.175	876.557	707.560
303.920	26.889	875.284	705.361
304.935	26.842	874.244	704.277
305.949	27.097	874.076	705.071
306.964	27.110	873.849	704.873
307.979	27.019	873.102	703.855
308.993	26.877	872.489	702.751
310.008	27.397	872.179	704.452
311.022	27.329	871.921	703.919
312.037	27.373	870.849	703.157
313.052	26.963	870.292	701.064
314.066	26.798	869.476	699.708
315.081	26.231	868.086	696.343
316.095	25.464	866.408	691.982
317.110	25.834	867.055	693.861
318.125	26.788	867.466	697.805
319.139	26.437	865.954	695.176
320.154	25.215	864.320	689.112
321.168	24.715	863.227	686.263
322.183	25.437	863.815	689.440
323.197	26.396	864.372	693.506
324.212	26.636	864.021	694.082
325.227	26.763	863.871	694.386
326.241	27.027	863.245	694.832
327.256	26.875	862.692	693.743
328.270	26.894	861.885	693.105
329.285	26.629	861.445	691.678
330.300	26.488	860.773	690.540
331.314	26.201	859.670	688.502
332.329	26.427	858.838	688.635
333.343	26.695	858.839	689.595
334.358	27.043	858.230	690.366
335.373	26.955	857.826	689.645
336.387	27.121	857.368	689.848
337.402	27.217	857.262	690.064
338.416	27.505	856.961	690.855
339.431	27.499	856.458	690.367
340.446	27.510	855.539	689.606
341.460	27.562	855.585	689.778
342.475	27.560	854.533	688.862
343.489	27.501	854.053	688.190
344.504	27.430	853.557	687.462
345.519	27.700	853.236	688.160
346.533	27.961	852.792	688.728
347.548	27.994	852.389	688.466
348.562	28.040	851.677	688.003
349.577	27.758	851.407	686.663
350.592	27.789	850.164	685.716
351.606	27.607	850.378	685.142
352.621	27.722	849.408	684.733
353.635	27.697	849.355	684.534
354.650	27.524	848.824	683.399
355.665	27.351	847.170	681.358
356.679	26.313	845.486	676.063
357.694	26.039	845.194	674.745
358.708	26.593	845.229	676.785
359.723	26.751	844.497	676.727
360.738	27.038	844.227	677.522
361.752	27.311	844.148	678.417
362.767	27.444	843.702	678.495
363.781	27.776	843.717	679.684
364.796	28.119	843.777	680.950
365.810	28.225	843.209	680.823
366.825	28.253	842.947	680.657
367.840	28.020	842.992	679.768
368.854	28.022	842.193	679.068
369.869	27.764	840.856	676.973
370.883	27.372	840.265	674.984
371.898	27.618	839.212	674.991
372.913	27.486	838.880	674.174
373.927	27.475	838.311	673.618
374.942	27.695	837.772	673.938
375.956	27.768	837.277	673.750
376.971	27.894	836.873	673.831
377.986	27.758	836.502	672.970
379.000	28.105	836.527	674.208
380.015	28.215	835.781	673.955
381.029	28.088	835.091	672.871
382.044	28.034	834.137	671.846
383.059	28.337	833.389	672.293
384.073	28.177	833.519	671.754
385.088	28.146	832.821	671.019
386.102	28.078	832.410	670.378
387.117	27.972	831.339	669.069
388.132	27.795	830.839	667.958
389.146	27.777	829.761	666.965
390.161	27.176	829.078	664.163
391.175	27.189	828.943	664.046
392.190	27.798	828.763	666.063
393.205	27.855	828.317	665.855
394.219	26.801	826.379	660.400
395.234	25.196	824.092	652.680
396.248	24.426	822.666	648.694
397.263	25.328	824.155	653.094
398.278	27.159	825.579	660.831
399.292	27.671	825.379	662.473
400.307	27.481	824.724	661.197
401.321	27.443	823.988	660.412
402.336	27.563	823.909	660.725
403.350	27.859	824.024	661.833
404.365	28.192	823.592	662.633
405.380	28.415	823.798	663.547
406.394	28.728	823.284	664.207
407.409	28.993	822.983	664.861
408.423	28.857	822.579	663.987
409.438	28.769	821.868	663.037
410.453	28.789	821.431	662.697
411.467	28.861	821.187	662.702
412.482	28.907	820.500	662.255
413.496	28.810	819.715	661.211
414.511	28.924	819.815	661.645
415.526	29.009	819.368	661.532
416.540	28.990	818.463	660.673
417.555	28.863	818.109	659.875
418.569	28.525	817.513	658.120
419.584	28.602	816.918	657.860
420.599	28.560	816.493	657.311
421.613	99.747	1272.901	1402.591
422.628	86.041	1339.422	1402.695
