DTS Sentinel unit serial number:	SN413079Multiplexer serial number:	ORYXHardware model number:	OX4-SRSoftware version number:	ORYX F/W v4.00 Oryx Data Collector v3.7.2.0data status	okinstallation	princeton_trtdifferential loss correction	single-endedforward channel	channel 3reverse channel	N/Adate	2019/09/11time	01:54:11forward acquisition time	60.00reverse acquisition time	0.00gamma	496.2192k internal	0.2332k external	0.2332temperature offset calibration	0.9918default loss term (dB/km)	0.3790temperature slope calibration	1.0000multiplexer offset coefficient	1.0000multiplexer slope coefficient	1.0000fibre end	0.00T internal ref (°C)	29.19T ext. ref 1 (°C)	-0.31T ext. ref 2 (°C)	23.41length (m)	temperature (°C)	Stokes	anti-Stokes-747.200	800.000	0.039	-0.141
-746.185	-46.115	0.427	0.211
-745.171	-35.379	0.260	-0.142
-744.156	800.000	0.067	0.243
-743.142	-110.541	0.444	0.092
-742.127	53.365	-0.330	0.318
-741.112	-24.825	-0.072	-0.043
-740.098	-200.000	-0.024	0.227
-739.083	-7.968	0.300	-0.203
-738.069	800.000	-0.048	0.138
-737.054	97.460	0.183	0.211
-736.039	11.979	-0.268	-0.207
-735.025	-200.000	-0.006	0.281
-734.010	-64.098	-0.170	-0.070
-732.996	-3.517	-0.255	-0.178
-731.981	-200.000	-0.036	0.321
-730.966	229.866	0.136	-0.224
-729.952	3.483	-0.287	-0.210
-728.937	190.764	-0.161	-0.243
-727.923	16.293	-0.333	-0.264
-726.908	-32.682	0.426	-0.238
-725.894	-34.824	-0.327	-0.180
-724.879	-1.791	-0.102	0.072
-723.864	-1.140	0.118	-0.084
-722.850	-10.282	-0.172	0.114
-721.835	133.967	0.242	0.315
-720.821	157.968	-0.113	-0.158
-719.806	-200.000	-0.005	0.050
-718.791	-165.805	0.262	0.011
-717.777	-124.239	-0.190	-0.030
-716.762	3.436	-0.151	0.110
-715.748	136.581	0.059	-0.077
-714.733	764.955	0.121	-0.331
-713.718	767.039	-0.055	-0.150
-712.704	769.658	-0.124	0.339
-711.689	-136.852	-0.136	-0.016
-710.675	-200.000	0.012	-0.071
-709.660	800.000	0.011	0.029
-708.645	96.918	-0.346	-0.398
-707.631	-200.000	0.051	-0.258
-706.616	-25.765	0.116	0.069
-705.602	-29.608	0.309	0.177
-704.587	-85.995	-0.250	0.078
-703.572	398.295	-0.093	-0.196
-702.558	-200.000	0.019	-0.115
-701.543	-200.000	0.016	0.238
-700.529	172.957	0.283	0.409
-699.514	13.559	0.285	-0.222
-698.499	-94.364	-0.033	0.009
-697.485	513.490	-0.084	-0.196
-696.470	156.986	-0.047	0.065
-695.456	12.882	-0.053	-0.041
-694.441	800.000	0.026	0.111
-693.426	-70.946	0.113	-0.043
-692.412	-29.900	-0.057	0.033
-691.397	-200.000	0.002	-0.226
-690.383	277.076	-0.014	0.025
-689.368	31.163	0.090	-0.077
-688.354	-170.086	0.027	-0.001
-687.339	152.710	0.124	0.170
-686.324	-129.156	0.282	0.040
-685.310	-200.000	0.032	-0.287
-684.295	800.000	-0.050	-0.185
-683.281	-200.000	-0.034	-0.267
-682.266	800.000	-0.079	-0.309
-681.251	-200.000	-0.002	0.200
-680.237	800.000	-0.036	-0.117
-679.222	-200.000	0.001	0.264
-678.208	175.623	0.148	0.215
-677.193	-128.453	0.115	-0.016
-676.178	-69.241	-0.228	0.088
-675.164	10.324	0.099	0.075
-674.149	-200.000	0.062	-0.593
-673.135	-200.000	-0.032	-0.280
-672.120	-6.597	0.074	-0.050
-671.105	-97.308	0.300	0.079
-670.091	-200.000	-0.026	-0.126
-669.076	-171.578	0.519	-0.017
-668.062	-200.000	-0.016	-0.301
-667.047	193.984	0.116	-0.176
-666.032	-133.836	-0.114	0.014
-665.018	260.070	0.090	-0.157
-664.003	-43.743	-0.103	0.052
-662.989	-200.000	-0.007	-0.044
-661.974	544.198	-0.095	0.227
-660.959	-95.915	0.237	0.063
-659.945	-200.000	-0.016	-0.133
-658.930	-200.000	-0.002	0.269
-657.916	-18.858	-0.238	0.148
-656.901	15.031	-0.193	0.151
-655.886	-200.000	0.025	-0.211
-654.872	-200.000	-0.039	0.265
-653.857	-91.444	0.104	-0.030
-652.843	353.987	-0.070	0.140
-651.828	-22.259	0.203	-0.123
-650.814	-154.224	-0.441	-0.030
-649.799	373.548	-0.272	-0.555
-648.784	124.481	-0.073	-0.092
-647.770	-103.857	0.128	0.030
-646.755	-132.093	-0.099	-0.013
-645.741	-144.134	0.240	0.022
-644.726	-200.000	-0.016	0.306
-643.711	800.000	-0.028	-0.085
-642.697	800.000	-0.062	-0.205
-641.682	-48.184	0.111	0.053
-640.668	-200.000	-0.009	-0.128
-639.653	99.934	0.180	0.209
-638.638	4.668	0.122	0.090
-637.624	80.696	-0.022	-0.024
-636.609	-48.330	0.312	-0.151
-635.595	306.549	0.143	0.267
-634.580	-200.000	-0.011	0.132
-633.565	86.410	-0.142	-0.157
-632.551	155.904	0.141	-0.195
-631.536	-101.617	-0.283	0.069
-630.522	-171.299	0.332	-0.011
-629.507	-200.000	-0.006	-0.068
-628.492	-29.944	-0.495	0.282
-627.478	480.622	-0.043	0.098
-626.463	116.636	-0.130	0.159
-625.449	2.652	0.149	0.108
-624.434	-148.462	-0.168	0.014
-623.419	-68.790	-0.173	0.067
-622.405	41.761	0.034	0.031
-621.390	-27.690	-0.170	0.099
-620.376	-200.000	0.036	-0.184
-619.361	312.259	-0.164	0.308
-618.346	800.000	-0.033	-0.115
-617.332	-90.803	0.308	0.089
-616.317	-200.000	-0.041	-0.217
-615.303	800.000	0.037	-0.114
-614.288	138.068	-0.128	-0.168
-613.273	-170.657	-0.199	0.007
-612.259	109.397	-0.147	-0.176
-611.244	183.298	-0.302	-0.446
-610.230	1.622	-0.296	-0.213
-609.215	15.703	0.150	-0.118
-608.201	-21.755	-0.233	0.142
-607.186	-58.681	0.303	0.131
-606.171	396.384	0.085	-0.177
-605.157	-94.244	-0.218	0.060
-604.142	-66.925	-0.102	-0.041
-603.128	-21.570	-0.326	0.199
-602.113	-101.647	-0.235	-0.057
-601.098	-51.741	0.040	0.019
-600.084	-200.000	0.066	0.304
-599.069	26.014	0.123	-0.102
-598.055	800.000	-0.058	0.223
-597.040	-77.101	0.170	-0.059
-596.025	-29.983	0.273	-0.156
-595.011	-71.368	-0.114	-0.043
-593.996	-59.331	0.069	0.029
-592.982	23.600	0.148	-0.122
-591.967	-200.000	-0.009	-0.446
-590.952	116.246	0.151	-0.186
-589.938	231.371	-0.214	-0.351
-588.923	37.097	0.155	0.137
-587.909	99.434	0.105	-0.122
-586.894	29.077	-0.305	0.259
-585.879	156.689	0.241	0.333
-584.865	-63.535	-0.192	0.079
-583.850	-1.072	-0.285	-0.202
-582.836	-200.000	0.052	-0.263
-581.821	170.441	-0.094	-0.134
-580.806	218.273	-0.096	-0.154
-579.792	-75.418	0.116	-0.041
-578.777	-51.206	-0.177	0.083
-577.763	800.000	0.074	-0.213
-576.748	800.000	0.130	0.562
-575.733	-200.000	-0.048	-0.226
-574.719	-200.000	-0.062	-0.348
-573.704	304.600	-0.091	0.169
-572.690	-94.280	0.126	0.034
-571.675	578.350	0.063	-0.154
-570.661	-44.019	-0.526	-0.264
-569.646	-17.505	0.341	0.214
-568.631	56.566	0.084	-0.082
-567.617	800.000	-0.072	-0.278
-566.602	-200.000	0.038	0.195
-565.588	-38.004	-0.137	0.073
-564.573	7.626	-0.198	-0.148
-563.558	-76.354	-0.335	0.118
-562.544	11.909	-0.125	0.096
-561.529	-49.417	0.120	0.057
-560.515	229.642	-0.136	-0.223
-559.500	-77.152	0.328	0.114
-558.485	-200.000	-0.031	0.153
-557.471	-200.000	0.036	0.574
-556.456	-40.505	0.199	0.103
-555.442	800.000	0.044	-0.123
-554.427	25.066	0.063	-0.052
-553.412	800.000	0.005	0.015
-552.398	-199.814	-0.163	0.001
-551.383	44.685	-0.285	0.262
-550.369	340.264	0.046	0.090
-549.354	-200.000	-0.030	0.160
-548.339	34.530	-0.145	0.127
-547.325	-200.000	0.022	-0.374
-546.310	-79.758	-0.356	-0.120
-545.296	-69.712	-0.057	-0.022
-544.281	-116.168	-0.409	-0.076
-543.266	416.593	-0.136	-0.289
-542.252	-23.851	0.157	-0.094
-541.237	-27.431	-0.233	0.135
-540.223	370.793	0.105	-0.213
-539.208	-200.000	-0.049	-0.330
-538.193	800.000	-0.022	-0.070
-537.179	-71.461	0.300	0.112
-536.164	168.283	-0.122	-0.174
-535.150	110.161	0.288	-0.345
-534.135	95.735	-0.232	0.265
-533.121	225.901	0.134	-0.216
-532.106	-17.335	0.347	0.218
-531.091	320.015	0.063	-0.119
-530.077	-166.287	0.129	0.005
-529.062	206.918	0.149	0.232
-528.048	462.597	0.007	0.016
-527.033	-200.000	0.033	-0.224
-526.018	73.834	-0.183	0.192
-525.004	-53.419	0.268	-0.122
-523.989	-200.000	-0.067	-0.321
-522.975	77.350	0.064	-0.067
-521.960	-200.000	-0.029	-0.146
-520.945	-50.756	-0.031	-0.014
-519.931	-117.717	0.143	0.026
-518.916	629.386	0.091	0.229
-517.902	-11.106	0.194	0.128
-516.887	-66.243	0.339	-0.135
-515.872	-106.802	-0.098	0.022
-514.858	-200.000	-0.015	-0.573
-513.843	-28.451	0.487	-0.280
-512.829	416.133	-0.090	0.191
-511.814	-38.850	-0.338	0.178
-510.799	6.040	0.022	0.016
-509.785	-141.624	-0.197	0.020
-508.770	-28.187	0.419	-0.241
-507.756	720.407	-0.104	-0.277
-506.741	116.755	0.048	-0.059
-505.726	599.553	0.027	-0.066
-504.712	800.000	0.044	-0.133
-503.697	-5.892	0.194	-0.133
-502.683	-103.522	0.081	-0.019
-501.668	-200.000	0.047	0.277
-500.653	478.070	0.055	-0.124
-499.639	63.653	0.053	0.053
-498.624	-200.000	-0.000	0.164
-497.610	598.783	-0.038	0.093
-496.595	37.885	-0.167	0.148
-495.581	-54.451	0.088	0.040
-494.566	-200.000	-0.223	0.001
-493.551	84.587	0.092	0.100
-492.537	800.000	0.062	-0.214
-491.522	-98.557	0.163	0.042
-490.508	695.768	0.082	0.214
-489.493	-63.836	0.268	0.109
-488.478	-113.830	-0.287	-0.056
-487.464	34.637	0.189	0.164
-486.449	-200.000	-0.049	-0.343
-485.435	-200.000	0.024	0.148
-484.420	800.000	0.057	0.174
-483.405	-200.000	-0.005	-0.129
-482.391	427.099	0.108	-0.232
-481.376	-200.000	0.005	-0.183
-480.362	-67.003	0.199	0.078
-479.347	-89.211	-0.341	-0.100
-478.332	-116.548	-0.229	-0.042
-477.318	-109.541	-0.133	-0.028
-476.303	-60.223	0.237	0.101
-475.289	-128.063	-0.181	-0.026
-474.274	-32.063	-0.123	0.069
-473.259	-84.705	0.409	0.128
-472.245	800.000	-0.091	0.253
-471.230	-200.000	-0.047	-0.430
-470.216	352.742	-0.172	0.339
-469.201	554.138	-0.030	0.071
-468.186	-49.152	-0.282	-0.134
-467.172	298.944	0.104	0.191
-466.157	-22.102	0.236	0.143
-465.143	800.000	-0.129	0.367
-464.128	-32.911	-0.177	0.098
-463.113	800.000	-0.033	-0.095
-462.099	-171.867	0.250	0.008
-461.084	-62.473	0.133	0.055
-460.070	11.831	0.255	-0.195
-459.055	800.000	-0.146	-0.467
-458.040	-64.150	0.106	-0.043
-457.026	-200.000	-0.035	-0.183
-456.011	223.755	-0.109	-0.176
-454.997	-134.730	0.332	0.040
-453.982	375.688	-0.119	-0.242
-452.968	800.000	-0.062	0.218
-451.953	-54.369	0.213	0.096
-450.938	800.000	0.072	0.228
-449.924	-200.000	0.014	-0.146
-448.909	800.000	-0.061	0.188
-447.895	-146.647	0.148	-0.013
-446.880	-43.443	-0.402	-0.202
-445.865	-200.000	-0.044	-0.484
-444.851	-111.000	0.177	0.036
-443.836	-144.334	0.140	-0.013
-442.822	473.493	0.025	-0.056
-441.807	-86.972	-0.115	0.035
-440.792	42.539	0.067	-0.060
-439.778	-200.000	0.040	0.395
-438.763	257.313	-0.195	-0.333
-437.749	-200.000	-0.002	-0.312
-436.734	392.520	-0.080	-0.165
-435.719	56.720	-0.074	0.072
-434.705	34.955	0.225	0.196
-433.690	-5.977	-0.167	0.113
-432.676	221.855	0.121	-0.193
-431.661	-200.000	-0.004	0.153
-430.646	218.743	0.191	-0.304
-429.632	-56.256	-0.320	-0.141
-428.617	2.539	-0.181	-0.130
-427.603	-131.541	-0.397	-0.052
-426.588	-35.400	0.195	-0.106
-425.573	542.849	-0.009	0.021
-424.559	103.660	0.158	0.184
-423.544	-85.492	0.211	-0.065
-422.530	-200.000	0.004	-0.233
-421.515	-16.249	0.174	-0.109
-420.500	29.001	-0.228	0.192
-419.486	800.000	-0.128	0.430
-418.471	348.054	0.135	0.264
-417.457	-82.743	-0.121	0.039
-416.442	244.862	-0.116	-0.194
-415.428	-37.561	-0.134	0.071
-414.413	82.486	0.201	-0.217
-413.398	66.755	-0.190	0.192
-412.384	-200.000	0.051	-0.333
-411.369	-64.291	-0.223	0.090
-410.355	-65.299	-0.141	-0.056
-409.340	800.000	0.009	-0.030
-408.325	23.284	0.303	-0.248
-407.311	800.000	-0.035	-0.131
-406.296	-70.184	-0.498	0.188
-405.282	46.407	-0.150	0.138
-404.267	2.681	0.361	-0.260
-403.252	-42.158	0.259	0.131
-402.238	800.000	0.088	0.295
-401.223	-37.494	-0.157	0.083
-400.209	116.533	-0.208	-0.253
-399.194	64.497	0.283	0.284
-398.179	-111.181	0.084	-0.017
-397.165	-200.000	0.003	-0.185
-396.150	-159.402	0.189	0.010
-395.136	-27.336	-0.184	-0.106
-394.121	-160.039	0.673	-0.036
-393.106	-18.385	-0.139	-0.086
-392.092	-200.000	0.024	0.137
-391.077	-11.157	-0.277	-0.181
-390.063	-200.000	-0.026	-0.147
-389.048	-119.514	0.356	0.061
-388.033	46.769	-0.067	-0.062
-387.019	227.662	0.079	-0.128
-386.004	-147.525	0.210	-0.018
-384.990	-200.000	0.017	0.204
-383.975	-98.154	0.259	-0.066
-382.960	-88.951	-0.223	-0.065
-381.946	162.230	0.064	0.088
-380.931	-200.000	0.017	0.128
-379.917	-94.947	-0.228	-0.061
-378.902	16.496	-0.166	-0.130
-377.888	800.000	0.059	0.212
-376.873	-200.000	-0.015	-0.255
-375.858	71.672	0.166	-0.171
-374.844	261.341	-0.028	0.048
-373.829	-200.000	-0.022	0.132
-372.815	135.644	0.254	0.328
-371.800	-22.991	0.081	0.048
-370.785	-16.374	-0.309	0.195
-369.771	9.078	0.145	0.109
-368.756	800.000	-0.033	0.123
-367.742	-200.000	-0.020	0.146
-366.727	-200.000	-0.009	-0.134
-365.712	-12.095	0.391	-0.254
-364.698	-164.458	0.170	0.008
-363.683	-200.000	-0.031	0.255
-362.669	-98.202	0.163	-0.042
-361.654	-149.161	0.184	0.015
-360.639	-200.000	-0.008	-0.201
-359.625	800.000	-0.069	-0.217
-358.610	-144.279	-0.160	0.015
-357.596	116.899	0.119	-0.145
-356.581	-200.000	0.025	-0.128
-355.566	457.039	0.088	-0.193
-354.552	93.371	0.061	0.068
-353.537	800.000	0.081	-0.350
-352.523	27.047	0.222	0.184
-351.508	-16.488	-0.217	0.137
-350.493	64.509	-0.226	0.226
-349.479	-200.000	-0.028	0.139
-348.464	-61.154	0.247	-0.103
-347.450	-171.742	0.308	0.010
-346.435	27.003	-0.207	-0.172
-345.420	800.000	-0.028	0.083
-344.406	-200.000	-0.047	0.223
-343.391	-20.238	-0.265	-0.162
-342.377	-200.000	0.012	-0.057
-341.362	-12.677	-0.201	-0.130
-340.348	140.237	0.152	0.199
-339.333	111.994	0.141	0.169
-338.318	139.901	0.150	-0.196
-337.304	-12.803	-0.075	0.049
-336.289	-156.471	-0.183	-0.011
-335.275	-110.659	0.070	-0.014
-334.260	-78.053	0.268	0.091
-333.245	-77.609	-0.364	0.125
-332.231	-100.047	-0.213	-0.053
-331.216	-38.878	-0.083	-0.043
-330.202	421.026	0.027	-0.057
-329.187	-200.000	-0.010	0.047
-328.172	233.126	0.070	-0.115
-327.158	-200.000	-0.019	0.196
-326.143	220.044	0.031	0.049
-325.129	-60.260	0.125	0.053
-324.114	16.353	0.165	0.129
-323.099	48.065	-0.151	-0.140
-322.085	155.906	-0.099	-0.135
-321.070	-133.475	0.252	-0.031
-320.056	-18.028	0.173	-0.107
-319.041	-105.108	0.446	-0.101
-318.026	741.337	-0.082	0.217
-317.012	-37.290	-0.265	0.140
-315.997	84.690	-0.132	-0.143
-314.983	152.724	0.139	0.188
-313.968	-200.000	-0.020	-0.229
-312.953	60.486	-0.256	-0.251
-311.939	-55.818	0.228	-0.101
-310.924	-200.000	-0.121	0.000
-309.910	-45.602	-0.091	-0.044
-308.895	-98.666	-0.301	-0.076
-307.880	-15.651	0.215	0.136
-306.866	-117.895	0.092	0.016
-305.851	172.958	-0.063	-0.090
-304.837	-146.865	-0.131	0.011
-303.822	147.931	-0.089	0.119
-302.807	362.563	-0.049	0.098
-301.793	-200.000	0.003	-0.204
-300.778	759.564	0.034	-0.092
-299.764	2.549	0.179	0.128
-298.749	70.982	0.007	-0.007
-297.735	-18.349	-0.205	0.127
-296.720	217.301	-0.118	-0.186
-295.705	-200.000	0.007	0.105
-294.691	108.234	-0.087	0.102
-293.676	195.146	0.018	-0.027
-292.662	-196.158	0.527	-0.004
-291.647	-200.000	-0.043	0.559
-290.632	21.879	-0.230	0.185
-289.618	800.000	-0.037	0.153
-288.603	110.234	0.131	-0.155
-287.589	800.000	-0.058	0.242
-286.574	102.737	0.173	0.200
-285.559	-107.598	-0.202	0.044
-284.545	800.000	-0.030	-0.121
-283.530	399.510	0.136	0.282
-282.516	164.185	-0.195	0.271
-281.501	-200.000	0.029	0.261
-280.486	565.963	0.086	0.207
-279.472	48.836	0.234	0.217
-278.457	800.000	0.069	0.261
-277.443	-200.000	0.007	0.084
-276.428	157.758	0.079	0.109
-275.413	89.495	0.080	0.088
-274.399	127.069	-0.116	0.145
-273.384	-143.587	-0.126	-0.012
-272.370	-105.988	-0.082	-0.018
-271.355	-98.363	0.103	-0.026
-270.340	-195.357	-0.474	-0.003
-269.326	-106.057	-0.299	-0.066
-268.311	-200.000	0.037	-0.309
-267.297	-200.000	0.010	0.044
-266.282	-159.141	0.273	-0.015
-265.267	-82.996	-0.340	0.108
-264.253	-119.409	0.323	0.055
-263.238	793.168	-0.053	0.144
-262.224	-61.414	0.182	-0.076
-261.209	800.000	-0.045	-0.148
-260.195	-147.984	-0.073	0.006
-259.180	85.476	-0.268	-0.290
-258.165	-39.952	0.101	-0.052
-257.151	-81.783	0.224	-0.073
-256.136	25.144	0.209	-0.171
-255.122	-200.000	0.205	-0.000
-254.107	-107.297	-0.271	0.059
-253.092	107.285	-0.209	-0.245
-252.078	-200.000	-0.051	0.229
-251.063	102.775	-0.125	0.144
-250.049	40.232	-0.165	-0.147
-249.034	100.868	-0.093	0.107
-248.019	-200.000	-0.004	-0.019
-247.005	18.164	0.093	-0.073
-245.990	-200.000	-0.052	-0.241
-244.976	-200.000	-0.027	-0.305
-243.961	-88.910	-0.159	-0.046
-242.946	62.193	-0.103	-0.101
-241.932	587.868	-0.131	0.317
-240.917	-12.767	0.275	0.177
-239.903	135.296	-0.106	-0.136
-238.888	-88.065	0.272	0.081
-237.873	-200.000	-0.018	0.298
-236.859	187.396	0.092	0.135
-235.844	-77.309	0.144	-0.049
-234.830	-114.827	0.094	0.018
-233.815	405.458	-0.039	0.081
-232.800	-200.000	-0.001	0.082
-231.786	219.549	0.176	0.278
-230.771	-131.127	-0.234	-0.031
-229.757	-190.824	-0.078	-0.001
-228.742	800.000	0.087	0.336
-227.727	-200.000	-0.039	0.201
-226.713	800.000	0.097	0.351
-225.698	-200.000	-0.016	0.167
-224.684	800.000	0.026	0.090
-223.669	800.000	0.136	0.384
-222.655	-200.000	0.032	0.164
-221.640	-142.374	0.092	-0.009
-220.625	-100.674	0.112	0.027
-219.611	-200.000	-0.048	0.348
-218.596	-86.283	-0.211	0.064
-217.582	-200.000	-0.026	0.363
-216.567	-109.586	0.467	-0.097
-215.552	-68.776	0.343	-0.131
-214.538	-200.000	0.035	0.239
-213.523	49.167	0.032	0.029
-212.509	-128.110	0.522	-0.074
-211.494	201.791	-0.283	-0.430
-210.479	-79.030	-0.131	-0.044
-209.465	-116.164	0.075	-0.014
-208.450	-40.198	-0.238	0.122
-207.436	381.664	0.088	-0.178
-206.421	-31.605	0.239	0.132
-205.406	-6.717	-0.244	0.164
-204.392	-200.000	0.009	-0.339
-203.377	-200.000	-0.003	0.320
-202.363	-59.174	-0.217	-0.092
-201.348	147.148	0.109	0.145
-200.333	-115.894	-0.253	-0.047
-199.319	133.599	0.301	-0.384
-198.304	-108.578	-0.151	0.032
-197.290	-22.958	-0.153	-0.091
-196.275	800.000	0.027	0.103
-195.260	-23.300	-0.271	0.160
-194.246	800.000	0.116	-0.330
-193.231	-70.827	-0.101	0.038
-192.217	-200.000	0.062	-0.387
-191.202	800.000	0.056	-0.173
-190.187	-150.956	-0.097	0.007
-189.173	704.104	-0.032	-0.083
-188.158	303.786	0.122	0.223
-187.144	-68.005	0.347	0.133
-186.129	-109.178	-0.369	0.077
-185.114	-177.710	0.159	0.004
-184.100	800.000	0.032	-0.093
-183.085	108.534	-0.123	0.145
-182.071	-50.552	0.111	-0.051
-181.056	24.790	-0.152	-0.124
-180.042	-200.000	-0.028	-0.248
-179.027	-27.376	-0.276	-0.158
-178.012	800.000	-0.048	0.133
-176.998	-35.307	0.216	0.116
-175.983	153.147	-0.063	-0.085
-174.969	114.713	-0.125	-0.150
-173.954	-200.000	0.039	-0.174
-172.939	800.000	-0.059	0.220
-171.925	66.944	-0.129	0.129
-170.910	-162.653	-0.312	0.015
-169.896	-25.796	0.237	0.137
-168.881	17.584	0.242	-0.189
-167.866	149.297	0.186	0.248
-166.852	161.113	0.136	-0.187
-165.837	120.188	0.151	0.184
-164.823	60.949	0.153	0.149
-163.808	44.992	-0.211	0.191
-162.793	-200.000	-0.276	0.001
-161.779	-67.500	0.062	-0.024
-160.764	-138.388	-0.332	-0.036
-159.750	800.000	-0.053	0.173
-158.735	796.262	0.065	0.177
-157.720	-125.215	-0.216	-0.032
-156.706	-99.702	-0.477	-0.118
-155.691	-18.822	0.100	0.061
-154.677	-142.911	0.215	-0.021
-153.662	-120.013	0.111	-0.019
-152.647	191.130	-0.130	0.192
-151.633	-186.723	0.138	0.002
-150.618	185.854	0.084	-0.123
-149.604	-81.978	0.228	0.073
-148.589	-111.127	-0.055	-0.011
-147.574	70.530	0.118	-0.120
-146.560	-200.000	-0.022	-0.132
-145.545	11.710	0.138	0.104
-144.531	117.520	-0.088	0.107
-143.516	-34.834	0.283	-0.152
-142.502	-200.000	-0.000	-0.213
-141.487	800.000	0.092	-0.314
-140.472	-71.392	-0.215	-0.079
-139.458	-200.000	0.048	-0.257
-138.443	391.824	-0.111	0.227
-137.429	-119.643	0.439	-0.075
-136.414	-200.000	-0.009	0.070
-135.399	-200.000	0.021	-0.394
-134.385	139.234	0.102	-0.132
-133.370	-200.000	0.027	0.123
-132.356	452.467	0.128	-0.278
-131.341	536.957	0.041	0.097
-130.326	-34.313	0.378	0.204
-129.312	284.379	0.170	-0.301
-128.297	-107.707	-0.195	0.042
-127.283	17.661	-0.207	-0.162
-126.268	-200.000	0.055	0.000
-125.253	-120.629	0.196	-0.033
-124.239	57.419	0.307	-0.295
-123.224	125.830	-0.233	-0.289
-122.210	377.214	0.045	-0.091
-121.195	60.997	0.251	0.245
-120.180	205.055	0.181	-0.276
-119.166	-102.419	0.216	-0.051
-118.151	187.937	-0.109	-0.160
-117.137	-84.324	-0.340	0.106
-116.122	432.611	0.084	0.178
-115.107	13.084	0.183	-0.139
-114.093	-200.000	-0.023	0.203
-113.078	30.830	0.155	0.130
-112.064	272.841	0.051	0.088
-111.049	-88.185	0.208	-0.061
-110.034	157.065	0.184	0.250
-109.020	75.086	0.245	0.254
-108.005	-81.215	0.096	-0.031
-106.991	-200.000	0.023	-0.175
-105.976	-70.846	0.232	0.086
-104.962	-73.057	0.237	-0.085
-103.947	220.145	0.158	-0.248
-102.932	308.670	0.181	-0.332
-101.918	-40.045	-0.136	-0.070
-100.903	800.000	0.069	-0.216
-99.889	78.789	-0.197	-0.206
-98.874	-162.047	0.342	0.017
-97.859	262.191	-0.192	0.326
-96.845	599.846	-0.055	-0.135
-95.830	-49.610	-0.161	-0.075
-94.816	-101.452	0.175	0.042
-93.801	12.176	-0.096	0.072
-92.786	-200.000	-0.007	0.100
-91.772	495.388	0.120	0.270
-90.757	-21.192	0.338	-0.203
-89.743	-80.701	-0.158	0.052
-88.728	21.096	0.298	0.237
-87.713	271.701	-0.163	-0.281
-86.699	-30.401	-0.149	-0.083
-85.684	112.833	-0.107	0.127
-84.670	-80.813	0.436	0.142
-83.655	800.000	-0.049	0.161
-82.640	41.848	-0.160	-0.142
-81.626	33.239	-0.139	0.118
-80.611	415.753	-0.038	0.078
-79.597	-200.000	-0.022	0.161
-78.582	-88.633	0.203	-0.059
-77.567	769.557	0.056	0.150
-76.553	-81.121	-0.233	0.076
-75.538	-200.000	0.007	-0.165
-74.524	800.000	0.101	-0.289
-73.509	-9.463	0.174	-0.114
-72.494	-46.401	0.090	-0.043
-71.480	-55.950	0.014	0.006
-70.465	-54.543	-0.154	0.068
-69.451	12.632	0.251	0.190
-68.436	159.593	0.312	0.425
-67.422	-87.438	0.274	-0.081
-66.407	-7.654	-0.281	-0.186
-65.392	800.000	0.069	0.291
-64.378	122.306	0.158	0.194
-63.363	39.155	-0.077	-0.068
-62.349	800.000	0.108	-0.427
-61.334	89.123	-1.005	-1.096
-60.319	-27.274	0.407	0.232
-59.305	-200.000	-0.209	-1.298
-58.290	166.030	0.876	1.215
-57.276	475.749	0.623	1.379
-56.261	-200.000	106.863	625.936
-55.246	522.815	1514.403	3484.135
-54.232	176.073	2704.718	3845.707
-53.217	110.764	2183.723	2572.919
-52.203	39.992	1705.673	1500.517
-51.188	32.346	1518.484	1283.851
-50.173	29.972	1492.245	1245.671
-49.159	50.927	1548.991	1437.356
-48.144	51.168	1565.121	1453.920
-47.130	32.442	1520.728	1286.203
-46.115	29.508	1505.552	1253.424
-45.100	29.260	1502.676	1249.305
-44.086	29.251	1500.088	1247.042
-43.071	29.220	1498.224	1245.232
-42.057	29.280	1496.089	1243.812
-41.042	29.253	1495.078	1242.744
-40.027	29.112	1493.904	1240.767
-39.013	29.130	1492.186	1239.413
-37.998	29.177	1490.710	1238.452
-36.984	29.116	1489.723	1237.174
-35.969	29.080	1488.401	1235.786
-34.954	29.195	1486.965	1235.315
-33.940	29.103	1485.696	1233.593
-32.925	29.240	1484.049	1233.096
-31.911	29.194	1483.098	1231.949
-30.896	29.251	1481.410	1230.874
-29.881	29.197	1480.489	1229.705
-28.867	29.281	1479.018	1228.995
-27.852	29.149	1478.360	1227.516
-26.838	29.316	1476.492	1227.026
-25.823	29.333	1474.610	1225.529
-24.809	29.272	1473.313	1224.000
-23.794	29.286	1471.691	1222.692
-22.779	29.252	1470.712	1221.609
-21.765	29.276	1469.711	1220.889
-20.750	29.246	1469.051	1220.094
-19.736	29.179	1467.455	1218.273
-18.721	29.284	1466.180	1217.858
-17.706	29.154	1465.176	1216.119
-16.692	29.148	1464.243	1215.256
-15.677	29.149	1463.038	1214.213
-14.663	29.201	1461.868	1213.542
-13.648	29.183	1461.500	1213.065
-12.633	29.137	1460.525	1211.906
-11.619	29.061	1459.711	1210.686
-10.604	29.209	1458.446	1210.557
-9.590	29.217	1457.650	1209.900
-8.575	29.208	1456.716	1209.021
-7.560	29.132	1456.007	1207.885
-6.546	29.164	1455.209	1207.388
-5.531	29.079	1454.724	1206.375
-4.517	29.134	1453.566	1205.733
-3.502	29.205	1452.178	1204.998
-2.487	29.187	1451.179	1204.000
-1.473	29.185	1450.409	1203.301
-0.458	29.185	1449.155	1202.212
0.556	26.886	1440.045	1191.234
1.571	24.156	1414.135	1152.070
2.586	20.797	1355.518	1083.358
3.600	19.364	1274.044	1009.765
4.615	18.338	1229.488	968.564
5.629	15.931	1173.647	911.483
6.644	7.778	1089.900	805.237
7.659	0.789	1050.608	741.937
8.673	-0.132	1045.207	733.564
9.688	-0.346	1041.761	730.038
10.702	-0.434	1040.120	728.395
11.717	-0.338	1037.827	727.188
12.731	2.724	1040.427	743.813
13.746	11.511	1053.521	796.103
14.761	18.408	1062.700	836.772
15.775	20.249	1064.096	846.792
16.790	20.544	1063.632	847.787
17.804	20.255	1062.809	845.648
18.819	20.143	1062.037	844.414
19.834	20.265	1061.463	844.475
20.848	20.368	1060.758	844.341
21.863	20.360	1060.609	844.111
22.877	20.338	1060.250	843.646
23.892	20.337	1059.442	842.923
24.907	20.164	1058.692	841.412
25.921	20.238	1058.467	841.515
26.936	20.324	1057.113	840.779
27.950	20.359	1056.035	840.021
28.965	20.146	1055.374	838.391
29.980	20.213	1053.373	837.047
30.994	20.056	1051.947	835.083
32.009	20.309	1050.731	835.263
33.023	20.397	1050.507	835.435
34.038	20.201	1048.958	833.188
35.053	20.163	1048.775	832.788
36.067	20.355	1047.769	832.836
37.082	20.345	1046.968	832.076
38.096	20.502	1046.032	832.008
39.111	20.545	1045.486	831.707
40.126	20.700	1044.805	831.833
41.140	20.588	1043.301	830.026
42.155	20.397	1041.482	827.596
43.169	20.010	1040.658	825.027
44.184	19.910	1039.787	823.787
45.199	20.152	1038.385	823.754
46.213	20.172	1037.237	822.863
47.228	20.076	1036.177	821.497
48.242	20.043	1035.734	820.917
49.257	20.188	1034.609	820.638
50.271	20.206	1033.976	820.149
51.286	20.461	1032.838	820.380
52.301	20.452	1032.137	819.705
53.315	20.469	1031.137	818.918
54.330	20.397	1030.753	818.201
55.344	20.228	1029.925	816.679
56.359	20.436	1028.658	816.578
57.374	20.360	1027.954	815.592
58.388	20.281	1026.404	813.918
59.403	20.156	1026.138	813.049
60.417	20.250	1025.539	812.944
61.432	20.155	1024.401	811.522
62.447	20.052	1023.998	810.651
63.461	20.198	1023.406	810.795
64.476	20.258	1022.432	810.228
65.490	20.176	1021.585	809.104
66.505	20.150	1020.528	808.075
67.520	20.239	1019.423	807.543
68.534	20.176	1018.841	806.719
69.549	20.056	1017.930	805.365
70.563	19.806	1016.349	802.883
71.578	19.714	1016.078	802.173
72.593	19.830	1015.088	801.856
73.607	19.601	1014.220	800.038
74.622	19.653	1013.093	799.323
75.636	19.939	1012.189	799.858
76.651	20.180	1010.998	799.959
77.666	20.003	1010.552	798.717
78.680	19.872	1009.763	797.422
79.695	19.910	1009.283	797.145
80.709	20.033	1008.568	797.076
81.724	20.043	1008.173	796.738
82.739	19.993	1006.767	795.331
83.753	20.069	1006.180	795.143
84.768	20.315	1005.226	795.448
85.782	20.489	1004.857	795.883
86.797	20.778	1003.927	796.398
87.812	20.658	1002.975	795.023
88.826	20.476	1002.246	793.545
89.841	20.562	1001.242	793.072
90.855	20.701	1000.253	792.850
91.870	20.689	999.250	791.928
92.884	20.558	998.747	790.865
93.899	20.540	997.560	789.776
94.914	20.459	997.110	788.979
95.928	20.520	996.348	788.585
96.943	20.563	994.925	787.581
97.957	20.248	994.775	785.967
98.972	20.154	993.138	784.181
99.987	19.905	991.837	781.957
101.001	19.990	991.569	782.064
102.016	20.231	991.183	782.774
103.030	20.374	989.937	782.367
104.045	20.264	988.956	781.026
105.060	20.141	987.220	779.035
106.074	19.917	986.599	777.467
107.089	20.035	985.577	777.124
108.103	20.436	985.491	778.786
109.118	20.520	984.390	778.223
110.133	20.291	983.179	776.173
111.147	20.243	982.159	775.085
112.162	19.894	981.486	772.928
113.176	19.798	980.004	771.263
114.191	19.924	979.365	771.254
115.206	20.081	977.863	770.699
116.220	19.837	976.393	768.392
117.235	19.790	975.393	767.327
118.249	19.675	975.234	766.624
119.264	19.814	974.231	766.382
120.279	19.764	973.715	765.688
121.293	19.855	972.084	764.740
122.308	19.986	971.359	764.683
123.322	19.869	970.993	763.808
124.337	19.881	969.813	762.864
125.352	19.797	968.530	761.419
126.366	19.500	966.563	758.499
127.381	19.167	965.284	755.966
128.395	19.542	965.228	757.505
129.410	20.109	964.857	759.633
130.424	20.441	963.586	760.013
131.439	20.281	962.613	758.481
132.454	20.179	961.492	757.088
133.468	20.426	960.469	757.292
134.483	20.148	960.052	755.684
135.497	20.361	958.951	755.678
136.512	20.441	958.574	755.663
137.527	20.555	957.495	755.238
138.541	20.558	956.659	754.524
139.556	20.692	955.831	754.387
140.570	20.556	955.408	753.397
141.585	20.612	954.147	752.580
142.600	20.451	953.870	751.597
143.614	20.300	952.869	750.087
144.629	20.539	951.746	750.172
145.643	20.779	951.026	750.570
146.658	20.640	949.812	748.947
147.673	20.576	949.002	747.970
148.687	20.428	947.814	746.328
149.702	20.357	947.175	745.457
150.716	20.295	946.062	744.247
151.731	20.353	944.632	743.306
152.746	20.267	944.770	742.978
153.760	20.615	943.905	743.724
154.775	20.688	942.793	743.094
155.789	20.675	942.216	742.518
156.804	20.639	941.151	741.460
157.819	20.728	939.996	740.859
158.833	20.697	939.423	740.213
159.848	20.714	938.629	739.594
160.862	20.774	937.560	738.941
161.877	20.648	936.841	737.773
162.892	20.657	936.055	737.130
163.906	20.875	935.390	737.461
164.921	20.805	934.387	736.311
165.935	20.557	933.454	734.462
166.950	20.738	932.136	734.124
167.964	20.751	931.348	733.491
168.979	20.554	930.752	732.127
169.994	20.569	928.915	730.683
171.008	20.606	928.335	730.317
172.023	20.565	927.936	729.768
173.037	20.695	926.991	729.504
174.052	20.549	925.751	727.851
175.067	20.410	924.228	726.007
176.081	20.374	923.796	725.456
177.096	20.449	923.399	725.391
178.110	20.525	922.203	724.707
179.125	20.237	921.259	722.699
180.140	20.064	919.741	720.726
181.154	20.220	919.258	720.932
182.169	20.126	918.894	720.191
183.183	20.309	918.699	720.734
184.198	20.641	918.165	721.629
185.213	20.529	917.733	720.762
186.227	20.592	916.642	720.104
187.242	20.626	916.504	720.069
188.256	20.732	915.649	719.775
189.271	20.818	914.624	719.258
190.286	20.715	914.058	718.324
191.300	20.693	912.991	717.333
192.315	20.242	911.668	714.372
193.329	19.482	910.803	710.506
194.344	19.251	909.132	708.190
195.359	19.713	909.943	710.659
196.373	20.521	909.802	713.805
197.388	20.569	909.466	713.674
198.402	20.459	908.522	712.421
199.417	20.411	907.958	711.717
200.432	20.630	907.551	712.231
201.446	20.410	906.650	710.565
202.461	20.072	905.935	708.560
203.475	20.143	905.599	708.523
204.490	19.820	903.803	705.736
205.504	18.643	902.051	699.510
206.519	19.139	901.729	701.220
207.534	20.102	902.238	705.477
208.548	20.042	901.834	704.853
209.563	20.483	901.410	706.254
210.577	20.590	900.626	706.011
211.592	20.242	900.032	704.071
212.607	20.760	899.738	705.881
213.621	20.757	899.235	705.411
214.636	20.732	898.523	704.686
215.650	20.687	898.213	704.201
216.665	20.749	897.077	703.497
217.680	20.741	896.907	703.271
218.694	20.879	895.880	702.958
219.709	20.369	895.075	700.209
220.723	20.083	894.321	698.406
221.738	20.222	893.840	698.528
222.753	20.409	893.100	698.639
223.767	20.366	892.502	697.936
224.782	20.591	891.414	697.926
225.796	20.771	891.265	698.472
226.811	20.864	890.541	698.215
227.826	20.326	889.725	695.358
228.840	19.642	887.595	690.896
229.855	19.702	887.143	690.723
230.869	19.922	886.899	691.354
231.884	19.564	885.795	689.003
232.899	19.786	885.140	689.315
233.913	20.267	885.646	691.566
234.928	20.560	884.921	692.108
235.942	20.420	884.459	691.128
236.957	20.451	883.705	690.602
237.972	20.267	882.850	689.139
238.986	20.196	881.735	687.928
240.001	20.300	880.954	687.669
241.015	20.335	880.721	687.563
242.030	20.444	880.060	687.421
243.045	20.518	879.418	687.149
244.059	20.532	878.961	686.787
245.074	20.596	878.944	686.968
246.088	20.706	877.610	686.296
247.103	20.193	876.927	683.680
248.117	20.249	876.192	683.267
249.132	20.889	875.763	685.392
250.147	21.119	876.114	686.508
251.161	21.239	875.203	686.208
252.176	21.344	874.652	686.125
253.190	21.297	873.863	685.261
254.205	21.319	873.650	685.120
255.220	21.503	873.042	685.303
256.234	21.530	872.522	684.939
257.249	21.447	871.500	683.754
258.263	21.298	870.932	682.664
259.278	21.352	870.236	682.270
260.293	21.376	869.902	682.041
261.307	21.554	869.427	682.302
262.322	21.365	868.520	680.796
263.336	21.232	867.811	679.662
264.351	20.722	866.635	676.696
265.366	19.530	864.660	670.471
266.380	19.070	863.704	667.885
267.395	20.080	864.109	672.057
268.409	20.980	863.704	675.169
269.424	20.941	863.159	674.531
270.439	21.176	862.515	674.877
271.453	21.291	861.827	674.722
272.468	21.289	861.120	674.104
273.482	21.514	860.943	674.774
274.497	21.510	860.974	674.723
275.512	21.324	859.494	672.787
276.526	20.633	858.447	669.250
277.541	20.872	858.067	669.815
278.555	21.262	857.821	671.061
279.570	21.073	856.807	669.484
280.585	20.831	856.251	668.061
281.599	21.051	855.577	668.317
282.614	21.248	855.086	668.631
283.628	20.747	854.016	665.818
284.643	20.390	853.358	663.881
285.657	20.873	852.847	665.272
286.672	20.677	852.404	664.118
287.687	20.159	851.163	661.119
288.701	20.514	851.402	662.597
289.716	20.842	851.170	663.608
290.730	20.585	850.246	661.852
291.745	20.440	849.336	660.533
292.760	20.294	848.145	658.995
293.774	20.241	847.660	658.359
294.789	21.038	848.326	661.845
295.803	21.601	848.336	663.928
296.818	21.716	847.364	663.546
297.833	21.801	847.109	663.606
298.847	21.495	846.463	661.884
299.862	21.328	844.819	659.912
300.876	21.451	844.638	660.174
301.891	21.774	844.061	660.885
302.906	21.736	843.618	660.336
303.920	21.295	842.185	657.498
304.935	21.256	841.826	657.011
305.949	21.445	841.343	657.286
306.964	21.827	841.178	658.535
307.979	21.548	840.130	656.610
308.993	21.396	839.876	655.781
310.008	21.895	839.581	657.364
311.022	21.795	839.371	656.768
312.037	21.637	838.696	655.590
313.052	21.361	838.107	654.037
314.066	21.349	837.037	653.099
315.081	20.725	835.918	649.839
316.095	20.359	834.261	647.132
317.110	20.599	835.021	648.558
318.125	21.464	834.868	651.604
319.139	21.043	833.862	649.197
320.154	19.929	832.308	643.789
321.168	19.521	831.539	641.621
322.183	20.138	831.564	643.874
323.197	20.938	832.056	647.171
324.212	21.326	831.479	648.105
325.227	21.569	831.012	648.585
326.241	21.680	830.478	648.520
327.256	21.564	829.775	647.486
328.270	21.324	829.111	646.024
329.285	21.437	828.361	645.800
330.300	21.172	827.801	644.327
331.314	20.900	827.445	642.990
332.329	21.059	826.336	642.657
333.343	21.516	825.955	643.986
334.358	21.588	825.854	644.116
335.373	21.798	825.028	644.184
336.387	21.822	824.517	643.817
337.402	21.962	824.230	644.049
338.416	21.994	823.912	643.860
339.431	21.807	823.399	642.719
340.446	21.973	822.685	642.713
341.460	22.352	822.424	643.838
342.475	22.282	821.674	642.937
343.489	21.864	820.907	640.754
344.504	21.945	820.187	640.430
345.519	22.247	820.113	641.419
346.533	22.419	819.479	641.491
347.548	22.430	819.426	641.433
348.562	22.442	819.147	641.203
349.577	22.593	818.251	640.994
350.592	22.288	818.318	639.880
351.606	22.255	817.588	639.132
352.621	22.444	816.915	639.237
353.635	22.376	816.381	638.514
354.650	22.246	815.890	637.604
355.665	21.805	815.053	635.294
356.679	20.809	813.144	630.150
357.694	20.615	812.801	629.127
358.708	21.385	812.595	631.694
359.723	21.425	811.843	631.198
360.738	21.580	811.643	631.546
361.752	21.947	811.844	632.970
362.767	21.922	811.391	632.471
363.781	22.210	811.343	633.417
364.796	22.514	811.248	634.381
365.810	22.754	810.326	634.465
366.825	22.571	810.278	633.715
367.840	22.639	810.107	633.769
368.854	22.518	809.376	632.707
369.869	22.309	807.869	630.724
370.883	21.978	807.732	629.373
371.898	22.077	807.131	629.206
372.913	21.963	806.537	628.279
373.927	22.046	805.986	628.088
374.942	22.165	804.899	627.614
375.956	22.252	804.825	627.811
376.971	22.436	804.222	627.941
377.986	22.468	803.757	627.636
379.000	22.709	803.440	628.190
380.015	22.775	802.798	627.870
381.029	22.662	801.958	626.755
382.044	22.631	801.324	626.094
383.059	22.570	801.480	625.943
384.073	22.643	800.540	625.411
385.088	22.661	800.184	625.143
386.102	22.648	799.477	624.490
387.117	22.615	798.816	623.801
388.132	22.448	798.645	623.021
389.146	22.410	797.541	621.971
390.161	21.892	796.764	619.482
391.175	21.748	796.824	618.963
392.190	22.250	796.373	620.330
393.205	22.324	796.341	620.512
394.219	21.230	794.583	615.236
395.234	19.940	792.195	608.797
396.248	19.119	791.375	605.227
397.263	20.427	791.867	610.149
398.278	22.048	793.345	616.934
399.292	22.414	793.143	618.007
400.307	22.195	792.448	616.643
401.321	22.190	791.995	616.217
402.336	22.185	791.726	615.938
403.350	22.580	791.437	617.040
404.365	23.029	791.052	618.255
405.380	23.233	790.901	618.795
406.394	23.232	790.982	618.801
407.409	23.502	790.574	619.372
408.423	23.333	790.007	618.284
409.438	23.227	789.417	617.395
410.453	23.300	788.933	617.217
411.467	23.197	788.744	616.657
412.482	23.228	788.104	616.211
413.496	23.323	787.404	615.938
414.511	23.476	787.295	616.330
415.526	23.439	786.763	615.732
416.540	23.376	786.295	615.090
417.555	23.403	785.965	614.873
418.569	23.154	784.932	613.146
419.584	23.090	784.448	612.492
420.599	23.108	783.853	612.034
421.613	158.242	1363.791	1799.361
422.628	136.863	1448.299	1799.461
