DTS Sentinel unit serial number:	SN413079Multiplexer serial number:	ORYXHardware model number:	OX4-SRSoftware version number:	ORYX F/W v4.00 Oryx Data Collector v3.7.2.0data status	okinstallation	princeton_trtdifferential loss correction	single-endedforward channel	channel 3reverse channel	N/Adate	2019/09/17time	18:16:35forward acquisition time	60.00reverse acquisition time	0.00gamma	496.2192k internal	0.2289k external	0.2289temperature offset calibration	0.9944default loss term (dB/km)	0.3790temperature slope calibration	1.0000multiplexer offset coefficient	1.0000multiplexer slope coefficient	1.0000fibre end	0.00T internal ref (°C)	43.37T ext. ref 1 (°C)	0.33T ext. ref 2 (°C)	37.27length (m)	temperature (°C)	Stokes	anti-Stokes-747.200	-200.000	-0.008	-0.108
-746.185	-200.000	-0.074	0.466
-745.171	72.250	-0.228	0.244
-744.156	71.738	0.252	0.269
-743.142	-164.590	-0.273	0.013
-742.127	-200.000	0.017	0.115
-741.112	800.000	0.087	0.265
-740.098	22.881	-0.135	0.114
-739.083	167.590	0.131	-0.190
-738.069	118.782	-0.189	0.239
-737.054	-200.000	-0.002	0.084
-736.039	140.091	-0.283	0.383
-735.025	-48.896	-0.263	-0.129
-734.010	365.529	-0.040	0.083
-732.996	-200.000	0.006	-0.118
-731.981	-89.309	-0.233	-0.070
-730.966	352.878	-0.033	-0.067
-729.952	231.234	0.105	-0.176
-728.937	35.829	-0.169	0.152
-727.923	-200.000	-0.024	-0.140
-726.908	10.841	0.203	-0.159
-725.894	-136.241	0.135	-0.016
-724.879	310.484	-0.121	0.232
-723.864	-142.034	-0.177	0.018
-722.850	-200.000	0.001	0.079
-721.835	-62.707	-0.272	-0.116
-720.821	167.072	-0.139	0.202
-719.806	13.849	0.192	-0.153
-718.791	-13.727	-0.303	-0.201
-717.777	211.461	0.180	-0.289
-716.762	800.000	-0.074	-0.218
-715.748	223.626	-0.158	-0.262
-714.733	8.351	0.065	-0.050
-713.718	-29.915	0.049	-0.029
-712.704	82.485	0.040	-0.044
-711.689	-13.790	-0.293	0.194
-710.675	-90.089	0.172	-0.051
-709.660	-35.601	0.223	-0.124
-708.645	800.000	0.062	-0.234
-707.631	-100.998	-0.043	0.011
-706.616	338.232	0.074	-0.148
-705.602	304.816	0.117	-0.222
-704.587	-125.897	-0.251	0.039
-703.572	272.196	-0.039	0.071
-702.558	95.894	-0.182	-0.213
-701.543	98.942	-0.188	0.222
-700.529	2.785	-0.263	0.195
-699.514	800.000	0.032	-0.134
-698.499	70.879	0.081	-0.086
-697.485	-187.322	0.143	0.002
-696.470	-41.916	-0.088	-0.046
-695.456	364.986	0.058	0.119
-694.441	105.584	0.005	0.007
-693.426	139.641	0.116	0.157
-692.412	11.048	-0.042	0.033
-691.397	127.596	-0.143	-0.185
-690.383	10.415	0.074	-0.058
-689.368	-3.624	0.188	0.134
-688.354	800.000	-0.069	0.194
-687.339	-200.000	-0.002	-0.043
-686.324	-28.479	0.304	0.180
-685.310	63.272	-0.043	0.044
-684.295	359.191	0.150	0.307
-683.281	-140.695	0.188	0.020
-682.266	17.142	0.284	-0.230
-681.251	-200.000	0.008	-0.041
-680.237	35.407	-0.295	0.265
-679.222	81.217	0.179	0.198
-678.208	25.884	-0.153	0.131
-677.193	50.562	0.044	0.042
-676.178	-200.000	0.039	0.359
-675.164	-79.523	0.074	0.026
-674.149	-11.224	0.205	-0.138
-673.135	297.582	-0.037	0.070
-672.120	29.749	-0.358	0.311
-671.105	230.450	-0.207	-0.346
-670.091	-46.512	-0.341	-0.171
-669.076	-91.246	0.127	-0.037
-668.062	-105.873	-0.352	0.081
-667.047	172.996	-0.080	-0.117
-666.032	231.355	-0.134	0.224
-665.018	-132.728	-0.416	-0.054
-664.003	-200.000	-0.022	-0.111
-662.989	800.000	-0.025	-0.092
-661.974	800.000	-0.070	-0.223
-660.959	-140.854	-0.390	-0.041
-659.945	121.995	-0.148	0.189
-658.930	-42.787	0.228	-0.118
-657.916	-136.059	0.317	-0.038
-656.901	20.052	-0.218	-0.180
-655.886	3.821	0.014	0.010
-654.872	84.909	-0.135	-0.151
-653.857	-200.000	-0.016	-0.293
-652.843	-113.788	0.174	-0.035
-651.828	-30.599	-0.279	-0.162
-650.814	28.036	0.156	-0.134
-649.799	-139.350	-0.214	-0.024
-648.784	139.493	0.098	0.132
-647.770	-134.737	-0.379	0.047
-646.755	497.106	0.024	0.056
-645.741	146.226	0.262	0.359
-644.726	141.664	-0.136	0.184
-643.711	-143.223	-0.481	-0.047
-642.697	-72.415	-0.059	-0.022
-641.682	395.787	-0.068	-0.145
-640.668	-71.848	-0.129	-0.049
-639.653	-200.000	-0.026	0.257
-638.638	12.547	0.212	-0.167
-637.624	161.387	0.155	-0.222
-636.609	-132.887	0.199	-0.026
-635.595	800.000	0.093	-0.277
-634.580	364.795	0.137	0.281
-633.565	-200.000	-0.435	-0.001
-632.551	14.058	0.261	0.208
-631.536	547.684	-0.029	0.070
-630.522	162.003	0.087	-0.125
-629.507	71.492	0.101	0.107
-628.492	455.378	-0.061	-0.139
-627.478	-87.952	0.077	-0.024
-626.463	-200.000	0.051	0.299
-625.449	-8.614	-0.148	-0.102
-624.434	739.090	0.146	-0.401
-623.419	-200.000	0.016	-0.119
-622.405	-98.214	0.125	-0.033
-621.390	643.858	-0.042	-0.110
-620.376	-200.000	-0.005	0.193
-619.361	800.000	-0.031	0.113
-618.346	800.000	-0.065	0.259
-617.332	-114.493	-0.263	0.052
-616.317	32.365	-0.294	0.259
-615.303	621.419	0.060	0.155
-614.288	-32.664	-0.168	-0.095
-613.273	-92.784	0.065	0.019
-612.259	-66.827	-0.165	-0.066
-611.244	159.251	-0.120	0.171
-610.230	-151.497	-0.067	0.005
-609.215	396.752	-0.156	0.333
-608.201	102.873	-0.041	-0.049
-607.186	636.080	0.107	-0.278
-606.171	-106.544	0.336	0.076
-605.157	588.310	0.074	-0.186
-604.142	-59.823	-0.067	0.029
-603.128	-89.183	0.369	-0.111
-602.113	79.093	-0.028	0.031
-601.098	-127.850	-0.306	0.045
-600.084	-124.328	-0.277	0.044
-599.069	100.610	-0.018	-0.021
-598.055	-23.505	0.156	0.096
-597.040	326.966	0.112	0.218
-596.025	-200.000	-0.017	-0.112
-595.011	800.000	-0.022	-0.091
-593.996	-200.000	0.014	0.222
-592.982	163.461	-0.108	-0.155
-591.967	-200.000	-0.002	-0.159
-590.952	-106.110	-0.146	-0.033
-589.938	768.587	0.064	-0.178
-588.923	560.718	0.084	-0.207
-587.909	-26.019	0.134	-0.080
-586.894	323.610	-0.008	0.015
-585.879	-200.000	0.067	0.486
-584.865	-80.888	-0.112	-0.038
-583.850	772.474	0.037	0.103
-582.836	-200.000	-0.024	-0.179
-581.821	800.000	0.075	-0.242
-580.806	800.000	0.115	-0.368
-579.792	800.000	0.056	0.229
-578.777	-120.662	-0.266	0.046
-577.763	-83.843	0.240	0.078
-576.748	-121.656	-0.147	-0.025
-575.733	-79.969	-0.080	0.027
-574.719	-200.000	0.002	0.011
-573.704	-109.938	0.232	0.050
-572.690	-78.746	-0.340	-0.118
-571.675	-86.898	0.042	0.013
-570.661	87.207	0.166	-0.187
-569.646	238.293	-0.144	-0.244
-568.631	20.604	-0.495	-0.407
-567.617	-200.000	0.049	0.222
-566.602	800.000	-0.127	0.407
-565.588	-142.595	-0.354	-0.035
-564.573	-200.000	-0.051	-0.265
-563.558	184.430	0.191	-0.288
-562.544	-165.285	0.204	-0.009
-561.529	-74.892	0.140	-0.051
-560.515	-200.000	-0.050	0.384
-559.500	-137.291	0.256	-0.030
-558.485	25.158	-0.130	0.110
-557.471	733.104	-0.076	-0.206
-556.456	-188.881	0.270	0.003
-555.442	800.000	0.107	0.304
-554.427	-113.246	-0.184	0.037
-553.412	-43.586	-0.252	-0.130
-552.398	-52.691	-0.085	-0.040
-551.383	611.886	-0.091	-0.231
-550.369	-81.916	0.309	0.103
-549.354	-114.316	0.115	0.022
-548.339	-167.200	0.207	0.009
-547.325	-39.231	-0.086	0.046
-546.310	-148.502	0.240	-0.020
-545.296	150.512	-0.200	0.277
-544.281	800.000	-0.056	-0.172
-543.266	-200.000	0.036	0.229
-542.252	34.706	-0.306	0.272
-541.237	-140.417	-0.307	0.033
-540.223	-134.382	-0.090	0.011
-539.208	800.000	0.037	-0.144
-538.193	-101.042	0.093	-0.023
-537.179	-200.000	0.060	-0.312
-536.164	58.300	-0.180	-0.179
-535.150	-200.000	-0.009	0.213
-534.135	-66.435	-0.023	0.009
-533.121	-200.000	0.006	0.222
-532.106	-66.764	0.114	-0.046
-531.091	-107.491	-0.210	-0.047
-530.077	114.349	-0.217	0.269
-529.062	800.000	0.082	-0.276
-528.048	362.108	0.102	0.207
-527.033	-128.152	0.404	-0.059
-526.018	225.940	0.124	-0.204
-525.004	16.296	0.272	0.218
-523.989	-14.464	0.078	-0.051
-522.975	-26.443	-0.207	0.123
-521.960	110.940	-0.060	0.073
-520.945	-200.000	-0.002	-0.014
-519.931	800.000	-0.051	0.152
-518.916	89.357	-0.060	-0.068
-517.902	-139.526	-0.069	-0.007
-516.887	800.000	-0.034	-0.127
-515.872	-60.983	-0.141	-0.060
-514.858	189.082	-0.192	0.293
-513.843	324.994	0.138	-0.267
-512.829	-2.263	0.180	-0.129
-511.814	139.380	0.121	0.161
-510.799	155.662	0.136	-0.190
-509.785	-38.138	0.079	-0.042
-508.770	-110.648	0.550	0.116
-507.756	45.876	0.172	0.162
-506.741	800.000	-0.027	0.082
-505.726	-109.930	-0.191	-0.041
-504.712	-200.000	-0.043	-0.386
-503.697	109.345	0.156	0.190
-502.683	20.511	0.177	0.146
-501.668	-77.765	0.156	-0.055
-500.653	-112.851	-0.349	-0.070
-499.639	-200.000	-0.005	0.126
-498.624	-94.053	0.091	0.025
-497.610	639.733	0.050	-0.129
-496.595	141.604	-0.093	-0.125
-495.581	-200.000	0.008	-0.183
-494.566	483.728	-0.119	-0.276
-493.551	22.085	-0.162	-0.134
-492.537	-200.000	0.014	0.090
-491.522	-181.887	-0.280	0.005
-490.508	58.392	0.024	0.023
-489.493	48.053	0.099	0.094
-488.478	-82.182	-0.116	-0.038
-487.464	-37.646	0.265	0.143
-486.449	-22.211	-0.168	0.103
-485.435	800.000	0.106	0.316
-484.420	219.571	-0.182	-0.296
-483.405	30.504	-0.159	-0.138
-482.391	-9.665	-0.115	-0.078
-481.376	118.965	0.027	0.034
-480.362	-200.000	0.023	0.185
-479.347	225.748	0.178	-0.293
-478.332	800.000	0.081	-0.260
-477.318	-21.470	-0.151	-0.093
-476.303	59.374	-0.166	0.166
-475.289	-75.935	-0.228	0.082
-474.274	800.000	0.034	-0.138
-473.259	-74.815	-0.131	0.048
-472.245	-131.634	0.317	-0.042
-471.230	284.116	-0.076	0.138
-470.216	73.910	-0.080	0.085
-469.201	778.354	-0.020	0.054
-468.186	800.000	-0.062	0.225
-467.172	-15.843	-0.045	0.029
-466.157	-200.000	-0.071	-0.392
-465.143	92.540	-0.319	-0.365
-464.128	-143.838	0.069	0.007
-463.113	-96.704	-0.305	0.082
-462.099	-88.022	-0.241	0.073
-461.084	-64.000	-0.096	0.040
-460.070	-200.000	0.004	0.282
-459.055	391.644	-0.077	0.163
-458.040	-14.218	0.380	0.248
-457.026	59.544	0.080	0.080
-456.011	-126.967	0.372	0.055
-454.997	170.544	0.136	0.198
-453.982	504.423	0.105	0.247
-452.968	-7.850	0.331	-0.227
-451.953	-3.260	-0.074	-0.052
-450.938	-200.000	-0.002	-0.099
-449.924	-14.866	0.144	0.094
-448.909	-114.863	-0.112	0.022
-447.895	-6.205	0.135	-0.093
-446.880	-101.059	0.267	0.066
-445.865	769.627	0.053	0.145
-444.851	33.889	-0.237	0.209
-443.836	-200.000	0.012	0.121
-442.822	800.000	-0.065	0.224
-441.807	800.000	0.085	-0.251
-440.792	-112.947	-0.023	-0.005
-439.778	-145.417	-0.195	-0.018
-438.763	-113.696	-0.105	-0.021
-437.749	-60.858	0.163	0.070
-436.734	293.350	-0.072	0.134
-435.719	-200.000	0.017	0.211
-434.705	800.000	0.085	0.306
-433.690	-130.926	-0.203	0.027
-432.676	453.610	-0.191	-0.428
-431.661	-61.726	0.185	-0.079
-430.646	-75.872	0.118	0.042
-429.632	-118.765	-0.236	-0.042
-428.617	196.380	0.045	0.070
-427.603	212.778	-0.123	0.196
-426.588	-72.039	0.120	-0.045
-425.573	648.359	0.089	-0.229
-424.559	154.159	0.169	-0.235
-423.544	-87.826	-0.356	0.108
-422.530	-120.961	0.198	0.034
-421.515	60.422	-0.252	0.253
-420.500	-42.852	0.236	-0.122
-419.486	590.890	-0.013	-0.033
-418.471	-155.049	-0.267	-0.018
-417.457	800.000	-0.124	-0.410
-416.442	-77.887	-0.144	-0.050
-415.428	-200.000	0.069	0.371
-414.413	-178.979	-0.146	0.003
-413.398	-74.899	-0.109	0.040
-412.384	800.000	-0.035	-0.105
-411.369	130.948	-0.038	-0.049
-410.355	7.594	0.131	-0.099
-409.340	-200.000	0.007	-0.408
-408.325	45.401	-0.078	0.072
-407.311	-88.913	-0.201	0.060
-406.296	-138.975	-0.241	-0.026
-405.282	-93.080	-0.329	0.093
-404.267	128.836	0.128	-0.165
-403.252	-200.000	0.067	-0.401
-402.238	-200.000	-0.031	0.274
-401.223	248.468	-0.091	0.156
-400.209	-200.000	0.025	0.195
-399.194	231.391	-0.094	0.156
-398.179	-76.395	0.204	-0.073
-397.165	90.424	-0.167	0.189
-396.150	-200.000	-0.001	0.336
-395.136	-109.579	0.262	-0.056
-394.121	800.000	0.085	0.313
-393.106	205.851	0.076	0.119
-392.092	578.612	-0.140	-0.346
-391.077	324.624	0.109	-0.211
-390.063	-173.383	0.162	0.005
-389.048	-88.968	0.177	0.053
-388.033	147.004	-0.135	0.183
-387.019	-27.167	0.229	-0.135
-386.004	-200.000	0.001	-0.180
-384.990	-200.000	-0.023	-0.164
-383.975	81.931	0.236	0.258
-382.960	-98.219	0.014	-0.004
-381.946	96.289	0.223	0.258
-380.931	-200.000	-0.018	0.112
-379.917	-14.176	-0.043	0.028
-378.902	554.153	0.089	-0.217
-377.888	-200.000	-0.022	-0.111
-376.873	31.178	0.109	-0.094
-375.858	-7.058	-0.183	-0.126
-374.844	800.000	0.023	0.088
-373.829	-157.844	0.232	0.014
-372.815	800.000	0.122	-0.391
-371.800	800.000	-0.058	-0.166
-370.785	189.549	-0.177	0.268
-369.771	392.197	0.058	0.122
-368.756	19.532	0.417	0.339
-367.742	-62.198	0.097	0.041
-366.727	156.915	-0.163	0.228
-365.712	-148.139	-0.102	-0.009
-364.698	-102.104	-0.190	0.046
-363.683	-16.512	-0.243	-0.156
-362.669	-44.093	-0.276	-0.140
-361.654	-48.190	0.075	-0.037
-360.639	65.237	-0.168	-0.171
-359.625	-53.012	0.135	-0.063
-358.610	-200.000	-0.030	-0.187
-357.596	800.000	-0.045	-0.181
-356.581	507.825	0.052	0.123
-355.566	484.283	-0.127	-0.292
-354.552	-200.000	-0.022	0.111
-353.537	-115.488	-0.267	-0.051
-352.523	-200.000	-0.005	-0.206
-351.508	136.159	0.330	-0.434
-350.493	415.003	-0.119	0.255
-349.479	-29.510	-0.326	0.188
-348.464	-70.989	-0.051	-0.019
-347.450	33.142	0.068	0.060
-346.435	-89.422	0.150	0.044
-345.420	440.276	0.031	-0.068
-344.406	232.915	-0.085	-0.141
-343.391	-200.000	0.016	-0.096
-342.377	136.196	0.159	-0.209
-341.362	800.000	0.024	0.093
-340.348	213.109	0.193	0.308
-339.333	-200.000	0.038	0.425
-338.318	-200.000	0.005	0.033
-337.304	172.736	0.165	0.240
-336.289	-4.568	0.315	0.220
-335.275	-179.017	-0.337	-0.008
-334.260	249.951	-0.076	-0.130
-333.245	-3.113	0.075	0.053
-332.231	800.000	-0.142	0.427
-331.216	-200.000	-0.031	-0.369
-330.202	8.671	0.176	0.134
-329.187	233.446	0.085	0.140
-328.172	120.729	0.186	-0.234
-327.158	-54.261	0.340	0.156
-326.143	81.459	0.072	-0.078
-325.129	-132.403	0.244	-0.032
-324.114	-93.462	0.045	0.013
-323.099	-88.164	0.399	0.121
-322.085	800.000	-0.031	-0.108
-321.070	240.163	-0.045	-0.076
-320.056	295.078	-0.031	0.057
-319.041	-200.000	-0.010	0.181
-318.026	-68.231	0.427	0.167
-317.012	160.723	0.255	-0.359
-315.997	611.283	0.082	0.207
-314.983	-124.999	-0.145	-0.022
-313.968	-166.745	-0.147	0.006
-312.953	-33.338	0.178	0.099
-311.939	800.000	-0.048	-0.199
-310.924	-137.347	0.338	-0.039
-309.910	-134.812	0.144	0.018
-308.895	-3.242	-0.319	-0.224
-307.880	-157.440	0.330	-0.020
-306.866	-141.530	0.246	-0.025
-305.851	199.619	-0.157	0.243
-304.837	-200.000	-0.015	-0.219
-303.822	129.519	0.254	-0.327
-302.807	371.549	0.109	-0.224
-301.793	-51.030	0.336	0.159
-300.778	-91.942	-0.099	0.028
-299.764	-152.744	-0.204	0.015
-298.749	-127.371	-0.236	0.035
-297.735	-125.731	-0.365	0.056
-296.720	-127.385	-0.447	-0.065
-295.705	314.523	-0.062	-0.118
-294.691	48.920	0.137	0.129
-293.676	-15.728	0.038	-0.025
-292.662	-36.232	-0.490	-0.266
-291.647	73.724	0.093	-0.098
-290.632	70.485	0.132	0.137
-289.618	559.248	-0.008	0.019
-288.603	-200.000	-0.051	-0.279
-287.589	248.086	0.129	-0.221
-286.574	-19.714	0.291	0.181
-285.559	44.623	-0.276	-0.255
-284.545	-186.678	0.256	0.004
-283.530	-88.311	-0.173	0.052
-282.516	-20.915	-0.123	0.076
-281.501	140.349	-0.192	-0.255
-280.486	-28.428	-0.402	0.233
-279.472	-200.000	0.008	0.414
-278.457	411.032	0.104	-0.222
-277.443	81.199	0.157	0.171
-276.428	133.416	0.311	0.405
-275.413	-106.331	-0.222	-0.050
-274.399	144.830	-0.155	0.209
-273.384	-12.244	0.330	-0.217
-272.370	341.714	0.023	0.045
-271.355	29.980	-0.170	-0.146
-270.340	-71.735	-0.195	0.073
-269.326	72.043	-0.231	0.242
-268.311	-45.530	0.171	0.085
-267.297	-137.950	-0.352	0.040
-266.282	313.350	0.152	0.288
-265.267	151.622	-0.195	-0.268
-264.253	639.135	-0.034	0.087
-263.238	204.761	-0.136	0.212
-262.224	176.589	-0.035	0.051
-261.209	208.201	0.107	-0.169
-260.195	538.710	0.090	-0.215
-259.180	660.257	0.126	-0.325
-258.165	-29.891	0.029	0.016
-257.151	345.136	-0.081	0.159
-256.136	141.220	-0.148	0.197
-255.122	-200.000	-0.015	-0.113
-254.107	400.769	-0.072	0.151
-253.092	-42.974	-0.299	-0.153
-252.078	40.445	-0.327	-0.296
-251.063	693.699	0.052	0.138
-250.049	60.418	0.260	0.258
-249.034	-58.163	-0.093	-0.041
-248.019	1.315	0.255	0.184
-247.005	-200.000	0.008	-0.248
-245.990	-77.255	0.179	0.063
-244.976	34.161	0.106	0.093
-243.961	-136.220	0.049	-0.006
-242.946	-153.179	-0.313	0.022
-241.932	800.000	0.026	-0.098
-240.917	174.654	-0.055	0.080
-239.903	800.000	-0.053	0.153
-238.888	-32.286	0.129	-0.072
-237.873	-165.791	0.344	0.015
-236.859	-200.000	-0.012	0.137
-235.844	-200.000	-0.044	0.204
-234.830	-200.000	-0.031	0.241
-233.815	-140.665	0.215	0.022
-232.800	800.000	0.087	0.254
-231.786	-65.611	-0.348	-0.140
-230.771	-5.729	0.180	-0.124
-229.757	-200.000	-0.049	-0.416
-228.742	-122.537	0.029	-0.005
-227.727	59.193	0.179	0.177
-226.713	160.884	-0.227	-0.318
-225.698	-200.000	-0.070	-0.441
-224.684	-9.564	-0.047	0.032
-223.669	57.357	-0.220	-0.215
-222.655	-200.000	0.032	0.153
-221.640	-79.373	0.253	-0.086
-220.625	-200.000	-0.003	-0.261
-219.611	-200.000	-0.007	0.136
-218.596	81.760	-0.094	0.103
-217.582	-29.278	0.077	-0.044
-216.567	800.000	0.088	-0.277
-215.552	-2.882	-0.183	-0.129
-214.538	-200.000	-0.024	-0.336
-213.523	-151.119	0.304	0.023
-212.509	162.852	0.112	-0.158
-211.494	75.181	0.228	-0.241
-210.479	-200.000	0.035	0.379
-209.465	-87.076	0.232	0.071
-208.450	158.737	0.085	-0.119
-207.436	-200.000	0.007	0.242
-206.421	-106.144	0.063	0.014
-205.406	-79.386	-0.151	-0.051
-204.392	14.617	-0.132	0.104
-203.377	475.407	-0.014	-0.032
-202.363	-3.537	-0.011	0.008
-201.348	21.043	-0.374	-0.304
-200.333	-200.000	0.010	-0.309
-199.319	800.000	-0.057	-0.175
-198.304	15.032	0.172	0.135
-197.290	-200.000	0.023	-0.292
-196.275	-11.037	0.462	-0.306
-195.260	-1.810	-0.236	0.167
-194.246	340.993	-0.078	-0.153
-193.231	-46.227	0.159	-0.078
-192.217	-38.590	0.177	0.094
-191.202	12.130	-0.127	0.098
-190.187	552.403	0.074	-0.179
-189.173	37.044	0.204	0.181
-188.158	-7.778	-0.166	0.112
-187.144	87.676	-0.134	0.149
-186.129	-200.000	-0.059	0.346
-185.114	252.464	-0.104	0.178
-184.100	489.721	-0.080	-0.184
-183.085	-79.420	-0.246	0.084
-182.071	380.057	0.031	-0.064
-181.056	-154.043	0.356	0.024
-180.042	-200.000	0.008	0.398
-179.027	0.069	-0.130	-0.093
-178.012	-14.997	-0.119	-0.077
-176.998	224.420	0.156	-0.252
-175.983	-25.142	0.106	0.063
-174.969	121.177	0.091	0.114
-173.954	-43.675	-0.232	0.117
-172.939	-200.000	0.021	-0.229
-171.925	297.576	0.082	0.151
-170.910	-14.382	0.119	0.077
-169.896	24.952	-0.370	-0.308
-168.881	-200.000	0.018	0.165
-167.866	-78.716	-0.370	-0.127
-166.852	190.537	0.144	0.217
-165.837	236.509	-0.133	0.220
-164.823	63.914	0.317	-0.319
-163.808	-200.000	-0.014	0.084
-162.793	36.621	0.182	-0.161
-161.779	-141.169	0.203	-0.021
-160.764	-200.000	0.368	0.001
-159.750	-200.000	-0.015	-0.160
-158.735	-171.045	-0.137	-0.005
-157.720	271.714	0.096	-0.169
-156.706	-180.123	-0.108	0.002
-155.691	-200.000	-0.010	0.123
-154.677	160.501	0.170	0.238
-153.662	-188.026	-0.100	-0.001
-152.647	528.467	0.098	0.231
-151.633	-200.000	-0.044	-0.202
-150.618	-41.094	-0.086	-0.044
-149.604	-200.000	-0.002	0.133
-148.589	160.074	-0.284	0.396
-147.574	-200.000	0.049	0.241
-146.560	-200.000	-0.017	0.134
-145.545	-102.538	-0.106	-0.025
-144.531	-62.424	0.054	0.022
-143.516	51.994	0.108	0.103
-142.502	800.000	0.123	-0.411
-141.487	27.106	-0.183	0.153
-140.472	90.957	-0.073	0.082
-139.458	-200.000	0.010	0.066
-138.443	220.505	-0.116	0.187
-137.429	-200.000	0.022	0.151
-136.414	140.744	-0.038	-0.050
-135.399	-200.000	-0.011	0.222
-134.385	-54.797	0.106	0.048
-133.370	67.816	-0.041	0.042
-132.356	-200.000	0.029	-0.156
-131.341	-186.201	0.411	0.006
-130.326	112.422	0.141	0.170
-129.312	-176.752	0.130	0.003
-128.297	-62.168	0.171	-0.071
-127.283	-200.000	0.029	-0.184
-126.268	-52.335	0.233	0.108
-125.253	-109.904	0.356	-0.075
-124.239	-200.000	-0.024	0.105
-123.224	-56.747	-0.113	-0.050
-122.210	-50.196	-0.059	-0.028
-121.195	-107.168	0.358	0.079
-120.180	-42.680	0.315	0.160
-119.166	283.655	-0.177	-0.318
-118.151	-89.543	-0.242	-0.071
-117.137	-169.218	0.143	-0.005
-116.122	-11.725	0.030	0.020
-115.107	-85.898	-0.065	-0.020
-114.093	-76.138	-0.136	-0.048
-113.078	-86.514	-0.544	-0.167
-112.064	-52.586	0.085	-0.039
-111.049	385.751	-0.168	-0.347
-110.034	62.420	0.252	0.251
-109.020	-121.120	0.460	-0.077
-108.005	-200.000	-0.007	0.116
-106.991	5.644	0.285	-0.210
-105.976	-200.000	0.006	-0.185
-104.962	-78.680	-0.225	0.077
-103.947	88.883	-0.138	-0.153
-102.932	-192.150	0.103	-0.001
-101.918	800.000	-0.064	0.193
-100.903	123.771	0.025	0.032
-99.889	205.061	-0.197	0.306
-98.874	-200.000	-0.210	0.000
-97.859	163.992	0.200	0.281
-96.845	-200.000	-0.009	-0.120
-95.830	-181.245	0.214	-0.004
-94.816	33.898	-0.185	-0.161
-93.801	105.198	-0.218	0.257
-92.786	800.000	-0.017	-0.055
-91.772	553.766	0.080	-0.192
-90.757	-110.028	0.110	-0.023
-89.743	-187.620	-0.264	-0.003
-88.728	-200.000	-0.003	-0.099
-87.713	-149.769	-0.165	0.013
-86.699	-53.798	0.177	-0.081
-85.684	9.087	0.245	0.185
-84.670	-200.000	0.020	-0.200
-83.655	-141.905	0.227	0.023
-82.640	-117.094	0.471	-0.086
-81.626	119.972	0.127	0.158
-80.611	16.116	-0.228	0.180
-79.597	326.092	-0.214	0.409
-78.582	43.659	-0.080	0.073
-77.567	5.349	-0.107	0.079
-76.553	-131.205	0.185	0.025
-75.538	-138.380	-0.151	0.017
-74.524	34.013	-0.093	0.081
-73.509	-5.542	-0.043	0.030
-72.494	-180.097	-0.192	0.004
-71.480	14.307	-0.198	0.154
-70.465	-47.060	-0.231	-0.112
-69.451	148.002	-0.058	0.079
-68.436	800.000	-0.064	0.228
-67.422	800.000	-0.015	-0.061
-66.407	-76.628	0.191	0.067
-65.392	643.020	-0.099	0.253
-64.378	-35.565	0.056	0.030
-63.363	0.111	-0.110	-0.079
-62.349	-69.523	-0.173	-0.066
-61.334	317.191	-0.412	-0.776
-60.319	-71.999	0.647	0.240
-59.305	-200.000	-0.124	-0.633
-58.290	75.093	0.603	0.634
-57.276	613.498	0.556	1.390
-56.261	-200.000	74.608	566.894
-55.246	560.074	1321.131	3184.126
-54.232	137.774	2572.234	3361.532
-53.217	120.211	2268.882	2809.352
-52.203	55.168	1776.465	1713.157
-51.188	47.096	1567.114	1454.722
-50.173	44.118	1536.373	1405.535
-49.159	60.386	1571.722	1551.796
-48.144	67.806	1591.372	1622.837
-47.130	47.572	1554.771	1446.359
-46.115	43.742	1540.206	1406.208
-45.100	43.481	1537.415	1401.796
-44.086	43.366	1535.483	1399.179
-43.071	43.308	1533.510	1396.923
-42.057	43.365	1530.928	1394.908
-41.042	43.291	1530.090	1393.581
-40.027	43.290	1528.476	1392.048
-39.013	43.258	1527.370	1390.768
-37.998	43.343	1525.699	1389.773
-36.984	43.301	1524.638	1388.461
-35.969	43.442	1522.972	1387.858
-34.954	43.408	1521.663	1386.381
-33.940	43.391	1520.390	1385.049
-32.925	43.513	1518.696	1384.287
-31.911	43.399	1517.388	1382.256
-30.896	43.334	1516.527	1380.975
-29.881	43.517	1514.324	1380.164
-28.867	43.402	1513.254	1378.350
-27.852	43.490	1511.906	1377.665
-26.838	43.448	1510.727	1376.247
-25.823	43.383	1508.813	1374.012
-24.809	43.406	1507.011	1372.472
-23.794	43.548	1505.597	1372.095
-22.779	43.379	1504.541	1369.926
-21.765	43.393	1503.522	1369.038
-20.750	43.373	1502.553	1367.969
-19.736	43.469	1500.964	1367.116
-18.721	43.372	1500.132	1365.653
-17.706	43.384	1498.905	1364.559
-16.692	43.428	1497.311	1363.348
-15.677	43.457	1496.309	1362.579
-14.663	43.336	1496.039	1361.463
-13.648	43.287	1494.490	1359.669
-12.633	43.276	1493.375	1358.526
-11.619	43.314	1492.740	1358.150
-10.604	43.282	1492.117	1357.315
-9.590	43.324	1491.229	1356.739
-8.575	43.388	1489.988	1355.985
-7.560	43.311	1489.816	1355.259
-6.546	43.374	1488.177	1354.132
-5.531	43.282	1487.678	1353.008
-4.517	43.340	1486.683	1352.439
-3.502	43.316	1485.444	1351.097
-2.487	43.345	1484.243	1350.147
-1.473	43.319	1483.128	1348.907
-0.458	43.314	1481.870	1347.675
0.556	41.522	1472.862	1336.987
1.571	38.349	1443.411	1289.263
2.586	32.838	1377.528	1195.510
3.600	29.070	1291.021	1097.906
4.615	26.110	1242.044	1039.149
5.629	21.694	1183.815	966.055
6.644	11.013	1092.451	836.770
7.659	2.004	1045.142	755.984
8.673	0.565	1038.648	744.127
9.688	0.342	1035.701	740.858
10.702	0.203	1034.156	739.004
11.717	0.200	1032.478	737.726
12.731	2.851	1035.543	752.860
13.746	11.657	1047.554	805.060
14.761	17.728	1054.629	840.437
15.775	17.508	1053.629	838.483
16.790	16.573	1051.625	832.217
17.804	15.617	1049.156	825.495
18.819	14.576	1047.769	819.222
19.834	14.181	1045.740	815.623
20.848	13.862	1044.648	813.141
21.863	13.559	1044.279	811.294
22.877	13.321	1043.220	809.237
23.892	13.116	1042.667	807.734
24.907	13.020	1041.608	806.371
25.921	13.075	1040.726	805.888
26.936	13.052	1040.467	805.502
27.950	13.027	1039.817	804.807
28.965	13.191	1038.600	804.590
29.980	13.197	1038.029	804.109
30.994	13.241	1036.803	803.303
32.009	13.312	1036.052	802.996
33.023	13.287	1036.106	802.842
34.038	13.421	1034.384	802.085
35.053	13.233	1033.838	800.684
36.067	13.242	1032.861	799.898
37.082	13.262	1032.121	799.351
38.096	13.325	1031.184	798.858
39.111	13.282	1030.536	798.078
40.126	13.351	1029.518	797.550
41.140	13.228	1028.753	796.296
42.155	13.169	1027.646	795.088
43.169	13.061	1026.987	793.985
44.184	13.067	1025.683	792.937
45.199	12.997	1024.760	791.818
46.213	12.984	1023.708	790.871
47.228	13.004	1022.689	790.109
48.242	12.972	1022.196	789.505
49.257	13.134	1020.885	789.199
50.271	13.185	1020.044	788.719
51.286	13.033	1019.197	787.273
52.301	13.126	1018.464	787.079
53.315	13.331	1017.544	787.274
54.330	13.127	1016.725	785.601
55.344	13.144	1015.701	784.822
56.359	13.156	1014.811	784.120
57.374	13.137	1013.767	783.153
58.388	13.095	1013.367	782.579
59.403	13.133	1012.123	781.726
60.417	13.028	1011.970	781.041
61.432	13.035	1010.856	780.147
62.447	12.999	1010.314	779.492
63.461	13.002	1009.764	779.010
64.476	12.997	1008.669	778.074
65.490	13.119	1007.094	777.363
66.505	12.992	1006.789	776.461
67.520	12.986	1006.215	775.921
68.534	13.009	1005.478	775.394
69.549	13.133	1004.490	775.145
70.563	13.074	1004.186	774.564
71.578	13.089	1002.998	773.651
72.593	12.970	1002.146	772.367
73.607	12.933	1001.881	771.923
74.622	12.936	1000.570	770.857
75.636	12.881	999.571	769.764
76.651	12.872	998.620	768.921
77.666	12.954	998.300	768.989
78.680	13.079	997.045	768.533
79.695	12.967	996.697	767.680
80.709	12.857	996.686	767.091
81.724	13.010	995.482	766.808
82.739	13.101	994.633	766.506
83.753	13.112	993.922	765.941
84.768	13.196	993.053	765.594
85.782	13.162	992.542	764.974
86.797	13.295	991.592	764.787
87.812	13.169	990.884	763.592
88.826	13.057	989.941	762.282
89.841	12.988	989.362	761.452
90.855	13.174	988.246	761.383
91.870	13.216	987.385	760.845
92.884	13.220	987.206	760.658
93.899	13.198	985.984	759.546
94.914	13.248	985.005	758.956
95.928	13.347	984.388	758.865
96.943	13.413	983.577	758.479
97.957	13.263	982.875	757.181
98.972	13.203	982.172	756.298
99.987	13.207	981.558	755.778
101.001	13.191	981.083	755.274
102.016	13.209	979.942	754.407
103.030	13.244	979.038	753.806
104.045	13.306	978.103	753.304
105.060	13.323	977.148	752.579
106.074	13.142	976.171	750.937
107.089	13.162	975.235	750.239
108.103	13.035	974.663	749.156
109.118	13.116	973.401	748.486
110.133	12.959	973.275	747.613
111.147	13.094	972.101	747.256
112.162	13.100	971.328	746.623
113.176	13.106	970.433	745.897
114.191	13.057	969.574	744.948
115.206	13.153	968.723	744.661
116.220	13.179	967.854	744.045
117.235	13.127	966.911	743.022
118.249	13.166	966.397	742.735
119.264	13.179	965.074	741.711
120.279	13.220	964.245	741.192
121.293	13.058	963.860	740.102
122.308	12.999	963.234	739.295
123.322	13.088	962.221	738.849
124.337	12.920	961.602	737.557
125.352	13.056	960.276	737.084
126.366	13.139	958.802	736.257
127.381	13.046	957.642	734.888
128.395	13.189	956.905	734.891
129.410	13.142	955.923	733.865
130.424	13.119	955.257	733.186
131.439	13.142	954.348	732.524
132.454	13.131	953.673	731.891
133.468	13.173	952.942	731.452
134.483	13.256	951.797	730.875
135.497	13.174	951.289	730.059
136.512	13.210	950.785	729.768
137.527	13.237	949.835	729.093
138.541	13.171	949.188	728.242
139.556	13.274	948.231	727.894
140.570	13.209	947.886	727.278
141.585	13.314	946.951	726.961
142.600	13.286	946.542	726.459
143.614	13.437	945.543	726.291
144.629	13.293	944.809	725.029
145.643	13.354	944.204	724.767
146.658	13.379	943.357	724.164
147.673	13.376	942.066	723.098
148.687	13.207	941.410	721.790
149.702	13.313	940.352	721.378
150.716	13.234	939.928	720.644
151.731	13.344	938.859	720.238
152.746	13.241	938.482	719.439
153.760	13.294	937.159	718.593
154.775	13.369	936.519	718.361
155.789	13.286	936.371	717.826
156.804	13.223	935.595	716.893
157.819	13.419	934.519	716.854
158.833	13.367	933.882	716.078
159.848	13.421	932.910	715.503
160.862	13.412	932.180	714.840
161.877	13.319	931.901	714.162
162.892	13.288	931.078	713.333
163.906	13.270	929.789	712.204
164.921	13.327	929.204	711.942
165.935	13.250	928.188	710.766
166.950	13.405	927.124	710.556
167.964	13.324	926.413	709.601
168.979	13.401	925.076	708.842
169.994	13.489	923.843	708.214
171.008	13.304	923.575	707.153
172.023	13.561	922.329	707.232
173.037	13.445	922.035	706.452
174.052	13.518	921.192	706.054
175.067	13.535	920.566	705.585
176.081	13.521	919.757	704.842
177.096	13.353	918.963	703.455
178.110	13.365	918.256	702.905
179.125	13.471	917.347	702.597
180.140	13.443	916.148	701.498
181.154	13.415	915.920	701.140
182.169	13.545	915.286	701.146
183.183	13.604	914.491	700.724
184.198	13.579	914.148	700.292
185.213	13.579	912.931	699.299
186.227	13.572	912.455	698.843
187.242	13.567	912.278	698.624
188.256	13.712	911.111	698.277
189.271	13.817	910.449	698.153
190.286	13.679	910.125	697.259
191.300	13.610	909.421	696.372
192.315	13.524	908.463	695.212
193.329	13.413	907.972	694.312
194.344	13.503	907.369	694.165
195.359	13.500	906.629	693.524
196.373	13.535	906.293	693.352
197.388	13.587	905.998	693.283
198.402	13.735	904.867	692.977
199.417	13.738	904.797	692.872
200.432	13.868	904.169	692.873
201.446	13.715	903.861	691.938
202.461	13.703	903.571	691.605
203.475	13.861	903.069	691.817
204.490	13.920	902.161	691.308
205.504	13.960	900.899	690.447
206.519	13.873	900.283	689.552
207.534	13.901	899.561	689.051
208.548	13.807	899.185	688.315
209.563	13.833	898.273	687.661
210.577	13.913	897.458	687.307
211.592	13.835	897.265	686.777
212.607	13.888	896.715	686.516
213.621	13.941	896.039	686.153
214.636	13.981	895.145	685.575
215.650	14.019	894.271	685.003
216.665	14.129	893.813	685.046
217.680	14.024	893.462	684.282
218.694	14.093	893.070	684.203
219.709	14.152	892.215	683.733
220.723	14.056	891.802	682.960
221.738	14.063	891.056	682.357
222.753	13.940	890.474	681.348
223.767	14.231	889.610	681.818
224.782	14.189	888.411	680.667
225.796	14.143	888.324	680.350
226.811	14.145	887.544	679.703
227.826	14.279	886.735	679.569
228.840	14.095	886.229	678.372
229.855	14.094	885.855	678.021
230.869	14.269	884.828	677.889
231.884	14.256	884.069	677.192
232.899	14.107	883.959	676.442
233.913	14.308	882.553	676.122
234.928	14.277	882.016	675.525
235.942	14.138	881.586	674.572
236.957	14.181	880.629	673.955
237.972	14.216	879.964	673.530
238.986	14.190	879.592	673.080
240.001	14.191	879.151	672.688
241.015	14.163	878.679	672.151
242.030	14.343	877.658	672.039
243.045	14.230	876.929	670.965
244.059	14.289	876.420	670.753
245.074	14.374	875.470	670.311
246.088	14.265	875.019	669.467
247.103	14.343	874.545	669.356
248.117	14.456	874.079	669.397
249.132	14.456	873.146	668.621
250.147	14.533	872.316	668.236
251.161	14.594	872.009	668.184
252.176	14.653	871.272	667.799
253.190	14.557	870.910	667.078
254.205	14.503	870.607	666.572
255.220	14.701	869.593	666.525
256.234	14.709	868.927	665.987
257.249	14.555	868.641	665.095
258.263	14.593	868.258	664.894
259.278	14.568	867.685	664.300
260.293	14.660	866.963	664.053
261.307	14.772	865.929	663.646
262.322	14.876	865.416	663.606
263.336	14.872	865.032	663.240
264.351	14.843	864.430	662.604
265.366	14.858	863.922	662.216
266.380	15.043	862.996	662.178
267.395	14.917	862.453	661.204
268.409	14.952	861.508	660.559
269.424	14.789	861.239	659.651
270.439	14.813	860.633	659.224
271.453	14.999	859.179	658.785
272.468	14.902	858.965	658.179
273.482	14.894	858.382	657.644
274.497	14.874	857.735	657.012
275.512	14.959	857.069	656.776
276.526	14.936	855.635	655.530
277.541	15.011	855.292	655.505
278.555	14.875	855.159	654.810
279.570	14.823	854.926	654.372
280.585	15.054	854.234	654.688
281.599	14.945	853.785	653.859
282.614	15.113	852.968	653.831
283.628	15.156	852.328	653.448
284.643	14.969	851.896	652.333
285.657	15.043	851.193	652.023
286.672	15.185	850.477	651.969
287.687	15.142	850.133	651.481
288.701	15.101	850.179	651.298
289.716	14.985	849.627	650.370
290.730	15.245	848.442	650.412
291.745	15.160	847.785	649.521
292.760	15.208	847.275	649.259
293.774	15.291	846.329	648.800
294.789	15.207	846.159	648.286
295.803	15.230	845.552	647.854
296.818	15.290	844.796	647.448
297.833	15.410	843.694	647.010
298.847	15.277	843.353	646.178
299.862	15.222	842.832	645.509
300.876	15.488	841.819	645.700
301.891	15.339	841.589	644.893
302.906	15.464	840.681	644.621
303.920	15.503	840.247	644.379
304.935	15.503	839.851	644.018
305.949	15.608	839.231	643.891
306.964	15.511	838.515	642.911
307.979	15.383	837.977	641.954
308.993	15.415	837.700	641.806
310.008	15.539	836.799	641.534
311.022	15.581	836.072	641.078
312.037	15.614	835.513	640.718
313.052	15.607	835.166	640.369
314.066	15.395	834.782	639.211
315.081	15.561	833.965	639.162
316.095	15.489	833.536	638.501
317.110	15.454	833.193	638.049
318.125	15.432	832.643	637.487
319.139	15.582	832.185	637.652
320.154	15.340	831.787	636.371
321.168	15.633	830.797	636.668
322.183	15.591	830.326	636.091
323.197	15.535	830.290	635.796
324.212	15.714	829.382	635.720
325.227	15.817	828.671	635.507
326.241	15.558	828.477	634.326
327.256	15.735	827.763	634.390
328.270	15.556	827.253	633.267
329.285	15.680	826.650	633.218
330.300	15.744	825.899	632.828
331.314	15.700	825.542	632.333
332.329	15.602	824.847	631.377
333.343	15.733	824.288	631.382
334.358	15.850	823.511	631.170
335.373	15.791	823.231	630.678
336.387	15.957	822.622	630.778
337.402	15.793	822.445	629.974
338.416	15.712	822.123	629.370
339.431	15.801	820.987	628.776
340.446	15.967	820.225	628.755
341.460	16.059	819.913	628.805
342.475	16.028	819.022	627.949
343.489	15.905	818.738	627.216
344.504	15.966	818.113	626.910
345.519	16.062	817.797	626.971
346.533	16.111	817.523	626.887
347.548	16.078	816.798	626.155
348.562	16.142	816.335	625.980
349.577	16.036	815.850	625.159
350.592	15.977	815.203	624.390
351.606	15.933	815.103	624.096
352.621	16.029	814.681	624.071
353.635	16.095	813.604	623.437
354.650	16.086	813.445	623.225
355.665	16.179	812.977	623.156
356.679	16.242	812.568	623.019
357.694	16.224	812.121	622.555
358.708	16.249	811.585	622.183
359.723	16.359	810.557	621.742
360.738	16.258	810.293	621.116
361.752	16.239	810.259	620.963
362.767	16.188	809.881	620.430
363.781	16.155	809.379	619.872
364.796	16.387	808.325	619.860
365.810	16.367	808.157	619.604
366.825	16.333	807.964	619.274
367.840	16.328	807.622	618.940
368.854	16.409	807.164	618.829
369.869	16.398	806.661	618.348
370.883	16.297	806.142	617.528
371.898	16.373	805.472	617.239
372.913	16.376	805.157	616.953
373.927	16.450	804.393	616.582
374.942	16.443	803.488	615.809
375.956	16.370	803.074	615.171
376.971	16.550	802.785	615.552
377.986	16.615	802.203	615.285
379.000	16.737	801.416	615.070
380.015	16.586	801.256	614.347
381.029	16.663	800.576	614.050
382.044	16.663	799.982	613.540
383.059	16.581	799.524	612.837
384.073	16.658	798.910	612.591
385.088	16.670	798.534	612.292
386.102	16.680	797.611	611.568
387.117	16.684	797.268	611.262
388.132	16.891	796.573	611.423
389.146	16.647	796.607	610.515
390.161	16.719	796.052	610.297
391.175	16.816	795.809	610.404
392.190	16.872	795.088	610.000
393.205	16.863	794.818	609.705
394.219	16.712	794.784	609.082
395.234	16.771	793.862	608.533
396.248	16.729	793.542	608.083
397.263	16.806	792.963	607.862
398.278	16.762	792.451	607.260
399.292	16.750	791.644	606.544
400.307	16.758	791.384	606.321
401.321	16.813	791.348	606.435
402.336	16.709	790.821	605.606
403.350	16.733	790.769	605.597
404.365	16.829	790.123	605.393
405.380	16.913	789.350	605.045
406.394	16.990	789.204	605.154
407.409	16.860	788.953	604.446
408.423	16.969	788.335	604.306
409.438	17.076	787.781	604.209
410.453	16.993	787.125	603.358
411.467	17.281	786.655	603.967
412.482	17.082	786.592	603.158
413.496	17.173	785.972	602.952
414.511	17.270	785.552	602.921
415.526	17.109	785.427	602.200
416.540	17.189	784.793	601.948
417.555	17.356	784.336	602.135
418.569	17.156	784.147	601.226
419.584	17.153	783.610	600.753
420.599	17.184	783.414	600.658
421.613	83.684	1245.900	1313.438
422.628	70.699	1313.318	1313.567
