DTS Sentinel unit serial number:	SN413079Multiplexer serial number:	ORYXHardware model number:	OX4-SRSoftware version number:	ORYX F/W v4.00 Oryx Data Collector v3.7.2.0data status	okinstallation	princeton_trtdifferential loss correction	single-endedforward channel	channel 3reverse channel	N/Adate	2019/09/13time	05:20:34forward acquisition time	60.00reverse acquisition time	0.00gamma	496.2192k internal	0.2338k external	0.2338temperature offset calibration	1.0137default loss term (dB/km)	0.3790temperature slope calibration	1.0000multiplexer offset coefficient	1.0000multiplexer slope coefficient	1.0000fibre end	0.00T internal ref (°C)	26.31T ext. ref 1 (°C)	4.05T ext. ref 2 (°C)	20.85length (m)	temperature (°C)	Stokes	anti-Stokes-747.200	-185.522	-0.370	0.006
-746.185	532.700	0.067	0.159
-745.171	-196.354	0.196	0.001
-744.156	-6.691	-0.092	0.063
-743.142	-102.850	-0.302	-0.072
-742.127	-24.413	-0.189	0.113
-741.112	800.000	0.073	-0.313
-740.098	74.983	0.078	-0.083
-739.083	-126.643	0.088	0.013
-738.069	-15.055	0.274	0.176
-737.054	-58.507	-0.341	-0.149
-736.039	24.442	-0.128	-0.107
-735.025	184.704	0.135	-0.201
-734.010	-200.000	0.007	-0.035
-732.996	-5.286	-0.099	0.068
-731.981	-41.847	-0.186	-0.096
-730.966	-122.812	0.101	0.016
-729.952	99.829	-0.082	-0.095
-728.937	-200.000	-0.008	-0.097
-727.923	-50.138	-0.124	-0.059
-726.908	-62.249	-0.210	0.088
-725.894	-73.857	-0.103	-0.038
-724.879	-154.361	-0.521	-0.035
-723.864	-60.544	-0.175	-0.074
-722.850	-200.000	0.013	0.191
-721.835	-200.000	0.116	-0.001
-720.821	-41.489	-0.124	-0.064
-719.806	57.698	-0.061	0.060
-718.791	-133.221	-0.235	-0.030
-717.777	85.573	0.124	-0.137
-716.762	-200.000	0.027	-0.237
-715.748	-200.000	-0.025	-0.166
-714.733	21.845	0.365	-0.298
-713.718	-200.000	0.012	-0.297
-712.704	-105.137	-0.158	0.036
-711.689	756.699	-0.194	-0.526
-710.675	50.142	-0.236	0.223
-709.660	800.000	-0.039	0.148
-708.645	186.576	0.109	-0.162
-707.631	-56.271	-0.045	-0.020
-706.616	-139.461	-0.328	-0.035
-705.602	258.798	0.083	-0.143
-704.587	-200.000	-0.025	-0.334
-703.572	161.499	0.157	-0.220
-702.558	-46.292	0.036	-0.018
-701.543	800.000	0.113	-0.452
-700.529	-170.431	0.203	-0.007
-699.514	800.000	0.059	0.196
-698.499	-119.513	0.113	0.020
-697.485	200.787	0.153	0.236
-696.470	-134.907	-0.335	0.041
-695.456	-122.806	0.123	-0.020
-694.441	-52.778	-0.165	0.076
-693.426	30.552	-0.158	-0.135
-692.412	-98.180	-0.137	-0.035
-691.397	800.000	-0.032	-0.125
-690.383	112.209	0.091	-0.110
-689.368	-51.474	-0.175	-0.082
-688.354	-200.000	0.031	-0.185
-687.339	-200.000	-0.010	-0.103
-686.324	417.510	-0.187	-0.400
-685.310	-68.652	-0.105	0.041
-684.295	-49.062	-0.205	-0.098
-683.281	76.173	-0.358	-0.380
-682.266	-64.976	-0.360	0.146
-681.251	455.778	0.099	-0.220
-680.237	-104.192	-0.267	0.062
-679.222	123.703	-0.167	0.210
-678.208	-200.000	-0.012	-0.307
-677.193	473.262	-0.068	-0.154
-676.178	-3.970	0.231	-0.160
-675.164	-167.875	0.255	-0.010
-674.149	-200.000	-0.010	-0.192
-673.135	-32.792	-0.329	0.183
-672.120	-71.012	-0.278	-0.105
-671.105	-117.239	0.332	-0.060
-670.091	-67.847	-0.137	-0.053
-669.076	-98.701	0.115	0.029
-668.062	464.793	0.172	0.384
-667.047	-26.286	0.195	0.115
-666.032	-110.362	0.135	-0.028
-665.018	800.000	0.016	0.066
-664.003	-0.347	-0.126	-0.090
-662.989	60.511	0.062	-0.062
-661.974	15.577	-0.278	-0.219
-660.959	-80.948	-0.121	0.040
-659.945	-200.000	-0.022	-0.176
-658.930	702.049	-0.066	-0.174
-657.916	-115.483	0.202	-0.038
-656.901	160.493	0.072	0.100
-655.886	-5.194	0.110	-0.076
-654.872	-91.276	0.107	-0.031
-653.857	800.000	-0.024	0.076
-652.843	-200.000	-0.008	-0.067
-651.828	74.359	0.081	0.085
-650.814	197.851	0.109	-0.166
-649.799	-200.000	0.013	-0.090
-648.784	-177.072	-0.087	-0.002
-647.770	-123.488	0.175	-0.028
-646.755	-200.000	0.004	0.031
-645.741	49.957	-0.275	-0.259
-644.726	-200.000	-0.022	0.200
-643.711	192.713	0.196	-0.296
-642.697	-200.000	-0.016	-0.098
-641.682	20.818	-0.008	-0.007
-640.668	183.141	-0.221	0.326
-639.653	800.000	-0.006	0.022
-638.638	-92.916	0.223	0.062
-637.624	160.252	-0.090	-0.126
-636.609	-20.314	0.111	0.068
-635.595	-200.000	0.006	0.139
-634.580	21.472	-0.159	0.129
-633.565	173.463	-0.119	-0.172
-632.551	41.604	-0.082	-0.074
-631.536	206.477	0.043	-0.067
-630.522	102.717	0.201	0.235
-629.507	220.501	-0.156	0.250
-628.492	151.431	-0.181	-0.247
-627.478	-125.037	-0.239	-0.037
-626.463	279.777	-0.113	-0.201
-625.449	134.165	-0.007	0.010
-624.434	31.797	0.064	0.055
-623.419	-37.759	-0.114	-0.060
-622.405	242.085	0.048	0.080
-621.390	85.039	-0.124	0.136
-620.376	-200.000	-0.015	-0.198
-619.361	604.625	0.020	-0.048
-618.346	8.466	0.116	-0.087
-617.332	92.625	-0.340	-0.383
-616.317	-120.109	-0.329	-0.056
-615.303	-127.047	-0.069	0.010
-614.288	167.544	-0.021	0.029
-613.273	23.892	-0.125	0.103
-612.259	-108.251	-0.387	-0.084
-611.244	800.000	0.103	-0.414
-610.230	800.000	0.081	0.233
-609.215	87.148	-0.279	-0.308
-608.201	76.608	0.127	-0.134
-607.186	-111.438	-0.028	-0.006
-606.171	147.393	-0.143	0.192
-605.157	-120.015	-0.246	-0.042
-604.142	-48.102	-0.086	0.042
-603.128	-102.820	-0.139	0.033
-602.113	-187.161	0.312	-0.004
-601.098	-4.788	-0.319	-0.220
-600.084	32.366	-0.206	-0.178
-599.069	64.742	0.076	-0.077
-598.055	800.000	-0.088	0.255
-597.040	-74.956	-0.204	0.073
-596.025	-18.493	-0.330	0.206
-595.011	-150.879	0.324	0.024
-593.996	-189.516	-0.265	-0.003
-592.982	-58.439	-0.259	0.112
-591.967	-200.000	0.013	0.298
-590.952	-46.733	0.227	-0.111
-589.938	-10.844	0.232	0.153
-588.923	341.593	-0.085	0.166
-587.909	247.521	0.064	-0.108
-586.894	-200.000	-0.029	0.326
-585.879	477.936	0.138	0.313
-584.865	71.549	-0.180	-0.187
-583.850	-75.966	-0.118	0.042
-582.836	673.500	0.086	0.222
-581.821	-200.000	0.009	-0.148
-580.806	-49.848	-0.248	-0.117
-579.792	-72.758	0.113	-0.041
-578.777	-66.105	-0.129	-0.051
-577.763	467.629	-0.037	-0.083
-576.748	-73.062	0.268	-0.098
-575.733	-200.000	-0.015	0.087
-574.719	433.575	0.123	0.266
-573.704	-47.680	-0.365	-0.177
-572.690	80.868	0.094	-0.101
-571.675	-200.000	0.040	-0.179
-570.661	20.704	0.217	-0.175
-569.646	-200.000	0.017	0.094
-568.631	-119.284	0.306	0.053
-567.617	35.524	-0.039	0.034
-566.602	75.732	0.287	0.302
-565.588	159.190	0.099	0.138
-564.573	166.294	-0.077	0.108
-563.558	800.000	0.102	0.285
-562.544	-200.000	-0.022	0.143
-561.529	-200.000	-0.031	0.258
-560.515	34.093	0.125	0.109
-559.500	-124.040	0.240	0.038
-558.485	-200.000	-0.005	0.400
-557.471	-77.931	0.156	-0.054
-556.456	-200.000	-0.010	0.098
-555.442	4.779	-0.362	-0.265
-554.427	1.452	-0.122	0.087
-553.412	12.888	-0.297	0.228
-552.398	116.164	-0.225	0.274
-551.383	752.817	0.049	0.132
-550.369	-47.527	-0.250	0.121
-549.354	-104.708	-0.088	0.020
-548.339	388.441	-0.124	0.256
-547.325	-15.985	0.111	-0.070
-546.310	21.919	-0.172	0.140
-545.296	-77.206	0.131	-0.045
-544.281	-88.623	0.273	-0.081
-543.266	800.000	0.071	0.259
-542.252	-153.952	0.297	-0.020
-541.237	214.728	0.227	-0.358
-540.223	182.104	-0.172	-0.253
-539.208	82.942	0.068	0.073
-538.193	153.042	0.116	0.158
-537.179	-52.576	0.142	0.065
-536.164	668.240	-0.045	-0.116
-535.150	-88.161	-0.218	0.065
-534.135	105.855	0.152	-0.179
-533.121	546.653	-0.098	0.232
-532.106	-68.299	-0.249	-0.096
-531.091	658.825	-0.138	-0.354
-530.077	-27.129	0.091	-0.053
-529.062	28.092	0.096	0.080
-528.048	124.828	0.045	0.056
-527.033	334.522	-0.199	0.384
-526.018	-200.000	0.030	0.456
-525.004	-35.277	0.192	0.104
-523.989	-92.770	-0.048	0.013
-522.975	-200.000	0.033	-0.156
-521.960	800.000	0.055	-0.202
-520.945	800.000	-0.039	0.124
-519.931	29.018	-0.084	0.071
-518.916	76.373	0.257	-0.270
-517.902	-9.699	0.307	0.204
-516.887	-131.207	-0.076	-0.010
-515.872	7.298	0.196	0.145
-514.858	-79.976	0.352	0.117
-513.843	412.506	-0.009	0.020
-512.829	-7.487	-0.081	-0.055
-511.814	-83.812	-0.242	0.077
-510.799	-200.000	0.001	-0.136
-509.785	-200.000	0.055	-0.299
-508.770	-146.008	0.056	0.005
-507.756	57.387	-0.155	-0.151
-506.741	-3.906	0.134	-0.093
-505.726	122.315	0.187	-0.232
-504.712	-200.000	0.000	-0.222
-503.697	-102.144	-0.042	0.010
-502.683	-9.308	0.316	-0.210
-501.668	98.947	-0.148	-0.170
-500.653	-36.545	0.285	-0.152
-499.639	-95.361	0.342	0.091
-498.624	-200.000	0.008	0.040
-497.610	140.950	0.147	0.193
-496.595	-133.795	-0.113	-0.014
-495.581	395.330	-0.076	0.157
-494.566	-91.750	-0.068	0.019
-493.551	-200.000	-0.022	-0.121
-492.537	800.000	-0.048	0.136
-491.522	-200.000	0.001	-0.206
-490.508	-41.207	0.236	0.121
-489.493	408.212	0.086	0.181
-488.478	204.439	0.219	-0.337
-487.464	147.633	0.096	0.129
-486.449	27.959	-0.088	-0.074
-485.435	-80.765	0.086	-0.028
-484.420	-80.769	-0.272	-0.090
-483.405	-200.000	0.002	0.034
-482.391	-150.069	-0.067	-0.005
-481.376	-15.074	-0.178	-0.113
-480.362	-86.020	0.096	-0.030
-479.347	-60.011	0.309	-0.131
-478.332	67.425	-0.283	0.287
-477.318	1.528	0.216	0.154
-476.303	-150.993	-0.372	-0.028
-475.289	800.000	0.081	-0.286
-474.274	-200.000	0.027	0.144
-473.259	-15.319	-0.211	0.134
-472.245	45.328	-0.222	0.204
-471.230	-24.716	0.056	0.033
-470.216	-105.182	0.106	-0.024
-469.201	-179.710	-0.387	0.008
-468.186	-93.765	-0.050	0.014
-467.172	-200.000	0.053	-0.435
-466.157	250.962	0.080	0.135
-465.143	338.149	-0.028	0.054
-464.128	-135.112	0.211	0.025
-463.113	258.715	-0.117	-0.200
-462.099	3.433	0.230	-0.166
-461.084	695.419	0.050	0.130
-460.070	66.696	0.117	0.118
-459.055	-68.829	-0.216	-0.083
-458.040	-152.676	0.041	-0.003
-457.026	-97.646	-0.352	0.090
-456.011	800.000	0.028	-0.098
-454.997	437.204	-0.075	0.162
-453.982	315.082	0.076	-0.142
-452.968	474.830	-0.052	0.117
-451.953	359.229	0.050	-0.099
-450.938	-36.671	0.185	0.098
-449.924	-108.307	-0.270	-0.058
-448.909	-62.593	0.428	-0.176
-447.895	-69.255	0.068	-0.026
-446.880	179.891	0.056	0.082
-445.865	-132.532	0.118	-0.015
-444.851	77.593	0.110	-0.116
-443.836	50.577	0.175	-0.165
-442.822	-200.000	-0.061	-0.555
-441.807	230.034	0.234	-0.379
-440.792	-67.431	-0.148	0.058
-439.778	800.000	-0.033	0.131
-438.763	-105.665	0.377	0.085
-437.749	-85.879	0.163	-0.050
-436.734	104.865	-0.126	-0.147
-435.719	-170.206	0.202	-0.007
-434.705	82.844	0.115	0.124
-433.690	281.889	0.106	-0.188
-432.676	-103.320	-0.054	-0.013
-431.661	-200.000	0.015	-0.341
-430.646	-200.000	-0.017	-0.092
-429.632	-11.747	-0.182	-0.118
-428.617	14.363	0.209	-0.161
-427.603	60.160	0.114	0.111
-426.588	3.568	-0.073	-0.053
-425.573	-171.497	0.120	-0.004
-424.559	-17.407	-0.126	-0.079
-423.544	-185.456	-0.512	0.008
-422.530	202.281	0.149	-0.228
-421.515	-50.189	-0.283	0.133
-420.500	42.295	0.065	0.058
-419.486	33.456	-0.106	0.092
-418.471	-101.235	0.348	-0.084
-417.457	248.065	0.161	0.270
-416.442	-112.485	0.274	0.054
-415.428	-0.944	-0.399	0.280
-414.413	577.590	0.003	-0.008
-413.398	800.000	0.048	0.183
-412.384	-178.737	-0.537	-0.012
-411.369	-200.000	-0.247	0.001
-410.355	-53.831	-0.090	0.040
-409.340	-76.069	-0.258	0.090
-408.325	800.000	-0.066	0.206
-407.311	603.439	-0.101	-0.248
-406.296	-143.324	0.325	0.031
-405.282	-35.472	-0.065	-0.035
-404.267	800.000	-0.059	-0.190
-403.252	800.000	-0.021	0.071
-402.238	-200.000	0.027	0.160
-401.223	62.598	-0.337	-0.334
-400.209	800.000	-0.097	-0.273
-399.194	-76.706	0.193	0.067
-398.179	-200.000	-0.003	-0.217
-397.165	-200.000	-0.017	-0.409
-396.150	-19.232	-0.272	0.167
-395.136	-35.101	0.186	-0.100
-394.121	-29.041	-0.210	0.119
-393.106	679.890	0.113	-0.292
-392.092	-164.456	-0.312	-0.014
-391.077	70.851	0.165	0.169
-390.063	-200.000	-0.006	-0.300
-389.048	359.314	-0.077	-0.152
-388.033	-200.000	0.009	0.096
-387.019	-61.455	0.123	0.051
-386.004	-200.000	-0.061	0.380
-384.990	-61.649	-0.094	0.039
-383.975	455.313	-0.042	-0.092
-382.960	-67.948	-0.239	0.092
-381.946	-200.000	-0.046	-0.217
-380.931	-200.000	0.041	0.225
-379.917	-76.136	-0.403	0.141
-378.902	800.000	0.088	0.339
-377.888	-79.089	0.175	0.059
-376.873	49.784	0.186	-0.174
-375.858	113.877	-0.413	0.496
-374.844	-113.307	-0.200	-0.039
-373.829	66.308	0.237	-0.239
-372.815	40.307	0.141	0.125
-371.800	800.000	-0.098	0.394
-370.785	-91.425	-0.185	0.052
-369.771	-30.612	0.193	0.108
-368.756	563.550	0.109	-0.261
-367.742	50.079	0.026	-0.024
-366.727	800.000	0.056	0.226
-365.712	-200.000	-0.014	-0.189
-364.698	67.913	0.379	0.383
-363.683	-100.693	-0.473	-0.115
-362.669	-200.000	0.059	0.284
-361.654	-24.502	0.145	-0.085
-360.639	-115.901	0.181	0.033
-359.625	-104.299	-0.198	-0.045
-358.610	782.754	0.043	-0.115
-357.596	-65.284	0.126	0.050
-356.581	-73.000	-0.260	0.094
-355.566	-113.595	-0.380	-0.073
-354.552	800.000	0.038	-0.153
-353.537	-18.934	0.088	-0.054
-352.523	-200.000	-0.071	0.559
-351.508	-200.000	0.008	0.375
-350.493	800.000	-0.033	0.128
-349.479	-200.000	-0.024	-0.154
-348.464	-95.125	0.032	0.009
-347.450	800.000	-0.080	-0.280
-346.435	-105.326	-0.274	0.062
-345.420	-39.626	0.262	-0.136
-344.406	-108.863	-0.152	0.032
-343.391	481.427	0.139	-0.311
-342.377	-80.802	-0.182	0.060
-341.362	282.400	-0.094	0.166
-340.348	-31.916	-0.170	-0.094
-339.333	-164.200	0.293	-0.013
-338.318	454.878	-0.028	0.061
-337.304	0.904	-0.178	0.126
-336.289	18.933	0.301	-0.238
-335.275	-106.388	0.287	-0.063
-334.260	146.049	-0.184	-0.243
-333.245	-18.140	0.211	0.130
-332.231	-53.142	0.034	-0.015
-331.216	-135.971	0.215	0.025
-330.202	55.828	-0.202	0.193
-329.187	-169.404	0.262	-0.009
-328.172	-200.000	0.028	-0.191
-327.158	-200.000	-0.045	-0.413
-326.143	-200.000	0.025	-0.178
-325.129	-200.000	0.007	0.087
-324.114	237.362	0.209	-0.342
-323.099	632.360	0.069	-0.172
-322.085	-178.308	-0.220	0.005
-321.070	800.000	0.011	0.031
-320.056	159.610	-0.162	-0.222
-319.041	264.029	0.019	0.033
-318.026	-15.147	-0.091	0.057
-317.012	169.117	-0.130	-0.182
-315.997	-154.562	0.308	-0.020
-314.983	22.056	-0.086	-0.069
-313.968	-126.810	0.309	-0.045
-312.953	-172.516	0.209	-0.007
-311.939	-80.905	-0.117	0.038
-310.924	-109.305	0.171	0.036
-309.910	59.596	-0.149	0.145
-308.895	-157.910	-0.397	-0.023
-307.880	-58.127	-0.131	0.056
-306.866	446.022	-0.108	0.234
-305.851	-169.304	-0.058	0.002
-304.837	-173.895	0.091	-0.003
-303.822	800.000	0.124	0.354
-302.807	86.810	-0.326	0.355
-301.793	-19.833	-0.229	0.139
-300.778	-153.226	-0.110	0.008
-299.764	-200.000	-0.001	-0.088
-298.749	-113.705	0.234	-0.045
-297.735	800.000	-0.037	-0.156
-296.720	268.205	0.102	0.176
-295.705	131.427	-0.214	0.271
-294.691	-200.000	0.054	0.343
-293.676	-7.673	-0.291	-0.194
-292.662	-200.000	-0.025	0.112
-291.647	127.829	0.158	-0.197
-290.632	800.000	0.024	0.101
-289.618	-10.712	0.156	-0.102
-288.603	443.785	-0.142	-0.307
-287.589	107.178	-0.098	0.114
-286.574	409.790	0.092	0.193
-285.559	-153.066	0.138	-0.010
-284.545	-49.565	-0.195	-0.091
-283.530	-81.425	0.106	0.034
-282.516	706.919	-0.069	-0.179
-281.501	5.973	-0.172	0.126
-280.486	-86.287	0.074	-0.022
-279.472	-121.193	0.228	0.038
-278.457	-94.171	0.117	0.032
-277.443	529.291	-0.074	0.172
-276.428	66.462	-0.044	-0.044
-275.413	30.374	-0.134	-0.113
-274.399	218.541	0.140	0.220
-273.384	-200.000	-0.074	-0.352
-272.370	-112.117	0.049	0.010
-271.355	-36.351	0.275	0.146
-270.340	-12.659	-0.167	-0.108
-269.326	-116.634	0.035	-0.006
-268.311	-126.764	0.263	0.038
-267.297	-200.000	0.008	0.220
-266.282	17.144	0.177	-0.138
-265.267	-63.299	-0.111	0.045
-264.253	-129.823	-0.262	0.035
-263.238	167.960	0.152	-0.212
-262.224	-115.757	0.342	-0.063
-261.209	213.195	0.070	-0.109
-260.195	-170.549	0.117	0.004
-259.180	800.000	-0.049	-0.157
-258.165	362.990	-0.085	0.169
-257.151	195.383	0.135	0.202
-256.136	-41.200	0.126	-0.064
-255.122	48.562	0.140	0.130
-254.107	275.345	-0.184	0.320
-253.092	23.114	0.093	-0.075
-252.078	-13.161	0.121	-0.077
-251.063	-52.166	-0.058	-0.027
-250.049	112.207	-0.204	-0.243
-249.034	-160.195	-0.194	-0.010
-248.019	63.857	0.076	-0.075
-247.005	209.198	-0.078	-0.120
-245.990	-36.073	0.104	-0.055
-244.976	-181.864	0.013	-0.000
-243.961	-130.558	-0.158	-0.021
-242.946	115.440	0.081	-0.098
-241.932	-132.883	0.097	-0.012
-240.917	119.742	-0.186	-0.226
-239.903	85.384	0.301	0.325
-238.888	-156.813	0.354	-0.021
-237.873	-127.243	-0.145	0.021
-236.859	-107.796	0.169	-0.036
-235.844	-125.075	-0.114	-0.017
-234.830	-137.978	0.140	0.015
-233.815	309.332	0.083	0.152
-232.800	-111.033	0.107	-0.022
-231.786	534.856	0.141	-0.329
-230.771	-112.208	0.094	-0.018
-229.757	464.175	-0.096	-0.212
-228.742	-105.605	0.357	-0.080
-227.727	-194.034	-0.092	0.001
-226.713	67.819	-0.314	-0.316
-225.698	-200.000	-0.014	0.232
-224.684	-68.391	0.577	-0.220
-223.669	552.935	0.064	-0.152
-222.655	800.000	0.039	0.118
-221.640	-37.700	-0.118	-0.062
-220.625	-33.569	-0.202	0.110
-219.611	152.632	0.209	0.281
-218.596	800.000	0.092	-0.305
-217.582	108.130	0.104	-0.122
-216.567	161.059	0.156	-0.215
-215.552	246.376	-0.066	-0.109
-214.538	-95.161	0.200	-0.053
-213.523	800.000	-0.090	0.385
-212.509	516.864	0.077	-0.178
-211.494	41.911	-0.404	-0.360
-210.479	-191.738	-0.280	0.003
-209.465	800.000	0.066	-0.281
-208.450	34.010	0.191	0.163
-207.436	800.000	0.040	0.161
-206.421	-28.303	-0.324	0.184
-205.406	199.273	0.193	0.290
-204.392	-200.000	-0.006	0.135
-203.377	1.007	0.085	-0.060
-202.363	107.133	0.142	-0.165
-201.348	93.359	0.304	-0.338
-200.333	321.979	0.183	0.343
-199.319	198.526	0.056	-0.083
-198.304	800.000	-0.106	-0.347
-197.290	56.726	0.270	-0.258
-196.275	800.000	0.076	-0.220
-195.260	11.396	0.126	-0.095
-194.246	-200.000	0.061	0.437
-193.231	-200.000	0.001	-0.222
-192.217	499.297	0.074	-0.167
-191.202	235.827	-0.225	0.365
-190.187	-200.000	0.012	0.189
-189.173	78.413	-0.132	-0.138
-188.158	-139.436	0.369	-0.039
-187.144	-15.458	0.186	0.117
-186.129	11.635	-0.282	-0.213
-185.114	-200.000	0.016	0.189
-184.100	-112.408	0.266	-0.052
-183.085	-200.000	-0.002	0.092
-182.071	107.463	-0.150	0.175
-181.056	-81.045	0.266	0.086
-180.042	800.000	-0.040	0.157
-179.027	-200.000	0.026	0.234
-178.012	-82.471	-0.224	0.071
-176.998	411.586	-0.123	0.256
-175.983	-200.000	0.002	0.236
-174.969	23.614	0.044	-0.036
-173.954	-200.000	-0.013	-0.080
-172.939	348.262	-0.043	-0.084
-171.925	-200.000	-0.063	-0.301
-170.910	1.104	-0.214	-0.151
-169.896	-76.194	-0.363	-0.126
-168.881	458.823	0.050	0.108
-167.866	-33.024	0.132	0.072
-166.852	-19.407	0.159	0.097
-165.837	131.943	0.043	0.055
-164.823	-200.000	-0.005	0.370
-163.808	800.000	0.101	0.307
-162.793	650.808	0.096	0.241
-161.779	202.151	-0.104	-0.158
-160.764	581.368	0.073	0.175
-159.750	800.000	-0.041	-0.143
-158.735	553.141	0.104	-0.246
-157.720	-200.000	0.046	-0.247
-156.706	-174.699	-0.277	-0.008
-155.691	-99.922	-0.156	0.038
-154.677	622.651	-0.037	0.091
-153.662	758.937	0.089	0.237
-152.647	-85.008	0.113	0.035
-151.633	-9.974	-0.183	-0.120
-150.618	-102.521	-0.011	-0.003
-149.604	299.638	0.115	-0.207
-148.589	-200.000	-0.006	0.093
-147.574	41.539	-0.191	-0.169
-146.560	800.000	-0.062	0.240
-145.545	-147.397	0.216	-0.018
-144.531	175.847	-0.086	0.123
-143.516	-200.000	0.047	0.313
-142.502	195.208	0.120	0.179
-141.487	420.311	-0.056	0.117
-140.472	-11.561	0.357	0.230
-139.458	-200.000	-0.037	-0.199
-138.443	145.936	-0.038	0.050
-137.429	-149.465	0.297	-0.023
-136.414	800.000	-0.065	-0.226
-135.399	-148.044	0.099	0.008
-134.385	800.000	0.091	0.377
-133.370	31.511	0.084	-0.070
-132.356	-135.591	-0.195	0.023
-131.341	-200.000	-0.013	-0.157
-130.326	7.809	0.189	-0.139
-129.312	-63.189	-0.263	-0.106
-128.297	-39.960	0.391	0.200
-127.283	-200.000	-0.016	0.095
-126.268	501.929	-0.051	-0.115
-125.253	-162.138	0.236	0.012
-124.239	-55.538	-0.080	0.035
-123.224	-92.446	-0.088	-0.024
-122.210	587.838	-0.099	0.239
-121.195	11.814	0.210	0.158
-120.180	-134.672	-0.224	0.027
-119.166	114.713	-0.145	-0.173
-118.151	-200.000	0.034	0.239
-117.137	-175.793	0.171	0.004
-116.122	-200.000	0.026	-0.215
-115.107	-200.000	-0.045	-0.324
-114.093	-200.000	0.056	0.240
-113.078	-12.518	-0.166	0.106
-112.064	-86.758	-0.328	0.098
-111.049	39.329	0.090	-0.079
-110.034	-79.397	-0.427	0.141
-109.020	800.000	-0.108	-0.422
-108.005	800.000	-0.073	0.220
-106.991	207.822	0.075	0.114
-105.976	-200.000	-0.007	-0.091
-104.962	800.000	-0.069	-0.210
-103.947	-200.000	0.066	0.316
-102.932	-79.876	0.178	-0.059
-101.918	-37.427	-0.141	0.074
-100.903	154.904	-0.195	0.262
-99.889	368.496	-0.207	0.409
-98.874	-86.783	-0.152	0.046
-97.859	513.136	-0.076	0.172
-96.845	-200.000	-0.052	0.362
-95.830	199.958	-0.146	0.219
-94.816	223.104	0.146	0.230
-93.801	-69.312	-0.180	-0.068
-92.786	-65.897	0.392	-0.153
-91.772	-35.357	0.087	-0.046
-90.757	-164.025	0.197	0.009
-89.743	130.316	0.192	0.241
-88.728	-126.583	-0.300	0.043
-87.713	-200.000	-0.063	-0.352
-86.699	800.000	-0.042	-0.120
-85.684	-46.570	0.233	0.112
-84.670	-127.655	0.324	-0.046
-83.655	-16.968	0.416	0.257
-82.640	132.820	-0.054	0.068
-81.626	800.000	-0.039	-0.110
-80.611	-200.000	0.051	-0.334
-79.597	-200.000	-0.022	0.225
-78.582	25.088	0.363	-0.295
-77.567	290.711	0.056	0.100
-76.553	173.267	0.140	0.198
-75.538	323.356	0.071	0.132
-74.524	-6.558	-0.229	-0.152
-73.509	-76.772	0.048	0.016
-72.494	-136.568	0.186	-0.021
-71.480	24.678	0.163	0.132
-70.465	-66.371	0.176	0.069
-69.451	800.000	-0.089	-0.249
-68.436	728.421	0.120	0.313
-67.422	-50.203	0.285	0.132
-66.407	-200.000	0.034	0.209
-65.392	74.979	-0.108	-0.111
-64.378	800.000	0.070	0.189
-63.363	-63.615	-0.084	-0.034
-62.349	-45.553	0.111	-0.054
-61.334	41.007	-0.968	-0.854
-60.319	117.847	0.595	0.716
-59.305	171.181	-0.715	-1.002
-58.290	304.545	0.631	1.145
-57.276	409.187	0.683	1.412
-56.261	-200.000	117.682	653.033
-55.246	496.086	1549.712	3479.698
-54.232	175.256	2715.664	3843.272
-53.217	104.073	2172.383	2494.897
-52.203	36.819	1688.615	1457.727
-51.188	29.388	1505.015	1249.086
-50.173	27.296	1479.868	1214.220
-49.159	49.921	1541.589	1419.900
-48.144	48.405	1555.741	1422.543
-47.130	29.424	1510.678	1253.832
-46.115	26.528	1495.297	1221.504
-45.100	26.321	1492.177	1217.515
-44.086	26.320	1490.157	1215.808
-43.071	26.268	1488.215	1213.828
-42.057	26.213	1486.799	1212.255
-41.042	26.356	1484.772	1211.515
-40.027	26.290	1483.366	1209.878
-39.013	26.308	1481.943	1208.787
-37.998	26.225	1481.430	1207.767
-36.984	26.319	1479.914	1207.111
-35.969	26.377	1478.576	1206.359
-34.954	26.309	1477.356	1204.860
-33.940	26.309	1476.186	1203.862
-32.925	26.249	1474.723	1202.217
-31.911	26.241	1473.426	1201.062
-30.896	26.308	1471.982	1200.277
-29.881	26.355	1470.574	1199.399
-28.867	26.421	1469.014	1198.515
-27.852	26.408	1467.886	1197.459
-26.838	26.364	1466.817	1196.252
-25.823	26.366	1465.255	1194.942
-24.809	26.416	1463.464	1193.764
-23.794	26.287	1462.360	1191.968
-22.779	26.326	1461.151	1191.188
-21.765	26.365	1460.047	1190.497
-20.750	26.461	1458.776	1190.045
-19.736	26.423	1457.830	1188.975
-18.721	26.347	1456.939	1187.704
-17.706	26.267	1455.521	1185.977
-16.692	26.272	1454.760	1185.339
-15.677	26.376	1453.108	1184.632
-14.663	26.329	1452.538	1183.812
-13.648	26.241	1451.641	1182.457
-12.633	26.253	1450.935	1181.911
-11.619	26.272	1450.087	1181.302
-10.604	26.223	1449.123	1180.146
-9.590	26.275	1448.077	1179.591
-8.575	26.322	1447.027	1178.991
-7.560	26.274	1445.848	1177.675
-6.546	26.223	1445.276	1176.830
-5.531	26.332	1444.411	1176.789
-4.517	26.212	1443.669	1175.355
-3.502	26.239	1442.685	1174.683
-2.487	26.328	1441.601	1174.328
-1.473	26.245	1440.620	1172.948
-0.458	26.317	1439.362	1172.342
0.556	27.896	1429.606	1160.457
1.571	24.809	1405.029	1121.098
2.586	21.256	1347.059	1053.362
3.600	19.623	1266.005	980.633
4.615	18.433	1221.489	939.546
5.629	16.229	1166.192	885.383
6.644	9.895	1085.074	792.713
7.659	4.855	1048.634	742.060
8.673	4.300	1043.214	735.525
9.688	4.075	1039.713	731.931
10.702	3.824	1038.894	730.104
11.717	4.002	1036.427	729.146
12.731	6.268	1038.509	741.230
13.746	13.350	1048.060	781.545
14.761	20.017	1056.672	819.551
15.775	22.351	1058.531	831.972
16.790	21.896	1057.325	828.800
17.804	21.060	1054.842	822.839
18.819	20.227	1053.608	817.877
19.834	19.925	1051.958	815.100
20.848	19.702	1052.327	814.266
21.863	19.792	1051.353	813.865
22.877	19.693	1050.619	812.755
23.892	19.591	1049.868	811.627
24.907	19.493	1048.791	810.261
25.921	19.307	1048.040	808.737
26.936	19.341	1047.548	808.442
27.950	19.277	1046.689	807.410
28.965	19.346	1045.082	806.420
29.980	19.447	1044.101	806.063
30.994	19.584	1043.657	806.291
32.009	19.769	1042.358	806.080
33.023	19.722	1042.170	805.642
34.038	19.622	1041.696	804.738
35.053	19.634	1039.979	803.398
36.067	19.526	1038.955	802.035
37.082	19.428	1037.904	800.697
38.096	19.475	1037.316	800.390
39.111	19.691	1036.500	800.692
40.126	19.580	1036.215	799.886
41.140	19.487	1034.987	798.437
42.155	19.258	1032.953	795.740
43.169	18.964	1032.389	793.877
44.184	18.853	1031.263	792.430
45.199	19.019	1029.757	791.968
46.213	18.905	1029.110	790.874
47.228	19.039	1028.432	790.899
48.242	19.332	1027.762	791.659
49.257	19.413	1027.218	791.544
50.271	19.534	1025.785	790.924
51.286	19.503	1025.481	790.475
52.301	19.631	1024.683	790.376
53.315	19.584	1023.736	789.362
54.330	19.321	1023.060	787.571
55.344	19.128	1022.358	786.076
56.359	19.224	1020.669	785.146
57.374	19.295	1020.242	785.074
58.388	19.197	1018.898	783.522
59.403	18.935	1018.801	782.188
60.417	18.988	1017.498	781.360
61.432	18.869	1017.427	780.692
62.447	18.857	1016.474	779.841
63.461	18.945	1015.279	779.253
64.476	18.719	1014.385	777.476
65.490	18.645	1014.193	776.925
66.505	18.769	1012.931	776.447
67.520	18.784	1012.289	775.953
68.534	18.800	1011.583	775.415
69.549	18.920	1010.466	775.033
70.563	18.795	1009.883	773.954
71.578	18.683	1008.984	772.691
72.593	18.451	1008.185	770.971
73.607	18.530	1006.630	770.068
74.622	18.470	1005.883	769.160
75.636	18.420	1005.354	768.461
76.651	18.445	1004.664	767.976
77.666	18.523	1003.914	767.686
78.680	18.621	1003.407	767.668
79.695	18.527	1002.822	766.731
80.709	18.578	1001.956	766.230
81.724	18.879	1000.984	766.764
82.739	18.957	1000.716	766.838
83.753	18.958	999.908	766.157
84.768	19.249	999.688	767.213
85.782	19.624	998.986	768.274
86.797	19.915	998.535	769.155
87.812	19.722	998.093	767.891
88.826	19.709	996.580	766.598
89.841	19.566	995.803	765.302
90.855	19.705	995.541	765.645
91.870	19.570	995.150	764.682
92.884	19.812	993.898	764.721
93.899	19.742	993.315	763.897
94.914	19.684	992.676	763.081
95.928	19.789	991.615	762.661
96.943	19.814	991.039	762.259
97.957	19.634	989.957	760.569
98.972	19.512	988.883	759.138
99.987	19.533	988.696	759.020
101.001	19.782	987.504	759.130
102.016	19.687	986.834	758.132
103.030	19.575	986.328	757.187
104.045	19.687	985.275	756.801
105.060	19.703	984.528	756.232
106.074	19.531	983.364	754.519
107.089	19.302	982.299	752.634
108.103	19.041	980.793	750.275
109.118	18.892	980.233	749.132
110.133	18.792	978.896	747.609
111.147	18.795	978.097	746.942
112.162	18.766	977.112	745.998
113.176	18.789	976.588	745.634
114.191	18.909	976.008	745.646
115.206	19.145	975.014	745.841
116.220	18.979	974.198	744.436
117.235	19.020	973.144	743.742
118.249	18.920	972.715	742.913
119.264	18.887	971.966	742.133
120.279	18.840	971.005	741.131
121.293	18.739	970.478	740.227
122.308	18.704	969.240	739.069
123.322	18.616	968.392	737.980
124.337	18.612	967.043	736.868
125.352	18.547	965.826	735.597
126.366	18.493	965.013	734.680
127.381	18.536	964.117	734.115
128.395	18.319	963.327	732.522
129.410	18.444	962.568	732.413
130.424	18.533	961.452	731.882
131.439	18.715	960.653	731.982
132.454	18.853	959.953	731.974
133.468	18.917	959.473	731.815
134.483	18.994	958.763	731.536
135.497	18.974	958.319	731.047
136.512	19.013	957.171	730.273
137.527	19.048	956.644	729.956
138.541	18.998	955.818	729.048
139.556	18.925	955.594	728.501
140.570	19.054	954.423	728.091
141.585	19.189	954.212	728.437
142.600	19.318	953.805	728.608
143.614	19.596	952.853	728.989
144.629	19.597	952.167	728.407
145.643	19.776	951.396	728.507
146.658	19.595	950.598	727.069
147.673	19.516	949.340	725.707
148.687	19.299	948.067	723.758
149.702	19.105	947.628	722.545
150.716	19.029	946.528	721.327
151.731	19.096	945.554	720.799
152.746	19.041	944.736	719.883
153.760	19.033	944.157	719.346
154.775	19.263	943.280	719.572
155.789	19.404	942.529	719.523
156.804	19.386	942.148	719.097
157.819	19.360	940.970	718.025
158.833	19.363	940.634	717.716
159.848	19.589	940.081	718.170
160.862	19.703	939.579	718.198
161.877	19.705	938.558	717.364
162.892	19.300	937.308	714.663
163.906	19.076	936.073	712.731
164.921	19.006	935.379	711.849
165.935	19.026	934.153	710.937
166.950	19.016	933.631	710.435
167.964	19.255	932.565	710.547
168.979	19.179	931.866	709.640
169.994	19.087	930.753	708.351
171.008	18.969	929.760	707.047
172.023	19.163	928.944	707.161
173.037	19.365	928.567	707.642
174.052	19.729	928.125	708.731
175.067	19.583	927.015	707.225
176.081	19.210	926.066	704.914
177.096	18.882	925.309	702.933
178.110	18.829	924.703	702.192
179.125	18.951	923.690	701.858
180.140	19.040	923.178	701.771
181.154	19.135	922.801	701.811
182.169	19.161	922.145	701.354
183.183	19.432	922.093	702.357
184.198	19.534	921.431	702.207
185.213	19.512	920.648	701.457
186.227	19.557	919.808	700.940
187.242	19.690	919.175	700.935
188.256	19.655	919.092	700.665
189.271	19.850	918.136	700.665
190.286	19.885	917.644	700.368
191.300	19.714	916.060	698.408
192.315	19.008	915.024	694.707
193.329	18.671	914.857	693.158
194.344	18.911	913.984	693.401
195.359	18.993	913.056	692.967
196.373	19.290	912.627	693.775
197.388	19.296	912.676	693.777
198.402	19.457	912.297	694.072
199.417	19.822	911.860	695.147
200.432	19.878	912.183	695.558
201.446	20.063	911.417	695.656
202.461	20.154	911.258	695.837
203.475	20.179	910.614	695.382
204.490	20.192	909.712	694.685
205.504	19.900	908.207	692.309
206.519	19.604	907.905	690.831
207.534	19.669	906.529	689.984
208.548	19.644	906.117	689.510
209.563	19.528	905.384	688.428
210.577	19.675	904.629	688.379
211.592	19.676	904.108	687.923
212.607	19.902	904.143	688.789
213.621	20.056	903.248	688.657
214.636	20.017	902.682	688.012
215.650	19.835	902.095	686.783
216.665	20.028	901.380	686.941
217.680	20.095	900.823	686.720
218.694	20.108	901.023	686.863
219.709	20.241	900.390	686.848
220.723	20.153	899.423	685.700
221.738	20.113	898.555	684.820
222.753	19.954	898.034	683.737
223.767	19.963	897.249	683.112
224.782	20.030	896.710	682.905
225.796	20.226	895.911	683.010
226.811	20.270	895.581	682.870
227.826	20.224	894.828	682.053
228.840	20.066	893.684	680.501
229.855	19.883	893.319	679.448
230.869	19.975	892.383	679.034
231.884	19.913	891.812	678.298
232.899	19.870	890.873	677.356
233.913	19.641	890.498	676.112
234.928	19.773	889.696	675.961
235.942	19.564	889.288	674.774
236.957	19.523	888.264	673.777
237.972	19.532	887.633	673.273
238.986	19.490	887.156	672.690
240.001	19.541	886.388	672.244
241.015	19.748	885.578	672.377
242.030	19.808	884.867	672.009
243.045	19.886	884.196	671.745
244.059	19.895	883.971	671.550
245.074	19.751	883.851	670.839
246.088	19.983	883.100	671.111
247.103	20.132	882.540	671.201
248.117	20.215	882.060	671.098
249.132	20.283	881.586	670.942
250.147	20.632	881.575	672.221
251.161	20.957	881.138	673.086
252.176	20.827	880.698	672.186
253.190	21.033	879.491	672.001
254.205	21.291	878.945	672.516
255.220	21.057	879.133	671.699
256.234	21.035	878.163	670.814
257.249	20.958	877.222	669.743
258.263	20.925	876.967	669.361
259.278	21.012	876.262	669.096
260.293	21.107	875.454	668.788
261.307	21.019	875.012	668.050
262.322	21.191	874.684	668.399
263.336	21.240	874.146	668.117
264.351	21.074	873.789	667.152
265.366	21.146	873.022	666.784
266.380	20.899	872.556	665.423
267.395	21.180	871.581	665.692
268.409	20.971	870.959	664.364
269.424	20.997	870.077	663.729
270.439	20.891	869.729	663.002
271.453	20.904	868.683	662.194
272.468	20.708	867.583	660.556
273.482	20.767	867.189	660.420
274.497	20.800	866.651	660.075
275.512	20.897	865.551	659.547
276.526	20.765	865.100	658.646
277.541	20.841	864.422	658.359
278.555	20.910	863.909	658.171
279.570	21.059	863.755	658.557
280.585	21.261	863.284	658.905
281.599	21.364	862.568	658.688
282.614	21.058	861.821	656.906
283.628	20.967	861.050	655.917
284.643	20.769	860.562	654.744
285.657	20.891	859.940	654.670
286.672	20.821	859.362	653.908
287.687	20.960	859.388	654.393
288.701	21.012	858.662	653.977
289.716	21.036	858.071	653.558
290.730	20.861	857.512	652.421
291.745	21.072	856.932	652.710
292.760	20.998	856.447	652.007
293.774	21.284	855.497	652.293
294.789	21.391	855.502	652.639
295.803	21.417	854.663	652.038
296.818	21.088	853.942	650.204
297.833	21.000	853.182	649.242
298.847	20.845	852.544	648.122
299.862	21.081	851.717	648.313
300.876	21.075	851.289	647.908
301.891	21.185	851.109	648.122
302.906	21.344	850.218	647.977
303.920	21.494	849.596	648.001
304.935	21.601	849.324	648.131
305.949	21.924	848.602	648.715
306.964	21.618	848.357	647.340
307.979	21.376	847.643	645.843
308.993	21.413	846.911	645.367
310.008	21.506	846.389	645.254
311.022	21.572	845.881	645.055
312.037	21.496	845.396	644.347
313.052	21.425	844.743	643.531
314.066	21.013	843.917	641.330
315.081	20.815	843.371	640.129
316.095	20.872	842.227	639.415
317.110	20.953	841.988	639.475
318.125	20.964	841.675	639.219
319.139	20.803	841.111	638.146
320.154	20.818	841.050	638.098
321.168	20.897	840.376	637.817
322.183	21.014	839.642	637.632
323.197	21.082	839.169	637.464
324.212	21.134	838.485	637.080
325.227	21.206	838.018	636.931
326.241	20.998	837.774	635.929
327.256	21.002	836.567	634.971
328.270	21.161	835.895	634.984
329.285	20.970	835.609	634.016
330.300	20.931	835.203	633.512
331.314	20.986	833.966	632.715
332.329	21.162	833.829	633.194
333.343	21.231	833.471	633.116
334.358	21.542	832.903	633.757
335.373	21.543	832.342	633.278
336.387	21.453	831.901	632.560
337.402	21.403	831.734	632.196
338.416	21.447	831.468	632.098
339.431	21.588	830.835	632.069
340.446	21.984	829.885	632.718
341.460	21.965	829.791	632.522
342.475	22.041	829.422	632.458
343.489	21.990	828.936	631.847
344.504	22.135	828.306	631.835
345.519	22.152	827.759	631.420
346.533	22.410	827.119	631.804
347.548	22.258	826.822	630.977
348.562	21.974	826.131	629.374
349.577	21.688	825.328	627.683
350.592	21.630	824.449	626.750
351.606	21.651	823.890	626.345
352.621	21.538	823.399	625.511
353.635	21.377	823.395	624.879
354.650	21.406	823.273	624.833
355.665	21.573	822.310	624.644
356.679	21.579	822.329	624.625
357.694	21.790	821.555	624.734
358.708	21.842	821.199	624.591
359.723	21.728	820.535	623.628
360.738	21.727	819.954	623.127
361.752	21.764	819.439	622.810
362.767	21.794	819.165	622.656
363.781	22.003	818.686	622.978
364.796	22.128	818.529	623.246
365.810	22.259	818.329	623.504
366.825	22.471	817.797	623.793
367.840	22.621	817.380	623.951
368.854	22.535	817.018	623.315
369.869	22.343	816.109	621.890
370.883	22.155	815.731	620.880
371.898	22.166	815.024	620.327
372.913	22.348	814.598	620.590
373.927	22.401	814.013	620.275
374.942	22.274	813.566	619.432
375.956	22.361	812.193	618.637
376.971	22.344	812.125	618.473
377.986	22.453	811.814	618.565
379.000	22.604	811.658	618.920
380.015	22.539	811.139	618.241
381.029	22.511	810.840	617.861
382.044	22.570	809.891	617.290
383.059	22.557	809.124	616.606
384.073	22.650	808.562	616.449
385.088	22.532	807.683	615.312
386.102	22.301	807.338	614.186
387.117	22.256	806.585	613.401
388.132	22.110	805.887	612.308
389.146	22.045	806.023	612.133
390.161	22.077	805.649	611.904
391.175	22.390	805.018	612.460
392.190	22.475	804.966	612.664
393.205	22.495	804.456	612.291
394.219	22.242	803.825	610.875
395.234	22.108	803.132	609.831
396.248	22.031	802.536	609.057
397.263	22.037	801.851	608.503
398.278	21.947	801.129	607.592
399.292	21.871	800.952	607.138
400.307	21.918	800.461	606.875
401.321	21.839	800.115	606.286
402.336	22.035	799.836	606.701
403.350	22.114	799.633	606.766
404.365	22.180	799.553	606.877
405.380	22.358	798.854	606.907
406.394	22.507	798.354	606.986
407.409	22.704	798.162	607.466
408.423	22.696	797.908	607.191
409.438	22.758	797.354	606.930
410.453	22.882	796.902	606.960
411.467	23.044	796.407	607.084
412.482	22.926	795.771	606.139
413.496	22.945	795.839	606.203
414.511	23.135	795.473	606.521
415.526	23.126	794.637	605.801
416.540	23.031	794.503	605.321
417.555	22.852	794.051	604.309
418.569	22.887	793.659	604.076
419.584	22.914	792.786	603.451
420.599	22.736	792.924	602.893
421.613	165.512	1370.646	1798.694
422.628	143.600	1454.824	1798.761
