DTS Sentinel unit serial number:	SN413079Multiplexer serial number:	ORYXHardware model number:	OX4-SRSoftware version number:	ORYX F/W v4.00 Oryx Data Collector v3.7.2.0data status	okinstallation	princeton_trtdifferential loss correction	single-endedforward channel	channel 3reverse channel	N/Adate	2019/09/15time	12:12:35forward acquisition time	60.00reverse acquisition time	0.00gamma	496.2192k internal	0.2303k external	0.2303temperature offset calibration	0.9972default loss term (dB/km)	0.3790temperature slope calibration	1.0000multiplexer offset coefficient	1.0000multiplexer slope coefficient	1.0000fibre end	0.00T internal ref (°C)	34.59T ext. ref 1 (°C)	5.05T ext. ref 2 (°C)	31.35length (m)	temperature (°C)	Stokes	anti-Stokes-747.200	-161.970	0.183	-0.009
-746.185	800.000	0.104	0.372
-745.171	-146.548	0.163	0.014
-744.156	-0.964	-0.115	0.083
-743.142	-200.000	0.003	-0.279
-742.127	356.897	-0.211	0.428
-741.112	470.099	-0.077	0.176
-740.098	362.509	-0.184	0.377
-739.083	-200.000	0.023	0.149
-738.069	800.000	-0.093	0.386
-737.054	52.284	-0.053	0.052
-736.039	3.409	-0.136	-0.101
-735.025	43.264	0.086	0.080
-734.010	25.193	-0.176	0.148
-732.996	10.030	-0.085	0.066
-731.981	5.279	-0.162	0.122
-730.966	-5.478	-0.368	-0.257
-729.952	490.773	-0.118	0.275
-728.937	66.822	0.067	-0.070
-727.923	589.486	-0.124	-0.312
-726.908	-136.486	-0.303	0.036
-725.894	652.914	0.056	0.147
-724.879	86.436	-0.151	-0.169
-723.864	17.118	0.075	-0.060
-722.850	-146.469	-0.192	-0.017
-721.835	-52.972	-0.241	0.113
-720.821	51.716	-0.011	0.011
-719.806	-22.820	-0.138	-0.085
-718.791	618.400	0.067	-0.172
-717.777	-136.287	-0.297	-0.035
-716.762	-145.206	0.340	-0.031
-715.748	367.484	-0.071	-0.147
-714.733	62.037	-0.080	-0.081
-713.718	-200.000	-0.010	-0.075
-712.704	-127.081	-0.322	-0.048
-711.689	-74.046	-0.040	0.015
-710.675	-71.349	-0.332	0.126
-709.660	122.802	-0.099	0.126
-708.645	396.942	0.125	0.265
-707.631	800.000	0.018	0.064
-706.616	388.591	0.168	-0.354
-705.602	-200.000	-0.020	-0.197
-704.587	-118.936	-0.465	-0.083
-703.572	191.609	0.142	0.218
-702.558	-13.319	0.115	-0.076
-701.543	188.314	-0.277	-0.422
-700.529	508.710	0.044	-0.105
-699.514	49.142	0.184	-0.175
-698.499	-200.000	0.022	-0.165
-697.485	-200.000	0.068	0.448
-696.470	800.000	0.149	0.465
-695.456	99.344	0.084	-0.099
-694.441	209.335	-0.044	-0.070
-693.426	800.000	-0.071	-0.298
-692.412	-200.000	-0.017	-0.390
-691.397	-90.403	-0.432	0.127
-690.383	0.643	0.270	0.196
-689.368	93.017	0.098	-0.112
-688.354	-131.005	-0.278	-0.038
-687.339	-112.809	-0.196	-0.040
-686.324	718.362	0.073	-0.197
-685.310	-146.070	-0.172	0.015
-684.295	28.031	-0.256	-0.219
-683.281	43.804	0.177	-0.165
-682.266	-100.759	-0.166	-0.042
-681.251	800.000	-0.093	0.379
-680.237	-2.088	0.178	0.127
-679.222	800.000	0.060	0.211
-678.208	-154.478	0.311	-0.021
-677.193	-150.896	0.176	-0.014
-676.178	-200.000	0.023	-0.177
-675.164	-199.504	-0.246	0.001
-674.149	435.485	-0.111	-0.246
-673.135	292.288	0.058	-0.108
-672.120	-200.000	0.022	-0.240
-671.105	491.933	-0.104	-0.243
-670.091	-107.565	0.241	-0.054
-669.076	800.000	-0.018	0.052
-668.062	-200.000	0.018	-0.295
-667.047	384.133	-0.017	-0.035
-666.032	-200.000	-0.020	-0.143
-665.018	-200.000	0.013	0.499
-664.003	-11.608	-0.255	0.170
-662.989	-130.726	0.304	0.042
-661.974	-75.557	0.097	-0.035
-660.959	31.218	0.003	0.003
-659.945	31.196	0.207	0.180
-658.930	-200.000	-0.009	-0.047
-657.916	800.000	0.047	0.189
-656.901	-11.255	-0.478	-0.319
-655.886	642.951	0.050	-0.130
-654.872	-86.380	-0.201	0.063
-653.857	-87.204	0.170	-0.052
-652.843	39.611	0.081	-0.074
-651.828	12.591	0.161	0.126
-650.814	-26.300	0.267	-0.159
-649.799	-118.009	-0.155	0.028
-648.784	46.902	0.171	-0.161
-647.770	-114.792	0.204	-0.040
-646.755	-200.000	-0.058	0.289
-645.741	-200.000	-0.005	-0.073
-644.726	35.790	-0.164	-0.146
-643.711	512.690	-0.148	-0.350
-642.697	173.566	0.053	-0.078
-641.682	-190.591	0.157	-0.002
-640.668	52.596	-0.254	-0.246
-639.653	-99.474	0.153	0.039
-638.638	-200.000	-0.012	0.253
-637.624	-200.000	-0.079	-0.462
-636.609	-157.820	0.212	0.013
-635.595	-67.626	-0.398	0.158
-634.580	-37.544	-0.311	0.168
-633.565	105.436	0.158	-0.189
-632.551	221.097	0.150	-0.243
-631.536	-126.315	-0.100	-0.015
-630.522	-200.000	-0.014	-0.128
-629.507	172.713	-0.206	-0.300
-628.492	-151.949	-0.199	-0.015
-627.478	14.010	0.102	0.080
-626.463	-200.000	0.004	-0.101
-625.449	-40.589	0.289	0.152
-624.434	-200.000	-0.030	-0.147
-623.419	84.587	0.313	0.348
-622.405	645.494	-0.012	0.031
-621.390	225.949	0.250	-0.411
-620.376	-76.198	-0.441	-0.158
-619.361	-90.470	-0.124	-0.036
-618.346	108.285	-0.086	-0.104
-617.332	800.000	-0.068	0.211
-616.317	20.354	-0.169	0.138
-615.303	37.586	0.056	0.050
-614.288	62.465	-0.143	-0.145
-613.273	65.659	-0.072	-0.073
-612.259	727.555	-0.061	-0.164
-611.244	619.372	0.045	-0.116
-610.230	-41.592	0.118	-0.061
-609.215	197.120	-0.071	-0.110
-608.201	800.000	-0.108	-0.342
-607.186	-200.000	-0.036	-0.326
-606.171	-127.022	0.264	-0.039
-605.157	-97.599	0.348	-0.091
-604.142	-99.540	-0.165	-0.042
-603.128	-133.200	0.086	-0.011
-602.113	460.968	-0.152	-0.343
-601.098	360.543	-0.131	-0.267
-600.084	14.017	0.331	0.261
-599.069	-52.904	0.264	-0.123
-598.055	-200.000	0.017	-0.089
-597.040	195.648	-0.108	0.166
-596.025	-125.974	-0.102	0.016
-595.011	111.744	-0.040	0.049
-593.996	-90.838	-0.208	-0.061
-592.982	163.414	-0.168	-0.240
-591.967	295.200	-0.085	0.157
-590.952	461.125	-0.073	0.164
-589.938	51.796	0.181	0.175
-588.923	-200.000	-0.032	0.178
-587.909	-89.089	-0.300	0.090
-586.894	800.000	0.060	0.181
-585.879	-125.392	-0.134	-0.021
-584.865	-200.000	-0.007	-0.183
-583.850	493.173	-0.085	0.196
-582.836	432.983	-0.099	0.217
-581.821	63.882	0.243	0.248
-580.806	-32.617	0.286	0.161
-579.792	-200.000	0.004	-0.103
-578.777	-200.000	-0.022	-0.172
-577.763	55.953	0.127	0.125
-576.748	11.101	-0.060	0.046
-575.733	-114.649	-0.048	-0.009
-574.719	-200.000	0.033	-0.196
-573.704	-97.352	-0.013	-0.003
-572.690	-120.614	-0.185	0.032
-571.675	-98.203	0.141	-0.037
-570.661	800.000	-0.049	-0.188
-569.646	-101.435	-0.004	-0.001
-568.631	-39.260	-0.107	0.057
-567.617	-11.307	0.298	-0.198
-566.602	-60.538	-0.404	0.174
-565.588	-43.254	-0.138	-0.071
-564.573	-146.767	-0.042	-0.004
-563.558	370.756	-0.167	0.343
-562.544	-111.205	-0.266	-0.055
-561.529	-22.524	-0.171	0.105
-560.515	242.433	0.092	-0.156
-559.500	-171.571	0.081	-0.003
-558.485	452.132	-0.146	-0.326
-557.471	-200.000	0.014	-0.118
-556.456	-200.000	-0.044	0.455
-555.442	-118.425	-0.096	0.017
-554.427	-197.968	-0.159	0.001
-553.412	-200.000	-0.010	-0.257
-552.398	800.000	0.034	0.150
-551.383	-166.103	-0.219	-0.009
-550.369	-111.815	0.305	-0.062
-549.354	-10.763	-0.117	-0.078
-548.339	198.918	0.219	0.339
-547.325	-200.000	-0.000	0.067
-546.310	-166.454	-0.359	0.015
-545.296	-200.000	0.000	-0.137
-544.281	317.323	-0.057	-0.109
-543.266	381.357	-0.047	0.098
-542.252	-150.590	0.291	0.022
-541.237	289.589	0.012	0.022
-540.223	242.131	-0.047	0.079
-539.208	-8.930	0.113	0.076
-538.193	255.849	-0.038	-0.066
-537.179	-200.000	0.074	0.000
-536.164	-200.000	0.010	-0.319
-535.150	-200.000	-0.230	-0.001
-534.135	-38.823	-0.329	-0.175
-533.121	-13.091	0.060	-0.040
-532.106	23.985	0.370	0.308
-531.091	687.237	0.087	-0.230
-530.077	-102.211	-0.194	-0.047
-529.062	25.813	-0.162	-0.137
-528.048	478.579	-0.072	0.164
-527.033	-144.530	0.094	-0.009
-526.018	143.066	-0.254	-0.341
-525.004	387.623	0.095	-0.198
-523.989	37.352	0.073	0.065
-522.975	54.439	0.121	-0.118
-521.960	-111.070	-0.279	-0.058
-520.945	-200.000	0.005	-0.223
-519.931	-101.044	-0.120	0.030
-518.916	-169.374	-0.299	0.011
-517.902	118.044	-0.115	0.143
-516.887	152.921	0.099	-0.137
-515.872	329.887	-0.086	0.166
-514.858	99.308	-0.245	0.285
-513.843	45.928	-0.140	-0.131
-512.829	17.045	0.110	0.088
-511.814	800.000	-0.020	-0.058
-510.799	219.304	-0.058	-0.094
-509.785	66.785	-0.277	-0.284
-508.770	265.718	-0.012	0.021
-507.756	-21.182	-0.157	-0.097
-506.741	-157.731	0.080	-0.005
-505.726	281.405	-0.108	-0.196
-504.712	31.502	0.042	0.037
-503.697	-90.882	-0.233	0.068
-502.683	331.382	-0.093	0.181
-501.668	-125.893	0.079	0.012
-500.653	694.177	-0.078	0.206
-499.639	-200.000	0.020	0.295
-498.624	-47.613	0.072	0.035
-497.610	-23.422	0.089	0.054
-496.595	-89.791	-0.208	-0.061
-495.581	-200.000	0.058	-0.331
-494.566	126.636	0.138	-0.176
-493.551	-145.619	0.215	-0.019
-492.537	28.368	-0.188	-0.160
-491.522	-159.169	0.234	0.013
-490.508	-56.842	-0.131	0.058
-489.493	-54.056	-0.450	-0.207
-488.478	-141.489	-0.362	0.037
-487.464	720.558	0.074	0.199
-486.449	-61.408	0.233	0.099
-485.435	-129.552	-0.135	0.019
-484.420	-88.941	-0.166	0.050
-483.405	-180.308	-0.165	0.003
-482.391	242.601	0.125	-0.212
-481.376	-61.075	-0.177	0.075
-480.362	20.667	0.217	-0.177
-479.347	362.409	-0.050	0.101
-478.332	389.823	-0.102	-0.213
-477.318	800.000	-0.029	0.089
-476.303	-200.000	0.071	0.351
-475.289	-92.764	0.177	-0.050
-474.274	-200.000	0.027	-0.178
-473.259	274.419	0.084	-0.149
-472.245	800.000	0.072	-0.234
-471.230	-0.137	-0.172	0.124
-470.216	217.014	0.127	-0.204
-469.201	-200.000	-0.006	-0.523
-468.186	-200.000	0.063	-0.350
-467.172	105.779	0.038	0.045
-466.157	800.000	-0.075	-0.302
-465.143	86.122	0.172	-0.191
-464.128	-200.000	0.003	-0.128
-463.113	17.316	0.108	0.086
-462.099	-155.071	0.315	-0.021
-461.084	589.861	-0.123	0.305
-460.070	-73.156	0.132	0.049
-459.055	800.000	0.099	-0.421
-458.040	330.022	0.060	-0.116
-457.026	173.881	0.152	0.221
-456.011	407.158	0.050	0.106
-454.997	-91.684	-0.292	0.084
-453.982	-200.000	-0.032	-0.149
-452.968	26.521	0.045	-0.038
-451.953	-200.000	0.021	-0.215
-450.938	454.773	0.071	0.158
-449.924	-99.999	0.176	-0.044
-448.909	204.070	-0.110	0.172
-447.895	-200.000	-0.044	0.215
-446.880	278.375	-0.098	0.176
-445.865	-20.734	-0.153	-0.094
-444.851	291.910	-0.165	0.303
-443.836	-200.000	0.000	-0.237
-442.822	-200.000	-0.034	-0.376
-441.807	-68.963	0.433	-0.168
-440.792	100.178	0.041	-0.048
-439.778	84.246	-0.173	-0.190
-438.763	800.000	-0.023	0.092
-437.749	800.000	0.044	-0.129
-436.734	20.639	-0.127	-0.103
-435.719	-200.000	0.016	0.201
-434.705	-103.897	0.463	0.109
-433.690	132.846	0.208	0.271
-432.676	-111.877	-0.279	0.057
-431.661	-96.000	0.268	0.072
-430.646	-200.000	0.005	0.246
-429.632	-165.966	-0.270	-0.012
-428.617	-147.440	0.205	-0.017
-427.603	-200.000	-0.074	0.451
-426.588	76.411	0.176	0.188
-425.573	171.381	-0.156	0.225
-424.559	800.000	0.095	-0.400
-423.544	266.741	0.087	0.153
-422.530	38.890	0.049	-0.044
-421.515	-200.000	-0.011	-0.171
-420.500	-200.000	-0.017	-0.208
-419.486	-130.871	-0.101	-0.014
-418.471	92.455	0.122	0.139
-417.457	-58.335	0.229	0.100
-416.442	29.634	0.219	0.187
-415.428	-148.613	-0.343	-0.028
-414.413	-138.061	0.022	0.002
-413.398	-200.000	-0.004	-0.167
-412.384	-200.000	0.004	0.140
-411.369	-200.000	0.008	0.163
-410.355	-117.095	0.034	-0.006
-409.340	28.518	0.113	0.096
-408.325	-200.000	0.014	0.147
-407.311	479.133	0.038	-0.086
-406.296	395.961	0.109	0.230
-405.282	-165.000	0.239	-0.011
-404.267	442.942	0.046	0.100
-403.252	-200.000	0.101	0.000
-402.238	-56.466	0.483	-0.215
-401.223	-91.906	0.238	0.068
-400.209	105.072	0.266	-0.315
-399.194	-200.000	-0.005	0.260
-398.179	-117.702	0.319	-0.058
-397.165	-26.282	-0.192	0.114
-396.150	-174.248	-0.247	-0.007
-395.136	-200.000	-0.005	-0.283
-394.121	-191.470	-0.153	0.002
-393.106	-200.000	-0.011	0.182
-392.092	-119.380	0.283	-0.049
-391.077	-104.602	-0.094	-0.022
-390.063	528.535	-0.139	0.331
-389.048	-109.938	0.117	0.025
-388.033	105.999	-0.050	0.059
-387.019	-85.610	0.238	-0.074
-386.004	103.783	-0.119	0.141
-384.990	32.460	-0.288	0.250
-383.975	800.000	0.047	-0.159
-382.960	-55.902	0.165	0.074
-381.946	42.186	0.224	-0.204
-380.931	-109.079	0.147	0.031
-379.917	-200.000	0.001	-0.113
-378.902	420.295	-0.097	0.209
-377.888	-94.069	-0.371	0.102
-376.873	-20.923	0.448	-0.276
-375.858	-200.000	0.028	-0.188
-374.844	63.423	-0.175	0.176
-373.829	208.660	-0.062	0.097
-372.815	-44.309	0.347	0.174
-371.800	-200.000	-0.013	-0.060
-370.785	-200.000	0.049	-0.295
-369.771	108.460	-0.084	-0.101
-368.756	-129.893	0.202	0.028
-367.742	139.730	-0.153	0.202
-366.727	-70.217	-0.279	0.107
-365.712	-100.313	0.052	0.013
-364.698	-11.337	0.181	0.120
-363.683	-12.815	0.249	-0.163
-362.669	-41.926	-0.168	0.086
-361.654	171.580	-0.112	0.161
-360.639	-101.633	0.245	-0.060
-359.625	-200.000	0.003	0.026
-358.610	-26.888	0.106	0.062
-357.596	110.516	-0.137	0.165
-356.581	176.386	-0.045	-0.066
-355.566	-144.023	-0.173	-0.016
-354.552	578.678	-0.124	-0.305
-353.537	61.379	0.136	-0.135
-352.523	-111.534	-0.082	-0.017
-351.508	-29.327	-0.206	0.118
-350.493	1.018	0.106	0.076
-349.479	-109.623	-0.163	0.035
-348.464	-20.925	0.180	0.110
-347.450	800.000	0.133	0.397
-346.435	-142.626	-0.214	0.021
-345.420	98.863	-0.042	-0.049
-344.406	301.765	-0.174	0.323
-343.391	372.963	0.074	0.152
-342.377	-118.390	0.132	-0.023
-341.362	-12.073	-0.390	0.256
-340.348	130.962	-0.015	0.019
-339.333	-4.098	-0.067	-0.047
-338.318	161.630	0.090	-0.126
-337.304	-200.000	-0.042	-0.268
-336.289	282.824	-0.224	-0.402
-335.275	-87.240	-0.095	0.029
-334.260	800.000	-0.017	0.069
-333.245	-73.141	-0.304	0.112
-332.231	41.578	-0.171	0.156
-331.216	34.762	-0.225	-0.197
-330.202	800.000	0.053	0.173
-329.187	60.034	0.435	-0.430
-328.172	-112.278	-0.370	-0.074
-327.158	-42.679	0.195	-0.100
-326.143	-70.744	0.061	-0.023
-325.129	-0.853	-0.089	-0.063
-324.114	-104.992	-0.066	-0.015
-323.099	-190.917	0.149	-0.002
-322.085	70.452	0.153	-0.158
-321.070	-4.010	0.064	-0.045
-320.056	-200.000	-0.008	-0.109
-319.041	-200.000	-0.040	-0.202
-318.026	280.409	0.083	0.149
-317.012	-179.462	0.429	-0.009
-315.997	-72.694	-0.119	-0.044
-314.983	-88.589	-0.146	0.044
-313.968	-200.000	-0.014	-0.116
-312.953	-8.567	-0.091	-0.061
-311.939	800.000	-0.091	0.362
-310.924	36.897	0.273	0.242
-309.910	800.000	0.105	0.306
-308.895	470.921	0.124	-0.280
-307.880	-200.000	-0.009	0.123
-306.866	-120.354	-0.289	0.049
-305.851	-200.000	0.016	-0.221
-304.837	6.759	-0.202	0.150
-303.822	216.766	0.151	0.240
-302.807	-74.092	-0.151	0.055
-301.793	39.384	0.101	0.091
-300.778	800.000	0.042	-0.165
-299.764	97.497	0.123	0.142
-298.749	-47.735	-0.352	0.171
-297.735	-5.342	-0.223	0.153
-296.720	69.798	0.253	0.261
-295.705	-36.704	0.179	-0.096
-294.691	-200.000	-0.020	-0.367
-293.676	266.396	-0.063	0.110
-292.662	-150.453	-0.103	-0.008
-291.647	-117.671	-0.374	0.067
-290.632	31.633	-0.142	0.122
-289.618	582.360	-0.171	0.421
-288.603	66.135	0.128	-0.130
-287.589	-54.328	-0.166	-0.075
-286.574	-134.521	0.229	-0.028
-285.559	134.223	-0.164	0.212
-284.545	800.000	-0.046	-0.150
-283.530	21.552	0.145	-0.118
-282.516	-200.000	0.001	-0.092
-281.501	-70.262	0.433	-0.164
-280.486	-200.000	0.046	0.433
-279.472	-28.307	-0.091	-0.053
-278.457	-165.138	-0.115	0.005
-277.443	-97.471	0.036	-0.009
-276.428	207.225	-0.150	-0.234
-275.413	-59.795	0.198	0.085
-274.399	174.609	-0.133	0.192
-273.384	416.916	-0.034	0.072
-272.370	-107.677	0.088	-0.019
-271.355	-200.000	-0.047	0.453
-270.340	68.442	0.211	0.216
-269.326	-48.483	0.103	0.049
-268.311	580.597	-0.103	0.253
-267.297	-152.124	0.181	0.013
-266.282	-200.000	-0.037	0.244
-265.267	31.787	0.141	0.122
-264.253	323.022	0.178	-0.340
-263.238	-85.249	-0.257	0.080
-262.224	-143.851	0.353	-0.033
-261.209	115.882	-0.123	-0.150
-260.195	315.656	0.054	-0.102
-259.180	-151.933	-0.064	0.005
-258.165	-37.137	-0.245	-0.131
-257.151	-112.524	0.243	-0.048
-256.136	426.033	-0.168	0.363
-255.122	-78.180	-0.201	-0.069
-254.107	-200.000	-0.028	-0.242
-253.092	-157.392	-0.108	0.006
-252.078	-200.000	-0.008	-0.139
-251.063	-52.593	-0.175	0.081
-250.049	700.656	0.149	0.393
-249.034	182.551	-0.086	0.127
-248.019	-22.828	-0.217	-0.131
-247.005	-4.250	0.048	0.034
-245.990	-3.427	0.037	-0.026
-244.976	320.918	0.124	-0.235
-243.961	632.884	0.053	0.135
-242.946	-115.585	-0.197	0.037
-241.932	-135.936	0.144	0.017
-240.917	-107.436	0.134	-0.029
-239.903	308.109	0.077	0.143
-238.888	-97.517	-0.270	0.070
-237.873	10.431	0.108	0.082
-236.859	213.366	0.074	0.116
-235.844	-89.837	-0.204	-0.059
-234.830	246.888	0.087	0.146
-233.815	-100.488	-0.172	-0.043
-232.800	84.263	-0.206	-0.225
-231.786	-145.055	0.043	0.004
-230.771	-200.000	-0.032	-0.253
-229.757	-91.337	0.336	0.096
-228.742	800.000	0.022	0.088
-227.727	221.037	0.083	-0.133
-226.713	782.239	0.078	-0.214
-225.698	-72.726	0.163	0.060
-224.684	-127.117	0.128	-0.019
-223.669	-84.013	-0.117	-0.037
-222.655	88.165	-0.160	-0.177
-221.640	-28.476	0.309	-0.178
-220.625	-41.415	0.200	0.103
-219.611	28.080	0.407	0.343
-218.596	800.000	-0.082	0.314
-217.582	-146.915	0.117	-0.010
-216.567	419.273	0.084	0.180
-215.552	109.949	0.367	0.440
-214.538	-200.000	0.050	-0.260
-213.523	41.553	-0.138	-0.125
-212.509	37.760	0.240	-0.212
-211.494	-141.859	0.202	-0.020
-210.479	266.219	-0.065	0.113
-209.465	5.721	-0.185	0.136
-208.450	-200.000	0.013	-0.112
-207.436	213.159	-0.137	0.215
-206.421	30.676	-0.169	0.144
-205.406	-64.028	-0.236	-0.096
-204.392	800.000	-0.022	0.073
-203.377	528.888	-0.135	-0.317
-202.363	-41.953	0.082	0.042
-201.348	-144.295	0.205	0.019
-200.333	800.000	0.018	-0.056
-199.319	609.812	-0.033	0.081
-198.304	-91.374	0.272	0.078
-197.290	-60.776	-0.401	-0.169
-196.275	203.653	-0.224	-0.345
-195.260	800.000	0.031	-0.113
-194.246	-23.035	-0.144	0.087
-193.231	-141.519	0.116	0.012
-192.217	81.626	-0.098	-0.106
-191.202	800.000	-0.095	-0.279
-190.187	-200.000	0.008	0.141
-189.173	-31.209	0.297	-0.167
-188.158	-46.672	0.195	-0.095
-187.144	-200.000	-0.010	0.083
-186.129	81.924	-0.109	0.118
-185.114	0.925	-0.065	-0.046
-184.100	257.426	-0.174	0.298
-183.085	-200.000	-0.024	0.203
-182.071	-112.902	0.065	0.013
-181.056	-19.704	0.373	0.230
-180.042	800.000	-0.100	-0.300
-179.027	800.000	-0.082	0.241
-178.012	-200.000	-0.001	0.314
-176.998	500.068	0.128	0.294
-175.983	10.916	0.372	-0.283
-174.969	222.612	0.051	0.082
-173.954	-200.000	0.005	0.110
-172.939	57.061	-0.135	0.131
-171.925	-92.132	-0.030	-0.008
-170.910	-103.479	0.132	-0.031
-169.896	-200.000	-0.018	-0.136
-168.881	420.616	0.139	0.296
-167.866	103.771	-0.108	0.126
-166.852	95.236	0.064	-0.073
-165.837	-36.168	-0.301	-0.162
-164.823	49.333	0.149	0.139
-163.808	-84.116	0.293	-0.093
-162.793	48.359	0.100	0.093
-161.779	-53.311	0.159	0.072
-160.764	89.135	0.103	-0.114
-159.750	106.593	0.195	0.230
-158.735	309.835	0.046	-0.086
-157.720	-79.122	0.166	0.056
-156.706	350.685	-0.157	-0.308
-155.691	-200.000	-0.054	0.303
-154.677	18.511	-0.114	0.091
-153.662	56.935	0.237	-0.230
-152.647	-200.000	0.003	-0.056
-151.633	30.173	0.129	0.109
-150.618	58.717	0.083	-0.082
-149.604	162.149	0.205	-0.286
-148.589	-54.305	0.227	-0.102
-147.574	112.164	-0.114	-0.137
-146.560	-177.142	-0.374	0.009
-145.545	-130.964	0.303	0.040
-144.531	-82.655	-0.227	-0.073
-143.516	800.000	0.105	-0.396
-142.502	-46.122	0.171	0.084
-141.487	-200.000	-0.023	-0.195
-140.472	-134.846	-0.363	0.044
-139.458	-16.860	-0.073	-0.046
-138.443	175.199	-0.189	0.272
-137.429	39.842	-0.227	0.202
-136.414	800.000	-0.022	-0.069
-135.399	683.593	0.101	0.262
-134.385	-29.456	0.176	0.100
-133.370	-124.492	0.230	-0.036
-132.356	112.688	0.242	0.292
-131.341	411.728	-0.088	0.185
-130.326	-94.523	0.060	0.016
-129.312	558.586	0.167	0.400
-128.297	23.627	0.035	0.029
-127.283	800.000	0.047	-0.173
-126.268	-200.000	-0.032	0.153
-125.253	14.504	0.135	-0.105
-124.239	-149.451	0.340	-0.027
-123.224	-200.000	0.002	0.158
-122.210	244.995	-0.095	0.158
-121.195	69.945	-0.194	0.199
-120.180	-14.135	-0.250	-0.161
-119.166	-25.756	-0.098	-0.057
-118.151	229.382	-0.084	-0.136
-117.137	-1.245	0.133	-0.093
-116.122	-41.921	0.279	0.142
-115.107	-41.376	0.031	0.016
-114.093	205.416	-0.127	-0.195
-113.078	-133.990	-0.172	0.021
-112.064	-200.000	0.008	0.040
-111.049	-200.000	0.021	-0.139
-110.034	-200.000	-0.036	0.287
-109.020	-33.934	-0.093	0.051
-108.005	-115.872	-0.287	0.053
-106.991	139.656	0.165	-0.215
-105.976	-145.658	0.250	0.022
-104.962	-200.000	0.006	-0.116
-103.947	-200.000	-0.020	0.260
-102.932	14.760	-0.094	0.073
-101.918	76.433	-0.175	-0.184
-100.903	-50.103	0.494	-0.232
-99.889	-12.282	0.247	0.160
-98.874	800.000	0.057	0.194
-97.859	-200.000	0.002	0.271
-96.845	-200.000	0.006	0.174
-95.830	-67.065	-0.168	0.066
-94.816	-14.049	-0.379	-0.243
-93.801	-143.711	0.135	0.013
-92.786	-40.973	-0.174	-0.089
-91.772	-107.396	-0.156	0.034
-90.757	-110.445	0.200	-0.041
-89.743	25.153	0.088	-0.073
-88.728	-23.818	-0.117	0.070
-87.713	521.705	-0.089	0.207
-86.699	69.292	0.104	-0.106
-85.684	487.006	0.038	0.085
-84.670	-77.709	-0.180	-0.062
-83.655	154.258	-0.217	-0.295
-82.640	52.667	-0.080	0.076
-81.626	2.757	-0.152	0.110
-80.611	-128.489	0.168	0.024
-79.597	63.945	-0.088	0.088
-78.582	-85.397	0.092	-0.029
-77.567	-47.134	-0.257	-0.124
-76.553	800.000	-0.033	-0.103
-75.538	-40.486	-0.284	0.146
-74.524	-140.383	0.228	-0.024
-73.509	-66.320	0.378	-0.149
-72.494	134.334	-0.202	0.260
-71.480	233.899	0.135	0.221
-70.465	-104.542	-0.170	0.039
-69.451	259.286	-0.096	0.165
-68.436	-13.892	0.306	0.196
-67.422	-96.654	0.177	0.046
-66.407	3.606	-0.354	-0.256
-65.392	-188.239	0.077	-0.001
-64.378	713.777	0.091	0.240
-63.363	-107.797	0.023	-0.005
-62.349	200.832	-0.162	0.247
-61.334	-10.264	-0.981	-0.645
-60.319	364.933	0.213	0.424
-59.305	530.027	-0.492	-1.152
-58.290	800.000	0.302	0.925
-57.276	258.437	0.769	1.314
-56.261	-200.000	95.492	557.972
-55.246	630.464	1380.896	3463.789
-54.232	187.790	2591.480	3836.011
-53.217	119.819	2204.150	2708.235
-52.203	44.894	1739.488	1587.291
-51.188	37.631	1549.711	1363.434
-50.173	35.298	1521.712	1322.673
-49.159	53.215	1572.121	1492.607
-48.144	56.803	1590.531	1535.199
-47.130	38.083	1546.690	1363.715
-46.115	34.793	1530.905	1326.952
-45.100	34.596	1528.250	1323.229
-44.086	34.619	1526.045	1321.424
-43.071	34.594	1524.203	1319.608
-42.057	34.590	1522.465	1318.023
-41.042	34.545	1520.881	1316.287
-40.027	34.594	1519.679	1315.531
-39.013	34.656	1518.124	1314.560
-37.998	34.691	1516.326	1313.190
-36.984	34.528	1516.127	1311.848
-35.969	34.586	1514.310	1310.623
-34.954	34.499	1513.202	1309.015
-33.940	34.556	1511.610	1307.976
-32.925	34.571	1510.103	1306.719
-31.911	34.621	1508.595	1305.709
-30.896	34.667	1507.314	1304.863
-29.881	34.650	1505.930	1303.493
-28.867	34.565	1504.631	1301.738
-27.852	34.689	1503.082	1301.191
-26.838	34.656	1502.009	1299.989
-25.823	34.639	1500.191	1298.245
-24.809	34.552	1499.406	1296.924
-23.794	34.692	1497.081	1295.814
-22.779	34.528	1496.631	1294.258
-21.765	34.663	1495.219	1293.901
-20.750	34.673	1493.729	1292.631
-19.736	34.619	1492.666	1291.293
-18.721	34.611	1492.064	1290.667
-17.706	34.573	1490.727	1289.203
-16.692	34.599	1489.638	1288.383
-15.677	34.545	1488.629	1287.094
-14.663	34.581	1487.483	1286.298
-13.648	34.569	1486.876	1285.641
-12.633	34.630	1485.234	1284.580
-11.619	34.559	1484.863	1283.733
-10.604	34.609	1483.965	1283.236
-9.590	34.477	1483.573	1281.959
-8.575	34.564	1482.428	1281.507
-7.560	34.585	1481.404	1280.713
-6.546	34.598	1480.435	1279.910
-5.531	34.628	1479.527	1279.273
-4.517	34.556	1478.516	1277.866
-3.502	34.563	1477.347	1276.851
-2.487	34.595	1476.684	1276.442
-1.473	34.563	1475.175	1274.874
-0.458	34.565	1474.307	1274.088
0.556	33.493	1465.477	1264.777
1.571	31.156	1439.261	1226.705
2.586	27.848	1377.550	1153.149
3.600	26.013	1294.429	1072.572
4.615	24.393	1247.683	1024.452
5.629	21.238	1190.837	960.372
6.644	12.901	1105.001	848.351
7.659	6.205	1062.812	782.658
8.673	5.297	1057.110	773.897
9.688	5.088	1054.158	770.632
10.702	4.853	1052.696	768.339
11.717	4.953	1050.775	767.358
12.731	7.663	1054.417	783.327
13.746	15.396	1064.758	829.296
14.761	19.687	1069.952	854.529
15.775	18.756	1067.078	847.568
16.790	17.414	1064.685	838.978
17.804	16.262	1062.318	831.367
18.819	15.325	1060.710	825.428
19.834	15.080	1058.475	822.410
20.848	14.682	1057.608	819.712
21.863	14.374	1057.154	817.774
22.877	14.091	1056.747	815.998
23.892	14.106	1055.607	815.118
24.907	14.011	1054.443	813.685
25.921	13.888	1053.637	812.388
26.936	13.868	1053.616	812.203
27.950	14.019	1052.626	812.105
28.965	14.072	1051.407	811.353
29.980	14.034	1050.023	810.027
30.994	14.240	1048.842	810.046
32.009	14.250	1048.046	809.408
33.023	14.164	1047.465	808.469
34.038	14.272	1045.895	807.713
35.053	14.120	1045.917	806.918
36.067	14.108	1044.436	805.649
37.082	14.060	1043.827	804.873
38.096	14.069	1043.268	804.415
39.111	14.064	1042.270	803.548
40.126	14.135	1041.509	803.233
41.140	14.095	1040.368	802.090
42.155	14.013	1039.087	800.640
43.169	13.846	1038.189	799.072
44.184	13.780	1037.238	797.950
45.199	13.881	1036.051	797.451
46.213	13.792	1034.988	796.138
47.228	13.830	1033.980	795.473
48.242	13.964	1033.271	795.498
49.257	13.976	1032.690	795.037
50.271	14.021	1031.356	794.158
51.286	13.989	1030.768	793.480
52.301	14.022	1029.897	792.898
53.315	14.024	1028.913	792.079
54.330	13.969	1027.972	791.022
55.344	13.891	1027.002	789.833
56.359	13.976	1026.159	789.522
57.374	13.955	1025.028	788.484
58.388	13.950	1024.045	787.631
59.403	13.913	1023.137	786.691
60.417	13.766	1022.932	785.767
61.432	13.751	1022.327	785.160
62.447	13.827	1021.545	784.850
63.461	13.874	1020.314	784.054
64.476	13.772	1019.525	782.899
65.490	13.758	1018.671	782.108
66.505	13.763	1017.900	781.469
67.520	13.853	1016.881	781.043
68.534	13.912	1015.912	780.504
69.549	13.896	1015.691	780.191
70.563	13.830	1014.791	779.121
71.578	13.753	1013.969	778.060
72.593	13.764	1013.013	777.311
73.607	13.648	1012.057	775.965
74.622	13.701	1010.982	775.321
75.636	13.697	1010.387	774.776
76.651	13.677	1009.453	773.898
77.666	13.581	1009.209	773.196
78.680	13.640	1007.701	772.246
79.695	13.807	1007.378	772.708
80.709	13.789	1007.078	772.323
81.724	13.831	1005.971	771.605
82.739	13.892	1005.282	771.290
83.753	13.873	1004.913	770.852
84.768	14.027	1003.525	770.430
85.782	14.223	1002.755	770.678
86.797	14.090	1003.115	770.270
87.812	14.035	1001.842	768.970
88.826	14.015	1001.223	768.335
89.841	14.042	1000.360	767.731
90.855	14.040	999.525	767.010
91.870	14.105	998.564	766.505
92.884	14.199	997.997	766.436
93.899	14.240	997.216	765.956
94.914	14.190	996.671	765.241
95.928	14.204	995.829	764.593
96.943	14.226	995.108	764.071
97.957	14.148	994.623	763.275
98.972	13.993	994.237	762.200
99.987	14.142	993.025	761.884
101.001	14.053	992.378	760.915
102.016	14.130	991.154	760.260
103.030	14.051	990.494	759.327
104.045	14.024	989.640	758.482
105.060	14.046	988.648	757.752
106.074	14.077	987.529	756.969
107.089	13.881	986.730	755.399
108.103	13.821	985.891	754.418
109.118	13.817	985.080	753.712
110.133	13.844	983.731	752.735
111.147	13.773	983.269	751.993
112.162	13.824	982.485	751.560
113.176	13.885	981.650	751.128
114.191	13.938	980.414	750.358
115.206	13.866	979.924	749.589
116.220	13.998	978.871	749.312
117.235	13.929	978.156	748.390
118.249	13.959	977.529	747.978
119.264	13.942	976.551	747.085
120.279	13.853	975.494	745.812
121.293	13.843	975.211	745.487
122.308	13.906	974.053	744.815
123.322	13.833	973.125	743.713
124.337	13.901	971.757	742.909
125.352	13.792	971.103	741.853
126.366	13.724	970.449	740.984
127.381	13.670	969.557	739.999
128.395	13.801	968.267	739.532
129.410	13.769	967.555	738.779
130.424	13.865	966.464	738.309
131.439	13.932	965.633	737.904
132.454	13.811	965.071	736.873
133.468	13.896	964.627	736.847
134.483	13.937	963.688	736.246
135.497	13.924	963.263	735.797
136.512	13.865	962.081	734.570
137.527	13.964	961.361	734.393
138.541	14.003	960.353	733.727
139.556	14.068	959.592	733.370
140.570	14.006	959.091	732.649
141.585	14.055	958.279	732.180
142.600	14.083	957.819	731.887
143.614	14.097	956.709	731.035
144.629	14.224	955.804	730.834
145.643	14.251	955.047	730.313
146.658	14.293	954.159	729.753
147.673	14.155	953.331	728.450
148.687	14.136	952.342	727.545
149.702	13.981	951.433	726.108
150.716	14.038	950.837	725.842
151.731	13.930	950.328	724.915
152.746	14.013	949.168	724.328
153.760	14.040	948.195	723.641
154.775	14.071	947.751	723.373
155.789	14.164	947.053	723.180
156.804	14.184	946.227	722.571
157.819	14.174	945.611	721.994
158.833	14.148	944.670	721.098
159.848	14.205	944.493	721.147
160.862	14.216	943.474	720.354
161.877	14.295	942.865	720.166
162.892	14.292	941.742	719.231
163.906	14.097	941.369	718.043
164.921	14.099	940.449	717.285
165.935	14.204	939.385	716.861
166.950	14.201	938.059	715.774
167.964	14.230	937.403	715.334
168.979	14.139	936.484	714.180
169.994	14.130	935.737	713.505
171.008	14.026	935.284	712.652
172.023	14.239	934.074	712.581
173.037	14.303	933.316	712.214
174.052	14.431	932.505	712.075
175.067	14.384	931.764	711.246
176.081	14.227	930.978	709.916
177.096	14.150	930.483	709.148
178.110	14.268	929.396	708.756
179.125	14.201	929.006	708.111
180.140	14.173	927.960	707.133
181.154	14.217	927.436	706.860
182.169	14.263	926.805	706.512
183.183	14.325	925.889	706.014
184.198	14.331	925.463	705.650
185.213	14.302	924.755	704.926
186.227	14.432	923.965	704.810
187.242	14.318	924.125	704.389
188.256	14.405	923.242	704.023
189.271	14.587	922.113	703.865
190.286	14.587	921.618	703.426
191.300	14.390	920.632	701.780
192.315	14.209	919.689	700.239
193.329	14.287	918.706	699.755
194.344	14.150	918.181	698.720
195.359	14.234	917.569	698.543
196.373	14.275	917.486	698.590
197.388	14.458	916.655	698.663
198.402	14.583	916.256	698.819
199.417	14.561	916.360	698.746
200.432	14.534	915.987	698.284
201.446	14.839	914.891	698.666
202.461	14.725	914.499	697.827
203.475	14.800	913.894	697.619
204.490	14.696	913.349	696.707
205.504	14.662	912.612	695.939
206.519	14.489	911.590	694.379
207.534	14.701	910.575	694.427
208.548	14.700	909.835	693.797
209.563	14.666	909.285	693.174
210.577	14.688	909.062	693.033
211.592	14.676	908.041	692.145
212.607	14.685	907.896	692.009
213.621	14.880	907.011	692.080
214.636	14.946	906.096	691.596
215.650	14.809	905.690	690.657
216.665	14.891	905.257	690.606
217.680	14.729	904.712	689.459
218.694	14.897	904.007	689.555
219.709	15.040	903.604	689.775
220.723	14.983	902.801	688.866
221.738	14.794	902.127	687.511
222.753	14.824	901.621	687.191
223.767	14.782	900.898	686.404
224.782	15.006	899.567	686.251
225.796	15.031	899.272	686.065
226.811	15.062	898.698	685.696
227.826	15.036	897.853	684.883
228.840	14.902	897.115	683.710
229.855	14.841	896.356	682.823
230.869	14.888	895.840	682.560
231.884	14.923	895.210	682.165
232.899	14.983	894.259	681.626
233.913	14.991	893.638	681.122
234.928	14.867	892.972	680.051
235.942	14.857	892.216	679.374
236.957	14.879	891.623	678.950
237.972	14.947	890.938	678.645
238.986	14.871	890.468	677.919
240.001	15.133	889.353	678.074
241.015	14.935	889.177	677.076
242.030	14.876	888.753	676.455
243.045	14.999	887.585	676.003
244.059	15.110	887.306	676.178
245.074	15.035	886.615	675.291
246.088	15.007	885.944	674.606
247.103	15.190	885.405	674.873
248.117	15.086	884.872	673.989
249.132	15.171	884.165	673.734
250.147	15.513	883.625	674.636
251.161	15.408	883.151	673.793
252.176	15.525	882.297	673.551
253.190	15.443	881.652	672.671
254.205	15.508	881.510	672.764
255.220	15.546	880.503	672.085
256.234	15.478	879.687	671.131
257.249	15.457	879.537	670.874
258.263	15.568	878.775	670.675
259.278	15.518	878.290	670.048
260.293	15.669	877.749	670.177
261.307	15.678	877.004	669.584
262.322	15.697	876.517	669.231
263.336	15.659	875.794	668.469
264.351	15.775	875.222	668.432
265.366	15.712	874.329	667.443
266.380	15.686	874.080	667.089
267.395	15.590	873.799	666.434
268.409	15.702	872.464	665.802
269.424	15.735	871.741	665.320
270.439	15.761	870.854	664.689
271.453	15.729	870.672	664.365
272.468	15.652	869.429	663.052
273.482	15.716	868.934	662.868
274.497	15.717	868.342	662.362
275.512	15.650	868.033	661.804
276.526	15.734	866.741	661.091
277.541	15.668	866.004	660.210
278.555	15.752	865.618	660.188
279.570	15.703	865.210	659.625
280.585	15.833	864.784	659.755
281.599	15.887	864.214	659.473
282.614	15.957	863.695	659.293
283.628	15.749	863.447	658.231
284.643	15.854	862.586	657.924
285.657	15.777	861.781	656.952
286.672	15.902	861.282	657.003
287.687	16.087	860.699	657.221
288.701	15.877	860.391	656.110
289.716	15.973	859.762	655.946
290.730	15.925	859.002	655.122
291.745	15.925	858.911	654.994
292.760	15.916	858.255	654.399
293.774	16.034	857.150	653.959
294.789	16.033	856.802	653.629
295.803	16.108	856.145	653.361
296.818	16.008	855.741	652.610
297.833	16.026	854.796	651.897
298.847	16.024	854.298	651.453
299.862	15.969	853.718	650.740
300.876	15.994	853.089	650.302
301.891	16.076	852.150	649.842
302.906	16.027	851.753	649.296
303.920	16.222	850.793	649.256
304.935	16.282	850.304	649.057
305.949	16.337	849.867	648.876
306.964	16.317	849.288	648.299
307.979	16.279	848.514	647.508
308.993	16.284	848.010	647.084
310.008	16.363	847.271	646.765
311.022	16.459	847.044	646.900
312.037	16.320	846.725	646.070
313.052	16.235	846.146	645.246
314.066	16.283	845.340	644.757
315.081	16.302	844.337	644.006
316.095	16.321	843.616	643.473
317.110	16.273	843.499	643.142
318.125	16.214	842.903	642.410
319.139	16.181	842.623	642.013
320.154	16.300	841.834	641.807
321.168	16.312	841.453	641.505
322.183	16.440	840.588	641.274
323.197	16.214	840.482	640.280
324.212	16.270	840.204	640.224
325.227	16.415	839.178	639.932
326.241	16.335	838.897	639.359
327.256	16.376	838.168	638.902
328.270	16.518	837.164	638.616
329.285	16.411	837.161	638.154
330.300	16.449	836.283	637.573
331.314	16.320	835.985	636.802
332.329	16.336	835.273	636.265
333.343	16.548	834.764	636.617
334.358	16.556	834.061	636.057
335.373	16.645	833.421	635.845
336.387	16.392	833.269	634.722
337.402	16.480	832.689	634.555
338.416	16.578	831.832	634.214
339.431	16.793	831.126	634.425
340.446	16.760	830.819	634.010
341.460	16.772	830.416	633.690
342.475	16.786	830.084	633.435
343.489	16.809	829.430	632.965
344.504	16.821	828.782	632.460
345.519	16.925	828.047	632.229
346.533	17.068	827.317	632.150
347.548	17.010	827.295	631.859
348.562	16.841	826.761	630.770
349.577	16.720	826.235	629.860
350.592	16.823	825.475	629.610
351.606	16.695	825.114	628.804
352.621	16.819	824.724	628.909
353.635	16.828	824.047	628.371
354.650	16.711	823.738	627.645
355.665	16.855	823.102	627.639
356.679	16.962	822.861	627.796
357.694	16.921	822.323	627.177
358.708	16.941	821.732	626.745
359.723	16.839	821.241	625.939
360.738	16.744	820.731	625.146
361.752	16.814	820.332	625.044
362.767	17.012	819.621	625.176
363.781	17.000	819.374	624.888
364.796	16.993	819.010	624.532
365.810	17.168	818.584	624.792
366.825	17.262	817.965	624.609
367.840	17.221	817.932	624.381
368.854	17.332	817.089	624.087
369.869	17.198	816.650	623.205
370.883	17.135	816.064	622.473
371.898	17.136	815.870	622.276
372.913	17.200	815.140	621.898
373.927	17.229	814.382	621.368
374.942	17.151	814.127	620.836
375.956	17.319	813.233	620.710
376.971	17.275	812.698	620.088
377.986	17.339	812.268	619.939
379.000	17.387	811.629	619.571
380.015	17.380	811.464	619.362
381.029	17.439	810.458	618.755
382.044	17.529	809.800	618.525
383.059	17.395	809.767	617.958
384.073	17.440	809.191	617.629
385.088	17.504	808.542	617.310
386.102	17.364	808.283	616.550
387.117	17.311	807.517	615.721
388.132	17.328	806.896	615.254
389.146	17.373	806.821	615.305
390.161	17.158	806.279	614.059
391.175	17.419	805.604	614.434
392.190	17.573	805.426	614.798
393.205	17.484	804.951	614.059
394.219	17.494	804.667	613.827
395.234	17.308	804.408	612.903
396.248	17.375	803.470	612.376
397.263	17.397	802.883	611.954
398.278	17.296	802.502	611.244
399.292	17.338	802.073	611.016
400.307	17.268	801.865	610.552
401.321	17.271	801.704	610.387
402.336	17.269	801.078	609.849
403.350	17.366	800.552	609.740
404.365	17.455	800.066	609.637
405.380	17.534	799.889	609.729
406.394	17.556	799.266	609.282
407.409	17.784	798.501	609.457
408.423	17.732	798.159	608.957
409.438	17.845	797.560	608.848
410.453	17.608	797.693	608.053
411.467	17.860	796.778	608.197
412.482	17.875	796.360	607.880
413.496	18.026	795.905	608.015
414.511	17.815	795.775	607.112
415.526	17.981	795.494	607.432
416.540	18.005	794.754	606.899
417.555	18.048	794.180	606.560
418.569	17.885	793.983	605.778
419.584	17.933	793.142	605.253
420.599	17.816	793.459	605.025
421.613	152.179	1368.682	1788.503
422.628	131.624	1452.469	1788.647
