DTS Sentinel unit serial number:	SN413079Multiplexer serial number:	ORYXHardware model number:	OX4-SRSoftware version number:	ORYX F/W v4.00 Oryx Data Collector v3.7.2.0data status	okinstallation	princeton_trtdifferential loss correction	single-endedforward channel	channel 3reverse channel	N/Adate	2019/09/17time	14:44:35forward acquisition time	60.00reverse acquisition time	0.00gamma	496.2192k internal	0.2297k external	0.2297temperature offset calibration	0.9955default loss term (dB/km)	0.3790temperature slope calibration	1.0000multiplexer offset coefficient	1.0000multiplexer slope coefficient	1.0000fibre end	0.00T internal ref (°C)	36.92T ext. ref 1 (°C)	0.39T ext. ref 2 (°C)	33.85length (m)	temperature (°C)	Stokes	anti-Stokes-747.200	-180.199	-0.390	0.008
-746.185	183.849	0.131	0.198
-745.171	180.293	0.109	-0.164
-744.156	59.173	-0.233	0.234
-743.142	-41.416	-0.149	0.078
-742.127	-200.000	0.004	0.303
-741.112	-186.744	-0.450	0.006
-740.098	-200.000	-0.021	0.176
-739.083	18.971	0.093	0.077
-738.069	-200.000	0.059	0.389
-737.054	32.975	0.072	0.064
-736.039	-43.850	0.202	0.104
-735.025	-134.688	-0.391	0.049
-734.010	181.052	-0.060	-0.090
-732.996	34.957	0.302	-0.270
-731.981	-137.220	-0.289	0.034
-730.966	4.621	-0.128	-0.096
-729.952	347.929	-0.033	0.066
-728.937	13.305	-0.296	0.234
-727.923	103.528	0.164	0.196
-726.908	-200.000	-0.014	0.084
-725.894	-110.404	-0.033	0.007
-724.879	800.000	0.049	-0.212
-723.864	800.000	-0.085	-0.242
-722.850	-158.563	-0.503	0.030
-721.835	121.337	-0.279	-0.355
-720.821	-68.634	0.396	-0.157
-719.806	44.211	-0.103	-0.097
-718.791	82.054	-0.181	-0.200
-717.777	39.173	-0.392	-0.358
-716.762	64.683	-0.052	-0.054
-715.748	800.000	0.012	0.051
-714.733	621.262	0.079	0.202
-713.718	21.176	0.133	0.110
-712.704	152.919	0.168	-0.234
-711.689	73.952	-0.096	0.103
-710.675	-135.313	0.030	0.004
-709.660	-200.000	-0.041	-0.353
-708.645	-162.422	0.098	-0.005
-707.631	10.706	-0.274	0.213
-706.616	-60.643	-0.258	0.112
-705.602	800.000	-0.059	0.190
-704.587	-200.000	-0.029	-0.249
-703.572	-200.000	0.010	-0.486
-702.558	415.284	0.062	0.136
-701.543	98.917	0.198	-0.233
-700.529	-73.235	-0.144	-0.054
-699.514	-112.110	0.385	-0.079
-698.499	-6.456	0.075	-0.052
-697.485	800.000	-0.043	-0.127
-696.470	259.208	-0.061	-0.108
-695.456	-200.000	0.029	-0.252
-694.441	377.374	-0.088	0.183
-693.426	-200.000	-0.025	-0.168
-692.412	-200.000	-0.010	0.060
-691.397	417.810	-0.202	-0.439
-690.383	-132.246	-0.149	0.020
-689.368	-144.143	0.091	0.009
-688.354	-164.146	-0.266	-0.013
-687.339	7.695	-0.315	-0.240
-686.324	-19.288	0.267	-0.169
-685.310	43.735	-0.102	-0.096
-684.295	162.644	-0.106	0.152
-683.281	236.153	0.242	0.408
-682.266	-130.793	-0.478	0.065
-681.251	800.000	-0.027	-0.094
-680.237	61.145	0.259	-0.263
-679.222	27.331	0.080	-0.069
-678.208	-30.474	-0.241	0.139
-677.193	124.785	-0.115	0.147
-676.178	685.664	-0.078	-0.207
-675.164	-93.689	0.235	-0.066
-674.149	-42.163	-0.335	0.174
-673.135	-152.434	-0.161	0.012
-672.120	-26.595	0.314	0.187
-671.105	715.176	0.056	0.150
-670.091	-36.090	0.060	0.033
-669.076	609.608	0.066	0.167
-668.062	800.000	0.054	-0.168
-667.047	-34.700	0.185	0.103
-666.032	227.144	0.007	-0.012
-665.018	800.000	-0.031	0.092
-664.003	-18.597	0.073	-0.046
-662.989	-200.000	-0.001	-0.046
-661.974	107.056	0.182	0.220
-660.959	555.437	0.046	0.113
-659.945	234.869	-0.190	0.319
-658.930	800.000	-0.062	-0.200
-657.916	-157.318	0.134	0.008
-656.901	567.341	-0.132	-0.325
-655.886	133.360	0.271	0.357
-654.872	-125.922	-0.208	0.032
-653.857	-14.573	-0.077	-0.050
-652.843	-200.000	-0.068	-0.314
-651.828	32.672	-0.267	-0.235
-650.814	-92.273	0.163	-0.047
-649.799	142.217	-0.110	-0.149
-648.784	-168.984	-0.287	0.011
-647.770	-94.574	0.165	-0.046
-646.755	-200.000	0.015	-0.356
-645.741	-91.023	0.297	0.087
-644.726	570.661	0.175	-0.433
-643.711	800.000	0.042	-0.150
-642.697	-200.000	-0.032	-0.164
-641.682	554.693	-0.084	-0.205
-640.668	800.000	0.028	0.123
-639.653	45.970	0.132	0.125
-638.638	159.828	-0.074	0.105
-637.624	-200.000	-0.027	-0.200
-636.609	156.326	-0.191	0.269
-635.595	-72.195	0.173	0.065
-634.580	173.483	-0.124	0.182
-633.565	-200.000	-0.003	-0.029
-632.551	201.523	0.033	0.052
-631.536	-62.646	-0.140	-0.059
-630.522	243.120	-0.055	0.094
-629.507	104.694	-0.176	0.211
-628.492	-76.349	-0.166	-0.059
-627.478	-142.878	-0.557	-0.055
-626.463	-200.000	0.029	0.307
-625.449	-40.867	-0.233	0.123
-624.434	5.227	-0.196	-0.147
-623.419	-43.289	0.136	0.070
-622.405	163.918	0.172	0.246
-621.390	800.000	0.072	-0.308
-620.376	-162.099	0.155	0.008
-619.361	-180.463	-0.145	0.003
-618.346	3.368	0.190	-0.141
-617.332	-34.593	-0.540	0.301
-616.317	57.986	-0.316	0.315
-615.303	-200.000	-0.025	0.122
-614.288	79.239	-0.093	-0.101
-613.273	-42.330	0.286	0.148
-612.259	-200.000	0.010	0.105
-611.244	511.119	-0.061	-0.145
-610.230	88.750	-0.294	0.332
-609.215	-146.208	-0.172	0.015
-608.201	-8.924	0.189	-0.129
-607.186	-91.357	-0.259	-0.075
-606.171	-127.999	-0.132	0.019
-605.157	-75.243	0.124	0.045
-604.142	92.705	-0.146	0.168
-603.128	-200.000	0.033	0.435
-602.113	-112.142	-0.332	0.068
-601.098	-200.000	0.063	-0.311
-600.084	800.000	-0.051	0.194
-599.069	724.252	0.119	0.321
-598.055	28.764	-0.157	-0.135
-597.040	86.172	0.076	0.085
-596.025	94.010	-0.233	-0.269
-595.011	-39.603	0.424	-0.225
-593.996	-200.000	-0.032	0.210
-592.982	-200.000	0.034	0.230
-591.967	800.000	-0.048	0.139
-590.952	212.085	-0.154	-0.246
-589.938	800.000	0.129	-0.380
-588.923	-200.000	-0.023	-0.324
-587.909	194.339	0.141	-0.217
-586.894	122.988	0.153	-0.195
-585.879	164.005	0.157	-0.225
-584.865	-193.818	0.060	-0.001
-583.850	-200.000	-0.014	-0.278
-582.836	142.181	0.083	0.112
-581.821	93.571	0.111	0.127
-580.806	-14.009	-0.025	0.017
-579.792	175.501	-0.119	0.175
-578.777	66.229	0.159	-0.164
-577.763	33.880	0.207	-0.183
-576.748	198.590	0.159	0.247
-575.733	19.110	0.060	0.048
-574.719	334.521	-0.042	-0.082
-573.704	650.873	-0.183	-0.477
-572.690	113.949	0.066	-0.082
-571.675	89.103	-0.038	-0.043
-570.661	-27.260	0.298	-0.176
-569.646	-124.225	0.147	-0.023
-568.631	-73.186	0.298	-0.111
-567.617	-102.468	0.046	-0.011
-566.602	387.341	-0.032	-0.068
-565.588	136.361	-0.059	0.078
-564.573	-40.922	-0.241	0.127
-563.558	25.792	0.309	0.261
-562.544	-200.000	0.008	-0.046
-561.529	87.454	-0.083	-0.093
-560.515	-102.546	0.258	0.062
-559.500	185.002	0.064	0.096
-558.485	244.396	0.033	0.056
-557.471	-186.195	-0.357	0.005
-556.456	-34.305	-0.096	0.053
-555.442	-115.280	-0.286	-0.055
-554.427	-115.627	-0.091	0.017
-553.412	800.000	-0.034	0.120
-552.398	-111.398	-0.131	0.027
-551.383	-183.591	-0.183	0.003
-550.369	800.000	0.086	-0.331
-549.354	-93.538	0.379	0.106
-548.339	144.128	0.113	-0.153
-547.325	-200.000	0.010	0.065
-546.310	-101.477	0.266	0.066
-545.296	50.732	0.175	0.168
-544.281	440.363	0.073	-0.162
-543.266	99.469	0.117	0.138
-542.252	-200.000	0.021	0.107
-541.237	800.000	0.013	-0.048
-540.223	800.000	0.115	-0.487
-539.208	143.563	-0.134	-0.180
-538.193	-200.000	-0.005	-0.331
-537.179	277.680	0.148	-0.266
-536.164	-64.559	-0.158	0.065
-535.150	82.305	0.111	0.123
-534.135	-200.000	0.047	-0.215
-533.121	-52.810	-0.121	-0.056
-532.106	-1.692	-0.233	0.166
-531.091	101.467	0.317	0.374
-530.077	128.294	-0.214	0.276
-529.062	85.601	0.057	0.063
-528.048	728.740	-0.073	-0.198
-527.033	-65.459	0.126	-0.051
-526.018	800.000	0.086	0.296
-525.004	-121.263	0.117	0.020
-523.989	84.410	0.099	-0.109
-522.975	120.899	0.049	0.062
-521.960	-39.020	-0.112	-0.060
-520.945	-75.255	-0.049	-0.018
-519.931	153.241	0.088	0.123
-518.916	-32.559	-0.347	0.196
-517.902	-80.270	-0.079	0.027
-516.887	-133.180	0.224	0.029
-515.872	-200.000	-0.015	-0.124
-514.858	117.431	0.138	-0.172
-513.843	-161.446	-0.220	-0.012
-512.829	-200.000	-0.004	-0.139
-511.814	-103.114	-0.254	-0.061
-510.799	-99.980	-0.143	0.036
-509.785	-7.595	-0.226	0.155
-508.770	-9.804	0.205	-0.138
-507.756	419.427	0.172	0.372
-506.741	-81.031	0.277	-0.093
-505.726	-95.222	0.114	0.031
-504.712	-79.357	0.335	-0.115
-503.697	-80.175	-0.201	0.068
-502.683	182.401	0.119	0.177
-501.668	-13.281	0.196	0.129
-500.653	-144.387	0.113	-0.011
-499.639	-37.034	0.218	0.118
-498.624	-200.000	-0.054	0.274
-497.610	-105.163	-0.255	0.059
-496.595	17.266	0.173	0.139
-495.581	-137.823	-0.431	0.049
-494.566	515.374	0.204	0.483
-493.551	1.359	-0.106	-0.077
-492.537	-104.571	0.187	0.044
-491.522	-183.471	0.275	-0.005
-490.508	800.000	0.042	0.160
-489.493	-19.327	-0.273	-0.171
-488.478	800.000	-0.135	-0.385
-487.464	-16.346	-0.223	0.143
-486.449	243.111	-0.069	0.117
-485.435	129.958	0.088	0.114
-484.420	107.618	-0.153	-0.184
-483.405	-200.000	-0.009	-0.240
-482.391	290.645	-0.148	-0.272
-481.376	659.713	-0.102	-0.264
-480.362	50.572	-0.063	-0.060
-479.347	-149.437	-0.190	-0.015
-478.332	96.671	-0.003	-0.004
-477.318	102.624	0.125	-0.148
-476.303	-64.439	0.188	0.077
-475.289	-200.000	0.011	-0.079
-474.274	-189.211	0.092	0.001
-473.259	-28.752	-0.253	0.147
-472.245	43.611	-0.176	0.162
-471.230	112.945	-0.123	0.151
-470.216	64.799	0.341	-0.348
-469.201	167.441	0.205	-0.294
-468.186	77.426	0.187	-0.201
-467.172	105.735	-0.197	0.235
-466.157	-83.810	-0.516	0.166
-465.143	800.000	0.153	0.468
-464.128	800.000	-0.133	-0.494
-463.113	48.281	-0.072	0.069
-462.099	-43.818	0.199	-0.101
-461.084	-87.214	0.074	-0.023
-460.070	181.301	0.057	0.085
-459.055	-12.705	0.043	0.028
-458.040	-158.451	0.186	0.011
-457.026	-17.515	0.060	0.038
-456.011	-84.838	-0.122	0.039
-454.997	-200.000	-0.026	-0.265
-453.982	127.201	0.054	0.069
-452.968	-56.939	0.209	0.093
-451.953	295.670	0.119	0.220
-450.938	451.559	0.028	-0.063
-449.924	239.177	-0.126	0.211
-448.909	-88.115	0.420	-0.127
-447.895	-33.224	-0.039	0.022
-446.880	-128.615	0.228	-0.033
-445.865	-101.903	0.143	0.035
-444.851	800.000	0.060	0.236
-443.836	21.546	0.148	0.122
-442.822	-200.000	0.008	-0.154
-441.807	-62.839	0.315	-0.132
-440.792	-200.000	0.024	0.158
-439.778	-121.830	0.236	0.039
-438.763	294.902	-0.108	0.199
-437.749	-96.874	0.092	-0.024
-436.734	-30.851	-0.221	-0.126
-435.719	-99.381	0.069	-0.017
-434.705	-152.142	-0.658	-0.048
-433.690	301.228	0.153	0.286
-432.676	-200.000	-0.013	-0.089
-431.661	244.094	0.080	0.135
-430.646	488.517	0.109	-0.250
-429.632	41.887	-0.058	-0.053
-428.617	32.994	-0.109	-0.096
-427.603	-186.606	-0.161	-0.002
-426.588	-20.957	0.196	0.121
-425.573	442.553	-0.056	0.125
-424.559	106.096	0.158	-0.188
-423.544	-75.342	0.230	0.083
-422.530	-94.475	-0.141	0.039
-421.515	124.590	-0.212	-0.268
-420.500	800.000	-0.029	0.106
-419.486	673.742	-0.055	-0.144
-418.471	-200.000	-0.008	-0.064
-417.457	249.382	-0.054	-0.093
-416.442	-152.921	0.091	0.006
-415.428	600.270	0.122	0.307
-414.413	146.092	0.064	-0.087
-413.398	368.114	0.139	0.283
-412.384	-126.491	-0.140	0.021
-411.369	-84.483	-0.141	0.045
-410.355	214.524	-0.150	0.239
-409.340	249.729	-0.081	-0.139
-408.325	-200.000	-0.000	-0.195
-407.311	-200.000	-0.052	-0.237
-406.296	-127.167	-0.237	-0.035
-405.282	-98.781	-0.340	0.087
-404.267	-137.220	0.214	0.025
-403.252	147.153	-0.054	-0.073
-402.238	-195.721	-0.358	0.003
-401.223	-12.934	-0.291	0.191
-400.209	536.505	0.133	0.319
-399.194	-5.584	-0.193	0.134
-398.179	-200.000	-0.021	-0.317
-397.165	-81.495	0.341	-0.113
-396.150	-63.334	-0.165	-0.068
-395.136	-200.000	-0.095	-0.494
-394.121	681.971	0.092	0.242
-393.106	-175.485	-0.192	0.005
-392.092	-200.000	-0.023	0.211
-391.077	-200.000	-0.028	0.293
-390.063	103.497	-0.039	-0.047
-389.048	81.930	-0.152	-0.166
-388.033	-104.599	0.118	-0.027
-387.019	-37.593	-0.193	0.104
-386.004	-12.509	-0.119	-0.078
-384.990	332.786	-0.118	-0.230
-383.975	37.536	-0.260	0.232
-382.960	-32.538	-0.146	-0.082
-381.946	-121.950	-0.106	0.018
-380.931	800.000	0.081	0.309
-379.917	-11.994	-0.051	-0.033
-378.902	-62.622	0.127	-0.053
-377.888	-135.654	-0.218	0.026
-376.873	800.000	-0.038	0.136
-375.858	325.479	0.102	0.197
-374.844	30.481	-0.234	-0.201
-373.829	72.909	-0.157	0.165
-372.815	181.478	0.121	-0.179
-371.800	-38.024	0.213	-0.114
-370.785	-200.000	-0.001	-0.183
-369.771	-87.283	0.274	0.084
-368.756	1.796	-0.303	0.220
-367.742	800.000	0.056	-0.160
-366.727	-200.000	-0.004	0.109
-365.712	-16.811	0.129	0.082
-364.698	50.166	-0.115	-0.109
-363.683	-120.589	-0.192	0.033
-362.669	-38.476	0.191	0.102
-361.654	212.832	0.159	-0.252
-360.639	31.682	0.164	-0.142
-359.625	-200.000	0.057	-0.289
-358.610	169.203	-0.173	-0.249
-357.596	205.788	0.017	-0.026
-356.581	-118.265	-0.190	0.034
-355.566	53.136	0.175	-0.169
-354.552	746.308	-0.099	0.269
-353.537	116.291	0.011	0.013
-352.523	254.138	0.049	-0.084
-351.508	146.114	-0.201	-0.272
-350.493	40.366	-0.096	-0.087
-349.479	-200.000	0.024	0.288
-348.464	43.052	0.348	0.319
-347.450	-46.392	0.073	-0.036
-346.435	64.864	0.063	0.064
-345.420	519.727	-0.011	0.027
-344.406	800.000	-0.080	0.251
-343.391	455.347	-0.233	0.519
-342.377	142.619	0.152	0.203
-341.362	-26.791	0.190	0.111
-340.348	-85.917	0.283	0.088
-339.333	800.000	-0.023	0.078
-338.318	-61.123	0.234	-0.099
-337.304	800.000	0.050	-0.161
-336.289	800.000	0.053	-0.198
-335.275	493.755	-0.094	0.217
-334.260	-200.000	-0.018	-0.167
-333.245	1.621	0.297	0.215
-332.231	75.159	-0.149	-0.157
-331.216	-93.069	0.367	-0.103
-330.202	188.565	-0.140	-0.210
-329.187	-200.000	0.011	0.353
-328.172	-159.746	0.130	-0.007
-327.158	-143.239	-0.393	-0.038
-326.143	-83.208	-0.231	0.075
-325.129	68.637	0.225	0.232
-324.114	800.000	0.041	0.135
-323.099	-150.841	0.194	0.015
-322.085	-187.271	-0.169	-0.002
-321.070	-164.873	0.358	-0.016
-320.056	-60.469	0.155	0.066
-319.041	59.120	0.448	0.443
-318.026	72.689	-0.143	0.150
-317.012	-133.909	-0.123	0.015
-315.997	-140.610	0.279	0.029
-314.983	550.682	-0.031	-0.075
-313.968	-70.824	0.042	0.016
-312.953	20.242	0.221	0.179
-311.939	-200.000	0.013	-0.248
-310.924	-200.000	0.008	-0.041
-309.910	-83.151	0.042	0.013
-308.895	36.527	-0.292	-0.259
-307.880	-56.355	0.252	-0.112
-306.866	730.479	-0.071	0.191
-305.851	-152.647	-0.140	-0.010
-304.837	-136.921	0.248	-0.029
-303.822	-54.900	0.162	-0.073
-302.807	-200.000	0.009	-0.223
-301.793	-200.000	-0.064	0.402
-300.778	-159.919	0.017	-0.001
-299.764	-40.822	0.212	-0.110
-298.749	-200.000	0.000	-0.157
-297.735	-109.222	-0.203	-0.043
-296.720	800.000	0.015	-0.054
-295.705	-200.000	0.022	-0.211
-294.691	215.638	0.089	0.141
-293.676	-26.193	-0.245	-0.145
-292.662	-200.000	0.016	0.177
-291.647	-93.881	-0.179	0.050
-290.632	78.039	0.151	-0.162
-289.618	-118.401	0.389	0.069
-288.603	-63.499	0.111	-0.046
-287.589	421.302	-0.029	-0.063
-286.574	618.087	0.027	-0.067
-285.559	-12.600	0.329	0.216
-284.545	-73.916	-0.047	0.017
-283.530	800.000	-0.087	0.284
-282.516	14.046	-0.226	0.177
-281.501	378.598	-0.038	0.079
-280.486	-200.000	-0.050	0.366
-279.472	-110.947	0.236	-0.049
-278.457	-98.650	-0.126	-0.032
-277.443	-55.512	-0.095	-0.043
-276.428	800.000	-0.104	-0.363
-275.413	735.920	0.081	0.218
-274.399	720.012	0.080	0.212
-273.384	43.070	-0.144	0.131
-272.370	800.000	-0.060	-0.226
-271.355	-200.000	-0.011	0.136
-270.340	62.358	-0.179	-0.179
-269.326	670.920	-0.048	0.124
-268.311	71.923	0.169	0.176
-267.297	-98.283	-0.302	0.078
-266.282	-123.649	-0.439	0.070
-265.267	-71.053	-0.360	0.136
-264.253	133.929	-0.089	-0.115
-263.238	800.000	-0.047	0.181
-262.224	106.821	0.094	0.112
-261.209	800.000	-0.054	-0.186
-260.195	122.689	0.179	-0.224
-259.180	-59.929	-0.231	0.099
-258.165	-200.000	0.014	0.157
-257.151	-24.429	-0.226	0.135
-256.136	-188.489	0.112	-0.001
-255.122	602.543	-0.083	0.206
-254.107	-100.706	0.262	0.065
-253.092	-18.049	0.185	0.116
-252.078	-200.000	0.018	0.250
-251.063	-200.000	0.013	-0.150
-250.049	139.381	-0.130	0.171
-249.034	75.909	-0.142	-0.150
-248.019	259.267	0.056	-0.097
-247.005	16.479	0.091	-0.072
-245.990	-121.005	0.194	0.033
-244.976	-117.011	-0.179	-0.033
-243.961	-200.000	0.007	0.068
-242.946	-200.000	-0.000	0.041
-241.932	-79.169	0.208	-0.071
-240.917	19.903	0.110	-0.089
-239.903	6.475	0.070	0.052
-238.888	-200.000	0.009	-0.298
-237.873	800.000	0.112	0.325
-236.859	-23.862	0.151	0.091
-235.844	-200.000	0.001	-0.154
-234.830	-128.149	-0.048	-0.007
-233.815	146.712	-0.165	-0.222
-232.800	-94.806	-0.228	0.062
-231.786	11.265	-0.089	-0.069
-230.771	104.341	0.031	-0.037
-229.757	585.693	-0.044	-0.109
-228.742	246.358	-0.123	-0.208
-227.727	213.641	-0.083	0.132
-226.713	-56.306	0.175	-0.078
-225.698	12.739	-0.142	0.110
-224.684	166.858	-0.140	-0.198
-223.669	-49.628	-0.091	0.043
-222.655	-77.695	0.163	-0.056
-221.640	-200.000	0.009	-0.055
-220.625	-200.000	0.015	0.249
-219.611	-106.756	-0.268	-0.059
-218.596	-93.837	-0.182	-0.050
-217.582	79.369	-0.219	0.234
-216.567	105.558	-0.253	-0.300
-215.552	-49.183	-0.018	-0.009
-214.538	-137.655	-0.193	-0.022
-213.523	-119.259	0.126	0.022
-212.509	-200.000	0.024	0.230
-211.494	-67.576	0.301	-0.118
-210.479	229.645	0.168	-0.274
-209.465	800.000	0.057	0.193
-208.450	-88.032	0.140	-0.042
-207.436	195.633	0.154	0.234
-206.421	-109.283	0.057	0.012
-205.406	11.862	-0.191	-0.147
-204.392	241.682	0.285	-0.476
-203.377	664.328	0.024	-0.061
-202.363	-200.000	-0.033	0.168
-201.348	800.000	-0.055	-0.171
-200.333	81.346	-0.029	0.031
-199.319	150.320	0.050	0.068
-198.304	-40.340	0.183	-0.095
-197.290	-200.000	0.010	0.131
-196.275	-200.000	-0.003	0.118
-195.260	-164.166	-0.346	0.016
-194.246	162.874	-0.101	-0.141
-193.231	150.269	0.150	-0.204
-192.217	-6.868	0.071	0.048
-191.202	504.631	0.075	-0.174
-190.187	-37.099	0.139	0.074
-189.173	-81.969	0.115	-0.038
-188.158	-200.000	0.015	-0.297
-187.144	-57.893	0.102	0.044
-186.129	-55.915	-0.140	-0.062
-185.114	-16.083	-0.235	0.149
-184.100	-93.431	0.249	-0.069
-183.085	-200.000	0.096	-0.436
-182.071	369.877	-0.092	-0.186
-181.056	142.089	-0.190	-0.252
-180.042	800.000	-0.041	-0.145
-179.027	-200.000	-0.051	0.282
-178.012	-200.000	0.021	0.146
-176.998	13.403	0.189	0.146
-175.983	45.534	0.436	-0.402
-174.969	-33.824	0.267	-0.147
-173.954	-46.333	0.189	-0.093
-172.939	158.949	-0.171	-0.237
-171.925	69.166	-0.157	0.161
-170.910	101.028	0.297	0.345
-169.896	23.380	-0.068	0.055
-168.881	800.000	0.055	-0.227
-167.866	18.575	-0.132	0.106
-166.852	-200.000	-0.024	-0.118
-165.837	37.522	0.126	0.111
-164.823	-200.000	-0.048	0.238
-163.808	116.865	0.128	-0.157
-162.793	62.516	-0.162	0.161
-161.779	-35.421	-0.117	0.063
-160.764	800.000	0.068	-0.189
-159.750	800.000	-0.141	0.450
-158.735	-200.000	-0.010	-0.258
-157.720	34.478	-0.161	-0.141
-156.706	800.000	-0.092	-0.260
-155.691	213.401	0.179	-0.283
-154.677	800.000	0.019	0.071
-153.662	73.605	0.106	0.111
-152.647	559.496	-0.153	-0.369
-151.633	-147.072	-0.208	0.018
-150.618	-26.400	-0.455	-0.266
-149.604	-153.215	-0.237	0.017
-148.589	12.229	-0.197	0.151
-147.574	800.000	0.082	0.297
-146.560	-200.000	0.040	-0.347
-145.545	429.726	-0.066	0.143
-144.531	-45.669	0.296	-0.146
-143.516	46.557	-0.259	0.240
-142.502	28.040	-0.215	-0.181
-141.487	1.388	-0.233	0.167
-140.472	251.824	-0.080	0.136
-139.458	-86.740	-0.399	0.122
-138.443	-18.660	0.171	-0.106
-137.429	460.978	-0.100	0.223
-136.414	311.094	-0.016	-0.029
-135.399	196.621	0.120	0.182
-134.385	355.893	-0.091	0.181
-133.370	483.357	-0.064	0.145
-132.356	-129.561	0.114	-0.016
-131.341	79.389	0.217	-0.232
-130.326	31.321	-0.115	-0.099
-129.312	198.846	-0.100	-0.153
-128.297	-28.568	0.199	0.114
-127.283	800.000	0.125	0.407
-126.268	-88.334	0.211	-0.063
-125.253	-163.337	-0.182	-0.009
-124.239	800.000	-0.058	0.188
-123.224	32.336	0.233	0.200
-122.210	-178.508	-0.228	-0.005
-121.195	-200.000	-0.022	-0.228
-120.180	800.000	-0.031	-0.092
-119.166	668.843	-0.067	0.173
-118.151	-81.739	-0.187	0.061
-117.137	253.722	-0.100	-0.170
-116.122	300.762	0.042	0.077
-115.107	80.656	-0.221	0.238
-114.093	800.000	-0.096	0.273
-113.078	-131.784	-0.242	0.032
-112.064	83.917	0.057	0.062
-111.049	-82.698	-0.222	0.071
-110.034	140.151	-0.145	0.190
-109.020	800.000	0.037	-0.114
-108.005	499.827	0.057	-0.131
-106.991	12.721	0.080	0.061
-105.976	-96.360	0.439	0.116
-104.962	229.873	0.180	0.293
-103.947	800.000	-0.050	0.148
-102.932	-200.000	0.052	-0.306
-101.918	-148.756	-0.361	-0.029
-100.903	76.220	0.026	-0.027
-99.889	-70.907	-0.168	-0.063
-98.874	-200.000	-0.063	0.278
-97.859	35.709	0.008	-0.007
-96.845	82.625	0.201	0.217
-95.830	34.734	-0.173	0.151
-94.816	-147.694	-0.251	0.021
-93.801	-121.574	0.287	-0.047
-92.786	-200.000	-0.011	0.263
-91.772	-166.246	-0.274	0.012
-90.757	-72.583	0.031	0.011
-89.743	-61.510	0.125	0.052
-88.728	-60.100	0.116	-0.049
-87.713	-25.720	-0.290	-0.170
-86.699	-21.560	-0.034	-0.021
-85.684	61.466	0.078	0.077
-84.670	-119.919	-0.164	-0.028
-83.655	-130.645	-0.207	0.028
-82.640	-26.199	0.190	0.111
-81.626	418.697	0.108	-0.231
-80.611	-102.669	-0.547	-0.130
-79.597	-88.141	0.060	-0.018
-78.582	238.934	0.119	0.197
-77.567	54.848	-0.111	0.107
-76.553	278.480	0.083	-0.147
-75.538	-65.802	-0.319	-0.127
-74.524	-156.316	0.170	0.011
-73.509	75.894	-0.086	-0.091
-72.494	-46.501	-0.169	-0.082
-71.480	-107.262	-0.269	0.059
-70.465	-200.000	0.022	0.467
-69.451	55.344	0.258	-0.248
-68.436	737.246	-0.008	0.021
-67.422	47.586	0.155	-0.144
-66.407	54.324	-0.065	-0.062
-65.392	800.000	-0.051	0.164
-64.378	99.367	0.016	0.019
-63.363	-116.280	-0.188	0.035
-62.349	193.840	-0.079	0.119
-61.334	121.073	-0.793	-0.981
-60.319	87.658	0.440	0.484
-59.305	800.000	-0.264	-0.880
-58.290	226.980	0.353	0.571
-57.276	-200.000	0.145	1.736
-56.261	-200.000	87.774	500.145
-55.246	421.136	1427.258	3042.556
-54.232	140.534	2644.000	3470.859
-53.217	107.494	2267.215	2681.839
-52.203	46.313	1780.359	1640.603
-51.188	39.782	1581.915	1411.187
-50.173	37.412	1552.908	1368.592
-49.159	54.388	1597.834	1529.708
-48.144	57.990	1618.015	1574.703
-47.130	40.534	1576.533	1411.519
-46.115	37.144	1561.010	1373.619
-45.100	36.955	1557.407	1369.056
-44.086	36.916	1555.154	1366.750
-43.071	36.874	1553.271	1364.738
-42.057	36.912	1551.559	1363.451
-41.042	36.836	1550.380	1361.823
-40.027	36.835	1549.060	1360.607
-39.013	36.869	1547.417	1359.350
-37.998	36.874	1545.956	1358.044
-36.984	36.877	1544.397	1356.641
-35.969	36.849	1543.469	1355.575
-34.954	36.890	1541.657	1354.218
-33.940	36.883	1540.228	1352.862
-32.925	37.016	1538.524	1352.236
-31.911	36.889	1537.741	1350.608
-30.896	37.138	1535.971	1350.734
-29.881	36.962	1534.787	1348.419
-28.867	36.997	1533.666	1347.620
-27.852	36.977	1531.788	1345.777
-26.838	36.992	1530.490	1344.691
-25.823	36.885	1528.819	1342.429
-24.809	36.965	1527.067	1341.388
-23.794	37.008	1525.682	1340.418
-22.779	36.964	1524.374	1338.911
-21.765	36.951	1523.651	1338.134
-20.750	36.904	1522.144	1336.429
-19.736	37.062	1520.661	1336.163
-18.721	36.899	1520.368	1334.734
-17.706	36.920	1518.944	1333.571
-16.692	36.948	1517.937	1332.828
-15.677	36.959	1516.926	1331.966
-14.663	36.965	1515.419	1330.627
-13.648	36.858	1514.739	1329.242
-12.633	36.886	1513.442	1328.244
-11.619	36.775	1512.617	1326.710
-10.604	36.936	1511.728	1326.980
-9.590	36.886	1510.818	1325.784
-8.575	36.908	1509.894	1325.070
-7.560	36.852	1509.518	1324.303
-6.546	36.883	1508.320	1323.412
-5.531	36.959	1507.189	1322.890
-4.517	36.941	1506.498	1322.103
-3.502	36.839	1505.645	1320.612
-2.487	36.890	1504.069	1319.520
-1.473	36.813	1502.963	1317.975
-0.458	36.936	1501.370	1317.362
0.556	35.533	1492.814	1308.139
1.571	33.035	1466.499	1268.225
2.586	29.276	1402.071	1188.225
3.600	26.679	1315.136	1098.722
4.615	24.658	1265.955	1045.731
5.629	20.902	1207.768	976.570
6.644	10.721	1115.810	849.155
7.659	2.068	1069.077	770.012
8.673	0.565	1063.512	758.389
9.688	0.371	1060.253	755.028
10.702	0.259	1059.142	753.610
11.717	0.356	1056.598	752.219
12.731	3.232	1060.620	769.402
13.746	12.503	1073.471	825.377
14.761	18.471	1080.079	860.436
15.775	17.878	1078.180	855.874
16.790	16.698	1076.359	848.444
17.804	15.645	1073.887	841.154
18.819	14.844	1071.567	835.264
19.834	14.414	1070.066	831.873
20.848	13.998	1069.268	829.105
21.863	13.854	1068.077	827.389
22.877	13.504	1067.366	825.019
23.892	13.263	1066.427	823.024
24.907	13.286	1065.772	822.561
25.921	13.166	1065.310	821.534
26.936	13.252	1064.595	821.334
27.950	13.227	1063.796	820.521
28.965	13.333	1063.343	820.627
29.980	13.493	1061.853	820.197
30.994	13.406	1061.237	819.219
32.009	13.416	1060.531	818.650
33.023	13.522	1059.655	818.426
34.038	13.400	1058.808	817.097
35.053	13.463	1058.115	816.802
36.067	13.339	1057.474	815.619
37.082	13.359	1057.024	815.299
38.096	13.393	1055.507	814.228
39.111	13.499	1054.801	814.130
40.126	13.513	1053.859	813.398
41.140	13.358	1053.096	811.976
42.155	13.223	1052.098	810.474
43.169	13.364	1051.180	810.387
44.184	13.261	1050.017	808.916
45.199	13.264	1048.647	807.803
46.213	13.184	1047.763	806.660
47.228	13.300	1046.846	806.448
48.242	13.283	1045.970	805.616
49.257	13.303	1045.124	804.992
50.271	13.253	1044.372	804.101
51.286	13.369	1043.310	803.774
52.301	13.263	1042.469	802.542
53.315	13.427	1041.434	802.470
54.330	13.280	1040.798	801.192
55.344	13.165	1039.979	799.937
56.359	13.330	1038.123	799.237
57.374	13.327	1037.526	798.689
58.388	13.301	1036.691	797.854
59.403	13.314	1035.971	797.289
60.417	13.259	1035.280	796.422
61.432	13.268	1034.380	795.703
62.447	13.217	1033.548	794.748
63.461	13.099	1033.089	793.758
64.476	13.148	1031.832	792.958
65.490	13.063	1031.302	792.069
66.505	13.157	1030.570	791.890
67.520	13.156	1029.765	791.195
68.534	13.090	1028.847	790.106
69.549	13.213	1027.558	789.631
70.563	13.189	1027.286	789.237
71.578	13.169	1026.866	788.750
72.593	13.217	1025.772	788.072
73.607	13.119	1024.448	786.515
74.622	13.077	1023.561	785.565
75.636	13.099	1022.731	784.963
76.651	13.145	1022.025	784.571
77.666	12.968	1021.678	783.396
78.680	13.099	1020.512	783.056
79.695	13.096	1020.069	782.629
80.709	13.171	1019.423	782.419
81.724	13.170	1018.759	781.837
82.739	13.250	1017.694	781.325
83.753	13.224	1017.176	780.736
84.768	13.249	1016.305	780.121
85.782	13.326	1015.669	779.923
86.797	13.397	1014.950	779.636
87.812	13.525	1013.966	779.417
88.826	13.310	1013.077	777.654
89.841	13.312	1012.209	776.929
90.855	13.276	1011.670	776.275
91.870	13.294	1011.111	775.861
92.884	13.481	1009.761	775.633
93.899	13.554	1009.381	775.614
94.914	13.421	1008.714	774.413
95.928	13.520	1008.019	774.271
96.943	13.470	1007.024	773.204
97.957	13.544	1006.153	772.812
98.972	13.398	1005.655	771.681
99.987	13.374	1004.734	770.796
101.001	13.315	1004.132	769.990
102.016	13.334	1003.489	769.518
103.030	13.274	1002.616	768.502
104.045	13.340	1001.158	767.623
105.060	13.406	999.878	766.879
106.074	13.327	999.423	766.094
107.089	13.460	998.288	765.775
108.103	13.307	997.995	764.774
109.118	13.259	996.466	763.315
110.133	13.282	995.716	762.775
111.147	13.130	995.151	761.574
112.162	13.160	994.395	761.067
113.176	13.304	992.577	760.269
114.191	13.193	992.819	759.879
115.206	13.299	991.259	759.106
116.220	13.259	990.810	758.507
117.235	13.292	989.518	757.605
118.249	13.251	988.998	756.950
119.264	13.298	988.204	756.493
120.279	13.409	986.820	755.874
121.293	13.325	986.176	754.928
122.308	13.265	985.401	753.997
123.322	13.279	984.788	753.525
124.337	13.161	983.990	752.308
125.352	13.284	982.429	751.608
126.366	13.284	981.491	750.826
127.381	13.284	980.303	749.850
128.395	13.312	979.386	749.209
129.410	13.335	978.372	748.471
130.424	13.366	977.479	747.861
131.439	13.277	976.647	746.757
132.454	13.332	976.012	746.455
133.468	13.416	975.361	746.269
134.483	13.489	974.384	745.783
135.497	13.414	973.820	744.948
136.512	13.325	973.143	743.965
137.527	13.388	972.234	743.486
138.541	13.391	971.143	742.601
139.556	13.515	970.708	742.759
140.570	13.411	969.730	741.477
141.585	13.357	969.209	740.769
142.600	13.429	968.514	740.498
143.614	13.552	967.085	739.890
144.629	13.485	967.241	739.643
145.643	13.568	966.040	739.027
146.658	13.547	965.306	738.310
147.673	13.468	964.825	737.526
148.687	13.458	963.635	736.506
149.702	13.404	962.439	735.287
150.716	13.434	961.775	734.845
151.731	13.435	960.746	733.999
152.746	13.366	960.455	733.408
153.760	13.383	959.171	732.437
154.775	13.460	958.618	732.288
155.789	13.491	957.922	731.830
156.804	13.415	957.373	731.012
157.819	13.535	956.134	730.529
158.833	13.569	955.847	730.393
159.848	13.464	955.174	729.355
160.862	13.621	954.260	729.281
161.877	13.527	953.779	728.437
162.892	13.581	952.506	727.635
163.906	13.402	952.139	726.505
164.921	13.443	951.163	725.878
165.935	13.548	949.950	725.347
166.950	13.488	949.264	724.497
167.964	13.582	947.844	723.758
168.979	13.588	946.878	722.985
169.994	13.604	945.926	722.263
171.008	13.529	945.558	721.591
172.023	13.848	943.996	721.722
173.037	13.716	943.508	720.713
174.052	13.731	943.009	720.331
175.067	13.699	942.371	719.642
176.081	13.682	941.251	718.649
177.096	13.605	940.450	717.640
178.110	13.525	939.559	716.551
179.125	13.623	938.659	716.224
180.140	13.607	938.203	715.745
181.154	13.708	937.441	715.536
182.169	13.644	937.345	715.125
183.183	13.730	936.217	714.570
184.198	13.731	935.609	714.046
185.213	13.770	934.793	713.529
186.227	13.878	934.117	713.415
187.242	13.965	933.806	713.485
188.256	13.870	932.953	712.366
189.271	13.841	932.359	711.724
190.286	13.953	931.517	711.495
191.300	13.773	930.930	710.216
192.315	13.797	929.881	709.454
193.329	13.625	929.511	708.375
194.344	13.676	928.523	707.775
195.359	13.615	928.069	707.108
196.373	13.800	927.738	707.582
197.388	13.810	926.774	706.828
198.402	13.928	926.073	706.732
199.417	13.884	926.064	706.477
200.432	14.139	925.322	706.929
201.446	13.950	925.149	705.934
202.461	14.116	924.447	706.041
203.475	14.146	923.807	705.617
204.490	14.062	923.179	704.716
205.504	13.969	922.651	703.857
206.519	14.039	921.602	703.294
207.534	14.015	920.831	702.539
208.548	13.903	920.423	701.691
209.563	14.002	919.715	701.507
210.577	14.056	918.889	701.043
211.592	14.112	918.215	700.703
212.607	14.198	917.387	700.372
213.621	14.178	917.493	700.309
214.636	14.064	916.502	699.011
215.650	14.287	915.513	699.128
216.665	14.115	915.382	698.246
217.680	14.254	914.516	698.105
218.694	14.311	914.010	697.898
219.709	14.247	913.551	697.217
220.723	14.206	913.093	696.633
221.738	14.231	912.296	696.069
222.753	14.236	911.343	695.300
223.767	14.127	911.060	694.569
224.782	14.219	909.882	693.993
225.796	14.304	909.104	693.690
226.811	14.426	908.418	693.615
227.826	14.296	907.863	692.589
228.840	14.266	907.268	691.948
229.855	14.326	906.754	691.746
230.869	14.359	906.068	691.296
231.884	14.337	905.202	690.486
232.899	14.439	904.242	690.115
233.913	14.391	903.709	689.446
234.928	14.194	903.450	688.372
235.942	14.325	902.296	687.973
236.957	14.374	901.576	687.565
237.972	14.367	901.379	687.326
238.986	14.306	900.497	686.343
240.001	14.388	899.790	686.080
241.015	14.315	898.676	684.869
242.030	14.330	898.475	684.717
243.045	14.440	897.762	684.568
244.059	14.507	896.801	684.047
245.074	14.469	896.709	683.760
246.088	14.598	895.596	683.380
247.103	14.573	895.336	683.018
248.117	14.649	894.637	682.735
249.132	14.557	894.228	681.987
250.147	14.777	893.102	681.965
251.161	14.780	892.726	681.633
252.176	14.695	892.203	680.826
253.190	14.757	891.389	680.398
254.205	14.894	890.767	680.418
255.220	14.877	890.460	680.055
256.234	14.947	889.411	679.479
257.249	14.890	889.119	678.961
258.263	14.923	888.533	678.588
259.278	15.013	887.356	677.995
260.293	14.911	887.363	677.525
261.307	14.948	886.617	677.046
262.322	15.020	885.877	676.713
263.336	14.988	885.493	676.233
264.351	15.030	885.037	675.993
265.366	15.063	884.219	675.442
266.380	15.062	883.520	674.844
267.395	15.112	882.972	674.566
268.409	15.077	882.036	673.653
269.424	15.034	881.575	673.069
270.439	15.003	880.969	672.421
271.453	15.063	880.019	671.876
272.468	15.099	879.174	671.317
273.482	15.181	878.468	671.044
274.497	15.048	878.064	670.144
275.512	15.266	876.862	670.041
276.526	15.173	876.068	669.002
277.541	15.134	875.818	668.596
278.555	14.979	875.208	667.455
279.570	15.129	874.742	667.637
280.585	15.255	874.178	667.651
281.599	15.203	873.542	666.900
282.614	15.278	872.980	666.708
283.628	15.226	872.431	666.025
284.643	15.174	872.178	665.564
285.657	15.153	871.538	664.936
286.672	15.263	870.817	664.761
287.687	15.228	870.380	664.230
288.701	15.360	869.378	663.929
289.716	15.359	868.739	663.378
290.730	15.362	868.131	662.870
291.745	15.423	867.562	662.616
292.760	15.544	866.801	662.453
293.774	15.451	866.793	662.021
294.789	15.302	866.268	660.973
295.803	15.494	865.450	661.048
296.818	15.500	864.799	660.517
297.833	15.556	863.753	659.878
298.847	15.463	863.678	659.395
299.862	15.464	862.667	658.572
300.876	15.534	861.867	658.177
301.891	15.502	861.292	657.553
302.906	15.564	860.931	657.462
303.920	15.642	860.011	657.007
304.935	15.529	859.787	656.336
305.949	15.767	858.787	656.443
306.964	15.720	858.205	655.758
307.979	15.716	857.660	655.265
308.993	15.606	857.540	654.689
310.008	15.735	856.669	654.468
311.022	15.771	856.263	654.240
312.037	15.800	855.687	653.854
313.052	15.748	855.011	653.079
314.066	15.715	854.655	652.622
315.081	15.860	853.542	652.275
316.095	15.640	853.501	651.333
317.110	15.760	852.750	651.167
318.125	15.800	851.951	650.653
319.139	15.780	851.431	650.123
320.154	15.781	851.155	649.857
321.168	15.801	850.696	649.525
322.183	15.753	849.855	648.640
323.197	15.906	849.544	648.935
324.212	15.912	848.827	648.355
325.227	15.853	848.704	647.977
326.241	15.856	847.972	647.373
327.256	15.906	847.193	646.911
328.270	15.922	846.427	646.332
329.285	15.915	845.985	645.910
330.300	15.720	845.745	644.923
331.314	15.768	845.367	644.761
332.329	15.897	844.806	644.768
333.343	15.844	843.704	643.670
334.358	16.043	843.152	643.953
335.373	15.894	842.969	643.187
336.387	16.056	842.245	643.195
337.402	16.071	841.750	642.815
338.416	16.019	841.346	642.254
339.431	16.116	840.769	642.125
340.446	16.185	839.918	641.678
341.460	16.268	839.389	641.535
342.475	16.014	839.220	640.383
343.489	16.092	838.380	639.984
344.504	16.354	837.586	640.312
345.519	16.280	837.319	639.773
346.533	16.407	836.719	639.737
347.548	16.440	836.002	639.258
348.562	16.193	835.793	638.109
349.577	16.231	835.214	637.752
350.592	16.275	834.504	637.318
351.606	16.141	834.238	636.553
352.621	16.129	833.779	636.102
353.635	16.201	833.406	636.033
354.650	16.384	832.553	636.015
355.665	16.259	832.414	635.382
356.679	16.210	832.081	634.886
357.694	16.370	831.341	634.866
358.708	16.531	830.479	634.757
359.723	16.385	830.066	633.838
360.738	16.408	829.589	633.504
361.752	16.336	829.361	633.003
362.767	16.399	828.580	632.589
363.781	16.487	828.515	632.810
364.796	16.451	827.667	631.974
365.810	16.477	827.504	631.891
366.825	16.540	826.946	631.645
367.840	16.641	826.459	631.592
368.854	16.662	826.177	631.399
369.869	16.435	826.003	630.362
370.883	16.671	824.810	630.277
371.898	16.540	824.544	629.529
372.913	16.637	824.100	629.497
373.927	16.610	823.642	628.991
374.942	16.768	822.603	628.728
375.956	16.620	821.975	627.643
376.971	16.617	821.553	627.254
377.986	16.840	820.886	627.516
379.000	16.834	820.354	627.033
380.015	16.823	820.093	626.737
381.029	16.999	819.380	626.784
382.044	16.745	818.994	625.497
383.059	16.927	818.200	625.506
384.073	16.984	817.666	625.253
385.088	16.919	817.546	624.868
386.102	16.874	816.965	624.200
387.117	16.775	816.223	623.216
388.132	16.864	815.713	623.098
389.146	16.754	815.361	622.368
390.161	16.835	815.399	622.641
391.175	16.943	814.465	622.267
392.190	16.973	814.626	622.445
393.205	16.906	814.085	621.734
394.219	16.966	813.394	621.370
395.234	17.014	812.481	620.793
396.248	16.935	812.446	620.423
397.263	16.934	811.556	619.683
398.278	16.866	811.450	619.298
399.292	16.953	810.571	618.891
400.307	17.056	809.992	618.771
401.321	16.787	810.352	618.011
402.336	16.784	809.936	617.626
403.350	17.001	809.467	618.004
404.365	16.937	808.842	617.240
405.380	17.018	808.206	616.993
406.394	17.209	807.892	617.395
407.409	17.241	807.293	616.998
408.423	17.205	806.976	616.570
409.438	17.148	806.391	615.861
410.453	17.136	805.883	615.375
411.467	17.362	805.117	615.555
412.482	17.365	805.081	615.482
413.496	17.272	804.740	614.834
414.511	17.277	804.455	614.579
415.526	17.427	803.736	614.514
416.540	17.455	803.548	614.418
417.555	17.355	803.107	613.668
418.569	17.423	802.718	613.560
419.584	17.281	802.467	612.803
420.599	17.261	801.831	612.191
421.613	99.732	1277.256	1422.883
422.628	85.541	1346.553	1423.018
