DTS Sentinel unit serial number:	SN413079Multiplexer serial number:	ORYXHardware model number:	OX4-SRSoftware version number:	ORYX F/W v4.00 Oryx Data Collector v3.7.2.0data status	okinstallation	princeton_trtdifferential loss correction	single-endedforward channel	channel 3reverse channel	N/Adate	2019/09/13time	17:36:35forward acquisition time	60.00reverse acquisition time	0.00gamma	496.2192k internal	0.2300k external	0.2300temperature offset calibration	1.0140default loss term (dB/km)	0.3790temperature slope calibration	1.0000multiplexer offset coefficient	1.0000multiplexer slope coefficient	1.0000fibre end	0.00T internal ref (°C)	35.98T ext. ref 1 (°C)	5.39T ext. ref 2 (°C)	29.08length (m)	temperature (°C)	Stokes	anti-Stokes-747.200	-200.000	0.004	0.168
-746.185	-200.000	-0.017	0.223
-745.171	531.082	0.067	0.161
-744.156	20.860	-0.090	0.075
-743.142	-200.000	0.010	-0.224
-742.127	552.841	0.035	0.085
-741.112	570.623	-0.154	0.382
-740.098	40.743	-0.306	-0.281
-739.083	-88.627	0.280	-0.085
-738.069	-31.438	0.092	0.053
-737.054	-197.053	-0.122	0.001
-736.039	-200.000	-0.015	0.166
-735.025	129.044	0.207	0.270
-734.010	-200.000	0.023	-0.404
-732.996	68.328	-0.032	0.034
-731.981	-200.000	-0.047	-0.268
-730.966	-200.000	-0.061	-0.343
-729.952	-87.671	-0.347	0.107
-728.937	-200.000	0.042	-0.410
-727.923	330.648	0.118	-0.233
-726.908	100.192	-0.181	0.214
-725.894	-87.675	-0.350	0.108
-724.879	-74.919	-0.662	0.242
-723.864	-130.299	-0.091	0.013
-722.850	43.888	-0.077	0.071
-721.835	394.131	-0.057	0.121
-720.821	320.691	-0.167	0.324
-719.806	-200.000	-0.017	-0.075
-718.791	-200.000	0.007	-0.305
-717.777	-119.157	0.068	0.012
-716.762	-200.000	-0.003	0.077
-715.748	-115.359	-0.168	-0.032
-714.733	800.000	-0.066	-0.293
-713.718	3.617	-0.218	-0.162
-712.704	-29.333	0.166	-0.097
-711.689	800.000	-0.010	0.028
-710.675	-111.878	0.463	0.095
-709.660	163.066	0.050	-0.071
-708.645	141.734	0.207	-0.279
-707.631	-146.339	-0.119	-0.011
-706.616	-113.603	-0.202	-0.040
-705.602	-200.000	0.022	-0.194
-704.587	108.411	0.073	-0.089
-703.572	-160.503	-0.045	-0.002
-702.558	-7.850	0.398	0.274
-701.543	800.000	-0.083	-0.350
-700.529	-59.385	-0.134	-0.059
-699.514	148.026	0.140	0.192
-698.499	107.145	-0.101	0.122
-697.485	-200.000	0.020	-0.207
-696.470	-200.000	0.004	0.031
-695.456	-16.420	-0.228	0.147
-694.441	-200.000	-0.022	0.132
-693.426	-56.398	0.256	0.116
-692.412	800.000	-0.099	-0.359
-691.397	-97.601	0.127	-0.034
-690.383	-41.234	0.092	-0.048
-689.368	147.104	-0.150	0.205
-688.354	63.201	0.165	0.168
-687.339	306.408	0.062	-0.117
-686.324	-200.000	0.002	0.108
-685.310	-147.956	-0.232	0.020
-684.295	-56.570	-0.254	0.115
-683.281	-179.534	-0.384	0.009
-682.266	-32.611	0.057	0.033
-681.251	666.606	-0.153	0.403
-680.237	73.590	-0.031	0.033
-679.222	227.003	-0.142	0.234
-678.208	109.663	0.037	0.045
-677.193	-200.000	-0.007	0.163
-676.178	-68.850	-0.055	0.022
-675.164	202.349	0.106	-0.166
-674.149	205.540	-0.155	-0.244
-673.135	-15.560	-0.065	-0.042
-672.120	-200.000	-0.052	-0.406
-671.105	36.692	0.439	0.394
-670.091	646.275	-0.052	0.135
-669.076	84.943	-0.079	-0.089
-668.062	-83.098	-0.198	-0.065
-667.047	800.000	0.102	0.296
-666.032	115.109	0.118	-0.147
-665.018	-26.387	-0.225	0.134
-664.003	-46.979	-0.217	0.108
-662.989	-200.000	-0.011	-0.304
-661.974	-200.000	-0.029	-0.346
-660.959	800.000	-0.088	-0.293
-659.945	800.000	-0.017	0.059
-658.930	58.460	0.076	-0.076
-657.916	-56.872	-0.220	0.099
-656.901	281.741	-0.112	-0.204
-655.886	122.286	0.113	0.143
-654.872	-123.275	0.372	0.060
-653.857	-155.310	-0.120	0.008
-652.843	220.197	-0.124	-0.202
-651.828	-132.290	0.467	0.061
-650.814	-163.801	0.217	-0.010
-649.799	86.956	-0.100	-0.113
-648.784	-80.498	-0.481	-0.163
-647.770	-149.064	-0.237	-0.019
-646.755	800.000	0.061	-0.173
-645.741	239.268	0.028	-0.047
-644.726	800.000	-0.049	0.171
-643.711	-34.533	-0.073	-0.041
-642.697	-43.222	-0.092	0.047
-641.682	447.619	0.037	0.083
-640.668	626.627	0.075	0.192
-639.653	263.717	-0.063	0.112
-638.638	-41.488	-0.187	-0.098
-637.624	544.551	-0.125	-0.302
-636.609	-20.755	0.165	-0.103
-635.595	-7.847	0.007	0.005
-634.580	800.000	-0.069	-0.195
-633.565	184.726	-0.068	-0.102
-632.551	800.000	-0.032	-0.099
-631.536	-200.000	0.030	-0.136
-630.522	-56.890	-0.201	0.090
-629.507	-200.000	0.076	0.340
-628.492	-200.000	-0.008	-0.063
-627.478	-123.633	0.025	-0.004
-626.463	-92.189	0.024	-0.007
-625.449	-200.000	-0.004	-0.148
-624.434	73.880	-0.166	0.177
-623.419	168.962	-0.063	-0.091
-622.405	674.266	0.109	0.288
-621.390	25.282	-0.254	-0.214
-620.376	800.000	-0.097	-0.330
-619.361	-200.000	0.026	-0.303
-618.346	148.528	0.045	-0.062
-617.332	-143.202	-0.174	0.017
-616.317	5.220	0.134	-0.101
-615.303	89.534	0.197	-0.223
-614.288	444.825	0.049	-0.109
-613.273	-74.013	0.086	0.032
-612.259	156.345	-0.122	0.170
-611.244	-200.000	-0.073	0.339
-610.230	161.673	-0.219	-0.311
-609.215	-200.000	0.028	-0.346
-608.201	64.291	-0.098	0.101
-607.186	-126.181	-0.193	-0.029
-606.171	-3.566	0.167	-0.118
-605.157	526.089	0.074	-0.178
-604.142	169.373	-0.140	-0.203
-603.128	769.724	0.048	-0.133
-602.113	-139.006	-0.572	-0.063
-601.098	-12.989	0.245	-0.162
-600.084	-91.875	0.231	0.067
-599.069	-89.953	-0.132	0.039
-598.055	-62.788	0.204	0.086
-597.040	18.921	-0.224	-0.182
-596.025	800.000	-0.067	-0.287
-595.011	8.485	-0.141	-0.108
-593.996	-37.374	0.182	0.099
-592.982	-149.565	0.040	-0.003
-591.967	-139.147	0.211	0.023
-590.952	31.801	-0.100	0.087
-589.938	-200.000	-0.003	-0.072
-588.923	176.972	-0.141	0.208
-587.909	-42.060	0.222	-0.115
-586.894	-56.500	-0.227	0.102
-585.879	112.061	-0.090	0.110
-584.865	225.250	0.108	-0.176
-583.850	36.539	-0.147	0.132
-582.836	127.093	-0.097	-0.125
-581.821	800.000	0.024	0.088
-580.806	207.948	-0.120	0.191
-579.792	-47.058	-0.182	0.090
-578.777	31.585	0.220	0.192
-577.763	65.467	-0.083	-0.085
-576.748	230.281	-0.080	-0.133
-575.733	308.364	-0.188	-0.356
-574.719	0.108	0.196	-0.142
-573.704	-9.628	0.243	0.164
-572.690	-148.694	0.118	0.010
-571.675	547.837	0.032	0.078
-570.661	770.856	0.083	0.229
-569.646	-200.000	0.008	0.235
-568.631	20.177	-0.208	0.170
-567.617	-78.577	-0.171	0.059
-566.602	800.000	-0.051	-0.211
-565.588	-200.000	-0.333	0.002
-564.573	32.160	-0.154	0.135
-563.558	-170.251	0.247	-0.009
-562.544	-100.350	0.189	-0.047
-561.529	-134.228	0.280	-0.035
-560.515	-160.373	0.151	-0.008
-559.500	339.326	-0.066	-0.130
-558.485	-200.000	0.005	0.057
-557.471	153.652	-0.032	0.044
-556.456	-159.552	-0.096	0.005
-555.442	-127.481	0.214	-0.032
-554.427	-6.301	0.264	-0.182
-553.412	479.361	0.205	-0.471
-552.398	-12.034	-0.316	0.209
-551.383	-66.310	-0.186	-0.075
-550.369	-200.000	-0.028	0.204
-549.354	-200.000	0.037	0.177
-548.339	-60.253	0.149	-0.064
-547.325	800.000	0.024	0.070
-546.310	-200.000	-0.016	-0.104
-545.296	-12.768	-0.246	-0.162
-544.281	-13.599	0.211	-0.138
-543.266	800.000	-0.058	-0.235
-542.252	-70.017	0.212	-0.082
-541.237	-66.416	0.404	0.162
-540.223	800.000	-0.107	-0.404
-539.208	-97.373	-0.234	0.062
-538.193	54.923	0.108	0.106
-537.179	-112.520	0.377	-0.076
-536.164	-125.264	0.326	0.050
-535.150	-75.849	0.244	0.087
-534.135	-72.551	0.015	-0.006
-533.121	-82.643	-0.085	0.028
-532.106	800.000	0.138	-0.402
-531.091	52.510	0.248	0.240
-530.077	553.129	-0.163	-0.395
-529.062	-125.642	0.148	-0.023
-528.048	-130.233	-0.079	-0.011
-527.033	-97.720	-0.212	0.055
-526.018	135.574	-0.211	-0.278
-525.004	77.942	0.336	-0.362
-523.989	430.729	-0.189	-0.414
-522.975	16.292	-0.028	-0.023
-521.960	-200.000	0.015	0.107
-520.945	34.559	0.244	-0.216
-519.931	-91.101	0.389	-0.113
-518.916	406.702	-0.054	-0.115
-517.902	31.082	-0.059	0.052
-516.887	96.277	-0.270	-0.313
-515.872	615.663	0.146	-0.370
-514.858	130.906	-0.153	-0.199
-513.843	-5.752	-0.108	-0.075
-512.829	-116.423	0.221	0.041
-511.814	173.671	0.052	-0.075
-510.799	219.140	-0.176	0.284
-509.785	-200.000	0.000	0.341
-508.770	648.817	0.104	-0.268
-507.756	48.187	-0.085	0.080
-506.741	196.950	-0.083	-0.127
-505.726	-44.154	0.215	0.109
-504.712	-200.000	0.012	-0.220
-503.697	-200.000	-0.009	-0.221
-502.683	800.000	-0.079	0.225
-501.668	57.036	0.176	0.174
-500.653	91.663	0.049	-0.055
-499.639	-127.194	0.353	0.052
-498.624	117.156	-0.111	-0.138
-497.610	-200.000	0.041	0.258
-496.595	619.100	0.121	-0.307
-495.581	-106.751	0.068	-0.015
-494.566	-200.000	-0.047	0.225
-493.551	800.000	-0.144	0.452
-492.537	-62.578	0.149	0.062
-491.522	-200.000	-0.047	0.000
-490.508	-200.000	0.007	0.046
-489.493	-144.931	-0.107	0.010
-488.478	-200.000	0.003	-0.083
-487.464	-122.537	0.131	0.021
-486.449	-100.160	0.339	-0.085
-485.435	-200.000	0.000	0.029
-484.420	800.000	0.026	-0.112
-483.405	366.269	-0.129	-0.262
-482.391	800.000	0.084	-0.248
-481.376	-0.025	-0.282	-0.203
-480.362	-110.178	0.129	-0.027
-479.347	-137.357	0.056	0.006
-478.332	-146.952	-0.288	0.025
-477.318	182.278	0.070	-0.104
-476.303	-200.000	-0.041	0.292
-475.289	800.000	-0.053	-0.154
-474.274	800.000	-0.020	0.078
-473.259	-22.895	-0.162	0.098
-472.245	-80.776	-0.270	-0.090
-471.230	-87.102	-0.212	0.065
-470.216	61.319	-0.171	0.171
-469.201	-43.291	0.056	-0.028
-468.186	21.374	-0.093	0.076
-467.172	-25.330	-0.204	-0.122
-466.157	-200.000	0.015	0.110
-465.143	-200.000	-0.041	0.237
-464.128	-62.728	0.175	0.073
-463.113	212.999	0.124	0.198
-462.099	-19.581	-0.116	0.073
-461.084	146.314	0.203	0.275
-460.070	-200.000	-0.021	0.183
-459.055	98.204	0.207	-0.240
-458.040	18.032	0.134	0.108
-457.026	-99.450	0.384	0.098
-456.011	-54.586	-0.165	0.075
-454.997	800.000	-0.148	-0.436
-453.982	-18.007	0.251	-0.158
-452.968	67.495	0.077	-0.079
-451.953	800.000	0.087	-0.315
-450.938	-200.000	0.015	0.445
-449.924	-200.000	-0.009	0.359
-448.909	800.000	0.060	0.184
-447.895	0.211	-0.380	0.273
-446.880	43.096	-0.121	-0.111
-445.865	284.238	0.090	0.163
-444.851	47.821	-0.150	0.141
-443.836	-55.734	0.063	0.028
-442.822	8.713	0.034	0.026
-441.807	-121.155	-0.198	0.033
-440.792	295.920	-0.115	0.213
-439.778	25.996	-0.094	0.079
-438.763	800.000	-0.018	0.063
-437.749	-98.184	-0.222	-0.058
-436.734	-124.327	-0.256	-0.040
-435.719	3.254	0.108	0.079
-434.705	-182.209	-0.123	-0.002
-433.690	-200.000	-0.000	0.200
-432.676	-126.057	-0.152	-0.023
-431.661	-51.359	-0.274	0.129
-430.646	-146.425	-0.193	0.017
-429.632	-106.749	0.022	-0.005
-428.617	771.353	-0.075	0.206
-427.603	103.712	-0.099	0.117
-426.588	-116.429	0.195	-0.036
-425.573	38.635	-0.032	0.029
-424.559	58.324	-0.052	0.051
-423.544	800.000	0.109	-0.343
-422.530	800.000	-0.020	0.072
-421.515	-146.924	-0.303	0.026
-420.500	-110.594	0.312	-0.065
-419.486	-90.416	-0.123	-0.036
-418.471	-152.341	0.336	0.024
-417.457	-182.115	-0.412	-0.008
-416.442	551.464	0.018	0.045
-415.428	75.265	0.213	-0.226
-414.413	800.000	0.147	-0.505
-413.398	800.000	0.020	-0.076
-412.384	-162.810	-0.262	-0.013
-411.369	117.944	0.123	-0.152
-410.355	-7.401	-0.351	0.239
-409.340	-188.111	-0.098	-0.001
-408.325	688.936	0.098	0.259
-407.311	-40.563	0.057	-0.030
-406.296	23.663	0.064	0.053
-405.282	274.103	0.016	0.028
-404.267	680.198	-0.093	-0.245
-403.252	212.085	-0.139	-0.221
-402.238	315.330	0.155	0.295
-401.223	800.000	0.025	-0.090
-400.209	-200.000	0.008	-0.220
-399.194	-121.832	-0.281	0.047
-398.179	-16.383	0.170	0.108
-397.165	-200.000	-0.026	-0.240
-396.150	621.504	0.136	0.346
-395.136	-84.411	0.192	-0.061
-394.121	800.000	0.036	-0.113
-393.106	-58.103	0.239	0.105
-392.092	246.312	-0.065	-0.110
-391.077	-22.223	0.250	0.153
-390.063	800.000	-0.043	0.130
-389.048	-85.918	0.050	0.016
-388.033	-27.003	0.258	-0.152
-387.019	292.020	0.120	0.220
-386.004	-58.214	0.139	0.061
-384.990	-103.557	-0.139	0.033
-383.975	438.373	0.113	-0.249
-382.960	63.321	-0.131	-0.132
-381.946	-200.000	-0.025	0.191
-380.931	264.748	0.129	0.226
-379.917	-59.969	-0.329	-0.141
-378.902	26.441	0.219	0.184
-377.888	-107.177	0.061	-0.014
-376.873	142.089	0.092	-0.122
-375.858	-10.941	0.103	-0.068
-374.844	-200.000	0.021	0.262
-373.829	2.453	-0.249	0.181
-372.815	80.694	-0.141	-0.153
-371.800	76.776	-0.394	-0.420
-370.785	-43.944	-0.519	-0.262
-369.771	-159.003	-0.124	-0.007
-368.756	37.834	-0.063	0.057
-367.742	800.000	-0.051	0.158
-366.727	15.475	-0.102	0.080
-365.712	800.000	0.017	-0.061
-364.698	630.381	-0.021	0.054
-363.683	-104.641	-0.144	0.033
-362.669	22.688	-0.108	0.089
-361.654	-113.125	-0.204	0.040
-360.639	-37.489	-0.391	-0.209
-359.625	74.029	-0.104	-0.109
-358.610	-60.226	-0.144	0.062
-357.596	319.855	0.127	0.243
-356.581	31.138	-0.466	0.401
-355.566	77.713	-0.114	0.122
-354.552	-181.513	0.178	0.003
-353.537	-54.706	-0.284	0.129
-352.523	-34.999	0.322	-0.176
-351.508	-200.000	-0.018	-0.151
-350.493	137.954	0.184	0.243
-349.479	279.483	-0.093	0.167
-348.464	107.160	0.199	-0.238
-347.450	114.971	-0.356	-0.436
-346.435	321.451	-0.305	0.582
-345.420	-37.038	0.094	-0.050
-344.406	76.159	0.065	0.069
-343.391	-200.000	-0.028	0.330
-342.377	781.995	0.031	-0.086
-341.362	-102.627	-0.219	0.052
-340.348	-64.628	0.180	-0.073
-339.333	710.420	0.035	-0.093
-338.318	-121.900	-0.103	0.017
-337.304	-200.000	0.029	0.223
-336.289	800.000	-0.062	-0.242
-335.275	417.472	-0.170	0.365
-334.260	38.178	0.156	0.140
-333.245	-127.178	-0.060	-0.009
-332.231	381.035	0.074	-0.153
-331.216	8.024	0.247	-0.186
-330.202	-109.452	0.121	-0.026
-329.187	800.000	0.062	0.230
-328.172	23.436	-0.057	-0.047
-327.158	232.642	0.074	0.121
-326.143	-31.449	0.412	0.233
-325.129	-98.841	-0.171	-0.044
-324.114	-163.417	0.101	-0.005
-323.099	-47.643	-0.099	-0.048
-322.085	15.690	0.102	-0.081
-321.070	800.000	0.082	-0.244
-320.056	12.453	0.246	-0.190
-319.041	-200.000	0.023	-0.388
-318.026	800.000	0.113	-0.338
-317.012	-147.612	0.300	-0.025
-315.997	259.061	0.114	-0.197
-314.983	-7.713	0.034	0.023
-313.968	233.020	-0.078	-0.129
-312.953	-200.000	0.013	0.318
-311.939	-103.098	-0.442	0.105
-310.924	41.382	-0.152	0.138
-309.910	-64.671	0.144	-0.059
-308.895	-38.270	0.182	0.097
-307.880	9.341	0.091	-0.069
-306.866	-110.742	0.162	0.033
-305.851	-176.996	0.380	-0.010
-304.837	800.000	-0.035	0.122
-303.822	-84.604	-0.331	0.105
-302.807	-98.559	0.476	-0.122
-301.793	-34.511	0.094	0.052
-300.778	-167.505	0.105	0.004
-299.764	-200.000	0.006	-0.176
-298.749	2.108	0.229	0.165
-297.735	-121.681	-0.131	-0.022
-296.720	-200.000	-0.038	-0.248
-295.705	604.994	-0.136	0.339
-294.691	712.457	0.075	0.200
-293.676	-47.388	0.285	0.139
-292.662	800.000	-0.065	0.229
-291.647	118.529	-0.220	0.272
-290.632	-200.000	-0.030	0.151
-289.618	411.182	-0.072	-0.153
-288.603	800.000	-0.043	0.154
-287.589	39.138	-0.017	-0.015
-286.574	-78.085	-0.243	0.084
-285.559	-183.648	-0.091	-0.002
-284.545	-158.328	0.067	0.004
-283.530	-37.263	0.128	0.068
-282.516	-44.082	-0.036	-0.018
-281.501	-200.000	0.011	0.055
-280.486	268.868	-0.066	-0.117
-279.472	-107.729	0.222	0.048
-278.457	484.444	0.084	-0.191
-277.443	85.339	0.065	-0.072
-276.428	800.000	-0.075	-0.217
-275.413	-180.442	0.161	-0.003
-274.399	43.446	0.098	-0.089
-273.384	367.168	-0.056	0.114
-272.370	-200.000	-0.106	0.001
-271.355	-200.000	0.017	0.269
-270.340	-82.475	0.084	0.027
-269.326	81.470	0.239	-0.258
-268.311	136.764	-0.094	-0.122
-267.297	-103.958	-0.183	0.043
-266.282	21.707	-0.122	0.100
-265.267	-29.372	0.295	0.169
-264.253	317.695	-0.141	0.267
-263.238	-200.000	0.002	0.064
-262.224	264.671	-0.139	-0.242
-261.209	91.472	0.106	0.119
-260.195	-96.529	0.329	0.087
-259.180	609.355	0.087	-0.217
-258.165	337.412	-0.014	0.026
-257.151	800.000	0.081	0.260
-256.136	-21.640	0.145	-0.088
-255.122	-81.549	0.026	-0.008
-254.107	18.485	-0.099	-0.080
-253.092	89.361	-0.128	0.143
-252.078	-68.243	-0.283	0.110
-251.063	43.070	0.086	0.078
-250.049	-99.927	-0.120	-0.030
-249.034	-200.000	-0.028	-0.191
-248.019	-200.000	0.004	-0.122
-247.005	480.276	-0.097	-0.221
-245.990	-94.834	0.072	-0.020
-244.976	-115.873	0.200	0.037
-243.961	-200.000	0.001	0.107
-242.946	-200.000	-0.007	-0.108
-241.932	268.411	-0.177	0.310
-240.917	-3.474	-0.144	-0.100
-239.903	11.692	0.271	0.208
-238.888	-96.918	0.073	0.019
-237.873	136.719	0.119	-0.155
-236.859	31.449	-0.027	-0.023
-235.844	800.000	0.033	-0.137
-234.830	-200.000	-0.055	0.271
-233.815	800.000	0.040	0.119
-232.800	-200.000	0.018	0.203
-231.786	184.701	0.093	-0.138
-230.771	-200.000	0.057	-0.321
-229.757	-104.047	0.097	0.022
-228.742	55.367	0.146	0.141
-227.727	800.000	-0.100	-0.342
-226.713	-131.628	-0.220	-0.029
-225.698	344.693	0.055	0.107
-224.684	800.000	-0.021	0.076
-223.669	-200.000	-0.023	-0.200
-222.655	-141.980	-0.200	-0.020
-221.640	10.578	-0.246	0.187
-220.625	108.222	0.046	0.055
-219.611	20.402	0.164	-0.133
-218.596	-19.848	0.211	0.130
-217.582	-162.597	-0.206	0.010
-216.567	-98.195	-0.187	-0.048
-215.552	-200.000	-0.001	0.091
-214.538	800.000	-0.067	0.283
-213.523	-133.859	0.082	-0.010
-212.509	53.513	0.079	-0.076
-211.494	418.344	-0.063	0.136
-210.479	-32.275	-0.165	0.092
-209.465	-7.821	0.305	0.206
-208.450	800.000	0.073	-0.248
-207.436	535.051	0.114	-0.270
-206.421	800.000	0.140	-0.449
-205.406	-0.875	0.050	0.035
-204.392	800.000	0.040	0.141
-203.377	-52.327	0.116	0.054
-202.363	-27.057	0.158	-0.092
-201.348	-65.423	-0.209	0.084
-200.333	-200.000	0.034	0.181
-199.319	-119.567	0.370	0.064
-198.304	-51.103	-0.164	0.077
-197.290	4.150	0.149	0.109
-196.275	-200.000	-0.028	0.173
-195.260	-92.736	0.148	-0.042
-194.246	-129.793	-0.192	-0.026
-193.231	57.510	-0.164	0.160
-192.217	-92.581	0.015	-0.004
-191.202	800.000	0.063	0.179
-190.187	-200.000	0.022	-0.239
-189.173	142.259	0.052	-0.069
-188.158	-16.673	-0.174	0.110
-187.144	-24.558	-0.357	0.212
-186.129	-122.333	-0.353	0.058
-185.114	139.491	0.100	0.131
-184.100	440.941	0.129	0.281
-183.085	61.002	-0.233	0.231
-182.071	-36.793	0.292	0.156
-181.056	120.515	0.165	-0.205
-180.042	131.329	0.196	-0.251
-179.027	94.994	-0.037	-0.042
-178.012	337.874	0.098	0.190
-176.998	-32.608	-0.072	-0.040
-175.983	-85.646	-0.259	-0.080
-174.969	239.025	0.082	0.136
-173.954	-110.002	-0.148	-0.031
-172.939	680.305	-0.053	0.138
-171.925	501.717	0.034	0.078
-170.910	-149.853	0.090	-0.007
-169.896	-48.357	-0.211	-0.101
-168.881	94.700	0.348	0.395
-167.866	-101.488	-0.042	0.010
-166.852	313.114	-0.072	-0.135
-165.837	-166.254	0.235	-0.010
-164.823	800.000	-0.060	-0.211
-163.808	-149.338	0.171	-0.014
-162.793	104.358	0.318	-0.373
-161.779	177.212	-0.165	0.239
-160.764	-34.720	-0.272	0.148
-159.750	36.035	0.083	-0.073
-158.735	36.479	0.181	0.159
-157.720	-112.482	0.231	0.046
-156.706	-161.627	-0.179	-0.009
-155.691	491.819	0.038	0.086
-154.677	-153.683	0.215	0.015
-153.662	-200.000	0.006	0.205
-152.647	-23.934	0.109	0.065
-151.633	-35.908	0.180	-0.097
-150.618	-142.854	-0.047	-0.005
-149.604	116.881	0.098	0.120
-148.589	-33.646	-0.212	-0.116
-147.574	-75.530	-0.080	0.028
-146.560	166.254	-0.037	0.052
-145.545	-200.000	-0.000	0.340
-144.531	184.674	-0.167	0.247
-143.516	29.876	-0.327	0.277
-142.502	-24.982	0.198	0.117
-141.487	-78.403	-0.233	-0.080
-140.472	-200.000	-0.188	0.001
-139.458	800.000	0.025	0.104
-138.443	-99.122	0.236	0.059
-137.429	-64.244	0.230	-0.093
-136.414	-128.725	-0.133	-0.019
-135.399	-24.105	-0.275	-0.164
-134.385	340.064	0.032	0.061
-133.370	-200.000	0.032	-0.165
-132.356	-200.000	0.037	0.312
-131.341	-200.000	0.049	-0.284
-130.326	-127.286	0.282	-0.041
-129.312	98.861	-0.081	0.093
-128.297	-142.147	-0.166	0.016
-127.283	-45.094	-0.219	0.109
-126.268	-36.175	0.380	0.204
-125.253	-139.557	0.070	0.007
-124.239	-200.000	-0.017	0.151
-123.224	117.935	-0.137	0.168
-122.210	250.075	0.098	-0.166
-121.195	800.000	-0.071	0.226
-120.180	-200.000	0.010	0.132
-119.166	-101.498	0.236	-0.057
-118.151	-200.000	-0.008	0.225
-117.137	95.706	-0.135	-0.153
-116.122	-38.331	-0.432	0.228
-115.107	-89.057	-0.144	0.043
-114.093	251.535	0.090	0.153
-113.078	-200.000	-0.049	0.411
-112.064	8.599	0.284	0.213
-111.049	8.571	0.168	-0.126
-110.034	380.071	-0.113	-0.231
-109.020	-151.616	-0.114	-0.008
-108.005	38.511	0.181	0.161
-106.991	198.823	0.116	0.177
-105.976	456.778	0.109	0.242
-104.962	-200.000	-0.196	0.001
-103.947	483.595	-0.132	-0.298
-102.932	543.828	0.013	-0.031
-101.918	-69.733	0.232	0.088
-100.903	-48.436	0.175	-0.084
-99.889	137.176	-0.282	0.366
-98.874	222.942	-0.122	0.195
-97.859	-200.000	0.012	0.423
-96.845	-106.128	-0.119	0.026
-95.830	45.992	0.244	0.224
-94.816	23.378	0.195	-0.160
-93.801	-42.387	0.171	-0.087
-92.786	14.032	0.131	-0.101
-91.772	72.424	-0.089	0.092
-90.757	-200.000	0.009	-0.118
-89.743	48.395	0.077	-0.071
-88.728	32.678	-0.254	0.218
-87.713	-11.508	-0.157	0.103
-86.699	135.351	-0.183	-0.236
-85.684	800.000	-0.016	-0.067
-84.670	-107.986	0.287	0.062
-83.655	800.000	0.084	0.293
-82.640	-128.282	0.284	0.040
-81.626	-51.234	-0.244	0.114
-80.611	800.000	-0.099	0.422
-79.597	26.137	0.171	-0.142
-78.582	380.293	0.264	0.538
-77.567	-200.000	-0.002	-0.045
-76.553	276.583	-0.187	0.329
-75.538	300.050	-0.105	0.192
-74.524	-200.000	-0.014	-0.248
-73.509	315.610	-0.088	0.166
-72.494	-96.099	-0.233	0.061
-71.480	800.000	-0.025	0.073
-70.465	39.465	-0.091	-0.081
-69.451	506.539	0.115	0.265
-68.436	88.483	0.081	0.090
-67.422	-200.000	-0.018	0.140
-66.407	-200.000	-0.082	-0.451
-65.392	-60.827	-0.123	0.052
-64.378	259.592	0.124	0.213
-63.363	118.104	0.082	0.100
-62.349	-24.625	-0.339	0.200
-61.334	35.183	-0.964	-0.839
-60.319	169.871	0.277	0.394
-59.305	-200.000	-0.071	-0.800
-58.290	8.268	0.874	0.652
-57.276	276.824	0.783	1.383
-56.261	-200.000	93.550	550.819
-55.246	613.420	1383.044	3437.706
-54.232	186.263	2596.294	3834.939
-53.217	121.889	2212.482	2740.479
-52.203	46.488	1745.003	1607.085
-51.188	39.050	1553.912	1379.078
-50.173	36.535	1526.471	1337.294
-49.159	54.739	1574.905	1508.028
-48.144	58.243	1594.336	1551.201
-47.130	39.493	1550.015	1378.498
-46.115	36.251	1535.065	1342.634
-45.100	36.137	1531.594	1338.750
-44.086	36.023	1529.967	1336.487
-43.071	35.981	1527.978	1334.408
-42.057	35.899	1526.560	1332.548
-41.042	35.940	1524.609	1331.077
-40.027	35.943	1523.437	1330.018
-39.013	35.902	1521.975	1328.410
-37.998	35.930	1520.921	1327.629
-36.984	35.939	1519.406	1326.316
-35.969	35.953	1517.996	1325.127
-34.954	35.904	1516.970	1323.844
-33.940	35.988	1515.483	1323.066
-32.925	35.958	1514.363	1321.835
-31.911	35.972	1513.042	1320.726
-30.896	36.044	1511.204	1319.557
-29.881	36.024	1510.253	1318.538
-28.867	36.082	1508.598	1317.439
-27.852	36.031	1507.310	1315.914
-26.838	36.085	1505.240	1314.424
-25.823	35.961	1503.944	1312.391
-24.809	35.981	1502.302	1311.042
-23.794	36.017	1500.719	1309.859
-22.779	36.000	1500.004	1309.063
-21.765	36.008	1498.666	1307.899
-20.750	36.054	1497.750	1307.361
-19.736	36.055	1496.686	1306.386
-18.721	35.985	1495.529	1304.849
-17.706	36.034	1493.623	1303.469
-16.692	36.010	1492.927	1302.646
-15.677	35.982	1492.258	1301.820
-14.663	36.008	1490.963	1300.813
-13.648	35.962	1490.111	1299.710
-12.633	35.910	1489.482	1298.756
-11.619	36.040	1488.118	1298.396
-10.604	36.022	1487.401	1297.596
-9.590	35.951	1486.412	1296.203
-8.575	36.013	1485.499	1295.773
-7.560	36.035	1484.619	1295.103
-6.546	35.971	1483.845	1293.948
-5.531	35.909	1483.159	1292.881
-4.517	35.866	1482.037	1291.562
-3.502	35.856	1481.102	1290.629
-2.487	35.976	1479.741	1290.196
-1.473	35.964	1478.388	1288.884
-0.458	35.989	1477.446	1288.177
0.556	37.696	1467.666	1275.128
1.571	33.785	1439.099	1225.027
2.586	28.853	1372.857	1138.086
3.600	26.132	1286.647	1050.708
4.615	23.769	1238.231	997.830
5.629	19.757	1180.758	929.899
6.644	12.088	1096.238	824.818
7.659	6.454	1055.579	766.800
8.673	5.428	1050.455	758.042
9.688	5.425	1047.519	755.838
10.702	5.409	1045.659	754.352
11.717	5.309	1044.182	752.738
12.731	6.978	1044.993	761.298
13.746	13.973	1054.602	802.110
14.761	20.573	1062.533	840.066
15.775	21.726	1063.920	846.665
16.790	21.133	1061.755	842.006
17.804	20.028	1060.105	835.298
18.819	19.112	1058.182	829.300
19.834	18.753	1056.592	826.251
20.848	18.538	1055.678	824.429
21.863	18.379	1055.155	823.184
22.877	18.164	1054.911	821.888
23.892	17.945	1053.996	820.054
24.907	17.909	1053.070	819.085
25.921	17.902	1052.387	818.451
26.936	17.942	1051.283	817.708
27.950	17.956	1050.387	817.005
28.965	18.083	1049.127	816.562
29.980	18.037	1048.236	815.575
30.994	18.230	1046.832	815.329
32.009	18.388	1045.954	815.326
33.023	18.412	1045.346	814.896
34.038	18.327	1044.878	814.056
35.053	18.219	1044.167	812.914
36.067	18.048	1043.292	811.350
37.082	18.276	1041.547	811.004
38.096	18.181	1041.166	810.183
39.111	18.204	1040.691	809.853
40.126	18.273	1039.863	809.461
41.140	18.190	1038.582	808.003
42.155	17.896	1037.656	805.823
43.169	17.664	1036.425	803.702
44.184	17.747	1035.472	803.281
45.199	17.555	1034.500	801.553
46.213	17.612	1033.596	801.051
47.228	17.717	1032.557	800.665
48.242	18.107	1031.325	801.468
49.257	18.126	1030.912	801.166
50.271	17.947	1030.308	799.787
51.286	18.013	1029.213	799.175
52.301	18.238	1028.446	799.562
53.315	18.219	1027.562	798.715
54.330	18.004	1026.881	797.112
55.344	17.732	1026.058	795.131
56.359	17.822	1024.923	794.601
57.374	17.794	1024.202	793.844
58.388	17.883	1022.723	793.040
59.403	17.778	1022.604	792.391
60.417	17.702	1021.567	791.165
61.432	17.681	1020.597	790.244
62.447	17.643	1020.220	789.706
63.461	17.557	1019.290	788.521
64.476	17.602	1018.072	787.715
65.490	17.471	1017.465	786.572
66.505	17.595	1016.511	786.338
67.520	17.543	1015.604	785.326
68.534	17.683	1014.896	785.351
69.549	17.701	1014.020	784.689
70.563	17.619	1013.370	783.740
71.578	17.537	1012.794	782.848
72.593	17.488	1012.151	782.053
73.607	17.282	1011.370	780.438
74.622	17.345	1009.843	779.479
75.636	17.421	1008.928	779.050
76.651	17.443	1008.120	778.461
77.666	17.425	1007.246	777.636
78.680	17.442	1006.734	777.245
79.695	17.464	1006.189	776.858
80.709	17.568	1005.902	777.044
81.724	17.587	1004.806	776.212
82.739	17.752	1004.122	776.366
83.753	17.739	1003.752	775.952
84.768	17.783	1003.461	775.861
85.782	18.127	1002.456	776.578
86.797	18.325	1001.832	776.924
87.812	18.379	1000.732	776.245
88.826	18.101	999.876	774.256
89.841	18.071	999.435	773.707
90.855	18.188	998.671	773.577
91.870	18.231	998.045	773.221
92.884	18.417	997.152	773.297
93.899	18.278	996.343	771.975
94.914	18.263	995.783	771.407
95.928	18.328	994.809	770.877
96.943	18.484	993.993	770.876
97.957	18.310	993.088	769.325
98.972	18.124	992.723	768.140
99.987	18.241	991.688	767.794
101.001	18.191	991.034	766.995
102.016	18.184	990.346	766.364
103.030	18.181	989.419	765.564
104.045	18.350	988.018	765.171
105.060	18.336	986.934	764.200
106.074	18.162	986.441	762.974
107.089	17.974	985.429	761.285
108.103	17.695	984.146	758.988
109.118	17.594	983.572	758.027
110.133	17.525	982.659	756.950
111.147	17.506	981.595	755.978
112.162	17.531	980.514	755.191
113.176	17.774	979.899	755.727
114.191	17.806	978.914	755.040
115.206	17.914	978.283	754.967
116.220	17.711	977.714	753.562
117.235	17.786	976.862	753.168
118.249	17.626	976.172	751.867
119.264	17.616	974.895	750.772
120.279	17.559	974.373	750.050
121.293	17.612	973.448	749.505
122.308	17.508	972.490	748.245
123.322	17.495	971.655	747.480
124.337	17.506	970.506	746.579
125.352	17.521	969.430	745.750
126.366	17.401	968.467	744.420
127.381	17.348	967.403	743.303
128.395	17.483	966.402	743.058
129.410	17.502	965.600	742.456
130.424	17.424	965.000	741.593
131.439	17.606	963.826	741.416
132.454	17.615	963.396	741.058
133.468	17.778	962.488	741.002
134.483	17.847	962.158	740.984
135.497	17.862	961.523	740.492
136.512	17.820	960.027	739.094
137.527	17.722	959.569	738.251
138.541	17.966	958.568	738.472
139.556	17.966	958.190	738.115
140.570	17.754	957.891	736.905
141.585	18.044	956.825	737.269
142.600	18.096	956.763	737.381
143.614	18.191	955.816	736.995
144.629	18.280	955.022	736.700
145.643	18.380	954.268	736.483
146.658	18.297	953.332	735.339
147.673	18.103	952.289	733.640
148.687	18.056	951.077	732.436
149.702	17.816	950.180	730.655
150.716	17.834	949.041	729.792
151.731	17.910	948.561	729.681
152.746	17.808	947.445	728.325
153.760	17.952	946.966	728.504
154.775	17.871	946.138	727.459
155.789	18.025	945.573	727.615
156.804	18.089	944.673	727.131
157.819	18.092	944.254	726.755
158.833	18.152	943.597	726.440
159.848	18.220	942.754	726.016
160.862	18.261	942.438	725.881
161.877	18.424	941.426	725.731
162.892	18.185	940.026	723.578
163.906	17.965	939.517	722.190
164.921	17.710	938.778	720.478
165.935	17.882	937.648	720.276
166.950	17.944	936.768	719.796
167.964	17.997	936.238	719.551
168.979	18.006	935.107	718.655
169.994	17.900	934.179	717.431
171.008	17.799	933.177	716.175
172.023	18.011	932.184	716.237
173.037	18.023	931.689	715.846
174.052	18.315	930.949	716.436
175.067	18.131	930.147	714.985
176.081	18.068	929.041	713.809
177.096	17.711	928.635	711.943
178.110	17.972	927.590	712.166
179.125	17.907	926.957	711.349
180.140	17.942	925.899	710.620
181.154	18.039	924.943	710.224
182.169	18.162	924.912	710.651
183.183	18.188	924.304	710.227
184.198	18.199	924.142	710.087
185.213	18.130	923.180	708.997
186.227	18.213	922.718	708.924
187.242	18.268	922.094	708.610
188.256	18.380	921.698	708.706
189.271	18.589	920.480	708.569
190.286	18.583	920.130	708.212
191.300	18.300	918.847	705.998
192.315	17.897	917.917	703.559
193.329	17.703	917.134	702.096
194.344	17.733	916.361	701.568
195.359	17.803	916.294	701.743
196.373	18.100	915.797	702.519
197.388	18.098	915.204	701.995
198.402	18.394	914.550	702.647
199.417	18.513	914.501	703.034
200.432	18.477	914.192	702.588
201.446	18.699	913.669	703.031
202.461	18.623	913.705	702.687
203.475	18.683	913.113	702.415
204.490	18.807	912.187	702.146
205.504	18.641	911.209	700.653
206.519	18.503	910.309	699.335
207.534	18.437	909.064	698.050
208.548	18.460	908.456	697.615
209.563	18.256	908.437	696.706
210.577	18.403	907.572	696.581
211.592	18.438	906.599	695.916
212.607	18.638	906.394	696.505
213.621	18.639	906.075	696.205
214.636	18.592	905.172	695.256
215.650	18.650	904.654	695.034
216.665	18.712	904.051	694.760
217.680	18.657	903.452	694.017
218.694	18.825	903.233	694.464
219.709	18.987	902.336	694.369
220.723	18.887	902.022	693.663
221.738	18.670	901.529	692.344
222.753	18.751	900.407	691.749
223.767	18.727	899.841	691.157
224.782	18.706	899.054	690.407
225.796	18.827	898.628	690.506
226.811	18.874	897.973	690.128
227.826	18.893	897.307	689.632
228.840	18.732	896.103	688.002
229.855	18.738	895.609	687.586
230.869	18.798	895.187	687.439
231.884	18.776	894.374	686.667
232.899	18.819	893.406	686.036
233.913	18.711	892.494	684.844
234.928	18.590	892.083	683.985
235.942	18.581	891.292	683.282
236.957	18.555	890.404	682.435
237.972	18.563	890.105	682.177
238.986	18.504	889.447	681.381
240.001	18.603	888.378	680.895
241.015	18.601	888.182	680.676
242.030	18.674	887.039	680.027
243.045	18.756	886.834	680.134
244.059	18.747	886.341	679.661
245.074	18.925	885.587	679.728
246.088	18.859	884.801	678.802
247.103	18.868	884.650	678.662
248.117	19.120	884.112	679.184
249.132	19.069	883.769	678.660
250.147	19.287	882.927	678.812
251.161	19.414	882.885	679.221
252.176	19.512	882.266	679.069
253.190	19.659	881.428	678.943
254.205	19.657	881.009	678.550
255.220	19.642	880.135	677.759
256.234	19.588	879.550	677.035
257.249	19.522	879.071	676.347
258.263	19.576	878.384	675.973
259.278	19.735	877.913	676.173
260.293	19.569	877.694	675.294
261.307	19.582	877.084	674.816
262.322	19.662	876.382	674.530
263.336	19.778	875.730	674.418
264.351	19.782	875.004	673.818
265.366	19.782	874.457	673.337
266.380	19.814	873.955	673.012
267.395	19.774	873.281	672.280
268.409	19.612	872.688	671.136
269.424	19.639	871.314	670.123
270.439	19.516	871.027	669.367
271.453	19.720	869.971	669.286
272.468	19.612	869.535	668.471
273.482	19.630	868.606	667.768
274.497	19.507	868.357	667.042
275.512	19.519	867.625	666.467
276.526	19.474	866.834	665.629
277.541	19.502	866.200	665.189
278.555	19.552	865.663	664.911
279.570	19.733	865.303	665.273
280.585	19.903	865.018	665.648
281.599	19.915	864.663	665.364
282.614	19.589	863.625	663.254
283.628	19.565	862.889	662.536
284.643	19.599	862.574	662.366
285.657	19.767	861.763	662.328
286.672	19.712	861.097	661.549
287.687	19.742	860.937	661.482
288.701	19.789	860.490	661.261
289.716	19.715	859.532	660.182
290.730	19.657	859.128	659.592
291.745	19.819	858.369	659.567
292.760	19.930	857.678	659.403
293.774	19.784	857.172	658.399
294.789	20.046	856.668	658.952
295.803	19.998	856.339	658.458
296.818	19.863	855.299	657.086
297.833	19.832	854.691	656.442
298.847	19.696	854.177	655.475
299.862	19.805	853.675	655.443
300.876	19.788	853.165	654.930
301.891	19.921	851.989	654.474
302.906	20.114	851.558	654.815
303.920	20.121	851.459	654.704
304.935	20.229	850.739	654.503
305.949	20.323	850.390	654.530
306.964	20.377	849.238	653.789
307.979	20.140	848.930	652.602
308.993	20.037	848.444	651.782
310.008	20.239	847.774	651.970
311.022	20.377	847.326	652.085
312.037	20.189	846.973	651.051
313.052	20.228	846.239	650.576
314.066	20.192	845.408	649.745
315.081	19.956	844.678	648.242
316.095	19.834	844.222	647.376
317.110	20.005	843.418	647.344
318.125	19.900	843.417	646.894
319.139	19.817	843.053	646.248
320.154	19.851	842.228	645.682
321.168	19.966	841.807	645.733
322.183	20.081	841.091	645.555
323.197	19.928	840.714	644.640
324.212	20.104	840.101	644.765
325.227	20.075	839.717	644.307
326.241	19.944	839.090	643.282
327.256	20.030	838.537	643.120
328.270	20.015	837.971	642.573
329.285	19.994	837.387	641.991
330.300	19.950	836.965	641.447
331.314	19.921	836.293	640.769
332.329	20.019	835.363	640.360
333.343	20.258	834.868	640.807
334.358	20.262	834.774	640.692
335.373	20.363	834.117	640.505
336.387	20.247	833.673	639.679
337.402	20.434	832.869	639.695
338.416	20.590	832.094	639.618
339.431	20.449	832.146	639.081
340.446	20.634	831.559	639.256
341.460	20.636	831.201	638.929
342.475	20.765	830.363	638.703
343.489	20.818	829.923	638.503
344.504	20.749	829.579	637.930
345.519	20.875	828.967	637.861
346.533	20.901	828.712	637.704
347.548	20.869	828.006	636.988
348.562	20.724	826.936	635.581
349.577	20.650	826.314	634.775
350.592	20.489	826.168	634.020
351.606	20.432	825.458	633.209
352.621	20.237	824.968	632.070
353.635	20.461	824.325	632.335
354.650	20.475	824.221	632.251
355.665	20.447	823.898	631.846
356.679	20.560	823.451	631.856
357.694	20.823	822.473	632.004
358.708	20.853	821.985	631.681
359.723	20.844	821.520	631.238
360.738	20.712	821.293	630.528
361.752	20.562	821.059	629.752
362.767	20.788	820.321	629.946
363.781	20.936	819.842	630.058
364.796	21.027	819.574	630.126
365.810	21.005	819.147	629.662
366.825	21.223	818.884	630.191
367.840	21.226	818.790	630.072
368.854	21.097	818.348	629.210
369.869	21.034	817.210	628.053
370.883	20.951	817.329	627.790
371.898	21.036	816.479	627.390
372.913	21.108	815.900	627.147
373.927	21.082	815.380	626.598
374.942	21.105	814.669	626.080
375.956	21.089	813.754	625.262
376.971	21.196	813.317	625.256
377.986	21.312	813.005	625.373
379.000	21.276	812.396	624.723
380.015	21.342	812.418	624.921
381.029	21.315	811.530	624.085
382.044	21.394	810.739	623.702
383.059	21.391	810.223	623.241
384.073	21.366	809.371	622.442
385.088	21.422	808.889	622.214
386.102	21.181	808.446	620.962
387.117	21.128	807.987	620.366
388.132	21.190	807.474	620.136
389.146	21.023	807.147	619.238
390.161	21.029	806.353	618.596
391.175	21.158	806.274	618.937
392.190	21.410	805.919	619.504
393.205	21.276	805.501	618.652
394.219	21.202	804.826	617.817
395.234	21.192	804.297	617.321
396.248	20.902	804.062	616.063
397.263	20.888	802.989	615.136
398.278	20.868	802.709	614.795
399.292	20.911	802.322	614.596
400.307	20.973	801.981	614.501
401.321	20.865	801.466	613.669
402.336	20.963	801.104	613.685
403.350	21.032	800.801	613.639
404.365	21.142	800.950	614.086
405.380	21.266	800.049	613.779
406.394	21.484	799.328	613.934
407.409	21.715	798.790	614.277
408.423	21.642	798.787	613.966
409.438	21.660	798.272	613.579
410.453	21.587	798.091	613.129
411.467	21.812	797.222	613.193
412.482	21.633	796.947	612.301
413.496	21.998	796.304	613.029
414.511	21.940	796.158	612.661
415.526	22.037	795.959	612.791
416.540	21.764	795.443	611.389
417.555	21.721	795.251	611.037
418.569	21.899	794.513	611.037
419.584	21.985	793.631	610.601
420.599	21.782	793.524	609.759
421.613	157.697	1368.132	1787.284
422.628	136.621	1451.844	1787.392
