DTS Sentinel unit serial number:	SN413079Multiplexer serial number:	ORYXHardware model number:	OX4-SRSoftware version number:	ORYX F/W v4.00 Oryx Data Collector v3.7.2.0data status	okinstallation	princeton_trtdifferential loss correction	single-endedforward channel	channel 3reverse channel	N/Adate	2019/09/12time	07:34:10forward acquisition time	60.00reverse acquisition time	0.00gamma	496.2192k internal	0.2316k external	0.2316temperature offset calibration	1.0032default loss term (dB/km)	0.3790temperature slope calibration	1.0000multiplexer offset coefficient	1.0000multiplexer slope coefficient	1.0000fibre end	0.00T internal ref (°C)	32.56T ext. ref 1 (°C)	1.63T ext. ref 2 (°C)	29.16length (m)	temperature (°C)	Stokes	anti-Stokes-747.200	-159.887	-0.381	-0.021
-746.185	191.586	-0.110	0.168
-745.171	357.341	0.085	0.171
-744.156	44.531	-0.188	0.175
-743.142	124.889	-0.031	0.040
-742.127	100.762	-0.047	0.056
-741.112	-79.932	-0.296	-0.101
-740.098	800.000	-0.097	0.306
-739.083	56.794	0.161	0.159
-738.069	170.561	-0.181	0.262
-737.054	-76.651	-0.056	0.020
-736.039	2.402	-0.240	-0.176
-735.025	-74.876	0.489	-0.178
-734.010	-44.108	-0.411	-0.209
-732.996	800.000	-0.088	-0.254
-731.981	11.323	0.323	0.250
-730.966	102.014	-0.132	-0.156
-729.952	56.057	-0.154	-0.152
-728.937	63.558	0.055	0.056
-727.923	-56.098	-0.172	-0.078
-726.908	160.235	0.133	0.188
-725.894	-199.879	-0.287	0.001
-724.879	-71.651	-0.131	-0.050
-723.864	-200.000	-0.028	0.149
-722.850	190.895	0.099	0.151
-721.835	-200.000	0.012	0.194
-720.821	378.517	-0.082	0.171
-719.806	29.018	0.173	0.149
-718.791	173.292	0.208	-0.303
-717.777	89.628	-0.077	-0.087
-716.762	-16.297	0.218	-0.140
-715.748	-200.000	0.009	-0.094
-714.733	117.027	0.114	0.142
-713.718	279.378	-0.233	0.420
-712.704	-51.257	-0.292	0.138
-711.689	-125.146	-0.116	-0.018
-710.675	-99.246	0.250	0.064
-709.660	87.181	-0.108	-0.120
-708.645	323.252	0.119	0.230
-707.631	-117.742	0.283	0.051
-706.616	15.854	-0.131	-0.105
-705.602	-200.000	0.022	0.202
-704.587	-27.890	-0.107	0.063
-703.572	125.796	0.141	-0.180
-702.558	-133.820	-0.098	0.012
-701.543	12.681	0.133	-0.104
-700.529	-16.473	0.202	-0.129
-699.514	137.911	-0.222	-0.294
-698.499	-77.412	0.305	-0.107
-697.485	-115.306	0.401	0.077
-696.470	228.552	0.085	-0.141
-695.456	800.000	0.042	0.165
-694.441	-127.909	-0.367	0.053
-693.426	-38.172	0.096	-0.052
-692.412	-91.841	-0.242	-0.069
-691.397	140.178	-0.107	0.143
-690.383	-200.000	0.032	-0.211
-689.368	357.857	0.079	-0.159
-688.354	800.000	-0.126	-0.547
-687.339	-98.932	-0.033	0.008
-686.324	-200.000	0.032	-0.141
-685.310	-200.000	0.039	0.210
-684.295	185.049	0.208	0.312
-683.281	800.000	0.017	-0.051
-682.266	451.854	0.090	-0.200
-681.251	-159.003	-0.122	-0.007
-680.237	-107.746	0.100	-0.022
-679.222	500.274	0.126	-0.294
-678.208	-200.000	-0.014	-0.458
-677.193	-200.000	-0.001	-0.148
-676.178	-11.189	-0.252	-0.168
-675.164	374.333	-0.079	-0.163
-674.149	-68.500	0.243	0.095
-673.135	-111.407	-0.392	-0.081
-672.120	-156.192	-0.064	-0.004
-671.105	-8.781	-0.157	-0.106
-670.091	182.634	-0.266	0.397
-669.076	-43.647	0.170	0.086
-668.062	219.006	0.102	0.165
-667.047	8.814	-0.172	-0.131
-666.032	-91.923	-0.016	0.005
-665.018	-200.000	0.015	0.395
-664.003	-200.000	0.022	0.459
-662.989	50.422	-0.243	0.232
-661.974	1.689	0.083	0.060
-660.959	-200.000	-0.043	0.260
-659.945	219.927	0.049	-0.079
-658.930	-34.720	0.070	0.039
-657.916	-107.695	0.245	-0.054
-656.901	351.497	-0.067	-0.133
-655.886	141.560	-0.233	0.311
-654.872	23.583	-0.085	0.070
-653.857	-200.000	0.029	-0.230
-652.843	2.864	0.233	0.171
-651.828	-79.369	0.208	0.071
-650.814	-46.164	-0.111	0.055
-649.799	-200.000	0.018	0.189
-648.784	-84.701	0.145	-0.046
-647.770	800.000	0.031	0.132
-646.755	420.807	-0.077	-0.166
-645.741	183.984	-0.054	0.080
-644.726	-200.000	-0.008	-0.134
-643.711	-65.925	0.087	-0.035
-642.697	392.226	0.098	0.204
-641.682	-141.533	0.292	-0.030
-640.668	-200.000	-0.088	-0.393
-639.653	109.599	-0.180	0.217
-638.638	292.239	0.225	0.413
-637.624	-200.000	-0.006	-0.069
-636.609	-114.755	0.079	-0.015
-635.595	-200.000	-0.006	0.140
-634.580	-30.711	0.191	0.109
-633.565	-147.726	-0.143	-0.012
-632.551	191.078	0.183	-0.278
-631.536	-12.627	-0.239	0.157
-630.522	82.344	-0.214	-0.234
-629.507	-200.000	-0.030	-0.265
-628.492	-46.218	0.151	0.075
-627.478	120.974	-0.091	0.114
-626.463	-200.000	0.002	0.665
-625.449	-9.365	-0.396	0.267
-624.434	26.335	0.136	-0.115
-623.419	-200.000	-0.023	0.169
-622.405	4.396	-0.160	-0.119
-621.390	-97.539	-0.157	0.041
-620.376	-123.024	0.382	0.062
-619.361	-200.000	-0.048	0.366
-618.346	333.904	-0.168	-0.328
-617.332	-40.322	0.156	-0.082
-616.317	-44.167	-0.156	-0.079
-615.303	-120.505	0.234	0.040
-614.288	197.608	0.194	-0.299
-613.273	-107.444	-0.266	-0.059
-612.259	337.127	-0.059	-0.115
-611.244	-91.601	-0.416	-0.119
-610.230	-14.567	0.212	-0.137
-609.215	-200.000	-0.004	-0.241
-608.201	381.667	0.086	-0.178
-607.186	-138.938	0.188	0.021
-606.171	-200.000	-0.053	-0.304
-605.157	-200.000	-0.009	0.123
-604.142	132.967	0.204	-0.265
-603.128	73.902	-0.221	-0.234
-602.113	-0.023	0.203	-0.146
-601.098	25.963	-0.287	0.241
-600.084	4.979	0.238	-0.176
-599.069	-200.000	-0.093	0.000
-598.055	-72.849	0.318	0.118
-597.040	-55.332	-0.175	0.079
-596.025	66.789	-0.076	-0.078
-595.011	223.043	0.099	0.160
-593.996	-63.867	0.148	0.061
-592.982	144.317	-0.110	-0.147
-591.967	-91.042	-0.227	-0.066
-590.952	-126.692	0.239	0.036
-589.938	790.489	-0.075	0.207
-588.923	-116.983	0.247	-0.045
-587.909	84.484	-0.182	-0.201
-586.894	-36.610	-0.089	-0.048
-585.879	800.000	-0.021	0.063
-584.865	-86.802	-0.155	-0.048
-583.850	-144.146	0.159	0.015
-582.836	28.094	0.221	-0.188
-581.821	10.623	-0.120	0.092
-580.806	0.754	0.159	-0.115
-579.792	89.864	0.162	-0.182
-578.777	-30.604	-0.377	-0.215
-577.763	64.715	-0.096	-0.097
-576.748	-200.000	-0.050	0.239
-575.733	106.127	-0.129	-0.154
-574.719	-142.646	0.084	-0.008
-573.704	-200.000	0.031	0.169
-572.690	43.505	-0.165	0.152
-571.675	-200.000	0.019	0.102
-570.661	107.501	-0.075	0.090
-569.646	131.853	0.079	0.102
-568.631	-19.596	0.366	-0.228
-567.617	663.049	0.082	-0.214
-566.602	-200.000	-0.006	-0.042
-565.588	-90.552	0.070	0.020
-564.573	-136.904	-0.067	0.008
-563.558	-16.752	0.080	-0.051
-562.544	163.474	0.217	0.306
-561.529	-66.418	-0.074	-0.030
-560.515	-22.129	-0.275	-0.168
-559.500	300.668	-0.148	0.274
-558.485	-52.219	-0.295	-0.137
-557.471	-1.630	-0.105	-0.074
-556.456	35.906	-0.209	-0.185
-555.442	-153.897	-0.274	0.019
-554.427	192.365	-0.124	-0.188
-553.412	159.756	0.151	-0.211
-552.398	28.210	0.183	-0.156
-551.383	272.630	-0.118	-0.210
-550.369	-200.000	-0.009	-0.158
-549.354	-41.785	-0.240	-0.124
-548.339	130.358	-0.184	-0.237
-547.325	-14.296	0.411	-0.266
-546.310	-31.885	0.140	0.079
-545.296	-153.394	0.265	0.019
-544.281	-89.707	0.152	-0.045
-543.266	800.000	0.020	-0.064
-542.252	-70.335	-0.174	-0.066
-541.237	-137.574	0.142	0.016
-540.223	198.706	0.037	-0.057
-539.208	220.417	-0.056	-0.089
-538.193	-38.830	-0.198	0.105
-537.179	-182.336	-0.078	0.001
-536.164	800.000	0.035	0.111
-535.150	-200.000	-0.037	0.336
-534.135	-146.001	0.141	0.013
-533.121	-148.745	0.270	-0.022
-532.106	136.800	-0.123	0.161
-531.091	-94.211	-0.164	-0.045
-530.077	599.975	-0.028	-0.070
-529.062	-40.279	0.234	0.122
-528.048	181.618	-0.084	0.124
-527.033	-16.058	-0.119	-0.076
-526.018	133.277	-0.180	0.234
-525.004	35.986	-0.132	0.117
-523.989	-200.000	-0.014	0.248
-522.975	800.000	0.085	0.289
-521.960	81.290	0.224	-0.243
-520.945	-124.064	-0.035	0.005
-519.931	-98.530	-0.140	0.036
-518.916	-148.246	0.305	-0.025
-517.902	136.131	0.137	-0.179
-516.887	-200.000	0.013	-0.081
-515.872	540.233	-0.053	0.126
-514.858	800.000	-0.024	-0.075
-513.843	-18.717	-0.308	-0.193
-512.829	542.062	0.068	0.162
-511.814	-200.000	-0.034	-0.165
-510.799	-200.000	0.034	0.199
-509.785	115.846	0.206	-0.253
-508.770	-117.246	0.384	0.070
-507.756	800.000	0.116	0.359
-506.741	-59.336	0.184	-0.079
-505.726	800.000	-0.118	0.494
-504.712	21.493	0.373	-0.305
-503.697	-79.899	0.161	0.054
-502.683	117.529	-0.209	0.258
-501.668	107.764	-0.090	0.107
-500.653	-200.000	0.007	-0.065
-499.639	800.000	-0.079	0.319
-498.624	-200.000	0.013	0.092
-497.610	-46.815	0.509	0.250
-496.595	432.986	-0.097	0.212
-495.581	179.443	0.216	0.317
-494.566	-200.000	0.002	0.062
-493.551	-88.585	0.159	0.048
-492.537	-150.994	0.161	-0.012
-491.522	404.403	-0.067	0.142
-490.508	582.038	0.164	0.403
-489.493	122.807	0.294	0.369
-488.478	-61.379	-0.195	0.082
-487.464	-47.410	-0.129	-0.063
-486.449	36.766	0.090	-0.080
-485.435	-133.307	0.221	-0.028
-484.420	195.447	-0.161	0.246
-483.405	5.392	0.140	0.103
-482.391	170.357	-0.078	0.112
-481.376	204.879	-0.068	0.106
-480.362	16.769	-0.046	0.037
-479.347	-164.856	-0.259	0.012
-478.332	459.383	0.054	0.120
-477.318	195.419	-0.212	0.323
-476.303	-129.770	-0.313	-0.043
-475.289	141.284	-0.121	-0.160
-474.274	-35.266	-0.304	-0.166
-473.259	14.757	0.269	-0.211
-472.245	-156.295	0.192	-0.012
-471.230	100.786	0.154	-0.180
-470.216	73.864	-0.195	-0.205
-469.201	-27.162	-0.150	0.088
-468.186	-200.000	-0.013	0.142
-467.172	14.272	0.366	-0.286
-466.157	-102.164	-0.336	0.081
-465.143	107.347	0.015	-0.018
-464.128	-85.418	-0.527	-0.164
-463.113	143.765	-0.252	0.337
-462.099	-200.000	-0.003	0.294
-461.084	-161.646	0.059	0.003
-460.070	-12.696	-0.248	-0.162
-459.055	-200.000	-0.031	-0.166
-458.040	-200.000	-0.051	-0.284
-457.026	40.306	0.180	-0.162
-456.011	476.920	0.162	0.367
-454.997	-200.000	-0.071	-0.335
-453.982	800.000	0.043	-0.128
-452.968	-200.000	-0.019	0.234
-451.953	800.000	-0.082	-0.252
-450.938	-16.173	-0.292	0.186
-449.924	2.435	0.189	-0.137
-448.909	127.285	-0.111	0.141
-447.895	-102.399	-0.136	0.033
-446.880	-81.792	-0.081	-0.027
-445.865	4.471	-0.068	0.050
-444.851	9.179	0.145	-0.110
-443.836	250.842	0.094	0.159
-442.822	169.967	0.050	-0.071
-441.807	371.053	-0.140	-0.283
-440.792	-200.000	-0.008	-0.108
-439.778	-191.016	-0.424	0.004
-438.763	102.709	0.197	-0.231
-437.749	800.000	-0.065	-0.196
-436.734	-23.996	-0.180	-0.108
-435.719	-109.285	-0.169	-0.036
-434.705	259.743	0.091	-0.157
-433.690	11.694	-0.071	-0.055
-432.676	133.804	0.174	0.226
-431.661	800.000	0.040	0.154
-430.646	53.420	-0.018	-0.017
-429.632	-107.264	-0.264	-0.058
-428.617	-112.362	-0.167	0.033
-427.603	134.211	-0.074	0.096
-426.588	154.652	0.161	-0.222
-425.573	-78.602	0.142	-0.049
-424.559	-200.000	-0.013	0.112
-423.544	29.151	-0.111	-0.094
-422.530	-11.966	-0.129	0.085
-421.515	-120.630	0.421	0.071
-420.500	-43.275	-0.370	0.187
-419.486	46.165	0.206	-0.191
-418.471	138.116	0.173	0.226
-417.457	-200.000	-0.044	0.198
-416.442	107.557	-0.164	-0.195
-415.428	800.000	-0.052	-0.174
-414.413	77.940	0.135	-0.144
-413.398	-72.821	-0.144	0.053
-412.384	-51.193	0.296	-0.139
-411.369	485.748	-0.067	0.152
-410.355	-66.193	-0.069	-0.028
-409.340	417.318	0.024	-0.052
-408.325	-114.138	-0.324	-0.063
-407.311	279.414	-0.122	-0.218
-406.296	162.646	0.057	0.080
-405.282	248.007	0.107	-0.181
-404.267	-111.475	-0.304	0.062
-403.252	66.853	0.073	-0.074
-402.238	494.486	0.135	0.309
-401.223	800.000	-0.017	-0.058
-400.209	-64.363	0.191	-0.078
-399.194	386.613	0.079	-0.163
-398.179	-106.862	0.233	0.052
-397.165	774.222	0.092	0.252
-396.150	800.000	0.083	0.248
-395.136	83.875	0.164	0.179
-394.121	-200.000	-0.012	-0.065
-393.106	442.953	0.139	0.305
-392.092	-28.384	0.088	-0.051
-391.077	-81.067	-0.442	-0.146
-390.063	800.000	-0.140	0.398
-389.048	211.509	-0.116	0.183
-388.033	-85.853	0.191	-0.059
-387.019	-200.000	0.010	-0.288
-386.004	103.792	0.087	-0.102
-384.990	-200.000	-0.000	0.146
-383.975	-200.000	-0.039	-0.216
-382.960	98.971	-0.164	0.189
-381.946	114.354	-0.055	0.067
-380.931	30.114	-0.121	0.103
-379.917	29.743	0.079	-0.067
-378.902	800.000	-0.070	0.205
-377.888	800.000	0.046	-0.183
-376.873	232.154	-0.157	-0.258
-375.858	164.848	-0.102	0.143
-374.844	259.279	0.127	0.219
-373.829	365.099	0.128	-0.258
-372.815	-200.000	0.004	0.183
-371.800	405.599	0.136	0.286
-370.785	155.228	-0.101	-0.139
-369.771	-200.000	0.013	-0.141
-368.756	161.240	0.262	-0.366
-367.742	-34.898	0.373	0.203
-366.727	7.885	-0.326	0.244
-365.712	-200.000	0.066	-0.483
-364.698	545.904	-0.050	-0.120
-363.683	-0.043	0.037	0.027
-362.669	-200.000	0.020	-0.132
-361.654	-117.673	-0.110	-0.020
-360.639	-118.572	0.209	-0.037
-359.625	-132.834	0.175	-0.022
-358.610	308.065	-0.127	-0.236
-357.596	-2.240	-0.487	-0.341
-356.581	-168.791	-0.300	-0.011
-355.566	19.005	0.257	-0.205
-354.552	118.228	0.218	-0.268
-353.537	217.852	0.057	0.090
-352.523	-82.467	-0.208	-0.067
-351.508	-133.780	-0.400	0.050
-350.493	-57.613	0.346	0.151
-349.479	-200.000	-0.057	-0.261
-348.464	236.546	0.109	0.180
-347.450	-15.311	0.282	-0.180
-346.435	579.800	0.035	0.085
-345.420	33.642	0.150	-0.130
-344.406	-200.000	0.201	0.000
-343.391	38.388	-0.070	-0.063
-342.377	10.598	-0.270	-0.205
-341.362	-22.638	-0.138	-0.083
-340.348	307.329	0.125	0.232
-339.333	-200.000	0.006	0.054
-338.318	-91.604	0.153	-0.043
-337.304	800.000	0.092	-0.354
-336.289	314.074	-0.116	-0.217
-335.275	35.665	0.151	-0.133
-334.260	89.225	0.033	0.036
-333.245	-35.282	-0.335	0.182
-332.231	-200.000	0.033	-0.156
-331.216	-83.526	-0.321	-0.102
-330.202	-113.484	0.218	0.043
-329.187	315.729	0.095	0.178
-328.172	-72.348	-0.127	0.047
-327.158	743.126	0.068	-0.183
-326.143	-58.625	0.154	0.066
-325.129	99.714	-0.135	0.156
-324.114	-72.411	-0.097	0.036
-323.099	277.079	0.077	-0.136
-322.085	-41.637	-0.212	-0.109
-321.070	-57.431	-0.339	-0.148
-320.056	619.789	-0.097	-0.243
-319.041	-108.717	0.133	0.028
-318.026	704.350	-0.011	-0.029
-317.012	-200.000	0.025	0.177
-315.997	800.000	-0.084	0.235
-314.983	-45.888	-0.321	-0.158
-313.968	-116.881	-0.086	-0.016
-312.953	-200.000	0.001	-0.682
-311.939	-73.588	0.205	-0.074
-310.924	43.092	0.160	-0.146
-309.910	-200.000	-0.025	-0.209
-308.895	-200.000	0.005	0.051
-307.880	262.314	0.091	0.158
-306.866	-88.957	0.196	-0.058
-305.851	-200.000	0.021	-0.098
-304.837	800.000	0.087	-0.245
-303.822	-88.373	0.200	0.059
-302.807	-40.230	-0.062	0.032
-301.793	-87.018	0.114	-0.034
-300.778	-99.959	0.046	-0.012
-299.764	-133.436	-0.569	0.071
-298.749	-24.097	-0.022	0.013
-297.735	-200.000	-0.076	-0.343
-296.720	-22.049	0.363	-0.219
-295.705	-200.000	0.033	-0.190
-294.691	310.983	-0.090	0.167
-293.676	45.140	-0.245	0.224
-292.662	53.324	-0.276	0.263
-291.647	-2.060	-0.015	0.010
-290.632	800.000	0.068	0.277
-289.618	93.626	-0.249	-0.280
-288.603	-68.938	0.113	-0.043
-287.589	2.356	-0.120	-0.086
-286.574	-200.000	0.042	-0.189
-285.559	-45.227	0.358	-0.177
-284.545	290.642	-0.110	0.199
-283.530	97.663	0.266	0.304
-282.516	-104.215	-0.397	0.092
-281.501	708.500	-0.105	0.276
-280.486	218.016	0.100	0.159
-279.472	23.645	-0.068	-0.056
-278.457	100.575	0.227	-0.262
-277.443	-32.662	0.076	0.042
-276.428	14.745	0.214	-0.166
-275.413	404.509	0.143	0.300
-274.399	-143.341	-0.177	-0.017
-273.384	60.636	0.248	0.245
-272.370	151.916	-0.187	-0.253
-271.355	639.560	-0.048	-0.122
-270.340	-157.487	-0.167	0.010
-269.326	-103.142	-0.241	0.057
-268.311	-126.340	0.175	0.026
-267.297	-200.000	0.028	0.269
-266.282	253.634	0.212	0.361
-265.267	132.867	0.055	-0.070
-264.253	-59.519	0.154	0.066
-263.238	282.892	0.065	0.117
-262.224	-63.661	0.355	-0.145
-261.209	-34.761	-0.147	-0.080
-260.195	43.084	0.167	-0.151
-259.180	-44.245	0.181	-0.090
-258.165	-131.884	-0.366	-0.048
-257.151	408.137	-0.116	-0.243
-256.136	-91.803	0.212	-0.060
-255.122	-73.184	-0.172	-0.063
-254.107	159.136	-0.279	-0.386
-253.092	381.042	-0.062	-0.127
-252.078	-60.343	0.209	-0.088
-251.063	-98.822	0.368	0.093
-250.049	213.740	-0.135	-0.213
-249.034	98.744	0.039	0.044
-248.019	44.328	0.091	0.083
-247.005	800.000	-0.087	-0.311
-245.990	-200.000	0.006	-0.161
-244.976	630.103	-0.192	0.483
-243.961	337.161	0.071	0.137
-242.946	60.467	0.190	-0.187
-241.932	-200.000	-0.017	-0.098
-240.917	-200.000	0.037	-0.211
-239.903	-200.000	-0.022	0.192
-238.888	245.784	-0.143	0.240
-237.873	-20.995	0.136	-0.083
-236.859	-200.000	-0.067	-0.339
-235.844	19.823	-0.183	0.146
-234.830	41.739	-0.076	-0.068
-233.815	-115.709	0.301	-0.056
-232.800	-200.000	0.015	-0.070
-231.786	-102.708	0.313	-0.074
-230.771	-85.909	0.199	0.061
-229.757	-1.179	-0.188	0.132
-228.742	61.999	-0.074	-0.073
-227.727	-4.464	0.133	-0.091
-226.713	-150.817	-0.063	-0.005
-225.698	-22.690	0.103	-0.062
-224.684	-200.000	-0.066	0.509
-223.669	87.975	0.157	-0.173
-222.655	139.695	-0.036	0.048
-221.640	-200.000	0.017	0.111
-220.625	7.097	0.245	0.181
-219.611	-120.429	-0.393	0.066
-218.596	-200.000	0.003	0.245
-217.582	-132.485	0.216	0.028
-216.567	-151.724	0.193	0.014
-215.552	-200.000	0.023	0.188
-214.538	-200.000	0.010	0.111
-213.523	-142.748	0.185	0.018
-212.509	-200.000	0.022	0.110
-211.494	-90.075	-0.212	0.061
-210.479	674.911	0.151	-0.388
-209.465	-200.000	-0.001	-0.028
-208.450	161.816	-0.176	0.245
-207.436	800.000	0.060	-0.182
-206.421	56.732	0.072	0.070
-205.406	-156.636	0.185	-0.011
-204.392	-140.850	-0.311	-0.032
-203.377	-200.000	0.003	0.082
-202.363	-66.244	0.069	0.027
-201.348	800.000	0.061	-0.234
-200.333	-52.340	-0.464	0.213
-199.319	6.194	-0.265	0.195
-198.304	-69.094	0.468	0.179
-197.290	-62.100	-0.195	0.081
-196.275	51.880	-0.246	-0.232
-195.260	800.000	0.086	0.345
-194.246	-86.631	-0.252	-0.076
-193.231	-32.939	-0.275	-0.151
-192.217	323.772	0.160	0.303
-191.202	422.230	-0.126	0.268
-190.187	-200.000	-0.029	-0.144
-189.173	800.000	-0.098	0.400
-188.158	-200.000	0.041	-0.193
-187.144	-20.991	-0.304	0.185
-186.129	-31.260	-0.152	0.085
-185.114	-200.000	0.016	0.076
-184.100	31.413	-0.220	0.187
-183.085	-2.149	0.246	0.171
-182.071	751.426	0.006	0.016
-181.056	-38.231	-0.108	-0.057
-180.042	-78.833	0.056	-0.019
-179.027	-68.809	0.116	-0.045
-178.012	-92.585	0.106	0.029
-176.998	559.755	0.098	-0.235
-175.983	-6.879	-0.170	0.114
-174.969	-148.757	0.316	0.025
-173.954	-40.979	0.489	0.250
-172.939	78.588	0.059	-0.062
-171.925	-200.000	0.088	-0.000
-170.910	-65.601	0.065	0.026
-169.896	-200.000	0.061	0.374
-168.881	-200.000	-0.002	0.041
-167.866	58.615	0.120	-0.117
-166.852	-66.859	0.541	-0.212
-165.837	-135.874	0.208	-0.024
-164.823	-108.255	0.259	0.056
-163.808	-24.671	-0.451	0.265
-162.793	800.000	0.044	0.140
-161.779	-1.916	-0.489	0.341
-160.764	-200.000	-0.026	0.195
-159.750	292.460	0.105	0.189
-158.735	-167.476	-0.286	0.011
-157.720	-98.424	-0.129	0.033
-156.706	89.817	-0.218	0.241
-155.691	-50.021	0.294	-0.138
-154.677	-11.691	-0.072	-0.047
-153.662	239.541	0.080	0.133
-152.647	-56.233	-0.111	-0.049
-151.633	800.000	0.067	-0.226
-150.618	-52.627	0.396	-0.181
-149.604	-60.463	0.125	-0.053
-148.589	800.000	-0.035	-0.101
-147.574	250.544	-0.092	-0.154
-146.560	116.796	-0.180	0.218
-145.545	-7.682	-0.237	0.158
-144.531	-67.038	-0.245	-0.096
-143.516	181.837	-0.156	0.228
-142.502	-200.000	0.034	0.174
-141.487	-119.562	-0.158	-0.027
-140.472	419.558	-0.037	0.078
-139.458	27.424	-0.174	-0.144
-138.443	325.155	0.154	-0.291
-137.429	402.813	-0.032	-0.067
-136.414	-99.771	0.206	0.051
-135.399	374.531	-0.118	-0.238
-134.385	-4.602	0.193	0.132
-133.370	593.327	-0.039	0.095
-132.356	-78.205	0.261	-0.089
-131.341	1.047	0.184	-0.130
-130.326	-127.608	-0.168	0.024
-129.312	131.469	0.081	0.102
-128.297	800.000	0.038	-0.121
-127.283	-104.416	-0.151	0.035
-126.268	-7.250	0.074	0.049
-125.253	-141.437	0.212	0.021
-124.239	-115.602	0.241	0.045
-123.224	244.481	-0.106	0.176
-122.210	191.148	-0.077	0.115
-121.195	-109.122	0.258	-0.054
-120.180	132.824	-0.086	-0.110
-119.166	-126.951	-0.125	-0.018
-118.151	181.644	0.063	-0.092
-117.137	-200.000	0.013	-0.128
-116.122	-200.000	0.027	0.296
-115.107	-157.441	-0.179	0.011
-114.093	-200.000	0.096	0.454
-113.078	-200.000	-0.001	0.221
-112.064	800.000	0.083	0.337
-111.049	800.000	-0.087	0.254
-110.034	98.853	-0.118	-0.135
-109.020	48.021	-0.262	-0.242
-108.005	-34.442	0.005	-0.003
-106.991	800.000	0.067	-0.215
-105.976	-200.000	0.032	0.506
-104.962	-200.000	-0.090	-0.517
-103.947	13.115	-0.118	0.090
-102.932	-107.002	-0.314	-0.069
-101.918	282.212	-0.054	0.095
-100.903	113.281	0.266	0.318
-99.889	221.394	0.087	-0.137
-98.874	-200.000	-0.019	0.335
-97.859	6.528	0.221	-0.162
-96.845	387.345	-0.104	0.212
-95.830	245.959	0.080	-0.133
-94.816	800.000	0.086	-0.247
-93.801	-172.319	-0.115	0.004
-92.786	800.000	0.027	-0.078
-91.772	-200.000	0.020	-0.222
-90.757	62.644	-0.094	-0.093
-89.743	-122.612	-0.154	-0.025
-88.728	412.721	-0.114	-0.239
-87.713	191.257	0.110	-0.163
-86.699	742.007	-0.158	0.419
-85.684	-183.665	0.313	-0.005
-84.670	800.000	-0.052	-0.165
-83.655	240.736	-0.106	-0.174
-82.640	-200.000	-0.001	-0.136
-81.626	-9.896	0.171	-0.113
-80.611	-19.914	0.428	0.261
-79.597	-200.000	-0.043	-0.244
-78.582	166.386	0.082	-0.114
-77.567	-200.000	-0.007	0.262
-76.553	-117.144	-0.093	-0.017
-75.538	3.849	0.092	-0.067
-74.524	-61.200	0.320	0.133
-73.509	-128.777	0.314	0.044
-72.494	168.334	-0.202	-0.283
-71.480	6.437	-0.065	-0.048
-70.465	-37.827	-0.079	0.041
-69.451	-54.601	0.200	0.089
-68.436	5.411	0.214	-0.156
-67.422	-176.417	-0.108	-0.003
-66.407	-66.070	-0.214	0.084
-65.392	-13.581	-0.238	0.152
-64.378	71.928	0.175	-0.180
-63.363	-200.000	0.042	0.244
-62.349	800.000	0.056	0.240
-61.334	43.908	-1.054	-0.952
-60.319	-89.411	0.321	0.093
-59.305	-200.000	-0.220	-1.098
-58.290	800.000	0.301	1.082
-57.276	467.925	0.738	1.633
-56.261	-200.000	97.023	583.363
-55.246	542.341	1395.881	3281.350
-54.232	155.601	2581.085	3504.441
-53.217	111.053	2178.003	2585.699
-52.203	43.120	1716.481	1544.044
-51.188	35.818	1529.339	1325.572
-50.173	33.302	1502.754	1285.415
-49.159	52.835	1550.901	1461.708
-48.144	54.636	1569.150	1491.263
-47.130	35.971	1528.210	1325.433
-46.115	32.754	1513.929	1291.017
-45.100	32.595	1510.415	1286.884
-44.086	32.662	1508.666	1285.799
-43.071	32.655	1506.769	1284.084
-42.057	32.559	1504.885	1281.774
-41.042	32.560	1503.798	1280.802
-40.027	32.577	1502.230	1279.538
-39.013	32.635	1500.831	1278.683
-37.998	32.542	1499.399	1276.781
-36.984	32.519	1498.433	1275.753
-35.969	32.610	1497.145	1275.222
-34.954	32.528	1495.736	1273.418
-33.940	32.602	1494.293	1272.640
-32.925	32.563	1492.819	1271.069
-31.911	32.682	1491.368	1270.590
-30.896	32.622	1489.979	1268.948
-29.881	32.629	1488.716	1267.868
-28.867	32.666	1487.425	1266.966
-27.852	32.646	1485.597	1265.229
-26.838	32.609	1484.177	1263.718
-25.823	32.634	1482.547	1262.448
-24.809	32.543	1481.534	1260.929
-23.794	32.524	1479.717	1259.204
-22.779	32.710	1478.205	1259.112
-21.765	32.591	1477.302	1257.497
-20.750	32.541	1476.197	1256.175
-19.736	32.639	1475.122	1255.863
-18.721	32.599	1474.055	1254.636
-17.706	32.551	1472.824	1253.218
-16.692	32.552	1471.854	1252.353
-15.677	32.571	1470.817	1251.543
-14.663	32.534	1470.381	1250.877
-13.648	32.533	1469.173	1249.797
-12.633	32.504	1468.621	1249.084
-11.619	32.463	1467.667	1247.947
-10.604	32.471	1466.604	1247.050
-9.590	32.389	1466.001	1245.944
-8.575	32.499	1464.917	1245.701
-7.560	32.526	1464.036	1245.080
-6.546	32.588	1462.935	1244.506
-5.531	32.535	1462.639	1243.855
-4.517	32.351	1461.419	1241.550
-3.502	32.513	1460.086	1241.440
-2.487	32.597	1459.068	1241.079
-1.473	32.430	1458.098	1239.101
-0.458	32.483	1457.072	1238.528
0.556	32.535	1447.569	1228.747
1.571	29.844	1423.141	1190.616
2.586	26.887	1366.142	1124.530
3.600	25.417	1286.404	1050.217
4.615	23.933	1240.151	1003.993
5.629	19.842	1181.297	934.219
6.644	10.055	1093.459	815.520
7.659	2.719	1051.875	748.724
8.673	1.876	1046.348	740.631
9.688	1.667	1043.130	737.277
10.702	1.520	1041.835	735.583
11.717	1.478	1039.808	733.884
12.731	4.413	1043.029	750.294
13.746	14.130	1056.880	807.573
14.761	22.467	1067.838	856.603
15.775	24.743	1069.894	869.253
16.790	25.022	1069.714	870.389
17.804	24.946	1068.401	868.875
18.819	24.677	1068.131	867.269
19.834	24.823	1067.145	867.102
20.848	24.974	1067.396	867.962
21.863	25.125	1066.306	867.730
22.877	25.130	1066.088	867.497
23.892	24.857	1066.241	866.225
24.907	24.851	1064.780	864.930
25.921	25.113	1063.520	865.095
26.936	24.988	1063.626	864.504
27.950	25.064	1062.010	863.478
28.965	24.949	1060.946	861.983
29.980	24.822	1059.275	859.940
30.994	24.754	1058.651	859.029
32.009	24.937	1057.992	859.302
33.023	25.123	1056.576	858.963
34.038	24.856	1056.097	857.222
35.053	24.832	1055.365	856.437
36.067	24.909	1054.918	856.365
37.082	25.050	1053.502	855.814
38.096	25.032	1053.259	855.456
39.111	25.194	1052.632	855.642
40.126	25.263	1051.612	855.066
41.140	25.205	1050.590	853.881
42.155	24.941	1048.674	850.995
43.169	24.612	1047.880	848.715
44.184	24.634	1046.512	847.636
45.199	24.724	1045.732	847.356
46.213	24.659	1044.787	846.205
47.228	24.450	1044.074	844.567
48.242	24.810	1043.068	845.378
49.257	24.738	1042.871	844.803
50.271	24.862	1041.631	844.312
51.286	25.029	1041.124	844.609
52.301	25.081	1040.578	844.339
53.315	25.001	1039.784	843.241
54.330	24.999	1039.210	842.693
55.344	24.919	1038.423	841.604
56.359	24.967	1037.370	840.901
57.374	24.907	1036.851	840.126
58.388	24.738	1035.993	838.562
59.403	24.647	1034.939	837.208
60.417	24.745	1033.791	836.665
61.432	24.537	1033.609	835.472
62.447	24.600	1032.697	834.957
63.461	24.701	1032.006	834.793
64.476	24.721	1031.833	834.673
65.490	24.660	1030.594	833.315
66.505	24.670	1029.637	832.512
67.520	24.630	1028.295	831.169
68.534	24.716	1027.740	831.044
69.549	24.555	1027.076	829.688
70.563	24.190	1026.042	827.082
71.578	24.211	1025.172	826.408
72.593	24.277	1024.276	825.915
73.607	24.034	1023.301	823.931
74.622	23.964	1022.263	822.703
75.636	24.366	1021.825	824.134
76.651	24.597	1020.825	824.321
77.666	24.392	1020.119	822.734
78.680	24.318	1019.176	821.559
79.695	24.295	1018.622	820.931
80.709	24.404	1018.108	820.947
81.724	24.577	1017.088	820.847
82.739	24.455	1016.513	819.752
83.753	24.663	1015.109	819.499
84.768	24.828	1015.031	820.120
85.782	25.128	1014.613	821.084
86.797	25.351	1013.808	821.380
87.812	25.339	1012.791	820.426
88.826	25.080	1011.966	818.505
89.841	25.173	1011.163	818.207
90.855	25.270	1010.361	817.927
91.870	25.380	1009.592	817.735
92.884	25.259	1008.865	816.522
93.899	24.992	1008.041	814.571
94.914	25.057	1006.904	813.874
95.928	25.238	1006.099	813.972
96.943	25.105	1005.461	812.779
97.957	24.907	1004.175	810.771
98.972	24.726	1002.934	808.882
99.987	24.506	1002.307	807.306
101.001	24.677	1001.542	807.392
102.016	24.804	1001.408	807.789
103.030	25.036	999.860	807.511
104.045	24.852	999.298	806.157
105.060	24.723	998.144	804.575
106.074	24.535	996.940	802.687
107.089	24.632	995.987	802.287
108.103	24.935	996.075	803.645
109.118	24.902	995.011	802.568
110.133	24.823	993.501	800.927
111.147	24.714	992.694	799.719
112.162	24.483	992.120	798.151
113.176	24.320	990.425	795.989
114.191	24.322	990.114	795.678
115.206	24.556	989.311	796.007
116.220	24.455	987.817	794.283
117.235	24.224	986.742	792.323
118.249	24.362	986.357	792.556
119.264	24.375	985.847	792.132
120.279	24.233	984.900	790.674
121.293	24.235	984.110	789.975
122.308	24.430	983.306	790.126
123.322	24.428	982.253	789.201
124.337	24.290	981.677	788.057
125.352	24.320	979.887	786.686
126.366	23.813	978.562	783.317
127.381	23.447	977.227	780.570
128.395	23.983	977.332	782.943
129.410	24.682	976.858	785.567
130.424	24.912	976.220	785.995
131.439	24.932	975.193	785.185
132.454	24.698	974.966	783.907
133.468	24.833	973.628	783.354
134.483	24.793	972.606	782.285
135.497	24.836	972.328	782.182
136.512	25.047	971.979	782.754
137.527	25.151	971.082	782.414
138.541	25.062	970.308	781.335
139.556	25.104	969.250	780.596
140.570	25.134	968.813	780.305
141.585	25.131	967.673	779.306
142.600	25.212	967.118	779.139
143.614	25.243	966.047	778.343
144.629	25.173	965.561	777.579
145.643	25.529	965.142	778.718
146.658	25.337	963.921	776.830
147.673	25.058	962.634	774.522
148.687	25.060	961.440	773.501
149.702	24.925	960.813	772.345
150.716	24.802	959.554	770.733
151.731	24.823	958.943	770.264
152.746	24.833	958.000	769.485
153.760	24.989	958.029	770.110
154.775	25.225	956.560	769.874
155.789	25.365	955.679	769.697
156.804	25.306	954.713	768.598
157.819	25.274	953.683	767.564
158.833	25.339	953.030	767.247
159.848	25.431	952.369	767.041
160.862	25.381	951.828	766.324
161.877	25.381	950.722	765.365
162.892	25.209	949.659	763.711
163.906	25.249	949.121	763.379
164.921	25.261	948.073	762.521
165.935	25.159	947.414	761.491
166.950	25.162	946.400	760.621
167.964	25.189	945.598	760.024
168.979	25.212	944.273	758.990
169.994	25.075	943.423	757.657
171.008	24.913	942.872	756.465
172.023	25.183	941.734	756.622
173.037	25.284	940.998	756.392
174.052	25.246	939.878	755.264
175.067	25.026	938.698	753.324
176.081	24.908	938.005	752.206
177.096	25.043	937.171	752.035
178.110	25.115	936.225	751.514
179.125	24.814	935.863	749.895
180.140	24.533	934.492	747.553
181.154	24.657	933.787	747.443
182.169	24.621	933.805	747.238
183.183	24.885	933.233	747.819
184.198	25.275	932.492	748.784
185.213	25.321	931.554	748.159
186.227	25.235	930.888	747.197
187.242	25.207	930.585	746.774
188.256	25.239	930.073	746.429
189.271	25.183	929.387	745.579
190.286	25.305	928.407	745.236
191.300	25.123	927.590	743.757
192.315	24.699	926.238	740.851
193.329	23.912	924.914	736.467
194.344	23.474	923.499	733.465
195.359	24.031	924.012	736.113
196.373	24.899	924.611	740.114
197.388	25.238	923.822	740.817
198.402	25.132	923.191	739.810
199.417	24.924	923.099	738.812
200.432	25.046	922.301	738.611
201.446	25.101	921.293	737.965
202.461	24.780	920.820	736.198
203.475	24.761	920.093	735.476
204.490	24.515	918.361	733.015
205.504	23.158	916.627	726.002
206.519	23.710	916.375	728.003
207.534	24.619	917.114	732.254
208.548	24.590	916.694	731.732
209.563	25.010	916.346	733.110
210.577	25.105	915.020	732.374
211.592	24.642	914.879	730.301
212.607	25.081	914.692	731.882
213.621	25.272	914.231	732.227
214.636	25.357	913.281	731.748
215.650	25.382	912.763	731.371
216.665	25.222	912.061	730.091
217.680	25.397	911.430	730.236
218.694	25.442	911.382	730.313
219.709	25.174	910.187	728.203
220.723	24.640	909.342	725.298
221.738	24.986	908.608	726.049
222.753	25.148	908.134	726.262
223.767	25.034	907.656	725.354
224.782	25.081	906.990	724.950
225.796	25.342	906.408	725.475
226.811	25.544	906.041	725.933
227.826	25.059	904.406	722.603
228.840	24.269	903.145	718.351
229.855	24.206	902.199	717.280
230.869	24.413	902.098	717.970
231.884	24.056	901.484	715.983
232.899	24.070	901.072	715.646
233.913	24.858	901.078	718.755
234.928	25.025	900.767	719.112
235.942	25.002	899.865	718.238
236.957	25.072	898.814	717.613
237.972	24.792	897.989	715.772
238.986	24.605	897.631	714.674
240.001	24.683	897.252	714.624
241.015	24.685	896.410	713.898
242.030	24.734	895.889	713.613
243.045	25.120	894.821	714.238
244.059	25.050	894.959	714.008
245.074	25.191	894.275	713.960
246.088	25.141	893.723	713.257
247.103	24.843	892.628	711.137
248.117	24.882	892.173	710.867
249.132	25.369	892.049	712.635
250.147	25.954	891.658	714.579
251.161	25.940	891.132	714.041
252.176	26.201	890.542	714.535
253.190	25.986	889.963	713.160
254.205	26.049	889.823	713.233
255.220	26.311	889.239	713.734
256.234	26.292	888.648	713.125
257.249	26.201	888.207	712.348
258.263	25.981	887.346	710.728
259.278	25.980	887.009	710.392
260.293	26.011	886.581	710.107
261.307	26.188	886.172	710.413
262.322	25.951	885.522	708.896
263.336	25.936	884.781	708.181
264.351	25.586	883.054	705.365
265.366	24.313	881.115	698.770
266.380	23.882	880.241	696.327
267.395	24.790	880.769	700.237
268.409	25.652	881.098	703.811
269.424	25.626	879.701	702.533
270.439	25.706	879.766	702.835
271.453	25.838	878.846	702.551
272.468	26.000	878.400	702.764
273.482	25.983	878.203	702.478
274.497	26.119	877.595	702.459
275.512	25.987	876.525	701.029
276.526	25.267	875.358	697.235
277.541	25.493	875.053	697.809
278.555	25.928	874.537	699.022
279.570	25.781	874.193	698.116
280.585	25.512	873.747	696.655
281.599	25.541	872.901	696.030
282.614	25.746	872.766	696.658
283.628	25.138	871.629	693.338
284.643	24.933	870.391	691.498
285.657	25.572	870.352	693.874
286.672	25.220	869.538	691.805
287.687	24.717	869.119	689.474
288.701	25.042	868.931	690.515
289.716	25.511	868.499	691.918
290.730	25.202	867.508	689.879
291.745	24.979	867.113	688.646
292.760	24.950	865.777	687.412
293.774	24.839	865.125	686.407
294.789	25.717	865.940	690.364
295.803	26.255	866.399	692.730
296.818	26.320	865.610	692.289
297.833	26.404	864.992	692.055
298.847	26.199	863.603	690.098
299.862	25.805	863.166	688.183
300.876	26.071	862.977	688.985
301.891	26.352	862.151	689.337
302.906	26.248	861.912	688.688
303.920	25.762	860.726	685.830
304.935	25.923	860.027	685.826
305.949	26.304	860.068	687.248
306.964	26.385	859.241	686.833
307.979	26.236	858.315	685.466
308.993	26.105	857.684	684.406
310.008	26.292	857.779	685.129
311.022	26.493	857.633	685.712
312.037	26.435	856.739	684.720
313.052	26.109	856.139	682.946
314.066	25.959	855.291	681.642
315.081	25.339	853.655	677.939
316.095	24.691	852.398	674.435
317.110	25.155	852.805	676.446
318.125	25.963	853.116	679.683
319.139	25.654	851.803	677.415
320.154	24.445	850.242	671.565
321.168	23.945	849.282	668.867
322.183	24.588	849.675	671.538
323.197	25.466	849.767	674.848
324.212	25.950	849.595	676.467
325.227	25.961	849.373	676.274
326.241	26.042	848.929	676.163
327.256	26.080	848.296	675.743
328.270	25.909	847.587	674.478
329.285	25.901	846.933	673.866
330.300	25.719	846.273	672.603
331.314	25.496	845.268	670.914
332.329	25.596	844.462	670.585
333.343	25.969	844.369	671.845
334.358	26.327	843.918	672.758
335.373	26.188	843.762	672.056
336.387	26.141	843.080	671.280
337.402	26.453	842.853	672.200
338.416	26.741	842.387	672.839
339.431	26.739	841.256	671.866
340.446	26.503	841.628	671.227
341.460	26.800	841.352	672.049
342.475	26.793	840.316	671.138
343.489	26.644	839.579	669.939
344.504	26.419	839.137	668.694
345.519	26.774	838.940	669.789
346.533	27.121	838.512	670.671
347.548	27.231	838.094	670.681
348.562	27.007	837.985	669.711
349.577	27.020	836.926	668.851
350.592	26.930	836.439	668.070
351.606	26.826	836.256	667.484
352.621	26.960	835.286	667.142
353.635	26.874	834.785	666.369
354.650	26.760	834.356	665.548
355.665	26.408	833.385	663.424
356.679	25.403	831.516	658.196
357.694	25.198	831.278	657.200
358.708	25.913	831.270	659.754
359.723	25.933	830.490	659.149
360.738	26.122	830.209	659.556
361.752	26.545	830.115	660.972
362.767	26.684	829.893	661.242
363.781	27.121	829.751	662.664
364.796	27.161	829.570	662.606
365.810	27.469	828.998	663.214
366.825	27.491	828.604	662.919
367.840	27.470	828.506	662.706
368.854	27.246	827.712	661.196
369.869	26.715	826.979	658.624
370.883	26.619	826.366	657.730
371.898	26.609	825.780	657.168
372.913	26.632	824.923	656.511
373.927	26.674	824.178	656.014
374.942	26.907	823.518	656.274
375.956	27.058	823.182	656.491
376.971	27.113	822.657	656.216
377.986	27.139	822.318	655.981
379.000	27.155	822.274	655.944
380.015	27.291	821.622	655.856
381.029	27.066	820.708	654.257
382.044	27.059	820.169	653.745
383.059	27.184	820.104	654.087
384.073	27.469	819.135	654.278
385.088	27.388	818.588	653.494
386.102	27.301	818.218	652.829
387.117	27.123	817.453	651.522
388.132	27.012	816.597	650.383
389.146	26.830	816.003	649.201
390.161	26.255	815.552	646.728
391.175	26.263	814.799	646.101
392.190	27.024	814.822	648.786
393.205	26.816	814.523	647.747
394.219	26.020	812.521	643.260
395.234	24.338	810.393	635.528
396.248	23.667	809.332	632.253
397.263	24.645	809.992	636.195
398.278	26.508	811.330	643.827
399.292	26.827	811.412	644.968
400.307	26.596	810.759	643.572
401.321	26.589	810.064	642.938
402.336	26.681	810.291	643.387
403.350	26.877	809.976	643.776
404.365	27.525	809.794	645.872
405.380	27.759	809.681	646.555
406.394	27.978	809.406	647.052
407.409	28.097	809.166	647.227
408.423	27.934	808.747	646.255
409.438	27.961	807.823	645.557
410.453	27.919	807.753	645.294
411.467	28.142	806.921	645.361
412.482	27.952	806.524	644.315
413.496	27.911	805.969	643.671
414.511	28.040	805.826	643.952
415.526	28.041	805.359	643.528
416.540	28.021	804.933	643.058
417.555	27.954	804.495	642.417
418.569	27.734	803.682	640.937
419.584	27.609	803.327	640.159
420.599	27.726	802.915	640.186
421.613	109.200	1285.504	1456.452
422.628	94.182	1355.807	1456.594
