DTS Sentinel unit serial number:	SN413079Multiplexer serial number:	ORYXHardware model number:	OX4-SRSoftware version number:	ORYX F/W v4.00 Oryx Data Collector v3.7.2.0data status	okinstallation	princeton_trtdifferential loss correction	single-endedforward channel	channel 3reverse channel	N/Adate	2019/09/16time	02:08:35forward acquisition time	60.00reverse acquisition time	0.00gamma	496.2192k internal	0.2335k external	0.2335temperature offset calibration	0.9950default loss term (dB/km)	0.3790temperature slope calibration	1.0000multiplexer offset coefficient	1.0000multiplexer slope coefficient	1.0000fibre end	0.00T internal ref (°C)	27.50T ext. ref 1 (°C)	10.14T ext. ref 2 (°C)	22.45length (m)	temperature (°C)	Stokes	anti-Stokes-747.200	-34.258	0.171	0.094
-746.185	-70.899	0.151	0.057
-745.171	800.000	-0.084	-0.278
-744.156	-54.390	-0.299	-0.136
-743.142	90.482	0.082	0.093
-742.127	341.718	0.042	0.082
-741.112	346.469	-0.042	0.083
-740.098	32.017	0.100	0.087
-739.083	-112.848	-0.384	0.077
-738.069	-14.959	0.257	0.165
-737.054	-138.596	-0.419	-0.046
-736.039	-54.725	-0.279	0.127
-735.025	800.000	0.079	0.277
-734.010	-200.000	-0.030	0.346
-732.996	-58.021	-0.315	0.138
-731.981	713.895	-0.086	-0.229
-730.966	-200.000	-0.041	0.205
-729.952	-83.642	-0.162	-0.052
-728.937	-124.610	-0.287	0.045
-727.923	-1.838	-0.102	0.072
-726.908	410.985	0.097	-0.206
-725.894	504.562	-0.153	0.355
-724.879	-163.099	-0.306	0.015
-723.864	-200.000	-0.016	-0.077
-722.850	-200.000	-0.041	0.257
-721.835	12.852	0.105	-0.081
-720.821	-57.704	-0.142	0.062
-719.806	-200.000	-0.001	-0.085
-718.791	45.573	-0.186	-0.172
-717.777	54.649	0.044	0.043
-716.762	-52.116	0.018	-0.009
-715.748	138.536	0.191	-0.252
-714.733	-200.000	-0.008	-0.066
-713.718	78.480	-0.272	-0.292
-712.704	-55.727	0.177	-0.080
-711.689	278.946	0.225	-0.403
-710.675	-200.000	0.014	-0.187
-709.660	-166.057	0.138	0.006
-708.645	95.784	-0.131	0.150
-707.631	-175.313	-0.096	0.003
-706.616	-12.735	-0.114	-0.075
-705.602	-37.315	-0.187	-0.100
-704.587	69.472	-0.057	0.059
-703.572	-51.339	-0.152	0.071
-702.558	-200.000	-0.007	0.307
-701.543	-200.000	-0.059	0.374
-700.529	-200.000	-0.003	0.334
-699.514	-110.792	0.358	-0.074
-698.499	800.000	0.055	-0.237
-697.485	-83.419	0.220	-0.071
-696.470	-200.000	-0.033	-0.255
-695.456	337.503	-0.050	-0.097
-694.441	-200.000	-0.019	0.246
-693.426	-200.000	-0.020	-0.277
-692.412	664.001	-0.127	-0.328
-691.397	145.981	-0.228	-0.307
-690.383	800.000	-0.053	-0.217
-689.368	-200.000	-0.016	-0.081
-688.354	-151.850	0.220	0.016
-687.339	331.570	0.141	0.272
-686.324	-200.000	-0.003	-0.155
-685.310	-65.403	0.218	0.088
-684.295	-24.396	-0.091	-0.054
-683.281	-166.033	-0.087	-0.004
-682.266	2.998	0.148	0.108
-681.251	-76.125	-0.041	0.015
-680.237	-78.733	-0.163	-0.056
-679.222	216.506	0.088	-0.141
-678.208	-138.192	0.123	-0.014
-677.193	-200.000	-0.010	0.193
-676.178	67.560	0.098	-0.100
-675.164	-134.952	-0.231	0.028
-674.149	38.231	0.207	0.185
-673.135	57.755	-0.099	-0.097
-672.120	-64.966	-0.377	-0.153
-671.105	-32.868	0.123	-0.068
-670.091	-200.000	-0.028	-0.225
-669.076	65.896	0.041	0.042
-668.062	-72.501	-0.383	-0.142
-667.047	22.408	0.176	-0.144
-666.032	-46.446	-0.227	-0.112
-665.018	141.308	0.211	-0.280
-664.003	800.000	0.081	0.264
-662.989	7.376	0.329	-0.246
-661.974	800.000	-0.095	-0.292
-660.959	-135.377	-0.258	0.031
-659.945	17.008	-0.160	-0.127
-658.930	-200.000	-0.019	-0.138
-657.916	-200.000	-0.042	-0.296
-656.901	800.000	0.041	-0.148
-655.886	210.088	-0.118	-0.185
-654.872	198.589	-0.103	-0.157
-653.857	329.167	0.026	0.051
-652.843	-42.085	-0.156	-0.080
-651.828	417.765	-0.037	-0.078
-650.814	184.391	0.124	0.184
-649.799	34.802	-0.067	0.059
-648.784	800.000	0.147	-0.432
-647.770	394.765	-0.093	-0.195
-646.755	-200.000	0.009	-0.095
-645.741	-29.208	-0.337	-0.193
-644.726	-137.154	-0.251	-0.029
-643.711	-164.960	0.226	-0.010
-642.697	84.872	-0.100	0.110
-641.682	-87.568	-0.205	0.062
-640.668	278.254	-0.139	0.247
-639.653	302.078	0.095	0.175
-638.638	-132.242	-0.068	-0.009
-637.624	98.735	0.095	0.110
-636.609	800.000	-0.013	0.055
-635.595	800.000	-0.098	-0.381
-634.580	-71.072	-0.130	0.049
-633.565	-125.639	-0.207	-0.031
-632.551	110.178	-0.080	0.096
-631.536	-95.960	0.174	0.046
-630.522	-18.206	0.198	-0.124
-629.507	194.664	-0.116	-0.176
-628.492	-30.270	0.166	0.094
-627.478	-80.000	-0.238	0.080
-626.463	35.844	0.159	-0.140
-625.449	-38.856	0.226	-0.119
-624.434	-115.475	0.068	-0.013
-623.419	1.040	-0.299	0.215
-622.405	-115.240	-0.368	0.070
-621.390	-141.215	-0.179	0.018
-620.376	-95.406	0.209	-0.056
-619.361	12.353	0.135	-0.104
-618.346	-11.196	0.240	0.158
-617.332	-34.751	-0.282	0.154
-616.317	8.000	-0.066	0.050
-615.303	-136.625	-0.029	0.003
-614.288	-14.088	-0.111	-0.072
-613.273	-108.581	0.247	0.053
-612.259	-93.997	-0.329	-0.090
-611.244	-200.000	-0.016	0.084
-610.230	59.247	-0.116	-0.114
-609.215	-200.000	-0.023	0.357
-608.201	-62.572	-0.167	0.069
-607.186	-82.739	0.066	-0.021
-606.171	-55.996	-0.353	0.157
-605.157	800.000	-0.041	-0.178
-604.142	-102.116	0.221	0.053
-603.128	-110.068	-0.138	0.029
-602.113	-31.467	-0.018	-0.010
-601.098	-165.958	-0.260	0.011
-600.084	-124.965	-0.243	-0.037
-599.069	512.446	0.084	0.196
-598.055	52.229	-0.114	-0.108
-597.040	291.878	-0.172	-0.314
-596.025	-15.139	0.021	0.013
-595.011	-155.108	-0.288	-0.019
-593.996	-9.682	0.462	0.308
-592.982	-15.916	0.110	0.070
-591.967	-200.000	-0.006	0.219
-590.952	-200.000	-0.014	0.082
-589.938	-135.189	-0.097	-0.012
-588.923	-200.000	0.020	-0.403
-587.909	-87.763	-0.324	0.098
-586.894	-121.667	-0.089	0.015
-585.879	-64.099	-0.131	0.054
-584.865	-27.338	-0.153	0.089
-583.850	71.252	-0.080	0.083
-582.836	-200.000	-0.010	-0.108
-581.821	-116.361	-0.152	0.028
-580.806	-108.715	0.193	0.041
-579.792	800.000	-0.084	0.277
-578.777	-64.051	0.216	0.088
-577.763	-2.081	0.274	-0.192
-576.748	-200.000	0.001	-0.072
-575.733	79.119	-0.091	0.097
-574.719	-86.760	-0.076	-0.023
-573.704	283.174	0.101	0.181
-572.690	800.000	0.035	0.141
-571.675	632.982	0.097	-0.246
-570.661	49.810	-0.356	0.335
-569.646	295.722	-0.060	0.109
-568.631	-21.772	0.283	0.172
-567.617	-200.000	-0.010	-0.055
-566.602	1.585	0.211	-0.151
-565.588	-30.964	-0.275	0.155
-564.573	141.105	0.139	0.183
-563.558	89.316	0.122	0.136
-562.544	380.605	-0.033	0.067
-561.529	1.236	0.430	0.308
-560.515	-200.000	0.002	0.261
-559.500	66.647	-0.074	0.075
-558.485	77.851	-0.164	0.174
-557.471	366.583	0.072	0.146
-556.456	-101.871	-0.099	0.024
-555.442	25.958	-0.120	-0.100
-554.427	-79.666	-0.100	-0.034
-553.412	68.054	-0.132	0.135
-552.398	264.191	-0.066	-0.114
-551.383	743.970	-0.117	-0.313
-550.369	-14.316	0.064	0.041
-549.354	-87.973	0.079	-0.024
-548.339	-96.554	-0.313	-0.082
-547.325	800.000	0.055	0.175
-546.310	223.226	0.204	-0.328
-545.296	800.000	0.071	-0.254
-544.281	800.000	0.038	-0.161
-543.266	388.794	-0.106	0.219
-542.252	-200.000	0.051	-0.469
-541.237	-108.602	0.126	0.027
-540.223	418.810	0.065	-0.138
-539.208	-200.000	-0.033	0.214
-538.193	-103.064	-0.454	0.107
-537.179	-47.176	0.101	-0.049
-536.164	-200.000	-0.038	0.203
-535.150	-200.000	0.010	-0.196
-534.135	-52.726	0.309	0.142
-533.121	800.000	0.082	0.245
-532.106	-200.000	-0.020	-0.296
-531.091	678.293	0.132	-0.342
-530.077	-97.971	-0.325	-0.084
-529.062	-200.000	-0.003	0.130
-528.048	800.000	-0.075	-0.224
-527.033	-72.137	-0.179	0.066
-526.018	191.135	-0.092	0.138
-525.004	665.519	-0.079	0.202
-523.989	403.782	-0.083	0.174
-522.975	75.114	0.106	-0.111
-521.960	-83.427	0.068	-0.022
-520.945	187.589	-0.142	0.211
-519.931	-31.652	0.288	-0.161
-518.916	800.000	-0.049	0.175
-517.902	-200.000	0.049	0.256
-516.887	-25.780	0.293	0.172
-515.872	365.457	-0.131	-0.263
-514.858	316.573	0.174	-0.327
-513.843	-78.591	0.328	-0.112
-512.829	14.577	-0.106	0.082
-511.814	-200.000	0.005	-0.064
-510.799	800.000	-0.052	0.169
-509.785	-19.292	0.170	-0.105
-508.770	-200.000	-0.031	-0.318
-507.756	-84.651	-0.136	-0.043
-506.741	-194.169	-0.130	-0.001
-505.726	-21.609	0.281	-0.170
-504.712	-200.000	-0.022	-0.187
-503.697	-27.204	0.311	-0.181
-502.683	-200.000	-0.037	-0.289
-501.668	10.005	-0.170	-0.129
-500.653	-102.264	0.256	-0.061
-499.639	-35.646	-0.263	0.142
-498.624	-90.914	0.471	0.135
-497.610	-72.969	-0.362	-0.132
-496.595	469.921	0.018	0.041
-495.581	72.168	-0.135	-0.139
-494.566	-85.216	-0.252	-0.079
-493.551	-158.797	-0.109	0.006
-492.537	800.000	-0.063	0.199
-491.522	-104.770	0.229	0.053
-490.508	-158.713	0.284	-0.016
-489.493	-99.311	-0.072	-0.018
-488.478	-200.000	-0.053	-0.308
-487.464	556.169	0.047	-0.113
-486.449	800.000	-0.047	0.184
-485.435	-16.544	-0.053	0.033
-484.420	-23.906	0.336	-0.200
-483.405	40.479	-0.110	-0.098
-482.391	140.299	0.146	-0.192
-481.376	-147.940	-0.224	-0.019
-480.362	-51.113	-0.334	0.156
-479.347	-200.000	-0.008	0.251
-478.332	-16.304	-0.168	-0.106
-477.318	-144.210	-0.232	-0.022
-476.303	352.494	0.025	-0.048
-475.289	138.463	-0.183	0.239
-474.274	-200.000	0.042	-0.239
-473.259	-142.414	-0.040	-0.004
-472.245	172.540	-0.180	0.257
-471.230	152.180	-0.210	-0.285
-470.216	-200.000	0.010	0.072
-469.201	146.614	-0.067	-0.089
-468.186	-83.641	0.332	0.105
-467.172	-200.000	0.063	0.311
-466.157	750.334	0.121	-0.324
-465.143	-43.932	0.256	0.128
-464.128	-105.037	-0.002	0.000
-463.113	127.024	0.166	-0.210
-462.099	800.000	0.072	0.200
-461.084	-166.535	-0.286	0.012
-460.070	800.000	0.060	0.230
-459.055	-96.231	0.271	-0.072
-458.040	800.000	-0.135	-0.390
-457.026	161.730	0.154	0.215
-456.011	800.000	0.091	-0.391
-454.997	800.000	0.087	0.250
-453.982	-62.967	-0.397	0.163
-452.968	800.000	0.039	-0.165
-451.953	52.961	0.162	-0.154
-450.938	-59.602	0.342	0.146
-449.924	800.000	-0.059	-0.215
-448.909	207.377	0.147	0.227
-447.895	800.000	-0.042	-0.180
-446.880	-43.309	0.164	0.082
-445.865	800.000	0.029	0.124
-444.851	-105.246	-0.314	-0.071
-443.836	204.068	-0.053	0.081
-442.822	265.637	-0.108	-0.188
-441.807	800.000	0.039	0.167
-440.792	800.000	-0.148	0.410
-439.778	-111.724	0.279	0.056
-438.763	-92.890	-0.223	-0.062
-437.749	18.245	0.385	-0.305
-436.734	-200.000	0.001	-0.102
-435.719	30.445	-0.148	0.126
-434.705	800.000	0.128	0.454
-433.690	-200.000	-0.047	0.543
-432.676	-83.724	-0.037	0.012
-431.661	-114.288	0.116	-0.022
-430.646	38.077	0.173	-0.153
-429.632	86.508	0.164	0.180
-428.617	-73.963	0.201	-0.072
-427.603	-200.000	0.036	0.346
-426.588	-8.817	0.040	-0.026
-425.573	-200.000	0.003	0.134
-424.559	10.631	0.343	0.259
-423.544	190.147	-0.124	-0.184
-422.530	-200.000	0.012	0.312
-421.515	-31.196	-0.124	0.070
-420.500	800.000	0.013	-0.052
-419.486	-181.274	-0.077	-0.002
-418.471	-5.867	-0.090	-0.061
-417.457	-52.467	-0.248	0.114
-416.442	800.000	0.053	-0.171
-415.428	-123.480	0.203	0.032
-414.413	313.369	-0.222	0.413
-413.398	298.687	0.099	-0.180
-412.384	-77.213	0.249	0.086
-411.369	-40.161	-0.246	-0.127
-410.355	-109.953	0.352	-0.073
-409.340	-63.260	0.095	0.039
-408.325	97.362	-0.075	-0.085
-407.311	76.627	-0.094	-0.099
-406.296	-128.591	0.194	0.027
-405.282	-200.000	0.051	-0.277
-404.267	611.017	0.093	-0.231
-403.252	-200.000	0.025	-0.176
-402.238	117.872	-0.234	-0.286
-401.223	90.797	-0.191	-0.212
-400.209	-109.517	0.242	0.051
-399.194	-50.440	-0.032	0.015
-398.179	-88.975	-0.124	0.036
-397.165	-23.697	0.319	0.190
-396.150	800.000	-0.005	-0.019
-395.136	-200.000	0.016	0.167
-394.121	85.260	-0.060	0.066
-393.106	432.208	-0.190	-0.407
-392.092	-200.000	0.033	0.147
-391.077	-200.000	0.003	0.142
-390.063	174.769	0.066	0.095
-389.048	-200.000	-0.025	-0.360
-388.033	800.000	0.050	-0.165
-387.019	-200.000	0.008	-0.042
-386.004	800.000	0.131	-0.397
-384.990	-104.443	-0.069	-0.016
-383.975	-200.000	-0.012	-0.199
-382.960	-151.482	-0.259	-0.019
-381.946	-126.455	-0.061	-0.009
-380.931	-75.268	0.037	0.013
-379.917	-200.000	0.000	-0.256
-378.902	253.828	-0.180	0.304
-377.888	570.847	0.035	-0.084
-376.873	-200.000	-0.012	-0.116
-375.858	-57.267	0.198	0.086
-374.844	-29.668	0.209	-0.118
-373.829	-38.528	0.093	-0.049
-372.815	181.080	-0.210	0.306
-371.800	-105.007	0.116	-0.026
-370.785	800.000	-0.064	-0.250
-369.771	-121.909	0.250	-0.041
-368.756	-17.100	-0.276	0.173
-367.742	-200.000	0.006	0.230
-366.727	800.000	-0.071	0.220
-365.712	146.230	0.223	-0.297
-364.698	800.000	0.017	0.070
-363.683	-92.048	0.382	-0.107
-362.669	-130.409	0.299	-0.040
-361.654	-200.000	-0.009	0.095
-360.639	-17.374	0.073	-0.046
-359.625	124.724	0.060	0.075
-358.610	-200.000	-0.132	0.000
-357.596	-200.000	-0.027	0.249
-356.581	800.000	-0.037	0.139
-355.566	-186.882	0.064	0.001
-354.552	92.505	-0.216	0.242
-353.537	296.199	-0.009	-0.017
-352.523	-200.000	0.008	-0.184
-351.508	-200.000	-0.025	0.288
-350.493	-65.728	-0.034	-0.014
-349.479	-62.293	0.201	0.083
-348.464	45.800	-0.247	0.225
-347.450	-200.000	-0.084	0.455
-346.435	93.885	0.242	0.272
-345.420	149.318	0.316	-0.423
-344.406	211.797	0.042	-0.066
-343.391	-78.137	-0.103	0.035
-342.377	-200.000	-0.039	-0.288
-341.362	-55.140	0.055	0.024
-340.348	-200.000	0.010	-0.170
-339.333	13.575	-0.198	0.152
-338.318	-159.866	0.388	0.021
-337.304	35.908	0.208	0.181
-336.289	257.981	-0.099	-0.168
-335.275	-103.738	-0.261	0.060
-334.260	-113.684	0.182	-0.035
-333.245	393.075	-0.129	-0.264
-332.231	-200.000	-0.028	-0.174
-331.216	-200.000	0.004	0.143
-330.202	95.577	0.191	-0.216
-329.187	83.549	-0.049	-0.053
-328.172	544.931	0.032	0.075
-327.158	394.624	0.101	-0.207
-326.143	-200.000	-0.018	-0.108
-325.129	-79.517	-0.076	-0.025
-324.114	-103.110	0.209	0.049
-323.099	800.000	0.098	0.298
-322.085	-200.000	0.019	0.163
-321.070	315.479	0.112	-0.210
-320.056	110.570	0.080	-0.095
-319.041	765.328	-0.070	0.189
-318.026	-200.000	0.002	0.058
-317.012	-126.873	-0.094	-0.014
-315.997	-200.000	0.062	-0.280
-314.983	-92.949	0.384	0.106
-313.968	800.000	-0.075	-0.222
-312.953	39.467	-0.229	0.203
-311.939	115.500	0.146	0.177
-310.924	-200.000	0.017	0.256
-309.910	-58.132	0.166	-0.071
-308.895	800.000	0.078	-0.290
-307.880	-97.995	0.121	-0.031
-306.866	-135.518	-0.381	-0.045
-305.851	-101.721	0.224	0.054
-304.837	48.993	0.179	0.166
-303.822	54.315	-0.179	-0.170
-302.807	-1.557	0.054	-0.037
-301.793	-200.000	-0.018	0.103
-300.778	-111.514	0.163	-0.033
-299.764	-200.000	0.002	0.162
-298.749	-55.400	0.212	0.094
-297.735	800.000	-0.051	-0.200
-296.720	800.000	-0.048	0.189
-295.705	298.582	0.116	0.211
-294.691	69.698	-0.075	-0.076
-293.676	800.000	0.074	0.268
-292.662	-69.621	0.187	0.071
-291.647	800.000	-0.070	0.218
-290.632	7.786	-0.292	0.216
-289.618	283.852	-0.048	0.085
-288.603	-200.000	-0.006	-0.120
-287.589	-79.139	0.144	0.048
-286.574	257.469	-0.209	-0.354
-285.559	800.000	-0.072	-0.216
-284.545	-137.489	-0.134	-0.015
-283.530	-170.127	-0.220	0.008
-282.516	-200.000	-0.016	-0.126
-281.501	-84.581	0.116	0.036
-280.486	126.907	-0.182	0.228
-279.472	-32.457	0.214	-0.118
-278.457	-49.990	-0.022	0.010
-277.443	-27.066	0.153	0.088
-276.428	-122.629	0.417	-0.067
-275.413	-12.432	0.097	-0.062
-274.399	25.878	0.335	-0.276
-273.384	800.000	-0.063	-0.214
-272.370	287.239	-0.350	0.623
-271.355	800.000	-0.133	0.387
-270.340	-49.048	-0.210	-0.099
-269.326	-149.019	0.417	-0.033
-268.311	296.373	0.058	0.105
-267.297	370.428	0.011	0.022
-266.282	-48.464	0.301	-0.143
-265.267	-200.000	0.175	-0.000
-264.253	-24.033	0.140	-0.082
-263.238	151.480	0.129	0.173
-262.224	107.162	0.194	0.227
-261.209	-47.770	-0.020	0.009
-260.195	-30.178	0.289	0.162
-259.180	-117.531	0.244	0.043
-258.165	-200.000	0.037	-0.262
-257.151	295.456	0.205	-0.370
-256.136	24.970	0.174	-0.142
-255.122	-23.346	-0.070	-0.042
-254.107	213.041	0.253	0.393
-253.092	-123.569	0.153	-0.024
-252.078	-200.000	-0.074	-0.372
-251.063	-200.000	0.021	-0.310
-250.049	375.855	0.098	-0.198
-249.034	800.000	0.106	-0.310
-248.019	-49.710	-0.024	-0.011
-247.005	270.462	0.120	0.208
-245.990	312.489	-0.015	-0.029
-244.976	800.000	0.048	0.136
-243.961	25.364	-0.307	-0.251
-242.946	53.813	0.114	-0.108
-241.932	145.258	-0.104	-0.137
-240.917	-88.644	-0.102	-0.030
-239.903	407.990	-0.041	0.086
-238.888	-200.000	0.024	-0.180
-237.873	366.636	-0.158	-0.314
-236.859	-19.502	-0.203	0.124
-235.844	242.141	0.086	0.142
-234.830	634.750	0.079	0.197
-233.815	17.175	-0.138	-0.108
-232.800	177.412	0.091	-0.130
-231.786	-162.008	-0.344	-0.017
-230.771	800.000	-0.205	0.608
-229.757	7.303	-0.115	0.085
-228.742	-47.997	-0.178	-0.085
-227.727	-126.149	0.085	0.013
-226.713	150.601	0.365	-0.488
-225.698	-96.015	0.335	0.088
-224.684	-44.940	-0.307	0.151
-223.669	-200.000	-0.023	0.302
-222.655	-7.877	0.033	-0.022
-221.640	800.000	-0.042	0.155
-220.625	-118.477	-0.213	-0.037
-219.611	800.000	0.044	-0.137
-218.596	-9.296	-0.151	-0.100
-217.582	-200.000	0.016	-0.322
-216.567	-162.122	0.030	-0.002
-215.552	489.233	-0.066	0.148
-214.538	-90.891	-0.433	-0.123
-213.523	-91.287	-0.146	-0.041
-212.509	-62.686	-0.099	-0.040
-211.494	-188.521	0.291	-0.004
-210.479	-149.927	0.083	0.006
-209.465	111.558	-0.104	-0.123
-208.450	146.744	0.038	-0.050
-207.436	215.698	-0.094	-0.147
-206.421	800.000	-0.081	0.258
-205.406	-140.260	-0.426	-0.044
-204.392	547.622	-0.168	0.396
-203.377	-200.000	0.008	0.116
-202.363	164.959	-0.133	-0.184
-201.348	441.221	0.073	-0.157
-200.333	28.377	-0.068	-0.057
-199.319	-104.764	-0.101	0.023
-198.304	76.860	-0.110	-0.115
-197.290	65.792	0.298	-0.297
-196.275	326.163	-0.063	-0.119
-195.260	59.327	0.032	0.031
-194.246	124.882	-0.049	0.061
-193.231	265.689	-0.115	0.197
-192.217	464.763	-0.073	-0.161
-191.202	-200.000	-0.021	0.131
-190.187	-133.271	0.131	0.016
-189.173	18.569	-0.240	-0.189
-188.158	-200.000	-0.061	-0.355
-187.144	58.183	0.193	0.186
-186.129	19.544	-0.156	0.124
-185.114	57.243	-0.031	0.029
-184.100	-200.000	-0.010	0.291
-183.085	800.000	0.023	0.064
-182.071	800.000	-0.123	-0.362
-181.056	347.033	0.096	-0.186
-180.042	-65.606	-0.271	0.107
-179.027	178.270	0.065	0.093
-178.012	-140.375	-0.203	-0.021
-176.998	591.496	0.060	0.146
-175.983	800.000	0.064	0.263
-174.969	164.013	0.253	0.351
-173.954	-88.409	-0.074	-0.022
-172.939	800.000	-0.070	-0.199
-171.925	-107.003	0.180	-0.039
-170.910	17.814	-0.133	-0.104
-169.896	-18.927	-0.106	-0.065
-168.881	-139.265	-0.144	0.015
-167.866	-53.725	0.105	0.047
-166.852	-40.998	-0.227	0.115
-165.837	-98.317	-0.392	-0.099
-164.823	-148.366	-0.241	-0.019
-163.808	-47.570	0.302	0.144
-162.793	4.047	-0.107	0.077
-161.779	-37.425	-0.523	0.274
-160.764	201.550	0.024	-0.037
-159.750	213.105	0.120	-0.185
-158.735	800.000	0.054	-0.161
-157.720	-37.967	-0.066	0.034
-156.706	-82.320	-0.187	0.060
-155.691	-107.099	0.596	-0.129
-154.677	216.098	0.100	0.155
-153.662	-179.999	0.290	0.006
-152.647	147.568	-0.083	-0.110
-151.633	56.203	-0.119	-0.114
-150.618	397.423	-0.035	0.071
-149.604	-140.550	0.122	-0.012
-148.589	136.719	-0.239	0.306
-147.574	-200.000	-0.022	0.215
-146.560	-195.631	-0.186	0.001
-145.545	618.254	0.029	0.071
-144.531	-88.889	0.408	0.119
-143.516	-200.000	0.037	-0.261
-142.502	65.981	-0.401	0.399
-141.487	-191.290	-0.264	0.003
-140.472	-139.977	0.325	-0.034
-139.458	34.003	0.212	0.181
-138.443	677.478	0.034	0.088
-137.429	156.130	-0.188	-0.254
-136.414	10.312	-0.294	-0.219
-135.399	-15.938	0.304	-0.190
-134.385	7.403	-0.085	-0.062
-133.370	-0.878	-0.068	-0.047
-132.356	295.341	0.156	0.281
-131.341	-16.967	-0.386	0.239
-130.326	800.000	-0.115	-0.465
-129.312	-86.608	0.279	-0.084
-128.297	123.892	-0.249	0.307
-127.283	482.783	-0.034	0.076
-126.268	25.162	-0.212	-0.173
-125.253	-4.695	-0.248	-0.168
-124.239	800.000	-0.008	0.024
-123.224	-200.000	0.037	-0.525
-122.210	751.908	-0.089	0.235
-121.195	240.462	-0.095	-0.156
-120.180	22.968	0.166	0.134
-119.166	61.555	-0.149	0.145
-118.151	-168.603	0.088	-0.003
-117.137	-200.000	-0.005	-0.170
-116.122	57.368	-0.178	-0.170
-115.107	56.078	0.019	-0.018
-114.093	-159.461	-0.258	-0.014
-113.078	287.534	-0.072	0.127
-112.064	-5.428	-0.248	-0.167
-111.049	800.000	-0.105	-0.293
-110.034	211.469	0.145	0.223
-109.020	-93.999	-0.556	0.150
-108.005	1.547	-0.233	0.165
-106.991	-102.685	0.100	-0.023
-105.976	800.000	0.131	0.360
-104.962	201.651	0.322	-0.487
-103.947	27.669	0.017	0.014
-102.932	-200.000	0.003	-0.243
-101.918	-142.315	-0.027	0.003
-100.903	-200.000	-0.005	-0.080
-99.889	5.692	-0.142	-0.103
-98.874	-154.409	-0.221	0.015
-97.859	216.462	-0.170	0.265
-96.845	635.250	0.161	-0.401
-95.830	77.880	-0.073	0.076
-94.816	42.176	-0.294	0.262
-93.801	800.000	-0.177	0.540
-92.786	-200.000	0.031	-0.195
-91.772	265.000	0.248	0.423
-90.757	-114.335	-0.153	-0.029
-89.743	-96.105	-0.194	0.050
-88.728	-200.000	-0.037	0.247
-87.713	-145.795	0.124	0.011
-86.699	19.773	-0.217	0.171
-85.684	46.428	0.253	-0.230
-84.670	425.988	0.131	-0.277
-83.655	-92.386	-0.283	0.078
-82.640	105.726	0.155	0.179
-81.626	60.083	-0.130	0.126
-80.611	-200.000	0.016	-0.454
-79.597	-200.000	0.013	-0.242
-78.582	800.000	0.002	-0.006
-77.567	80.387	-0.181	0.190
-76.553	164.110	0.247	-0.340
-75.538	11.051	0.162	-0.121
-74.524	-102.865	0.225	0.052
-73.509	-179.555	-0.341	-0.007
-72.494	126.168	0.275	-0.341
-71.480	269.372	-0.201	-0.345
-70.465	-200.000	0.021	0.117
-69.451	800.000	-0.087	-0.283
-68.436	800.000	-0.066	-0.192
-67.422	750.506	0.094	-0.248
-66.407	-97.942	0.411	-0.104
-65.392	-200.000	0.024	0.376
-64.378	544.232	-0.052	0.123
-63.363	8.191	0.291	-0.214
-62.349	-111.166	-0.120	-0.024
-61.334	100.732	-1.110	-1.262
-60.319	-27.313	0.884	0.503
-59.305	798.917	-0.520	-1.402
-58.290	146.103	0.861	1.129
-57.276	800.000	0.489	1.545
-56.261	-200.000	112.790	643.002
-55.246	478.018	1501.064	3322.652
-54.232	149.090	2664.225	3524.907
-53.217	103.852	2169.268	2492.464
-52.203	37.816	1700.481	1477.344
-51.188	30.591	1518.454	1270.016
-50.173	28.404	1493.947	1234.748
-49.159	52.429	1551.122	1447.465
-48.144	51.249	1567.322	1454.438
-47.130	30.830	1524.284	1276.324
-46.115	27.849	1508.422	1242.742
-45.100	27.626	1505.190	1238.516
-44.086	27.503	1503.666	1236.373
-43.071	27.597	1501.268	1234.990
-42.057	27.429	1499.891	1232.672
-41.042	27.448	1498.565	1231.661
-40.027	27.447	1497.055	1230.364
-39.013	27.393	1495.757	1228.886
-37.998	27.380	1494.631	1227.825
-36.984	27.488	1492.952	1227.121
-35.969	27.432	1491.767	1225.721
-34.954	27.443	1490.605	1224.792
-33.940	27.467	1488.734	1223.370
-32.925	27.487	1487.461	1222.410
-31.911	27.519	1486.118	1221.474
-30.896	27.479	1484.973	1220.215
-29.881	27.558	1483.382	1219.388
-28.867	27.624	1482.006	1218.647
-27.852	27.608	1481.205	1217.837
-26.838	27.521	1480.196	1216.378
-25.823	27.561	1478.042	1214.826
-24.809	27.556	1476.511	1213.485
-23.794	27.511	1475.235	1212.090
-22.779	27.494	1474.394	1211.234
-21.765	27.687	1472.976	1211.307
-20.750	27.570	1472.309	1209.931
-19.736	27.591	1470.804	1208.785
-18.721	27.502	1470.083	1207.553
-17.706	27.498	1468.717	1206.361
-16.692	27.529	1467.625	1205.623
-15.677	27.492	1466.416	1204.336
-14.663	27.507	1465.695	1203.793
-13.648	27.418	1464.877	1202.488
-12.633	27.519	1464.198	1202.547
-11.619	27.386	1463.496	1201.045
-10.604	27.612	1461.978	1201.241
-9.590	27.438	1461.117	1199.338
-8.575	27.516	1460.328	1199.162
-7.560	27.440	1460.179	1198.486
-6.546	27.507	1458.826	1197.771
-5.531	27.509	1457.655	1196.778
-4.517	27.507	1456.850	1196.055
-3.502	27.431	1456.415	1195.154
-2.487	27.532	1454.991	1194.600
-1.473	27.441	1453.829	1193.001
-0.458	27.454	1452.737	1192.140
0.556	25.934	1442.703	1181.690
1.571	23.091	1418.261	1143.220
2.586	19.972	1358.754	1075.811
3.600	18.541	1276.565	1002.283
4.615	17.503	1232.043	961.387
5.629	16.544	1178.994	914.726
6.644	13.425	1102.260	839.320
7.659	10.627	1067.809	799.255
8.673	10.234	1062.751	793.469
9.688	10.191	1059.213	790.550
10.702	10.144	1057.852	789.233
11.717	10.001	1055.942	787.043
12.731	11.337	1055.844	793.404
13.746	14.619	1059.695	812.225
14.761	17.243	1063.159	827.601
15.775	17.679	1063.236	829.712
16.790	17.048	1060.743	824.626
17.804	15.943	1058.718	817.618
18.819	14.951	1056.789	811.246
19.834	14.422	1055.354	807.515
20.848	14.200	1053.681	805.085
21.863	13.945	1053.517	803.658
22.877	13.566	1053.341	801.620
23.892	13.538	1051.776	800.219
24.907	13.557	1050.854	799.539
25.921	13.489	1050.420	798.810
26.936	13.560	1048.931	797.950
27.950	13.667	1048.067	797.739
28.965	13.482	1047.651	796.458
29.980	13.600	1046.344	795.964
30.994	13.769	1044.796	795.526
32.009	13.664	1044.190	794.489
33.023	13.713	1043.556	794.170
34.038	13.709	1042.947	793.622
35.053	13.652	1041.930	792.501
36.067	13.638	1040.946	791.618
37.082	13.717	1039.794	791.050
38.096	13.626	1039.030	789.963
39.111	13.669	1038.386	789.607
40.126	13.768	1037.571	789.388
41.140	13.579	1036.729	787.781
42.155	13.511	1035.324	786.320
43.169	13.566	1034.413	785.822
44.184	13.414	1033.387	784.250
45.199	13.379	1032.364	783.237
46.213	13.287	1031.563	782.128
47.228	13.507	1030.637	782.396
48.242	13.520	1029.718	781.692
49.257	13.683	1028.183	781.226
50.271	13.739	1027.084	780.584
51.286	13.557	1026.765	779.414
52.301	13.622	1025.712	778.853
53.315	13.563	1025.391	778.261
54.330	13.594	1024.349	777.550
55.344	13.448	1023.627	776.249
56.359	13.583	1022.122	775.670
57.374	13.495	1021.323	774.584
58.388	13.489	1020.960	774.212
59.403	13.539	1019.929	773.596
60.417	13.431	1019.185	772.458
61.432	13.561	1018.098	772.170
62.447	13.509	1017.670	771.535
63.461	13.353	1016.995	770.230
64.476	13.268	1016.204	769.168
65.490	13.292	1014.908	768.231
66.505	13.405	1013.932	767.945
67.520	13.277	1013.528	766.982
68.534	13.277	1012.588	766.200
69.549	13.450	1011.563	766.160
70.563	13.346	1011.082	765.243
71.578	13.317	1010.296	764.448
72.593	13.394	1009.394	764.052
73.607	13.410	1008.106	763.084
74.622	13.307	1007.417	762.023
75.636	13.348	1006.539	761.480
76.651	13.350	1005.317	760.495
77.666	13.315	1005.324	760.272
78.680	13.335	1004.544	759.707
79.695	13.282	1003.831	758.858
80.709	13.354	1003.370	758.772
81.724	13.367	1002.417	758.045
82.739	13.400	1002.117	757.903
83.753	13.488	1001.086	757.459
84.768	13.536	1000.266	756.988
85.782	13.623	999.487	756.731
86.797	13.716	998.635	756.444
87.812	13.612	998.111	755.503
88.826	13.634	997.079	754.755
89.841	13.597	996.093	753.777
90.855	13.694	994.888	753.236
91.870	13.634	994.678	752.739
92.884	13.641	993.962	752.163
93.899	13.525	993.291	751.062
94.914	13.676	992.298	750.930
95.928	13.681	991.831	750.532
96.943	13.813	990.564	750.102
97.957	13.834	989.713	749.485
98.972	13.835	988.297	748.351
99.987	13.657	988.381	747.549
101.001	13.646	987.535	746.791
102.016	13.699	986.764	746.380
103.030	13.713	985.633	745.525
104.045	13.636	984.731	744.430
105.060	13.657	984.061	743.953
106.074	13.454	983.372	742.454
107.089	13.558	982.320	742.061
108.103	13.446	981.585	740.936
109.118	13.425	980.633	740.061
110.133	13.460	979.482	739.283
111.147	13.590	978.422	738.997
112.162	13.376	978.135	737.760
113.176	13.462	976.803	737.074
114.191	13.496	976.073	736.609
115.206	13.465	975.570	736.025
116.220	13.505	974.392	735.251
117.235	13.488	973.559	734.481
118.249	13.653	972.517	734.359
119.264	13.506	971.628	732.972
120.279	13.500	970.743	732.213
121.293	13.587	970.306	732.203
122.308	13.445	969.920	731.220
123.322	13.437	968.682	730.186
124.337	13.386	967.931	729.331
125.352	13.392	966.587	728.280
126.366	13.343	965.666	727.306
127.381	13.453	964.339	726.724
128.395	13.269	963.580	725.283
129.410	13.438	962.554	725.188
130.424	13.271	961.826	723.845
131.439	13.413	960.745	723.587
132.454	13.513	959.906	723.327
133.468	13.535	959.319	722.920
134.483	13.551	958.327	722.175
135.497	13.630	957.618	721.923
136.512	13.512	957.270	721.083
137.527	13.527	956.076	720.186
138.541	13.578	955.157	719.651
139.556	13.462	955.138	719.066
140.570	13.603	954.021	718.775
141.585	13.695	953.401	718.642
142.600	13.730	952.722	718.221
143.614	13.656	951.808	717.145
144.629	13.779	951.069	717.058
145.643	13.689	950.498	716.173
146.658	13.648	949.799	715.409
147.673	13.753	948.732	714.993
148.687	13.615	947.945	713.742
149.702	13.600	947.165	713.029
150.716	13.684	945.842	712.330
151.731	13.666	945.063	711.602
152.746	13.631	944.443	710.923
153.760	13.672	943.733	710.499
154.775	13.587	943.294	709.746
155.789	13.681	942.415	709.422
156.804	13.785	941.513	709.126
157.819	13.703	941.039	708.354
158.833	13.783	940.300	708.079
159.848	13.880	939.325	707.695
160.862	13.862	938.801	707.161
161.877	13.827	937.989	706.335
162.892	13.835	937.122	705.656
163.906	13.713	936.312	704.465
164.921	13.703	935.595	703.822
165.935	13.730	934.776	703.255
166.950	13.808	933.342	702.446
167.964	13.853	932.586	702.004
168.979	13.777	931.495	700.800
169.994	13.972	930.187	700.578
171.008	13.582	929.863	698.627
172.023	13.810	929.110	698.960
173.037	13.865	928.558	698.714
174.052	13.915	927.500	698.065
175.067	13.839	926.959	697.276
176.081	13.980	925.718	696.874
177.096	13.748	925.143	695.407
178.110	13.819	924.227	694.956
179.125	13.809	923.617	694.393
180.140	13.831	922.938	693.913
181.154	13.928	922.193	693.694
182.169	13.926	921.368	693.007
183.183	13.910	921.234	692.777
184.198	13.980	920.362	692.352
185.213	13.998	919.729	691.889
186.227	14.003	919.218	691.464
187.242	14.058	918.711	691.250
188.256	14.249	917.604	691.149
189.271	14.115	917.348	690.341
190.286	14.170	916.372	689.771
191.300	13.952	915.629	688.247
192.315	13.681	915.495	686.963
193.329	13.848	914.087	686.538
194.344	13.782	913.840	686.020
195.359	13.930	912.992	685.934
196.373	14.006	912.758	686.010
197.388	13.991	912.258	685.512
198.402	14.204	911.732	685.932
199.417	14.202	911.218	685.476
200.432	14.366	910.358	685.447
201.446	14.344	910.057	685.067
202.461	14.360	909.662	684.776
203.475	14.352	909.523	684.578
204.490	14.364	908.621	683.886
205.504	14.327	907.819	683.071
206.519	14.393	906.755	682.479
207.534	14.312	906.042	681.551
208.548	14.366	905.232	681.102
209.563	14.363	904.516	680.491
210.577	14.365	904.038	680.078
211.592	14.317	903.336	679.297
212.607	14.411	902.719	679.153
213.621	14.570	902.342	679.458
214.636	14.521	901.499	678.563
215.650	14.474	901.053	677.975
216.665	14.495	900.427	677.531
217.680	14.521	899.920	677.194
218.694	14.601	899.614	677.232
219.709	14.622	899.127	676.887
220.723	14.713	898.174	676.479
221.738	14.588	897.151	675.144
222.753	14.546	896.618	674.514
223.767	14.530	896.012	673.935
224.782	14.599	894.991	673.385
225.796	14.777	894.011	673.304
226.811	14.761	893.509	672.804
227.826	14.643	892.948	671.845
228.840	14.721	892.084	671.450
229.855	14.632	891.501	670.593
230.869	14.633	891.078	670.223
231.884	14.578	890.463	669.478
232.899	14.505	890.393	669.073
233.913	14.446	889.412	668.042
234.928	14.511	888.779	667.766
235.942	14.591	887.547	667.103
236.957	14.499	886.963	666.234
237.972	14.626	886.176	666.093
238.986	14.610	885.483	665.448
240.001	14.586	885.193	665.076
241.015	14.590	884.576	664.570
242.030	14.560	883.601	663.662
243.045	14.723	882.828	663.667
244.059	14.671	882.675	663.287
245.074	14.763	881.712	662.872
246.088	14.744	881.297	662.423
247.103	14.812	880.910	662.343
248.117	14.765	880.447	661.753
249.132	14.998	879.240	661.709
250.147	14.894	879.308	661.290
251.161	15.021	878.083	660.811
252.176	15.068	877.707	660.656
253.190	15.114	876.899	660.169
254.205	15.207	876.321	660.040
255.220	15.191	875.938	659.633
256.234	15.047	875.009	658.307
257.249	15.213	874.265	658.341
258.263	15.206	874.087	658.124
259.278	15.187	873.703	657.700
260.293	15.268	872.766	657.254
261.307	15.267	872.223	656.782
262.322	15.330	871.867	656.704
263.336	15.352	871.040	656.109
264.351	15.303	870.584	655.514
265.366	15.455	870.052	655.653
266.380	15.232	869.420	654.247
267.395	15.391	868.594	654.187
268.409	15.439	867.881	653.780
269.424	15.395	867.117	652.973
270.439	15.371	866.468	652.335
271.453	15.211	865.537	650.955
272.468	15.366	864.981	651.080
273.482	15.273	864.546	650.336
274.497	15.336	863.936	650.062
275.512	15.484	862.581	649.559
276.526	15.342	862.408	648.820
277.541	15.348	861.489	648.097
278.555	15.346	861.375	647.945
279.570	15.526	860.524	647.941
280.585	15.443	860.445	647.503
281.599	15.573	859.637	647.341
282.614	15.547	859.365	646.977
283.628	15.569	858.564	646.404
284.643	15.475	858.196	645.709
285.657	15.549	857.321	645.275
286.672	15.558	856.788	644.853
287.687	15.608	856.059	644.439
288.701	15.558	855.936	644.097
289.716	15.762	854.781	643.951
290.730	15.711	854.393	643.409
291.745	15.638	853.734	642.573
292.760	15.679	853.149	642.234
293.774	15.675	852.518	641.686
294.789	15.635	852.071	641.140
295.803	15.874	851.212	641.349
296.818	15.617	850.862	640.051
297.833	15.669	850.030	639.563
298.847	15.561	849.551	638.738
299.862	15.768	849.042	639.084
300.876	15.717	848.349	638.314
301.891	15.889	847.576	638.327
302.906	15.906	846.807	637.754
303.920	15.883	846.131	637.105
304.935	15.796	845.972	636.597
305.949	16.017	845.099	636.719
306.964	15.912	844.812	636.050
307.979	15.819	844.175	635.165
308.993	15.780	843.647	634.564
310.008	16.074	842.903	635.055
311.022	16.073	842.192	634.461
312.037	16.061	841.922	634.156
313.052	16.004	841.451	633.530
314.066	15.975	840.953	632.991
315.081	15.900	840.285	632.149
316.095	16.000	839.730	632.051
317.110	15.854	839.370	631.177
318.125	16.043	838.419	631.115
319.139	15.982	838.180	630.651
320.154	15.734	837.906	629.458
321.168	16.035	837.163	629.970
322.183	16.015	836.662	629.462
323.197	15.980	836.415	629.093
324.212	16.141	835.300	628.797
325.227	16.193	834.673	628.463
326.241	16.189	834.375	628.167
327.256	16.233	833.480	627.603
328.270	16.088	833.012	626.655
329.285	16.005	832.908	626.213
330.300	15.999	832.273	625.660
331.314	16.078	831.597	625.388
332.329	16.039	831.255	624.933
333.343	16.219	830.253	624.789
334.358	16.188	830.136	624.532
335.373	16.326	829.327	624.378
336.387	16.320	828.884	623.964
337.402	16.187	828.687	623.271
338.416	16.301	827.813	622.980
339.431	16.418	827.312	622.979
340.446	16.382	826.846	622.442
341.460	16.436	826.456	622.289
342.475	16.541	825.442	621.858
343.489	16.421	825.038	621.056
344.504	16.545	824.647	621.162
345.519	16.594	824.169	620.929
346.533	16.670	823.603	620.727
347.548	16.582	823.178	620.028
348.562	16.635	822.416	619.595
349.577	16.537	822.163	618.988
350.592	16.506	821.379	618.232
351.606	16.360	821.008	617.362
352.621	16.458	820.292	617.129
353.635	16.532	819.675	616.878
354.650	16.504	819.671	616.718
355.665	16.490	819.565	616.533
356.679	16.645	818.911	616.553
357.694	16.640	818.167	615.918
358.708	16.629	817.907	615.629
359.723	16.601	817.071	614.845
360.738	16.561	817.057	614.632
361.752	16.771	815.734	614.347
362.767	16.723	815.176	613.698
363.781	16.673	815.379	613.616
364.796	16.723	815.113	613.541
365.810	16.825	814.013	613.026
366.825	16.904	814.157	613.368
367.840	16.882	813.924	613.059
368.854	16.974	813.598	613.089
369.869	16.689	813.264	611.755
370.883	16.843	811.946	611.265
371.898	16.847	811.944	611.222
372.913	16.844	811.005	610.452
373.927	16.817	810.521	609.937
374.942	16.940	810.064	609.982
375.956	16.949	809.349	609.420
376.971	16.898	808.621	608.638
377.986	17.088	808.064	608.843
379.000	17.149	807.648	608.698
380.015	17.213	807.296	608.606
381.029	17.155	806.620	607.837
382.044	17.070	806.139	607.113
383.059	17.223	805.074	606.806
384.073	17.252	804.540	606.452
385.088	17.128	804.888	606.220
386.102	17.028	803.861	605.033
387.117	17.080	803.281	604.731
388.132	17.052	802.939	604.319
389.146	17.126	802.556	604.242
390.161	17.135	802.502	604.178
391.175	17.147	801.649	603.528
392.190	17.066	801.494	603.066
393.205	17.220	800.935	603.139
394.219	17.175	800.275	602.431
395.234	17.262	800.010	602.488
396.248	17.289	799.126	601.862
397.263	17.169	798.824	601.156
398.278	17.159	798.530	600.848
399.292	17.145	797.984	600.333
400.307	16.967	797.969	599.639
401.321	17.104	797.265	599.541
402.336	17.142	796.943	599.380
403.350	17.219	796.732	599.442
404.365	17.224	796.108	598.937
405.380	17.343	795.452	598.808
406.394	17.304	795.418	598.592
407.409	17.375	794.672	598.229
408.423	17.497	793.919	598.038
409.438	17.520	793.952	598.089
410.453	17.448	793.634	597.547
411.467	17.481	792.859	597.025
412.482	17.597	792.348	596.993
413.496	17.605	792.174	596.837
414.511	17.611	791.432	596.246
415.526	17.638	791.225	596.133
416.540	17.677	791.029	596.067
417.555	17.678	790.444	595.577
418.569	17.683	789.962	595.180
419.584	17.593	789.885	594.756
420.599	17.642	789.436	594.534
421.613	111.624	1293.002	1477.187
422.628	95.870	1366.377	1477.262
