DTS Sentinel unit serial number:	SN413079Multiplexer serial number:	ORYXHardware model number:	OX4-SRSoftware version number:	ORYX F/W v4.00 Oryx Data Collector v3.7.2.0data status	okinstallation	princeton_trtdifferential loss correction	single-endedforward channel	channel 3reverse channel	N/Adate	2019/09/13time	09:32:35forward acquisition time	60.00reverse acquisition time	0.00gamma	496.2192k internal	0.2324k external	0.2324temperature offset calibration	1.0137default loss term (dB/km)	0.3790temperature slope calibration	1.0000multiplexer offset coefficient	1.0000multiplexer slope coefficient	1.0000fibre end	0.00T internal ref (°C)	29.52T ext. ref 1 (°C)	4.42T ext. ref 2 (°C)	25.83length (m)	temperature (°C)	Stokes	anti-Stokes-747.200	-98.131	0.253	0.066
-746.185	-200.000	-0.041	0.194
-745.171	-64.294	-0.100	-0.041
-744.156	-41.792	-0.120	-0.062
-743.142	-200.000	-0.072	0.498
-742.127	77.631	0.126	0.136
-741.112	-35.662	0.174	-0.095
-740.098	-21.274	-0.280	0.173
-739.083	800.000	-0.146	0.440
-738.069	-165.219	-0.264	0.012
-737.054	661.659	0.132	-0.343
-736.039	49.532	0.202	0.192
-735.025	-48.799	-0.063	-0.031
-734.010	46.441	-0.325	0.304
-732.996	-47.331	-0.175	0.086
-731.981	107.038	-0.224	0.268
-730.966	-200.000	0.012	0.130
-729.952	-124.221	-0.104	-0.016
-728.937	-36.881	-0.124	0.067
-727.923	100.005	-0.226	0.264
-726.908	-99.478	-0.314	-0.080
-725.894	-21.805	-0.094	-0.058
-724.879	24.154	-0.105	0.088
-723.864	70.057	-0.255	0.265
-722.850	-200.000	-0.053	-0.262
-721.835	68.446	-0.098	-0.102
-720.821	409.214	0.069	0.148
-719.806	-197.311	-0.080	0.001
-718.791	-100.760	-0.225	-0.056
-717.777	-72.403	0.397	0.148
-716.762	37.621	-0.066	-0.059
-715.748	-154.641	-0.034	0.002
-714.733	486.004	-0.111	-0.255
-713.718	95.082	0.094	0.108
-712.704	-200.000	0.000	-0.051
-711.689	-68.447	-0.215	0.084
-710.675	272.782	0.132	-0.235
-709.660	-56.840	-0.351	-0.156
-708.645	425.478	-0.113	-0.245
-707.631	-19.736	-0.169	-0.105
-706.616	800.000	-0.052	0.188
-705.602	800.000	-0.128	-0.363
-704.587	278.171	0.143	-0.256
-703.572	275.886	-0.077	0.138
-702.558	130.791	0.026	-0.034
-701.543	800.000	0.105	0.449
-700.529	-39.086	-0.064	0.034
-699.514	-132.231	0.403	-0.053
-698.499	22.789	0.082	-0.068
-697.485	518.108	0.137	-0.322
-696.470	-81.416	-0.175	0.058
-695.456	-122.735	0.217	-0.035
-694.441	-143.645	0.193	0.018
-693.426	10.844	-0.091	-0.070
-692.412	295.401	0.100	-0.184
-691.397	-140.198	-0.208	0.022
-690.383	240.598	-0.115	-0.192
-689.368	6.523	-0.030	-0.022
-688.354	-140.635	-0.173	-0.018
-687.339	426.327	0.100	-0.217
-686.324	-200.000	0.008	0.200
-685.310	-144.283	0.352	-0.033
-684.295	599.510	-0.122	0.304
-683.281	-200.000	0.023	0.219
-682.266	-200.000	-0.021	-0.238
-681.251	-96.058	-0.101	-0.027
-680.237	-76.353	-0.269	-0.095
-679.222	-71.231	-0.238	0.090
-678.208	138.888	0.041	-0.054
-677.193	92.536	0.049	-0.056
-676.178	-200.000	-0.016	0.151
-675.164	-39.907	0.137	0.072
-674.149	-200.000	0.024	-0.122
-673.135	-61.283	0.299	-0.127
-672.120	93.544	-0.330	0.376
-671.105	-177.176	-0.287	0.007
-670.091	189.697	0.144	0.217
-669.076	-54.241	0.036	0.017
-668.062	-200.000	-0.048	0.281
-667.047	574.366	0.030	-0.073
-666.032	800.000	-0.094	-0.369
-665.018	159.880	-0.153	-0.215
-664.003	-36.042	0.103	-0.056
-662.989	229.945	-0.105	-0.173
-661.974	-51.993	-0.092	0.043
-660.959	276.652	-0.148	-0.264
-659.945	245.626	0.135	-0.229
-658.930	-129.499	0.256	0.036
-657.916	-200.000	-0.002	-0.320
-656.901	3.013	-0.044	0.032
-655.886	-93.185	-0.496	-0.139
-654.872	338.134	0.083	-0.163
-653.857	-200.000	-0.073	-0.326
-652.843	-115.692	0.368	-0.069
-651.828	-30.149	-0.136	-0.078
-650.814	-200.000	-0.016	-0.141
-649.799	800.000	0.108	-0.335
-648.784	439.704	-0.092	-0.203
-647.770	-3.148	0.161	0.113
-646.755	371.612	-0.139	0.284
-645.741	-164.318	0.140	-0.006
-644.726	-39.235	-0.121	-0.064
-643.711	60.112	-0.310	-0.308
-642.697	288.323	-0.027	-0.049
-641.682	195.029	0.088	0.135
-640.668	-200.000	-0.003	0.193
-639.653	-35.203	-0.084	-0.046
-638.638	-111.488	-0.039	0.008
-637.624	-200.000	0.011	0.368
-636.609	-157.028	0.064	0.004
-635.595	264.605	-0.097	-0.171
-634.580	184.277	0.257	0.382
-633.565	800.000	-0.048	0.162
-632.551	-185.868	-0.381	0.006
-631.536	410.089	0.071	0.152
-630.522	35.271	0.174	0.153
-629.507	-200.000	-0.063	-0.331
-628.492	185.463	0.107	-0.160
-627.478	-111.345	0.096	-0.020
-626.463	-44.673	-0.436	-0.219
-625.449	325.914	-0.169	0.325
-624.434	800.000	0.091	0.356
-623.419	-81.998	-0.177	-0.058
-622.405	-27.040	-0.165	-0.097
-621.390	-143.537	0.148	-0.014
-620.376	-100.933	0.159	0.039
-619.361	-200.000	-0.013	-0.176
-618.346	659.357	0.090	-0.233
-617.332	-111.205	-0.361	0.074
-616.317	-51.608	0.251	-0.118
-615.303	47.490	-0.295	-0.276
-614.288	-153.907	-0.230	0.016
-613.273	800.000	0.061	-0.217
-612.259	-200.000	-0.018	-0.290
-611.244	-200.000	0.064	-0.289
-610.230	200.228	0.052	0.080
-609.215	-33.823	-0.425	0.235
-608.201	-16.186	-0.454	0.290
-607.186	-200.000	0.010	-0.117
-606.171	-71.904	0.329	0.123
-605.157	91.446	0.066	-0.074
-604.142	155.682	-0.239	0.330
-603.128	-63.940	-0.361	-0.148
-602.113	800.000	0.084	0.308
-601.098	800.000	-0.099	-0.283
-600.084	107.168	0.197	0.235
-599.069	179.631	-0.105	0.154
-598.055	89.085	-0.207	-0.232
-597.040	-54.898	-0.393	0.178
-596.025	14.261	0.134	0.105
-595.011	66.587	-0.241	0.246
-593.996	76.058	-0.162	-0.172
-592.982	80.417	-0.111	0.120
-591.967	800.000	-0.043	-0.165
-590.952	357.785	0.086	0.173
-589.938	93.947	0.140	0.159
-588.923	800.000	0.043	0.160
-587.909	-73.725	0.073	-0.027
-586.894	-91.214	-0.287	0.082
-585.879	-200.000	0.029	0.265
-584.865	-142.456	-0.082	-0.008
-583.850	85.412	-0.134	-0.147
-582.836	-113.559	0.242	0.048
-581.821	-149.561	-0.078	-0.006
-580.806	-200.000	-0.026	-0.384
-579.792	120.744	0.033	-0.042
-578.777	383.525	0.037	-0.077
-577.763	103.453	-0.219	-0.257
-576.748	280.034	0.061	-0.110
-575.733	192.974	0.140	-0.211
-574.719	78.487	0.162	0.174
-573.704	517.451	-0.115	-0.269
-572.690	36.840	-0.143	-0.127
-571.675	409.422	0.074	-0.158
-570.661	385.424	0.117	0.241
-569.646	129.300	-0.061	0.077
-568.631	-200.000	-0.013	-0.249
-567.617	604.398	-0.085	-0.213
-566.602	800.000	-0.175	-0.536
-565.588	800.000	-0.039	-0.134
-564.573	-41.328	0.484	-0.250
-563.558	800.000	0.051	0.216
-562.544	629.513	-0.054	0.136
-561.529	-185.759	-0.281	0.004
-560.515	-46.685	-0.255	-0.125
-559.500	-200.000	-0.003	-0.021
-558.485	-66.952	-0.019	-0.007
-557.471	16.648	0.189	-0.150
-556.456	39.565	0.066	-0.059
-555.442	1.895	0.212	-0.153
-554.427	-200.000	-0.071	-0.405
-553.412	66.618	-0.121	-0.123
-552.398	-56.167	0.388	-0.173
-551.383	-52.122	-0.172	0.080
-550.369	-11.789	0.104	0.068
-549.354	138.392	-0.054	-0.072
-548.339	-200.000	-0.015	-0.254
-547.325	400.225	0.084	0.176
-546.310	-200.000	0.009	0.115
-545.296	35.007	-0.083	0.073
-544.281	7.225	0.159	-0.119
-543.266	-200.000	0.003	-0.058
-542.252	-126.989	-0.153	0.022
-541.237	220.391	0.100	-0.161
-540.223	73.384	-0.116	0.121
-539.208	-123.704	-0.336	0.053
-538.193	-163.491	0.423	0.020
-537.179	12.284	-0.025	0.019
-536.164	187.312	-0.197	-0.295
-535.150	52.366	0.107	-0.102
-534.135	148.142	-0.084	0.114
-533.121	368.169	0.050	-0.102
-532.106	171.627	0.109	0.156
-531.091	-38.651	0.201	-0.106
-530.077	-200.000	-0.028	-0.142
-529.062	3.159	0.161	-0.118
-528.048	199.940	0.205	0.315
-527.033	9.577	-0.296	-0.224
-526.018	93.336	0.257	0.291
-525.004	-138.297	-0.210	-0.023
-523.989	293.294	0.120	-0.219
-522.975	49.728	-0.113	-0.107
-521.960	800.000	0.082	0.257
-520.945	-146.097	0.206	-0.018
-519.931	-109.725	0.301	-0.063
-518.916	112.216	-0.032	0.039
-517.902	-91.322	-0.275	0.079
-516.887	9.567	0.058	0.044
-515.872	-120.528	0.077	-0.013
-514.858	800.000	-0.086	0.240
-513.843	44.678	-0.139	-0.127
-512.829	-200.000	-0.033	0.231
-511.814	450.889	-0.063	0.138
-510.799	171.179	-0.178	-0.255
-509.785	361.950	0.146	-0.292
-508.770	-61.772	-0.388	-0.162
-507.756	-85.517	-0.240	-0.075
-506.741	-200.000	-0.032	0.241
-505.726	221.823	-0.224	0.360
-504.712	2.965	-0.191	-0.139
-503.697	-200.000	0.011	-0.109
-502.683	-106.393	-0.535	-0.120
-501.668	-68.712	-0.272	-0.105
-500.653	198.676	0.143	0.219
-499.639	-10.101	0.340	0.226
-498.624	294.623	0.123	0.225
-497.610	172.535	0.181	0.260
-496.595	204.900	0.115	-0.179
-495.581	-200.000	-0.042	0.216
-494.566	27.470	0.184	0.154
-493.551	-200.000	0.066	-0.458
-492.537	-138.825	0.223	0.024
-491.522	35.603	0.215	0.189
-490.508	-26.539	-0.285	-0.167
-489.493	-8.382	0.108	-0.073
-488.478	71.584	-0.111	-0.115
-487.464	0.913	-0.025	-0.018
-486.449	-72.156	0.166	0.061
-485.435	82.995	-0.076	0.082
-484.420	185.117	-0.104	0.154
-483.405	-200.000	-0.068	0.434
-482.391	-69.631	0.269	0.103
-481.376	-83.945	-0.189	-0.060
-480.362	-200.000	0.052	0.246
-479.347	146.550	-0.046	-0.062
-478.332	259.171	-0.109	-0.187
-477.318	-43.862	-0.154	-0.077
-476.303	133.332	0.113	0.146
-475.289	-115.537	-0.330	-0.062
-474.274	-167.888	0.210	0.008
-473.259	-149.830	-0.160	0.013
-472.245	295.247	0.161	-0.294
-471.230	108.139	-0.180	-0.214
-470.216	-169.511	-0.279	-0.010
-469.201	119.147	-0.200	0.247
-468.186	-118.628	0.243	0.043
-467.172	-200.000	0.008	0.214
-466.157	88.074	-0.194	-0.215
-465.143	-200.000	-0.060	0.294
-464.128	-200.000	-0.019	0.235
-463.113	-115.362	0.316	0.060
-462.099	-200.000	0.042	0.235
-461.084	-151.978	0.211	0.015
-460.070	-63.335	0.142	-0.058
-459.055	428.859	-0.045	-0.097
-458.040	58.943	0.170	-0.167
-457.026	-200.000	0.060	-0.304
-456.011	-134.569	0.060	-0.007
-454.997	-200.000	0.090	0.436
-453.982	-52.760	0.346	0.159
-452.968	-25.532	0.193	-0.114
-451.953	-200.000	0.012	0.155
-450.938	-200.000	0.019	-0.383
-449.924	-200.000	0.006	-0.282
-448.909	-124.428	-0.039	0.006
-447.895	800.000	0.108	-0.333
-446.880	785.891	0.104	0.283
-445.865	340.856	0.098	0.191
-444.851	180.483	0.174	0.255
-443.836	-97.365	-0.211	0.055
-442.822	39.561	0.060	0.054
-441.807	60.936	-0.280	-0.277
-440.792	-105.231	0.065	-0.015
-439.778	-48.129	0.323	-0.156
-438.763	800.000	-0.102	-0.289
-437.749	-46.440	0.156	-0.076
-436.734	232.080	-0.084	0.138
-435.719	-17.201	-0.225	-0.141
-434.705	-54.440	-0.316	0.143
-433.690	-11.717	0.072	0.047
-432.676	-17.724	0.075	0.047
-431.661	7.072	0.016	0.012
-430.646	186.580	0.095	0.140
-429.632	-57.253	0.024	-0.010
-428.617	444.208	0.145	-0.317
-427.603	40.801	0.148	-0.133
-426.588	263.955	0.075	0.129
-425.573	800.000	0.041	-0.139
-424.559	-57.863	-0.058	-0.025
-423.544	-177.528	0.332	0.008
-422.530	-159.785	-0.142	0.008
-421.515	631.515	0.085	0.214
-420.500	800.000	-0.050	-0.185
-419.486	42.209	-0.115	0.104
-418.471	-48.020	0.253	-0.122
-417.457	-69.989	-0.514	0.195
-416.442	-200.000	0.005	0.212
-415.428	482.865	0.083	0.189
-414.413	-17.596	0.196	-0.123
-413.398	-200.000	0.021	0.369
-412.384	636.570	-0.079	-0.201
-411.369	-43.552	-0.079	-0.040
-410.355	-200.000	-0.027	0.326
-409.340	187.180	0.195	0.290
-408.325	37.826	-0.358	0.317
-407.311	-16.973	0.092	-0.058
-406.296	-130.759	-0.256	-0.034
-405.282	323.402	0.087	0.166
-404.267	250.068	0.080	0.135
-403.252	90.581	0.002	-0.002
-402.238	-200.000	0.028	0.233
-401.223	76.385	-0.243	0.256
-400.209	-8.868	0.170	0.114
-399.194	-200.000	-0.016	0.157
-398.179	-89.014	0.031	0.009
-397.165	725.663	-0.035	-0.093
-396.150	-200.000	-0.035	0.167
-395.136	-94.117	0.196	-0.054
-394.121	95.029	0.088	0.099
-393.106	-63.762	-0.341	0.139
-392.092	213.351	0.110	0.173
-391.077	-15.679	0.138	-0.088
-390.063	-200.000	-0.002	0.626
-389.048	148.194	0.301	-0.404
-388.033	94.048	-0.197	0.222
-387.019	-150.579	-0.227	0.017
-386.004	-200.000	0.004	0.041
-384.990	117.886	0.157	-0.192
-383.975	-200.000	0.028	0.206
-382.960	800.000	0.044	-0.148
-381.946	-6.173	0.112	0.076
-380.931	-167.417	-0.254	0.010
-379.917	19.591	0.379	-0.303
-378.902	800.000	0.039	0.120
-377.888	361.404	0.073	0.146
-376.873	380.554	0.196	0.401
-375.858	8.406	0.213	0.160
-374.844	-74.933	0.085	-0.030
-373.829	-200.000	-0.015	-0.326
-372.815	800.000	-0.058	0.232
-371.800	20.268	-0.224	0.180
-370.785	-200.000	0.024	0.223
-369.771	147.007	-0.096	0.128
-368.756	175.470	0.094	0.135
-367.742	2.250	-0.081	-0.058
-366.727	312.450	0.039	0.074
-365.712	-132.834	0.181	0.023
-364.698	-200.000	0.009	0.114
-363.683	62.313	0.067	-0.066
-362.669	74.667	-0.117	-0.122
-361.654	-8.382	0.166	-0.111
-360.639	32.350	-0.210	0.181
-359.625	228.965	-0.167	-0.271
-358.610	176.255	-0.198	0.286
-357.596	-192.264	0.167	0.002
-356.581	669.473	-0.130	-0.335
-355.566	800.000	0.072	-0.305
-354.552	80.726	0.190	-0.203
-353.537	228.710	0.096	0.155
-352.523	29.270	0.205	0.173
-351.508	14.235	0.238	0.185
-350.493	-0.157	-0.245	-0.174
-349.479	-200.000	0.010	0.103
-348.464	90.004	0.142	-0.158
-347.450	-84.082	0.116	0.037
-346.435	-200.000	0.009	0.062
-345.420	-97.327	-0.158	0.041
-344.406	-87.882	0.237	0.071
-343.391	-67.515	0.196	-0.077
-342.377	-22.533	0.225	-0.135
-341.362	48.775	-0.015	0.014
-340.348	-77.126	0.141	-0.049
-339.333	-96.844	0.081	0.021
-338.318	29.840	-0.171	-0.145
-337.304	-17.007	0.081	0.051
-336.289	800.000	0.028	-0.101
-335.275	553.561	0.050	0.119
-334.260	-200.000	-0.052	0.311
-333.245	-58.691	-0.105	-0.045
-332.231	-200.000	0.020	0.169
-331.216	-32.149	-0.226	-0.126
-330.202	428.276	-0.061	-0.130
-329.187	-123.315	0.129	0.020
-328.172	800.000	0.079	-0.332
-327.158	88.012	0.039	-0.043
-326.143	331.278	-0.022	0.043
-325.129	423.791	0.124	0.264
-324.114	800.000	-0.097	0.386
-323.099	558.116	-0.061	-0.146
-322.085	-200.000	0.005	0.076
-321.070	-200.000	0.012	-0.146
-320.056	122.817	-0.308	-0.383
-319.041	-67.899	0.066	0.025
-318.026	-46.132	-0.128	0.062
-317.012	-155.863	-0.234	0.015
-315.997	-48.415	0.253	0.121
-314.983	-76.792	-0.171	-0.060
-313.968	50.452	0.035	0.033
-312.953	-200.000	-0.004	-0.101
-311.939	224.068	0.239	-0.383
-310.924	-121.420	-0.110	0.018
-309.910	-68.189	-0.330	-0.128
-308.895	800.000	0.105	0.378
-307.880	-191.763	-0.206	-0.002
-306.866	800.000	0.120	-0.390
-305.851	-0.217	0.033	-0.023
-304.837	287.959	-0.018	-0.033
-303.822	-61.906	-0.102	-0.042
-302.807	-78.308	0.195	0.066
-301.793	103.744	0.344	0.400
-300.778	-104.514	-0.194	0.044
-299.764	497.153	0.086	0.195
-298.749	504.764	0.139	-0.319
-297.735	-40.716	0.129	-0.066
-296.720	-200.000	-0.008	0.080
-295.705	-200.000	0.002	0.157
-294.691	-124.369	0.244	0.038
-293.676	-178.824	-0.273	-0.006
-292.662	800.000	0.032	-0.129
-291.647	-102.819	-0.250	-0.059
-290.632	46.825	-0.345	0.318
-289.618	-200.000	0.092	-0.425
-288.603	-114.350	0.052	-0.010
-287.589	42.490	0.078	0.070
-286.574	-181.670	0.183	0.004
-285.559	-99.268	0.277	-0.069
-284.545	-200.000	0.078	-0.394
-283.530	250.251	-0.150	0.252
-282.516	16.001	-0.130	0.101
-281.501	-105.087	-0.306	-0.069
-280.486	224.400	0.116	0.185
-279.472	-79.787	0.255	0.085
-278.457	-72.697	0.124	-0.045
-277.443	-41.497	0.349	-0.178
-276.428	-92.115	0.289	-0.081
-275.413	-200.000	-0.012	0.092
-274.399	-82.327	0.277	-0.089
-273.384	375.925	-0.148	-0.298
-272.370	-39.547	0.478	-0.248
-271.355	-9.142	-0.025	0.017
-270.340	-121.010	0.124	-0.021
-269.326	800.000	0.074	-0.220
-268.311	-16.410	0.282	0.177
-267.297	-200.000	-0.006	0.038
-266.282	-75.700	-0.304	0.107
-265.267	34.979	-0.249	0.216
-264.253	-146.256	-0.268	-0.023
-263.238	-94.357	-0.364	-0.098
-262.224	-18.223	-0.167	0.103
-261.209	-200.000	-0.038	0.169
-260.195	285.287	-0.132	-0.236
-259.180	125.387	-0.142	-0.177
-258.165	21.975	-0.172	0.139
-257.151	-200.000	-0.287	-0.001
-256.136	-200.000	0.027	0.117
-255.122	93.836	0.105	-0.118
-254.107	-92.159	-0.154	-0.043
-253.092	13.234	0.099	-0.076
-252.078	-200.000	0.094	-0.409
-251.063	89.937	-0.079	0.087
-250.049	-59.224	0.064	-0.027
-249.034	-200.000	-0.040	-0.210
-248.019	115.853	-0.285	0.345
-247.005	-118.753	-0.296	-0.052
-245.990	29.670	-0.293	-0.247
-244.976	-53.902	0.121	-0.055
-243.961	-148.331	-0.165	-0.013
-242.946	117.462	0.216	-0.263
-241.932	132.642	-0.038	-0.048
-240.917	179.793	-0.168	0.243
-239.903	54.585	0.233	-0.222
-238.888	800.000	-0.103	0.309
-237.873	428.517	-0.036	-0.078
-236.859	39.911	0.245	0.218
-235.844	-45.998	-0.141	0.069
-234.830	-182.378	0.215	-0.004
-233.815	44.922	0.094	-0.085
-232.800	493.818	0.056	0.128
-231.786	-161.684	-0.198	-0.010
-230.771	-126.296	0.083	-0.012
-229.757	800.000	0.011	0.042
-228.742	116.761	0.142	-0.172
-227.727	0.949	-0.069	0.049
-226.713	-42.301	-0.246	0.124
-225.698	220.735	-0.035	-0.055
-224.684	420.687	0.128	0.270
-223.669	800.000	0.042	-0.135
-222.655	162.283	0.118	-0.163
-221.640	-110.360	-0.339	-0.070
-220.625	-32.456	0.188	-0.104
-219.611	226.819	0.160	0.257
-218.596	-153.139	0.275	-0.019
-217.582	-32.408	0.179	-0.099
-216.567	-200.000	-0.010	-0.043
-215.552	-31.425	-0.149	-0.083
-214.538	-200.000	0.003	-0.179
-213.523	-75.496	0.506	-0.178
-212.509	-141.288	-0.235	-0.024
-211.494	-25.659	0.037	-0.022
-210.479	-112.955	0.302	-0.059
-209.465	59.699	-0.101	-0.099
-208.450	800.000	0.057	-0.220
-207.436	-6.871	0.095	-0.064
-206.421	25.464	0.199	0.163
-205.406	10.136	-0.532	-0.399
-204.392	800.000	-0.060	-0.212
-203.377	-97.207	0.055	-0.014
-202.363	369.983	0.083	-0.166
-201.348	71.097	0.236	-0.242
-200.333	800.000	-0.046	0.126
-199.319	144.626	0.036	-0.047
-198.304	516.534	0.062	-0.144
-197.290	56.230	0.074	0.071
-196.275	-8.914	0.107	0.071
-195.260	-200.000	0.000	0.014
-194.246	800.000	0.094	0.273
-193.231	-200.000	0.019	0.326
-192.217	-58.072	-0.119	0.051
-191.202	17.536	-0.161	-0.127
-190.187	63.784	0.181	0.180
-189.173	-24.540	-0.186	-0.109
-188.158	-40.661	-0.252	0.129
-187.144	182.298	-0.175	0.254
-186.129	-26.444	0.274	-0.159
-185.114	-139.273	-0.143	-0.015
-184.100	-200.000	-0.001	0.237
-183.085	-31.601	0.083	-0.046
-182.071	-200.000	-0.018	-0.322
-181.056	800.000	-0.026	0.104
-180.042	52.370	0.098	0.092
-179.027	-78.379	0.137	-0.046
-178.012	-29.438	0.183	-0.103
-176.998	-84.005	0.196	-0.062
-175.983	-33.838	-0.218	-0.119
-174.969	800.000	0.070	0.192
-173.954	547.263	0.061	0.144
-172.939	-110.403	0.174	0.036
-171.925	-100.910	-0.304	0.074
-170.910	-6.586	0.142	-0.096
-169.896	141.902	0.108	-0.141
-168.881	-113.098	-0.226	0.044
-167.866	-45.563	0.109	-0.053
-166.852	-113.403	0.086	0.017
-165.837	179.335	-0.108	0.156
-164.823	-200.000	0.006	0.171
-163.808	-143.456	-0.415	-0.039
-162.793	-81.029	-0.099	0.032
-161.779	-200.000	-0.037	-0.270
-160.764	800.000	-0.049	-0.183
-159.750	75.378	0.155	-0.161
-158.735	-90.095	-0.278	0.080
-157.720	394.868	0.115	0.237
-156.706	285.941	0.066	0.117
-155.691	-200.000	0.013	0.153
-154.677	800.000	0.051	-0.206
-153.662	168.021	0.102	0.144
-152.647	592.047	0.102	0.248
-151.633	800.000	0.025	-0.082
-150.618	-106.240	0.298	0.066
-149.604	-67.859	-0.372	-0.143
-148.589	-14.208	0.394	0.251
-147.574	263.514	-0.297	-0.509
-146.560	165.413	0.044	0.062
-145.545	10.489	-0.178	0.134
-144.531	207.126	0.016	0.025
-143.516	51.727	0.258	-0.242
-142.502	541.928	0.129	0.303
-141.487	-200.000	0.054	-0.266
-140.472	15.515	-0.094	0.073
-139.458	-109.766	-0.223	0.046
-138.443	-123.347	0.120	-0.019
-137.429	524.617	0.069	0.159
-136.414	-101.749	0.219	-0.052
-135.399	-29.447	-0.252	0.142
-134.385	-66.566	-0.199	-0.078
-133.370	21.449	-0.172	-0.138
-132.356	158.717	0.234	-0.320
-131.341	43.064	0.253	0.227
-130.326	131.173	-0.207	0.262
-129.312	-30.995	-0.078	-0.043
-128.297	1.577	0.270	0.192
-127.283	800.000	0.033	0.097
-126.268	7.040	0.373	0.274
-125.253	-200.000	0.020	0.317
-124.239	180.311	0.152	-0.219
-123.224	-130.644	0.341	0.045
-122.210	-25.226	-0.094	-0.055
-121.195	-74.467	0.085	0.030
-120.180	482.973	0.123	0.275
-119.166	-8.412	-0.156	0.103
-118.151	-200.000	-0.049	0.276
-117.137	-40.863	-0.298	0.152
-116.122	-46.310	0.102	-0.050
-115.107	140.868	-0.122	0.158
-114.093	-67.743	0.432	0.166
-113.078	-24.245	0.105	-0.062
-112.064	-200.000	0.016	0.251
-111.049	-110.168	-0.244	-0.050
-110.034	6.455	0.107	0.078
-109.020	-85.325	-0.411	0.126
-108.005	-200.000	-0.000	0.271
-106.991	-76.771	0.063	0.022
-105.976	-115.583	0.459	0.085
-104.962	-134.450	0.440	-0.053
-103.947	299.319	0.088	-0.159
-102.932	800.000	0.026	-0.104
-101.918	-101.532	-0.184	0.044
-100.903	-12.008	0.313	-0.202
-99.889	-32.652	-0.217	0.119
-98.874	-66.099	0.061	0.024
-97.859	-78.247	-0.268	0.091
-96.845	8.678	-0.039	-0.029
-95.830	3.402	-0.230	-0.165
-94.816	-73.346	-0.202	0.073
-93.801	150.876	-0.041	0.054
-92.786	59.436	-0.086	-0.083
-91.772	-200.000	0.053	-0.369
-90.757	31.528	0.056	-0.047
-89.743	800.000	0.059	-0.166
-88.728	-200.000	-0.002	0.310
-87.713	-96.543	-0.171	0.044
-86.699	-49.790	-0.107	0.050
-85.684	-116.835	0.129	-0.023
-84.670	47.000	0.203	0.185
-83.655	204.701	-0.167	-0.255
-82.640	635.894	0.068	-0.170
-81.626	57.869	0.142	0.137
-80.611	37.603	-0.103	0.090
-79.597	-89.211	0.164	0.048
-78.582	-134.936	-0.114	0.014
-77.567	-104.203	0.380	0.087
-76.553	-28.964	-0.264	0.149
-75.538	59.781	-0.230	0.223
-74.524	-200.000	0.039	-0.252
-73.509	2.803	-0.074	0.053
-72.494	-200.000	-0.008	0.097
-71.480	-200.000	-0.000	-0.217
-70.465	-42.162	-0.169	-0.085
-69.451	794.053	-0.027	-0.074
-68.436	445.726	-0.026	0.056
-67.422	-108.738	0.421	-0.089
-66.407	800.000	-0.003	0.012
-65.392	164.405	-0.225	-0.312
-64.378	344.930	0.047	-0.090
-63.363	398.899	0.144	0.297
-62.349	-71.217	-0.202	0.075
-61.334	89.978	-0.848	-0.931
-60.319	387.675	0.212	0.431
-59.305	800.000	-0.298	-1.033
-58.290	285.216	0.557	0.985
-57.276	784.398	0.613	1.650
-56.261	-200.000	103.931	576.908
-55.246	505.278	1475.565	3357.873
-54.232	178.083	2680.285	3841.710
-53.217	110.150	2193.292	2586.887
-52.203	39.838	1715.258	1512.474
-51.188	32.559	1525.008	1294.848
-50.173	30.226	1498.196	1256.257
-49.159	50.984	1553.090	1446.043
-48.144	51.101	1569.772	1462.321
-47.130	32.767	1526.561	1297.391
-46.115	29.867	1511.284	1264.572
-45.100	29.684	1507.910	1260.457
-44.086	29.560	1506.204	1258.132
-43.071	29.622	1503.652	1256.373
-42.057	29.482	1502.108	1254.079
-41.042	29.468	1500.968	1252.987
-40.027	29.526	1499.436	1252.050
-39.013	29.491	1497.625	1250.253
-37.998	29.438	1496.110	1248.581
-36.984	29.548	1495.213	1248.521
-35.969	29.481	1494.041	1247.042
-34.954	29.382	1492.332	1244.900
-33.940	29.563	1490.560	1244.589
-32.925	29.579	1489.435	1243.710
-31.911	29.669	1487.532	1242.675
-30.896	29.499	1487.317	1241.304
-29.881	29.514	1486.023	1240.279
-28.867	29.503	1484.538	1238.916
-27.852	29.680	1482.802	1238.602
-26.838	29.574	1481.559	1236.806
-25.823	29.633	1479.668	1235.575
-24.809	29.580	1478.632	1234.308
-23.794	29.612	1477.142	1233.224
-22.779	29.552	1475.989	1231.811
-21.765	29.518	1475.385	1231.037
-20.750	29.661	1473.534	1230.392
-19.736	29.525	1472.678	1228.722
-18.721	29.492	1471.873	1227.787
-17.706	29.558	1470.114	1226.705
-16.692	29.476	1469.447	1225.560
-15.677	29.483	1468.366	1224.655
-14.663	29.487	1467.355	1223.791
-13.648	29.495	1466.577	1223.141
-12.633	29.505	1465.439	1222.213
-11.619	29.443	1464.871	1221.278
-10.604	29.514	1463.846	1220.848
-9.590	29.462	1462.545	1219.369
-8.575	29.408	1462.338	1218.791
-7.560	29.424	1461.087	1217.805
-6.546	29.515	1459.820	1217.305
-5.531	29.503	1459.513	1216.918
-4.517	29.401	1458.329	1215.209
-3.502	29.453	1457.192	1214.558
-2.487	29.427	1456.148	1213.466
-1.473	29.446	1455.173	1212.730
-0.458	29.516	1453.622	1211.848
0.556	31.424	1444.644	1202.137
1.571	28.442	1418.276	1161.230
2.586	24.771	1356.565	1088.318
3.600	23.062	1274.194	1012.371
4.615	21.369	1229.006	967.024
5.629	18.445	1172.631	907.128
6.644	11.172	1089.485	806.836
7.659	5.519	1050.957	751.161
8.673	4.659	1045.501	743.089
9.688	4.369	1042.174	739.277
10.702	4.261	1040.626	737.600
11.717	4.392	1038.739	736.819
12.731	6.988	1041.392	750.975
13.746	14.589	1051.507	794.523
14.761	20.559	1059.175	828.796
15.775	22.022	1060.060	836.391
16.790	21.683	1058.602	833.555
17.804	20.611	1056.773	826.943
18.819	19.694	1055.174	821.265
19.834	19.307	1053.881	818.351
20.848	19.302	1052.906	817.495
21.863	19.269	1052.319	816.809
22.877	19.073	1051.616	815.266
23.892	18.941	1050.770	813.911
24.907	18.831	1049.688	812.482
25.921	18.763	1049.622	812.038
26.936	18.850	1048.507	811.514
27.950	18.803	1047.518	810.454
28.965	18.656	1046.761	809.103
29.980	18.694	1045.607	808.322
30.994	18.927	1044.485	808.477
32.009	19.049	1043.832	808.472
33.023	19.144	1042.882	808.110
34.038	19.083	1042.157	807.193
35.053	18.999	1041.466	806.191
36.067	18.928	1039.856	804.541
37.082	18.896	1039.131	803.762
38.096	18.808	1038.640	802.895
39.111	18.905	1038.104	802.867
40.126	19.061	1036.710	802.443
41.140	18.905	1035.739	800.894
42.155	18.629	1034.337	798.454
43.169	18.469	1033.406	796.921
44.184	18.337	1032.730	795.717
45.199	18.310	1031.353	794.460
46.213	18.378	1030.612	794.136
47.228	18.506	1029.486	793.790
48.242	18.770	1028.333	794.052
49.257	18.884	1027.840	794.128
50.271	18.856	1026.828	793.146
51.286	18.936	1025.999	792.804
52.301	18.819	1025.949	792.154
53.315	18.984	1024.957	792.078
54.330	18.871	1023.681	790.501
55.344	18.764	1022.469	789.008
56.359	18.532	1021.765	787.329
57.374	18.551	1021.499	787.139
58.388	18.570	1020.387	786.303
59.403	18.450	1019.643	785.106
60.417	18.342	1018.316	783.523
61.432	18.333	1018.380	783.461
62.447	18.399	1016.952	782.596
63.461	18.306	1016.248	781.558
64.476	18.273	1014.773	780.208
65.490	18.144	1014.297	779.181
66.505	18.234	1013.531	778.937
67.520	18.219	1012.897	778.310
68.534	18.371	1012.095	778.316
69.549	18.196	1011.558	777.040
70.563	18.326	1010.231	776.543
71.578	18.086	1010.191	775.355
72.593	18.173	1008.494	774.378
73.607	17.971	1007.702	772.788
74.622	17.831	1006.762	771.364
75.636	17.988	1006.011	771.428
76.651	17.968	1005.568	770.933
77.666	18.130	1004.480	770.757
78.680	18.170	1004.173	770.636
79.695	18.197	1003.488	770.166
80.709	18.108	1003.041	769.350
81.724	18.290	1001.970	769.282
82.739	18.472	1001.436	769.618
83.753	18.478	1000.934	769.192
84.768	18.645	1000.357	769.430
85.782	19.002	999.980	770.670
86.797	19.194	999.447	771.051
87.812	19.164	998.849	770.390
88.826	18.933	997.787	768.468
89.841	18.752	996.867	766.885
90.855	18.978	996.212	767.322
91.870	19.102	995.464	767.229
92.884	19.185	994.894	767.093
93.899	19.181	994.068	766.368
94.914	19.020	993.218	764.932
95.928	19.053	992.600	764.535
96.943	19.209	991.479	764.293
97.957	19.079	990.673	763.028
98.972	19.004	989.602	761.804
99.987	19.012	989.025	761.326
101.001	19.059	988.145	760.793
102.016	19.002	987.617	760.065
103.030	18.903	986.905	759.015
104.045	18.951	986.028	758.486
105.060	19.068	984.787	757.979
106.074	18.950	983.746	756.588
107.089	18.756	982.421	754.651
108.103	18.486	981.514	752.705
109.118	18.251	980.718	750.995
110.133	18.200	980.130	750.255
111.147	18.271	978.901	749.558
112.162	18.280	978.068	748.891
113.176	18.355	977.181	748.477
114.191	18.368	976.360	747.838
115.206	18.482	976.179	748.129
116.220	18.405	975.129	746.925
117.235	18.502	974.376	746.705
118.249	18.424	973.176	745.378
119.264	18.311	972.475	744.284
120.279	18.233	971.771	743.339
121.293	18.253	971.027	742.793
122.308	18.011	970.406	741.203
123.322	17.978	969.435	740.251
124.337	18.075	968.033	739.534
125.352	17.930	966.953	738.020
126.366	17.931	966.288	737.448
127.381	17.802	965.445	736.186
128.395	18.016	963.771	735.765
129.410	17.968	963.232	735.082
130.424	18.006	962.674	734.752
131.439	18.275	961.337	734.822
132.454	18.404	960.881	734.962
133.468	18.437	960.244	734.554
134.483	18.320	960.055	733.842
135.497	18.431	958.942	733.404
136.512	18.451	958.465	733.059
137.527	18.404	957.617	732.143
138.541	18.469	956.747	731.692
139.556	18.430	956.396	731.190
140.570	18.401	955.148	730.050
141.585	18.591	954.838	730.557
142.600	18.925	954.248	731.462
143.614	18.860	953.258	730.363
144.629	18.859	953.146	730.207
145.643	19.114	952.116	730.433
146.658	18.904	951.497	729.006
147.673	18.802	950.547	727.783
148.687	18.714	949.385	726.454
149.702	18.560	948.136	724.785
150.716	18.544	947.237	723.964
151.731	18.511	946.493	723.192
152.746	18.443	945.783	722.300
153.760	18.651	945.067	722.567
154.775	18.544	944.288	721.455
155.789	18.675	943.727	721.514
156.804	18.799	942.868	721.315
157.819	18.873	942.378	721.184
158.833	18.747	942.097	720.378
159.848	18.933	941.418	720.573
160.862	19.123	940.733	720.782
161.877	19.117	939.675	719.882
162.892	18.742	938.804	717.584
163.906	18.557	937.317	715.613
164.921	18.472	936.637	714.678
165.935	18.425	935.715	713.716
166.950	18.628	934.185	713.329
167.964	18.784	933.632	713.492
168.979	18.863	932.633	712.991
169.994	18.536	932.237	711.271
171.008	18.540	931.230	710.455
172.023	18.714	930.198	710.325
173.037	18.786	929.830	710.278
174.052	19.041	929.310	710.873
175.067	18.990	928.447	709.939
176.081	18.721	927.422	707.982
177.096	18.454	926.431	706.066
178.110	18.350	925.644	704.973
179.125	18.507	925.181	705.204
180.140	18.595	924.136	704.706
181.154	18.609	923.215	704.002
182.169	18.717	923.235	704.395
183.183	18.855	922.845	704.604
184.198	19.022	921.990	704.569
185.213	18.935	921.728	703.953
186.227	18.911	920.776	703.063
187.242	18.871	920.655	702.746
188.256	19.055	920.106	703.018
189.271	19.340	918.952	703.236
190.286	19.443	917.944	702.822
191.300	18.999	917.400	700.537
192.315	18.647	916.114	698.060
193.329	18.306	915.357	696.034
194.344	18.407	914.644	695.840
195.359	18.537	914.150	695.931
196.373	18.838	913.696	696.746
197.388	18.695	914.032	696.358
198.402	19.024	912.830	696.715
199.417	19.298	912.498	697.509
200.432	19.336	912.430	697.547
201.446	19.427	911.910	697.458
202.461	19.544	911.524	697.575
203.475	19.579	911.328	697.503
204.490	19.603	910.243	696.708
205.504	19.370	909.191	694.904
206.519	19.047	909.078	693.453
207.534	19.062	907.735	692.426
208.548	19.114	906.763	691.835
209.563	19.022	906.460	691.172
210.577	18.970	905.851	690.437
211.592	19.195	905.258	690.828
212.607	19.355	904.494	690.825
213.621	19.594	903.929	691.288
214.636	19.318	903.638	689.901
215.650	19.400	902.663	689.422
216.665	19.332	902.584	689.029
217.680	19.389	901.901	688.674
218.694	19.580	901.558	689.114
219.709	19.603	900.998	688.717
220.723	19.546	900.212	687.827
221.738	19.549	899.372	687.136
222.753	19.386	898.782	685.976
223.767	19.362	897.818	685.087
224.782	19.440	897.373	684.996
225.796	19.603	896.882	685.205
226.811	19.779	895.959	685.140
227.826	19.599	895.691	684.157
228.840	19.539	894.544	682.984
229.855	19.360	893.959	681.771
230.869	19.378	893.634	681.534
231.884	19.389	892.717	680.817
232.899	19.317	891.660	679.667
233.913	19.299	891.076	679.091
234.928	19.214	890.490	678.251
235.942	19.119	889.552	677.100
236.957	19.089	889.099	676.580
237.972	19.030	888.688	675.974
238.986	19.319	887.431	676.092
240.001	19.161	886.808	674.938
241.015	19.268	886.449	675.023
242.030	19.396	885.606	674.825
243.045	19.301	885.580	674.372
244.059	19.439	884.948	674.370
245.074	19.440	884.013	673.603
246.088	19.335	883.974	673.104
247.103	19.699	882.947	673.683
248.117	19.520	882.783	672.798
249.132	19.807	881.935	673.212
250.147	20.011	881.880	673.905
251.161	20.243	881.366	674.351
252.176	20.425	880.482	674.321
253.190	20.403	880.313	674.048
254.205	20.395	880.144	673.828
255.220	20.580	878.772	673.434
256.234	20.412	878.363	672.410
257.249	20.308	877.809	671.527
258.263	20.327	877.225	671.092
259.278	20.487	876.204	670.869
260.293	20.357	875.998	670.151
261.307	20.276	875.334	669.269
262.322	20.354	875.292	669.481
263.336	20.566	874.618	669.722
264.351	20.538	873.971	669.059
265.366	20.471	873.274	668.211
266.380	20.653	872.802	668.489
267.395	20.476	871.949	667.096
268.409	20.468	871.053	666.323
269.424	20.284	870.598	665.209
270.439	20.355	869.665	664.709
271.453	20.351	868.660	663.866
272.468	20.262	867.798	662.809
273.482	20.245	867.327	662.326
274.497	20.152	867.039	661.694
275.512	20.268	865.917	661.221
276.526	20.197	865.442	660.530
277.541	20.241	865.028	660.322
278.555	20.280	864.296	659.851
279.570	20.405	864.133	660.147
280.585	20.705	863.457	660.709
281.599	20.785	862.596	660.296
282.614	20.631	862.324	659.447
283.628	20.336	861.451	657.603
284.643	20.209	860.879	656.628
285.657	20.193	860.303	656.068
286.672	20.335	859.958	656.285
287.687	20.402	859.413	656.063
288.701	20.429	858.894	655.713
289.716	20.456	858.407	655.383
290.730	20.445	857.847	654.857
291.745	20.482	856.897	654.212
292.760	20.409	856.471	653.554
293.774	20.705	855.343	653.749
294.789	20.780	855.583	654.154
295.803	20.683	855.293	653.510
296.818	20.456	854.284	651.831
297.833	20.573	853.192	651.379
298.847	20.608	852.477	650.906
299.862	20.437	852.089	649.911
300.876	20.398	851.814	649.498
301.891	20.644	850.888	649.653
302.906	20.731	850.750	649.815
303.920	20.922	849.899	649.822
304.935	20.992	849.235	649.518
305.949	21.158	849.229	650.071
306.964	21.080	848.216	648.950
307.979	20.948	847.394	647.773
308.993	20.754	846.907	646.624
310.008	20.961	846.622	647.116
311.022	21.044	846.179	647.030
312.037	20.998	845.795	646.508
313.052	20.753	844.958	644.902
314.066	20.626	843.830	643.515
315.081	20.535	843.206	642.648
316.095	20.414	842.902	641.910
317.110	20.482	842.455	641.763
318.125	20.506	841.872	641.350
319.139	20.495	841.397	640.894
320.154	20.533	840.811	640.530
321.168	20.609	840.106	640.217
322.183	20.533	839.656	639.538
323.197	20.663	839.414	639.774
324.212	20.602	839.017	639.191
325.227	20.610	838.295	638.613
326.241	20.599	837.740	638.095
327.256	20.484	836.526	636.690
328.270	20.580	836.498	636.963
329.285	20.756	835.863	637.069
330.300	20.555	835.252	635.813
331.314	20.594	834.262	635.146
332.329	20.725	833.701	635.139
333.343	20.640	833.857	634.891
334.358	20.852	833.388	635.251
335.373	21.034	832.613	635.268
336.387	20.993	831.851	634.482
337.402	20.886	831.863	634.044
338.416	21.101	831.062	634.160
339.431	21.108	831.200	634.234
340.446	21.335	830.066	634.136
341.460	21.461	829.854	634.375
342.475	21.445	829.371	633.892
343.489	21.539	828.922	633.832
344.504	21.580	828.454	633.568
345.519	21.637	827.656	633.108
346.533	21.759	827.388	633.286
347.548	21.622	826.944	632.395
348.562	21.550	825.992	631.355
349.577	21.272	825.113	629.624
350.592	21.046	824.684	628.425
351.606	20.853	824.244	627.342
352.621	21.008	823.469	627.254
353.635	20.975	823.028	626.743
354.650	21.230	822.573	627.258
355.665	21.242	822.372	627.090
356.679	21.178	822.204	626.677
357.694	21.191	821.563	626.182
358.708	21.279	821.132	626.112
359.723	21.228	820.415	625.327
360.738	21.280	819.872	625.044
361.752	21.247	819.351	624.472
362.767	21.308	819.013	624.377
363.781	21.531	818.632	624.829
364.796	21.679	817.855	624.710
365.810	21.821	817.772	625.094
366.825	21.914	817.426	625.109
367.840	21.905	817.596	625.152
368.854	21.736	817.224	624.210
369.869	21.709	816.268	623.326
370.883	21.635	815.550	622.460
371.898	21.674	814.838	622.002
372.913	21.767	814.616	622.106
373.927	21.781	814.110	621.715
374.942	21.739	813.450	621.005
375.956	21.633	813.015	620.243
376.971	21.923	811.926	620.382
377.986	21.871	811.896	620.122
379.000	22.065	811.361	620.344
380.015	22.256	811.119	620.779
381.029	22.049	810.205	619.294
382.044	21.954	809.763	618.565
383.059	22.078	809.321	618.609
384.073	22.039	808.566	617.842
385.088	21.889	807.954	616.793
386.102	21.807	806.955	615.688
387.117	21.795	806.311	615.098
388.132	21.747	805.975	614.621
389.146	21.573	805.761	613.793
390.161	21.742	805.218	613.916
391.175	21.611	805.635	613.721
392.190	22.008	804.794	614.417
393.205	21.920	804.100	613.523
394.219	21.781	803.610	612.609
395.234	21.669	802.858	611.593
396.248	21.708	802.533	611.425
397.263	21.593	801.594	610.257
398.278	21.571	801.029	609.696
399.292	21.482	801.007	609.316
400.307	21.379	800.709	608.677
401.321	21.331	800.402	608.219
402.336	21.580	799.836	608.602
403.350	21.640	799.370	608.404
404.365	21.557	799.408	608.091
405.380	21.916	798.861	608.865
406.394	22.001	798.405	608.758
407.409	22.050	797.890	608.483
408.423	22.132	797.411	608.346
409.438	22.394	797.319	609.129
410.453	22.404	796.497	608.484
411.467	22.385	796.305	608.216
412.482	22.517	795.883	608.295
413.496	22.583	795.303	608.028
414.511	22.625	795.266	608.090
415.526	22.631	794.578	607.531
416.540	22.376	794.405	606.465
417.555	22.220	793.921	605.504
418.569	22.477	793.255	605.827
419.584	22.502	792.472	605.262
420.599	22.523	792.233	605.100
421.613	163.123	1368.656	1795.245
422.628	141.471	1452.625	1795.345
