DTS Sentinel unit serial number:	SN413079Multiplexer serial number:	ORYXHardware model number:	OX4-SRSoftware version number:	ORYX F/W v4.00 Oryx Data Collector v3.7.2.0data status	okinstallation	princeton_trtdifferential loss correction	single-endedforward channel	channel 3reverse channel	N/Adate	2019/09/14time	21:16:35forward acquisition time	60.00reverse acquisition time	0.00gamma	496.2192k internal	0.2317k external	0.2317temperature offset calibration	1.0000default loss term (dB/km)	0.3790temperature slope calibration	1.0000multiplexer offset coefficient	1.0000multiplexer slope coefficient	1.0000fibre end	0.00T internal ref (°C)	33.00T ext. ref 1 (°C)	4.77T ext. ref 2 (°C)	27.78length (m)	temperature (°C)	Stokes	anti-Stokes-747.200	214.721	0.118	-0.189
-746.185	-75.440	0.268	0.097
-745.171	-166.607	-0.265	0.011
-744.156	-58.072	-0.319	0.141
-743.142	-200.000	-0.055	-0.324
-742.127	-121.670	-0.130	0.022
-741.112	-200.000	-0.005	-0.109
-740.098	-62.651	0.209	0.088
-739.083	415.477	-0.093	-0.201
-738.069	800.000	-0.044	0.190
-737.054	-95.008	0.122	-0.033
-736.039	-195.554	-0.204	-0.002
-735.025	53.364	-0.046	0.045
-734.010	7.479	-0.262	-0.198
-732.996	800.000	-0.094	0.355
-731.981	-38.685	-0.199	-0.106
-730.966	53.936	-0.201	0.196
-729.952	30.039	0.201	0.173
-728.937	-18.951	-0.236	0.148
-727.923	191.204	-0.175	-0.266
-726.908	99.119	-0.166	-0.193
-725.894	-11.368	-0.243	-0.162
-724.879	50.160	-0.397	-0.379
-723.864	-200.000	0.027	-0.360
-722.850	134.452	-0.054	-0.071
-721.835	-200.000	-0.008	0.066
-720.821	65.718	-0.289	-0.296
-719.806	57.889	0.106	0.105
-718.791	78.020	-0.349	0.376
-717.777	-200.000	-0.093	-0.429
-716.762	31.170	0.215	-0.187
-715.748	45.142	0.081	0.076
-714.733	119.383	0.183	0.229
-713.718	233.923	-0.081	0.135
-712.704	-143.146	0.433	0.042
-711.689	-200.000	-0.001	-0.262
-710.675	689.524	0.025	0.067
-709.660	-71.900	-0.065	0.024
-708.645	-114.967	-0.187	0.036
-707.631	25.072	-0.283	-0.237
-706.616	-200.000	-0.096	0.535
-705.602	-200.000	-0.009	0.074
-704.587	-140.131	0.349	-0.037
-703.572	49.365	0.069	-0.066
-702.558	-114.026	-0.133	-0.026
-701.543	-95.885	-0.121	0.032
-700.529	-143.962	0.211	-0.020
-699.514	26.499	-0.331	0.280
-698.499	239.925	0.100	0.169
-697.485	7.340	-0.136	-0.102
-696.470	-200.000	0.003	-0.332
-695.456	-61.778	-0.113	0.048
-694.441	800.000	0.084	0.246
-693.426	-5.290	-0.226	-0.157
-692.412	433.050	0.063	0.139
-691.397	186.094	-0.072	-0.108
-690.383	162.808	-0.122	0.173
-689.368	537.828	0.015	-0.036
-688.354	-200.000	0.028	-0.286
-687.339	-77.446	0.239	-0.084
-686.324	-4.430	-0.109	-0.076
-685.310	-200.000	0.016	0.330
-684.295	41.668	-0.241	-0.220
-683.281	800.000	-0.078	-0.223
-682.266	-183.919	-0.382	-0.007
-681.251	-92.587	-0.342	0.097
-680.237	70.449	0.406	-0.424
-679.222	226.285	-0.180	-0.295
-678.208	-24.725	0.028	-0.017
-677.193	89.650	-0.071	0.080
-676.178	800.000	0.119	-0.341
-675.164	16.721	-0.110	-0.088
-674.149	16.312	0.200	0.159
-673.135	-13.878	0.194	-0.127
-672.120	-15.337	0.322	-0.208
-671.105	136.960	-0.123	-0.162
-670.091	-200.000	-0.021	0.232
-669.076	90.726	0.182	0.206
-668.062	-200.000	0.040	-0.248
-667.047	626.056	0.032	0.082
-666.032	-60.282	0.323	-0.139
-665.018	-200.000	-0.004	0.246
-664.003	-200.000	-0.036	-0.314
-662.989	58.210	-0.215	-0.213
-661.974	-200.000	-0.020	-0.438
-660.959	-200.000	-0.044	-0.408
-659.945	800.000	0.100	-0.394
-658.930	-39.848	0.155	-0.082
-657.916	-43.169	0.067	-0.034
-656.901	-54.369	-0.142	0.065
-655.886	-200.000	-0.024	-0.109
-654.872	43.491	0.214	-0.197
-653.857	-119.209	-0.317	0.056
-652.843	-136.989	-0.223	-0.026
-651.828	39.994	0.050	-0.046
-650.814	-119.774	-0.075	0.013
-649.799	-51.375	-0.013	-0.006
-648.784	13.154	0.185	-0.145
-647.770	-29.032	0.247	-0.143
-646.755	-66.364	0.288	0.116
-645.741	-47.400	0.260	-0.127
-644.726	-104.634	-0.239	0.056
-643.711	-54.464	-0.109	0.050
-642.697	-200.000	0.022	0.185
-641.682	-83.637	-0.111	-0.036
-640.668	316.250	0.096	-0.182
-639.653	97.140	-0.049	-0.056
-638.638	-200.000	0.015	0.222
-637.624	800.000	-0.058	-0.207
-636.609	381.464	0.049	-0.101
-635.595	397.219	-0.093	0.197
-634.580	116.548	0.121	-0.149
-633.565	-36.544	0.331	-0.180
-632.551	430.329	-0.124	0.271
-631.536	-66.369	0.194	0.078
-630.522	-150.427	-0.138	-0.011
-629.507	800.000	-0.062	-0.264
-628.492	-6.154	-0.131	0.090
-627.478	-105.522	0.025	-0.006
-626.463	-77.651	0.164	0.057
-625.449	-155.230	-0.047	-0.003
-624.434	-200.000	0.045	0.273
-623.419	23.495	-0.240	-0.199
-622.405	-72.770	-0.091	-0.034
-621.390	-32.638	0.112	0.063
-620.376	-48.687	0.164	0.079
-619.361	800.000	0.022	-0.079
-618.346	-8.384	0.267	-0.181
-617.332	-58.629	-0.226	0.098
-616.317	-200.000	0.057	-0.384
-615.303	-125.791	0.177	-0.027
-614.288	127.131	0.078	0.100
-613.273	800.000	-0.081	-0.318
-612.259	-127.251	0.322	0.047
-611.244	-136.046	-0.066	0.008
-610.230	92.109	-0.134	-0.152
-609.215	188.630	-0.213	-0.322
-608.201	-24.839	-0.143	-0.085
-607.186	-48.079	0.084	0.041
-606.171	-136.595	0.168	0.020
-605.157	-18.354	-0.195	-0.123
-604.142	-171.099	0.353	-0.012
-603.128	-76.524	0.136	-0.048
-602.113	534.275	-0.071	-0.170
-601.098	-26.251	-0.257	-0.152
-600.084	390.218	-0.073	0.152
-599.069	-116.310	0.565	-0.105
-598.055	-33.120	0.237	0.132
-597.040	57.072	-0.187	0.183
-596.025	151.830	-0.114	0.157
-595.011	-16.085	-0.171	0.109
-593.996	499.012	0.034	-0.080
-592.982	86.591	0.205	-0.228
-591.967	-99.826	-0.431	-0.108
-590.952	701.969	-0.100	0.266
-589.938	25.984	-0.059	-0.049
-588.923	-82.551	-0.100	-0.033
-587.909	26.795	-0.117	0.099
-586.894	-8.317	0.179	-0.121
-585.879	50.679	-0.116	0.110
-584.865	-67.274	0.100	0.040
-583.850	-0.972	0.093	-0.066
-582.836	-69.760	-0.359	0.138
-581.821	-65.421	0.202	-0.082
-580.806	800.000	0.046	-0.139
-579.792	694.842	0.144	0.379
-578.777	-200.000	-0.031	-0.239
-577.763	-200.000	-0.049	-0.323
-576.748	-65.244	-0.249	-0.101
-575.733	-200.000	-0.001	0.272
-574.719	-4.739	-0.167	0.116
-573.704	-86.335	-0.206	0.064
-572.690	-200.000	-0.007	-0.072
-571.675	99.888	0.287	-0.334
-570.661	-15.429	-0.168	0.108
-569.646	70.883	-0.028	0.029
-568.631	477.391	-0.053	0.120
-567.617	-150.032	0.071	-0.006
-566.602	-3.596	0.070	0.049
-565.588	338.591	-0.140	0.274
-564.573	-181.786	0.175	-0.003
-563.558	-200.000	0.003	0.123
-562.544	800.000	0.022	0.085
-561.529	-54.543	0.224	-0.102
-560.515	364.900	0.099	-0.200
-559.500	800.000	0.056	-0.246
-558.485	-100.453	-0.346	0.086
-557.471	-124.140	-0.308	-0.049
-556.456	-79.832	0.227	-0.077
-555.442	-121.103	-0.142	-0.024
-554.427	199.779	-0.124	0.191
-553.412	243.749	-0.028	-0.047
-552.398	16.149	0.058	-0.046
-551.383	-107.454	0.471	-0.104
-550.369	-81.362	0.225	0.075
-549.354	25.979	-0.209	-0.175
-548.339	87.510	-0.261	-0.291
-547.325	-22.962	-0.135	-0.082
-546.310	20.499	-0.159	-0.129
-545.296	-24.071	0.065	-0.039
-544.281	-200.000	0.041	-0.312
-543.266	800.000	0.058	0.202
-542.252	638.606	0.053	0.136
-541.237	-100.337	0.374	-0.093
-540.223	-20.540	-0.051	0.032
-539.208	-87.069	0.040	-0.012
-538.193	-200.000	-0.039	0.203
-537.179	-11.439	0.272	-0.180
-536.164	196.042	-0.108	0.166
-535.150	35.568	-0.117	-0.103
-534.135	139.321	0.189	0.250
-533.121	586.866	0.050	0.123
-532.106	446.914	-0.038	-0.083
-531.091	111.270	-0.076	0.091
-530.077	-36.359	0.255	0.138
-529.062	130.614	0.083	0.107
-528.048	-83.067	0.187	0.060
-527.033	83.348	-0.157	0.172
-526.018	-25.314	0.317	-0.188
-525.004	-184.797	-0.360	0.006
-523.989	50.282	0.188	0.178
-522.975	-152.027	-0.154	0.011
-521.960	175.021	0.147	0.213
-520.945	447.959	-0.120	0.266
-519.931	800.000	-0.075	0.255
-518.916	-152.040	0.280	0.020
-517.902	-8.181	-0.127	-0.086
-516.887	110.341	0.181	-0.218
-515.872	3.627	0.240	-0.176
-514.858	203.203	-0.111	-0.172
-513.843	-200.000	0.003	-0.127
-512.829	-150.636	-0.115	-0.009
-511.814	781.793	-0.020	-0.056
-510.799	800.000	-0.102	0.347
-509.785	59.217	0.173	0.171
-508.770	-69.358	-0.180	0.069
-507.756	800.000	0.102	0.311
-506.741	116.959	-0.083	0.102
-505.726	-77.209	0.124	-0.043
-504.712	-92.363	0.285	0.081
-503.697	-200.000	0.025	0.211
-502.683	47.946	-0.113	0.106
-501.668	-86.317	0.282	0.087
-500.653	-200.000	-0.025	0.122
-499.639	-90.063	0.374	-0.109
-498.624	-200.000	-0.012	-0.289
-497.610	285.248	-0.218	-0.394
-496.595	258.648	0.074	-0.127
-495.581	379.264	-0.059	0.122
-494.566	-200.000	0.009	-0.162
-493.551	25.039	0.104	0.086
-492.537	-200.000	0.015	-0.330
-491.522	-169.545	-0.375	0.014
-490.508	38.216	-0.239	0.213
-489.493	256.195	-0.164	0.283
-488.478	81.688	-0.097	-0.105
-487.464	-43.704	0.465	-0.235
-486.449	-70.314	-0.435	0.165
-485.435	-164.643	-0.255	-0.012
-484.420	259.994	-0.125	-0.216
-483.405	-165.444	0.216	-0.009
-482.391	-98.516	0.146	0.037
-481.376	-200.000	0.016	0.117
-480.362	-102.471	0.251	0.060
-479.347	-200.000	0.004	0.120
-478.332	578.870	-0.065	0.160
-477.318	191.915	0.135	0.204
-476.303	-24.585	-0.095	-0.057
-475.289	63.167	0.105	0.105
-474.274	-127.810	-0.146	0.021
-473.259	-92.370	0.142	0.040
-472.245	-135.253	-0.040	-0.005
-471.230	82.267	0.109	0.119
-470.216	800.000	-0.035	-0.138
-469.201	800.000	0.073	0.294
-468.186	5.672	0.164	0.121
-467.172	-4.646	0.184	0.127
-466.157	564.409	-0.098	-0.239
-465.143	-116.449	0.364	-0.067
-464.128	24.145	0.098	-0.081
-463.113	280.628	-0.141	-0.252
-462.099	192.291	0.036	-0.055
-461.084	800.000	-0.044	-0.171
-460.070	-169.558	-0.115	-0.004
-459.055	-168.272	-0.227	0.009
-458.040	800.000	0.028	-0.118
-457.026	-10.022	-0.132	0.088
-456.011	-58.260	0.330	0.144
-454.997	800.000	-0.096	0.270
-453.982	-9.316	0.250	0.167
-452.968	92.052	0.251	0.283
-451.953	-136.845	-0.251	0.029
-450.938	-32.157	-0.121	-0.068
-449.924	-200.000	-0.029	0.279
-448.909	-200.000	-0.001	0.017
-447.895	-129.841	-0.284	0.039
-446.880	-116.158	0.247	0.046
-445.865	-200.000	-0.001	-0.010
-444.851	3.189	-0.158	-0.115
-443.836	4.137	-0.207	0.152
-442.822	536.060	-0.132	0.313
-441.807	104.754	-0.344	0.405
-440.792	-178.574	0.375	0.009
-439.778	417.316	-0.055	0.118
-438.763	-9.462	0.170	-0.114
-437.749	143.764	0.185	-0.247
-436.734	49.121	0.167	-0.157
-435.719	135.908	0.047	-0.061
-434.705	283.645	0.108	0.194
-433.690	-200.000	-0.040	0.254
-432.676	-53.187	-0.133	-0.061
-431.661	216.229	0.128	-0.204
-430.646	140.696	-0.078	0.103
-429.632	24.431	-0.092	0.076
-428.617	-141.881	-0.274	0.027
-427.603	-152.143	0.258	-0.019
-426.588	189.528	0.083	-0.124
-425.573	235.523	-0.086	-0.143
-424.559	-81.030	-0.194	-0.064
-423.544	-200.000	-0.003	-0.082
-422.530	-77.452	-0.391	-0.136
-421.515	693.566	0.059	0.156
-420.500	-87.922	-0.159	0.048
-419.486	-135.448	-0.027	0.003
-418.471	-42.896	-0.166	0.084
-417.457	28.250	0.139	-0.117
-416.442	800.000	-0.043	-0.153
-415.428	-20.160	0.150	-0.092
-414.413	800.000	-0.022	-0.097
-413.398	800.000	-0.035	0.103
-412.384	800.000	0.006	-0.019
-411.369	7.870	0.234	-0.175
-410.355	70.042	0.312	0.322
-409.340	-94.154	-0.135	0.037
-408.325	-128.005	-0.476	-0.068
-407.311	-200.000	0.003	0.269
-406.296	-87.224	0.319	-0.097
-405.282	-52.817	0.230	0.106
-404.267	-99.988	-0.378	-0.094
-403.252	800.000	0.050	-0.190
-402.238	503.924	-0.136	0.315
-401.223	703.385	0.121	0.319
-400.209	178.581	-0.178	0.259
-399.194	114.636	0.121	0.148
-398.179	-200.000	0.053	0.376
-397.165	-200.000	-0.009	0.115
-396.150	44.331	0.220	0.202
-395.136	65.239	-0.049	-0.050
-394.121	-95.321	0.208	-0.056
-393.106	-45.465	0.050	0.025
-392.092	268.513	-0.130	0.227
-391.077	76.181	-0.132	0.140
-390.063	-200.000	0.018	-0.504
-389.048	800.000	-0.095	-0.344
-388.033	-200.000	0.014	0.133
-387.019	706.366	-0.063	0.166
-386.004	-200.000	0.010	-0.132
-384.990	-116.188	0.324	0.060
-383.975	166.838	-0.026	0.036
-382.960	603.981	0.063	0.158
-381.946	-74.565	0.112	0.040
-380.931	19.892	-0.037	0.029
-379.917	800.000	-0.073	-0.267
-378.902	41.410	0.127	0.115
-377.888	-122.835	0.301	-0.049
-376.873	452.149	-0.144	0.318
-375.858	29.054	0.165	0.139
-374.844	197.301	-0.093	-0.142
-373.829	-133.119	0.043	0.005
-372.815	-113.875	0.231	-0.045
-371.800	3.402	-0.058	-0.042
-370.785	-65.117	-0.229	-0.092
-369.771	800.000	0.040	0.124
-368.756	-133.039	0.189	0.024
-367.742	-10.402	-0.116	-0.077
-366.727	-24.993	0.073	-0.043
-365.712	-119.972	0.429	0.074
-364.698	-7.310	-0.207	-0.140
-363.683	113.721	0.114	-0.138
-362.669	-99.919	0.388	0.097
-361.654	111.006	-0.270	0.325
-360.639	310.920	0.044	-0.082
-359.625	-110.297	-0.277	-0.057
-358.610	48.120	-0.108	0.101
-357.596	339.336	-0.108	-0.210
-356.581	443.238	-0.099	-0.216
-355.566	466.832	-0.058	0.129
-354.552	800.000	-0.055	0.193
-353.537	-126.362	0.212	-0.031
-352.523	37.029	0.308	0.272
-351.508	525.974	-0.055	-0.130
-350.493	236.204	0.220	-0.363
-349.479	104.845	-0.153	-0.180
-348.464	-0.247	-0.261	0.185
-347.450	135.663	0.089	-0.116
-346.435	446.557	0.096	0.210
-345.420	-68.508	-0.018	-0.007
-344.406	-168.798	-0.210	-0.008
-343.391	8.530	0.226	-0.169
-342.377	-71.131	-0.115	0.043
-341.362	-200.000	-0.002	0.031
-340.348	800.000	-0.085	-0.315
-339.333	-200.000	0.018	-0.295
-338.318	377.142	-0.072	-0.147
-337.304	-44.801	0.244	-0.121
-336.289	-11.954	0.229	-0.149
-335.275	800.000	-0.081	-0.257
-334.260	-200.000	-0.008	0.193
-333.245	-200.000	0.061	0.417
-332.231	241.393	-0.081	0.135
-331.216	-139.908	-0.104	-0.011
-330.202	-200.000	0.011	-0.175
-329.187	-83.173	-0.148	0.047
-328.172	32.393	-0.239	-0.205
-327.158	342.280	-0.047	-0.091
-326.143	-107.161	-0.288	-0.063
-325.129	-59.247	-0.185	-0.079
-324.114	-61.794	0.341	0.142
-323.099	159.575	0.169	0.234
-322.085	-58.826	-0.196	0.084
-321.070	355.412	0.102	0.202
-320.056	-71.048	-0.320	-0.120
-319.041	26.105	0.048	0.040
-318.026	-159.448	0.270	0.015
-317.012	-200.000	-0.026	-0.278
-315.997	-129.173	0.070	-0.010
-314.983	-200.000	0.011	-0.125
-313.968	-200.000	0.074	-0.413
-312.953	-116.408	-0.034	0.006
-311.939	800.000	-0.035	-0.140
-310.924	800.000	-0.085	-0.301
-309.910	-25.927	0.140	0.082
-308.895	200.276	-0.064	0.098
-307.880	-76.617	0.351	0.123
-306.866	113.142	-0.095	-0.115
-305.851	800.000	-0.086	-0.267
-304.837	-66.192	-0.127	-0.050
-303.822	-8.474	0.172	0.115
-302.807	-200.000	0.034	-0.256
-301.793	18.611	-0.357	0.284
-300.778	-58.226	-0.421	0.182
-299.764	-94.821	-0.240	-0.065
-298.749	538.591	0.141	0.334
-297.735	800.000	0.048	0.172
-296.720	-23.890	-0.247	0.147
-295.705	-200.000	-0.013	0.109
-294.691	373.090	-0.035	0.071
-293.676	286.871	-0.044	-0.080
-292.662	-20.252	0.072	0.044
-291.647	-200.000	0.009	-0.534
-290.632	233.785	0.119	0.194
-289.618	-200.000	0.021	0.363
-288.603	-200.000	-0.063	0.486
-287.589	440.066	0.056	-0.121
-286.574	157.924	-0.223	0.307
-285.559	-40.892	-0.070	0.036
-284.545	-200.000	0.004	0.262
-283.530	-119.920	-0.210	0.036
-282.516	330.131	0.126	-0.242
-281.501	-200.000	0.028	-0.235
-280.486	-120.843	0.171	-0.029
-279.472	-200.000	0.041	-0.328
-278.457	205.719	-0.151	-0.233
-277.443	272.971	-0.157	-0.275
-276.428	52.604	0.108	-0.103
-275.413	-200.000	0.020	-0.113
-274.399	-124.292	0.345	-0.054
-273.384	-148.971	-0.244	0.020
-272.370	-38.314	-0.183	-0.097
-271.355	66.312	-0.238	-0.240
-270.340	63.048	-0.084	-0.083
-269.326	800.000	-0.025	0.101
-268.311	800.000	-0.096	-0.347
-267.297	-200.000	0.004	0.098
-266.282	416.862	-0.067	0.141
-265.267	-77.863	-0.279	-0.096
-264.253	-152.603	0.059	0.004
-263.238	-200.000	-0.152	0.000
-262.224	-200.000	-0.024	-0.366
-261.209	-155.356	0.203	-0.013
-260.195	-15.625	-0.264	-0.167
-259.180	28.557	-0.093	-0.078
-258.165	-133.877	-0.654	0.081
-257.151	-140.886	0.060	-0.006
-256.136	-72.696	-0.326	-0.119
-255.122	280.963	-0.031	0.055
-254.107	-200.000	0.036	0.192
-253.092	800.000	-0.034	0.136
-252.078	800.000	-0.137	0.441
-251.063	-107.582	-0.105	0.023
-250.049	328.108	-0.058	0.111
-249.034	-138.349	0.340	0.037
-248.019	-53.250	-0.137	-0.062
-247.005	-116.318	0.233	0.043
-245.990	67.377	0.121	0.122
-244.976	-159.893	-0.182	0.010
-243.961	150.573	0.099	0.133
-242.946	-143.986	0.022	0.002
-241.932	454.177	0.221	0.485
-240.917	-200.000	-0.045	-0.210
-239.903	109.692	0.024	-0.029
-238.888	228.653	-0.104	0.168
-237.873	-200.000	0.029	0.236
-236.859	-200.000	0.311	0.000
-235.844	-13.096	0.200	-0.129
-234.830	-130.150	0.249	-0.034
-233.815	-100.499	-0.119	-0.029
-232.800	17.887	0.312	-0.247
-231.786	261.975	-0.144	-0.248
-230.771	-74.409	0.171	-0.061
-229.757	54.486	0.218	0.208
-228.742	800.000	-0.062	0.211
-227.727	-146.548	-0.234	0.020
-226.713	-93.609	0.147	-0.040
-225.698	578.485	-0.024	-0.059
-224.684	-6.799	-0.258	0.174
-223.669	209.601	0.139	-0.216
-222.655	800.000	0.075	0.214
-221.640	548.609	0.076	0.181
-220.625	-127.966	0.098	-0.014
-219.611	-35.166	-0.253	-0.137
-218.596	-91.232	0.140	-0.040
-217.582	-200.000	-0.005	0.321
-216.567	18.484	0.133	0.106
-215.552	103.482	0.426	-0.496
-214.538	-51.382	-0.185	0.086
-213.523	-31.297	-0.239	-0.134
-212.509	0.758	0.055	0.039
-211.494	-126.262	-0.207	-0.031
-210.479	-200.000	-0.010	0.262
-209.465	-88.640	0.239	0.071
-208.450	-54.771	-0.147	0.066
-207.436	800.000	0.044	-0.170
-206.421	622.365	-0.042	-0.105
-205.406	-124.743	-0.238	0.037
-204.392	160.106	0.236	0.326
-203.377	-200.000	-0.066	0.306
-202.363	-84.729	-0.202	0.063
-201.348	424.487	-0.088	0.187
-200.333	219.249	-0.126	-0.200
-199.319	-29.228	-0.103	0.058
-198.304	161.730	-0.095	-0.132
-197.290	-162.167	0.195	0.010
-196.275	-125.279	-0.218	-0.033
-195.260	-72.129	0.186	-0.069
-194.246	199.661	-0.083	-0.127
-193.231	16.276	0.110	0.086
-192.217	-157.624	0.196	-0.012
-191.202	-46.431	0.186	-0.091
-190.187	-48.029	-0.447	-0.214
-189.173	-33.901	-0.204	-0.111
-188.158	509.249	0.232	0.534
-187.144	-56.565	0.071	-0.031
-186.129	39.706	0.225	-0.200
-185.114	-120.711	-0.375	-0.063
-184.100	-102.133	-0.537	0.128
-183.085	195.165	0.071	-0.107
-182.071	-129.284	0.174	-0.024
-181.056	-24.120	0.116	-0.069
-180.042	-2.906	0.277	-0.192
-179.027	800.000	-0.015	-0.062
-178.012	68.410	-0.138	0.140
-176.998	-200.000	-0.005	-0.236
-175.983	-200.000	0.069	-0.343
-174.969	168.565	0.178	-0.251
-173.954	-154.254	-0.138	-0.009
-172.939	183.560	0.092	0.135
-171.925	-162.080	0.144	-0.007
-170.910	-200.000	0.023	-0.116
-169.896	191.742	0.049	0.073
-168.881	641.705	-0.094	-0.238
-167.866	-140.692	-0.099	-0.010
-166.852	-33.660	0.158	-0.086
-165.837	735.785	-0.152	-0.402
-164.823	-52.347	0.258	0.118
-163.808	-198.107	-0.183	-0.001
-162.793	7.450	0.230	-0.170
-161.779	-200.000	0.028	-0.250
-160.764	-140.667	-0.096	0.010
-159.750	-171.210	0.197	-0.007
-158.735	800.000	-0.018	0.057
-157.720	-200.000	0.018	0.243
-156.706	-41.394	-0.282	0.143
-155.691	156.674	0.109	-0.150
-154.677	-17.916	-0.231	-0.144
-153.662	-121.352	-0.525	0.087
-152.647	-139.291	0.019	-0.002
-151.633	-34.081	0.087	0.047
-150.618	800.000	0.052	-0.215
-149.604	80.343	-0.041	0.044
-148.589	-200.000	0.035	-0.238
-147.574	250.167	0.150	-0.252
-146.560	-154.776	0.194	-0.013
-145.545	175.281	-0.020	0.029
-144.531	-200.000	-0.044	0.206
-143.516	138.091	-0.113	0.147
-142.502	12.773	0.164	-0.125
-141.487	297.214	0.058	-0.105
-140.472	8.630	-0.155	0.116
-139.458	800.000	-0.061	0.205
-138.443	-48.581	-0.091	0.043
-137.429	-49.645	0.121	0.057
-136.414	-96.054	-0.339	-0.089
-135.399	-44.116	0.446	0.221
-134.385	-107.005	0.265	0.058
-133.370	153.655	-0.063	-0.086
-132.356	-142.825	0.257	0.025
-131.341	-114.129	-0.168	-0.032
-130.326	249.256	0.029	0.049
-129.312	32.891	-0.222	0.190
-128.297	-200.000	0.002	-0.130
-127.283	470.047	0.108	-0.240
-126.268	141.753	0.020	-0.027
-125.253	-50.189	-0.118	0.055
-124.239	-200.000	0.006	0.117
-123.224	86.364	0.258	0.281
-122.210	-134.057	0.105	0.013
-121.195	-160.974	-0.146	-0.008
-120.180	-42.148	0.255	0.129
-119.166	-9.831	0.091	0.060
-118.151	254.144	0.088	-0.148
-117.137	-15.302	0.124	-0.078
-116.122	766.628	-0.028	0.076
-115.107	-91.900	0.014	-0.004
-114.093	-200.000	-0.012	0.118
-113.078	800.000	0.046	0.186
-112.064	-4.323	-0.243	0.166
-111.049	800.000	-0.078	-0.238
-110.034	-200.000	-0.026	0.324
-109.020	138.790	0.092	0.119
-108.005	118.686	0.166	0.202
-106.991	651.549	-0.049	0.125
-105.976	798.656	0.072	0.196
-104.962	419.983	0.047	-0.099
-103.947	130.365	-0.104	-0.132
-102.932	34.834	0.103	-0.089
-101.918	301.954	0.033	0.060
-100.903	-159.200	-0.212	-0.012
-99.889	192.443	-0.073	-0.109
-98.874	141.723	0.029	-0.037
-97.859	46.747	0.077	0.071
-96.845	-200.000	-0.004	-0.272
-95.830	-4.650	-0.084	0.057
-94.816	-19.294	-0.173	-0.106
-93.801	690.943	0.054	0.140
-92.786	144.490	-0.059	-0.078
-91.772	95.957	0.195	-0.220
-90.757	-43.643	-0.268	-0.133
-89.743	-200.000	-0.024	0.000
-88.728	42.293	0.103	-0.093
-87.713	-200.000	0.017	-0.142
-86.699	-159.000	0.430	-0.024
-85.684	-84.504	0.056	0.018
-84.670	-106.070	0.133	-0.030
-83.655	-126.942	0.185	-0.027
-82.640	45.347	-0.258	0.235
-81.626	527.289	-0.104	0.241
-80.611	724.893	-0.021	0.056
-79.597	-53.982	0.156	0.070
-78.582	-165.329	-0.106	0.005
-77.567	-200.000	-0.003	-0.111
-76.553	-200.000	-0.009	-0.077
-75.538	-190.873	-0.132	0.001
-74.524	-96.881	-0.138	-0.036
-73.509	-40.609	0.161	0.082
-72.494	25.590	0.130	0.107
-71.480	788.162	0.100	0.270
-70.465	611.872	0.140	0.345
-69.451	490.439	-0.045	-0.101
-68.436	91.302	-0.107	-0.119
-67.422	163.214	0.284	-0.393
-66.407	2.717	-0.219	0.157
-65.392	-51.219	-0.159	0.074
-64.378	-115.019	0.225	0.042
-63.363	63.584	0.147	0.145
-62.349	-200.000	0.017	0.174
-61.334	95.103	-0.921	-1.033
-60.319	144.118	0.481	0.632
-59.305	-200.000	-0.086	-0.940
-58.290	231.216	0.737	1.190
-57.276	800.000	0.525	1.653
-56.261	-200.000	94.896	564.256
-55.246	638.299	1376.099	3447.405
-54.232	197.645	2551.321	3839.599
-53.217	117.926	2165.583	2628.864
-52.203	43.309	1710.095	1539.092
-51.188	36.143	1522.505	1321.316
-50.173	33.779	1495.066	1281.518
-49.159	52.684	1543.377	1452.977
-48.144	54.519	1561.868	1482.920
-47.130	36.356	1520.939	1321.205
-46.115	33.236	1506.579	1287.491
-45.100	33.097	1503.205	1283.610
-44.086	33.111	1501.709	1282.380
-43.071	32.944	1500.025	1279.759
-42.057	32.946	1498.426	1278.353
-41.042	32.967	1496.760	1277.024
-40.027	33.064	1495.038	1276.160
-39.013	33.037	1493.788	1274.862
-37.998	33.032	1492.199	1273.423
-36.984	32.976	1491.174	1272.122
-35.969	33.104	1489.967	1271.898
-34.954	33.052	1488.720	1270.434
-33.940	33.121	1487.219	1269.564
-32.925	33.078	1485.805	1268.018
-31.911	33.052	1484.442	1266.634
-30.896	33.081	1483.094	1265.629
-29.881	33.083	1481.850	1264.526
-28.867	33.083	1480.339	1263.186
-27.852	32.964	1479.180	1261.357
-26.838	33.027	1477.454	1260.255
-25.823	33.045	1476.148	1259.212
-24.809	33.011	1474.517	1257.542
-23.794	33.028	1472.712	1256.068
-22.779	32.973	1472.016	1255.059
-21.765	33.037	1470.841	1254.431
-20.750	33.029	1469.736	1253.382
-19.736	33.030	1468.255	1252.075
-18.721	32.955	1467.474	1250.866
-17.706	33.039	1466.212	1250.294
-16.692	32.985	1465.262	1249.077
-15.677	33.024	1464.078	1248.277
-14.663	32.954	1463.052	1246.891
-13.648	32.897	1462.471	1245.968
-12.633	32.903	1461.427	1245.068
-11.619	32.979	1460.778	1244.969
-10.604	32.954	1459.498	1243.666
-9.590	32.974	1459.066	1243.377
-8.575	32.964	1458.212	1242.535
-7.560	32.906	1457.205	1241.247
-6.546	32.967	1456.259	1240.791
-5.531	32.899	1455.614	1239.751
-4.517	32.917	1454.874	1239.188
-3.502	32.892	1453.694	1237.972
-2.487	32.960	1452.261	1237.143
-1.473	32.905	1451.419	1236.021
-0.458	32.866	1450.165	1234.647
0.556	32.143	1440.752	1223.788
1.571	29.167	1415.603	1183.241
2.586	25.639	1354.758	1110.549
3.600	23.764	1273.419	1032.887
4.615	22.490	1227.307	988.253
5.629	19.383	1171.603	926.648
6.644	11.619	1088.731	822.113
7.659	5.729	1048.270	762.893
8.673	4.861	1042.742	754.597
9.688	4.825	1039.747	752.189
10.702	4.721	1038.536	750.747
11.717	4.683	1036.919	749.329
12.731	6.804	1038.641	760.728
13.746	14.047	1048.619	803.077
14.761	19.257	1054.394	832.676
15.775	18.971	1053.338	830.384
16.790	17.849	1051.338	823.326
17.804	16.817	1049.019	816.465
18.819	15.991	1047.185	810.991
19.834	15.584	1045.697	807.811
20.848	15.270	1044.993	805.686
21.863	14.887	1044.493	803.391
22.877	14.850	1043.484	802.367
23.892	14.580	1042.719	800.409
24.907	14.571	1041.743	799.546
25.921	14.691	1040.618	799.189
26.936	14.537	1040.493	798.283
27.950	14.617	1039.313	797.689
28.965	14.679	1038.182	797.049
29.980	14.789	1036.740	796.395
30.994	14.812	1036.054	795.909
32.009	14.883	1034.825	795.231
33.023	14.952	1034.240	795.036
34.038	14.858	1033.418	793.892
35.053	14.870	1032.588	793.237
36.067	14.728	1031.633	791.764
37.082	14.743	1030.915	791.209
38.096	14.806	1029.920	790.677
39.111	14.879	1029.584	790.694
40.126	14.910	1028.411	789.871
41.140	14.766	1027.120	788.130
42.155	14.656	1025.700	786.451
43.169	14.484	1025.341	785.297
44.184	14.556	1023.924	784.480
45.199	14.574	1023.088	783.853
46.213	14.482	1021.981	782.506
47.228	14.494	1021.192	781.889
48.242	14.731	1019.826	781.882
49.257	14.681	1019.527	781.352
50.271	14.713	1018.455	780.611
51.286	14.758	1017.426	779.963
52.301	14.722	1016.810	779.253
53.315	14.623	1016.227	778.276
54.330	14.675	1015.076	777.566
55.344	14.551	1014.576	776.536
56.359	14.559	1013.624	775.777
57.374	14.614	1012.447	775.066
58.388	14.617	1011.554	774.325
59.403	14.513	1011.076	773.409
60.417	14.485	1010.209	772.547
61.432	14.449	1009.567	771.820
62.447	14.407	1008.954	771.092
63.461	14.449	1007.866	770.386
64.476	14.296	1007.176	769.082
65.490	14.269	1006.160	768.114
66.505	14.412	1005.440	768.158
67.520	14.384	1004.400	767.163
68.534	14.267	1004.166	766.377
69.549	14.429	1003.013	766.175
70.563	14.494	1002.181	765.771
71.578	14.552	1001.637	765.553
72.593	14.416	1000.542	764.025
73.607	14.375	999.601	763.051
74.622	14.337	999.203	762.507
75.636	14.319	997.780	761.272
76.651	14.381	997.274	761.100
77.666	14.327	996.613	760.282
78.680	14.291	995.917	759.519
79.695	14.266	995.755	759.214
80.709	14.394	994.910	759.088
81.724	14.412	994.535	758.814
82.739	14.531	993.327	758.369
83.753	14.644	992.596	758.258
84.768	14.699	991.652	757.718
85.782	14.804	991.406	757.938
86.797	14.946	990.064	757.489
87.812	14.840	989.556	756.554
88.826	14.705	989.012	755.459
89.841	14.642	988.318	754.577
90.855	14.794	987.175	754.323
91.870	14.740	986.695	753.649
92.884	14.871	986.010	753.648
93.899	14.971	984.927	753.206
94.914	14.764	984.782	752.094
95.928	14.875	983.580	751.611
96.943	14.950	983.097	751.512
97.957	14.762	982.795	750.369
98.972	14.782	981.603	749.481
99.987	14.860	980.840	749.185
101.001	14.865	980.153	748.615
102.016	14.842	979.236	747.745
103.030	14.890	978.096	747.022
104.045	14.823	977.457	746.169
105.060	14.869	976.146	745.308
106.074	14.757	975.491	744.242
107.089	14.659	974.674	743.118
108.103	14.477	973.757	741.544
109.118	14.518	972.760	740.902
110.133	14.521	971.653	740.005
111.147	14.542	971.013	739.546
112.162	14.485	970.455	738.804
113.176	14.551	969.835	738.558
114.191	14.549	968.976	737.830
115.206	14.710	968.191	737.877
116.220	14.515	967.557	736.470
117.235	14.624	966.139	735.805
118.249	14.507	965.535	734.765
119.264	14.583	964.616	734.333
120.279	14.496	963.544	733.070
121.293	14.477	962.814	732.366
122.308	14.423	962.259	731.644
123.322	14.422	961.471	730.974
124.337	14.562	959.830	730.273
125.352	14.452	959.486	729.469
126.366	14.445	958.365	728.521
127.381	14.442	957.418	727.724
128.395	14.425	956.434	726.836
129.410	14.441	955.548	726.166
130.424	14.437	954.853	725.557
131.439	14.454	953.877	724.826
132.454	14.490	953.062	724.297
133.468	14.561	952.507	724.120
134.483	14.606	952.091	723.936
135.497	14.541	951.161	722.884
136.512	14.692	950.214	722.752
137.527	14.570	949.674	721.752
138.541	14.524	948.725	720.766
139.556	14.659	948.273	720.945
140.570	14.737	947.480	720.615
141.585	14.650	947.107	719.891
142.600	14.645	946.510	719.350
143.614	14.738	945.448	718.881
144.629	14.812	944.597	718.486
145.643	14.889	943.995	718.300
146.658	14.937	943.108	717.767
147.673	14.878	941.755	716.418
148.687	14.760	940.679	715.033
149.702	14.678	940.316	714.342
150.716	14.647	939.271	713.354
151.731	14.598	938.644	712.604
152.746	14.729	937.405	712.158
153.760	14.810	936.646	711.864
154.775	14.727	936.055	711.001
155.789	14.835	935.235	710.775
156.804	14.834	934.807	710.382
157.819	14.846	934.012	709.765
158.833	14.984	933.181	709.656
159.848	14.963	932.545	709.020
160.862	14.976	931.999	708.598
161.877	14.982	931.350	708.067
162.892	14.738	930.723	706.495
163.906	14.789	929.387	705.635
164.921	14.684	928.893	704.754
165.935	14.669	927.783	703.785
166.950	14.673	926.991	703.141
167.964	14.850	925.976	703.052
168.979	14.865	924.856	702.201
169.994	14.803	923.754	701.044
171.008	14.809	923.317	700.676
172.023	14.824	922.582	700.119
173.037	14.954	921.770	699.983
174.052	15.142	921.016	700.136
175.067	14.976	920.305	698.839
176.081	14.858	919.575	697.730
177.096	14.779	918.766	696.727
178.110	14.857	918.046	696.445
179.125	14.830	917.598	695.930
180.140	14.833	916.571	695.100
181.154	14.733	916.251	694.380
182.169	14.822	915.266	693.944
183.183	15.100	914.925	694.777
184.198	15.037	914.135	693.852
185.213	15.150	913.069	693.453
186.227	15.141	912.669	693.050
187.242	15.062	912.321	692.399
188.256	15.184	911.569	692.270
189.271	15.202	910.860	691.745
190.286	15.306	910.344	691.719
191.300	15.158	909.233	690.206
192.315	14.949	908.367	688.624
193.329	14.714	908.032	687.344
194.344	14.919	906.678	687.101
195.359	14.867	906.729	686.864
196.373	15.059	906.216	687.204
197.388	15.147	905.335	686.837
198.402	15.149	905.210	686.688
199.417	15.301	904.946	687.052
200.432	15.429	904.474	687.153
201.446	15.429	903.714	686.518
202.461	15.446	903.897	686.663
203.475	15.483	902.931	686.019
204.490	15.465	902.172	685.308
205.504	15.268	901.485	683.923
206.519	15.425	900.732	683.932
207.534	15.322	899.984	682.883
208.548	15.229	899.171	681.830
209.563	15.346	898.528	681.756
210.577	15.450	897.437	681.291
211.592	15.327	897.217	680.562
212.607	15.351	897.078	680.496
213.621	15.472	896.286	680.323
214.636	15.485	895.118	679.431
215.650	15.396	894.984	678.910
216.665	15.558	894.134	678.858
217.680	15.543	893.926	678.581
218.694	15.487	893.538	677.999
219.709	15.683	892.754	678.137
220.723	15.580	892.302	677.318
221.738	15.547	891.594	676.586
222.753	15.568	890.512	675.788
223.767	15.524	889.979	675.150
224.782	15.609	889.236	674.866
225.796	15.697	888.535	674.630
226.811	15.747	887.804	674.216
227.826	15.712	887.244	673.590
228.840	15.574	886.738	672.594
229.855	15.585	885.767	671.839
230.869	15.678	885.111	671.653
231.884	15.548	884.829	670.862
232.899	15.675	883.835	670.557
233.913	15.486	883.225	669.281
234.928	15.619	882.534	669.227
235.942	15.628	881.713	668.582
236.957	15.527	880.740	667.384
237.972	15.538	880.547	667.220
238.986	15.451	880.289	666.622
240.001	15.663	879.224	666.597
241.015	15.547	878.793	665.753
242.030	15.625	878.364	665.677
243.045	15.737	877.500	665.406
244.059	15.716	876.972	664.862
245.074	15.711	876.713	664.589
246.088	15.817	875.995	664.404
247.103	15.800	875.136	663.628
248.117	15.917	874.417	663.485
249.132	15.806	874.230	662.846
250.147	15.947	873.971	663.146
251.161	16.301	872.781	663.578
252.176	16.281	872.080	662.904
253.190	16.268	871.760	662.552
254.205	16.265	870.843	661.785
255.220	16.269	870.402	661.406
256.234	16.227	869.952	660.844
257.249	16.135	869.533	660.104
258.263	16.244	868.991	660.062
259.278	16.362	868.226	659.884
260.293	16.368	867.924	659.619
261.307	16.369	866.968	658.839
262.322	16.240	866.835	658.177
263.336	16.353	866.158	658.043
264.351	16.436	865.586	657.873
265.366	16.417	864.658	657.037
266.380	16.574	863.915	657.026
267.395	16.613	863.150	656.537
268.409	16.541	862.382	655.613
269.424	16.391	861.899	654.607
270.439	16.483	861.066	654.272
271.453	16.382	860.697	653.544
272.468	16.384	859.635	652.688
273.482	16.429	859.010	652.331
274.497	16.406	858.855	652.064
275.512	16.317	858.131	651.114
276.526	16.245	857.452	650.262
277.541	16.391	856.767	650.248
278.555	16.315	856.233	649.493
279.570	16.500	855.792	649.813
280.585	16.569	855.127	649.516
281.599	16.604	854.726	649.289
282.614	16.588	853.913	648.553
283.628	16.556	853.427	648.004
284.643	16.430	853.074	647.194
285.657	16.491	852.428	646.881
286.672	16.476	852.037	646.468
287.687	16.498	851.433	646.036
288.701	16.568	850.743	645.723
289.716	16.646	850.171	645.532
290.730	16.591	849.537	644.782
291.745	16.655	849.029	644.584
292.760	16.696	848.471	644.258
293.774	16.776	847.624	643.863
294.789	16.835	847.224	643.726
295.803	16.811	846.762	643.228
296.818	16.765	846.156	642.536
297.833	16.648	845.402	641.462
298.847	16.837	844.872	641.718
299.862	16.737	844.109	640.705
300.876	16.674	843.631	640.048
301.891	16.916	842.623	640.139
302.906	16.886	842.123	639.588
303.920	16.884	841.464	639.023
304.935	17.049	841.183	639.377
305.949	17.165	840.247	639.045
306.964	17.017	839.730	638.039
307.979	16.972	839.251	637.451
308.993	16.915	838.591	636.679
310.008	16.992	838.092	636.533
311.022	17.144	837.677	636.732
312.037	17.132	836.891	636.031
313.052	17.092	836.637	635.634
314.066	17.121	835.688	634.963
315.081	16.919	835.206	633.784
316.095	16.944	834.811	633.524
317.110	16.925	834.150	632.895
318.125	16.962	833.617	632.573
319.139	16.843	832.959	631.573
320.154	16.807	833.065	631.465
321.168	16.969	831.697	630.975
322.183	17.028	831.651	631.105
323.197	17.083	831.249	630.948
324.212	17.011	830.602	630.131
325.227	17.089	830.129	630.006
326.241	17.077	829.411	629.361
327.256	17.058	828.969	628.902
328.270	16.927	828.919	628.322
329.285	16.985	828.006	627.790
330.300	16.898	827.457	626.996
331.314	17.059	826.573	626.864
332.329	17.019	826.037	626.253
333.343	17.262	825.286	626.525
334.358	17.058	825.186	625.644
335.373	17.134	824.515	625.358
336.387	17.188	824.425	625.435
337.402	17.232	823.229	624.632
338.416	17.304	822.629	624.388
339.431	17.429	822.373	624.597
340.446	17.386	821.933	624.048
341.460	17.459	821.683	624.070
342.475	17.427	820.639	623.107
343.489	17.629	820.280	623.519
344.504	17.606	819.883	623.078
345.519	17.553	819.557	622.580
346.533	17.638	818.636	622.135
347.548	17.646	818.254	621.819
348.562	17.648	817.734	621.378
349.577	17.500	817.120	620.314
350.592	17.395	816.789	619.626
351.606	17.365	816.159	618.984
352.621	17.416	815.579	618.675
353.635	17.432	815.372	618.522
354.650	17.487	814.742	618.190
355.665	17.578	814.513	618.293
356.679	17.651	813.692	617.876
357.694	17.404	813.575	616.838
358.708	17.529	813.061	616.848
359.723	17.419	812.605	616.048
360.738	17.544	811.742	615.794
361.752	17.511	811.324	615.301
362.767	17.525	810.945	615.010
363.781	17.639	810.671	615.160
364.796	17.826	810.328	615.520
365.810	17.900	809.930	615.430
366.825	17.891	809.284	614.851
367.840	17.996	809.285	615.176
368.854	17.936	808.759	614.507
369.869	17.985	807.913	613.984
370.883	17.928	807.160	613.154
371.898	17.929	806.907	612.909
372.913	17.931	806.297	612.401
373.927	17.926	806.058	612.147
374.942	17.890	805.357	611.430
375.956	17.935	804.611	610.972
376.971	18.026	803.882	610.691
377.986	17.996	803.512	610.248
379.000	18.223	802.974	610.594
380.015	18.072	802.783	609.856
381.029	18.067	802.099	609.266
382.044	18.106	801.576	608.953
383.059	18.201	800.839	608.676
384.073	18.140	800.385	608.060
385.088	18.156	799.865	607.669
386.102	18.192	799.202	607.241
387.117	18.026	798.725	606.233
388.132	18.109	798.385	606.216
389.146	18.057	797.810	605.544
390.161	18.020	797.635	605.227
391.175	18.144	797.362	605.405
392.190	18.513	796.441	605.956
393.205	18.276	796.125	604.824
394.219	18.205	796.011	604.431
395.234	18.185	795.376	603.828
396.248	18.097	794.695	602.946
397.263	18.172	794.125	602.725
398.278	17.929	793.709	601.501
399.292	18.034	793.279	601.491
400.307	18.010	792.810	600.997
401.321	17.966	792.673	600.685
402.336	18.096	792.220	600.746
403.350	18.099	791.957	600.504
404.365	18.299	791.285	600.644
405.380	18.242	790.994	600.168
406.394	18.339	790.676	600.216
407.409	18.439	789.828	599.867
408.423	18.395	789.955	599.758
409.438	18.496	789.479	599.696
410.453	18.444	788.813	598.955
411.467	18.332	788.817	598.514
412.482	18.535	788.169	598.676
413.496	18.623	787.515	598.436
414.511	18.727	786.940	598.307
415.526	18.599	787.074	597.911
416.540	18.592	786.725	597.568
417.555	18.719	785.755	597.219
418.569	18.623	785.727	596.811
419.584	18.780	785.023	596.771
420.599	18.597	784.620	595.777
421.613	155.984	1369.881	1792.888
422.628	134.730	1455.190	1793.010
