DTS Sentinel unit serial number:	SN413079Multiplexer serial number:	ORYXHardware model number:	OX4-SRSoftware version number:	ORYX F/W v4.00 Oryx Data Collector v3.7.2.0data status	okinstallation	princeton_trtdifferential loss correction	single-endedforward channel	channel 3reverse channel	N/Adate	2019/09/18time	20:52:35forward acquisition time	60.00reverse acquisition time	0.00gamma	496.2192k internal	0.2343k external	0.2343temperature offset calibration	1.0013default loss term (dB/km)	0.3790temperature slope calibration	1.0000multiplexer offset coefficient	1.0000multiplexer slope coefficient	1.0000fibre end	0.00T internal ref (°C)	26.95T ext. ref 1 (°C)	1.06T ext. ref 2 (°C)	18.34length (m)	temperature (°C)	Stokes	anti-Stokes-747.200	267.341	-0.158	0.277
-746.185	800.000	-0.021	0.061
-745.171	-200.000	0.059	-0.333
-744.156	116.290	-0.103	-0.127
-743.142	-200.000	0.014	-0.402
-742.127	-88.772	-0.044	0.013
-741.112	-35.598	-0.091	-0.050
-740.098	244.755	-0.021	-0.035
-739.083	-58.546	-0.175	-0.076
-738.069	32.964	0.121	0.105
-737.054	4.454	0.086	-0.063
-736.039	-24.588	-0.152	-0.090
-735.025	246.455	-0.078	-0.131
-734.010	-164.583	0.429	0.019
-732.996	-158.054	0.396	0.023
-731.981	691.795	-0.061	-0.159
-730.966	-155.121	-0.299	-0.020
-729.952	19.700	-0.108	-0.087
-728.937	50.251	-0.300	0.284
-727.923	-200.000	0.025	-0.148
-726.908	-63.451	-0.076	-0.031
-725.894	346.595	0.083	-0.164
-724.879	-29.915	-0.381	0.217
-723.864	555.612	-0.123	-0.296
-722.850	366.175	0.083	-0.167
-721.835	800.000	-0.071	-0.233
-720.821	-200.000	-0.422	-0.001
-719.806	800.000	0.078	-0.294
-718.791	-54.314	0.272	0.124
-717.777	-138.857	0.138	-0.015
-716.762	225.886	0.146	-0.237
-715.748	-7.858	0.169	0.114
-714.733	-200.000	-0.006	0.099
-713.718	289.711	0.089	-0.161
-712.704	-200.000	0.008	0.052
-711.689	274.436	-0.065	0.116
-710.675	322.329	-0.094	0.178
-709.660	348.063	0.161	0.317
-708.645	189.528	0.034	0.050
-707.631	-93.439	0.121	0.033
-706.616	143.330	0.012	0.015
-705.602	800.000	0.094	-0.281
-704.587	46.912	-0.348	-0.324
-703.572	283.608	-0.151	-0.270
-702.558	190.362	0.162	-0.243
-701.543	800.000	0.033	0.103
-700.529	-57.057	-0.325	-0.143
-699.514	309.587	0.060	-0.111
-698.499	800.000	0.119	-0.457
-697.485	-19.989	-0.071	0.044
-696.470	-200.000	0.012	-0.117
-695.456	-200.000	0.064	-0.449
-694.441	74.967	0.313	0.329
-693.426	800.000	0.071	-0.309
-692.412	-9.005	0.113	-0.076
-691.397	-200.000	0.012	-0.084
-690.383	67.688	0.035	0.035
-689.368	-200.000	0.020	-0.184
-688.354	-23.853	0.140	-0.084
-687.339	72.326	0.222	-0.231
-686.324	-13.039	0.130	-0.084
-685.310	182.865	0.042	-0.062
-684.295	-59.523	0.323	0.138
-683.281	406.704	-0.089	-0.188
-682.266	12.836	-0.232	0.179
-681.251	-200.000	0.000	0.088
-680.237	-105.151	-0.325	-0.074
-679.222	800.000	0.067	0.197
-678.208	-200.000	0.006	-0.029
-677.193	-200.000	0.007	0.284
-676.178	49.754	0.119	-0.112
-675.164	-200.000	-0.026	-0.244
-674.149	-118.227	0.290	-0.051
-673.135	194.681	-0.109	0.166
-672.120	157.459	0.238	0.329
-671.105	-86.107	-0.407	-0.126
-670.091	-44.760	0.120	0.060
-669.076	-200.000	0.011	0.191
-668.062	-28.690	-0.228	0.131
-667.047	-108.441	0.100	0.022
-666.032	-98.188	0.025	-0.007
-665.018	-200.000	-0.013	-0.073
-664.003	14.803	0.359	0.280
-662.989	-63.961	-0.255	-0.104
-661.974	-200.000	-0.023	-0.125
-660.959	-200.000	0.017	0.097
-659.945	800.000	0.048	0.166
-658.930	222.864	-0.072	-0.115
-657.916	370.317	-0.138	0.280
-656.901	-24.183	0.083	-0.049
-655.886	477.898	-0.031	-0.069
-654.872	143.112	-0.113	-0.150
-653.857	-115.849	-0.271	0.050
-652.843	293.146	-0.114	-0.208
-651.828	-19.816	0.286	0.176
-650.814	178.739	0.069	0.100
-649.799	-42.481	-0.099	0.050
-648.784	40.541	-0.172	-0.154
-647.770	-19.303	-0.029	-0.018
-646.755	175.024	0.226	-0.326
-645.741	-200.000	-0.040	-0.189
-644.726	800.000	0.132	-0.475
-643.711	143.111	0.137	0.181
-642.697	-39.128	-0.194	-0.102
-641.682	-7.553	0.203	-0.137
-640.668	508.975	0.163	-0.377
-639.653	-200.000	-0.002	-0.125
-638.638	-200.000	0.001	-0.048
-637.624	117.969	0.037	-0.045
-636.609	-88.543	0.328	-0.098
-635.595	-103.436	-0.240	-0.056
-634.580	800.000	0.025	-0.107
-633.565	-88.812	-0.251	0.074
-632.551	-37.011	-0.212	-0.113
-631.536	464.775	-0.115	-0.256
-630.522	-118.104	-0.336	0.060
-629.507	-200.000	-0.113	0.000
-628.492	184.748	0.117	0.172
-627.478	263.947	-0.079	0.138
-626.463	288.051	0.051	0.092
-625.449	149.359	-0.284	0.383
-624.434	800.000	-0.026	-0.083
-623.419	800.000	0.025	0.084
-622.405	-28.499	-0.091	0.052
-621.390	119.248	0.268	-0.330
-620.376	573.249	-0.116	-0.283
-619.361	441.377	-0.042	0.091
-618.346	-200.000	0.012	-0.293
-617.332	-126.196	0.303	0.045
-616.317	552.664	0.037	0.088
-615.303	-55.599	0.360	0.161
-614.288	-91.457	-0.234	-0.066
-613.273	-200.000	0.001	0.024
-612.259	26.500	0.069	-0.058
-611.244	800.000	0.044	0.165
-610.230	-200.000	-0.005	0.055
-609.215	1.108	0.261	0.186
-608.201	800.000	-0.102	0.361
-607.186	226.274	-0.088	-0.143
-606.171	-200.000	0.027	-0.128
-605.157	-124.355	0.114	-0.018
-604.142	158.295	0.087	-0.121
-603.128	-76.805	-0.323	-0.113
-602.113	-101.343	-0.170	-0.041
-601.098	-114.951	-0.397	-0.075
-600.084	-38.985	0.106	0.056
-599.069	-116.362	0.032	0.006
-598.055	800.000	-0.056	0.212
-597.040	8.300	-0.099	0.074
-596.025	-200.000	-0.004	-0.559
-595.011	22.918	-0.246	0.201
-593.996	-200.000	-0.014	0.100
-592.982	-200.000	0.025	0.381
-591.967	800.000	-0.044	-0.143
-590.952	-200.000	0.003	0.069
-589.938	315.366	-0.147	-0.276
-588.923	-150.157	-0.208	-0.016
-587.909	-22.634	-0.189	0.114
-586.894	-200.000	-0.030	-0.335
-585.879	528.753	0.096	0.225
-584.865	-97.266	-0.229	-0.060
-583.850	800.000	-0.034	-0.112
-582.836	-44.597	-0.200	0.100
-581.821	740.447	0.112	-0.299
-580.806	-77.900	0.177	-0.061
-579.792	26.106	-0.249	-0.206
-578.777	-90.628	-0.259	-0.075
-577.763	-116.593	-0.472	0.086
-576.748	-166.192	-0.208	0.009
-575.733	11.188	-0.233	-0.177
-574.719	-200.000	0.020	-0.225
-573.704	79.229	-0.061	0.065
-572.690	-29.895	0.086	-0.049
-571.675	497.819	0.117	0.268
-570.661	-130.090	0.119	-0.016
-569.646	-137.002	-0.211	-0.024
-568.631	-200.000	0.009	0.225
-567.617	800.000	-0.080	0.320
-566.602	-93.614	0.171	-0.047
-565.588	-52.765	-0.111	-0.051
-564.573	251.025	-0.182	0.308
-563.558	-200.000	-0.086	0.379
-562.544	60.361	-0.209	-0.206
-561.529	-163.339	-0.209	-0.010
-560.515	95.245	-0.178	0.202
-559.500	377.904	-0.268	-0.544
-558.485	-200.000	0.033	-0.175
-557.471	28.543	-0.075	-0.063
-556.456	-159.015	-0.113	-0.006
-555.442	-84.428	0.138	0.043
-554.427	800.000	0.074	0.205
-553.412	368.438	-0.091	0.183
-552.398	-134.731	-0.203	0.025
-551.383	-200.000	-0.019	0.218
-550.369	800.000	-0.031	0.119
-549.354	-200.000	-0.031	-0.275
-548.339	-200.000	-0.002	-0.151
-547.325	262.566	0.092	0.158
-546.310	-42.280	-0.151	-0.077
-545.296	-151.595	0.447	0.033
-544.281	239.321	0.060	0.100
-543.266	332.892	-0.107	0.206
-542.252	-200.000	-0.018	-0.178
-541.237	-200.000	-0.012	-0.122
-540.223	-97.025	0.159	0.041
-539.208	5.632	-0.347	0.255
-538.193	209.812	-0.162	0.253
-537.179	2.817	0.174	-0.126
-536.164	-66.462	-0.149	-0.059
-535.150	-200.000	-0.049	-0.327
-534.135	-87.479	-0.094	0.028
-533.121	191.362	-0.086	-0.128
-532.106	122.076	-0.113	0.140
-531.091	748.501	-0.074	-0.199
-530.077	-200.000	0.027	0.311
-529.062	168.364	-0.107	-0.152
-528.048	-55.215	0.021	-0.009
-527.033	-25.093	-0.152	-0.089
-526.018	-200.000	-0.001	0.121
-525.004	349.624	-0.299	0.586
-523.989	56.772	-0.012	0.012
-522.975	800.000	0.068	0.262
-521.960	657.299	-0.080	0.204
-520.945	-67.536	0.271	-0.106
-519.931	-86.434	-0.193	-0.059
-518.916	-93.203	0.037	-0.010
-517.902	35.353	0.145	-0.126
-516.887	-200.000	0.006	-0.240
-515.872	8.565	0.078	0.058
-514.858	-96.611	-0.017	0.004
-513.843	526.772	0.157	0.367
-512.829	8.859	0.043	0.033
-511.814	-200.000	0.021	-0.144
-510.799	-112.569	-0.182	-0.036
-509.785	800.000	-0.071	0.237
-508.770	-32.383	-0.316	0.175
-507.756	140.895	0.120	0.157
-506.741	9.627	0.096	-0.072
-505.726	-16.518	-0.251	-0.157
-504.712	16.298	-0.093	0.073
-503.697	24.000	0.021	0.017
-502.683	-65.457	0.023	0.009
-501.668	-59.992	0.226	-0.096
-500.653	477.706	0.058	-0.130
-499.639	-200.000	0.003	-0.174
-498.624	-135.043	0.274	-0.033
-497.610	800.000	0.078	0.237
-496.595	274.253	0.043	0.076
-495.581	-86.337	0.344	-0.105
-494.566	800.000	0.082	-0.285
-493.551	-5.096	0.173	-0.118
-492.537	303.401	-0.097	0.178
-491.522	-94.672	0.401	-0.108
-490.508	-166.171	-0.067	-0.003
-489.493	-157.899	-0.291	-0.017
-488.478	-73.076	-0.082	0.030
-487.464	591.982	0.082	-0.201
-486.449	-137.558	-0.134	0.015
-485.435	-9.626	0.088	-0.058
-484.420	-200.000	0.019	0.084
-483.405	-200.000	0.003	0.158
-482.391	556.256	0.070	0.166
-481.376	54.338	0.172	0.164
-480.362	-149.777	0.173	-0.013
-479.347	481.232	0.010	-0.022
-478.332	-49.134	0.121	0.057
-477.318	197.217	-0.028	-0.043
-476.303	320.240	-0.107	0.201
-475.289	-124.895	-0.057	0.009
-474.274	-145.524	-0.232	-0.021
-473.259	46.049	0.104	0.095
-472.245	-93.437	0.069	0.019
-471.230	644.856	0.053	0.135
-470.216	-172.401	-0.292	0.009
-469.201	-102.036	-0.405	-0.097
-468.186	-200.000	0.059	0.458
-467.172	-129.054	-0.066	0.009
-466.157	112.693	-0.104	-0.125
-465.143	800.000	0.073	0.200
-464.128	-21.880	-0.011	0.007
-463.113	-92.264	-0.210	0.059
-462.099	-200.000	-0.031	-0.178
-461.084	-200.000	0.009	-0.040
-460.070	80.051	-0.208	-0.222
-459.055	-142.415	-0.341	0.033
-458.040	340.019	-0.141	0.272
-457.026	-200.000	-0.080	-0.419
-456.011	-36.657	-0.150	0.080
-454.997	-101.428	0.216	-0.052
-453.982	-56.468	-0.431	0.189
-452.968	-31.773	0.149	-0.083
-451.953	-24.079	-0.241	-0.143
-450.938	-105.730	-0.184	0.041
-449.924	-130.243	-0.193	-0.026
-448.909	-68.520	-0.188	-0.072
-447.895	-200.000	-0.012	-0.090
-446.880	-89.778	0.216	0.063
-445.865	136.856	-0.041	-0.054
-444.851	800.000	-0.060	-0.253
-443.836	-42.573	0.156	0.079
-442.822	464.464	-0.107	-0.237
-441.807	54.553	-0.189	0.181
-440.792	-200.000	-0.011	0.269
-439.778	21.218	0.280	-0.225
-438.763	-200.000	0.022	-0.163
-437.749	800.000	-0.024	-0.099
-436.734	47.438	-0.253	-0.233
-435.719	124.413	-0.092	0.115
-434.705	233.402	-0.155	-0.252
-433.690	800.000	0.062	-0.214
-432.676	184.117	-0.146	-0.214
-431.661	795.701	0.072	0.197
-430.646	141.374	0.157	-0.205
-429.632	63.539	0.137	-0.136
-428.617	458.995	-0.161	0.353
-427.603	-60.970	-0.136	-0.057
-426.588	310.547	0.052	-0.095
-425.573	233.146	-0.102	0.165
-424.559	-200.000	0.002	-0.367
-423.544	32.883	-0.054	0.046
-422.530	-55.716	-0.103	0.046
-421.515	105.064	-0.133	-0.156
-420.500	389.477	0.090	-0.185
-419.486	5.528	-0.258	-0.188
-418.471	-139.022	0.159	0.017
-417.457	-68.627	0.318	-0.122
-416.442	254.457	-0.130	-0.220
-415.428	-102.489	-0.357	0.084
-414.413	8.191	-0.219	-0.163
-413.398	129.008	0.022	0.027
-412.384	-85.747	-0.252	-0.077
-411.369	-200.000	0.058	0.287
-410.355	443.066	0.083	0.180
-409.340	93.212	-0.131	0.147
-408.325	-29.135	0.011	-0.006
-407.311	31.430	-0.287	-0.244
-406.296	-90.103	0.468	0.135
-405.282	512.771	-0.072	0.167
-404.267	-65.391	0.151	-0.060
-403.252	-200.000	-0.054	0.296
-402.238	144.066	-0.150	-0.198
-401.223	257.996	-0.093	-0.158
-400.209	-200.000	-0.025	0.159
-399.194	-200.000	-0.009	-0.138
-398.179	800.000	-0.038	-0.129
-397.165	-200.000	-0.004	-0.199
-396.150	7.356	-0.250	-0.184
-395.136	-12.276	0.381	0.246
-394.121	413.924	-0.152	-0.320
-393.106	-104.666	-0.367	-0.083
-392.092	-92.048	-0.228	0.064
-391.077	-51.293	0.131	-0.061
-390.063	-95.794	0.209	0.055
-389.048	-10.651	0.295	0.193
-388.033	-163.828	0.164	0.008
-387.019	497.894	-0.098	0.222
-386.004	22.749	0.279	0.226
-384.990	0.848	-0.127	-0.090
-383.975	800.000	0.154	0.461
-382.960	167.973	0.141	0.199
-381.946	-175.382	0.395	-0.011
-380.931	-107.990	0.314	-0.067
-379.917	93.271	0.242	-0.270
-378.902	135.114	0.162	-0.208
-377.888	-95.295	0.072	0.019
-376.873	25.856	0.190	-0.156
-375.858	-127.696	-0.023	0.003
-374.844	-200.000	0.050	0.346
-373.829	-50.382	0.142	0.066
-372.815	800.000	-0.044	0.130
-371.800	125.277	0.189	0.235
-370.785	-93.536	-0.367	-0.100
-369.771	-134.110	-0.060	0.007
-368.756	-24.206	0.123	-0.073
-367.742	245.460	-0.124	0.206
-366.727	582.469	-0.098	0.236
-365.712	-29.088	-0.159	0.090
-364.698	-70.711	-0.135	0.050
-363.683	56.340	0.141	-0.135
-362.669	157.741	-0.178	0.243
-361.654	116.487	0.162	0.195
-360.639	-200.000	-0.018	-0.078
-359.625	800.000	-0.046	0.135
-358.610	546.035	0.256	-0.603
-357.596	-200.000	0.007	0.125
-356.581	281.430	0.067	0.118
-355.566	-200.000	0.075	-0.426
-354.552	-109.995	-0.247	0.051
-353.537	-18.540	0.147	0.090
-352.523	800.000	-0.022	0.064
-351.508	59.124	-0.034	0.033
-350.493	-200.000	0.046	0.376
-349.479	0.019	-0.081	-0.057
-348.464	-75.391	0.243	0.086
-347.450	721.655	0.125	0.328
-346.435	110.595	0.277	-0.328
-345.420	-24.463	-0.300	-0.176
-344.406	18.682	0.144	0.113
-343.391	-148.769	-0.228	-0.018
-342.377	800.000	0.085	0.265
-341.362	-102.262	0.183	-0.043
-340.348	67.192	-0.058	0.058
-339.333	800.000	-0.029	0.096
-338.318	496.235	0.099	0.224
-337.304	-130.884	-0.248	0.033
-336.289	-167.835	0.368	0.014
-335.275	800.000	-0.053	0.175
-334.260	800.000	-0.079	-0.307
-333.245	-60.613	-0.354	0.148
-332.231	701.034	0.071	-0.184
-331.216	-137.509	-0.322	0.036
-330.202	-200.000	-0.011	0.310
-329.187	800.000	0.095	0.316
-328.172	2.972	-0.179	-0.128
-327.158	-200.000	0.087	-0.405
-326.143	800.000	0.059	-0.162
-325.129	-27.493	-0.282	-0.161
-324.114	800.000	0.109	-0.380
-323.099	-200.000	0.009	0.201
-322.085	-200.000	-0.055	0.259
-321.070	62.642	0.079	-0.078
-320.056	-200.000	-0.002	0.165
-319.041	-1.797	-0.191	0.132
-318.026	476.420	-0.008	0.019
-317.012	280.065	0.068	-0.120
-315.997	77.027	0.120	-0.126
-314.983	-200.000	-0.024	0.108
-313.968	220.912	0.049	-0.077
-312.953	-66.041	-0.218	-0.085
-311.939	-200.000	-0.016	-0.301
-310.924	72.667	0.163	0.168
-309.910	-19.347	0.162	-0.099
-308.895	-200.000	0.034	0.260
-307.880	425.443	0.162	0.343
-306.866	84.289	0.136	0.147
-305.851	424.254	0.200	-0.423
-304.837	127.429	0.090	-0.113
-303.822	4.299	-0.103	0.074
-302.807	-200.000	-0.020	-0.098
-301.793	-200.000	0.004	0.205
-300.778	422.125	-0.147	0.310
-299.764	-200.000	0.032	-0.210
-298.749	-200.000	0.056	0.276
-297.735	535.022	-0.030	0.069
-296.720	73.498	0.063	-0.065
-295.705	-200.000	0.051	0.223
-294.691	202.635	0.115	0.175
-293.676	-150.145	-0.261	-0.020
-292.662	134.411	0.177	0.226
-291.647	249.984	-0.100	0.167
-290.632	-110.649	0.312	-0.064
-289.618	-115.500	0.214	0.040
-288.603	755.523	-0.046	0.124
-287.589	-189.138	0.239	-0.003
-286.574	14.450	-0.200	-0.154
-285.559	-89.114	0.241	0.070
-284.545	-200.000	0.010	0.258
-283.530	-86.170	0.344	-0.104
-282.516	-160.265	0.118	0.006
-281.501	-14.959	0.140	0.088
-280.486	158.996	0.032	0.044
-279.472	22.992	0.048	-0.039
-278.457	221.403	0.072	0.114
-277.443	-61.177	-0.233	-0.097
-276.428	-200.000	0.040	-0.268
-275.413	-100.461	0.057	-0.014
-274.399	183.490	0.201	-0.293
-273.384	34.206	0.244	0.209
-272.370	238.726	0.162	-0.264
-271.355	-80.616	0.331	-0.108
-270.340	-19.503	0.350	-0.213
-269.326	-171.312	0.162	-0.005
-268.311	175.501	0.235	0.335
-267.297	-93.689	0.047	0.013
-266.282	90.459	0.344	-0.379
-265.267	-17.789	0.099	0.061
-264.253	-32.571	-0.105	-0.058
-263.238	-86.998	0.250	0.075
-262.224	269.339	0.165	0.284
-261.209	-200.000	-0.030	0.185
-260.195	-200.000	-0.008	0.072
-259.180	209.105	-0.088	0.136
-258.165	58.389	0.131	0.126
-257.151	296.946	0.124	0.223
-256.136	51.458	0.203	0.189
-255.122	-200.000	-0.391	0.002
-254.107	-200.000	0.028	0.143
-253.092	-165.709	0.056	-0.002
-252.078	800.000	-0.040	-0.150
-251.063	-28.491	-0.295	0.167
-250.049	-117.638	-0.102	-0.018
-249.034	-115.754	0.100	0.018
-248.019	-70.959	-0.287	0.106
-247.005	363.767	0.020	0.039
-245.990	26.254	0.223	-0.183
-244.976	-94.149	-0.078	0.021
-243.961	-124.288	0.243	0.037
-242.946	198.305	-0.075	0.112
-241.932	-94.069	-0.053	0.014
-240.917	-160.047	0.200	0.011
-239.903	-80.229	-0.460	-0.151
-238.888	-89.757	-0.394	0.113
-237.873	182.326	0.240	-0.347
-236.859	-151.753	-0.346	0.025
-235.844	-84.437	0.183	0.057
-234.830	-94.129	-0.279	-0.075
-233.815	67.930	0.027	-0.027
-232.800	28.221	0.119	-0.099
-231.786	-4.162	0.062	-0.042
-230.771	75.937	0.111	-0.115
-229.757	800.000	0.036	0.142
-228.742	-34.785	0.192	0.103
-227.727	800.000	0.102	0.299
-226.713	-200.000	0.035	-0.289
-225.698	-40.803	0.102	0.052
-224.684	25.814	0.182	-0.149
-223.669	-200.000	0.007	0.044
-222.655	424.677	0.077	-0.162
-221.640	199.683	-0.220	-0.331
-220.625	800.000	-0.018	0.064
-219.611	60.332	-0.240	0.233
-218.596	156.434	0.187	-0.253
-217.582	-200.000	0.004	-0.079
-216.567	-182.848	0.159	-0.003
-215.552	26.025	0.055	0.045
-214.538	-179.669	0.606	-0.013
-213.523	-128.485	-0.213	-0.030
-212.509	-45.671	0.064	-0.031
-211.494	-113.792	0.221	0.042
-210.479	58.701	-0.170	-0.164
-209.465	321.910	-0.079	-0.148
-208.450	108.188	0.103	0.120
-207.436	216.320	-0.070	-0.109
-206.421	50.132	-0.052	-0.049
-205.406	-200.000	0.055	0.327
-204.392	133.698	0.141	0.179
-203.377	119.594	0.156	-0.190
-202.363	493.726	0.072	-0.161
-201.348	-83.300	-0.191	-0.060
-200.333	171.162	-0.151	0.213
-199.319	-63.727	-0.230	0.092
-198.304	-42.285	0.199	0.099
-197.290	188.238	0.156	-0.228
-196.275	-150.189	0.399	-0.030
-195.260	-95.217	0.215	-0.057
-194.246	111.889	0.050	-0.060
-193.231	-12.030	-0.193	0.124
-192.217	44.639	-0.413	0.372
-191.202	108.122	0.140	0.164
-190.187	358.513	-0.091	-0.179
-189.173	63.398	-0.211	0.207
-188.158	-200.000	-0.043	-0.245
-187.144	-200.000	-0.003	0.031
-186.129	91.726	0.241	0.266
-185.114	23.581	0.349	-0.281
-184.100	-18.458	-0.081	0.050
-183.085	800.000	0.083	-0.349
-182.071	-98.834	0.336	0.084
-181.056	84.279	0.146	-0.157
-180.042	-40.387	-0.129	-0.066
-179.027	151.727	-0.025	-0.033
-178.012	-114.283	-0.161	0.030
-176.998	62.305	0.252	-0.246
-175.983	585.004	0.051	-0.122
-174.969	262.452	-0.183	0.310
-173.954	-43.716	0.231	0.114
-172.939	-200.000	-0.032	0.166
-171.925	13.944	0.055	-0.042
-170.910	-27.967	0.141	-0.080
-169.896	-34.102	-0.122	-0.066
-168.881	-93.251	0.217	0.059
-167.866	664.359	0.091	0.229
-166.852	204.318	-0.128	-0.195
-165.837	-200.000	-0.022	0.185
-164.823	-200.000	0.044	-0.191
-163.808	-25.519	0.289	0.167
-162.793	-200.000	0.088	-0.417
-161.779	-13.009	0.297	-0.189
-160.764	21.776	-0.276	-0.220
-159.750	-120.790	-0.075	0.012
-158.735	-119.607	0.125	0.021
-157.720	305.639	0.046	0.083
-156.706	11.808	0.102	-0.077
-155.691	-27.024	0.230	0.131
-154.677	-63.477	-0.327	-0.131
-153.662	67.655	-0.036	0.036
-152.647	-200.000	0.011	0.148
-151.633	158.514	0.088	-0.119
-150.618	126.264	0.274	0.339
-149.604	322.654	-0.092	0.171
-148.589	-41.030	0.179	0.090
-147.574	800.000	0.032	-0.127
-146.560	800.000	0.074	-0.259
-145.545	211.834	-0.154	0.236
-144.531	26.998	0.090	-0.074
-143.516	800.000	-0.084	0.259
-142.502	-105.001	0.081	-0.018
-141.487	-200.000	0.039	0.270
-140.472	-66.194	0.336	0.131
-139.458	90.167	-0.038	-0.041
-138.443	119.225	-0.135	0.164
-137.429	-166.717	-0.253	-0.010
-136.414	800.000	-0.125	-0.343
-135.399	-51.428	-0.231	0.106
-134.385	76.385	-0.233	-0.241
-133.370	800.000	0.040	-0.158
-132.356	-118.229	0.235	-0.041
-131.341	800.000	0.033	0.132
-130.326	130.073	-0.336	0.420
-129.312	-189.799	-0.159	-0.002
-128.297	-200.000	0.020	-0.159
-127.283	133.227	-0.137	-0.173
-126.268	-200.000	-0.033	0.187
-125.253	-25.546	-0.111	0.064
-124.239	-200.000	-0.017	-0.243
-123.224	119.905	-0.125	-0.151
-122.210	8.796	-0.153	0.112
-121.195	78.245	-0.151	-0.157
-120.180	-200.000	0.073	0.398
-119.166	491.557	0.084	0.188
-118.151	726.585	0.053	0.139
-117.137	21.083	-0.058	0.046
-116.122	11.181	0.346	0.259
-115.107	243.739	0.112	-0.184
-114.093	-200.000	-0.058	0.349
-113.078	175.827	0.076	-0.107
-112.064	-158.086	-0.256	0.015
-111.049	-200.000	0.023	-0.264
-110.034	800.000	0.058	-0.227
-109.020	86.659	0.345	-0.372
-108.005	103.245	-0.193	0.221
-106.991	800.000	-0.060	0.191
-105.976	28.567	-0.029	-0.024
-104.962	-69.077	-0.139	0.052
-103.947	-114.618	0.144	0.027
-102.932	430.341	-0.162	0.343
-101.918	234.623	0.029	0.046
-100.903	-123.455	0.109	-0.017
-99.889	-7.339	0.218	0.144
-98.874	77.043	-0.219	-0.227
-97.859	147.197	0.022	0.029
-96.845	-124.445	-0.197	0.030
-95.830	377.488	0.044	-0.088
-94.816	648.166	0.020	-0.050
-93.801	800.000	0.080	-0.333
-92.786	88.657	0.163	-0.176
-91.772	5.446	0.093	0.067
-90.757	54.808	-0.240	-0.226
-89.743	471.022	0.047	-0.103
-88.728	-62.122	-0.120	-0.049
-87.713	-200.000	0.011	0.215
-86.699	800.000	0.111	-0.361
-85.684	398.569	-0.054	0.111
-84.670	-200.000	0.010	-0.222
-83.655	-163.451	0.310	-0.014
-82.640	-4.216	0.136	-0.092
-81.626	83.098	-0.186	-0.197
-80.611	9.713	0.150	0.111
-79.597	-39.876	0.393	-0.200
-78.582	167.963	0.121	0.168
-77.567	-84.639	-0.136	0.042
-76.553	682.959	-0.105	0.266
-75.538	-93.783	-0.599	0.161
-74.524	-200.000	0.016	-0.236
-73.509	-200.000	-0.015	-0.195
-72.494	369.409	0.067	-0.132
-71.480	107.454	0.121	0.141
-70.465	26.383	0.134	-0.109
-69.451	49.272	0.109	0.100
-68.436	800.000	0.084	-0.345
-67.422	-200.000	0.013	0.302
-66.407	207.854	-0.237	0.361
-65.392	210.348	-0.026	0.040
-64.378	-157.508	-0.353	-0.021
-63.363	217.360	-0.169	-0.263
-62.349	-114.792	0.144	0.027
-61.334	23.770	-1.088	-0.874
-60.319	2.911	0.831	0.588
-59.305	553.141	-0.579	-1.357
-58.290	293.421	0.687	1.222
-57.276	480.917	0.664	1.467
-56.261	-200.000	114.447	629.415
-55.246	450.986	1493.712	3214.512
-54.232	152.262	2653.895	3529.700
-53.217	98.336	2149.717	2413.693
-52.203	37.047	1678.094	1447.034
-51.188	30.128	1495.458	1243.281
-50.173	27.949	1470.562	1208.149
-49.159	49.015	1533.412	1403.065
-48.144	47.700	1548.290	1407.708
-47.130	30.197	1501.209	1248.329
-46.115	27.222	1485.949	1215.733
-45.100	26.929	1482.997	1211.313
-44.086	26.969	1480.884	1209.807
-43.071	26.850	1479.665	1207.971
-42.057	26.901	1477.709	1206.669
-41.042	26.972	1475.967	1205.668
-40.027	27.018	1473.937	1204.271
-39.013	26.834	1472.836	1202.100
-37.998	26.793	1472.045	1201.138
-36.984	26.899	1470.914	1200.869
-35.969	26.965	1469.662	1200.235
-34.954	26.904	1468.581	1198.900
-33.940	26.953	1467.190	1198.041
-32.925	26.971	1465.510	1196.741
-31.911	26.946	1464.258	1195.505
-30.896	27.008	1462.826	1194.695
-29.881	26.961	1461.830	1193.526
-28.867	26.972	1460.659	1192.598
-27.852	27.014	1459.063	1191.523
-26.838	26.949	1457.795	1190.014
-25.823	27.033	1456.417	1189.387
-24.809	26.959	1455.013	1187.712
-23.794	26.970	1453.197	1186.252
-22.779	26.998	1451.755	1185.210
-21.765	26.963	1451.374	1184.629
-20.750	27.176	1449.652	1184.561
-19.736	27.085	1448.710	1183.154
-18.721	27.009	1448.039	1182.061
-17.706	26.844	1447.283	1180.326
-16.692	26.957	1445.959	1179.935
-15.677	27.009	1444.529	1179.060
-14.663	26.866	1444.127	1177.752
-13.648	26.906	1443.474	1177.434
-12.633	26.829	1442.429	1176.037
-11.619	26.885	1441.332	1175.458
-10.604	26.964	1440.180	1174.983
-9.590	27.043	1438.949	1174.441
-8.575	26.984	1438.315	1173.499
-7.560	27.049	1437.553	1173.250
-6.546	26.975	1437.100	1172.353
-5.531	26.961	1436.014	1171.329
-4.517	26.905	1434.934	1170.042
-3.502	26.908	1434.089	1169.324
-2.487	26.878	1433.096	1168.277
-1.473	26.896	1432.418	1167.796
-0.458	26.877	1430.575	1166.126
0.556	26.091	1420.032	1152.706
1.571	22.017	1394.377	1106.173
2.586	17.602	1331.960	1029.930
3.600	15.438	1249.567	953.853
4.615	14.235	1206.004	913.914
5.629	12.387	1151.465	862.810
6.644	6.870	1071.597	775.870
7.659	1.860	1035.184	725.631
8.673	1.184	1030.084	718.786
9.688	1.028	1026.900	715.766
10.702	1.055	1025.329	714.733
11.717	0.984	1023.874	713.322
12.731	2.996	1023.993	722.812
13.746	9.152	1031.920	757.453
14.761	15.365	1039.770	792.585
15.775	17.557	1042.675	805.102
16.790	17.260	1041.419	802.662
17.804	16.390	1038.928	796.568
18.819	15.521	1037.545	791.345
19.834	15.110	1035.906	788.092
20.848	14.986	1034.411	786.302
21.863	14.579	1034.529	784.408
22.877	14.476	1033.456	783.040
23.892	14.236	1032.694	781.266
24.907	14.109	1031.768	779.902
25.921	14.071	1031.282	779.287
26.936	14.159	1030.437	778.994
27.950	14.024	1030.301	778.190
28.965	14.245	1029.093	778.241
29.980	14.210	1028.521	777.578
30.994	14.286	1026.931	776.660
32.009	14.223	1026.340	775.850
33.023	14.260	1025.779	775.530
34.038	14.251	1025.313	775.067
35.053	14.284	1024.051	774.200
36.067	14.299	1023.120	773.496
37.082	14.261	1022.124	772.500
38.096	14.205	1021.908	772.005
39.111	14.250	1021.329	771.712
40.126	14.360	1019.478	770.754
41.140	14.175	1019.035	769.496
42.155	14.178	1017.781	768.493
43.169	14.207	1016.840	767.847
44.184	14.108	1016.076	766.748
45.199	14.081	1014.996	765.740
46.213	14.123	1014.213	765.274
47.228	14.177	1013.165	764.661
48.242	14.178	1012.360	763.994
49.257	14.331	1011.244	763.785
50.271	14.206	1010.404	762.509
51.286	14.038	1009.882	761.278
52.301	14.260	1008.633	761.286
53.315	14.159	1007.847	760.164
54.330	14.200	1007.250	759.831
55.344	14.118	1006.061	758.494
56.359	14.153	1005.051	757.827
57.374	14.166	1004.243	757.209
58.388	14.098	1003.198	756.045
59.403	14.076	1002.701	755.504
60.417	14.105	1002.247	755.226
61.432	14.218	1001.120	754.823
62.447	14.123	1000.310	753.717
63.461	14.112	999.835	753.238
64.476	14.201	998.717	752.734
65.490	14.071	997.854	751.427
66.505	14.001	997.600	750.856
67.520	14.181	996.474	750.753
68.534	14.124	995.679	749.831
69.549	14.110	994.886	749.104
70.563	14.133	994.124	748.571
71.578	14.035	993.806	747.824
72.593	14.188	992.370	747.361
73.607	14.166	991.547	746.577
74.622	14.008	990.773	745.219
75.636	14.054	989.890	744.694
76.651	14.009	989.340	744.016
77.666	14.026	988.621	743.486
78.680	14.069	987.595	742.841
79.695	13.992	987.259	742.179
80.709	14.079	986.927	742.251
81.724	14.016	985.861	741.104
82.739	14.031	985.520	740.846
83.753	14.142	984.710	740.667
84.768	14.182	983.752	740.057
85.782	14.296	982.349	739.442
86.797	14.369	981.759	739.259
87.812	14.281	981.308	738.461
88.826	14.168	980.597	737.363
89.841	14.258	979.445	736.827
90.855	14.174	979.063	736.106
91.870	14.342	978.151	736.095
92.884	14.231	977.512	735.061
93.899	14.262	976.704	734.525
94.914	14.348	975.590	734.001
95.928	14.291	975.257	733.434
96.943	14.435	974.528	733.457
97.957	14.289	973.699	732.126
98.972	14.426	972.619	731.849
99.987	14.367	972.315	731.295
101.001	14.394	971.190	730.502
102.016	14.425	970.279	729.890
103.030	14.296	970.078	729.108
104.045	14.438	968.626	728.572
105.060	14.379	968.162	727.901
106.074	14.435	966.840	727.088
107.089	14.286	966.346	726.005
108.103	14.179	965.612	724.920
109.118	14.106	964.508	723.713
110.133	14.104	964.063	723.304
111.147	14.187	962.892	722.721
112.162	14.215	961.666	721.858
113.176	14.365	961.065	721.992
114.191	14.277	960.317	720.988
115.206	14.333	959.381	720.463
116.220	14.309	958.735	719.812
117.235	14.323	957.581	718.940
118.249	14.328	957.161	718.585
119.264	14.279	956.261	717.632
120.279	14.260	955.314	716.776
121.293	14.278	954.881	716.465
122.308	14.337	953.947	715.957
123.322	14.276	953.056	714.961
124.337	14.178	952.260	713.881
125.352	14.214	951.167	713.155
126.366	14.199	950.109	712.231
127.381	14.217	949.293	711.633
128.395	14.203	948.164	710.666
129.410	14.167	947.337	709.827
130.424	14.133	946.723	709.160
131.439	14.171	945.532	708.367
132.454	14.237	944.896	708.112
133.468	14.250	943.840	707.310
134.483	14.315	943.227	707.067
135.497	14.296	942.564	706.423
136.512	14.272	941.735	705.639
137.527	14.250	941.247	705.119
138.541	14.229	940.053	704.072
139.556	14.261	939.339	703.613
140.570	14.263	938.957	703.269
141.585	14.369	937.994	702.935
142.600	14.295	937.478	702.173
143.614	14.351	936.736	701.792
144.629	14.353	935.914	701.123
145.643	14.537	934.860	701.046
146.658	14.428	933.773	699.711
147.673	14.493	933.030	699.365
148.687	14.335	932.777	698.451
149.702	14.473	931.533	698.033
150.716	14.479	930.256	697.042
151.731	14.505	929.628	696.615
152.746	14.394	929.096	695.694
153.760	14.434	928.137	695.078
154.775	14.379	927.755	694.502
155.789	14.449	927.032	694.192
156.804	14.407	926.395	693.481
157.819	14.497	925.425	693.066
158.833	14.505	925.041	692.749
159.848	14.693	924.153	692.806
160.862	14.718	923.577	692.413
161.877	14.541	922.845	691.071
162.892	14.446	921.842	689.866
163.906	14.453	921.100	689.280
164.921	14.542	920.156	688.878
165.935	14.537	919.168	688.056
166.950	14.542	918.450	687.482
167.964	14.519	917.480	686.598
168.979	14.530	916.684	685.985
169.994	14.673	915.540	685.657
171.008	14.556	914.771	684.543
172.023	14.551	914.385	684.172
173.037	14.691	913.235	683.823
174.052	14.642	912.669	683.137
175.067	14.564	912.188	682.400
176.081	14.690	911.233	682.141
177.096	14.494	910.780	680.940
178.110	14.772	909.144	680.790
179.125	14.802	908.336	680.247
180.140	14.700	907.902	679.445
181.154	14.643	907.445	678.810
182.169	14.674	907.130	678.643
183.183	14.709	906.260	678.072
184.198	14.750	905.557	677.652
185.213	14.808	904.617	677.125
186.227	14.659	904.462	676.345
187.242	14.760	903.987	676.338
188.256	14.802	902.951	675.674
189.271	14.845	902.247	675.261
190.286	14.867	901.453	674.696
191.300	14.767	901.029	673.915
192.315	14.842	900.042	673.419
193.329	14.736	899.677	672.662
194.344	14.753	898.888	672.078
195.359	14.709	898.240	671.359
196.373	14.848	897.747	671.488
197.388	14.791	897.181	670.778
198.402	14.963	896.512	670.909
199.417	14.820	896.461	670.237
200.432	15.091	895.602	670.619
201.446	15.070	895.047	670.063
202.461	14.985	894.762	669.448
203.475	14.998	894.292	669.092
204.490	15.058	893.545	668.711
205.504	15.055	892.529	667.880
206.519	14.998	892.006	667.201
207.534	15.095	891.061	666.824
208.548	15.096	890.631	666.446
209.563	15.196	890.204	666.464
210.577	15.146	889.270	665.509
211.592	15.138	888.461	664.814
212.607	15.147	888.326	664.688
213.621	15.122	887.828	664.158
214.636	15.224	886.740	663.688
215.650	15.210	886.161	663.144
216.665	15.300	885.703	663.098
217.680	15.328	885.161	662.744
218.694	15.331	884.599	662.273
219.709	15.338	884.195	661.940
220.723	15.342	883.470	661.355
221.738	15.279	882.870	660.600
222.753	15.238	882.367	660.003
223.767	15.386	881.143	659.612
224.782	15.432	880.591	659.320
225.796	15.512	879.815	658.997
226.811	15.378	879.417	658.113
227.826	15.423	878.702	657.697
228.840	15.417	878.009	657.098
229.855	15.347	877.337	656.260
230.869	15.402	876.730	655.966
231.884	15.478	875.930	655.605
232.899	15.549	875.256	655.320
233.913	15.376	874.491	654.013
234.928	15.363	873.793	653.384
235.942	15.384	873.363	653.085
236.957	15.388	872.640	652.504
237.972	15.411	871.774	651.888
238.986	15.554	870.801	651.655
240.001	15.422	870.733	651.037
241.015	15.421	870.002	650.429
242.030	15.435	869.508	650.055
243.045	15.632	868.826	650.250
244.059	15.535	867.733	649.001
245.074	15.596	867.357	648.898
246.088	15.365	867.480	648.040
247.103	15.495	866.963	648.099
248.117	15.713	865.580	647.847
249.132	15.692	865.154	647.390
250.147	15.761	864.501	647.108
251.161	15.721	864.167	646.648
252.176	15.761	863.269	646.071
253.190	15.744	862.621	645.464
254.205	15.802	861.994	645.162
255.220	15.949	861.554	645.337
256.234	15.861	860.732	644.327
257.249	15.839	860.353	643.903
258.263	15.839	860.009	643.589
259.278	15.876	859.001	642.920
260.293	16.028	858.576	643.122
261.307	15.966	858.072	642.452
262.322	15.852	857.619	641.623
263.336	16.043	856.454	641.422
264.351	16.079	856.206	641.317
265.366	16.190	855.465	641.125
266.380	16.133	854.816	640.367
267.395	16.199	854.253	640.137
268.409	16.008	854.006	639.171
269.424	16.044	852.949	638.460
270.439	16.138	852.354	638.316
271.453	16.155	851.618	637.771
272.468	16.028	850.932	636.722
273.482	16.134	850.407	636.673
274.497	16.197	849.807	636.405
275.512	16.204	848.979	635.754
276.526	16.253	847.937	635.101
277.541	16.282	847.322	634.695
278.555	16.296	846.941	634.405
279.570	16.386	846.308	634.212
280.585	16.207	846.115	633.342
281.599	16.275	845.694	633.226
282.614	16.305	845.018	632.776
283.628	16.348	844.049	632.155
284.643	16.271	843.881	631.684
285.657	16.253	843.446	631.235
286.672	16.529	842.567	631.553
287.687	16.437	842.184	630.867
288.701	16.455	841.658	630.484
289.716	16.435	841.178	629.992
290.730	16.509	840.416	629.643
291.745	16.519	839.648	629.049
292.760	16.517	839.332	628.749
293.774	16.539	838.687	628.294
294.789	16.416	838.129	627.362
295.803	16.643	837.489	627.670
296.818	16.474	837.105	626.698
297.833	16.367	836.577	625.853
298.847	16.508	835.950	625.849
299.862	16.653	834.719	625.410
300.876	16.574	834.221	624.689
301.891	16.655	833.777	624.599
302.906	16.636	833.065	623.942
303.920	16.716	832.246	623.568
304.935	16.787	831.551	623.250
305.949	16.793	831.408	623.113
306.964	16.648	830.949	622.180
307.979	16.779	830.208	622.052
308.993	16.719	829.508	621.252
310.008	16.824	829.008	621.206
311.022	17.033	827.982	621.148
312.037	16.938	827.895	620.680
313.052	16.837	827.549	619.997
314.066	16.871	826.823	619.524
315.081	16.702	826.323	618.473
316.095	16.892	825.536	618.526
317.110	16.920	824.966	618.144
318.125	16.915	824.770	617.925
319.139	16.926	824.008	617.341
320.154	16.880	823.616	616.823
321.168	16.836	823.429	616.470
322.183	16.858	822.854	616.064
323.197	16.955	822.264	615.919
324.212	16.864	821.886	615.253
325.227	16.857	821.380	614.793
326.241	16.956	820.830	614.686
327.256	16.905	820.027	613.846
328.270	16.879	819.718	613.465
329.285	16.908	819.121	613.069
330.300	16.964	818.226	612.549
331.314	16.860	817.992	611.944
332.329	16.914	817.527	611.735
333.343	17.047	817.012	611.777
334.358	17.060	816.065	611.059
335.373	17.087	815.661	610.799
336.387	17.167	815.055	610.580
337.402	17.132	814.732	610.159
338.416	17.121	814.257	609.711
339.431	17.269	812.943	609.203
340.446	17.158	812.893	608.711
341.460	17.204	812.241	608.335
342.475	17.083	812.050	607.706
343.489	17.211	811.492	607.691
344.504	17.208	810.854	607.151
345.519	17.276	810.444	607.032
346.533	17.307	809.621	606.471
347.548	17.347	809.377	606.380
348.562	17.337	808.972	605.984
349.577	17.379	808.032	605.377
350.592	17.397	807.640	605.095
351.606	17.238	807.331	604.244
352.621	17.258	807.079	604.074
353.635	17.329	806.660	603.957
354.650	17.315	806.223	603.527
355.665	17.354	805.643	603.179
356.679	17.298	805.290	602.661
357.694	17.377	804.676	602.430
358.708	17.311	804.448	601.972
359.723	17.513	803.448	601.882
360.738	17.480	803.046	601.413
361.752	17.383	802.559	600.653
362.767	17.583	802.016	600.898
363.781	17.493	801.664	600.263
364.796	17.604	801.508	600.484
365.810	17.591	801.227	600.175
366.825	17.648	800.536	599.807
367.840	17.899	799.968	600.211
368.854	17.722	799.778	599.392
369.869	17.728	799.361	599.049
370.883	17.683	798.830	598.439
371.898	17.687	798.232	597.952
372.913	17.776	797.338	597.543
373.927	17.734	796.733	596.889
374.942	17.767	796.224	596.571
375.956	17.754	795.612	596.013
376.971	17.777	795.242	595.764
377.986	17.771	794.908	595.440
379.000	17.775	794.405	595.025
380.015	17.791	793.835	594.598
381.029	17.832	793.237	594.240
382.044	17.820	792.725	593.765
383.059	17.960	792.233	593.831
384.073	18.041	791.315	593.371
385.088	17.896	791.342	592.834
386.102	17.930	790.189	592.037
387.117	18.009	789.926	592.060
388.132	18.125	789.471	592.069
389.146	17.978	789.419	591.470
390.161	17.991	788.910	591.080
391.175	18.035	788.401	590.799
392.190	18.010	787.919	590.298
393.205	18.051	787.814	590.311
394.219	18.077	786.972	589.716
395.234	18.044	786.830	589.442
396.248	18.073	786.125	588.964
397.263	18.090	785.833	588.749
398.278	17.929	785.238	587.698
399.292	18.163	784.675	588.029
400.307	18.069	784.232	587.323
401.321	17.954	784.304	586.930
402.336	17.953	783.864	586.544
403.350	18.057	783.195	586.351
404.365	18.109	782.879	586.238
405.380	18.298	782.302	586.402
406.394	18.342	781.526	585.919
407.409	18.245	781.273	585.346
408.423	18.326	780.749	585.181
409.438	18.458	780.147	585.127
410.453	18.343	780.165	584.696
411.467	18.339	779.916	584.443
412.482	18.438	779.127	584.139
413.496	18.466	778.534	583.736
414.511	18.539	778.235	583.711
415.526	18.510	778.194	583.528
416.540	18.306	777.753	582.452
417.555	18.502	777.522	582.895
418.569	18.478	776.696	582.144
419.584	18.524	776.104	581.804
420.599	18.677	775.821	582.058
421.613	115.447	1294.248	1482.793
422.628	98.967	1369.731	1482.859
