DTS Sentinel unit serial number:	SN413079Multiplexer serial number:	ORYXHardware model number:	OX4-SRSoftware version number:	ORYX F/W v4.00 Oryx Data Collector v3.7.2.0data status	okinstallation	princeton_trtdifferential loss correction	single-endedforward channel	channel 3reverse channel	N/Adate	2019/09/14time	20:04:35forward acquisition time	60.00reverse acquisition time	0.00gamma	496.2192k internal	0.2314k external	0.2314temperature offset calibration	1.0011default loss term (dB/km)	0.3790temperature slope calibration	1.0000multiplexer offset coefficient	1.0000multiplexer slope coefficient	1.0000fibre end	0.00T internal ref (°C)	34.00T ext. ref 1 (°C)	4.87T ext. ref 2 (°C)	28.33length (m)	temperature (°C)	Stokes	anti-Stokes-747.200	150.564	0.102	-0.140
-746.185	2.836	-0.315	0.232
-745.171	-200.000	0.011	-0.141
-744.156	303.003	-0.222	0.416
-743.142	126.383	0.222	0.285
-742.127	-43.054	-0.093	0.048
-741.112	217.348	0.238	0.384
-740.098	206.026	-0.223	0.352
-739.083	-20.104	0.349	0.218
-738.069	151.888	-0.159	0.219
-737.054	272.103	-0.122	0.217
-736.039	217.830	-0.125	-0.203
-735.025	-125.043	0.274	0.043
-734.010	2.032	-0.184	-0.135
-732.996	-65.098	-0.122	-0.050
-731.981	800.000	0.043	0.160
-730.966	140.456	0.114	0.152
-729.952	-200.000	-0.012	-0.291
-728.937	-12.923	-0.175	-0.115
-727.923	46.028	-0.166	0.156
-726.908	-111.935	-0.075	0.015
-725.894	-127.999	0.072	0.010
-724.879	-146.280	0.283	-0.025
-723.864	-96.721	0.066	-0.017
-722.850	-23.010	0.448	0.274
-721.835	-200.000	0.094	0.482
-720.821	223.395	0.133	-0.218
-719.806	86.415	0.145	-0.162
-718.791	157.437	-0.226	-0.317
-717.777	36.874	-0.258	-0.231
-716.762	323.555	-0.079	-0.153
-715.748	-200.000	0.067	0.362
-714.733	146.368	-0.158	-0.214
-713.718	338.939	0.050	0.100
-712.704	8.350	0.171	-0.130
-711.689	800.000	-0.050	0.142
-710.675	21.726	0.161	-0.132
-709.660	46.213	0.137	0.128
-708.645	-119.490	0.203	-0.036
-707.631	188.004	0.132	-0.200
-706.616	10.881	-0.186	0.144
-705.602	-200.000	-0.032	-0.240
-704.587	-29.435	-0.127	-0.074
-703.572	-44.510	-0.305	0.154
-702.558	133.272	0.169	0.220
-701.543	-200.000	-0.010	0.205
-700.529	-200.000	0.041	-0.560
-699.514	-111.987	0.411	0.084
-698.499	-119.428	0.111	0.020
-697.485	109.570	0.239	0.290
-696.470	765.060	0.087	0.239
-695.456	-152.848	-0.085	0.006
-694.441	-62.996	0.456	0.190
-693.426	-200.000	-0.001	-0.082
-692.412	173.051	-0.175	-0.255
-691.397	-44.160	-0.039	-0.020
-690.383	-30.265	0.234	-0.134
-689.368	-195.725	-0.526	-0.004
-688.354	72.893	-0.037	0.039
-687.339	-11.521	-0.289	0.192
-686.324	-176.313	-0.272	-0.007
-685.310	626.599	0.048	-0.123
-684.295	-200.000	-0.008	0.169
-683.281	-76.033	0.124	-0.044
-682.266	21.470	0.128	0.106
-681.251	-85.264	-0.205	0.065
-680.237	43.494	0.224	0.207
-679.222	471.221	0.054	0.122
-678.208	160.282	-0.103	0.146
-677.193	-94.796	0.254	0.070
-676.178	-46.349	-0.249	-0.124
-675.164	-9.831	-0.125	0.084
-674.149	93.728	0.207	-0.237
-673.135	70.566	0.172	0.180
-672.120	-200.000	0.014	-0.064
-671.105	317.866	-0.089	0.170
-670.091	800.000	0.059	-0.169
-669.076	75.929	-0.241	-0.258
-668.062	333.905	-0.119	-0.232
-667.047	-99.049	0.201	-0.052
-666.032	-200.000	-0.003	-0.049
-665.018	436.159	-0.087	0.190
-664.003	-2.698	0.221	0.156
-662.989	25.602	-0.075	-0.063
-661.974	800.000	0.077	-0.258
-660.959	-200.000	-0.006	-0.084
-659.945	-200.000	-0.028	0.278
-658.930	46.681	0.215	-0.201
-657.916	38.112	0.313	-0.281
-656.901	-171.903	-0.396	-0.013
-655.886	-97.944	0.276	-0.072
-654.872	-200.000	0.002	0.187
-653.857	33.639	-0.022	0.019
-652.843	66.757	0.173	-0.177
-651.828	523.025	0.086	-0.203
-650.814	250.315	-0.056	0.096
-649.799	306.002	-0.053	0.100
-648.784	-7.456	0.133	0.091
-647.770	-71.747	0.329	0.124
-646.755	-48.086	-0.151	0.074
-645.741	800.000	-0.065	-0.187
-644.726	160.145	0.182	-0.257
-643.711	593.927	0.073	-0.182
-642.697	-200.000	-0.034	0.220
-641.682	-159.934	0.114	-0.006
-640.668	-105.118	0.158	0.036
-639.653	-200.000	0.016	-0.089
-638.638	-155.606	-0.116	-0.008
-637.624	-149.928	-0.351	-0.028
-636.609	-61.400	-0.163	0.069
-635.595	-200.000	0.056	-0.276
-634.580	800.000	0.054	-0.172
-633.565	106.514	-0.210	-0.251
-632.551	77.186	0.174	-0.187
-631.536	218.716	0.058	-0.093
-630.522	-156.879	-0.325	-0.020
-629.507	102.193	-0.089	-0.106
-628.492	-200.000	-0.014	-0.068
-627.478	-79.726	0.158	0.054
-626.463	-200.000	0.005	-0.336
-625.449	800.000	0.084	-0.309
-624.434	32.534	-0.063	0.055
-623.419	-39.401	-0.325	0.172
-622.405	514.958	-0.048	0.113
-621.390	-158.013	-0.218	-0.013
-620.376	-200.000	-0.026	-0.374
-619.361	-177.642	0.094	0.002
-618.346	-137.991	-0.189	0.021
-617.332	372.799	0.247	-0.506
-616.317	21.996	-0.350	0.288
-615.303	-67.945	0.110	0.043
-614.288	419.622	-0.084	0.182
-613.273	-57.067	0.155	0.069
-612.259	23.138	-0.268	0.222
-611.244	800.000	0.110	-0.351
-610.230	25.161	-0.261	-0.218
-609.215	701.407	-0.104	0.275
-608.201	69.574	0.134	0.139
-607.186	-128.935	-0.102	-0.014
-606.171	304.557	0.148	-0.278
-605.157	-40.433	-0.198	0.104
-604.142	77.340	-0.234	-0.251
-603.128	-116.588	0.190	-0.035
-602.113	800.000	-0.017	-0.066
-601.098	479.585	0.102	-0.233
-600.084	800.000	-0.082	-0.235
-599.069	-48.068	0.193	0.094
-598.055	16.355	-0.426	0.339
-597.040	673.590	-0.067	-0.176
-596.025	800.000	-0.040	0.154
-595.011	251.358	-0.111	0.191
-593.996	440.897	-0.033	-0.073
-592.982	66.111	0.241	-0.246
-591.967	-62.972	-0.097	0.041
-590.952	20.097	-0.020	0.016
-589.938	-200.000	0.002	0.530
-588.923	-200.000	0.017	0.107
-587.909	-49.789	0.108	0.052
-586.894	16.257	0.092	0.073
-585.879	212.097	-0.102	0.161
-584.865	-17.057	-0.119	0.076
-583.850	-200.000	0.015	0.409
-582.836	-47.946	0.227	-0.111
-581.821	-200.000	0.072	-0.420
-580.806	800.000	0.063	0.188
-579.792	-48.871	-0.148	-0.071
-578.777	204.699	-0.022	-0.034
-577.763	-101.488	0.165	-0.040
-576.748	644.798	0.090	-0.232
-575.733	-88.552	-0.220	-0.066
-574.719	800.000	0.103	0.295
-573.704	-200.000	0.006	0.300
-572.690	43.374	-0.117	-0.108
-571.675	82.518	0.088	-0.097
-570.661	-200.000	-0.033	-0.194
-569.646	-200.000	-0.019	-0.334
-568.631	800.000	0.064	0.237
-567.617	77.895	-0.130	-0.140
-566.602	401.601	-0.100	-0.212
-565.588	-93.135	-0.040	0.011
-564.573	800.000	0.088	0.276
-563.558	-35.450	0.048	-0.026
-562.544	18.962	-0.124	-0.100
-561.529	43.122	-0.351	-0.322
-560.515	12.232	-0.217	0.169
-559.500	-48.172	0.475	-0.231
-558.485	424.875	0.047	0.102
-557.471	237.165	0.117	-0.195
-556.456	-200.000	0.010	-0.130
-555.442	123.872	0.111	-0.140
-554.427	-47.938	0.241	-0.117
-553.412	53.489	0.221	0.214
-552.398	138.884	0.109	-0.144
-551.383	-200.000	0.022	-0.215
-550.369	16.069	-0.108	0.086
-549.354	-67.069	0.246	0.098
-548.339	-115.985	0.123	0.023
-547.325	391.868	-0.054	0.112
-546.310	-137.469	0.306	-0.035
-545.296	8.521	-0.055	0.041
-544.281	727.274	-0.102	0.274
-543.266	-66.563	0.238	0.095
-542.252	126.814	0.110	0.141
-541.237	-76.763	-0.154	-0.054
-540.223	326.231	0.041	0.078
-539.208	-161.466	0.143	0.007
-538.193	-171.104	0.203	0.007
-537.179	800.000	0.063	0.252
-536.164	107.805	-0.208	0.249
-535.150	-45.947	0.140	-0.070
-534.135	-45.880	0.133	-0.066
-533.121	146.594	-0.209	0.282
-532.106	-78.552	-0.334	-0.115
-531.091	3.017	-0.314	0.230
-530.077	800.000	-0.036	-0.120
-529.062	800.000	-0.129	-0.558
-528.048	378.137	0.076	-0.155
-527.033	57.094	-0.066	-0.065
-526.018	104.127	-0.071	-0.084
-525.004	177.284	0.042	0.061
-523.989	56.369	0.025	0.025
-522.975	-117.511	0.263	-0.048
-521.960	193.525	-0.160	-0.243
-520.945	-102.416	0.067	0.016
-519.931	-200.000	-0.014	0.000
-518.916	62.949	0.091	-0.091
-517.902	86.044	0.218	-0.241
-516.887	800.000	-0.117	-0.403
-515.872	130.471	-0.084	0.108
-514.858	-86.498	0.388	0.120
-513.843	-200.000	-0.017	-0.078
-512.829	-45.095	0.109	-0.055
-511.814	401.154	0.044	0.094
-510.799	800.000	-0.037	0.141
-509.785	-200.000	0.068	0.419
-508.770	63.325	-0.112	0.113
-507.756	-3.251	-0.103	0.072
-506.741	48.911	0.200	0.188
-505.726	-61.763	0.202	0.085
-504.712	19.689	0.183	-0.148
-503.697	-97.071	-0.076	-0.020
-502.683	-193.705	0.294	-0.003
-501.668	477.247	-0.042	-0.096
-500.653	-200.000	-0.004	0.275
-499.639	-9.905	0.062	0.041
-498.624	286.203	-0.126	0.228
-497.610	266.630	-0.072	0.127
-496.595	-114.780	-0.261	0.050
-495.581	-191.213	-0.367	0.004
-494.566	124.868	0.096	-0.121
-493.551	800.000	-0.046	0.157
-492.537	-200.000	0.009	0.163
-491.522	-69.762	-0.180	-0.069
-490.508	-41.128	0.323	0.167
-489.493	2.942	0.155	0.113
-488.478	86.394	0.103	0.114
-487.464	223.985	-0.218	0.354
-486.449	-141.813	-0.112	-0.011
-485.435	-200.000	-0.047	-0.322
-484.420	19.971	0.374	-0.302
-483.405	-59.986	-0.111	-0.048
-482.391	64.621	0.111	0.112
-481.376	-68.861	0.140	0.054
-480.362	-87.424	-0.254	0.077
-479.347	335.195	0.178	-0.346
-478.332	-21.374	-0.131	0.081
-477.318	221.487	-0.108	0.175
-476.303	-116.381	-0.098	0.018
-475.289	-200.000	0.001	-0.060
-474.274	-91.458	0.156	-0.045
-473.259	-200.000	0.007	-0.457
-472.245	-57.403	0.247	-0.109
-471.230	-87.682	-0.150	-0.045
-470.216	27.558	0.165	-0.139
-469.201	800.000	0.061	0.250
-468.186	-123.748	0.245	0.039
-467.172	512.273	0.036	-0.084
-466.157	17.340	-0.292	0.233
-465.143	-200.000	-0.008	0.246
-464.128	-9.669	-0.170	-0.113
-463.113	-34.851	-0.006	0.003
-462.099	-200.000	0.014	-0.375
-461.084	170.380	-0.152	0.219
-460.070	-38.621	0.290	-0.154
-459.055	57.789	-0.238	-0.234
-458.040	-132.141	0.273	-0.036
-457.026	-74.080	-0.182	0.066
-456.011	-200.000	0.024	-0.109
-454.997	-77.282	0.059	0.020
-453.982	-119.240	0.376	-0.066
-452.968	163.931	-0.154	-0.217
-451.953	0.289	-0.376	-0.269
-450.938	-1.937	0.127	0.090
-449.924	-200.000	0.020	-0.281
-448.909	-169.274	-0.171	0.006
-447.895	-83.081	-0.287	-0.093
-446.880	-200.000	-0.022	0.199
-445.865	-84.804	-0.225	0.071
-444.851	800.000	0.022	0.077
-443.836	800.000	-0.028	-0.111
-442.822	-39.184	-0.195	0.103
-441.807	-153.955	-0.207	0.014
-440.792	402.993	-0.039	-0.083
-439.778	18.966	0.106	-0.085
-438.763	-108.978	0.263	0.056
-437.749	-151.792	0.345	-0.025
-436.734	187.442	-0.151	0.225
-435.719	50.006	-0.193	0.183
-434.705	688.065	-0.058	0.153
-433.690	382.226	-0.052	-0.107
-432.676	-65.735	-0.204	0.082
-431.661	-200.000	-0.010	0.098
-430.646	-200.000	0.018	-0.082
-429.632	-171.384	0.129	0.004
-428.617	-104.543	-0.134	-0.031
-427.603	-200.000	0.022	0.207
-426.588	42.490	-0.143	-0.130
-425.573	-60.564	0.309	-0.131
-424.559	455.112	0.022	0.049
-423.544	121.404	0.077	0.096
-422.530	-200.000	0.025	0.199
-421.515	1.844	-0.252	0.182
-420.500	-162.644	-0.104	-0.005
-419.486	800.000	0.018	0.052
-418.471	277.289	-0.100	-0.179
-417.457	58.907	-0.089	0.088
-416.442	-104.037	0.155	0.036
-415.428	-66.172	-0.254	-0.101
-414.413	800.000	0.105	-0.339
-413.398	-44.111	-0.094	-0.047
-412.384	-200.000	-0.043	0.285
-411.369	124.837	-0.142	-0.179
-410.355	-125.307	0.227	-0.035
-409.340	205.506	0.131	0.203
-408.325	800.000	0.112	0.380
-407.311	-122.634	-0.102	-0.017
-406.296	-104.430	0.278	-0.064
-405.282	-107.354	-0.347	-0.076
-404.267	-172.547	-0.317	0.010
-403.252	800.000	0.082	-0.260
-402.238	112.625	-0.128	-0.155
-401.223	51.771	0.099	-0.095
-400.209	115.508	-0.103	-0.126
-399.194	-200.000	-0.007	-0.172
-398.179	79.064	-0.231	-0.248
-397.165	-58.984	0.279	-0.121
-396.150	-117.392	-0.326	-0.059
-395.136	-200.000	0.067	0.369
-394.121	800.000	0.030	0.114
-393.106	103.187	0.143	-0.167
-392.092	505.317	0.165	0.383
-391.077	-200.000	-0.005	0.255
-390.063	-53.608	0.101	0.046
-389.048	-0.180	0.103	0.073
-388.033	155.985	0.028	0.039
-387.019	800.000	0.053	-0.151
-386.004	182.443	-0.251	0.370
-384.990	330.771	-0.081	0.155
-383.975	-144.266	0.216	0.020
-382.960	-200.000	-0.004	0.024
-381.946	-62.712	0.073	-0.030
-380.931	127.086	0.125	0.159
-379.917	-115.984	-0.175	0.033
-378.902	148.529	-0.067	0.091
-377.888	119.155	-0.260	0.322
-376.873	80.180	0.278	-0.299
-375.858	615.027	0.150	-0.375
-374.844	-114.729	0.164	-0.031
-373.829	94.302	-0.197	0.224
-372.815	800.000	0.057	0.209
-371.800	-1.619	-0.222	0.156
-370.785	-67.496	-0.029	0.011
-369.771	-200.000	0.012	-0.291
-368.756	69.031	-0.079	-0.081
-367.742	7.790	-0.250	0.187
-366.727	333.780	-0.128	0.247
-365.712	347.965	-0.078	-0.154
-364.698	-200.000	0.022	-0.197
-363.683	146.849	0.177	0.238
-362.669	-114.503	-0.212	0.041
-361.654	-10.505	-0.148	0.098
-360.639	-119.980	-0.265	0.045
-359.625	-144.013	0.194	-0.018
-358.610	-106.327	-0.126	-0.028
-357.596	309.728	0.036	-0.068
-356.581	-89.789	0.047	0.014
-355.566	683.726	0.176	0.457
-354.552	489.530	0.130	0.296
-353.537	-114.159	-0.422	-0.081
-352.523	-118.554	0.191	0.034
-351.508	275.328	-0.105	0.185
-350.493	39.346	0.063	0.056
-349.479	-178.154	0.148	-0.003
-348.464	-200.000	-0.030	-0.161
-347.450	322.272	0.008	-0.016
-346.435	150.864	-0.022	-0.031
-345.420	-117.438	0.158	-0.029
-344.406	-4.237	-0.133	-0.092
-343.391	708.427	0.065	-0.173
-342.377	-90.036	0.320	0.093
-341.362	-200.000	-0.037	0.163
-340.348	59.767	-0.094	0.093
-339.333	23.371	0.233	0.191
-338.318	360.536	-0.169	0.338
-337.304	314.173	0.030	0.056
-336.289	154.054	-0.069	-0.094
-335.275	15.762	0.030	-0.024
-334.260	-11.444	-0.168	0.110
-333.245	210.969	0.079	0.124
-332.231	800.000	0.033	-0.107
-331.216	-113.171	0.165	-0.032
-330.202	-90.801	-0.252	-0.072
-329.187	800.000	-0.081	-0.281
-328.172	800.000	-0.061	0.194
-327.158	29.486	0.229	0.194
-326.143	191.526	-0.057	-0.086
-325.129	800.000	0.081	0.320
-324.114	-79.898	0.217	0.073
-323.099	161.569	-0.082	0.114
-322.085	31.758	0.282	-0.242
-321.070	-197.294	-0.036	0.000
-320.056	107.202	0.012	-0.015
-319.041	-200.000	0.008	-0.398
-318.026	220.846	0.109	0.174
-317.012	-25.825	-0.244	-0.143
-315.997	-52.902	0.119	-0.054
-314.983	-45.524	0.231	0.114
-313.968	-6.404	-0.152	-0.103
-312.953	394.251	0.034	-0.070
-311.939	-102.718	-0.132	-0.031
-310.924	-45.618	-0.347	-0.171
-309.910	142.525	-0.072	-0.095
-308.895	800.000	-0.122	-0.378
-307.880	-200.000	-0.029	0.180
-306.866	-83.590	0.023	0.007
-305.851	-148.456	0.100	-0.008
-304.837	-200.000	0.079	0.470
-303.822	800.000	0.131	-0.366
-302.807	199.039	-0.077	-0.117
-301.793	689.242	-0.070	0.182
-300.778	-49.693	-0.208	0.099
-299.764	-100.393	0.239	0.059
-298.749	-46.232	-0.079	-0.039
-297.735	63.728	-0.097	0.097
-296.720	32.059	0.287	0.246
-295.705	-200.000	-0.047	0.284
-294.691	-18.578	-0.136	0.084
-293.676	145.664	0.138	-0.184
-292.662	134.445	-0.016	-0.021
-291.647	-42.511	0.058	0.030
-290.632	-63.666	-0.198	-0.081
-289.618	800.000	0.157	0.499
-288.603	-200.000	-0.027	-0.142
-287.589	241.438	0.279	0.464
-286.574	-200.000	0.049	-0.260
-285.559	322.423	0.021	0.039
-284.545	121.141	0.168	0.208
-283.530	-200.000	0.015	-0.186
-282.516	-167.129	0.167	0.007
-281.501	686.586	-0.113	0.295
-280.486	431.237	0.142	-0.306
-279.472	-200.000	-0.018	0.280
-278.457	0.137	0.137	0.098
-277.443	65.813	-0.169	-0.170
-276.428	-200.000	-0.024	-0.177
-275.413	307.908	-0.059	0.110
-274.399	-200.000	-0.010	0.295
-273.384	-200.000	0.022	-0.128
-272.370	800.000	0.085	0.320
-271.355	-127.290	0.148	0.022
-270.340	-34.829	-0.471	0.256
-269.326	-200.000	-0.068	-0.371
-268.311	-200.000	-0.022	-0.119
-267.297	248.061	0.115	-0.194
-266.282	-157.682	-0.249	0.015
-265.267	-200.000	0.004	-0.173
-264.253	-125.257	-0.240	0.037
-263.238	-44.599	0.130	0.065
-262.224	-200.000	-0.025	0.175
-261.209	-14.081	-0.200	0.129
-260.195	142.488	0.053	0.070
-259.180	207.098	-0.163	0.253
-258.165	-200.000	0.036	-0.306
-257.151	54.408	-0.130	-0.125
-256.136	-149.330	-0.087	-0.007
-255.122	-98.562	-0.182	0.046
-254.107	-141.036	-0.088	-0.009
-253.092	-100.130	0.436	0.108
-252.078	108.960	-0.149	-0.177
-251.063	52.458	-0.080	0.076
-250.049	615.336	0.033	0.081
-249.034	31.224	-0.164	0.140
-248.019	-200.000	0.026	0.159
-247.005	800.000	-0.122	0.356
-245.990	-113.199	-0.344	0.067
-244.976	-200.000	-0.000	-0.354
-243.961	293.512	-0.027	0.049
-242.946	21.565	0.120	0.097
-241.932	800.000	-0.068	0.198
-240.917	-113.312	0.183	-0.036
-239.903	109.452	0.093	-0.110
-238.888	-99.195	-0.258	0.065
-237.873	713.211	-0.075	-0.197
-236.859	-200.000	-0.005	0.217
-235.844	-14.344	-0.096	0.061
-234.830	89.246	0.101	0.112
-233.815	245.353	0.154	-0.258
-232.800	49.959	-0.177	0.166
-231.786	81.992	0.256	0.275
-230.771	200.020	-0.111	0.169
-229.757	-200.000	0.021	-0.168
-228.742	-91.656	0.284	0.080
-227.727	-104.175	-0.391	0.090
-226.713	-105.782	-0.135	-0.030
-225.698	42.336	-0.161	-0.145
-224.684	462.008	0.107	-0.238
-223.669	-33.662	0.306	-0.168
-222.655	-44.339	-0.198	0.098
-221.640	361.264	0.135	-0.269
-220.625	129.706	-0.148	-0.188
-219.611	-86.772	-0.158	0.048
-218.596	-200.000	-0.019	-0.086
-217.582	-126.670	0.237	-0.035
-216.567	117.497	0.251	-0.306
-215.552	460.267	-0.100	-0.221
-214.538	747.229	-0.086	-0.229
-213.523	184.437	0.177	-0.261
-212.509	800.000	0.074	-0.210
-211.494	-68.568	-0.065	0.025
-210.479	55.540	0.016	0.015
-209.465	262.072	0.096	-0.165
-208.450	686.461	-0.110	-0.284
-207.436	532.614	-0.040	0.093
-206.421	323.661	-0.069	-0.131
-205.406	-200.000	-0.017	-0.095
-204.392	158.139	-0.057	0.078
-203.377	151.686	0.286	-0.387
-202.363	-54.007	-0.123	-0.056
-201.348	-200.000	0.016	0.176
-200.333	800.000	-0.055	-0.155
-199.319	201.678	-0.080	-0.122
-198.304	-19.954	0.160	0.098
-197.290	-21.946	0.242	0.146
-196.275	697.932	0.087	-0.226
-195.260	-200.000	0.011	0.411
-194.246	-45.475	-0.325	0.160
-193.231	-108.864	0.099	0.021
-192.217	263.509	0.103	-0.178
-191.202	-105.925	0.242	-0.054
-190.187	800.000	-0.027	0.081
-189.173	25.648	0.530	-0.437
-188.158	-52.086	-0.179	0.083
-187.144	-109.227	-0.095	-0.020
-186.129	70.037	0.162	0.166
-185.114	-105.490	0.519	0.117
-184.100	89.148	-0.217	-0.240
-183.085	-200.000	-0.058	-0.263
-182.071	31.551	0.091	-0.078
-181.056	65.279	0.263	-0.264
-180.042	172.632	0.084	-0.120
-179.027	5.877	0.182	0.134
-178.012	31.117	0.209	0.178
-176.998	800.000	0.033	-0.119
-175.983	13.211	0.030	-0.023
-174.969	-30.102	-0.085	0.048
-173.954	-102.542	0.273	-0.065
-172.939	-103.246	-0.097	0.023
-171.925	566.841	-0.039	-0.093
-170.910	-82.753	0.096	0.031
-169.896	105.505	-0.089	0.104
-168.881	800.000	-0.075	0.287
-167.866	-200.000	0.003	-0.142
-166.852	47.993	0.283	0.262
-165.837	98.826	-0.207	0.236
-164.823	-190.878	0.164	0.002
-163.808	497.012	0.084	0.190
-162.793	-200.000	0.000	-0.006
-161.779	-54.909	0.167	-0.075
-160.764	-193.933	0.243	0.002
-159.750	410.584	-0.212	-0.445
-158.735	-64.011	-0.227	-0.092
-157.720	654.220	-0.032	-0.081
-156.706	94.692	-0.047	0.053
-155.691	184.170	-0.160	0.235
-154.677	-150.209	0.250	-0.019
-153.662	-200.000	0.056	0.336
-152.647	-64.794	-0.177	-0.071
-151.633	800.000	0.049	0.135
-150.618	25.417	-0.205	0.169
-149.604	564.436	0.087	0.210
-148.589	253.842	0.029	0.049
-147.574	-200.000	0.019	-0.129
-146.560	336.836	-0.137	0.263
-145.545	-200.000	-0.009	0.397
-144.531	-23.267	0.277	-0.165
-143.516	800.000	0.033	0.130
-142.502	56.461	-0.163	0.157
-141.487	473.776	-0.055	0.123
-140.472	-75.601	0.123	0.043
-139.458	486.066	-0.023	-0.051
-138.443	-108.998	-0.046	0.010
-137.429	21.818	-0.026	0.021
-136.414	-141.058	0.257	-0.026
-135.399	-25.254	-0.221	0.130
-134.385	565.737	0.135	-0.325
-133.370	797.764	0.039	0.107
-132.356	240.640	0.062	0.103
-131.341	-126.328	-0.098	-0.015
-130.326	800.000	0.039	-0.122
-129.312	36.952	-0.056	-0.049
-128.297	-200.000	0.013	0.185
-127.283	59.931	-0.181	0.177
-126.268	49.922	-0.207	0.193
-125.253	-200.000	0.005	0.073
-124.239	-200.000	0.052	-0.413
-123.224	-92.325	0.285	0.080
-122.210	50.242	-0.145	0.135
-121.195	201.710	0.043	0.066
-120.180	-165.324	-0.060	-0.003
-119.166	-200.000	-0.054	0.245
-118.151	-200.000	0.016	0.368
-117.137	800.000	-0.096	0.315
-116.122	-5.429	-0.244	-0.166
-115.107	-200.000	0.009	0.143
-114.093	25.036	-0.252	-0.207
-113.078	24.467	0.182	-0.149
-112.064	800.000	-0.072	-0.262
-111.049	-200.000	-0.036	-0.280
-110.034	-163.842	0.261	0.012
-109.020	-94.505	-0.141	-0.038
-108.005	-121.700	0.374	0.061
-106.991	-104.710	0.116	-0.026
-105.976	451.196	0.093	-0.204
-104.962	-0.674	-0.069	0.048
-103.947	-0.917	0.228	-0.159
-102.932	-137.735	-0.342	-0.038
-101.918	-82.122	0.247	-0.080
-100.903	-36.844	0.212	0.112
-99.889	94.217	-0.086	-0.097
-98.874	800.000	-0.042	0.164
-97.859	800.000	-0.137	0.377
-96.845	-200.000	-0.022	-0.168
-95.830	-117.922	-0.292	-0.052
-94.816	800.000	-0.064	0.204
-93.801	-46.441	0.399	-0.194
-92.786	-200.000	0.003	-0.105
-91.772	800.000	0.075	-0.283
-90.757	-83.212	-0.276	-0.088
-89.743	178.418	0.195	0.281
-88.728	-200.000	0.051	-0.241
-87.713	406.618	-0.081	-0.170
-86.699	561.512	-0.094	0.224
-85.684	-200.000	0.010	-0.087
-84.670	-97.766	-0.210	0.054
-83.655	-9.565	0.167	-0.110
-82.640	241.656	0.238	0.392
-81.626	-168.598	-0.259	0.010
-80.611	-15.837	0.047	-0.030
-79.597	461.054	-0.037	0.082
-78.582	-60.914	-0.217	0.090
-77.567	23.552	0.193	-0.157
-76.553	-200.000	-0.004	0.319
-75.538	415.470	-0.050	-0.105
-74.524	800.000	0.098	-0.339
-73.509	800.000	-0.023	-0.066
-72.494	800.000	-0.008	-0.032
-71.480	-20.879	-0.162	0.098
-70.465	-85.787	0.181	-0.055
-69.451	-39.337	-0.146	0.076
-68.436	-95.535	0.361	-0.096
-67.422	-80.460	0.138	-0.045
-66.407	67.841	-0.117	0.118
-65.392	2.706	-0.154	0.111
-64.378	479.906	-0.049	0.110
-63.363	35.126	0.276	-0.239
-62.349	342.146	-0.059	0.113
-61.334	13.927	-1.096	-0.841
-60.319	-4.349	0.577	0.394
-59.305	743.001	-0.295	-0.784
-58.290	383.628	0.627	1.274
-57.276	800.000	0.652	1.885
-56.261	-200.000	96.683	573.337
-55.246	623.288	1393.117	3462.924
-54.232	191.286	2584.437	3838.755
-53.217	118.383	2177.652	2650.923
-52.203	44.248	1715.421	1553.104
-51.188	37.202	1527.216	1334.442
-50.173	34.831	1500.710	1295.184
-49.159	54.550	1549.487	1473.371
-48.144	56.770	1568.289	1506.463
-47.130	37.487	1526.143	1335.246
-46.115	34.392	1510.852	1300.739
-45.100	34.092	1507.889	1296.093
-44.086	34.073	1505.562	1293.909
-43.071	33.907	1504.293	1291.638
-42.057	33.961	1502.497	1290.413
-41.042	34.032	1500.806	1289.394
-40.027	34.013	1499.859	1288.399
-39.013	34.038	1498.183	1287.074
-37.998	33.922	1496.986	1285.211
-36.984	34.005	1495.817	1284.715
-35.969	33.972	1494.634	1283.426
-34.954	34.006	1492.841	1282.065
-33.940	33.919	1491.596	1280.363
-32.925	33.983	1490.617	1279.899
-31.911	34.043	1488.778	1278.677
-30.896	34.057	1487.695	1277.785
-29.881	34.096	1486.241	1276.746
-28.867	34.027	1485.160	1275.307
-27.852	34.138	1483.047	1274.185
-26.838	34.129	1481.617	1272.846
-25.823	34.055	1480.701	1271.514
-24.809	34.025	1479.255	1270.021
-23.794	34.012	1477.689	1268.539
-22.779	33.923	1476.279	1266.689
-21.765	34.179	1474.720	1267.002
-20.750	34.090	1473.825	1265.593
-19.736	33.969	1473.418	1264.383
-18.721	33.954	1472.393	1263.354
-17.706	33.986	1471.046	1262.361
-16.692	34.018	1469.858	1261.503
-15.677	33.994	1469.113	1260.660
-14.663	34.017	1467.992	1259.798
-13.648	33.922	1467.367	1258.581
-12.633	33.921	1466.592	1257.859
-11.619	33.927	1465.616	1257.010
-10.604	33.983	1464.739	1256.584
-9.590	33.943	1463.475	1255.187
-8.575	34.032	1462.697	1255.055
-7.560	33.976	1462.011	1254.047
-6.546	33.904	1461.407	1253.006
-5.531	34.085	1459.671	1252.659
-4.517	33.946	1459.051	1251.160
-3.502	34.071	1457.964	1251.005
-2.487	33.996	1457.008	1249.639
-1.473	33.830	1456.552	1248.104
-0.458	33.949	1454.952	1247.467
0.556	33.413	1445.124	1236.027
1.571	30.235	1419.355	1193.472
2.586	26.377	1357.980	1117.958
3.600	24.433	1276.336	1039.344
4.615	23.004	1229.969	993.472
5.629	19.777	1173.936	930.788
6.644	11.945	1090.292	825.087
7.659	5.739	1050.043	764.372
8.673	4.869	1044.747	756.226
9.688	4.861	1041.567	753.822
10.702	4.827	1040.301	752.673
11.717	4.943	1038.169	751.624
12.731	6.938	1040.605	762.956
13.746	14.156	1050.475	805.178
14.761	19.427	1056.508	835.318
15.775	19.243	1055.469	833.534
16.790	18.298	1053.205	827.111
17.804	17.122	1051.189	819.780
18.819	16.291	1048.528	813.627
19.834	15.733	1047.787	810.294
20.848	15.447	1046.656	807.970
21.863	15.285	1046.039	806.642
22.877	15.036	1045.589	805.025
23.892	14.919	1044.357	803.446
24.907	14.877	1043.405	802.441
25.921	14.878	1042.927	802.009
26.936	14.824	1042.380	801.255
27.950	14.861	1041.280	800.517
28.965	15.013	1039.794	800.033
29.980	14.995	1039.208	799.425
30.994	15.041	1037.992	798.639
32.009	15.163	1037.214	798.550
33.023	15.109	1036.593	797.744
34.038	15.083	1035.692	796.857
35.053	15.050	1034.892	796.014
36.067	14.974	1034.053	794.934
37.082	15.008	1032.983	794.202
38.096	15.008	1032.292	793.603
39.111	15.027	1031.681	793.151
40.126	15.096	1030.741	792.686
41.140	14.941	1029.946	791.270
42.155	14.859	1028.207	789.477
43.169	14.838	1027.182	788.523
44.184	14.763	1026.260	787.392
45.199	14.687	1025.675	786.513
46.213	14.711	1024.423	785.600
47.228	14.833	1023.710	785.556
48.242	14.876	1022.416	784.693
49.257	14.869	1021.690	784.034
50.271	14.930	1020.818	783.581
51.286	15.036	1019.726	783.172
52.301	15.012	1018.596	782.122
53.315	14.942	1018.040	781.298
54.330	14.875	1016.860	780.013
55.344	14.842	1016.417	779.450
56.359	14.789	1015.286	778.263
57.374	14.792	1014.679	777.747
58.388	14.793	1013.650	776.892
59.403	14.623	1013.012	775.543
60.417	14.701	1012.246	775.253
61.432	14.719	1011.648	774.808
62.447	14.827	1010.516	774.373
63.461	14.597	1010.053	772.886
64.476	14.687	1008.849	772.313
65.490	14.580	1007.841	770.977
66.505	14.598	1007.101	770.426
67.520	14.643	1006.612	770.193
68.534	14.609	1005.671	769.247
69.549	14.707	1004.832	768.989
70.563	14.690	1004.322	768.449
71.578	14.678	1003.287	767.536
72.593	14.637	1002.526	766.696
73.607	14.508	1001.489	765.247
74.622	14.464	1001.046	764.639
75.636	14.501	999.849	763.825
76.651	14.561	998.910	763.313
77.666	14.618	998.051	762.850
78.680	14.535	997.603	762.060
79.695	14.547	997.191	761.736
80.709	14.558	996.459	761.160
81.724	14.643	995.603	760.824
82.739	14.716	994.752	760.438
83.753	14.871	994.048	760.539
84.768	14.990	993.311	760.448
85.782	15.030	992.370	759.842
86.797	14.931	992.522	759.441
87.812	15.115	991.550	759.465
88.826	14.997	990.379	757.968
89.841	14.919	989.972	757.237
90.855	15.065	988.514	756.712
91.870	15.029	988.468	756.450
92.884	15.091	987.698	756.072
93.899	14.958	987.030	754.894
94.914	15.036	986.203	754.545
95.928	15.258	984.960	754.527
96.943	15.161	984.040	753.320
97.957	15.131	983.453	752.670
98.972	15.056	982.894	751.839
99.987	14.984	981.750	750.572
101.001	15.088	981.355	750.671
102.016	15.151	980.128	749.949
103.030	15.040	979.415	748.839
104.045	15.032	978.957	748.387
105.060	15.008	977.856	747.371
106.074	14.939	976.352	745.851
107.089	14.882	976.101	745.340
108.103	14.819	975.081	744.214
109.118	14.747	973.612	742.703
110.133	14.766	973.124	742.352
111.147	14.743	972.416	741.645
112.162	14.798	971.371	741.026
113.176	14.752	970.725	740.263
114.191	14.748	969.996	739.624
115.206	14.829	969.440	739.495
116.220	14.756	968.570	738.442
117.235	14.840	967.498	737.930
118.249	14.766	966.871	737.058
119.264	14.900	965.501	736.538
120.279	14.707	965.453	735.586
121.293	14.667	964.212	734.402
122.308	14.778	963.389	734.198
123.322	14.654	962.906	733.221
124.337	14.646	961.493	732.042
125.352	14.624	960.444	731.086
126.366	14.598	959.620	730.277
127.381	14.557	958.588	729.248
128.395	14.589	957.667	728.625
129.410	14.634	956.758	728.065
130.424	14.749	955.826	727.790
131.439	14.755	954.631	726.845
132.454	14.805	953.953	726.479
133.468	14.855	954.026	726.687
134.483	14.841	952.932	725.729
135.497	14.830	952.309	725.144
136.512	14.749	951.947	724.452
137.527	14.907	950.644	724.080
138.541	14.849	949.957	723.242
139.556	14.845	949.266	722.636
140.570	14.914	948.495	722.282
141.585	14.979	947.945	722.081
142.600	15.058	947.288	721.856
143.614	15.097	946.187	721.121
144.629	15.109	945.554	720.627
145.643	15.272	944.856	720.734
146.658	15.212	943.904	719.684
147.673	15.024	943.112	718.212
148.687	14.987	941.882	717.052
149.702	14.856	941.433	716.087
150.716	14.958	940.047	715.407
151.731	14.853	939.560	714.524
152.746	14.814	938.872	713.768
153.760	14.950	938.097	713.695
154.775	14.923	937.676	713.198
155.789	15.007	936.632	712.698
156.804	15.139	936.091	712.786
157.819	15.110	935.049	711.805
158.833	15.050	934.737	711.251
159.848	15.107	934.314	711.109
160.862	15.190	933.486	710.767
161.877	15.228	932.430	710.060
162.892	14.985	932.056	708.686
163.906	14.978	930.960	707.760
164.921	14.927	929.967	706.726
165.935	14.998	928.827	706.097
166.950	14.902	928.033	705.027
167.964	15.114	927.277	705.284
168.979	15.150	925.818	704.263
169.994	15.139	924.960	703.501
171.008	15.054	924.277	702.562
172.023	15.117	923.680	702.309
173.037	15.042	923.403	701.724
174.052	15.335	922.147	701.932
175.067	15.203	921.678	700.960
176.081	15.116	920.955	699.984
177.096	15.061	920.027	698.991
178.110	15.050	918.887	698.014
179.125	15.057	918.759	697.884
180.140	15.120	917.696	697.278
181.154	15.179	916.953	696.897
182.169	15.061	916.725	696.172
183.183	15.179	915.875	695.955
184.198	15.352	915.364	696.223
185.213	15.248	914.777	695.285
186.227	15.309	913.747	694.694
187.242	15.359	913.528	694.670
188.256	15.483	912.672	694.473
189.271	15.508	912.010	694.009
190.286	15.600	911.046	693.593
191.300	15.385	910.395	692.152
192.315	15.029	909.819	690.186
193.329	14.925	908.959	689.042
194.344	15.086	907.993	688.910
195.359	14.985	908.017	688.452
196.373	15.153	907.694	688.836
197.388	15.272	906.970	688.716
198.402	15.390	906.430	688.731
199.417	15.454	906.309	688.842
200.432	15.487	905.773	688.506
201.446	15.611	905.187	688.508
202.461	15.806	904.814	688.964
203.475	15.722	904.303	688.168
204.490	15.725	903.677	687.644
205.504	15.678	902.267	686.318
206.519	15.554	902.210	685.707
207.534	15.520	901.132	684.688
208.548	15.492	900.554	684.076
209.563	15.461	899.814	683.327
210.577	15.548	899.122	683.094
211.592	15.636	898.095	682.611
212.607	15.711	898.026	682.804
213.621	15.728	897.332	682.285
214.636	15.683	896.654	681.525
215.650	15.633	896.122	680.859
216.665	15.697	895.532	680.610
217.680	15.858	894.856	680.687
218.694	15.844	894.414	680.234
219.709	15.898	893.384	679.609
220.723	15.910	893.451	679.648
221.738	15.830	892.360	678.435
222.753	15.832	891.881	678.020
223.767	15.835	890.897	677.223
224.782	15.910	890.116	676.870
225.796	15.945	889.508	676.487
226.811	15.909	889.157	676.015
227.826	15.932	888.498	675.547
228.840	15.934	887.854	675.006
229.855	15.802	886.849	673.656
230.869	15.882	886.240	673.451
231.884	15.925	885.843	673.262
232.899	15.885	884.707	672.179
233.913	15.850	884.380	671.734
234.928	15.814	883.343	670.741
235.942	15.710	883.023	670.024
236.957	15.765	882.100	669.483
237.972	15.750	881.308	668.764
238.986	15.834	881.033	668.829
240.001	15.850	880.200	668.203
241.015	15.819	879.481	667.475
242.030	15.917	878.776	667.269
243.045	15.955	878.278	666.984
244.059	15.947	877.386	666.213
245.074	16.104	876.885	666.397
246.088	15.903	876.567	665.302
247.103	16.150	875.959	665.756
248.117	16.139	875.322	665.169
249.132	16.255	874.879	665.233
250.147	16.237	874.800	665.043
251.161	16.558	873.399	665.180
252.176	16.471	873.163	664.601
253.190	16.571	872.291	664.268
254.205	16.573	871.943	663.952
255.220	16.518	871.463	663.315
256.234	16.449	870.986	662.622
257.249	16.522	870.345	662.360
258.263	16.567	869.415	661.770
259.278	16.637	868.879	661.579
260.293	16.529	868.414	660.742
261.307	16.586	868.230	660.768
262.322	16.875	867.306	661.135
263.336	16.665	867.030	660.043
264.351	16.606	866.286	659.191
265.366	16.879	865.388	659.511
266.380	16.775	865.108	658.836
267.395	16.629	865.004	658.130
268.409	16.657	863.792	657.257
269.424	16.664	862.863	656.519
270.439	16.608	862.344	655.849
271.453	16.633	861.412	655.179
272.468	16.637	860.712	654.605
273.482	16.564	860.223	653.894
274.497	16.474	859.938	653.272
275.512	16.660	859.110	653.302
276.526	16.544	858.175	652.088
277.541	16.553	857.535	651.576
278.555	16.698	857.164	651.794
279.570	16.739	856.672	651.521
280.585	16.693	856.374	651.059
281.599	16.961	855.363	651.265
282.614	16.820	854.696	650.155
283.628	16.792	854.225	649.632
284.643	16.825	853.657	649.272
285.657	16.737	853.322	648.620
286.672	16.771	852.767	648.271
287.687	16.819	852.105	647.897
288.701	16.841	851.333	647.335
289.716	16.736	851.085	646.690
290.730	16.917	850.382	646.788
291.745	16.904	849.766	646.213
292.760	16.877	849.119	645.559
293.774	16.945	848.559	645.335
294.789	16.983	848.245	645.184
295.803	16.970	847.597	644.586
296.818	16.837	847.042	643.600
297.833	17.002	846.105	643.457
298.847	16.958	845.515	642.784
299.862	17.051	844.744	642.493
300.876	16.878	844.490	641.589
301.891	17.087	843.489	641.561
302.906	17.080	843.224	641.277
303.920	17.194	842.382	641.010
304.935	17.256	842.016	640.911
305.949	17.341	841.516	640.792
306.964	17.394	840.664	640.286
307.979	17.328	839.934	639.427
308.993	17.240	839.616	638.796
310.008	17.278	839.223	638.584
311.022	17.398	838.597	638.500
312.037	17.242	838.362	637.678
313.052	17.120	837.849	636.777
314.066	17.122	836.847	635.967
315.081	17.087	836.469	635.492
316.095	17.080	835.899	634.977
317.110	17.195	834.986	634.656
318.125	17.133	834.817	634.237
319.139	17.121	834.118	633.608
320.154	17.138	833.424	633.090
321.168	17.242	833.016	633.110
322.183	17.227	832.441	632.559
323.197	17.285	831.862	632.281
324.212	17.291	831.539	632.001
325.227	17.207	831.224	631.395
326.241	17.300	830.728	631.305
327.256	17.224	829.781	630.249
328.270	17.132	829.303	629.490
329.285	17.158	828.952	629.261
330.300	17.362	827.979	629.223
331.314	17.283	827.356	628.403
332.329	17.388	827.387	628.758
333.343	17.331	826.578	627.878
334.358	17.457	826.090	627.916
335.373	17.265	825.834	626.959
336.387	17.509	824.991	627.162
337.402	17.560	824.565	626.969
338.416	17.596	823.797	626.461
339.431	17.521	823.508	625.912
340.446	17.725	822.953	626.184
341.460	17.735	822.737	626.001
342.475	17.705	821.804	625.125
343.489	17.739	821.493	624.958
344.504	17.830	820.780	624.692
345.519	17.906	820.177	624.457
346.533	17.802	820.020	623.904
347.548	17.891	819.052	623.436
348.562	17.852	818.691	622.964
349.577	17.778	818.199	622.263
350.592	17.633	817.645	621.260
351.606	17.832	816.745	621.244
352.621	17.697	816.601	620.589
353.635	17.611	816.393	620.061
354.650	17.773	815.876	620.204
355.665	17.850	815.247	619.952
356.679	17.721	814.866	619.138
357.694	17.792	814.531	619.087
358.708	17.751	814.003	618.482
359.723	17.832	813.494	618.333
360.738	17.911	813.110	618.275
361.752	17.744	812.322	617.014
362.767	17.932	812.080	617.457
363.781	17.903	811.961	617.209
364.796	18.032	811.322	617.133
365.810	18.093	810.969	617.029
366.825	18.196	810.431	616.937
367.840	18.182	810.145	616.613
368.854	18.099	809.573	615.826
369.869	18.143	809.239	615.674
370.883	18.059	808.309	614.613
371.898	18.101	807.904	614.399
372.913	18.295	807.256	614.548
373.927	18.167	806.752	613.652
374.942	18.363	806.024	613.745
375.956	18.222	805.355	612.677
376.971	18.217	804.672	612.085
377.986	18.389	804.152	612.250
379.000	18.523	804.009	612.567
380.015	18.398	803.751	611.870
381.029	18.419	802.865	611.215
382.044	18.574	802.281	611.270
383.059	18.304	801.858	609.932
384.073	18.368	801.302	609.681
385.088	18.531	800.512	609.608
386.102	18.262	800.129	608.307
387.117	18.297	799.454	607.864
388.132	18.307	799.104	607.577
389.146	18.289	799.071	607.436
390.161	18.308	798.570	607.069
391.175	18.301	798.177	606.691
392.190	18.445	797.630	606.732
393.205	18.558	797.395	606.899
394.219	18.486	796.948	606.249
395.234	18.335	796.336	605.197
396.248	18.434	795.923	605.180
397.263	18.305	795.368	604.250
398.278	18.288	794.648	603.588
399.292	18.137	794.410	602.820
400.307	18.309	793.850	602.950
401.321	18.143	793.559	602.089
402.336	18.196	793.382	602.090
403.350	18.312	792.620	601.866
404.365	18.445	792.428	602.136
405.380	18.463	792.032	601.844
406.394	18.663	791.657	602.207
407.409	18.664	791.054	601.698
408.423	18.674	790.778	601.471
409.438	18.863	790.064	601.536
410.453	18.703	789.703	600.648
411.467	18.758	789.148	600.365
412.482	18.853	788.799	600.379
413.496	18.902	788.178	600.025
414.511	18.906	788.393	600.148
415.526	18.926	787.807	599.718
416.540	18.803	787.526	599.024
417.555	18.780	787.187	598.631
418.569	18.964	786.455	598.663
419.584	18.942	785.762	598.007
420.599	18.993	785.368	597.832
421.613	155.763	1369.538	1791.701
422.628	134.573	1454.633	1791.820
