DTS Sentinel unit serial number:	SN413079Multiplexer serial number:	ORYXHardware model number:	OX4-SRSoftware version number:	ORYX F/W v4.00 Oryx Data Collector v3.7.2.0data status	okinstallation	princeton_trtdifferential loss correction	single-endedforward channel	channel 3reverse channel	N/Adate	2019/09/15time	22:16:35forward acquisition time	60.00reverse acquisition time	0.00gamma	496.2192k internal	0.2330k external	0.2330temperature offset calibration	0.9940default loss term (dB/km)	0.3790temperature slope calibration	1.0000multiplexer offset coefficient	1.0000multiplexer slope coefficient	1.0000fibre end	0.00T internal ref (°C)	29.44T ext. ref 1 (°C)	8.65T ext. ref 2 (°C)	22.80length (m)	temperature (°C)	Stokes	anti-Stokes-747.200	247.606	0.052	-0.088
-746.185	800.000	-0.053	-0.187
-745.171	-91.771	0.325	-0.093
-744.156	596.944	-0.147	0.366
-743.142	-200.000	-0.001	0.234
-742.127	688.836	0.258	0.680
-741.112	69.844	-0.100	-0.104
-740.098	800.000	0.042	0.173
-739.083	-94.938	0.222	0.060
-738.069	-103.342	-0.246	-0.058
-737.054	800.000	-0.024	0.088
-736.039	-200.000	-0.007	-0.189
-735.025	48.848	0.045	-0.042
-734.010	-200.000	-0.025	-0.140
-732.996	-52.053	-0.451	-0.211
-731.981	-111.379	-0.323	0.066
-730.966	21.814	-0.243	-0.199
-729.952	163.636	-0.276	0.391
-728.937	-24.820	-0.143	0.086
-727.923	-68.575	0.150	-0.059
-726.908	-86.675	-0.439	-0.135
-725.894	-150.435	-0.533	0.041
-724.879	722.602	0.081	-0.216
-723.864	-200.000	-0.002	0.191
-722.850	-61.948	-0.015	-0.007
-721.835	-93.425	-0.198	0.055
-720.821	-200.000	-0.012	-0.133
-719.806	-200.000	-0.055	-0.269
-718.791	7.815	-0.133	0.100
-717.777	577.465	-0.064	0.157
-716.762	-200.000	-0.010	-0.200
-715.748	29.953	0.126	0.108
-714.733	-53.309	-0.251	-0.116
-713.718	25.749	-0.160	-0.134
-712.704	16.989	-0.040	0.032
-711.689	-26.764	-0.253	0.149
-710.675	-78.710	0.035	-0.012
-709.660	-135.381	0.149	0.018
-708.645	-47.971	-0.349	-0.170
-707.631	-1.914	0.190	0.134
-706.616	138.345	0.048	-0.063
-705.602	-37.881	0.125	0.067
-704.587	-200.000	-0.007	-0.112
-703.572	625.143	0.047	0.119
-702.558	15.010	-0.048	-0.037
-701.543	-51.183	-0.325	0.153
-700.529	-200.000	-0.028	0.197
-699.514	251.216	0.165	0.281
-698.499	94.594	-0.273	0.312
-697.485	-123.971	-0.372	0.059
-696.470	407.105	-0.186	-0.395
-695.456	-39.878	0.403	0.212
-694.441	-41.025	0.018	0.009
-693.426	-62.583	-0.668	0.279
-692.412	-162.152	0.283	0.014
-691.397	133.471	0.114	0.148
-690.383	143.934	-0.148	-0.199
-689.368	-200.000	0.028	0.133
-688.354	-200.000	-0.047	0.305
-687.339	-51.734	-0.254	0.119
-686.324	84.645	-0.105	-0.116
-685.310	202.452	-0.107	-0.166
-684.295	-200.000	-0.003	-0.166
-683.281	30.389	-0.229	-0.197
-682.266	113.681	-0.199	0.243
-681.251	-94.444	-0.208	-0.057
-680.237	-165.578	0.366	-0.016
-679.222	-100.287	-0.115	0.029
-678.208	-200.000	-0.047	0.296
-677.193	-101.859	-0.181	0.044
-676.178	12.092	-0.376	0.291
-675.164	-119.382	0.335	0.059
-674.149	-131.495	-0.107	0.014
-673.135	-9.455	0.067	-0.045
-672.120	181.069	-0.247	0.365
-671.105	800.000	-0.027	0.079
-670.091	-51.013	-0.044	0.021
-669.076	66.830	0.395	-0.403
-668.062	162.269	-0.326	-0.458
-667.047	-200.000	-0.006	0.114
-666.032	10.164	0.115	-0.088
-665.018	4.341	0.149	-0.110
-664.003	-28.678	0.035	-0.020
-662.989	-99.454	0.445	0.113
-661.974	800.000	0.057	-0.177
-660.959	-75.051	-0.150	-0.054
-659.945	-100.389	-0.424	-0.106
-658.930	37.225	-0.060	-0.054
-657.916	-124.989	-0.171	-0.026
-656.901	-28.125	-0.009	0.005
-655.886	-200.000	-0.015	-0.082
-654.872	206.584	0.119	-0.185
-653.857	127.879	0.120	-0.153
-652.843	422.906	0.061	0.130
-651.828	-112.418	0.054	0.011
-650.814	72.494	-0.180	-0.188
-649.799	82.499	-0.255	0.278
-648.784	170.135	-0.275	0.394
-647.770	674.071	0.152	-0.396
-646.755	193.197	-0.138	0.209
-645.741	800.000	-0.032	-0.130
-644.726	177.983	0.178	0.260
-643.711	1.798	-0.172	0.125
-642.697	237.272	0.158	-0.262
-641.682	-78.481	-0.197	0.068
-640.668	-6.699	0.261	-0.178
-639.653	197.879	0.145	0.221
-638.638	-49.774	-0.382	0.182
-637.624	-150.982	-0.236	0.018
-636.609	170.547	-0.044	0.063
-635.595	93.118	-0.109	0.123
-634.580	-150.460	0.130	-0.010
-633.565	-166.920	0.174	0.007
-632.551	-65.863	-0.166	0.067
-631.536	-1.578	0.184	-0.130
-630.522	-124.437	0.261	-0.041
-629.507	658.145	0.039	-0.100
-628.492	-200.000	0.005	-0.113
-627.478	-155.808	0.373	-0.024
-626.463	-200.000	-0.040	-0.294
-625.449	-200.000	0.047	-0.234
-624.434	-111.322	-0.287	-0.059
-623.419	-200.000	0.016	-0.074
-622.405	491.278	-0.108	0.247
-621.390	-200.000	-0.049	0.395
-620.376	232.731	0.068	0.112
-619.361	-39.383	-0.384	0.202
-618.346	70.412	0.214	-0.221
-617.332	800.000	-0.029	-0.101
-616.317	-11.543	0.015	-0.010
-615.303	181.359	0.146	-0.215
-614.288	-200.000	0.021	-0.193
-613.273	800.000	0.055	-0.212
-612.259	-86.471	-0.294	0.091
-611.244	-200.000	-0.003	0.170
-610.230	-97.827	-0.233	-0.060
-609.215	-29.173	0.068	-0.039
-608.201	-200.000	-0.047	-0.322
-607.186	73.150	-0.122	-0.128
-606.171	-67.606	0.235	0.092
-605.157	-200.000	-0.032	0.394
-604.142	268.107	0.065	0.114
-603.128	483.123	-0.140	0.320
-602.113	-75.452	-0.336	-0.120
-601.098	-200.000	0.011	-0.138
-600.084	-4.476	-0.225	0.156
-599.069	-0.553	0.226	0.161
-598.055	147.896	-0.100	-0.135
-597.040	428.133	-0.086	0.186
-596.025	106.369	0.211	-0.250
-595.011	-10.940	-0.401	-0.265
-593.996	800.000	-0.048	-0.140
-592.982	11.352	-0.121	0.093
-591.967	-71.866	-0.259	0.097
-590.952	88.073	0.160	0.177
-589.938	119.265	0.139	0.172
-588.923	206.141	-0.139	-0.217
-587.909	-5.829	0.362	0.248
-586.894	800.000	0.065	0.200
-585.879	-137.066	-0.424	0.048
-584.865	108.896	-0.139	-0.166
-583.850	46.274	0.083	0.077
-582.836	-200.000	0.009	0.191
-581.821	86.316	0.112	-0.123
-580.806	270.380	0.036	-0.063
-579.792	-111.729	-0.210	0.043
-578.777	48.039	0.117	0.110
-577.763	-53.998	-0.103	-0.047
-576.748	-122.438	-0.143	-0.023
-575.733	-143.568	-0.032	-0.003
-574.719	640.711	0.154	-0.393
-573.704	316.905	-0.088	-0.166
-572.690	59.702	0.106	0.105
-571.675	105.638	0.075	0.089
-570.661	437.005	0.057	0.125
-569.646	101.168	-0.043	0.051
-568.631	20.101	-0.148	-0.120
-567.617	66.617	-0.120	-0.122
-566.602	-35.495	0.293	0.159
-565.588	-200.000	0.001	0.029
-564.573	119.052	-0.124	0.154
-563.558	199.734	-0.165	0.254
-562.544	307.967	-0.064	0.120
-561.529	-23.852	0.258	-0.154
-560.515	-42.794	0.176	-0.090
-559.500	42.189	-0.285	-0.259
-558.485	-139.956	0.263	-0.028
-557.471	319.796	0.099	0.187
-556.456	4.622	0.333	-0.244
-555.442	-52.584	-0.198	0.091
-554.427	685.326	-0.146	-0.382
-553.412	71.506	0.210	-0.217
-552.398	800.000	-0.054	-0.150
-551.383	81.359	-0.091	0.098
-550.369	-200.000	-0.030	0.347
-549.354	-194.723	0.164	0.001
-548.339	193.239	-0.090	-0.136
-547.325	109.299	0.082	0.098
-546.310	-85.915	-0.288	-0.089
-545.296	135.813	0.081	0.105
-544.281	6.963	0.253	-0.189
-543.266	-2.733	0.204	0.142
-542.252	721.627	-0.038	0.102
-541.237	-54.761	-0.230	0.104
-540.223	-196.628	-0.152	-0.001
-539.208	-84.276	-0.283	-0.089
-538.193	39.029	0.291	-0.260
-537.179	-30.791	0.056	-0.031
-536.164	-26.718	-0.053	0.031
-535.150	-200.000	-0.012	0.447
-534.135	-22.005	0.128	-0.078
-533.121	29.758	-0.139	0.118
-532.106	-200.000	-0.010	0.129
-531.091	-26.195	-0.136	0.080
-530.077	-135.392	0.196	-0.023
-529.062	315.657	0.064	-0.120
-528.048	49.264	0.170	0.160
-527.033	-4.853	-0.270	0.185
-526.018	52.662	-0.145	-0.139
-525.004	-200.000	0.025	-0.136
-523.989	-108.792	-0.151	-0.032
-522.975	-34.343	-0.248	0.136
-521.960	-124.202	0.520	-0.081
-520.945	45.438	0.107	-0.099
-519.931	-164.756	-0.096	0.004
-518.916	800.000	-0.111	-0.354
-517.902	-75.744	-0.123	-0.043
-516.887	800.000	-0.092	-0.328
-515.872	112.151	0.255	-0.308
-514.858	800.000	0.076	0.216
-513.843	408.815	-0.104	0.220
-512.829	-200.000	0.014	0.076
-511.814	275.353	0.167	0.295
-510.799	-200.000	0.012	0.175
-509.785	-91.931	-0.145	-0.041
-508.770	-55.818	-0.100	0.045
-507.756	4.588	-0.061	-0.045
-506.741	-42.454	0.252	0.128
-505.726	-15.770	-0.099	-0.063
-504.712	519.687	0.140	-0.327
-503.697	800.000	0.032	-0.122
-502.683	1.316	-0.392	0.281
-501.668	-200.000	0.007	0.075
-500.653	-144.189	-0.179	-0.017
-499.639	-16.909	-0.330	-0.208
-498.624	-200.000	-0.037	0.338
-497.610	-159.255	-0.227	-0.013
-496.595	231.778	-0.163	-0.267
-495.581	-143.363	-0.296	-0.028
-494.566	800.000	-0.057	-0.197
-493.551	12.306	-0.233	0.179
-492.537	-200.000	-0.117	-0.000
-491.522	106.305	-0.035	0.041
-490.508	800.000	0.016	0.066
-489.493	-125.404	-0.088	0.013
-488.478	429.294	0.092	0.199
-487.464	-108.961	0.255	-0.054
-486.449	-66.192	-0.189	-0.075
-485.435	-73.532	0.281	-0.102
-484.420	44.195	0.014	-0.013
-483.405	57.832	-0.161	0.157
-482.391	800.000	0.138	0.391
-481.376	-200.000	0.010	0.114
-480.362	143.257	-0.173	0.229
-479.347	415.065	-0.142	0.301
-478.332	-142.320	0.286	0.028
-477.318	-106.435	-0.031	0.007
-476.303	302.855	-0.114	0.211
-475.289	-200.000	-0.027	0.243
-474.274	-6.842	0.143	-0.097
-473.259	52.859	0.071	-0.068
-472.245	-36.069	-0.297	-0.160
-471.230	800.000	-0.081	0.292
-470.216	-83.607	-0.296	0.094
-469.201	-200.000	0.003	-0.160
-468.186	185.224	0.089	0.132
-467.172	-59.124	-0.099	-0.043
-466.157	-152.743	0.108	-0.008
-465.143	-69.041	-0.389	-0.149
-464.128	-200.000	-0.080	-0.451
-463.113	23.903	-0.038	-0.032
-462.099	459.903	0.050	-0.112
-461.084	67.444	-0.179	-0.182
-460.070	-128.775	0.295	0.041
-459.055	105.535	-0.159	0.188
-458.040	289.219	-0.281	0.507
-457.026	39.572	-0.116	-0.104
-456.011	-22.232	0.392	-0.237
-454.997	-200.000	0.018	-0.273
-453.982	2.703	0.265	-0.192
-452.968	-163.723	0.380	-0.018
-451.953	-200.000	0.072	0.000
-450.938	-78.459	0.287	-0.098
-449.924	30.737	0.201	-0.171
-448.909	71.455	0.239	0.247
-447.895	-26.436	0.152	-0.089
-446.880	133.779	0.192	-0.247
-445.865	-194.662	0.196	-0.002
-444.851	232.049	-0.132	-0.215
-443.836	22.880	0.373	0.304
-442.822	69.381	-0.115	-0.118
-441.807	-200.000	0.033	-0.162
-440.792	-200.000	0.021	0.178
-439.778	9.109	-0.092	0.069
-438.763	-94.612	0.335	-0.091
-437.749	70.845	-0.057	-0.059
-436.734	38.059	0.186	-0.165
-435.719	-8.905	-0.285	0.190
-434.705	214.766	0.170	-0.268
-433.690	800.000	-0.045	-0.140
-432.676	-200.000	0.040	0.388
-431.661	-88.227	-0.320	-0.095
-430.646	16.879	0.068	0.054
-429.632	-84.604	-0.151	-0.047
-428.617	-200.000	0.008	-0.142
-427.603	-152.770	0.304	0.021
-426.588	-58.712	-0.343	-0.148
-425.573	235.188	-0.058	0.095
-424.559	513.208	0.092	-0.213
-423.544	575.035	-0.056	-0.135
-422.530	-200.000	0.009	0.082
-421.515	-17.533	0.349	-0.218
-420.500	34.265	0.036	0.031
-419.486	-182.199	0.069	0.001
-418.471	-200.000	-0.007	-0.155
-417.457	-114.721	0.290	0.055
-416.442	800.000	-0.096	-0.381
-415.428	-200.000	0.000	0.021
-414.413	35.678	-0.095	-0.083
-413.398	-45.664	-0.092	0.045
-412.384	-107.828	0.363	0.078
-411.369	353.004	-0.149	-0.294
-410.355	22.904	-0.196	0.160
-409.340	310.647	0.140	0.261
-408.325	-15.913	-0.177	0.112
-407.311	-111.007	-0.144	0.029
-406.296	800.000	-0.113	-0.334
-405.282	-60.329	0.156	-0.066
-404.267	-61.793	0.271	0.113
-403.252	191.744	0.247	0.370
-402.238	-167.989	-0.106	-0.004
-401.223	-200.000	0.075	-0.458
-400.209	-49.604	0.185	-0.087
-399.194	637.406	-0.024	0.061
-398.179	99.739	-0.187	0.215
-397.165	47.936	-0.088	0.082
-396.150	70.070	-0.135	0.139
-395.136	800.000	-0.045	-0.143
-394.121	37.815	0.313	0.276
-393.106	56.339	0.338	-0.326
-392.092	-200.000	-0.021	0.464
-391.077	-144.416	0.104	-0.010
-390.063	-93.528	-0.053	0.015
-389.048	554.480	0.103	-0.247
-388.033	51.722	-0.350	-0.331
-387.019	800.000	-0.015	-0.044
-386.004	105.811	0.065	0.076
-384.990	470.436	0.143	-0.318
-383.975	-165.326	-0.293	0.013
-382.960	800.000	-0.076	-0.227
-381.946	-98.185	-0.155	-0.039
-380.931	227.042	0.133	0.214
-379.917	-200.000	0.004	0.247
-378.902	6.190	0.132	0.097
-377.888	-200.000	0.043	-0.285
-376.873	-27.944	0.154	0.088
-375.858	-200.000	-0.041	-0.395
-374.844	139.123	0.097	0.127
-373.829	-200.000	-0.036	0.293
-372.815	366.865	-0.081	0.162
-371.800	-156.516	0.236	0.015
-370.785	351.135	0.064	0.126
-369.771	-64.178	0.233	0.094
-368.756	-200.000	-0.043	-0.248
-367.742	99.101	-0.136	-0.155
-366.727	47.914	0.143	-0.133
-365.712	800.000	-0.006	-0.023
-364.698	77.559	0.300	-0.317
-363.683	800.000	0.072	0.200
-362.669	606.880	-0.038	-0.094
-361.654	-30.244	-0.223	0.126
-360.639	-142.888	-0.305	-0.029
-359.625	126.254	0.281	0.352
-358.610	-105.005	0.096	-0.022
-357.596	-47.630	0.219	0.105
-356.581	98.589	-0.124	-0.141
-355.566	114.103	0.111	-0.134
-354.552	22.018	-0.125	-0.101
-353.537	800.000	-0.015	0.065
-352.523	800.000	0.122	0.401
-351.508	-200.000	-0.005	0.201
-350.493	-43.336	0.081	-0.041
-349.479	-56.991	-0.166	-0.073
-348.464	-34.760	-0.227	0.123
-347.450	-67.615	0.176	0.068
-346.435	328.849	0.149	0.284
-345.420	53.663	-0.190	0.180
-344.406	273.421	-0.100	0.174
-343.391	-88.687	0.335	0.099
-342.377	-200.000	-0.017	-0.110
-341.362	4.103	0.154	-0.112
-340.348	-156.746	-0.151	-0.009
-339.333	-200.000	-0.008	0.358
-338.318	-100.643	0.258	-0.063
-337.304	119.326	-0.095	-0.116
-336.289	240.474	0.102	-0.169
-335.275	79.924	-0.238	0.253
-334.260	-56.579	-0.179	-0.079
-333.245	3.264	-0.138	-0.100
-332.231	-95.179	-0.103	-0.028
-331.216	57.871	0.366	0.354
-330.202	623.583	-0.067	-0.167
-329.187	-187.745	-0.067	-0.001
-328.172	-200.000	0.047	-0.391
-327.158	-200.000	0.002	0.078
-326.143	80.049	-0.112	0.119
-325.129	-70.026	0.212	0.080
-324.114	800.000	0.087	0.239
-323.099	238.934	0.222	0.365
-322.085	18.979	-0.149	0.118
-321.070	700.473	0.085	-0.221
-320.056	800.000	-0.076	-0.263
-319.041	105.705	0.286	-0.335
-318.026	-40.119	0.100	-0.052
-317.012	51.278	-0.178	-0.168
-315.997	11.038	0.064	-0.048
-314.983	186.952	0.070	-0.103
-313.968	107.894	0.059	-0.069
-312.953	155.330	-0.052	0.070
-311.939	-2.199	-0.117	0.081
-310.924	156.754	0.103	-0.141
-309.910	93.307	-0.146	0.164
-308.895	-147.719	0.187	-0.016
-307.880	-200.000	0.006	0.179
-306.866	741.439	-0.044	-0.117
-305.851	-86.284	-0.160	-0.049
-304.837	800.000	-0.043	-0.167
-303.822	-200.000	0.051	-0.225
-302.807	-95.580	-0.266	0.070
-301.793	-200.000	0.013	-0.085
-300.778	3.497	-0.287	-0.207
-299.764	-28.592	0.239	-0.136
-298.749	-200.000	-0.019	0.157
-297.735	-80.943	-0.370	-0.121
-296.720	82.030	0.060	-0.064
-295.705	81.311	-0.341	-0.365
-294.691	226.716	0.113	0.182
-293.676	30.833	-0.149	0.127
-292.662	-173.530	-0.140	0.004
-291.647	-92.401	0.565	0.157
-290.632	-200.000	0.003	0.111
-289.618	800.000	0.164	0.491
-288.603	-200.000	-0.032	0.240
-287.589	201.437	0.183	0.278
-286.574	-200.000	0.000	-0.109
-285.559	-200.000	-0.038	-0.210
-284.545	800.000	0.005	0.018
-283.530	134.512	0.172	-0.221
-282.516	243.002	0.178	0.295
-281.501	800.000	-0.107	0.304
-280.486	-121.386	-0.201	-0.033
-279.472	133.705	0.123	0.158
-278.457	362.028	0.031	-0.060
-277.443	-200.000	-0.022	-0.333
-276.428	-80.325	-0.243	-0.080
-275.413	-200.000	0.017	0.356
-274.399	-113.775	0.080	-0.015
-273.384	-200.000	0.047	0.590
-272.370	-200.000	0.003	0.126
-271.355	-125.755	-0.116	0.017
-270.340	-200.000	-0.046	-0.218
-269.326	95.150	0.243	0.273
-268.311	247.297	-0.174	-0.291
-267.297	-72.597	-0.177	0.065
-266.282	-35.293	0.120	0.064
-265.267	74.902	-0.061	-0.063
-264.253	800.000	0.097	-0.362
-263.238	-200.000	-0.009	-0.050
-262.224	-89.632	-0.264	-0.077
-261.209	-200.000	0.048	0.249
-260.195	-51.257	0.226	0.105
-259.180	-200.000	0.022	0.166
-258.165	127.614	0.104	0.130
-257.151	132.994	0.158	-0.201
-256.136	5.176	0.130	0.095
-255.122	12.052	0.073	0.055
-254.107	-131.801	0.321	0.042
-253.092	-56.443	0.229	-0.100
-252.078	-200.000	-0.001	-0.011
-251.063	117.987	-0.125	-0.152
-250.049	-200.000	-0.041	-0.287
-249.034	-56.466	0.265	0.116
-248.019	800.000	0.068	0.261
-247.005	-200.000	0.011	-0.137
-245.990	-123.214	0.194	0.031
-244.976	-142.379	-0.133	-0.013
-243.961	149.490	-0.029	0.038
-242.946	57.609	0.011	0.011
-241.932	-26.724	-0.351	-0.203
-240.917	-52.921	0.298	-0.136
-239.903	101.449	-0.164	-0.188
-238.888	-140.284	0.164	-0.017
-237.873	-128.041	0.233	0.033
-236.859	49.565	-0.124	0.115
-235.844	75.483	0.264	-0.275
-234.830	800.000	-0.029	-0.089
-233.815	-200.000	-0.023	-0.354
-232.800	155.200	0.151	-0.206
-231.786	158.084	0.057	0.077
-230.771	82.846	0.141	-0.151
-229.757	344.750	0.138	0.268
-228.742	-64.464	-0.226	-0.091
-227.727	2.846	-0.248	0.178
-226.713	0.319	-0.086	0.061
-225.698	-58.727	-0.192	0.082
-224.684	-144.110	-0.164	-0.015
-223.669	-107.244	-0.290	0.063
-222.655	-75.846	-0.243	-0.085
-221.640	455.560	-0.127	-0.277
-220.625	159.605	-0.106	0.146
-219.611	-25.338	0.115	0.067
-218.596	-200.000	0.021	-0.144
-217.582	800.000	0.040	0.156
-216.567	23.205	0.380	-0.308
-215.552	213.323	0.101	0.158
-214.538	800.000	-0.015	0.064
-213.523	-31.128	0.090	-0.050
-212.509	391.341	-0.082	0.168
-211.494	-81.704	-0.280	0.090
-210.479	-57.731	-0.256	0.111
-209.465	-10.966	0.181	0.118
-208.450	233.949	-0.078	0.126
-207.436	20.297	0.211	0.168
-206.421	-140.522	0.183	0.019
-205.406	-9.692	0.278	0.183
-204.392	323.113	-0.156	-0.293
-203.377	180.583	-0.109	0.158
-202.363	90.869	-0.172	0.191
-201.348	190.106	-0.171	-0.252
-200.333	-200.000	-0.029	-0.157
-199.319	-200.000	0.094	0.442
-198.304	800.000	0.081	0.222
-197.290	800.000	0.023	-0.079
-196.275	-53.086	0.114	-0.052
-195.260	350.353	-0.098	0.191
-194.246	-200.000	0.007	-0.148
-193.231	-78.978	-0.081	0.027
-192.217	800.000	0.073	0.261
-191.202	-113.395	0.357	0.069
-190.187	180.403	0.031	-0.045
-189.173	432.250	0.157	-0.334
-188.158	-57.630	-0.181	0.078
-187.144	1.380	0.059	-0.042
-186.129	-200.000	-0.059	-0.262
-185.114	-93.112	-0.071	-0.019
-184.100	-200.000	0.034	-0.148
-183.085	-108.218	-0.083	0.018
-182.071	-200.000	-0.035	-0.157
-181.056	86.228	0.164	0.178
-180.042	-200.000	-0.005	-0.053
-179.027	22.212	-0.161	-0.129
-178.012	-200.000	-0.000	-0.241
-176.998	106.044	0.303	-0.353
-175.983	238.469	0.134	0.219
-174.969	-200.000	-0.048	-0.307
-173.954	-106.659	0.095	0.021
-172.939	-51.379	-0.291	-0.134
-171.925	-120.761	-0.043	0.007
-170.910	-27.099	-0.160	0.092
-169.896	-200.000	0.096	-0.000
-168.881	388.903	-0.033	0.067
-167.866	-82.217	-0.284	0.091
-166.852	-8.548	-0.320	-0.212
-165.837	596.049	-0.029	-0.071
-164.823	-28.496	0.194	-0.110
-163.808	378.476	0.056	0.114
-162.793	90.488	-0.064	0.070
-161.779	18.783	-0.149	-0.118
-160.764	-145.509	-0.236	-0.021
-159.750	-138.589	-0.015	0.002
-158.735	46.854	0.032	0.029
-157.720	-37.729	0.072	0.038
-156.706	800.000	0.078	-0.275
-155.691	182.106	0.080	0.115
-154.677	75.887	-0.143	0.149
-153.662	211.720	0.196	0.304
-152.647	-180.042	-0.335	0.007
-151.633	708.024	0.055	-0.143
-150.618	-32.380	-0.178	0.098
-149.604	-87.021	0.134	0.040
-148.589	-87.284	-0.032	-0.010
-147.574	-200.000	0.007	0.189
-146.560	-55.765	-0.044	0.019
-145.545	-9.896	-0.109	-0.071
-144.531	101.773	0.180	-0.206
-143.516	123.262	0.106	0.130
-142.502	-68.887	-0.241	0.091
-141.487	800.000	0.040	0.140
-140.472	-73.799	-0.137	0.049
-139.458	486.194	0.164	0.368
-138.443	-86.730	-0.230	-0.069
-137.429	100.165	0.274	-0.313
-136.414	-107.962	-0.135	-0.029
-135.399	-13.226	0.116	0.074
-134.385	-95.793	0.258	0.068
-133.370	-111.388	-0.185	0.037
-132.356	-200.000	-0.010	0.141
-131.341	-200.000	-0.007	-0.227
-130.326	131.652	0.282	0.357
-129.312	-121.296	0.134	0.022
-128.297	166.042	-0.103	0.143
-127.283	293.926	-0.165	-0.296
-126.268	-106.541	0.278	-0.061
-125.253	-150.852	0.475	-0.035
-124.239	96.096	0.289	0.324
-123.224	800.000	-0.102	0.280
-122.210	-90.229	0.139	0.040
-121.195	-200.000	-0.037	-0.197
-120.180	47.139	0.176	-0.161
-119.166	-200.000	-0.108	0.565
-118.151	85.792	0.186	0.201
-117.137	-125.154	-0.288	0.043
-116.122	-14.260	0.087	0.055
-115.107	-55.668	0.252	0.111
-114.093	24.080	-0.186	-0.151
-113.078	-177.596	-0.178	0.004
-112.064	-200.000	-0.012	0.134
-111.049	75.119	-0.125	-0.130
-110.034	-200.000	0.092	-0.410
-109.020	-9.063	0.144	0.095
-108.005	174.300	-0.078	-0.111
-106.991	-120.956	-0.449	-0.074
-105.976	-99.953	-0.151	-0.037
-104.962	-116.289	0.052	-0.009
-103.947	475.563	-0.108	-0.239
-102.932	153.113	0.225	0.303
-101.918	800.000	0.067	-0.207
-100.903	-200.000	-0.068	-0.311
-99.889	2.983	0.202	0.144
-98.874	-158.288	0.291	-0.017
-97.859	157.335	0.229	0.311
-96.845	-175.570	0.154	0.004
-95.830	-74.449	-0.336	-0.119
-94.816	-200.000	0.061	-0.280
-93.801	105.982	-0.007	0.008
-92.786	93.890	0.156	-0.173
-91.772	-55.374	-0.164	0.072
-90.757	112.264	0.287	0.340
-89.743	-27.449	0.264	0.151
-88.728	-200.000	-0.067	0.322
-87.713	-200.000	-0.007	-0.041
-86.699	238.003	0.082	0.133
-85.684	-32.298	0.249	0.137
-84.670	663.591	0.059	-0.148
-83.655	-79.729	-0.361	0.119
-82.640	283.209	-0.153	-0.269
-81.626	-136.556	0.406	0.046
-80.611	-200.000	-0.004	0.340
-79.597	-155.827	0.286	-0.018
-78.582	800.000	0.077	0.250
-77.567	-167.134	0.216	0.009
-76.553	-118.011	-0.249	0.044
-75.538	694.637	0.088	0.226
-74.524	-7.308	0.127	0.084
-73.509	3.065	-0.116	-0.083
-72.494	-200.000	0.024	0.173
-71.480	468.111	0.121	-0.267
-70.465	89.617	0.157	0.172
-69.451	790.666	-0.023	0.061
-68.436	164.236	-0.236	0.326
-67.422	-200.000	0.024	0.165
-66.407	103.773	-0.323	-0.372
-65.392	-200.000	0.007	-0.144
-64.378	-200.000	0.010	0.057
-63.363	-21.755	-0.271	-0.162
-62.349	-200.000	0.024	0.126
-61.334	-30.579	-1.362	-0.756
-60.319	110.328	0.687	0.809
-59.305	237.004	-0.605	-0.982
-58.290	151.695	0.828	1.106
-57.276	430.870	0.525	1.114
-56.261	-200.000	109.109	612.509
-55.246	461.633	1486.532	3248.659
-54.232	148.490	2659.341	3519.373
-53.217	105.856	2161.553	2505.800
-52.203	39.525	1696.826	1489.965
-51.188	32.461	1514.826	1282.194
-50.173	30.214	1488.831	1245.071
-49.159	52.343	1544.963	1443.935
-48.144	52.976	1561.577	1463.727
-47.130	32.778	1518.497	1287.255
-46.115	29.698	1503.339	1253.510
-45.100	29.596	1499.874	1249.880
-44.086	29.453	1497.955	1247.264
-43.071	29.380	1495.925	1245.030
-42.057	29.310	1494.172	1243.053
-41.042	29.482	1492.575	1242.829
-40.027	29.419	1491.321	1241.316
-39.013	29.367	1489.878	1239.717
-37.998	29.441	1488.396	1238.926
-36.984	29.437	1487.533	1238.131
-35.969	29.398	1486.588	1237.039
-34.954	29.332	1485.611	1235.735
-33.940	29.406	1483.868	1234.731
-32.925	29.496	1482.439	1234.093
-31.911	29.493	1480.974	1232.805
-30.896	29.434	1479.830	1231.407
-29.881	29.575	1478.229	1230.969
-28.867	29.426	1477.300	1229.157
-27.852	29.461	1475.769	1228.062
-26.838	29.516	1474.634	1227.435
-25.823	29.490	1473.436	1226.214
-24.809	29.479	1471.718	1224.664
-23.794	29.445	1470.347	1223.252
-22.779	29.457	1469.131	1222.273
-21.765	29.572	1467.672	1221.771
-20.750	29.446	1467.011	1220.338
-19.736	29.479	1466.146	1219.785
-18.721	29.448	1464.433	1218.112
-17.706	29.440	1463.465	1217.202
-16.692	29.497	1461.996	1216.306
-15.677	29.493	1461.065	1215.461
-14.663	29.408	1460.578	1214.449
-13.648	29.368	1459.303	1213.077
-12.633	29.384	1458.471	1212.441
-11.619	29.419	1457.952	1212.189
-10.604	29.338	1457.128	1210.926
-9.590	29.382	1456.136	1210.344
-8.575	29.501	1454.921	1210.066
-7.560	29.437	1453.921	1208.767
-6.546	29.438	1452.929	1207.900
-5.531	29.394	1452.541	1207.239
-4.517	29.339	1451.830	1206.239
-3.502	29.443	1449.854	1205.233
-2.487	29.432	1449.286	1204.637
-1.473	29.365	1447.984	1203.072
-0.458	29.349	1447.093	1202.183
0.556	27.362	1437.474	1190.247
1.571	24.158	1411.974	1148.410
2.586	20.373	1350.507	1074.931
3.600	18.541	1267.667	998.255
4.615	17.304	1222.703	955.812
5.629	16.397	1169.610	909.347
6.644	12.573	1093.522	830.835
7.659	9.167	1058.207	787.264
8.673	8.815	1052.655	781.350
9.688	8.690	1049.366	778.229
10.702	8.472	1048.168	776.214
11.717	8.634	1046.589	775.760
12.731	10.068	1046.781	782.784
13.746	13.922	1051.850	805.225
14.761	17.149	1055.209	823.394
15.775	17.542	1055.249	825.256
16.790	16.818	1053.485	820.300
17.804	15.715	1051.038	812.994
18.819	14.957	1048.793	807.526
19.834	14.366	1047.534	803.638
20.848	14.076	1046.270	801.199
21.863	13.675	1046.012	798.996
22.877	13.524	1044.899	797.351
23.892	13.352	1044.337	796.026
24.907	13.324	1043.375	795.087
25.921	13.256	1042.990	794.396
26.936	13.411	1041.711	794.095
27.950	13.380	1040.939	793.284
28.965	13.399	1039.950	792.556
29.980	13.424	1038.723	791.666
30.994	13.448	1037.743	790.966
32.009	13.587	1036.897	790.916
33.023	13.506	1036.089	789.841
34.038	13.493	1035.565	789.312
35.053	13.659	1034.417	789.156
36.067	13.521	1032.725	787.140
37.082	13.406	1032.625	786.445
38.096	13.612	1031.405	786.428
39.111	13.535	1030.828	785.551
40.126	13.560	1029.793	784.813
41.140	13.572	1028.640	783.918
42.155	13.436	1027.786	782.557
43.169	13.347	1026.415	781.022
44.184	13.287	1025.822	780.219
45.199	13.257	1024.596	779.077
46.213	13.159	1023.749	777.903
47.228	13.312	1022.684	777.743
48.242	13.435	1021.751	777.544
49.257	13.523	1020.573	776.994
50.271	13.371	1019.553	775.435
51.286	13.499	1018.703	775.317
52.301	13.473	1018.230	774.766
53.315	13.462	1017.455	774.057
54.330	13.421	1016.413	773.004
55.344	13.434	1015.261	772.123
56.359	13.274	1014.836	770.984
57.374	13.298	1013.951	770.354
58.388	13.438	1012.475	769.819
59.403	13.419	1011.802	769.150
60.417	13.332	1010.569	767.742
61.432	13.299	1010.394	767.386
62.447	13.261	1010.229	767.017
63.461	13.207	1009.141	765.871
64.476	13.265	1008.013	765.215
65.490	13.112	1007.249	763.861
66.505	13.255	1006.367	763.786
67.520	13.230	1005.620	763.037
68.534	13.187	1005.091	762.367
69.549	13.294	1004.274	762.176
70.563	13.176	1003.526	760.995
71.578	13.327	1002.611	760.928
72.593	13.248	1001.816	759.896
73.607	13.207	1000.504	758.646
74.622	13.135	999.884	757.776
75.636	13.052	999.150	756.776
76.651	13.187	998.405	756.762
77.666	13.202	997.373	755.981
78.680	13.065	997.082	755.065
79.695	13.163	996.267	754.832
80.709	13.158	995.560	754.204
81.724	13.095	994.891	753.347
82.739	13.182	994.431	753.327
83.753	13.239	994.008	753.201
84.768	13.387	992.716	752.826
85.782	13.515	991.937	752.753
86.797	13.553	991.302	752.374
87.812	13.483	990.368	751.281
88.826	13.489	989.312	750.440
89.841	13.481	988.670	749.851
90.855	13.372	988.045	748.818
91.870	13.629	987.020	749.137
92.884	13.677	985.962	748.485
93.899	13.609	985.718	747.925
94.914	13.523	985.008	746.931
95.928	13.641	984.152	746.751
96.943	13.658	983.573	746.320
97.957	13.661	982.390	745.372
98.972	13.598	981.719	744.513
99.987	13.746	981.153	744.680
101.001	13.546	980.299	743.070
102.016	13.521	979.692	742.434
103.030	13.571	978.480	741.673
104.045	13.561	977.504	740.823
105.060	13.531	976.926	740.186
106.074	13.504	975.730	739.091
107.089	13.459	974.630	737.994
108.103	13.323	974.593	737.292
109.118	13.329	973.040	736.079
110.133	13.324	972.670	735.711
111.147	13.347	971.509	734.871
112.162	13.329	970.320	733.829
113.176	13.410	969.421	733.442
114.191	13.276	969.095	732.535
115.206	13.340	967.876	731.836
116.220	13.272	967.687	731.324
117.235	13.458	966.438	731.138
118.249	13.461	965.342	730.259
119.264	13.463	964.342	729.446
120.279	13.351	964.028	728.652
121.293	13.367	962.839	727.757
122.308	13.313	962.509	727.206
123.322	13.264	961.612	726.250
124.337	13.228	960.523	725.204
125.352	13.234	959.177	724.150
126.366	13.257	958.135	723.399
127.381	13.302	957.432	723.004
128.395	13.253	956.376	721.927
129.410	13.224	955.842	721.334
130.424	13.307	954.368	720.520
131.439	13.281	953.869	719.966
132.454	13.207	953.100	719.000
133.468	13.353	952.283	718.954
134.483	13.466	951.879	719.077
135.497	13.395	951.214	718.200
136.512	13.364	950.514	717.474
137.527	13.469	949.184	716.864
138.541	13.442	948.777	716.376
139.556	13.387	947.800	715.335
140.570	13.409	947.284	714.980
141.585	13.570	946.234	714.816
142.600	13.639	945.949	714.836
143.614	13.507	945.642	713.971
144.629	13.601	944.389	713.369
145.643	13.697	943.352	712.935
146.658	13.623	942.790	712.129
147.673	13.574	941.717	711.043
148.687	13.443	940.935	709.831
149.702	13.530	940.140	709.539
150.716	13.406	939.038	708.116
151.731	13.416	938.565	707.737
152.746	13.509	937.451	707.233
153.760	13.366	937.083	706.282
154.775	13.604	935.908	706.348
155.789	13.599	935.230	705.754
156.804	13.557	934.727	705.130
157.819	13.602	934.013	704.722
158.833	13.556	933.854	704.344
159.848	13.499	933.282	703.610
160.862	13.766	932.199	703.863
161.877	13.647	931.458	702.736
162.892	13.627	930.264	701.688
163.906	13.510	929.623	700.646
164.921	13.511	928.849	700.009
165.935	13.548	927.685	699.222
166.950	13.739	926.465	699.045
167.964	13.704	925.813	698.348
168.979	13.544	925.312	697.235
169.994	13.608	924.172	696.580
171.008	13.706	923.191	696.192
172.023	13.616	922.327	695.100
173.037	13.727	921.941	695.213
174.052	13.835	920.625	694.614
175.067	13.862	920.425	694.512
176.081	13.717	919.595	693.218
177.096	13.712	918.593	692.382
178.110	13.697	917.754	691.627
179.125	13.737	917.018	691.176
180.140	13.721	916.449	690.621
181.154	13.696	915.860	690.010
182.169	13.733	915.420	689.770
183.183	13.871	914.893	689.886
184.198	13.739	913.967	688.582
185.213	13.815	913.074	688.163
186.227	13.802	912.860	687.887
187.242	13.883	912.495	687.885
188.256	13.895	911.112	686.830
189.271	14.047	910.476	686.920
190.286	14.026	909.771	686.239
191.300	13.953	908.924	685.240
192.315	13.710	907.966	683.454
193.329	13.783	907.357	683.236
194.344	13.695	906.880	682.455
195.359	13.784	906.468	682.450
196.373	13.908	905.704	682.326
197.388	13.873	905.277	681.800
198.402	14.013	905.158	682.223
199.417	13.918	904.675	681.411
200.432	14.095	904.114	681.655
201.446	14.126	903.821	681.499
202.461	14.259	902.906	681.293
203.475	14.281	902.685	681.157
204.490	14.193	902.231	680.392
205.504	14.225	900.941	679.491
206.519	14.143	900.343	678.644
207.534	14.349	899.447	678.751
208.548	14.234	898.652	677.621
209.563	14.258	898.001	677.166
210.577	14.137	897.894	676.535
211.592	14.191	897.007	676.025
212.607	14.275	896.595	675.998
213.621	14.381	895.821	675.783
214.636	14.275	895.425	674.996
215.650	14.223	894.472	674.006
216.665	14.304	894.086	673.985
217.680	14.351	893.649	673.784
218.694	14.295	893.277	673.219
219.709	14.444	892.686	673.315
220.723	14.312	892.141	672.311
221.738	14.367	891.137	671.717
222.753	14.338	890.298	670.910
223.767	14.338	889.634	670.349
224.782	14.318	889.072	669.785
225.796	14.478	888.123	669.654
226.811	14.545	887.548	669.431
227.826	14.520	887.221	669.024
228.840	14.469	886.507	668.222
229.855	14.409	886.107	667.621
230.869	14.407	885.304	666.948
231.884	14.396	884.647	666.352
232.899	14.452	883.750	665.842
233.913	14.333	883.365	665.015
234.928	14.368	882.683	664.581
235.942	14.436	881.866	664.181
236.957	14.432	880.845	663.338
237.972	14.306	880.507	662.522
238.986	14.495	879.564	662.503
240.001	14.363	879.267	661.700
241.015	14.426	878.593	661.382
242.030	14.551	877.657	661.117
243.045	14.533	877.315	660.726
244.059	14.540	876.628	660.181
245.074	14.597	875.819	659.738
246.088	14.618	875.258	659.340
247.103	14.560	875.195	659.003
248.117	14.689	874.217	658.721
249.132	14.744	873.533	658.364
250.147	14.883	872.797	658.296
251.161	15.007	872.332	658.375
252.176	14.991	871.325	657.493
253.190	14.939	871.268	657.189
254.205	15.003	870.620	656.892
255.220	14.962	869.988	656.196
256.234	14.993	868.851	655.403
257.249	14.972	868.686	655.138
258.263	14.973	868.077	654.627
259.278	15.011	867.508	654.287
260.293	15.132	866.975	654.299
261.307	14.978	866.622	653.372
262.322	15.301	865.517	653.742
263.336	15.295	865.327	653.517
264.351	15.153	864.642	652.389
265.366	15.243	863.966	652.171
266.380	15.228	863.231	651.500
267.395	15.210	862.491	650.814
268.409	15.273	861.753	650.445
269.424	15.243	861.163	649.826
270.439	15.202	860.528	649.132
271.453	15.170	859.919	648.490
272.468	15.109	859.261	647.701
273.482	15.157	858.366	647.152
274.497	15.166	858.199	647.005
275.512	15.074	857.710	646.223
276.526	15.119	856.542	645.459
277.541	15.136	856.095	645.131
278.555	15.405	854.809	645.142
279.570	15.329	854.876	644.842
280.585	15.460	854.416	644.942
281.599	15.317	853.937	643.972
282.614	15.277	853.534	643.458
283.628	15.387	852.583	643.107
284.643	15.360	852.183	642.646
285.657	15.401	851.706	642.384
286.672	15.281	851.102	641.412
287.687	15.348	850.683	641.298
288.701	15.495	850.074	641.342
289.716	15.332	849.155	639.969
290.730	15.492	848.836	640.284
291.745	15.490	847.852	639.478
292.760	15.481	847.323	638.989
293.774	15.568	846.781	638.853
294.789	15.555	846.321	638.400
295.803	15.534	845.690	637.788
296.818	15.462	845.279	637.146
297.833	15.526	844.649	636.858
298.847	15.499	843.813	636.072
299.862	15.632	842.881	635.813
300.876	15.557	842.532	635.214
301.891	15.725	841.763	635.211
302.906	15.678	841.368	634.678
303.920	15.736	840.363	634.084
304.935	15.728	839.998	633.720
305.949	15.688	839.603	633.218
306.964	15.816	838.815	633.049
307.979	15.808	838.231	632.522
308.993	15.748	837.934	632.017
310.008	15.839	837.476	631.956
311.022	15.797	836.850	631.270
312.037	15.826	836.223	630.851
313.052	15.875	835.371	630.336
314.066	15.871	834.883	629.896
315.081	15.755	833.691	628.506
316.095	15.735	833.652	628.349
317.110	15.722	833.487	628.121
318.125	15.827	832.615	627.799
319.139	15.814	832.042	627.263
320.154	15.780	832.009	627.056
321.168	15.938	830.771	626.655
322.183	15.885	830.692	626.344
323.197	15.940	830.033	625.994
324.212	16.022	829.084	625.527
325.227	15.855	829.341	625.044
326.241	15.904	828.529	624.562
327.256	15.961	827.453	623.907
328.270	15.783	827.471	623.205
329.285	15.857	826.893	622.988
330.300	15.951	826.404	622.913
331.314	15.905	825.699	622.156
332.329	15.907	825.082	621.644
333.343	16.078	824.299	621.629
334.358	15.966	824.370	621.215
335.373	16.087	823.503	620.951
336.387	16.183	822.654	620.608
337.402	16.085	822.615	620.166
338.416	16.146	822.123	619.965
339.431	16.133	821.182	619.150
340.446	16.317	820.963	619.609
341.460	16.368	819.921	618.951
342.475	16.315	819.566	618.436
343.489	16.393	819.021	618.255
344.504	16.442	818.271	617.812
345.519	16.409	817.919	617.372
346.533	16.490	817.513	617.308
347.548	16.459	817.235	616.929
348.562	16.516	816.783	616.741
349.577	16.322	816.059	615.432
350.592	16.278	815.282	614.631
351.606	16.328	814.904	614.474
352.621	16.149	814.681	613.602
353.635	16.307	814.154	613.724
354.650	16.426	813.424	613.551
355.665	16.341	813.174	613.000
356.679	16.442	812.700	612.956
357.694	16.351	812.599	612.494
358.708	16.359	811.597	611.713
359.723	16.448	811.342	611.789
360.738	16.333	810.506	610.690
361.752	16.440	810.215	610.802
362.767	16.378	809.678	610.122
363.781	16.631	809.355	610.737
364.796	16.621	809.096	610.452
365.810	16.703	808.837	610.496
366.825	16.829	807.910	610.196
367.840	16.795	807.697	609.860
368.854	16.761	807.316	609.396
369.869	16.698	806.828	608.748
370.883	16.665	806.262	608.147
371.898	16.585	806.006	607.612
372.913	16.826	804.970	607.642
373.927	16.784	804.776	607.293
374.942	16.744	804.102	606.585
375.956	16.738	803.173	605.811
376.971	16.714	802.783	605.377
377.986	16.802	802.511	605.434
379.000	17.014	801.783	605.588
380.015	17.065	801.008	605.128
381.029	16.896	800.926	604.411
382.044	16.886	800.327	603.871
383.059	16.836	800.045	603.427
384.073	16.998	799.189	603.304
385.088	17.086	798.482	603.029
386.102	16.922	797.998	602.030
387.117	16.954	797.275	601.543
388.132	16.844	797.256	601.084
389.146	16.738	797.102	600.541
390.161	16.757	796.525	600.121
391.175	17.013	796.081	600.636
392.190	17.035	795.062	599.893
393.205	17.047	795.010	599.843
394.219	17.016	794.765	599.497
395.234	17.022	793.998	598.887
396.248	16.895	793.519	598.023
397.263	16.871	793.221	597.663
398.278	16.894	792.835	597.399
399.292	16.799	792.162	596.505
400.307	16.953	791.977	596.852
401.321	16.882	791.224	595.984
402.336	16.827	791.173	595.700
403.350	17.042	790.588	595.963
404.365	17.018	790.005	595.385
405.380	17.031	789.834	595.251
406.394	17.041	789.400	594.904
407.409	17.298	788.861	595.346
408.423	17.203	788.464	594.662
409.438	17.336	788.119	594.812
410.453	17.372	787.626	594.515
411.467	17.513	787.452	594.822
412.482	17.427	786.750	593.939
413.496	17.441	786.147	593.481
414.511	17.543	786.140	593.780
415.526	17.629	785.466	593.517
416.540	17.493	785.307	592.872
417.555	17.483	785.025	592.569
418.569	17.454	784.322	591.885
419.584	17.468	783.624	591.358
420.599	17.466	783.428	591.149
421.613	109.883	1291.757	1471.495
422.628	94.131	1365.789	1471.608
