DTS Sentinel unit serial number:	SN413079Multiplexer serial number:	ORYXHardware model number:	OX4-SRSoftware version number:	ORYX F/W v4.00 Oryx Data Collector v3.7.2.0data status	okinstallation	princeton_trtdifferential loss correction	single-endedforward channel	channel 3reverse channel	N/Adate	2019/09/15time	23:44:35forward acquisition time	60.00reverse acquisition time	0.00gamma	496.2192k internal	0.2335k external	0.2335temperature offset calibration	0.9950default loss term (dB/km)	0.3790temperature slope calibration	1.0000multiplexer offset coefficient	1.0000multiplexer slope coefficient	1.0000fibre end	0.00T internal ref (°C)	28.00T ext. ref 1 (°C)	9.27T ext. ref 2 (°C)	21.84length (m)	temperature (°C)	Stokes	anti-Stokes-747.200	3.396	0.014	-0.010
-746.185	172.991	0.232	0.336
-745.171	-200.000	0.016	0.155
-744.156	39.331	0.204	0.184
-743.142	-200.000	-0.065	0.294
-742.127	-174.721	-0.329	-0.009
-741.112	-200.000	-0.028	0.238
-740.098	-200.000	0.080	0.429
-739.083	-200.000	-0.066	0.375
-738.069	-131.589	-0.373	-0.049
-737.054	800.000	0.039	0.170
-736.039	-4.630	-0.174	-0.120
-735.025	-108.013	0.359	-0.078
-734.010	298.714	-0.183	-0.338
-732.996	-162.200	-0.146	-0.007
-731.981	48.361	-0.197	-0.186
-730.966	146.703	0.232	-0.313
-729.952	152.618	0.049	0.067
-728.937	-161.009	0.015	-0.001
-727.923	26.834	-0.077	0.065
-726.908	106.616	-0.047	-0.056
-725.894	-76.520	0.112	0.039
-724.879	-200.000	0.033	-0.173
-723.864	-0.448	-0.122	0.087
-722.850	139.126	0.059	-0.078
-721.835	-81.378	-0.128	-0.042
-720.821	800.000	0.014	-0.058
-719.806	-173.582	-0.059	0.002
-718.791	-43.960	-0.216	-0.109
-717.777	-41.123	-0.128	0.066
-716.762	-200.000	-0.076	-0.355
-715.748	-200.000	-0.016	-0.311
-714.733	800.000	-0.026	-0.099
-713.718	800.000	0.096	-0.335
-712.704	23.393	-0.157	-0.129
-711.689	-94.168	-0.289	0.079
-710.675	124.744	0.188	-0.238
-709.660	-200.000	-0.097	0.451
-708.645	193.264	0.089	-0.136
-707.631	-23.998	-0.041	-0.025
-706.616	-89.465	-0.141	-0.042
-705.602	800.000	0.028	0.082
-704.587	800.000	-0.029	-0.101
-703.572	446.943	-0.027	-0.060
-702.558	88.680	-0.121	-0.135
-701.543	-66.144	-0.419	0.168
-700.529	25.592	-0.122	0.102
-699.514	-69.679	0.290	-0.111
-698.499	172.122	0.084	0.121
-697.485	218.424	-0.143	0.229
-696.470	334.507	0.180	0.350
-695.456	1.208	-0.049	0.035
-694.441	-200.000	-0.005	0.122
-693.426	-92.501	-0.135	-0.038
-692.412	-101.228	-0.529	0.130
-691.397	-172.044	-0.430	0.014
-690.383	-139.056	-0.225	0.024
-689.368	-12.445	-0.135	-0.088
-688.354	34.066	0.168	-0.147
-687.339	17.181	-0.246	-0.196
-686.324	603.442	0.022	-0.054
-685.310	13.451	0.095	-0.074
-684.295	97.547	-0.376	0.433
-683.281	-200.000	-0.021	0.163
-682.266	-200.000	0.064	0.567
-681.251	-154.077	0.269	-0.018
-680.237	64.851	-0.207	-0.209
-679.222	-32.520	-0.116	0.065
-678.208	-200.000	0.041	-0.324
-677.193	-166.378	-0.159	0.007
-676.178	-175.177	0.360	-0.010
-675.164	-122.720	-0.118	-0.019
-674.149	-40.680	-0.305	-0.158
-673.135	-142.990	-0.222	0.022
-672.120	-200.000	-0.050	-0.233
-671.105	-50.802	-0.110	-0.052
-670.091	-200.000	-0.006	-0.202
-669.076	-60.702	-0.290	0.123
-668.062	-51.530	0.303	-0.142
-667.047	140.381	0.130	0.172
-666.032	352.785	0.083	0.164
-665.018	197.348	0.131	-0.200
-664.003	-69.458	0.303	0.117
-662.989	26.630	-0.217	-0.182
-661.974	-188.416	-0.193	-0.002
-660.959	21.544	0.175	0.142
-659.945	604.165	0.065	-0.162
-658.930	-200.000	-0.015	-0.170
-657.916	-0.291	-0.210	-0.149
-656.901	-93.499	0.160	-0.044
-655.886	-110.442	-0.149	0.031
-654.872	34.172	0.024	0.021
-653.857	275.832	0.111	0.197
-652.843	32.613	-0.252	0.218
-651.828	306.575	0.023	0.042
-650.814	800.000	0.037	0.133
-649.799	-53.825	-0.179	0.082
-648.784	-78.603	-0.035	-0.012
-647.770	164.256	-0.116	0.164
-646.755	-200.000	-0.030	-0.325
-645.741	-146.913	0.299	-0.026
-644.726	259.878	0.132	0.228
-643.711	-85.064	-0.125	0.039
-642.697	-172.351	-0.209	-0.007
-641.682	197.208	-0.083	-0.127
-640.668	-13.321	0.455	-0.296
-639.653	-157.799	0.239	0.014
-638.638	120.968	-0.096	0.120
-637.624	-18.906	0.207	0.129
-636.609	-200.000	-0.088	0.464
-635.595	17.836	-0.159	-0.127
-634.580	-61.160	-0.153	-0.064
-633.565	-70.288	-0.152	-0.058
-632.551	-200.000	0.036	-0.375
-631.536	546.651	-0.100	0.238
-630.522	-57.375	-0.237	-0.104
-629.507	-200.000	-0.015	-0.319
-628.492	800.000	0.014	-0.052
-627.478	-59.564	-0.428	0.184
-626.463	126.289	-0.276	-0.350
-625.449	-173.382	0.330	-0.010
-624.434	76.338	-0.284	0.301
-623.419	800.000	-0.078	-0.332
-622.405	44.578	0.070	0.064
-621.390	144.809	0.098	-0.131
-620.376	-11.169	-0.290	-0.191
-619.361	-37.344	-0.173	-0.092
-618.346	-97.629	-0.206	0.053
-617.332	-87.137	0.209	-0.064
-616.317	73.644	-0.038	0.040
-615.303	244.681	0.167	0.280
-614.288	301.837	-0.034	0.062
-613.273	-200.000	-0.006	-0.237
-612.259	116.766	-0.180	-0.221
-611.244	-200.000	-0.046	-0.269
-610.230	-54.742	0.075	-0.034
-609.215	252.873	0.188	0.320
-608.201	-10.835	0.058	-0.038
-607.186	800.000	0.091	-0.286
-606.171	-99.284	0.213	-0.054
-605.157	-200.000	0.014	0.124
-604.142	-158.454	-0.085	-0.005
-603.128	-63.635	-0.288	0.118
-602.113	-135.875	0.302	0.036
-601.098	335.625	-0.152	0.294
-600.084	19.094	0.045	0.036
-599.069	-94.707	-0.356	0.097
-598.055	-68.326	-0.417	-0.162
-597.040	-148.365	0.130	0.011
-596.025	-200.000	-0.026	-0.113
-595.011	-10.067	-0.273	0.181
-593.996	-200.000	-0.017	-0.197
-592.982	-200.000	0.012	0.261
-591.967	-200.000	0.084	-0.461
-590.952	-42.167	-0.347	-0.177
-589.938	-190.651	-0.237	-0.003
-588.923	461.962	0.095	0.213
-587.909	185.440	0.106	0.158
-586.894	-200.000	0.031	-0.237
-585.879	800.000	0.082	0.280
-584.865	-55.610	0.075	0.033
-583.850	259.305	-0.122	0.211
-582.836	-68.544	-0.318	-0.123
-581.821	27.063	0.277	-0.232
-580.806	-106.455	-0.296	0.066
-579.792	-200.000	-0.002	0.081
-578.777	213.661	-0.098	-0.154
-577.763	8.377	0.258	0.193
-576.748	58.149	-0.065	0.063
-575.733	-200.000	0.044	0.502
-574.719	-49.667	-0.100	0.047
-573.704	-58.259	-0.269	-0.117
-572.690	800.000	-0.084	-0.240
-571.675	-165.851	0.246	-0.011
-570.661	-89.151	-0.147	-0.043
-569.646	97.117	0.150	-0.171
-568.631	-150.343	0.209	-0.016
-567.617	800.000	0.051	-0.184
-566.602	-47.484	-0.373	0.181
-565.588	-40.414	0.298	-0.155
-564.573	298.497	0.073	0.135
-563.558	-134.906	-0.164	0.020
-562.544	-87.966	0.217	-0.065
-561.529	30.354	0.047	-0.040
-560.515	39.256	0.118	-0.105
-559.500	800.000	0.074	-0.242
-558.485	-166.216	-0.266	0.011
-557.471	-109.329	-0.216	-0.046
-556.456	-162.943	-0.081	-0.004
-555.442	-200.000	-0.020	-0.165
-554.427	-200.000	-0.005	0.057
-553.412	181.808	-0.031	0.045
-552.398	309.601	-0.117	0.219
-551.383	201.160	-0.160	0.246
-550.369	-33.437	0.316	-0.174
-549.354	-200.000	0.010	-0.318
-548.339	450.186	0.161	-0.355
-547.325	599.668	-0.096	0.238
-546.310	363.087	-0.006	0.011
-545.296	11.616	-0.060	0.046
-544.281	149.300	-0.194	-0.262
-543.266	108.770	-0.125	-0.149
-542.252	-200.000	-0.068	-0.342
-541.237	-38.789	-0.291	0.153
-540.223	-36.779	0.204	0.109
-539.208	800.000	-0.029	-0.104
-538.193	201.237	-0.095	0.145
-537.179	438.342	0.078	0.170
-536.164	-114.769	0.203	0.039
-535.150	-200.000	-0.039	0.213
-534.135	253.287	0.119	0.202
-533.121	-200.000	-0.030	0.407
-532.106	-200.000	-0.005	0.124
-531.091	-200.000	-0.022	0.212
-530.077	-98.416	-0.226	-0.058
-529.062	84.175	0.160	0.175
-528.048	-22.883	0.163	-0.098
-527.033	-38.497	-0.065	0.034
-526.018	610.291	0.086	-0.213
-525.004	800.000	0.068	-0.226
-523.989	-200.000	0.007	0.052
-522.975	-104.079	-0.094	-0.022
-521.960	274.797	0.058	-0.102
-520.945	-60.962	0.155	0.065
-519.931	1.107	0.046	-0.033
-518.916	484.900	0.126	-0.285
-517.902	-9.294	0.204	-0.136
-516.887	-200.000	-0.048	-0.330
-515.872	-200.000	0.018	-0.164
-514.858	800.000	0.130	-0.436
-513.843	9.765	0.268	0.202
-512.829	-120.668	0.139	-0.023
-511.814	-83.328	-0.382	0.122
-510.799	19.118	0.269	-0.215
-509.785	-200.000	0.036	-0.236
-508.770	800.000	-0.189	0.608
-507.756	45.236	-0.036	-0.033
-506.741	-200.000	0.024	-0.130
-505.726	200.619	0.065	-0.100
-504.712	101.692	0.099	-0.115
-503.697	-53.196	-0.151	-0.069
-502.683	800.000	-0.045	0.157
-501.668	291.578	0.074	0.133
-500.653	800.000	0.153	0.428
-499.639	-98.628	-0.033	0.008
-498.624	800.000	-0.049	0.194
-497.610	-10.528	-0.267	0.176
-496.595	60.105	0.236	-0.232
-495.581	33.528	-0.150	0.129
-494.566	229.257	-0.074	0.121
-493.551	-200.000	-0.002	0.038
-492.537	-200.000	-0.048	-0.216
-491.522	-200.000	-0.023	-0.125
-490.508	-145.496	-0.078	0.007
-489.493	-51.763	-0.123	0.057
-488.478	-34.040	0.165	0.090
-487.464	73.593	-0.297	0.309
-486.449	-16.344	0.005	0.003
-485.435	-85.188	0.427	-0.133
-484.420	50.695	0.115	0.108
-483.405	-89.152	0.031	-0.009
-482.391	65.202	0.136	-0.136
-481.376	627.045	0.055	0.139
-480.362	-67.550	0.111	0.043
-479.347	259.906	0.081	-0.140
-478.332	112.415	0.207	0.249
-477.318	96.878	-0.154	0.175
-476.303	174.305	-0.157	-0.226
-475.289	-200.000	-0.007	-0.045
-474.274	800.000	-0.071	-0.238
-473.259	-200.000	0.009	-0.188
-472.245	-58.458	-0.173	-0.075
-471.230	354.160	0.024	-0.047
-470.216	-3.031	0.070	0.049
-469.201	8.097	-0.047	0.035
-468.186	5.181	0.284	-0.208
-467.172	484.707	0.040	0.091
-466.157	-200.000	-0.039	0.374
-465.143	-90.416	-0.224	0.064
-464.128	335.182	-0.067	-0.129
-463.113	-130.862	0.091	-0.012
-462.099	800.000	0.051	0.195
-461.084	800.000	-0.053	-0.178
-460.070	-135.510	0.100	-0.012
-459.055	-200.000	0.039	-0.304
-458.040	800.000	0.014	-0.046
-457.026	37.353	-0.052	-0.046
-456.011	-200.000	-0.045	-0.260
-454.997	-117.147	0.098	-0.018
-453.982	-200.000	0.009	0.262
-452.968	-33.261	0.138	-0.076
-451.953	-13.228	-0.198	0.128
-450.938	-37.817	0.123	-0.065
-449.924	-140.885	0.217	0.022
-448.909	672.213	0.083	0.213
-447.895	-147.644	0.093	-0.008
-446.880	-27.063	0.174	0.101
-445.865	645.496	-0.168	-0.426
-444.851	-33.777	-0.132	-0.072
-443.836	470.364	-0.069	-0.155
-442.822	-200.000	0.034	0.237
-441.807	-150.217	-0.164	-0.013
-440.792	-200.000	0.013	0.132
-439.778	-65.517	-0.163	0.065
-438.763	800.000	0.128	0.351
-437.749	156.346	-0.099	0.135
-436.734	-122.858	0.563	0.090
-435.719	-124.657	-0.259	0.040
-434.705	-200.000	-0.003	-0.171
-433.690	-200.000	0.011	0.073
-432.676	800.000	0.056	0.172
-431.661	-137.922	-0.237	0.026
-430.646	-200.000	-0.022	-0.294
-429.632	-200.000	-0.046	0.311
-428.617	-87.646	-0.259	-0.078
-427.603	800.000	0.080	-0.248
-426.588	21.357	0.249	-0.201
-425.573	-200.000	-0.046	-0.300
-424.559	-85.148	0.090	0.028
-423.544	720.145	0.086	0.226
-422.530	-200.000	0.003	-0.312
-421.515	458.074	-0.032	0.071
-420.500	177.060	0.111	-0.161
-419.486	800.000	0.105	-0.292
-418.471	323.074	-0.098	-0.186
-417.457	155.617	-0.186	0.254
-416.442	783.570	0.063	-0.171
-415.428	47.292	-0.142	0.131
-414.413	-200.000	-0.003	-0.400
-413.398	-49.323	-0.258	-0.122
-412.384	-200.000	0.025	0.110
-411.369	800.000	0.163	-0.464
-410.355	-79.497	0.064	-0.021
-409.340	-200.000	-0.007	0.050
-408.325	25.863	-0.042	-0.035
-407.311	800.000	-0.024	0.095
-406.296	204.251	-0.134	0.206
-405.282	111.021	0.074	0.088
-404.267	-200.000	0.011	-0.306
-403.252	-85.352	-0.427	-0.132
-402.238	11.152	-0.076	0.058
-401.223	64.956	0.271	-0.272
-400.209	15.363	-0.245	-0.191
-399.194	-195.635	0.206	0.001
-398.179	26.590	-0.174	0.144
-397.165	-110.270	0.264	0.054
-396.150	800.000	0.034	0.124
-395.136	-200.000	-0.046	0.246
-394.121	-7.935	-0.305	0.204
-393.106	-200.000	-0.050	-0.235
-392.092	-82.019	-0.166	-0.054
-391.077	52.558	0.202	-0.191
-390.063	-42.203	0.034	-0.017
-389.048	-200.000	-0.031	-0.230
-388.033	-63.909	-0.040	-0.016
-387.019	432.289	0.030	-0.064
-386.004	-149.166	0.087	0.007
-384.990	8.828	0.164	-0.123
-383.975	-27.528	-0.120	0.069
-382.960	-92.873	-0.250	0.069
-381.946	4.140	0.086	0.063
-380.931	-53.688	-0.081	0.037
-379.917	-200.000	-0.017	0.130
-378.902	67.360	0.279	0.282
-377.888	-177.816	-0.251	-0.006
-376.873	389.300	0.117	-0.240
-375.858	-153.550	0.147	0.010
-374.844	-200.000	-0.049	0.267
-373.829	181.257	-0.098	0.143
-372.815	251.903	0.086	0.145
-371.800	-181.296	-0.142	0.003
-370.785	800.000	-0.047	0.194
-369.771	44.973	0.085	-0.077
-368.756	384.375	0.134	0.273
-367.742	481.126	0.023	-0.051
-366.727	63.540	0.233	0.232
-365.712	800.000	0.178	-0.527
-364.698	597.405	-0.081	-0.199
-363.683	800.000	-0.045	-0.172
-362.669	-24.658	0.236	-0.139
-361.654	-1.862	-0.210	-0.146
-360.639	-171.607	0.118	-0.004
-359.625	18.750	-0.048	0.038
-358.610	-42.399	0.196	-0.099
-357.596	-124.197	0.400	-0.062
-356.581	-105.397	-0.316	0.071
-355.566	-200.000	0.003	-0.300
-354.552	115.674	-0.147	0.178
-353.537	800.000	0.019	0.080
-352.523	-200.000	-0.021	-0.233
-351.508	-106.532	0.307	-0.068
-350.493	582.693	-0.105	-0.255
-349.479	-0.695	-0.203	-0.142
-348.464	-106.013	-0.204	-0.045
-347.450	396.513	0.071	0.146
-346.435	-126.021	-0.328	-0.049
-345.420	800.000	-0.027	-0.098
-344.406	800.000	0.052	-0.200
-343.391	-98.639	0.469	0.118
-342.377	-33.563	0.082	0.045
-341.362	107.284	-0.198	-0.232
-340.348	-21.655	0.238	0.143
-339.333	-42.800	-0.153	-0.077
-338.318	-4.357	-0.130	0.089
-337.304	66.112	0.085	0.085
-336.289	-73.457	-0.092	-0.033
-335.275	-113.195	-0.134	-0.026
-334.260	315.132	-0.040	0.074
-333.245	205.302	-0.284	0.436
-332.231	306.421	-0.026	-0.047
-331.216	3.636	-0.378	0.273
-330.202	-118.519	-0.263	0.046
-329.187	725.541	-0.120	0.316
-328.172	-26.904	0.353	0.204
-327.158	800.000	-0.160	0.457
-326.143	-152.358	0.382	0.027
-325.129	99.324	-0.043	-0.049
-324.114	800.000	0.036	0.143
-323.099	-100.365	0.119	0.029
-322.085	-200.000	-0.011	-0.050
-321.070	113.823	-0.109	-0.130
-320.056	-200.000	-0.006	0.214
-319.041	98.686	-0.306	0.349
-318.026	687.759	-0.045	-0.116
-317.012	800.000	-0.085	0.364
-315.997	-11.547	0.111	0.072
-314.983	-87.214	-0.236	-0.071
-313.968	85.640	0.052	0.056
-312.953	-200.000	0.048	0.521
-311.939	167.917	0.126	-0.177
-310.924	-79.224	0.067	-0.022
-309.910	745.883	0.040	-0.106
-308.895	800.000	-0.058	0.194
-307.880	51.135	-0.115	-0.107
-306.866	800.000	-0.050	-0.201
-305.851	69.726	-0.202	0.206
-304.837	157.069	-0.117	0.160
-303.822	-112.511	0.256	0.050
-302.807	103.200	-0.086	0.100
-301.793	-136.133	-0.268	-0.031
-300.778	329.085	-0.109	0.207
-299.764	339.194	0.110	0.212
-298.749	-7.912	0.413	0.275
-297.735	800.000	-0.076	0.264
-296.720	237.147	-0.086	0.140
-295.705	-1.446	0.127	0.089
-294.691	91.059	0.065	0.072
-293.676	-14.095	0.367	-0.234
-292.662	-72.398	0.150	0.055
-291.647	800.000	-0.052	-0.186
-290.632	93.132	0.130	-0.145
-289.618	-22.237	0.243	-0.145
-288.603	-27.148	-0.380	0.219
-287.589	170.242	-0.118	0.166
-286.574	31.950	0.151	0.128
-285.559	-14.988	0.179	0.113
-284.545	-200.000	0.054	0.379
-283.530	-158.537	0.130	-0.007
-282.516	369.553	-0.112	0.225
-281.501	-200.000	0.002	0.135
-280.486	-35.003	-0.264	-0.142
-279.472	251.664	-0.079	0.133
-278.457	-200.000	-0.013	-0.131
-277.443	90.632	0.086	0.095
-276.428	-112.030	-0.107	-0.021
-275.413	800.000	-0.144	-0.416
-274.399	-200.000	0.076	-0.408
-273.384	129.476	-0.075	-0.094
-272.370	-113.041	0.167	0.033
-271.355	221.060	-0.134	-0.213
-270.340	-24.413	-0.057	0.033
-269.326	-76.268	0.156	-0.054
-268.311	800.000	-0.035	-0.102
-267.297	25.222	-0.163	-0.133
-266.282	-122.755	-0.228	-0.036
-265.267	210.988	0.169	0.262
-264.253	-200.000	-0.004	-0.056
-263.238	112.785	0.119	-0.142
-262.224	134.721	0.221	0.283
-261.209	14.478	0.325	0.250
-260.195	-200.000	-0.027	-0.128
-259.180	-200.000	0.001	-0.042
-258.165	-15.635	0.181	0.114
-257.151	-200.000	-0.014	-0.227
-256.136	-143.973	0.355	0.033
-255.122	-200.000	-0.003	0.137
-254.107	223.531	-0.081	-0.128
-253.092	-48.789	0.362	0.171
-252.078	-152.263	0.021	-0.002
-251.063	61.327	-0.034	-0.033
-250.049	97.092	0.149	-0.168
-249.034	-120.214	-0.303	0.051
-248.019	-200.000	0.008	0.159
-247.005	41.768	-0.258	0.230
-245.990	-200.000	0.022	0.201
-244.976	-177.100	-0.187	0.005
-243.961	71.379	0.424	0.433
-242.946	214.857	-0.139	0.216
-241.932	800.000	0.107	-0.310
-240.917	-78.144	0.286	0.097
-239.903	-55.470	-0.384	-0.169
-238.888	-144.430	0.304	0.028
-237.873	-59.366	0.387	0.164
-236.859	-188.456	-0.133	-0.002
-235.844	122.525	-0.286	-0.352
-234.830	57.524	-0.074	-0.071
-233.815	-192.879	0.594	0.005
-232.800	57.032	0.112	-0.108
-231.786	800.000	-0.061	-0.185
-230.771	-44.771	-0.065	-0.032
-229.757	-119.447	0.326	-0.056
-228.742	-200.000	0.030	-0.153
-227.727	34.594	0.223	-0.192
-226.713	153.989	0.140	-0.189
-225.698	-11.965	-0.087	-0.056
-224.684	-200.000	-0.087	0.456
-223.669	39.060	-0.056	-0.049
-222.655	279.224	0.145	0.255
-221.640	65.796	0.062	0.062
-220.625	-200.000	-0.016	0.289
-219.611	-125.858	0.141	0.021
-218.596	75.855	-0.129	0.135
-217.582	-82.302	0.089	0.029
-216.567	800.000	-0.074	0.293
-215.552	-69.509	0.294	-0.111
-214.538	-37.523	-0.300	-0.157
-213.523	412.480	-0.050	-0.105
-212.509	-200.000	-0.024	-0.115
-211.494	-61.601	-0.477	-0.197
-210.479	-200.000	-0.062	-0.392
-209.465	165.227	0.126	-0.176
-208.450	-90.259	0.159	0.045
-207.436	460.538	0.029	-0.064
-206.421	-96.913	-0.075	-0.019
-205.406	-160.328	0.445	0.024
-204.392	-59.242	-0.254	-0.108
-203.377	-7.610	0.140	-0.093
-202.363	335.755	0.125	-0.238
-201.348	-34.078	0.045	-0.025
-200.333	46.362	-0.417	-0.380
-199.319	54.453	-0.232	-0.220
-198.304	-53.469	0.334	0.150
-197.290	-200.000	-0.025	-0.217
-196.275	800.000	0.052	-0.199
-195.260	681.854	-0.154	0.396
-194.246	800.000	0.013	-0.049
-193.231	-93.733	0.153	0.042
-192.217	800.000	0.069	0.211
-191.202	-133.962	-0.106	0.013
-190.187	-45.096	-0.267	0.131
-189.173	-154.778	0.179	0.012
-188.158	69.893	-0.035	0.035
-187.144	327.804	0.152	0.287
-186.129	-200.000	-0.003	0.060
-185.114	-200.000	-0.010	0.110
-184.100	38.016	-0.109	0.096
-183.085	-31.258	0.187	0.103
-182.071	-50.476	-0.288	-0.134
-181.056	102.723	-0.129	-0.148
-180.042	-200.000	-0.056	-0.400
-179.027	-34.019	-0.197	-0.106
-178.012	800.000	0.068	0.265
-176.998	37.051	0.103	-0.089
-175.983	279.631	-0.166	0.291
-174.969	-200.000	0.015	0.147
-173.954	197.229	0.275	0.412
-172.939	800.000	-0.078	-0.277
-171.925	-91.588	-0.372	-0.104
-170.910	-200.000	0.045	0.289
-169.896	-106.992	0.245	-0.053
-168.881	183.115	0.234	-0.339
-167.866	171.480	-0.245	-0.345
-166.852	800.000	0.057	0.161
-165.837	-200.000	0.022	0.211
-164.823	-186.734	0.137	0.002
-163.808	-136.578	0.336	-0.038
-162.793	-200.000	0.008	0.041
-161.779	-67.249	-0.078	-0.030
-160.764	-65.416	0.095	-0.038
-159.750	-68.219	-0.224	-0.086
-158.735	225.860	-0.049	0.078
-157.720	175.657	0.196	0.279
-156.706	-200.000	0.012	-0.150
-155.691	33.719	0.187	-0.160
-154.677	86.340	-0.131	-0.141
-153.662	-21.950	0.324	0.193
-152.647	754.815	0.122	0.323
-151.633	-54.671	-0.259	0.115
-150.618	-161.100	-0.140	-0.007
-149.604	-200.000	0.007	-0.454
-148.589	-200.000	-0.013	-0.166
-147.574	-83.207	-0.293	0.092
-146.560	-125.670	0.224	-0.033
-145.545	37.558	0.094	0.082
-144.531	-34.854	-0.139	0.074
-143.516	289.270	-0.054	-0.096
-142.502	-76.320	-0.347	0.120
-141.487	80.931	-0.016	-0.017
-140.472	115.849	-0.255	-0.307
-139.458	-200.000	-0.022	0.264
-138.443	-200.000	0.069	-0.316
-137.429	692.782	-0.095	0.245
-136.414	-87.627	0.252	0.075
-135.399	68.784	0.206	0.207
-134.385	-64.271	0.247	-0.099
-133.370	21.275	0.252	-0.201
-132.356	643.561	0.053	0.134
-131.341	-21.095	-0.432	0.259
-130.326	634.219	-0.116	0.289
-129.312	158.535	-0.131	-0.178
-128.297	-50.291	0.021	-0.010
-127.283	-79.885	-0.280	-0.092
-126.268	-200.000	0.025	0.215
-125.253	-112.629	0.319	-0.062
-124.239	-200.000	-0.042	-0.201
-123.224	264.453	0.043	-0.073
-122.210	800.000	0.016	-0.052
-121.195	62.027	0.232	0.227
-120.180	324.379	0.076	-0.142
-119.166	800.000	0.037	0.152
-118.151	464.937	-0.150	0.329
-117.137	21.947	0.249	0.199
-116.122	-200.000	-0.055	0.389
-115.107	3.353	-0.187	-0.133
-114.093	30.811	0.310	-0.260
-113.078	-70.717	0.280	-0.104
-112.064	-120.950	-0.285	-0.047
-111.049	470.533	0.038	-0.084
-110.034	-85.344	-0.078	0.024
-109.020	208.043	-0.009	-0.014
-108.005	-5.871	-0.190	0.127
-106.991	405.478	0.026	-0.053
-105.976	75.051	-0.148	0.153
-104.962	-54.198	-0.272	0.121
-103.947	112.968	0.151	-0.179
-102.932	416.105	-0.089	-0.185
-101.918	103.837	0.090	-0.104
-100.903	-75.340	-0.019	0.007
-99.889	497.991	0.086	0.193
-98.874	75.005	0.157	0.162
-97.859	-146.249	0.236	0.020
-96.845	-83.283	0.085	-0.027
-95.830	69.245	0.192	-0.193
-94.816	800.000	0.087	-0.238
-93.801	-200.000	-0.043	-0.224
-92.786	455.303	-0.039	-0.084
-91.772	20.586	0.170	-0.135
-90.757	-114.819	0.156	-0.029
-89.743	67.006	-0.038	0.038
-88.728	215.398	-0.164	0.255
-87.713	-6.321	-0.122	0.081
-86.699	469.096	-0.086	0.190
-85.684	-19.633	-0.246	-0.149
-84.670	-71.844	-0.180	0.066
-83.655	307.598	0.245	0.446
-82.640	800.000	-0.097	0.285
-81.626	-200.000	-0.023	0.124
-80.611	162.912	0.216	-0.297
-79.597	-200.000	0.020	0.172
-78.582	800.000	0.036	0.139
-77.567	-111.874	0.212	0.042
-76.553	51.166	0.165	0.153
-75.538	100.111	-0.022	0.025
-74.524	295.370	-0.024	0.043
-73.509	7.492	-0.280	-0.205
-72.494	352.912	-0.069	0.134
-71.480	-148.946	-0.240	0.019
-70.465	25.586	-0.181	-0.147
-69.451	-158.634	0.320	-0.018
-68.436	175.238	-0.042	0.059
-67.422	-106.058	0.093	-0.021
-66.407	426.033	0.071	0.149
-65.392	144.929	-0.054	-0.070
-64.378	745.299	0.108	0.284
-63.363	-152.324	0.336	0.024
-62.349	-200.000	0.001	0.241
-61.334	97.203	-0.925	-1.038
-60.319	800.000	0.202	0.585
-59.305	416.855	-0.453	-0.946
-58.290	298.977	0.740	1.333
-57.276	696.117	0.593	1.524
-56.261	-200.000	111.743	646.449
-55.246	490.146	1486.365	3324.458
-54.232	151.735	2644.975	3524.736
-53.217	104.690	2157.821	2486.276
-52.203	38.221	1694.875	1475.363
-51.188	31.007	1515.679	1270.387
-50.173	28.809	1491.283	1235.133
-49.159	53.119	1548.714	1449.716
-48.144	52.024	1564.278	1456.749
-47.130	31.335	1521.589	1277.378
-46.115	28.277	1506.913	1244.267
-45.100	28.190	1502.478	1239.968
-44.086	28.082	1500.658	1237.683
-43.071	27.956	1499.546	1235.861
-42.057	28.000	1497.752	1234.634
-41.042	27.995	1496.437	1233.470
-40.027	27.942	1494.960	1231.840
-39.013	27.990	1493.458	1230.877
-37.998	28.002	1491.903	1229.627
-36.984	27.910	1491.483	1228.616
-35.969	28.044	1489.463	1227.804
-34.954	28.012	1488.226	1226.524
-33.940	27.890	1487.014	1224.653
-32.925	27.938	1485.413	1223.611
-31.911	28.019	1483.752	1222.736
-30.896	27.975	1483.050	1221.813
-29.881	27.985	1481.533	1220.585
-28.867	28.010	1480.717	1220.028
-27.852	28.053	1478.778	1218.671
-26.838	27.974	1478.448	1217.822
-25.823	28.052	1476.413	1216.617
-24.809	28.050	1474.577	1215.044
-23.794	28.091	1473.416	1214.308
-22.779	28.098	1472.107	1213.226
-21.765	28.119	1471.292	1212.651
-20.750	28.089	1470.124	1211.436
-19.736	28.015	1469.646	1210.508
-18.721	27.962	1468.052	1208.796
-17.706	28.085	1466.594	1208.361
-16.692	27.998	1465.613	1206.926
-15.677	27.945	1464.701	1205.780
-14.663	28.073	1463.440	1205.537
-13.648	28.005	1463.037	1204.709
-12.633	27.907	1462.163	1203.295
-11.619	28.002	1461.321	1203.181
-10.604	28.020	1460.065	1202.219
-9.590	27.892	1459.212	1200.626
-8.575	28.011	1458.389	1200.686
-7.560	28.097	1457.362	1200.354
-6.546	27.960	1456.846	1198.984
-5.531	27.969	1455.934	1198.244
-4.517	27.973	1454.962	1197.422
-3.502	28.038	1453.689	1196.753
-2.487	27.974	1452.828	1195.581
-1.473	27.867	1451.974	1194.129
-0.458	28.014	1450.388	1193.738
0.556	26.173	1440.467	1181.247
1.571	22.956	1415.726	1140.132
2.586	19.507	1354.411	1069.330
3.600	17.854	1271.186	993.914
4.615	16.679	1226.396	952.202
5.629	15.883	1173.322	906.628
6.644	12.815	1096.782	831.944
7.659	9.804	1062.513	791.135
8.673	9.429	1057.261	785.324
9.688	9.240	1053.861	781.813
10.702	9.184	1052.114	780.172
11.717	9.218	1050.596	779.142
12.731	10.522	1050.243	785.131
13.746	13.937	1054.881	805.105
14.761	16.898	1058.517	822.190
15.775	17.621	1058.457	825.575
16.790	16.902	1056.654	820.618
17.804	15.865	1054.164	813.602
18.819	14.900	1052.828	807.840
19.834	14.395	1051.248	804.118
20.848	14.075	1050.447	801.891
21.863	13.815	1049.318	799.706
22.877	13.644	1048.619	798.280
23.892	13.528	1047.559	796.843
24.907	13.446	1047.144	796.063
25.921	13.509	1046.017	795.438
26.936	13.562	1045.108	794.932
27.950	13.329	1044.766	793.481
28.965	13.565	1043.251	793.391
29.980	13.460	1042.187	792.009
30.994	13.656	1041.062	792.023
32.009	13.707	1040.189	791.533
33.023	13.734	1039.638	791.171
34.038	13.650	1038.599	789.913
35.053	13.727	1037.563	789.419
36.067	13.718	1035.994	788.114
37.082	13.447	1035.722	786.550
38.096	13.636	1034.663	786.574
39.111	13.613	1034.160	786.009
40.126	13.739	1032.992	785.651
41.140	13.599	1031.867	784.062
42.155	13.584	1030.928	783.208
43.169	13.415	1029.902	781.562
44.184	13.335	1028.869	780.330
45.199	13.372	1028.123	779.870
46.213	13.490	1026.507	779.131
47.228	13.423	1026.200	778.513
48.242	13.449	1025.094	777.730
49.257	13.558	1024.152	777.455
50.271	13.547	1022.667	776.209
51.286	13.574	1022.110	775.845
52.301	13.626	1020.948	775.138
53.315	13.730	1020.298	775.059
54.330	13.545	1019.898	773.824
55.344	13.502	1018.825	772.742
56.359	13.461	1017.926	771.802
57.374	13.443	1017.140	771.054
58.388	13.482	1016.227	770.475
59.403	13.463	1015.519	769.778
60.417	13.341	1014.894	768.672
61.432	13.263	1014.407	767.872
62.447	13.231	1013.252	766.779
63.461	13.297	1012.597	766.521
64.476	13.284	1011.542	765.599
65.490	13.397	1010.578	765.321
66.505	13.261	1009.599	763.887
67.520	13.379	1008.681	763.666
68.534	13.390	1007.741	762.938
69.549	13.389	1007.294	762.529
70.563	13.334	1006.401	761.533
71.578	13.484	1005.711	761.634
72.593	13.251	1005.249	760.145
73.607	13.356	1003.949	759.574
74.622	13.237	1003.346	758.508
75.636	13.286	1002.325	757.892
76.651	13.294	1001.143	756.969
77.666	13.300	1000.855	756.709
78.680	13.238	1000.143	755.821
79.695	13.348	999.083	755.454
80.709	13.425	998.775	755.506
81.724	13.401	997.894	754.664
82.739	13.446	997.432	754.452
83.753	13.453	996.777	753.923
84.768	13.449	996.180	753.389
85.782	13.646	995.126	753.419
86.797	13.627	994.510	752.801
87.812	13.713	993.664	752.482
88.826	13.531	993.378	751.372
89.841	13.495	992.313	750.341
90.855	13.654	991.408	750.307
91.870	13.630	990.446	749.406
92.884	13.685	990.094	749.320
93.899	13.846	988.885	749.067
94.914	13.584	988.738	747.708
95.928	13.661	987.585	747.114
96.943	13.693	986.557	746.417
97.957	13.701	985.864	745.863
98.972	13.648	984.993	744.900
99.987	13.659	984.405	744.436
101.001	13.538	983.847	743.405
102.016	13.640	982.946	743.119
103.030	13.693	981.684	742.335
104.045	13.755	980.634	741.753
105.060	13.708	979.880	740.906
106.074	13.575	979.025	739.600
107.089	13.514	978.398	738.788
108.103	13.351	977.446	737.279
109.118	13.303	976.478	736.269
110.133	13.298	975.615	735.532
111.147	13.314	974.978	735.057
112.162	13.433	973.690	734.551
113.176	13.335	973.000	733.529
114.191	13.441	971.848	733.064
115.206	13.427	971.203	732.451
116.220	13.578	970.270	732.349
117.235	13.527	969.695	731.626
118.249	13.431	968.891	730.534
119.264	13.639	967.498	730.333
120.279	13.532	966.812	729.278
121.293	13.429	966.379	728.433
122.308	13.479	965.539	727.959
123.322	13.378	965.126	727.137
124.337	13.346	963.447	725.668
125.352	13.327	962.698	724.957
126.366	13.360	961.589	724.203
127.381	13.345	960.386	723.168
128.395	13.285	959.695	722.319
129.410	13.517	958.191	722.137
130.424	13.568	957.439	721.729
131.439	13.439	956.774	720.600
132.454	13.490	956.065	720.223
133.468	13.559	955.149	719.771
134.483	13.537	954.910	719.433
135.497	13.498	953.713	718.296
136.512	13.536	953.230	718.035
137.527	13.456	952.457	717.044
138.541	13.556	951.426	716.634
139.556	13.539	951.149	716.288
140.570	13.509	950.362	715.504
141.585	13.523	949.656	714.972
142.600	13.620	948.920	714.770
143.614	13.716	948.233	714.603
144.629	13.757	947.226	713.957
145.643	13.708	946.694	713.285
146.658	13.700	945.802	712.514
147.673	13.699	944.894	711.764
148.687	13.526	944.237	710.463
149.702	13.623	943.020	709.899
150.716	13.576	941.994	708.862
151.731	13.570	941.306	708.258
152.746	13.718	940.192	707.986
153.760	13.588	939.583	706.912
154.775	13.613	938.878	706.425
155.789	13.793	938.288	706.685
156.804	13.718	937.666	705.834
157.819	13.730	936.851	705.211
158.833	13.656	936.952	704.909
159.848	13.826	935.671	704.607
160.862	13.839	935.205	704.246
161.877	13.998	934.025	703.971
162.892	13.825	933.324	702.648
163.906	13.672	932.590	701.386
164.921	13.716	932.100	701.142
165.935	13.769	930.816	700.335
166.950	13.751	929.681	699.347
167.964	13.791	928.885	698.852
168.979	13.863	927.910	698.360
169.994	13.764	927.012	697.207
171.008	13.747	926.079	696.370
172.023	13.678	925.324	695.452
173.037	13.885	924.843	695.897
174.052	13.907	924.302	695.520
175.067	13.865	922.883	694.215
176.081	13.899	922.624	694.100
177.096	13.905	921.086	692.906
178.110	13.728	920.835	691.922
179.125	13.726	920.366	691.498
180.140	13.897	919.354	691.389
181.154	13.951	918.692	691.053
182.169	14.011	918.098	690.795
183.183	14.031	917.246	690.176
184.198	14.082	916.627	689.860
185.213	13.995	915.997	688.967
186.227	14.061	915.352	688.692
187.242	14.132	915.026	688.679
188.256	14.143	914.275	688.101
189.271	14.098	913.951	687.608
190.286	14.144	912.876	686.927
191.300	14.129	912.078	686.206
192.315	13.849	911.316	684.419
193.329	13.836	910.708	683.849
194.344	13.914	910.068	683.627
195.359	13.957	909.289	683.158
196.373	14.035	908.902	683.128
197.388	13.985	908.750	682.746
198.402	14.049	908.097	682.459
199.417	14.258	907.666	682.935
200.432	14.382	906.699	682.653
201.446	14.382	906.397	682.364
202.461	14.342	905.911	681.776
203.475	14.413	905.554	681.736
204.490	14.369	904.848	680.965
205.504	14.250	904.016	679.792
206.519	14.352	903.084	679.449
207.534	14.283	902.408	678.596
208.548	14.294	901.695	678.048
209.563	14.354	900.731	677.504
210.577	14.324	900.101	676.850
211.592	14.356	899.774	676.673
212.607	14.334	899.085	676.006
213.621	14.583	898.426	676.460
214.636	14.506	898.190	675.909
215.650	14.565	897.236	675.372
216.665	14.474	896.605	674.470
217.680	14.496	896.468	674.396
218.694	14.500	895.977	673.984
219.709	14.619	895.218	673.832
220.723	14.628	894.573	673.323
221.738	14.410	893.919	671.892
222.753	14.548	893.134	671.798
223.767	14.587	892.281	671.255
224.782	14.572	891.542	670.579
225.796	14.556	891.083	670.113
226.811	14.657	890.067	669.694
227.826	14.731	889.443	669.459
228.840	14.661	888.328	668.283
229.855	14.589	888.002	667.690
230.869	14.635	887.472	667.418
231.884	14.568	886.930	666.683
232.899	14.579	886.003	665.971
233.913	14.506	885.237	665.046
234.928	14.724	884.628	665.397
235.942	14.639	883.826	664.395
236.957	14.618	883.284	663.846
237.972	14.701	882.509	663.536
238.986	14.466	882.510	662.542
240.001	14.599	881.446	662.215
241.015	14.608	880.771	661.682
242.030	14.754	879.894	661.544
243.045	14.641	879.747	660.927
244.059	14.705	879.084	660.625
245.074	14.725	878.436	660.159
246.088	14.712	877.539	659.375
247.103	14.764	877.163	659.238
248.117	14.921	876.352	659.188
249.132	14.910	876.007	658.827
250.147	14.975	875.467	658.619
251.161	15.035	875.038	658.475
252.176	15.095	874.022	657.886
253.190	15.018	873.676	657.267
254.205	15.197	872.875	657.309
255.220	15.081	872.236	656.312
256.234	15.308	871.106	656.294
257.249	15.335	870.567	655.937
258.263	15.323	870.092	655.473
259.278	15.093	870.175	654.579
260.293	15.086	869.524	654.005
261.307	15.257	868.526	653.863
262.322	15.175	868.131	653.188
263.336	15.339	867.369	653.193
264.351	15.314	866.722	652.553
265.366	15.567	866.241	653.115
266.380	15.486	865.304	652.038
267.395	15.383	865.126	651.446
268.409	15.260	864.256	650.255
269.424	15.260	863.671	649.756
270.439	15.253	863.070	649.221
271.453	15.361	862.099	648.852
272.468	15.397	860.998	648.106
273.482	15.369	861.020	647.955
274.497	15.456	860.312	647.703
275.512	15.371	859.644	646.814
276.526	15.372	858.694	646.044
277.541	15.375	858.139	645.581
278.555	15.369	857.913	645.333
279.570	15.449	857.174	645.027
280.585	15.511	856.638	644.803
281.599	15.559	856.238	644.629
282.614	15.467	855.309	643.521
283.628	15.480	854.936	643.235
284.643	15.564	854.461	643.141
285.657	15.412	853.691	641.923
286.672	15.537	853.270	642.027
287.687	15.565	852.808	641.730
288.701	15.528	852.284	641.138
289.716	15.707	851.574	641.229
290.730	15.621	850.900	640.336
291.745	15.596	850.347	639.769
292.760	15.628	849.650	639.310
293.774	15.648	848.787	638.681
294.789	15.774	848.401	638.811
295.803	15.708	847.980	638.187
296.818	15.838	846.902	637.814
297.833	15.636	846.470	636.666
298.847	15.608	845.850	636.037
299.862	15.816	844.902	636.056
300.876	15.721	844.481	635.322
301.891	15.862	843.836	635.311
302.906	15.969	843.384	635.320
303.920	15.904	842.647	634.463
304.935	15.860	842.265	633.955
305.949	15.998	841.729	634.015
306.964	16.033	840.939	633.494
307.979	15.902	840.566	632.666
308.993	15.907	840.239	632.381
310.008	15.999	839.678	632.249
311.022	16.156	838.591	631.961
312.037	16.027	838.336	631.232
313.052	15.985	837.660	630.510
314.066	15.921	837.487	630.084
315.081	15.915	836.566	629.315
316.095	15.931	835.916	628.827
317.110	16.009	835.517	628.764
318.125	15.940	834.913	627.997
319.139	15.974	834.478	627.739
320.154	15.942	834.064	627.253
321.168	16.137	833.067	627.173
322.183	16.187	832.700	627.028
323.197	16.064	832.204	626.141
324.212	16.090	831.668	625.778
325.227	15.984	831.290	625.048
326.241	16.051	830.694	624.793
327.256	16.083	830.065	624.380
328.270	16.084	829.570	623.958
329.285	16.082	828.788	623.305
330.300	16.261	828.150	623.432
331.314	15.924	828.223	622.187
332.329	16.093	827.312	622.072
333.343	16.209	826.252	621.649
334.358	16.166	826.113	621.331
335.373	16.264	825.364	621.073
336.387	16.331	825.154	621.107
337.402	16.265	824.580	620.375
338.416	16.352	823.569	619.878
339.431	16.408	823.269	619.804
340.446	16.409	823.152	619.665
341.460	16.400	822.652	619.201
342.475	16.445	821.812	618.680
343.489	16.369	821.313	617.970
344.504	16.647	820.707	618.476
345.519	16.493	820.333	617.576
346.533	16.600	819.653	617.400
347.548	16.583	819.291	617.011
348.562	16.532	818.603	616.253
349.577	16.462	818.375	615.773
350.592	16.497	817.807	615.417
351.606	16.381	817.528	614.730
352.621	16.487	816.835	614.539
353.635	16.391	816.488	613.876
354.650	16.510	815.893	613.807
355.665	16.509	815.789	613.669
356.679	16.584	814.984	613.283
357.694	16.465	814.504	612.434
358.708	16.696	814.077	612.896
359.723	16.580	813.714	612.150
360.738	16.722	812.709	611.853
361.752	16.703	812.135	611.297
362.767	16.667	812.021	611.027
363.781	16.617	811.970	610.755
364.796	16.725	811.179	610.496
365.810	16.872	810.650	610.571
366.825	16.938	810.419	610.582
367.840	16.909	810.290	610.325
368.854	16.800	809.741	609.465
369.869	16.964	808.818	609.307
370.883	16.857	808.622	608.720
371.898	16.843	808.002	608.149
372.913	16.868	807.359	607.701
373.927	16.858	806.833	607.216
374.942	16.872	806.359	606.856
375.956	16.938	805.712	606.554
376.971	17.008	804.943	606.170
377.986	17.109	804.541	606.174
379.000	17.137	804.195	605.959
380.015	17.140	803.620	605.485
381.029	17.190	803.117	605.228
382.044	17.035	802.259	603.978
383.059	17.111	801.923	603.940
384.073	17.204	800.957	603.491
385.088	17.042	800.595	602.589
386.102	17.109	800.049	602.363
387.117	17.133	799.659	602.102
388.132	17.002	799.330	601.337
389.146	17.090	799.018	601.358
390.161	17.206	798.421	601.269
391.175	17.241	797.840	600.902
392.190	17.097	797.828	600.331
393.205	17.259	797.328	600.473
394.219	17.278	796.790	600.082
395.234	17.119	796.471	599.226
396.248	17.068	795.968	598.614
397.263	17.100	795.635	598.423
398.278	17.111	794.606	597.637
399.292	17.061	794.299	597.175
400.307	17.094	794.257	597.208
401.321	17.210	793.746	597.178
402.336	17.115	793.275	596.437
403.350	17.153	792.927	596.257
404.365	17.143	792.445	595.806
405.380	17.139	792.205	595.560
406.394	17.429	791.771	596.196
407.409	17.435	791.166	595.711
408.423	17.373	790.586	595.004
409.438	17.546	790.491	595.482
410.453	17.596	789.760	595.054
411.467	17.565	789.254	594.514
412.482	17.480	788.892	593.890
413.496	17.518	788.415	593.611
414.511	17.628	788.069	593.683
415.526	17.545	788.016	593.301
416.540	17.607	787.545	593.109
417.555	17.684	786.789	592.756
418.569	17.697	786.262	592.350
419.584	17.729	785.915	592.150
420.599	17.602	785.393	591.261
421.613	111.710	1292.650	1476.990
422.628	95.841	1366.535	1477.058
