DTS Sentinel unit serial number:	SN413079Multiplexer serial number:	ORYXHardware model number:	OX4-SRSoftware version number:	ORYX F/W v4.00 Oryx Data Collector v3.7.2.0data status	okinstallation	princeton_trtdifferential loss correction	single-endedforward channel	channel 3reverse channel	N/Adate	2019/09/15time	09:48:35forward acquisition time	60.00reverse acquisition time	0.00gamma	496.2192k internal	0.2308k external	0.2308temperature offset calibration	0.9972default loss term (dB/km)	0.3790temperature slope calibration	1.0000multiplexer offset coefficient	1.0000multiplexer slope coefficient	1.0000fibre end	0.00T internal ref (°C)	34.00T ext. ref 1 (°C)	4.97T ext. ref 2 (°C)	29.69length (m)	temperature (°C)	Stokes	anti-Stokes-747.200	-200.000	0.002	-0.086
-746.185	-200.000	-0.057	0.274
-745.171	800.000	0.068	0.301
-744.156	1.265	-0.130	-0.095
-743.142	-50.285	-0.329	-0.158
-742.127	633.980	-0.081	0.208
-741.112	206.837	-0.068	-0.108
-740.098	-200.000	-0.040	0.446
-739.083	-122.102	-0.064	0.011
-738.069	-142.684	-0.106	-0.011
-737.054	0.416	0.033	0.024
-736.039	-200.000	0.008	0.089
-735.025	100.344	0.175	0.206
-734.010	-200.000	-0.031	-0.314
-732.996	117.145	0.124	-0.155
-731.981	715.648	0.043	0.115
-730.966	-116.800	0.217	-0.040
-729.952	-173.916	-0.065	-0.002
-728.937	-200.000	-0.024	-0.141
-727.923	-75.215	-0.225	-0.082
-726.908	-89.478	0.271	-0.081
-725.894	35.127	0.245	-0.218
-724.879	156.219	-0.076	-0.107
-723.864	22.238	0.222	-0.184
-722.850	37.842	0.103	0.093
-721.835	-200.000	-0.002	0.141
-720.821	-200.000	-0.011	0.087
-719.806	72.233	-0.199	0.211
-718.791	-200.000	-0.031	0.210
-717.777	-69.121	-0.121	-0.047
-716.762	496.170	0.155	0.363
-715.748	800.000	-0.093	-0.346
-714.733	268.480	0.029	0.051
-713.718	176.005	0.102	-0.151
-712.704	-106.958	-0.165	-0.037
-711.689	501.831	0.139	0.327
-710.675	-66.835	-0.099	0.040
-709.660	800.000	0.010	-0.042
-708.645	-143.595	0.517	0.050
-707.631	272.809	-0.128	-0.229
-706.616	-189.172	-0.050	-0.001
-705.602	-30.427	0.152	-0.088
-704.587	-87.940	0.277	0.085
-703.572	-76.209	-0.162	-0.058
-702.558	-43.573	-0.150	0.077
-701.543	-200.000	0.019	0.120
-700.529	-4.500	-0.273	-0.191
-699.514	-36.774	0.163	0.089
-698.499	-200.000	0.056	0.291
-697.485	-86.056	-0.299	0.094
-696.470	-79.229	-0.382	-0.132
-695.456	-155.040	0.098	-0.007
-694.441	800.000	-0.140	-0.412
-693.426	-200.000	0.017	-0.353
-692.412	158.884	0.009	-0.012
-691.397	800.000	0.059	-0.173
-690.383	-200.000	-0.015	-0.199
-689.368	-200.000	0.016	0.245
-688.354	347.888	-0.076	-0.153
-687.339	-200.000	-0.029	-0.351
-686.324	-114.154	0.054	0.011
-685.310	-3.408	-0.315	0.223
-684.295	-81.691	0.083	0.028
-683.281	102.368	0.248	0.294
-682.266	15.829	0.073	-0.058
-681.251	188.313	-0.177	-0.268
-680.237	-6.558	-0.115	0.080
-679.222	6.817	0.209	0.158
-678.208	20.585	0.168	0.138
-677.193	-67.924	-0.316	0.125
-676.178	56.399	-0.158	0.155
-675.164	56.510	-0.242	-0.239
-674.149	205.917	-0.082	-0.130
-673.135	322.866	0.075	-0.145
-672.120	-17.490	-0.237	-0.151
-671.105	-200.000	-0.065	-0.429
-670.091	-125.341	-0.115	-0.018
-669.076	-200.000	-0.058	-0.337
-668.062	800.000	0.046	-0.147
-667.047	40.201	0.085	0.078
-666.032	190.862	0.191	0.291
-665.018	588.265	-0.039	0.097
-664.003	26.478	0.274	0.232
-662.989	-57.339	-0.226	0.101
-661.974	-200.000	0.025	-0.124
-660.959	26.020	0.124	-0.105
-659.945	800.000	-0.044	-0.125
-658.930	187.645	0.072	-0.109
-657.916	-200.000	0.026	0.124
-656.901	152.855	-0.106	-0.146
-655.886	-163.342	0.539	0.026
-654.872	-155.798	-0.210	0.014
-653.857	365.317	0.179	0.365
-652.843	-200.000	0.000	0.159
-651.828	482.896	-0.106	0.243
-650.814	-110.617	-0.273	-0.057
-649.799	-87.388	0.311	0.095
-648.784	420.507	-0.085	-0.183
-647.770	12.229	-0.208	0.162
-646.755	-63.841	0.505	-0.209
-645.741	121.083	-0.211	0.266
-644.726	800.000	0.061	0.174
-643.711	26.564	-0.138	0.117
-642.697	-2.251	0.281	0.200
-641.682	800.000	0.041	0.155
-640.668	800.000	-0.079	-0.247
-639.653	-110.095	-0.503	-0.106
-638.638	466.791	0.126	-0.285
-637.624	-47.206	-0.317	0.156
-636.609	-94.400	0.128	0.035
-635.595	4.020	0.269	-0.199
-634.580	38.666	0.143	-0.129
-633.565	-75.517	-0.353	0.127
-632.551	-72.787	-0.219	0.082
-631.536	97.642	-0.132	0.154
-630.522	-88.965	0.213	0.064
-629.507	73.521	0.187	0.198
-628.492	9.545	-0.069	-0.053
-627.478	-200.000	0.019	0.099
-626.463	-62.625	0.165	0.069
-625.449	-69.941	0.091	0.035
-624.434	156.258	0.057	-0.080
-623.419	-168.651	-0.092	0.004
-622.405	-166.135	-0.177	-0.008
-621.390	-86.244	-0.238	0.074
-620.376	38.833	-0.203	0.184
-619.361	78.461	-0.191	-0.206
-618.346	140.683	-0.137	0.183
-617.332	21.850	-0.346	-0.285
-616.317	-52.789	-0.234	-0.109
-615.303	269.445	0.023	-0.040
-614.288	-200.000	0.007	0.287
-613.273	47.010	-0.085	-0.080
-612.259	800.000	-0.033	-0.100
-611.244	513.888	0.071	-0.168
-610.230	-12.843	0.160	0.105
-609.215	-200.000	0.318	-0.000
-608.201	800.000	0.084	-0.239
-607.186	-166.878	-0.192	0.008
-606.171	800.000	-0.040	-0.128
-605.157	-115.835	0.052	0.010
-604.142	-153.005	0.165	-0.012
-603.128	36.427	0.138	-0.123
-602.113	-200.000	0.001	-0.208
-601.098	-184.818	0.231	-0.004
-600.084	442.116	0.117	0.259
-599.069	800.000	-0.130	0.365
-598.055	32.056	-0.203	-0.177
-597.040	-157.124	0.058	0.004
-596.025	371.412	0.053	0.109
-595.011	258.930	0.015	0.027
-593.996	-200.000	-0.024	-0.148
-592.982	197.082	0.127	0.196
-591.967	454.405	0.096	-0.215
-590.952	-35.373	0.066	0.036
-589.938	180.153	-0.101	-0.149
-588.923	-93.770	-0.329	-0.092
-587.909	608.627	0.072	-0.182
-586.894	41.427	-0.141	0.129
-585.879	31.034	-0.058	-0.050
-584.865	232.225	-0.123	-0.205
-583.850	67.410	-0.075	0.077
-582.836	-200.000	-0.005	0.194
-581.821	800.000	0.077	0.229
-580.806	-13.273	0.328	0.215
-579.792	-122.910	-0.177	-0.029
-578.777	-58.470	-0.298	0.131
-577.763	-200.000	-0.063	0.345
-576.748	-78.584	-0.213	-0.074
-575.733	69.430	0.067	0.070
-574.719	-97.067	0.122	0.032
-573.704	30.187	-0.203	-0.175
-572.690	35.393	0.187	0.165
-571.675	-158.976	0.171	-0.010
-570.661	800.000	-0.011	0.044
-569.646	-200.000	0.013	-0.124
-568.631	403.488	0.130	0.277
-567.617	-95.863	0.201	0.054
-566.602	103.438	0.196	-0.232
-565.588	-83.226	0.228	0.074
-564.573	-25.873	0.302	-0.179
-563.558	146.033	0.186	0.251
-562.544	-161.518	-0.151	0.008
-561.529	-46.828	-0.278	-0.137
-560.515	-92.901	0.207	-0.058
-559.500	-43.074	0.195	-0.100
-558.485	510.969	-0.182	-0.426
-557.471	108.032	-0.115	-0.138
-556.456	783.874	-0.049	-0.136
-555.442	61.783	0.132	-0.133
-554.427	489.462	0.055	0.127
-553.412	-113.714	0.242	0.048
-552.398	-38.787	-0.193	0.103
-551.383	204.370	0.035	0.055
-550.369	393.060	0.074	0.156
-549.354	-45.634	0.126	-0.063
-548.339	195.894	-0.084	-0.129
-547.325	3.766	0.168	0.124
-546.310	-55.512	-0.170	-0.077
-545.296	-39.072	-0.124	-0.066
-544.281	-200.000	-0.005	-0.435
-543.266	27.096	-0.237	-0.201
-542.252	-40.973	0.189	-0.099
-541.237	11.430	-0.245	-0.190
-540.223	45.638	-0.120	0.112
-539.208	-154.324	0.265	-0.018
-538.193	123.008	-0.150	-0.189
-537.179	800.000	0.019	0.076
-536.164	-105.301	-0.163	0.037
-535.150	73.932	-0.297	-0.314
-534.135	-200.000	0.030	0.335
-533.121	-39.790	0.209	0.110
-532.106	71.352	-0.234	-0.245
-531.091	800.000	0.102	0.360
-530.077	638.244	0.107	0.275
-529.062	800.000	0.121	0.484
-528.048	76.403	-0.237	-0.253
-527.033	45.350	-0.195	0.182
-526.018	-8.716	0.199	0.135
-525.004	-56.874	0.113	-0.050
-523.989	88.126	-0.126	0.141
-522.975	-42.009	-0.146	0.075
-521.960	-103.078	0.151	0.036
-520.945	800.000	-0.041	-0.135
-519.931	-19.216	-0.169	-0.106
-518.916	-200.000	-0.042	0.201
-517.902	548.742	0.079	0.190
-516.887	-200.000	-0.066	-0.370
-515.872	-136.534	-0.136	0.016
-514.858	-200.000	-0.010	0.073
-513.843	-200.000	0.019	0.103
-512.829	-67.534	-0.117	0.046
-511.814	-122.165	0.193	-0.032
-510.799	466.942	0.122	-0.276
-509.785	800.000	0.065	0.272
-508.770	79.716	-0.149	0.161
-507.756	177.034	-0.170	-0.249
-506.741	800.000	-0.029	-0.107
-505.726	800.000	-0.032	0.121
-504.712	-21.179	-0.103	0.063
-503.697	-200.000	0.006	0.231
-502.683	664.066	0.090	0.234
-501.668	-61.953	-0.206	-0.087
-500.653	186.652	0.114	0.170
-499.639	-200.000	0.073	-0.369
-498.624	-180.145	0.278	0.006
-497.610	-66.643	0.175	-0.070
-496.595	-3.745	0.167	0.117
-495.581	-106.391	-0.297	-0.067
-494.566	-200.000	-0.085	-0.391
-493.551	-200.000	0.023	-0.144
-492.537	190.728	0.045	0.069
-491.522	58.453	-0.339	0.335
-490.508	4.257	0.122	0.090
-489.493	-89.234	-0.058	0.017
-488.478	-86.670	-0.198	0.061
-487.464	46.834	-0.245	-0.229
-486.449	85.083	-0.156	-0.172
-485.435	181.019	0.084	0.124
-484.420	800.000	-0.059	-0.234
-483.405	-109.024	0.109	-0.023
-482.391	-131.275	-0.152	0.020
-481.376	-36.446	0.173	-0.094
-480.362	-138.326	-0.485	-0.054
-479.347	-200.000	0.004	0.071
-478.332	-27.261	-0.177	-0.104
-477.318	-81.855	0.141	-0.046
-476.303	-129.190	-0.159	-0.022
-475.289	630.156	0.109	0.278
-474.274	5.614	-0.313	-0.233
-473.259	800.000	-0.061	-0.192
-472.245	-76.327	-0.276	0.098
-471.230	25.160	0.226	-0.189
-470.216	619.561	-0.040	0.101
-469.201	-36.269	-0.162	-0.088
-468.186	-101.370	0.147	-0.036
-467.172	800.000	-0.093	-0.333
-466.157	467.103	0.052	-0.117
-465.143	33.221	-0.101	-0.088
-464.128	-72.985	0.392	-0.145
-463.113	43.394	0.183	-0.168
-462.099	-200.000	-0.008	-0.050
-461.084	-92.671	0.288	0.081
-460.070	-25.692	-0.082	-0.049
-459.055	20.212	0.095	-0.077
-458.040	-200.000	-0.027	0.165
-457.026	295.000	0.135	-0.247
-456.011	-55.303	-0.060	0.027
-454.997	574.963	-0.139	-0.340
-453.982	544.427	-0.053	-0.127
-452.968	800.000	0.034	-0.137
-451.953	-148.787	0.115	-0.009
-450.938	12.107	0.085	-0.066
-449.924	20.392	-0.173	0.141
-448.909	-6.806	0.114	0.078
-447.895	-200.000	0.013	0.090
-446.880	582.844	-0.146	-0.359
-445.865	-45.955	-0.400	-0.198
-444.851	-200.000	-0.011	0.187
-443.836	75.076	-0.156	0.165
-442.822	800.000	-0.085	0.336
-441.807	-136.897	-0.381	-0.044
-440.792	86.028	-0.051	0.057
-439.778	-113.311	0.372	0.073
-438.763	120.495	0.078	-0.097
-437.749	800.000	-0.032	-0.126
-436.734	-81.141	0.238	-0.079
-435.719	702.649	0.061	-0.162
-434.705	-200.000	0.026	-0.350
-433.690	441.105	0.150	0.330
-432.676	-58.962	0.189	-0.082
-431.661	800.000	0.037	-0.135
-430.646	-200.000	0.051	-0.458
-429.632	218.296	-0.050	-0.080
-428.617	-200.000	-0.011	-0.099
-427.603	88.849	0.280	0.313
-426.588	-48.365	-0.222	0.107
-425.573	-85.499	0.198	0.062
-424.559	320.249	-0.126	0.240
-423.544	86.947	0.183	0.203
-422.530	800.000	-0.016	-0.069
-421.515	111.701	-0.125	-0.151
-420.500	-200.000	-0.004	-0.222
-419.486	800.000	0.073	-0.214
-418.471	-200.000	-0.023	0.280
-417.457	92.231	-0.081	-0.091
-416.442	-146.174	0.422	-0.037
-415.428	-56.468	-0.233	-0.104
-414.413	-1.856	-0.367	0.259
-413.398	40.570	0.078	-0.071
-412.384	-1.784	-0.063	-0.045
-411.369	134.079	0.087	0.113
-410.355	193.044	-0.123	-0.187
-409.340	-200.000	-0.064	-0.286
-408.325	100.837	-0.173	-0.202
-407.311	0.561	-0.311	-0.223
-406.296	-67.078	0.099	0.039
-405.282	800.000	0.053	0.202
-404.267	293.009	-0.110	0.202
-403.252	-172.246	-0.231	-0.007
-402.238	800.000	-0.016	-0.059
-401.223	-75.422	0.266	-0.095
-400.209	217.337	0.025	0.040
-399.194	15.784	-0.162	0.128
-398.179	126.526	-0.071	-0.091
-397.165	18.710	-0.180	0.145
-396.150	-200.000	0.030	0.248
-395.136	179.611	0.101	-0.148
-394.121	-98.174	-0.183	0.047
-393.106	-120.237	-0.113	0.019
-392.092	288.690	0.032	0.058
-391.077	-18.783	0.133	-0.083
-390.063	-93.474	-0.148	0.041
-389.048	800.000	0.083	-0.297
-388.033	-30.642	-0.183	0.104
-387.019	410.615	0.111	-0.237
-386.004	-59.263	0.249	-0.107
-384.990	800.000	-0.066	-0.194
-383.975	-22.894	-0.112	0.068
-382.960	-200.000	0.013	-0.257
-381.946	-26.051	-0.089	-0.052
-380.931	-200.000	-0.010	-0.079
-379.917	74.248	0.284	-0.299
-378.902	100.836	0.101	0.117
-377.888	394.251	-0.131	-0.274
-376.873	800.000	-0.076	0.270
-375.858	-200.000	-0.090	-0.630
-374.844	25.042	-0.097	0.081
-373.829	-85.541	0.105	0.033
-372.815	-5.945	0.192	0.132
-371.800	378.664	-0.052	-0.106
-370.785	708.376	0.127	0.337
-369.771	800.000	0.041	0.122
-368.756	46.556	0.232	0.215
-367.742	-200.000	0.024	0.312
-366.727	-25.716	-0.237	0.140
-365.712	-57.770	0.231	-0.101
-364.698	-200.000	0.049	-0.282
-363.683	40.987	-0.053	0.048
-362.669	172.849	-0.072	-0.104
-361.654	128.674	0.106	0.136
-360.639	453.083	-0.054	0.120
-359.625	-32.967	0.271	0.151
-358.610	46.983	-0.114	-0.106
-357.596	34.676	0.299	0.262
-356.581	-60.974	-0.168	-0.071
-355.566	-72.152	0.216	0.080
-354.552	66.192	-0.259	0.264
-353.537	355.980	-0.039	0.077
-352.523	-157.057	-0.129	-0.008
-351.508	-27.956	-0.175	0.102
-350.493	800.000	-0.073	-0.265
-349.479	21.797	0.161	0.132
-348.464	107.436	-0.050	0.060
-347.450	-23.359	-0.087	0.052
-346.435	97.352	0.164	-0.188
-345.420	-113.033	0.236	-0.047
-344.406	30.366	0.166	0.142
-343.391	112.673	0.167	0.202
-342.377	-61.374	-0.152	-0.064
-341.362	7.186	-0.208	0.155
-340.348	104.278	0.096	-0.113
-339.333	-149.288	-0.061	0.005
-338.318	266.844	0.056	0.098
-337.304	229.932	-0.095	0.154
-336.289	-200.000	0.016	-0.277
-335.275	-153.398	0.196	0.014
-334.260	800.000	-0.057	0.161
-333.245	800.000	-0.050	0.155
-332.231	-0.188	-0.419	0.298
-331.216	-200.000	-0.004	-0.105
-330.202	-9.705	0.157	-0.105
-329.187	31.666	0.244	0.210
-328.172	-200.000	0.010	-0.128
-327.158	59.853	0.386	0.381
-326.143	-75.870	0.328	0.116
-325.129	-94.478	-0.173	0.047
-324.114	425.940	0.051	0.110
-323.099	-93.412	-0.344	0.095
-322.085	-60.250	0.079	0.034
-321.070	-11.030	0.144	-0.095
-320.056	120.435	0.086	-0.107
-319.041	267.843	0.192	-0.336
-318.026	-130.051	0.188	0.026
-317.012	-140.835	-0.282	0.029
-315.997	-105.904	0.191	0.043
-314.983	-5.687	0.210	-0.144
-313.968	231.770	-0.103	-0.168
-312.953	800.000	-0.034	-0.109
-311.939	527.607	-0.161	-0.379
-310.924	-200.000	-0.023	0.328
-309.910	-129.856	-0.276	0.038
-308.895	49.146	-0.188	-0.176
-307.880	-60.151	0.148	0.063
-306.866	111.197	0.289	-0.348
-305.851	-200.000	-0.025	-0.241
-304.837	-200.000	0.007	-0.067
-303.822	28.706	0.088	0.074
-302.807	-22.428	0.105	0.064
-301.793	-75.923	0.172	0.061
-300.778	171.929	0.131	-0.188
-299.764	49.433	0.267	0.251
-298.749	-82.573	0.324	0.105
-297.735	-63.863	0.228	0.093
-296.720	296.704	-0.065	-0.119
-295.705	228.328	-0.154	0.250
-294.691	292.189	0.090	0.163
-293.676	268.154	-0.110	0.192
-292.662	92.747	-0.207	0.233
-291.647	-91.799	0.393	0.111
-290.632	-92.494	0.008	0.002
-289.618	2.238	0.160	0.115
-288.603	-200.000	-0.008	-0.041
-287.589	-17.909	0.233	0.146
-286.574	-200.000	-0.025	0.115
-285.559	453.474	-0.109	0.241
-284.545	-170.810	-0.355	-0.012
-283.530	136.826	0.113	0.147
-282.516	68.255	-0.175	0.179
-281.501	231.062	-0.105	0.171
-280.486	799.029	0.058	0.159
-279.472	-165.863	0.269	0.012
-278.457	-87.997	0.198	-0.059
-277.443	111.246	0.074	-0.089
-276.428	800.000	-0.067	0.243
-275.413	-200.000	0.005	0.230
-274.399	195.864	-0.314	-0.476
-273.384	-42.120	0.148	0.075
-272.370	-28.175	-0.383	0.221
-271.355	-66.200	0.032	0.013
-270.340	800.000	0.052	-0.182
-269.326	-46.291	-0.140	-0.069
-268.311	68.682	0.289	-0.296
-267.297	147.621	-0.108	0.145
-266.282	-200.000	-0.037	-0.180
-265.267	211.711	0.072	-0.113
-264.253	41.500	-0.109	-0.098
-263.238	394.744	-0.105	-0.217
-262.224	-136.432	-0.216	-0.025
-261.209	51.749	0.244	0.232
-260.195	1.511	0.338	-0.243
-259.180	240.341	0.098	0.162
-258.165	200.691	0.073	-0.113
-257.151	135.072	0.165	-0.213
-256.136	-68.645	0.338	-0.130
-255.122	800.000	-0.048	0.139
-254.107	236.179	0.084	0.139
-253.092	7.616	-0.196	0.146
-252.078	143.940	0.258	0.344
-251.063	125.587	-0.181	-0.227
-250.049	175.182	0.073	0.106
-249.034	-200.000	0.017	-0.114
-248.019	-77.650	-0.064	0.022
-247.005	373.002	-0.044	-0.089
-245.990	306.987	0.122	-0.226
-244.976	41.753	-0.179	0.161
-243.961	-130.790	0.284	0.038
-242.946	571.309	0.141	-0.341
-241.932	510.601	-0.108	-0.251
-240.917	-169.477	-0.231	0.008
-239.903	536.309	0.080	0.189
-238.888	24.678	0.101	-0.083
-237.873	10.532	0.080	-0.061
-236.859	-200.000	-0.028	-0.395
-235.844	61.386	-0.133	0.132
-234.830	153.189	-0.249	-0.339
-233.815	12.286	-0.293	-0.225
-232.800	-200.000	-0.004	-0.115
-231.786	-148.639	0.387	0.031
-230.771	-200.000	0.033	0.321
-229.757	96.464	-0.057	0.065
-228.742	-75.035	0.262	0.094
-227.727	234.839	0.110	0.180
-226.713	-130.115	-0.063	-0.009
-225.698	-60.594	0.371	-0.157
-224.684	-154.618	-0.099	-0.007
-223.669	-99.038	-0.232	0.059
-222.655	800.000	0.036	0.144
-221.640	139.972	0.039	0.051
-220.625	-122.082	-0.162	0.027
-219.611	-19.274	0.182	0.113
-218.596	339.958	0.081	-0.157
-217.582	95.308	0.117	-0.133
-216.567	-142.693	-0.199	0.019
-215.552	800.000	0.111	0.468
-214.538	61.025	-0.357	0.353
-213.523	17.119	-0.178	0.141
-212.509	-30.059	0.303	0.172
-211.494	-111.070	0.147	-0.030
-210.479	197.976	-0.219	0.333
-209.465	75.719	0.170	0.178
-208.450	-124.090	-0.212	0.033
-207.436	-101.097	-0.364	0.089
-206.421	552.294	-0.076	0.182
-205.406	800.000	-0.059	-0.241
-204.392	-23.944	-0.183	0.109
-203.377	-154.323	0.248	0.017
-202.363	167.050	-0.147	-0.208
-201.348	206.814	-0.063	-0.098
-200.333	-200.000	0.019	0.243
-199.319	800.000	0.099	-0.351
-198.304	800.000	-0.020	0.072
-197.290	-153.586	0.251	-0.017
-196.275	-200.000	-0.023	0.283
-195.260	-86.998	-0.208	-0.063
-194.246	-109.604	0.101	0.021
-193.231	118.327	-0.233	0.286
-192.217	97.672	0.134	-0.153
-191.202	236.860	0.080	-0.131
-190.187	39.364	-0.085	-0.076
-189.173	-200.000	-0.035	0.277
-188.158	-97.960	-0.295	0.076
-187.144	800.000	-0.052	0.222
-186.129	-69.098	0.332	-0.127
-185.114	-101.738	-0.313	-0.075
-184.100	-170.305	0.232	0.008
-183.085	99.539	0.175	0.202
-182.071	-87.438	-0.164	0.049
-181.056	-69.349	0.116	0.044
-180.042	-200.000	0.005	-0.232
-179.027	231.638	-0.194	-0.316
-178.012	387.038	0.116	-0.238
-176.998	479.121	0.026	0.058
-175.983	-200.000	-0.016	-0.122
-174.969	800.000	-0.035	0.101
-173.954	504.512	-0.075	0.172
-172.939	-171.510	0.323	0.011
-171.925	480.581	0.048	-0.108
-170.910	43.389	-0.128	0.117
-169.896	-83.434	0.230	-0.073
-168.881	-200.000	-0.021	-0.226
-167.866	800.000	0.074	0.287
-166.852	800.000	-0.096	-0.286
-165.837	-200.000	0.008	-0.079
-164.823	-200.000	0.025	0.143
-163.808	11.098	-0.067	0.051
-162.793	41.021	0.065	0.058
-161.779	276.510	-0.187	0.329
-160.764	-200.000	0.006	0.135
-159.750	645.218	0.081	0.206
-158.735	800.000	0.002	-0.008
-157.720	-35.969	0.190	-0.102
-156.706	800.000	-0.063	-0.248
-155.691	68.869	-0.192	-0.196
-154.677	-3.935	-0.188	0.130
-153.662	35.133	0.158	-0.138
-152.647	47.144	-0.154	0.142
-151.633	-34.601	-0.114	-0.062
-150.618	-108.866	-0.092	-0.020
-149.604	-81.270	-0.351	0.115
-148.589	-11.753	-0.127	0.083
-147.574	144.304	-0.245	-0.325
-146.560	361.208	0.078	-0.155
-145.545	-141.779	-0.038	0.004
-144.531	37.397	0.098	0.086
-143.516	92.920	-0.032	-0.036
-142.502	521.379	0.084	-0.197
-141.487	-30.225	-0.191	0.108
-140.472	-9.414	0.330	-0.219
-139.458	-200.000	0.049	-0.263
-138.443	-28.561	0.367	-0.210
-137.429	-200.000	-0.000	0.093
-136.414	-18.548	0.204	-0.126
-135.399	174.766	-0.293	-0.420
-134.385	271.572	0.173	-0.302
-133.370	-200.000	-0.006	-0.366
-132.356	800.000	0.066	-0.185
-131.341	596.210	0.093	-0.229
-130.326	-39.091	0.222	-0.116
-129.312	-0.250	-0.023	-0.016
-128.297	-197.559	-0.312	0.002
-127.283	201.347	-0.128	-0.195
-126.268	201.969	0.163	0.250
-125.253	100.449	-0.078	-0.090
-124.239	-200.000	-0.004	0.245
-123.224	524.265	0.075	-0.176
-122.210	208.557	-0.061	0.095
-121.195	-48.742	0.348	-0.166
-120.180	-19.056	0.242	-0.149
-119.166	0.236	0.162	0.115
-118.151	96.252	0.150	0.171
-117.137	74.297	0.322	0.335
-116.122	-138.716	0.181	-0.020
-115.107	108.853	-0.205	-0.243
-114.093	785.546	-0.053	0.145
-113.078	410.903	0.183	0.385
-112.064	38.850	0.172	-0.152
-111.049	47.146	0.229	0.211
-110.034	-52.912	0.340	-0.155
-109.020	-200.000	-0.007	0.269
-108.005	522.947	-0.074	-0.173
-106.991	126.406	0.216	-0.270
-105.976	800.000	-0.104	-0.372
-104.962	-33.670	-0.019	-0.011
-103.947	121.687	0.122	0.151
-102.932	12.640	0.110	-0.084
-101.918	800.000	0.010	0.034
-100.903	713.418	0.072	0.188
-99.889	-75.030	-0.129	0.046
-98.874	-125.928	0.237	0.035
-97.859	5.912	0.397	-0.291
-96.845	-42.420	-0.070	-0.036
-95.830	-131.691	0.360	-0.047
-94.816	800.000	0.065	-0.185
-93.801	800.000	0.046	-0.138
-92.786	800.000	-0.059	0.173
-91.772	192.260	-0.061	0.091
-90.757	-70.062	0.208	-0.079
-89.743	-38.299	0.168	0.088
-88.728	-200.000	0.020	-0.146
-87.713	315.884	0.041	-0.077
-86.699	-19.986	-0.368	0.225
-85.684	-200.000	-0.034	0.353
-84.670	-57.312	-0.456	0.199
-83.655	54.282	-0.097	0.093
-82.640	176.630	0.202	-0.290
-81.626	-200.000	-0.041	0.310
-80.611	-200.000	0.046	0.338
-79.597	48.453	-0.064	-0.059
-78.582	800.000	-0.074	0.220
-77.567	113.245	-0.160	-0.193
-76.553	-112.529	-0.172	0.034
-75.538	-157.653	0.299	-0.018
-74.524	272.322	0.087	-0.152
-73.509	-129.142	-0.145	0.020
-72.494	-200.000	0.008	-0.193
-71.480	-200.000	0.018	-0.167
-70.465	-161.352	-0.202	0.010
-69.451	417.365	-0.033	-0.070
-68.436	407.149	-0.186	-0.389
-67.422	800.000	-0.049	-0.200
-66.407	-200.000	0.040	0.240
-65.392	800.000	-0.041	0.173
-64.378	-150.886	0.297	-0.022
-63.363	464.848	-0.104	0.231
-62.349	-34.769	0.241	0.130
-61.334	331.697	-0.623	-1.189
-60.319	100.510	0.426	0.490
-59.305	-200.000	-0.051	-0.845
-58.290	181.445	0.407	0.592
-57.276	571.797	0.763	1.840
-56.261	-200.000	97.685	575.155
-55.246	618.388	1409.450	3502.370
-54.232	184.534	2617.936	3838.102
-53.217	118.919	2208.024	2699.869
-52.203	44.448	1738.799	1580.107
-51.188	36.982	1550.259	1356.713
-50.173	34.691	1522.806	1316.863
-49.159	53.508	1574.346	1493.844
-48.144	56.654	1592.366	1532.930
-47.130	37.463	1547.700	1357.617
-46.115	34.293	1531.799	1321.666
-45.100	34.007	1529.234	1317.417
-44.086	34.006	1527.212	1315.621
-43.071	34.041	1524.888	1313.803
-42.057	33.974	1523.831	1312.378
-41.042	33.954	1521.975	1310.595
-40.027	34.009	1520.859	1309.960
-39.013	34.063	1519.339	1308.969
-37.998	34.007	1517.730	1307.142
-36.984	33.997	1516.726	1306.160
-35.969	34.016	1515.521	1305.201
-34.954	33.954	1514.387	1303.749
-33.940	33.969	1512.897	1302.513
-32.925	33.927	1511.567	1301.031
-31.911	34.010	1510.066	1300.255
-30.896	34.040	1508.947	1299.444
-29.881	34.223	1507.151	1299.092
-28.867	34.113	1506.370	1297.619
-27.852	34.010	1505.105	1295.777
-26.838	34.031	1503.323	1294.337
-25.823	34.059	1501.871	1293.227
-24.809	34.057	1500.147	1291.675
-23.794	33.987	1498.821	1290.005
-22.779	33.987	1497.766	1289.046
-21.765	34.038	1496.514	1288.265
-20.750	34.066	1495.035	1287.128
-19.736	34.090	1493.806	1286.182
-18.721	33.966	1492.801	1284.432
-17.706	33.934	1492.289	1283.722
-16.692	33.927	1491.217	1282.699
-15.677	34.037	1489.751	1282.131
-14.663	34.030	1488.910	1281.306
-13.648	34.068	1487.940	1280.675
-12.633	33.946	1486.797	1278.822
-11.619	34.048	1485.867	1278.656
-10.604	33.968	1484.840	1277.185
-9.590	33.897	1484.641	1276.485
-8.575	34.024	1483.294	1276.132
-7.560	33.969	1482.886	1275.359
-6.546	33.936	1482.047	1274.369
-5.531	33.855	1481.618	1273.407
-4.517	34.078	1479.960	1273.421
-3.502	33.919	1479.286	1271.725
-2.487	33.994	1477.960	1271.035
-1.473	33.816	1476.820	1268.818
-0.458	33.880	1475.795	1268.317
0.556	32.721	1466.671	1258.169
1.571	29.872	1440.179	1216.634
2.586	26.254	1378.303	1141.449
3.600	24.557	1294.771	1062.097
4.615	23.040	1248.258	1015.144
5.629	20.086	1192.082	953.150
6.644	12.150	1106.911	844.279
7.659	6.052	1064.917	781.907
8.673	5.186	1059.193	773.345
9.688	4.888	1056.596	769.911
10.702	4.967	1054.829	768.943
11.717	4.839	1052.896	766.837
12.731	7.453	1055.578	781.609
13.746	14.892	1066.495	826.524
14.761	19.387	1071.175	852.343
15.775	18.591	1069.500	847.006
16.790	17.351	1066.778	838.662
17.804	16.336	1064.770	832.013
18.819	15.385	1062.998	825.875
19.834	15.054	1061.056	822.668
20.848	14.759	1060.045	820.363
21.863	14.473	1059.487	818.456
22.877	14.140	1059.405	816.684
23.892	14.124	1057.467	815.040
24.907	14.033	1056.880	814.069
25.921	14.042	1056.131	813.466
26.936	14.034	1055.529	812.887
27.950	14.036	1054.655	812.156
28.965	14.099	1053.502	811.504
29.980	14.142	1052.434	810.817
30.994	14.138	1051.081	809.685
32.009	14.248	1050.108	809.399
33.023	14.351	1049.322	809.219
34.038	14.362	1048.376	808.473
35.053	14.127	1047.953	806.936
36.067	14.194	1046.698	806.219
37.082	14.054	1046.285	805.153
38.096	14.267	1045.123	805.221
39.111	14.273	1044.281	804.530
40.126	14.291	1043.169	803.689
41.140	14.122	1042.572	802.342
42.155	13.991	1041.549	800.848
43.169	14.012	1040.118	799.781
44.184	13.952	1039.155	798.680
45.199	13.905	1038.425	797.823
46.213	13.892	1037.469	796.956
47.228	13.996	1036.197	796.406
48.242	14.010	1035.196	795.633
49.257	14.081	1034.595	795.444
50.271	13.974	1033.538	794.049
51.286	14.059	1032.568	793.638
52.301	14.078	1031.560	792.885
53.315	14.015	1031.000	792.081
54.330	14.090	1029.703	791.374
55.344	14.020	1029.107	790.511
56.359	14.068	1027.671	789.566
57.374	13.994	1027.175	788.766
58.388	13.988	1026.273	787.974
59.403	13.943	1025.460	787.066
60.417	13.899	1024.833	786.309
61.432	13.850	1024.667	785.879
62.447	13.775	1023.606	784.643
63.461	13.790	1022.774	784.006
64.476	13.893	1021.623	783.540
65.490	13.775	1020.635	782.155
66.505	13.832	1020.105	781.951
67.520	13.832	1018.826	780.897
68.534	13.933	1018.271	780.880
69.549	13.864	1018.039	780.309
70.563	13.918	1016.915	779.631
71.578	13.825	1016.671	778.936
72.593	13.798	1015.726	778.018
73.607	13.693	1014.392	776.439
74.622	13.729	1013.254	775.666
75.636	13.684	1012.319	774.673
76.651	13.752	1011.843	774.555
77.666	13.766	1011.040	773.936
78.680	13.792	1010.118	773.285
79.695	13.803	1009.766	773.000
80.709	13.793	1009.230	772.471
81.724	13.914	1008.216	772.189
82.739	13.854	1007.673	771.426
83.753	13.914	1006.724	770.909
84.768	14.138	1005.822	771.193
85.782	14.173	1005.731	771.215
86.797	14.178	1004.549	770.264
87.812	14.254	1003.697	769.896
88.826	14.176	1002.926	768.876
89.841	14.166	1002.118	768.142
90.855	14.171	1001.483	767.607
91.870	14.117	1000.811	766.775
92.884	14.122	1000.240	766.294
93.899	14.195	999.317	765.858
94.914	14.198	998.654	765.296
95.928	14.376	997.750	765.352
96.943	14.179	997.593	764.256
97.957	14.149	996.513	763.227
98.972	14.131	995.703	762.454
99.987	14.230	994.505	761.923
101.001	14.151	993.903	761.036
102.016	14.227	992.979	760.603
103.030	14.208	992.176	759.835
104.045	14.212	991.133	758.987
105.060	14.221	990.248	758.288
106.074	14.176	989.367	757.340
107.089	14.070	988.366	756.022
108.103	14.032	987.440	755.076
109.118	13.923	986.705	753.954
110.133	13.901	985.527	752.887
111.147	13.976	984.744	752.561
112.162	13.880	984.342	751.753
113.176	14.000	983.496	751.582
114.191	13.927	982.519	750.437
115.206	13.929	981.495	749.600
116.220	14.033	980.823	749.488
117.235	13.985	980.295	748.802
118.249	13.908	979.170	747.532
119.264	14.088	978.160	747.502
120.279	13.878	977.584	746.053
121.293	13.797	976.582	744.857
122.308	13.850	976.120	744.679
123.322	13.903	974.531	743.640
124.337	13.890	973.406	742.655
125.352	13.921	972.465	742.011
126.366	13.774	972.082	740.996
127.381	13.877	970.204	739.958
128.395	13.812	969.559	739.109
129.410	13.846	968.825	738.640
130.424	13.822	967.999	737.835
131.439	13.940	967.125	737.629
132.454	13.969	966.293	737.058
133.468	14.062	965.642	736.908
134.483	14.220	964.519	736.683
135.497	13.990	964.452	735.552
136.512	14.024	963.779	735.124
137.527	14.088	962.823	734.609
138.541	14.002	961.790	733.376
139.556	14.096	961.207	733.281
140.570	14.127	960.382	732.724
141.585	14.174	959.249	732.003
142.600	14.241	958.830	731.911
143.614	14.185	958.256	731.164
144.629	14.259	957.757	731.044
145.643	14.297	956.893	730.488
146.658	14.285	955.987	729.678
147.673	14.208	955.323	728.767
148.687	14.063	954.128	727.160
149.702	14.068	953.586	726.705
150.716	14.165	952.411	726.168
151.731	14.071	951.559	725.044
152.746	14.218	950.428	724.756
153.760	14.130	950.496	724.361
154.775	14.075	949.603	723.377
155.789	14.200	948.644	723.126
156.804	14.081	948.162	722.177
157.819	14.209	946.937	721.735
158.833	14.227	946.335	721.291
159.848	14.409	945.666	721.507
160.862	14.245	945.425	720.549
161.877	14.393	944.101	720.114
162.892	14.252	943.415	718.920
163.906	14.210	942.685	718.118
164.921	14.191	941.992	717.445
165.935	14.071	941.111	716.194
166.950	14.257	939.634	715.807
167.964	14.301	938.843	715.328
168.979	14.295	938.174	714.730
169.994	14.431	936.263	713.796
171.008	14.188	936.037	712.520
172.023	14.115	935.492	711.729
173.037	14.422	934.401	712.146
174.052	14.461	933.718	711.732
175.067	14.323	933.467	710.885
176.081	14.418	932.440	710.448
177.096	14.147	931.588	708.581
178.110	14.270	930.460	708.184
179.125	14.287	929.926	707.786
180.140	14.317	929.407	707.458
181.154	14.375	928.622	707.043
182.169	14.318	927.924	706.207
183.183	14.397	927.523	706.176
184.198	14.390	926.781	705.516
185.213	14.477	926.009	705.234
186.227	14.587	925.252	705.060
187.242	14.525	925.169	704.671
188.256	14.684	923.958	704.361
189.271	14.623	923.449	703.651
190.286	14.626	922.663	703.003
191.300	14.549	921.746	701.917
192.315	14.230	921.229	700.122
193.329	14.407	919.983	699.856
194.344	14.326	919.367	698.983
195.359	14.294	919.503	698.894
196.373	14.435	918.812	698.895
197.388	14.388	918.337	698.277
198.402	14.689	917.664	698.960
199.417	14.567	917.944	698.601
200.432	14.721	917.340	698.726
201.446	14.727	916.468	698.023
202.461	14.771	915.946	697.751
203.475	14.868	915.803	697.983
204.490	14.908	914.386	697.008
205.504	14.788	913.749	695.962
206.519	14.791	912.929	695.289
207.534	14.689	912.253	694.288
208.548	14.719	911.714	693.939
209.563	14.788	910.717	693.408
210.577	14.636	910.250	692.358
211.592	14.658	909.826	692.068
212.607	14.701	909.313	691.791
213.621	14.924	908.647	692.147
214.636	15.066	907.489	691.792
215.650	14.862	906.997	690.514
216.665	14.908	906.669	690.392
217.680	14.981	905.700	689.896
218.694	15.042	905.379	689.841
219.709	14.975	904.894	689.134
220.723	15.099	904.350	689.169
221.738	15.091	903.568	688.479
222.753	15.022	902.927	687.646
223.767	15.029	901.778	686.738
224.782	15.005	901.359	686.260
225.796	14.990	900.848	685.749
226.811	15.138	899.872	685.550
227.826	15.032	899.242	684.579
228.840	15.007	898.690	683.994
229.855	15.080	897.821	683.569
230.869	15.010	897.189	682.746
231.884	14.952	896.550	681.961
232.899	15.035	895.830	681.692
233.913	15.117	895.152	681.450
234.928	15.090	894.561	680.829
235.942	15.130	893.385	680.035
236.957	15.013	893.411	679.518
237.972	14.985	892.696	678.802
238.986	15.053	891.965	678.464
240.001	15.000	891.047	677.491
241.015	15.147	890.726	677.781
242.030	15.138	889.582	676.813
243.045	15.188	889.268	676.717
244.059	15.169	888.876	676.283
245.074	15.061	888.166	675.246
246.088	15.190	887.278	675.030
247.103	15.298	887.152	675.311
248.117	15.127	886.692	674.213
249.132	15.358	885.839	674.432
250.147	15.439	885.325	674.308
251.161	15.523	884.554	673.997
252.176	15.730	883.941	674.299
253.190	15.641	883.135	673.271
254.205	15.584	882.440	672.453
255.220	15.626	882.511	672.615
256.234	15.620	881.734	671.939
257.249	15.699	881.057	671.678
258.263	15.614	880.346	670.739
259.278	15.748	879.625	670.665
260.293	15.688	879.361	670.165
261.307	15.743	878.743	669.852
262.322	15.806	878.031	669.503
263.336	15.897	876.973	668.995
264.351	15.750	876.912	668.308
265.366	15.697	876.634	667.825
266.380	15.837	875.580	667.518
267.395	16.000	874.566	667.334
268.409	15.896	874.017	666.445
269.424	15.814	873.313	665.524
270.439	15.794	872.916	665.084
271.453	15.788	871.921	664.244
272.468	15.719	871.281	663.425
273.482	15.672	870.501	662.586
274.497	15.815	869.884	662.622
275.512	15.873	869.002	662.117
276.526	15.732	868.292	660.963
277.541	15.827	868.130	661.155
278.555	15.764	867.673	660.500
279.570	15.803	866.879	659.991
280.585	16.032	866.520	660.557
281.599	16.116	866.206	660.590
282.614	16.010	865.166	659.323
283.628	15.920	864.570	658.460
284.643	15.893	864.330	658.112
285.657	15.914	863.583	657.568
286.672	16.010	862.644	657.168
287.687	16.083	862.345	657.166
288.701	15.866	862.395	656.301
289.716	16.033	861.062	655.878
290.730	15.992	860.902	655.538
291.745	15.969	860.292	654.927
292.760	15.970	859.269	654.094
293.774	16.045	859.166	654.251
294.789	16.260	858.311	654.375
295.803	16.302	857.509	653.868
296.818	16.200	857.102	653.103
297.833	16.132	856.225	652.115
298.847	16.049	855.454	651.149
299.862	16.107	854.881	650.878
300.876	16.153	854.059	650.374
301.891	16.280	853.673	650.511
302.906	16.260	853.239	650.046
303.920	16.292	851.973	649.147
304.935	16.312	851.989	649.179
305.949	16.399	851.099	648.776
306.964	16.586	850.239	648.782
307.979	16.420	850.142	648.014
308.993	16.285	849.707	647.106
310.008	16.485	848.756	647.092
311.022	16.439	848.461	646.632
312.037	16.451	847.727	646.062
313.052	16.354	847.447	645.423
314.066	16.350	846.559	644.675
315.081	16.251	845.986	643.801
316.095	16.304	845.594	643.651
317.110	16.568	844.418	643.700
318.125	16.429	844.204	642.951
319.139	16.437	843.872	642.675
320.154	16.337	843.753	642.145
321.168	16.355	842.901	641.508
322.183	16.446	842.261	641.311
323.197	16.438	841.794	640.866
324.212	16.361	841.812	640.531
325.227	16.380	841.046	639.965
326.241	16.444	840.296	639.578
327.256	16.347	839.696	638.698
328.270	16.464	839.150	638.668
329.285	16.433	838.502	638.002
330.300	16.544	837.879	637.890
331.314	16.568	837.479	637.619
332.329	16.496	836.847	636.810
333.343	16.404	836.279	635.977
334.358	16.677	835.691	636.499
335.373	16.558	835.143	635.581
336.387	16.644	834.603	635.435
337.402	16.801	833.933	635.459
338.416	16.729	833.686	634.943
339.431	16.781	832.802	634.409
340.446	16.777	832.369	634.009
341.460	17.003	831.657	634.256
342.475	16.846	831.062	633.156
343.489	16.954	830.625	633.173
344.504	16.837	830.335	632.460
345.519	16.878	829.855	632.190
346.533	17.107	829.145	632.444
347.548	17.077	828.723	631.957
348.562	17.118	828.072	631.558
349.577	16.900	827.442	630.209
350.592	16.727	827.029	629.198
351.606	16.816	826.704	629.224
352.621	16.906	825.927	628.912
353.635	16.848	825.781	628.530
354.650	16.989	825.084	628.466
355.665	16.905	824.782	627.869
356.679	16.844	824.703	627.526
357.694	16.938	824.129	627.383
358.708	16.908	823.457	626.703
359.723	17.067	822.408	626.440
360.738	17.032	822.217	626.107
361.752	16.991	821.787	625.575
362.767	17.070	821.179	625.346
363.781	17.046	820.640	624.793
364.796	17.255	820.398	625.324
365.810	17.340	819.557	624.940
366.825	17.289	819.321	624.517
367.840	17.354	818.927	624.399
368.854	17.353	818.482	623.999
369.869	17.271	818.266	623.481
370.883	17.272	817.836	623.100
371.898	17.292	816.989	622.475
372.913	17.265	816.195	621.713
373.927	17.273	815.999	621.539
374.942	17.285	815.175	620.902
375.956	17.268	814.833	620.525
376.971	17.250	814.195	619.917
377.986	17.441	813.636	620.132
379.000	17.592	813.325	620.390
380.015	17.784	812.331	620.274
381.029	17.593	812.324	619.520
382.044	17.500	811.412	618.434
383.059	17.560	810.720	618.068
384.073	17.608	810.281	617.854
385.088	17.500	809.940	617.146
386.102	17.446	809.433	616.510
387.117	17.586	808.746	616.441
388.132	17.484	808.238	615.629
389.146	17.595	807.746	615.602
390.161	17.470	807.405	614.834
391.175	17.436	807.448	614.691
392.190	17.609	806.725	614.711
393.205	17.427	806.374	613.731
394.219	17.580	805.686	613.706
395.234	17.460	805.319	612.938
396.248	17.373	804.789	612.167
397.263	17.429	804.282	611.931
398.278	17.336	803.940	611.282
399.292	17.548	803.351	611.541
400.307	17.510	802.724	610.872
401.321	17.511	802.610	610.736
402.336	17.441	802.257	610.164
403.350	17.546	801.945	610.246
404.365	17.425	801.415	609.356
405.380	17.660	800.824	609.694
406.394	17.857	800.364	609.993
407.409	17.928	799.800	609.762
408.423	17.801	799.542	609.061
409.438	17.957	798.701	608.920
410.453	17.886	799.053	608.881
411.467	18.091	798.189	608.901
412.482	17.965	797.865	608.152
413.496	18.061	797.262	607.978
414.511	18.016	797.214	607.729
415.526	18.077	796.908	607.659
416.540	18.141	796.001	607.142
417.555	18.016	795.774	606.470
418.569	18.112	795.251	606.359
419.584	18.177	794.917	606.279
420.599	18.129	794.281	605.571
421.613	153.245	1369.067	1790.703
422.628	132.595	1452.813	1790.802
