DTS Sentinel unit serial number:	SN413079Multiplexer serial number:	ORYXHardware model number:	OX4-SRSoftware version number:	ORYX F/W v4.00 Oryx Data Collector v3.7.2.0data status	okinstallation	princeton_trtdifferential loss correction	single-endedforward channel	channel 3reverse channel	N/Adate	2019/09/18time	17:20:35forward acquisition time	60.00reverse acquisition time	0.00gamma	496.2192k internal	0.2292k external	0.2292temperature offset calibration	0.9988default loss term (dB/km)	0.3790temperature slope calibration	1.0000multiplexer offset coefficient	1.0000multiplexer slope coefficient	1.0000fibre end	0.00T internal ref (°C)	39.91T ext. ref 1 (°C)	0.89T ext. ref 2 (°C)	36.52length (m)	temperature (°C)	Stokes	anti-Stokes-747.200	469.581	-0.086	-0.198
-746.185	-48.612	0.154	0.076
-745.171	-42.388	-0.076	0.040
-744.156	-114.316	-0.144	-0.028
-743.142	-200.000	0.006	0.320
-742.127	157.812	0.146	0.207
-741.112	-63.831	-0.038	-0.016
-740.098	800.000	-0.020	0.066
-739.083	-200.000	0.058	0.295
-738.069	800.000	-0.117	0.423
-737.054	-88.966	-0.372	-0.113
-736.039	134.866	-0.191	0.254
-735.025	-200.000	0.028	-0.206
-734.010	4.438	-0.338	0.253
-732.996	-135.284	-0.165	-0.020
-731.981	-200.000	-0.198	-0.001
-730.966	-60.797	-0.091	-0.039
-729.952	-167.929	-0.233	0.009
-728.937	-84.566	-0.215	0.069
-727.923	-167.700	0.421	0.017
-726.908	569.642	-0.069	-0.173
-725.894	248.418	0.038	0.066
-724.879	783.941	0.021	0.060
-723.864	-52.871	-0.111	-0.052
-722.850	182.978	-0.110	0.166
-721.835	134.211	-0.198	-0.263
-720.821	195.561	-0.114	-0.177
-719.806	-200.000	-0.004	-0.097
-718.791	-110.595	0.605	0.128
-717.777	31.273	0.009	0.008
-716.762	-138.485	-0.070	-0.008
-715.748	-200.000	-0.027	-0.281
-714.733	37.720	0.148	-0.135
-713.718	-134.140	-0.185	0.023
-712.704	140.046	-0.150	-0.202
-711.689	-200.000	0.012	0.138
-710.675	-64.359	0.201	0.084
-709.660	81.954	-0.209	-0.232
-708.645	42.499	0.082	0.076
-707.631	-200.000	0.046	0.256
-706.616	22.162	-0.151	-0.126
-705.602	-36.211	-0.381	-0.210
-704.587	-80.343	0.267	0.091
-703.572	3.334	0.072	0.054
-702.558	800.000	-0.086	-0.263
-701.543	-200.000	0.009	0.272
-700.529	800.000	-0.076	-0.262
-699.514	48.754	0.034	0.032
-698.499	28.320	0.344	-0.297
-697.485	-200.000	0.021	-0.439
-696.470	-107.298	0.200	-0.045
-695.456	198.932	-0.107	-0.168
-694.441	307.526	0.133	-0.253
-693.426	-169.272	-0.452	-0.017
-692.412	263.424	0.159	-0.281
-691.397	-139.147	0.175	0.019
-690.383	319.291	-0.115	-0.223
-689.368	-200.000	-0.053	-0.526
-688.354	3.211	-0.144	0.107
-687.339	28.105	0.215	-0.186
-686.324	-0.658	-0.180	0.130
-685.310	441.127	0.134	-0.300
-684.295	293.274	0.016	0.030
-683.281	463.010	0.187	-0.426
-682.266	279.152	0.052	-0.095
-681.251	42.072	0.113	-0.104
-680.237	800.000	-0.059	-0.254
-679.222	-12.747	0.042	-0.028
-678.208	75.653	-0.368	-0.397
-677.193	-123.145	-0.044	0.007
-676.178	-135.697	0.266	0.032
-675.164	49.886	-0.244	-0.235
-674.149	177.236	0.131	-0.195
-673.135	119.387	0.151	0.190
-672.120	153.507	-0.103	0.144
-671.105	800.000	0.019	-0.074
-670.091	73.965	0.128	-0.137
-669.076	-51.429	-0.182	0.087
-668.062	-13.597	-0.358	-0.237
-667.047	9.022	0.357	0.275
-666.032	-21.420	0.173	0.108
-665.018	-200.000	0.016	-0.134
-664.003	434.245	-0.092	-0.203
-662.989	314.214	-0.243	-0.467
-661.974	-3.426	0.273	-0.194
-660.959	-200.000	0.023	-0.337
-659.945	176.649	-0.170	0.252
-658.930	800.000	-0.046	0.147
-657.916	800.000	-0.023	0.102
-656.901	-195.338	0.156	0.001
-655.886	800.000	-0.060	0.204
-654.872	179.259	-0.082	-0.122
-653.857	-200.000	0.001	0.072
-652.843	131.882	0.105	0.138
-651.828	-130.678	0.285	0.039
-650.814	147.229	-0.105	0.144
-649.799	-131.517	-0.068	-0.009
-648.784	-78.949	0.117	-0.040
-647.770	141.839	0.080	-0.108
-646.755	-82.590	0.273	-0.090
-645.741	46.181	-0.172	-0.163
-644.726	-60.809	0.085	0.037
-643.711	-90.058	-0.306	-0.091
-642.697	85.164	0.318	0.355
-641.682	89.256	-0.147	0.167
-640.668	27.406	-0.347	0.297
-639.653	-101.622	0.319	0.079
-638.638	-136.113	-0.254	-0.030
-637.624	96.023	0.061	0.071
-636.609	105.526	-0.100	0.120
-635.595	-33.270	-0.061	0.034
-634.580	24.034	0.110	0.092
-633.565	-30.526	-0.066	-0.038
-632.551	800.000	-0.019	-0.076
-631.536	18.244	0.092	0.075
-630.522	54.825	-0.103	-0.101
-629.507	-35.613	-0.248	-0.137
-628.492	-42.197	-0.027	-0.014
-627.478	-39.888	0.107	0.057
-626.463	-114.723	-0.166	0.032
-625.449	-25.974	0.176	0.105
-624.434	549.905	-0.002	0.004
-623.419	-48.969	0.147	-0.072
-622.405	329.312	0.090	-0.176
-621.390	145.798	0.164	-0.224
-620.376	-103.899	-0.118	-0.028
-619.361	-121.403	-0.184	-0.031
-618.346	-16.021	-0.215	0.140
-617.332	110.814	0.201	-0.247
-616.317	-200.000	-0.001	0.048
-615.303	-88.345	-0.308	0.094
-614.288	800.000	-0.046	-0.134
-613.273	299.361	-0.045	0.084
-612.259	800.000	-0.050	-0.164
-611.244	555.832	0.141	0.346
-610.230	-200.000	-0.065	0.470
-609.215	-200.000	0.046	-0.270
-608.201	800.000	0.058	0.182
-607.186	-154.988	-0.125	-0.008
-606.171	43.825	-0.093	0.087
-605.157	-142.168	-0.125	-0.013
-604.142	800.000	-0.057	-0.217
-603.128	34.177	0.125	0.111
-602.113	-78.300	0.331	0.116
-601.098	800.000	-0.022	0.080
-600.084	800.000	0.084	-0.251
-599.069	-120.778	-0.047	0.008
-598.055	800.000	-0.050	-0.181
-597.040	167.050	0.042	-0.061
-596.025	304.584	-0.081	0.154
-595.011	-200.000	0.023	-0.405
-593.996	800.000	-0.059	0.214
-592.982	188.390	-0.085	0.129
-591.967	-19.101	-0.174	0.110
-590.952	-130.897	0.228	-0.031
-589.938	-123.698	-0.194	-0.031
-588.923	41.520	-0.154	0.142
-587.909	-200.000	0.006	0.057
-586.894	-200.000	0.029	-0.165
-585.879	-116.125	0.045	0.008
-584.865	800.000	0.054	-0.180
-583.850	-103.595	-0.111	0.026
-582.836	216.095	0.052	-0.084
-581.821	-200.000	0.131	-0.000
-580.806	62.184	-0.224	0.227
-579.792	1.959	-0.088	-0.065
-578.777	-81.903	-0.071	-0.024
-577.763	-31.644	-0.119	0.068
-576.748	16.725	-0.244	0.196
-575.733	-83.652	0.357	-0.116
-574.719	99.039	-0.218	-0.256
-573.704	234.834	0.052	-0.088
-572.690	137.622	0.078	-0.104
-571.675	-200.000	0.013	-0.060
-570.661	40.567	-0.354	0.325
-569.646	-200.000	-0.004	0.217
-568.631	800.000	-0.107	-0.326
-567.617	0.023	-0.288	-0.208
-566.602	-26.053	-0.050	-0.030
-565.588	800.000	0.112	-0.368
-564.573	-200.000	-0.077	-0.565
-563.558	139.499	0.117	0.157
-562.544	219.131	-0.073	-0.119
-561.529	-92.559	0.258	0.074
-560.515	-36.838	0.129	0.071
-559.500	-128.737	0.115	0.016
-558.485	-25.258	0.072	0.043
-557.471	800.000	-0.047	0.136
-556.456	131.607	0.145	-0.190
-555.442	800.000	-0.092	-0.281
-554.427	-60.977	-0.247	0.106
-553.412	294.121	-0.150	-0.279
-552.398	68.395	0.221	0.230
-551.383	-116.584	0.031	0.006
-550.369	248.039	-0.117	0.201
-549.354	-21.398	-0.334	-0.207
-548.339	-8.879	-0.105	0.072
-547.325	143.050	0.239	0.323
-546.310	-64.201	0.241	0.100
-545.296	101.019	0.146	-0.172
-544.281	-0.795	-0.063	0.046
-543.266	800.000	0.073	0.321
-542.252	-200.000	-0.021	0.285
-541.237	-200.000	0.002	0.071
-540.223	773.170	-0.094	-0.259
-539.208	91.613	0.307	-0.350
-538.193	46.063	0.278	0.262
-537.179	800.000	-0.076	0.297
-536.164	51.920	-0.197	-0.191
-535.150	800.000	0.146	-0.410
-534.135	-68.674	-0.289	0.114
-533.121	-182.577	0.168	0.003
-532.106	-70.849	-0.257	-0.099
-531.091	-200.000	0.010	-0.127
-530.077	19.839	-0.204	-0.167
-529.062	15.409	-0.194	-0.154
-528.048	70.037	0.112	-0.118
-527.033	562.614	-0.036	0.088
-526.018	-140.032	0.323	0.035
-525.004	800.000	0.080	0.276
-523.989	-137.408	0.036	0.004
-522.975	-200.000	0.028	-0.184
-521.960	-62.244	0.084	0.036
-520.945	-200.000	-0.031	-0.296
-519.931	151.520	0.049	-0.068
-518.916	18.413	-0.119	0.096
-517.902	171.336	-0.089	-0.130
-516.887	135.673	0.008	0.011
-515.872	-100.961	-0.304	0.076
-514.858	-200.000	-0.008	0.084
-513.843	57.156	-0.280	0.277
-512.829	-200.000	-0.034	0.246
-511.814	284.990	-0.070	-0.128
-510.799	-200.000	0.001	0.220
-509.785	-110.236	0.368	0.078
-508.770	-97.426	-0.224	0.059
-507.756	79.114	-0.096	0.105
-506.741	800.000	0.107	0.327
-505.726	310.270	0.046	-0.087
-504.712	-34.318	0.174	0.097
-503.697	118.412	0.079	-0.099
-502.683	551.083	0.123	0.299
-501.668	-80.109	0.080	-0.027
-500.653	-128.003	-0.252	-0.037
-499.639	-70.688	0.467	0.179
-498.624	-200.000	0.044	-0.247
-497.610	321.339	0.192	-0.370
-496.595	21.942	0.440	0.363
-495.581	315.483	0.114	0.218
-494.566	800.000	0.025	0.086
-493.551	-30.978	0.220	0.126
-492.537	-200.000	-0.014	-0.200
-491.522	-104.635	0.198	0.046
-490.508	-63.600	0.314	-0.131
-489.493	148.056	-0.210	-0.287
-488.478	-88.917	0.299	0.090
-487.464	51.219	-0.123	0.119
-486.449	800.000	-0.050	-0.188
-485.435	517.590	-0.074	0.176
-484.420	106.353	-0.262	-0.314
-483.405	275.688	-0.030	-0.054
-482.391	347.505	-0.134	-0.267
-481.376	189.851	-0.310	0.472
-480.362	-7.337	-0.065	-0.045
-479.347	-138.649	-0.192	-0.021
-478.332	1.787	0.268	-0.196
-477.318	507.927	-0.078	-0.183
-476.303	169.944	0.140	-0.202
-475.289	-162.905	0.395	-0.019
-474.274	68.123	-0.103	0.107
-473.259	315.604	0.181	-0.346
-472.245	-37.691	0.310	-0.167
-471.230	-9.757	0.186	-0.125
-470.216	595.690	0.085	0.213
-469.201	800.000	-0.006	-0.017
-468.186	-92.787	0.252	0.071
-467.172	-103.794	0.154	0.036
-466.157	800.000	0.067	-0.256
-465.143	243.142	0.091	0.155
-464.128	263.060	-0.138	0.243
-463.113	500.078	0.153	0.358
-462.099	230.478	-0.099	-0.163
-461.084	-95.964	-0.093	0.025
-460.070	51.682	-0.276	0.266
-459.055	178.225	-0.093	-0.137
-458.040	108.923	0.151	0.183
-457.026	-177.158	0.431	-0.011
-456.011	-81.042	-0.280	-0.094
-454.997	-179.098	0.348	-0.008
-453.982	597.414	-0.045	0.114
-452.968	800.000	-0.090	0.252
-451.953	-98.777	-0.233	-0.060
-450.938	150.064	-0.269	0.369
-449.924	800.000	0.087	-0.343
-448.909	288.204	0.091	0.166
-447.895	-188.850	-0.133	0.002
-446.880	-130.332	-0.336	-0.046
-445.865	-115.002	0.133	-0.026
-444.851	564.544	0.052	-0.128
-443.836	-200.000	-0.006	-0.192
-442.822	165.291	0.142	-0.203
-441.807	-93.746	-0.083	0.023
-440.792	-42.776	0.277	0.143
-439.778	29.518	-0.244	0.210
-438.763	13.652	0.077	0.061
-437.749	-59.278	-0.321	0.140
-436.734	13.583	-0.337	0.264
-435.719	-143.458	0.163	-0.016
-434.705	467.839	0.094	0.213
-433.690	65.164	0.178	-0.182
-432.676	-200.000	-0.083	-0.373
-431.661	-200.000	0.069	0.329
-430.646	-200.000	-0.004	0.020
-429.632	-200.000	-0.022	0.339
-428.617	-150.698	0.172	-0.013
-427.603	-59.654	-0.418	0.181
-426.588	800.000	0.035	0.145
-425.573	412.816	0.102	-0.218
-424.559	-139.767	0.303	-0.033
-423.544	-91.181	-0.138	0.040
-422.530	1.912	-0.217	0.158
-421.515	-14.840	0.110	0.071
-420.500	246.385	-0.226	-0.386
-419.486	-200.000	0.015	-0.194
-418.471	148.391	0.102	-0.139
-417.457	800.000	0.040	-0.169
-416.442	-136.285	-0.356	0.042
-415.428	-200.000	-0.049	0.525
-414.413	-200.000	0.002	-0.109
-413.398	235.811	0.096	0.160
-412.384	-15.285	-0.226	-0.146
-411.369	-4.915	-0.282	0.196
-410.355	-77.126	0.155	0.055
-409.340	-200.000	0.038	-0.328
-408.325	80.808	0.137	0.149
-407.311	-160.260	-0.378	-0.021
-406.296	800.000	0.102	0.341
-405.282	39.758	-0.075	0.068
-404.267	-200.000	0.044	-0.212
-403.252	92.313	0.118	0.135
-402.238	-93.361	-0.302	-0.085
-401.223	100.025	-0.091	-0.106
-400.209	54.407	-0.122	-0.118
-399.194	-116.521	-0.104	-0.019
-398.179	-115.702	0.309	0.059
-397.165	-117.830	-0.197	0.036
-396.150	21.099	0.118	-0.097
-395.136	800.000	0.053	-0.219
-394.121	-60.222	0.155	0.067
-393.106	-90.578	0.010	0.003
-392.092	-200.000	-0.016	-0.281
-391.077	561.882	-0.030	0.072
-390.063	800.000	0.055	-0.215
-389.048	-200.000	-0.046	0.296
-388.033	-200.000	-0.041	-0.289
-387.019	378.479	-0.153	-0.315
-386.004	-58.121	0.174	-0.077
-384.990	-125.913	0.059	-0.009
-383.975	-200.000	0.003	0.235
-382.960	-200.000	-0.023	0.163
-381.946	-14.214	0.095	-0.062
-380.931	-81.023	-0.163	0.054
-379.917	-56.091	0.314	-0.141
-378.902	-78.620	0.279	0.096
-377.888	-31.211	-0.211	0.120
-376.873	317.924	-0.203	0.387
-375.858	-200.000	0.028	0.256
-374.844	-20.761	-0.144	-0.089
-373.829	338.019	0.109	-0.214
-372.815	-126.891	0.102	0.015
-371.800	-200.000	0.004	-0.064
-370.785	800.000	0.010	-0.033
-369.771	800.000	0.052	-0.162
-368.756	-200.000	0.019	-0.163
-367.742	-57.885	0.230	-0.101
-366.727	800.000	-0.071	0.209
-365.712	-64.817	-0.413	0.169
-364.698	470.145	-0.100	-0.227
-363.683	-83.490	-0.144	0.046
-362.669	-106.354	0.351	-0.079
-361.654	147.358	-0.073	0.099
-360.639	-34.153	-0.067	0.037
-359.625	68.505	0.217	0.224
-358.610	-41.833	0.102	-0.053
-357.596	-135.170	-0.663	0.080
-356.581	-200.000	-0.036	0.184
-355.566	-155.278	-0.189	0.012
-354.552	-200.000	-0.028	0.165
-353.537	366.114	-0.227	0.461
-352.523	-200.000	-0.018	0.196
-351.508	-168.106	-0.131	0.005
-350.493	-113.694	0.344	-0.068
-349.479	47.508	0.121	-0.113
-348.464	-200.000	-0.016	0.278
-347.450	-96.611	0.061	0.016
-346.435	407.893	0.161	-0.343
-345.420	800.000	-0.109	-0.418
-344.406	800.000	-0.067	-0.236
-343.391	-181.290	0.248	-0.005
-342.377	-11.874	-0.322	-0.213
-341.362	-99.920	-0.402	0.101
-340.348	160.570	-0.150	0.211
-339.333	-132.441	0.308	-0.040
-338.318	-53.036	0.201	-0.093
-337.304	-200.000	0.044	-0.214
-336.289	-200.000	-0.017	0.457
-335.275	14.011	-0.160	-0.126
-334.260	-200.000	0.065	-0.320
-333.245	154.971	-0.164	0.227
-332.231	117.236	-0.159	-0.196
-331.216	-121.086	-0.326	-0.055
-330.202	156.572	0.075	0.104
-329.187	149.046	0.071	-0.096
-328.172	298.290	-0.096	0.178
-327.158	-200.000	0.023	0.176
-326.143	147.001	0.101	0.137
-325.129	165.417	0.180	0.256
-324.114	337.104	0.065	0.127
-323.099	654.804	0.096	0.249
-322.085	-114.393	-0.059	-0.011
-321.070	-21.598	-0.211	-0.129
-320.056	800.000	0.122	-0.342
-319.041	219.844	0.252	-0.406
-318.026	-200.000	0.036	-0.221
-317.012	800.000	-0.091	-0.326
-315.997	-143.897	-0.424	0.040
-314.983	6.021	0.152	-0.113
-313.968	491.351	-0.076	-0.174
-312.953	-200.000	-0.053	-0.254
-311.939	-200.000	-0.032	0.146
-310.924	-200.000	-0.015	0.195
-309.910	-200.000	-0.006	-0.217
-308.895	670.966	0.021	-0.056
-307.880	62.057	0.245	-0.246
-306.866	797.786	0.101	0.281
-305.851	-88.254	-0.322	-0.097
-304.837	-72.118	-0.233	-0.087
-303.822	800.000	-0.019	-0.074
-302.807	-200.000	-0.040	-0.225
-301.793	-200.000	-0.021	-0.148
-300.778	-126.420	-0.368	0.055
-299.764	-159.009	0.411	0.023
-298.749	800.000	0.082	0.276
-297.735	-23.686	-0.087	0.052
-296.720	-14.411	-0.106	0.069
-295.705	-20.581	0.170	-0.105
-294.691	-200.000	0.002	-0.063
-293.676	-200.000	0.037	0.187
-292.662	-33.999	0.322	-0.178
-291.647	-123.281	0.148	0.024
-290.632	800.000	0.092	-0.334
-289.618	-200.000	0.048	-0.215
-288.603	-100.430	-0.258	-0.064
-287.589	-105.532	0.229	-0.052
-286.574	-40.020	-0.180	0.094
-285.559	-200.000	0.004	0.178
-284.545	-83.929	0.638	0.204
-283.530	-85.369	0.181	-0.057
-282.516	32.054	-0.052	-0.045
-281.501	279.963	-0.144	-0.258
-280.486	238.932	0.180	0.301
-279.472	-134.913	-0.138	0.017
-278.457	305.628	-0.168	0.313
-277.443	299.502	-0.066	0.122
-276.428	170.685	-0.246	-0.354
-275.413	-200.000	-0.023	-0.127
-274.399	13.399	0.299	0.233
-273.384	-55.669	-0.233	-0.105
-272.370	-115.368	-0.215	-0.041
-271.355	301.678	0.113	0.210
-270.340	-83.476	-0.113	0.036
-269.326	-21.622	-0.160	0.098
-268.311	22.933	-0.157	0.130
-267.297	562.954	-0.008	0.019
-266.282	800.000	0.089	-0.248
-265.267	664.425	-0.041	-0.107
-264.253	-31.299	0.345	-0.195
-263.238	800.000	-0.061	-0.176
-262.224	-141.578	-0.042	0.004
-261.209	28.679	0.160	0.136
-260.195	-144.861	-0.283	0.026
-259.180	208.686	0.095	0.149
-258.165	375.486	0.101	-0.208
-257.151	-65.649	0.124	0.050
-256.136	-82.734	-0.232	-0.076
-255.122	800.000	-0.030	-0.117
-254.107	304.132	-0.119	-0.221
-253.092	156.716	-0.103	-0.143
-252.078	-102.774	-0.090	-0.022
-251.063	-200.000	0.003	0.149
-250.049	-64.337	0.193	0.079
-249.034	-142.067	0.221	0.022
-248.019	-39.360	-0.080	-0.042
-247.005	-200.000	-0.032	0.185
-245.990	585.328	0.128	0.316
-244.976	800.000	0.108	-0.471
-243.961	24.797	0.268	-0.223
-242.946	114.614	-0.111	0.135
-241.932	637.651	-0.109	0.279
-240.917	74.734	-0.118	0.124
-239.903	800.000	0.107	0.399
-238.888	-142.751	0.176	-0.017
-237.873	617.624	0.117	0.294
-236.859	-200.000	-0.042	0.240
-235.844	55.878	0.152	0.148
-234.830	759.280	-0.015	0.042
-233.815	97.096	0.219	0.252
-232.800	19.714	-0.110	0.089
-231.786	527.758	0.019	-0.045
-230.771	-61.697	-0.295	0.124
-229.757	800.000	0.034	-0.110
-228.742	-116.730	-0.262	-0.048
-227.727	-56.574	0.204	0.091
-226.713	-200.000	0.004	0.236
-225.698	382.727	-0.108	0.223
-224.684	-200.000	-0.014	0.199
-223.669	800.000	0.109	0.357
-222.655	-70.397	-0.403	-0.153
-221.640	-200.000	0.038	0.216
-220.625	-179.375	0.094	0.002
-219.611	130.465	0.179	-0.231
-218.596	93.338	-0.143	0.162
-217.582	-99.618	0.252	-0.064
-216.567	-200.000	-0.031	-0.176
-215.552	425.682	-0.134	-0.289
-214.538	355.932	0.078	-0.156
-213.523	-173.107	0.341	0.010
-212.509	-74.542	0.342	-0.124
-211.494	303.267	0.153	-0.284
-210.479	-132.030	0.330	0.043
-209.465	-52.450	-0.262	0.121
-208.450	-200.000	-0.014	0.134
-207.436	-29.526	-0.271	-0.155
-206.421	-200.000	0.009	-0.473
-205.406	-67.430	0.162	0.064
-204.392	286.319	-0.077	0.140
-203.377	240.704	-0.132	-0.221
-202.363	-113.108	0.483	-0.095
-201.348	42.916	-0.115	-0.105
-200.333	-69.963	-0.064	-0.024
-199.319	-200.000	0.021	-0.195
-198.304	143.904	0.077	-0.103
-197.290	-96.956	0.260	0.068
-196.275	-200.000	-0.016	0.121
-195.260	-200.000	0.041	0.204
-194.246	29.338	-0.125	-0.106
-193.231	-123.472	0.167	-0.027
-192.217	-175.882	0.233	0.006
-191.202	-55.402	0.120	0.054
-190.187	66.781	-0.103	0.105
-189.173	74.601	0.011	-0.011
-188.158	234.936	-0.158	0.262
-187.144	-148.525	-0.182	0.015
-186.129	-200.000	-0.030	0.409
-185.114	-51.765	-0.164	-0.076
-184.100	104.002	0.086	0.101
-183.085	-200.000	0.029	0.134
-182.071	-122.720	0.051	-0.008
-181.056	-130.088	-0.134	-0.018
-180.042	-78.972	0.266	0.091
-179.027	-106.304	-0.322	0.072
-178.012	13.902	-0.157	0.122
-176.998	-165.148	0.193	0.009
-175.983	-136.587	0.194	-0.023
-174.969	800.000	-0.010	-0.039
-173.954	-200.000	0.015	-0.178
-172.939	-200.000	-0.010	0.066
-171.925	33.713	0.296	-0.258
-170.910	105.140	-0.226	0.267
-169.896	-200.000	0.039	-0.257
-168.881	-69.359	-0.426	-0.164
-167.866	55.124	0.138	-0.133
-166.852	-200.000	-0.001	-0.194
-165.837	-55.557	-0.208	-0.093
-164.823	406.756	-0.047	-0.100
-163.808	347.439	-0.101	0.199
-162.793	-200.000	0.014	0.276
-161.779	-200.000	-0.002	-0.146
-160.764	-200.000	-0.060	-0.292
-159.750	800.000	0.067	-0.282
-158.735	-29.097	0.327	0.187
-157.720	444.155	0.108	-0.237
-156.706	62.726	0.177	0.177
-155.691	-106.636	-0.301	-0.067
-154.677	-152.991	0.185	0.013
-153.662	153.477	0.139	-0.190
-152.647	-100.284	-0.124	-0.031
-151.633	-200.000	0.024	0.254
-150.618	200.783	0.165	0.254
-149.604	481.216	-0.047	0.106
-148.589	114.807	0.066	-0.081
-147.574	-63.869	0.071	0.029
-146.560	118.818	0.042	0.052
-145.545	796.098	-0.168	0.463
-144.531	39.720	0.243	-0.218
-143.516	344.032	0.113	0.221
-142.502	800.000	-0.060	-0.180
-141.487	-59.445	-0.274	-0.118
-140.472	-91.301	-0.057	0.016
-139.458	-194.067	-0.233	-0.002
-138.443	-200.000	-0.004	-0.330
-137.429	397.586	-0.152	0.317
-136.414	-33.737	-0.246	0.136
-135.399	-118.701	0.234	0.041
-134.385	-156.971	0.139	-0.008
-133.370	-200.000	0.002	0.209
-132.356	110.565	-0.067	-0.081
-131.341	-200.000	-0.002	0.082
-130.326	67.870	0.241	0.246
-129.312	-200.000	0.051	0.432
-128.297	-58.334	-0.112	-0.049
-127.283	-155.759	-0.104	0.007
-126.268	-200.000	-0.019	0.339
-125.253	-119.264	0.460	-0.080
-124.239	-112.296	-0.100	-0.020
-123.224	434.547	0.061	-0.133
-122.210	75.310	0.272	0.286
-121.195	178.541	-0.032	-0.046
-120.180	-200.000	-0.011	0.097
-119.166	-7.051	0.304	-0.206
-118.151	1.747	-0.132	0.095
-117.137	-56.186	0.097	0.043
-116.122	520.289	0.187	-0.439
-115.107	-200.000	-0.030	-0.378
-114.093	-59.326	0.145	-0.062
-113.078	272.174	0.129	-0.227
-112.064	-200.000	0.011	0.320
-111.049	-69.332	0.061	0.023
-110.034	-191.776	-0.071	0.001
-109.020	-46.174	-0.117	0.057
-108.005	800.000	-0.016	-0.062
-106.991	-80.048	0.141	-0.047
-105.976	-200.000	-0.064	0.311
-104.962	-58.424	-0.129	0.056
-103.947	800.000	0.049	-0.153
-102.932	-157.630	-0.358	-0.021
-101.918	-200.000	-0.028	0.200
-100.903	800.000	0.142	-0.426
-99.889	707.380	-0.031	0.082
-98.874	800.000	0.032	0.092
-97.859	-160.508	0.299	0.016
-96.845	-200.000	0.001	-0.092
-95.830	-60.315	0.190	0.081
-94.816	-64.752	0.182	-0.074
-93.801	33.685	-0.186	0.161
-92.786	-29.222	0.257	-0.147
-91.772	247.900	-0.130	0.219
-90.757	-32.115	-0.144	-0.080
-89.743	231.226	-0.060	-0.099
-88.728	-120.807	-0.100	-0.017
-87.713	459.665	-0.041	0.090
-86.699	-85.286	-0.096	-0.030
-85.684	-200.000	-0.024	0.183
-84.670	509.946	0.150	0.347
-83.655	-139.176	-0.071	0.008
-82.640	327.832	-0.105	0.201
-81.626	489.479	-0.073	0.167
-80.611	586.351	-0.089	-0.219
-79.597	-67.086	0.255	-0.100
-78.582	800.000	-0.033	-0.128
-77.567	-119.657	-0.048	-0.008
-76.553	800.000	-0.129	-0.437
-75.538	-14.896	-0.077	0.049
-74.524	727.203	0.135	-0.360
-73.509	506.353	0.168	0.387
-72.494	-200.000	0.001	-0.250
-71.480	-73.623	0.086	0.031
-70.465	520.087	0.119	0.278
-69.451	90.598	-0.239	-0.267
-68.436	143.408	-0.231	-0.306
-67.422	-96.949	-0.312	-0.082
-66.407	800.000	-0.049	0.196
-65.392	-123.902	0.277	0.044
-64.378	-6.188	0.229	0.156
-63.363	-102.448	-0.272	-0.065
-62.349	40.156	-0.206	-0.185
-61.334	118.055	-0.691	-0.848
-60.319	60.000	0.573	0.564
-59.305	457.267	-0.277	-0.612
-58.290	426.320	0.382	0.821
-57.276	726.669	0.580	1.542
-56.261	-200.000	77.718	517.950
-55.246	500.824	1345.849	3094.534
-54.232	143.836	2589.083	3438.361
-53.217	113.502	2272.835	2749.220
-52.203	50.257	1794.785	1689.042
-51.188	43.221	1591.936	1447.830
-50.173	40.681	1561.176	1401.886
-49.159	56.845	1600.011	1552.397
-48.144	61.844	1619.496	1606.896
-47.130	43.831	1581.988	1442.899
-46.115	40.228	1567.696	1404.303
-45.100	40.192	1563.364	1400.114
-44.086	39.956	1561.740	1396.936
-43.071	39.890	1559.763	1394.642
-42.057	39.988	1557.656	1393.397
-41.042	39.878	1556.377	1391.422
-40.027	39.905	1554.695	1390.052
-39.013	39.965	1552.783	1388.709
-37.998	39.821	1551.958	1386.907
-36.984	39.916	1550.647	1386.348
-35.969	40.019	1549.088	1385.618
-34.954	39.973	1548.142	1384.394
-33.940	39.852	1546.793	1382.289
-32.925	39.933	1544.734	1380.959
-31.911	39.939	1543.381	1379.734
-30.896	39.935	1541.986	1378.403
-29.881	39.958	1540.674	1377.335
-28.867	39.936	1539.431	1376.017
-27.852	39.914	1537.935	1374.476
-26.838	39.934	1536.380	1373.168
-25.823	39.947	1534.609	1371.621
-24.809	39.997	1532.710	1370.217
-23.794	39.929	1531.526	1368.630
-22.779	39.995	1530.126	1367.784
-21.765	39.976	1529.006	1366.598
-20.750	39.951	1528.164	1365.615
-19.736	39.924	1527.015	1364.349
-18.721	39.937	1525.925	1363.414
-17.706	39.904	1525.209	1362.491
-16.692	39.855	1523.763	1360.806
-15.677	39.751	1523.082	1359.430
-14.663	39.942	1521.249	1359.056
-13.648	39.825	1520.472	1357.500
-12.633	39.884	1519.042	1356.573
-11.619	39.845	1518.877	1356.104
-10.604	39.916	1517.782	1355.563
-9.590	39.863	1516.942	1354.396
-8.575	39.981	1515.322	1353.701
-7.560	39.891	1514.950	1352.703
-6.546	39.787	1514.304	1351.360
-5.531	39.865	1512.940	1350.619
-4.517	39.830	1512.250	1349.710
-3.502	39.869	1511.020	1348.824
-2.487	39.918	1510.056	1348.245
-1.473	39.869	1509.137	1347.035
-0.458	39.925	1507.620	1346.015
0.556	39.308	1498.596	1337.342
1.571	36.665	1471.384	1295.270
2.586	32.188	1405.383	1208.350
3.600	28.710	1316.323	1110.683
4.615	25.422	1264.288	1047.545
5.629	20.717	1204.725	971.895
6.644	10.751	1113.518	846.541
7.659	2.452	1067.160	769.634
8.673	1.038	1060.559	757.736
9.688	0.873	1058.013	755.026
10.702	0.924	1056.424	754.081
11.717	0.735	1054.862	751.959
12.731	3.322	1057.388	766.577
13.746	11.757	1069.310	817.455
14.761	17.589	1076.463	852.107
15.775	17.854	1075.725	852.775
16.790	17.210	1073.275	847.545
17.804	16.090	1071.242	840.284
18.819	15.242	1069.623	834.720
19.834	14.907	1067.757	831.522
20.848	14.430	1067.239	828.675
21.863	14.163	1066.508	826.708
22.877	13.895	1065.063	824.186
23.892	13.748	1064.123	822.657
24.907	13.604	1063.592	821.456
25.921	13.670	1062.796	821.099
26.936	13.750	1062.695	821.342
27.950	13.667	1061.582	820.001
28.965	13.741	1060.931	819.790
29.980	13.679	1060.063	818.741
30.994	13.809	1059.079	818.550
32.009	13.857	1057.948	817.840
33.023	13.852	1057.394	817.314
34.038	13.984	1056.365	817.097
35.053	13.924	1055.891	816.361
36.067	13.816	1055.152	815.188
37.082	13.837	1053.988	814.322
38.096	13.781	1053.325	813.459
39.111	13.804	1052.590	812.936
40.126	13.854	1051.806	812.503
41.140	13.781	1050.671	811.197
42.155	13.678	1049.577	809.774
43.169	13.662	1048.737	808.978
44.184	13.571	1048.187	808.037
45.199	13.680	1046.316	807.054
46.213	13.694	1045.299	806.266
47.228	13.649	1044.406	805.291
48.242	13.644	1043.267	804.314
49.257	13.678	1042.627	803.917
50.271	13.754	1041.543	803.377
51.286	13.747	1040.548	802.502
52.301	13.744	1039.942	801.952
53.315	13.834	1038.987	801.578
54.330	13.686	1038.064	800.080
55.344	13.698	1037.484	799.624
56.359	13.817	1036.030	799.003
57.374	13.734	1035.443	798.081
58.388	13.645	1034.896	797.159
59.403	13.640	1034.059	796.423
60.417	13.587	1033.777	795.881
61.432	13.603	1032.869	795.185
62.447	13.692	1031.340	794.364
63.461	13.604	1030.750	793.417
64.476	13.584	1029.925	792.616
65.490	13.588	1029.361	792.134
66.505	13.627	1028.268	791.409
67.520	13.600	1027.931	790.948
68.534	13.594	1026.926	790.076
69.549	13.501	1026.396	789.156
70.563	13.624	1025.314	788.841
71.578	13.596	1024.784	788.232
72.593	13.649	1023.763	787.628
73.607	13.614	1022.555	786.460
74.622	13.502	1021.965	785.407
75.636	13.501	1020.816	784.448
76.651	13.554	1020.252	784.200
77.666	13.564	1019.653	783.714
78.680	13.634	1018.407	783.018
79.695	13.553	1018.298	782.485
80.709	13.428	1017.976	781.574
81.724	13.520	1017.182	781.334
82.739	13.645	1016.017	780.956
83.753	13.556	1015.454	780.035
84.768	13.665	1014.386	779.661
85.782	13.758	1013.737	779.529
86.797	13.808	1013.034	779.152
87.812	13.784	1012.026	778.195
88.826	13.804	1010.912	777.365
89.841	13.717	1010.334	776.444
90.855	13.776	1009.835	776.269
91.870	13.805	1008.127	775.023
92.884	13.752	1008.312	774.848
93.899	13.835	1007.205	774.316
94.914	13.826	1006.274	773.488
95.928	13.852	1005.675	773.084
96.943	13.833	1005.273	772.615
97.957	13.858	1004.116	771.775
98.972	13.806	1003.598	771.067
99.987	13.715	1003.105	770.196
101.001	13.760	1002.191	769.635
102.016	13.735	1001.543	768.955
103.030	13.791	1000.266	768.165
104.045	13.910	999.149	767.788
105.060	13.828	998.041	766.490
106.074	13.901	996.866	765.859
107.089	13.724	996.504	764.698
108.103	13.684	995.651	763.791
109.118	13.616	994.957	762.877
110.133	13.659	993.908	762.205
111.147	13.711	992.800	761.525
112.162	13.768	991.997	761.101
113.176	13.699	991.249	760.145
114.191	13.627	990.356	759.065
115.206	13.823	989.250	759.046
116.220	13.684	988.856	758.042
117.235	13.744	988.163	757.715
118.249	13.782	986.965	756.903
119.264	13.712	986.127	755.876
120.279	13.667	985.390	755.038
121.293	13.653	984.663	754.351
122.308	13.674	983.730	753.667
123.322	13.745	982.850	753.247
124.337	13.716	982.059	752.440
125.352	13.709	980.696	751.297
126.366	13.653	979.562	750.110
127.381	13.722	978.576	749.601
128.395	13.666	977.865	748.737
129.410	13.670	976.423	747.585
130.424	13.774	975.705	747.440
131.439	13.800	975.015	746.958
132.454	13.784	974.448	746.386
133.468	13.803	973.510	745.688
134.483	13.766	973.254	745.262
135.497	13.968	971.897	745.063
136.512	13.782	971.508	743.862
137.527	13.862	970.629	743.482
138.541	13.817	969.736	742.531
139.556	13.842	968.857	741.904
140.570	13.793	968.441	741.302
141.585	13.846	967.727	740.924
142.600	13.827	966.798	740.066
143.614	13.824	965.947	739.333
144.629	13.901	965.140	738.996
145.643	13.900	964.661	738.558
146.658	13.889	963.695	737.704
147.673	13.868	962.832	736.886
148.687	13.854	962.033	736.144
149.702	13.873	960.900	735.299
150.716	13.903	959.899	734.598
151.731	13.895	959.021	733.828
152.746	13.772	958.440	732.773
153.760	13.957	957.792	733.030
154.775	13.918	956.885	732.100
155.789	13.895	956.211	731.419
156.804	13.865	955.674	730.809
157.819	14.056	954.809	730.925
158.833	13.991	953.749	729.761
159.848	13.936	953.942	729.605
160.862	14.046	952.596	728.994
161.877	14.022	952.182	728.505
162.892	14.036	951.243	727.783
163.906	13.960	951.105	727.283
164.921	13.824	949.558	725.439
165.935	13.858	948.565	724.764
166.950	13.926	947.794	724.411
167.964	13.890	947.307	723.815
168.979	13.889	945.401	722.290
169.994	13.986	944.771	722.169
171.008	14.015	943.827	721.507
172.023	14.102	943.105	721.270
173.037	14.007	942.730	720.509
174.052	13.979	941.689	719.525
175.067	14.071	941.171	719.465
176.081	13.864	940.487	717.983
177.096	13.959	939.817	717.818
178.110	13.919	938.406	716.505
179.125	13.971	937.939	716.312
180.140	14.130	936.619	715.923
181.154	14.111	936.156	715.422
182.169	14.036	935.708	714.698
183.183	14.033	935.102	714.156
184.198	14.136	934.483	714.061
185.213	14.169	933.335	713.263
186.227	14.051	933.308	712.675
187.242	14.275	932.208	712.730
188.256	14.284	931.850	712.430
189.271	14.304	931.092	711.874
190.286	14.281	930.386	711.173
191.300	14.312	929.014	710.194
192.315	14.125	928.883	709.234
193.329	14.246	927.712	708.791
194.344	14.076	927.480	707.827
195.359	14.013	927.169	707.261
196.373	14.308	926.255	707.757
197.388	14.262	925.678	707.058
198.402	14.402	924.857	706.962
199.417	14.330	925.137	706.807
200.432	14.357	924.334	706.244
201.446	14.428	923.510	705.854
202.461	14.451	923.451	705.845
203.475	14.517	922.869	705.615
204.490	14.542	921.991	704.987
205.504	14.486	921.484	704.300
206.519	14.514	920.232	703.398
207.534	14.408	919.981	702.700
208.548	14.361	918.927	701.634
209.563	14.430	918.215	701.317
210.577	14.584	917.407	701.284
211.592	14.503	917.002	700.575
212.607	14.580	916.284	700.288
213.621	14.542	915.757	699.662
214.636	14.538	915.094	699.076
215.650	14.482	914.614	698.416
216.665	14.617	914.016	698.462
217.680	14.750	913.370	698.463
218.694	14.759	912.699	697.925
219.709	14.763	912.148	697.457
220.723	14.624	911.570	696.375
221.738	14.721	911.036	696.310
222.753	14.588	910.231	695.077
223.767	14.711	909.712	695.134
224.782	14.832	908.432	694.596
225.796	14.740	907.749	693.630
226.811	14.805	907.296	693.494
227.826	14.842	906.509	692.983
228.840	14.752	905.906	692.086
229.855	14.663	905.289	691.185
230.869	14.829	904.168	690.954
231.884	14.896	903.738	690.844
232.899	14.820	903.170	690.035
233.913	14.795	901.936	688.929
234.928	14.778	901.602	688.540
235.942	14.785	900.875	687.954
236.957	14.827	900.321	687.644
237.972	14.789	899.499	686.800
238.986	14.769	899.174	686.405
240.001	14.974	898.143	686.398
241.015	14.912	897.623	685.689
242.030	14.750	897.256	684.685
243.045	14.936	895.947	684.384
244.059	14.984	895.519	684.192
245.074	14.861	895.119	683.326
246.088	14.859	894.352	682.669
247.103	15.096	893.649	683.041
248.117	15.165	893.120	682.855
249.132	15.063	892.639	682.012
250.147	15.199	892.029	682.040
251.161	15.163	891.552	681.470
252.176	15.236	890.827	681.150
253.190	15.287	889.887	680.580
254.205	15.284	889.439	680.165
255.220	15.197	889.195	679.566
256.234	15.244	887.983	678.769
257.249	15.351	887.238	678.572
258.263	15.226	887.226	677.999
259.278	15.164	886.525	677.149
260.293	15.385	885.966	677.555
261.307	15.357	885.557	677.071
262.322	15.405	884.864	676.673
263.336	15.580	884.119	676.751
264.351	15.505	883.453	675.878
265.366	15.510	883.062	675.542
266.380	15.487	882.413	674.889
267.395	15.431	882.007	674.296
268.409	15.506	881.209	673.926
269.424	15.583	880.090	673.318
270.439	15.424	879.816	672.414
271.453	15.589	878.492	672.003
272.468	15.530	878.090	671.401
273.482	15.457	878.030	671.004
274.497	15.602	876.495	670.347
275.512	15.451	876.689	669.834
276.526	15.486	875.652	669.124
277.541	15.649	874.798	669.061
278.555	15.549	874.228	668.166
279.570	15.608	874.008	668.175
280.585	15.592	873.188	667.425
281.599	15.718	872.512	667.351
282.614	15.722	871.803	666.762
283.628	15.764	871.184	666.397
284.643	15.699	870.846	665.821
285.657	15.634	870.202	665.015
286.672	15.780	869.386	664.908
287.687	15.757	869.229	664.640
288.701	15.877	868.457	664.466
289.716	15.812	867.953	663.761
290.730	15.904	867.200	663.491
291.745	15.732	866.915	662.535
292.760	15.788	866.305	662.231
293.774	15.866	865.612	661.953
294.789	15.888	864.862	661.406
295.803	15.919	864.381	661.100
296.818	15.985	863.867	660.908
297.833	15.894	863.418	660.149
298.847	15.888	862.628	659.463
299.862	15.773	862.179	658.612
300.876	15.923	861.182	658.378
301.891	16.038	860.279	658.078
302.906	15.960	859.975	657.483
303.920	16.041	859.279	657.210
304.935	15.947	858.720	656.358
305.949	16.061	857.847	656.077
306.964	16.137	857.211	655.826
307.979	15.989	856.922	654.972
308.993	16.133	856.418	655.087
310.008	16.111	856.106	654.704
311.022	16.233	855.183	654.416
312.037	16.189	854.780	653.880
313.052	16.125	854.449	653.318
314.066	16.206	853.449	652.810
315.081	16.174	852.933	652.233
316.095	16.205	852.064	651.634
317.110	16.255	851.381	651.247
318.125	16.210	851.234	650.900
319.139	16.167	850.732	650.294
320.154	16.142	850.503	649.966
321.168	16.189	850.164	649.831
322.183	16.228	849.376	649.319
323.197	16.253	848.728	648.862
324.212	16.346	848.213	648.768
325.227	16.322	847.428	648.018
326.241	16.184	847.317	647.347
327.256	16.246	846.420	646.842
328.270	16.336	846.069	646.863
329.285	16.310	845.436	646.219
330.300	16.405	844.805	646.043
331.314	16.322	844.106	645.136
332.329	16.293	843.617	644.595
333.343	16.339	842.686	644.003
334.358	16.387	842.527	644.005
335.373	16.369	841.830	643.347
336.387	16.366	841.794	643.250
337.402	16.432	840.932	642.785
338.416	16.480	840.467	642.556
339.431	16.444	839.738	641.806
340.446	16.579	839.183	641.837
341.460	16.668	838.115	641.302
342.475	16.591	837.771	640.688
343.489	16.596	837.507	640.449
344.504	16.698	836.700	640.161
345.519	16.586	836.394	639.449
346.533	16.664	835.554	639.045
347.548	16.725	835.260	638.992
348.562	16.574	835.060	638.214
349.577	16.727	834.165	638.050
350.592	16.658	833.370	637.124
351.606	16.605	833.128	636.685
352.621	16.715	832.464	636.534
353.635	16.748	832.314	636.488
354.650	16.659	831.934	635.806
355.665	16.837	831.100	635.781
356.679	16.602	830.909	634.696
357.694	16.712	830.805	634.974
358.708	16.827	830.100	634.810
359.723	16.752	829.228	633.806
360.738	16.826	828.753	633.663
361.752	16.802	828.073	632.997
362.767	16.817	827.970	632.920
363.781	16.943	827.354	632.862
364.796	16.971	826.806	632.492
365.810	16.898	826.608	632.011
366.825	17.026	826.142	632.076
367.840	16.964	825.991	631.673
368.854	17.043	825.425	631.478
369.869	17.170	824.692	631.333
370.883	17.063	824.155	630.470
371.898	17.144	823.924	630.537
372.913	17.026	823.305	629.570
373.927	17.072	822.549	629.107
374.942	17.068	821.928	628.563
375.956	17.148	821.326	628.342
376.971	17.086	820.778	627.637
377.986	17.071	820.247	627.121
379.000	17.252	819.602	627.240
380.015	17.232	819.080	626.710
381.029	17.278	818.741	626.565
382.044	17.357	818.112	626.322
383.059	17.335	817.806	625.949
384.073	17.363	816.849	625.267
385.088	17.376	816.656	625.111
386.102	17.296	815.539	623.906
387.117	17.300	815.124	623.549
388.132	17.207	814.505	622.677
389.146	17.287	814.281	622.743
390.161	17.366	814.189	622.909
391.175	17.359	813.828	622.553
392.190	17.362	813.363	622.153
393.205	17.418	812.859	621.917
394.219	17.342	812.509	621.314
395.234	17.345	811.812	620.739
396.248	17.257	811.623	620.217
397.263	17.400	810.813	620.064
398.278	17.321	810.412	619.417
399.292	17.432	809.996	619.447
400.307	17.362	809.350	618.643
401.321	17.392	809.252	618.622
402.336	17.470	808.633	618.378
403.350	17.407	808.492	617.988
404.365	17.469	808.007	617.788
405.380	17.369	807.537	617.010
406.394	17.438	807.182	616.933
407.409	17.490	806.688	616.692
408.423	17.489	806.322	616.352
409.438	17.681	805.525	616.385
410.453	17.626	805.466	616.085
411.467	17.649	804.737	615.555
412.482	17.698	804.023	615.132
413.496	17.791	803.622	615.105
414.511	17.723	803.176	614.467
415.526	17.804	803.190	614.715
416.540	17.798	802.934	614.440
417.555	17.781	802.465	613.966
418.569	17.796	801.755	613.424
419.584	17.697	801.089	612.503
420.599	17.882	800.441	612.618
421.613	95.386	1269.317	1390.332
422.628	81.615	1337.642	1390.436
