DTS Sentinel unit serial number:	SN413079Multiplexer serial number:	ORYXHardware model number:	OX4-SRSoftware version number:	ORYX F/W v4.00 Oryx Data Collector v3.7.2.0data status	okinstallation	princeton_trtdifferential loss correction	single-endedforward channel	channel 3reverse channel	N/Adate	2019/09/11time	06:34:11forward acquisition time	60.00reverse acquisition time	0.00gamma	496.2192k internal	0.2330k external	0.2330temperature offset calibration	0.9907default loss term (dB/km)	0.3790temperature slope calibration	1.0000multiplexer offset coefficient	1.0000multiplexer slope coefficient	1.0000fibre end	0.00T internal ref (°C)	29.67T ext. ref 1 (°C)	-0.18T ext. ref 2 (°C)	24.34length (m)	temperature (°C)	Stokes	anti-Stokes-747.200	208.096	-0.250	-0.393
-746.185	221.001	-0.175	0.283
-745.171	-115.670	0.087	-0.016
-744.156	-135.996	-0.475	0.056
-743.142	50.889	0.116	0.110
-742.127	-200.000	0.021	0.273
-741.112	-200.000	0.007	-0.271
-740.098	167.423	-0.066	-0.095
-739.083	-4.415	-0.119	-0.083
-738.069	800.000	-0.103	0.334
-737.054	-97.612	-0.095	-0.025
-736.039	525.878	-0.054	-0.127
-735.025	-86.233	0.260	-0.081
-734.010	-108.549	-0.118	0.026
-732.996	66.409	0.141	-0.144
-731.981	-18.208	-0.306	0.193
-730.966	800.000	-0.062	-0.222
-729.952	-13.892	-0.162	-0.105
-728.937	137.025	0.206	-0.271
-727.923	-133.616	-0.331	-0.042
-726.908	-6.864	-0.242	-0.165
-725.894	800.000	-0.071	0.259
-724.879	-169.407	-0.326	-0.012
-723.864	361.618	0.155	0.313
-722.850	800.000	-0.116	-0.390
-721.835	-200.000	0.051	-0.422
-720.821	25.926	-0.087	0.073
-719.806	28.979	0.174	0.149
-718.791	75.016	-0.185	-0.196
-717.777	21.569	-0.288	-0.236
-716.762	171.579	-0.142	-0.205
-715.748	112.579	0.057	0.070
-714.733	-200.000	-0.008	-0.172
-713.718	-93.864	-0.234	0.065
-712.704	-143.251	-0.132	-0.013
-711.689	-200.000	-0.008	0.088
-710.675	-6.955	0.191	-0.130
-709.660	800.000	-0.036	0.127
-708.645	-122.520	0.047	-0.008
-707.631	800.000	-0.019	0.056
-706.616	-200.000	-0.039	-0.213
-705.602	-1.871	0.239	-0.169
-704.587	73.230	0.071	-0.075
-703.572	-26.151	0.265	-0.157
-702.558	-134.076	-0.524	-0.065
-701.543	-52.412	-0.373	-0.174
-700.529	-131.431	-0.238	-0.032
-699.514	800.000	-0.074	0.209
-698.499	502.928	-0.143	0.333
-697.485	-174.346	-0.434	-0.013
-696.470	22.759	0.119	0.098
-695.456	-93.075	0.229	0.064
-694.441	800.000	0.070	0.230
-693.426	-110.694	0.074	-0.015
-692.412	800.000	0.069	-0.274
-691.397	800.000	-0.044	-0.141
-690.383	238.255	-0.066	-0.111
-689.368	-200.000	0.060	-0.338
-688.354	-109.338	-0.174	-0.037
-687.339	172.914	0.177	0.256
-686.324	-60.637	-0.451	0.192
-685.310	26.675	-0.242	0.203
-684.295	53.985	0.185	0.179
-683.281	-5.873	-0.187	0.128
-682.266	-100.283	-0.218	0.054
-681.251	-200.000	-0.010	-0.139
-680.237	796.994	-0.025	0.070
-679.222	238.318	-0.119	-0.198
-678.208	-200.000	-0.007	0.087
-677.193	28.319	-0.141	0.120
-676.178	-81.975	-0.281	-0.092
-675.164	99.232	-0.095	0.110
-674.149	-200.000	0.013	0.202
-673.135	-136.386	0.213	0.025
-672.120	-200.000	-0.029	0.266
-671.105	7.275	-0.172	0.129
-670.091	309.984	-0.044	-0.082
-669.076	650.203	-0.050	0.129
-668.062	-22.458	-0.072	-0.044
-667.047	-11.967	-0.179	-0.118
-666.032	-169.269	-0.139	0.005
-665.018	517.725	-0.124	0.291
-664.003	-200.000	-0.021	0.098
-662.989	-17.600	-0.159	0.100
-661.974	-200.000	-0.054	-0.247
-660.959	-200.000	0.007	0.365
-659.945	101.053	0.064	0.075
-658.930	-57.560	-0.276	0.122
-657.916	671.432	-0.044	-0.114
-656.901	139.098	-0.055	0.072
-655.886	195.192	-0.210	0.320
-654.872	-82.188	-0.537	-0.176
-653.857	-26.336	-0.089	0.052
-652.843	-37.094	0.247	0.133
-651.828	209.851	-0.083	0.130
-650.814	38.745	-0.019	0.017
-649.799	-52.981	0.232	0.107
-648.784	-200.000	0.041	0.204
-647.770	-8.068	0.373	-0.252
-646.755	257.873	-0.189	-0.327
-645.741	92.038	-0.152	0.171
-644.726	26.363	-0.096	0.081
-643.711	-111.337	0.338	-0.069
-642.697	-200.000	-0.027	0.122
-641.682	144.807	0.197	0.265
-640.668	800.000	0.056	0.187
-639.653	33.404	-0.214	-0.186
-638.638	800.000	-0.050	-0.181
-637.624	-103.802	0.052	0.012
-636.609	204.544	-0.190	-0.295
-635.595	46.460	0.140	0.130
-634.580	-20.362	-0.345	0.213
-633.565	-154.938	-0.077	-0.005
-632.551	-200.000	0.003	0.181
-631.536	-200.000	-0.028	-0.192
-630.522	800.000	-0.129	-0.484
-629.507	-200.000	-0.002	-0.057
-628.492	557.732	-0.174	-0.422
-627.478	-145.621	-0.246	0.022
-626.463	17.771	0.058	0.046
-625.449	92.166	0.182	0.205
-624.434	-200.000	0.002	0.068
-623.419	254.598	-0.140	-0.240
-622.405	-6.992	0.231	-0.157
-621.390	-200.000	0.045	-0.371
-620.376	-105.659	-0.165	0.038
-619.361	-61.558	0.164	0.069
-618.346	-98.416	0.154	0.040
-617.332	-66.581	0.153	0.061
-616.317	-200.000	-0.026	-0.307
-615.303	-149.886	0.161	-0.013
-614.288	-54.334	0.060	-0.027
-613.273	-141.636	0.064	-0.006
-612.259	-137.900	0.189	-0.021
-611.244	-14.208	0.097	0.063
-610.230	-96.473	0.206	0.055
-609.215	59.792	-0.154	0.152
-608.201	-200.000	0.058	0.308
-607.186	-200.000	-0.010	-0.077
-606.171	784.676	-0.066	-0.181
-605.157	-187.638	0.350	-0.005
-604.142	105.860	0.167	0.198
-603.128	-37.257	-0.262	-0.140
-602.113	244.483	0.064	-0.108
-601.098	-200.000	0.028	0.128
-600.084	40.373	-0.281	0.253
-599.069	-29.352	0.457	-0.262
-598.055	197.704	0.059	-0.090
-597.040	314.490	0.174	0.328
-596.025	-90.860	0.159	-0.046
-595.011	127.891	-0.122	-0.155
-593.996	-91.529	-0.234	0.067
-592.982	174.157	-0.054	-0.078
-591.967	-100.756	-0.254	-0.063
-590.952	800.000	-0.019	-0.082
-589.938	497.198	0.176	0.405
-588.923	-107.897	0.034	0.007
-587.909	107.604	-0.039	0.046
-586.894	-44.598	-0.073	0.036
-585.879	-200.000	0.004	-0.241
-584.865	375.725	0.163	-0.333
-583.850	628.608	-0.040	0.101
-582.836	260.171	-0.110	0.190
-581.821	-93.667	-0.203	-0.056
-580.806	1.807	0.308	-0.222
-579.792	-170.930	-0.317	-0.011
-578.777	329.861	0.131	-0.251
-577.763	-103.487	0.241	0.057
-576.748	800.000	0.072	-0.218
-575.733	13.049	0.452	-0.350
-574.719	-153.312	0.199	0.014
-573.704	-79.060	0.241	0.082
-572.690	105.105	0.146	0.172
-571.675	186.828	0.117	0.174
-570.661	-70.647	0.081	-0.031
-569.646	-200.000	-0.022	-0.159
-568.631	-78.526	0.214	0.073
-567.617	196.181	-0.069	0.105
-566.602	-200.000	0.003	-0.252
-565.588	-118.461	-0.201	-0.036
-564.573	490.547	-0.059	-0.135
-563.558	468.574	-0.171	-0.383
-562.544	96.739	-0.287	-0.329
-561.529	-64.411	-0.345	-0.140
-560.515	800.000	0.025	0.099
-559.500	-200.000	-0.038	0.229
-558.485	60.214	-0.133	-0.132
-557.471	40.383	-0.033	-0.030
-556.456	-148.105	0.288	0.024
-555.442	-17.705	-0.073	0.046
-554.427	58.948	-0.110	0.108
-553.412	-35.523	0.253	0.137
-552.398	-170.355	-0.155	0.005
-551.383	800.000	0.087	-0.280
-550.369	225.920	-0.140	-0.226
-549.354	-41.690	-0.090	0.046
-548.339	376.329	-0.127	0.260
-547.325	-200.000	0.002	-0.160
-546.310	7.450	0.215	-0.160
-545.296	584.050	0.012	0.029
-544.281	-159.069	0.199	0.011
-543.266	800.000	-0.090	-0.312
-542.252	650.647	-0.099	0.252
-541.237	-200.000	0.027	-0.171
-540.223	-125.456	-0.302	-0.046
-539.208	-200.000	-0.021	-0.141
-538.193	800.000	-0.070	-0.221
-537.179	-159.498	0.272	0.015
-536.164	-200.000	0.010	0.099
-535.150	-126.334	-0.342	-0.051
-534.135	-154.300	-0.246	0.017
-533.121	-90.514	-0.119	0.034
-532.106	-63.341	0.061	0.025
-531.091	-44.383	0.022	-0.011
-530.077	170.853	0.085	-0.122
-529.062	-164.055	-0.038	-0.002
-528.048	120.369	-0.124	-0.154
-527.033	-200.000	-0.023	0.115
-526.018	-116.078	0.135	0.025
-525.004	-125.444	-0.175	-0.027
-523.989	-200.000	0.025	0.176
-522.975	57.477	0.239	-0.233
-521.960	174.944	-0.216	-0.313
-520.945	800.000	-0.078	0.235
-519.931	-158.317	0.164	-0.010
-518.916	-60.042	-0.194	0.083
-517.902	105.960	-0.078	-0.093
-516.887	-161.752	-0.210	-0.011
-515.872	126.140	-0.071	0.090
-514.858	533.930	0.068	0.161
-513.843	-77.986	0.157	0.054
-512.829	109.421	-0.201	-0.240
-511.814	-200.000	0.004	0.134
-510.799	-87.929	-0.052	0.016
-509.785	-106.976	-0.084	-0.019
-508.770	-152.628	0.354	0.025
-507.756	112.330	-0.202	0.244
-506.741	-95.112	-0.089	0.024
-505.726	23.196	-0.323	-0.265
-504.712	-136.725	0.077	0.009
-503.697	-88.337	-0.120	0.036
-502.683	779.036	-0.055	-0.149
-501.668	-136.830	-0.158	-0.018
-500.653	-156.954	-0.340	0.021
-499.639	105.681	0.189	0.223
-498.624	112.442	0.106	0.128
-497.610	-200.000	-0.011	0.198
-496.595	-61.561	-0.424	-0.177
-495.581	232.372	-0.041	-0.067
-494.566	-77.628	0.272	-0.094
-493.551	-102.803	-0.249	0.059
-492.537	-200.000	0.025	0.265
-491.522	18.772	0.137	-0.109
-490.508	37.037	0.195	0.172
-489.493	359.209	0.159	0.317
-488.478	-200.000	0.008	-0.306
-487.464	127.322	0.166	0.210
-486.449	336.409	-0.039	0.076
-485.435	-72.594	0.080	0.029
-484.420	800.000	-0.065	0.212
-483.405	-29.782	-0.139	0.079
-482.391	-130.918	0.485	-0.065
-481.376	127.610	-0.073	-0.093
-480.362	-142.343	-0.192	0.019
-479.347	127.763	0.184	0.233
-478.332	204.729	-0.116	0.179
-477.318	-200.000	-0.001	-0.302
-476.303	-14.801	0.276	-0.177
-475.289	-56.351	0.212	-0.094
-474.274	800.000	0.042	0.145
-473.259	-151.973	-0.204	-0.015
-472.245	-143.427	-0.179	-0.017
-471.230	-50.554	-0.056	0.026
-470.216	6.838	0.045	-0.033
-469.201	800.000	0.096	-0.336
-468.186	-15.649	-0.146	-0.093
-467.172	15.950	0.196	-0.153
-466.157	-49.078	0.186	0.089
-465.143	188.520	-0.172	0.256
-464.128	99.007	0.142	0.164
-463.113	103.513	0.450	0.526
-462.099	2.356	0.071	0.051
-461.084	-200.000	0.002	-0.281
-460.070	581.901	0.075	-0.184
-459.055	422.807	0.103	-0.220
-458.040	-168.411	0.027	-0.001
-457.026	210.775	-0.029	-0.045
-456.011	-52.379	-0.023	-0.011
-454.997	-190.697	-0.366	-0.004
-453.982	-198.294	0.464	0.003
-452.968	29.057	0.141	-0.119
-451.953	-31.161	0.291	0.163
-450.938	-100.270	0.101	0.025
-449.924	800.000	0.047	-0.151
-448.909	-38.161	0.393	0.208
-447.895	318.734	-0.134	-0.253
-446.880	-15.158	0.149	0.095
-445.865	172.608	-0.166	-0.237
-444.851	-41.197	-0.078	0.040
-443.836	751.272	0.077	0.208
-442.822	727.909	-0.055	-0.147
-441.807	154.106	-0.221	0.302
-440.792	-200.000	0.027	0.211
-439.778	94.958	0.258	0.292
-438.763	800.000	-0.067	0.238
-437.749	196.691	0.066	0.100
-436.734	-115.672	-0.258	-0.048
-435.719	309.769	-0.205	0.381
-434.705	462.679	0.041	-0.091
-433.690	390.012	0.041	0.084
-432.676	-75.202	-0.334	0.119
-431.661	62.260	0.080	-0.080
-430.646	-200.000	-0.025	-0.203
-429.632	800.000	-0.047	-0.172
-428.617	-64.359	0.170	-0.069
-427.603	800.000	-0.024	-0.101
-426.588	-122.467	0.293	-0.047
-425.573	-200.000	0.001	0.011
-424.559	132.913	0.177	0.227
-423.544	-200.000	-0.056	-0.351
-422.530	-101.533	0.093	-0.023
-421.515	-42.442	-0.482	0.245
-420.500	30.754	-0.132	-0.112
-419.486	3.003	0.150	-0.108
-418.471	800.000	0.075	-0.275
-417.457	41.539	-0.272	-0.245
-416.442	800.000	-0.149	-0.422
-415.428	495.403	0.074	-0.170
-414.413	159.496	-0.126	-0.175
-413.398	-200.000	-0.014	-0.178
-412.384	302.057	0.169	0.310
-411.369	-95.073	-0.441	0.118
-410.355	53.064	-0.147	-0.140
-409.340	-89.303	0.019	0.006
-408.325	52.448	-0.103	0.098
-407.311	45.686	0.216	0.198
-406.296	-153.926	0.240	0.016
-405.282	716.583	0.039	-0.103
-404.267	-32.628	0.035	0.019
-403.252	197.512	-0.134	0.204
-402.238	58.526	0.166	0.162
-401.223	-104.362	-0.208	-0.048
-400.209	-200.000	-0.004	0.187
-399.194	800.000	-0.055	-0.237
-398.179	-90.607	0.374	-0.107
-397.165	310.969	0.045	0.083
-396.150	-104.622	0.228	-0.052
-395.136	319.109	-0.136	0.256
-394.121	-200.000	0.021	-0.238
-393.106	-200.000	-0.018	0.260
-392.092	-155.479	0.205	0.013
-391.077	210.589	-0.080	-0.124
-390.063	-27.809	-0.116	0.067
-389.048	-95.776	-0.346	0.092
-388.033	123.894	-0.277	-0.345
-387.019	45.686	0.261	-0.239
-386.004	-157.629	-0.393	-0.023
-384.990	173.971	0.022	-0.032
-383.975	296.110	-0.068	0.124
-382.960	-91.799	0.036	0.010
-381.946	35.384	-0.103	-0.089
-380.931	-200.000	0.027	-0.127
-379.917	-62.227	0.071	0.029
-378.902	-126.652	-0.313	-0.046
-377.888	-200.000	0.032	0.392
-376.873	-200.000	0.015	0.230
-375.858	33.364	0.153	-0.131
-374.844	-168.118	0.077	-0.003
-373.829	-114.840	0.124	0.023
-372.815	-87.660	0.079	0.024
-371.800	-141.302	-0.289	0.029
-370.785	30.102	-0.177	0.150
-369.771	174.581	0.124	-0.178
-368.756	-153.885	0.450	-0.031
-367.742	-139.331	-0.321	0.034
-366.727	-125.261	-0.046	0.007
-365.712	128.620	0.092	0.116
-364.698	609.414	-0.124	-0.308
-363.683	226.414	-0.146	-0.235
-362.669	-80.574	-0.188	0.062
-361.654	-200.000	-0.037	0.207
-360.639	46.182	0.384	0.353
-359.625	-200.000	0.042	-0.217
-358.610	-154.557	0.155	0.010
-357.596	134.674	-0.286	0.368
-356.581	65.767	-0.054	-0.054
-355.566	85.341	0.045	-0.049
-354.552	67.965	-0.162	-0.164
-353.537	499.797	-0.017	-0.039
-352.523	369.656	0.136	0.274
-351.508	50.732	-0.225	0.211
-350.493	159.356	0.050	-0.069
-349.479	53.501	-0.178	0.169
-348.464	20.465	0.189	-0.152
-347.450	4.956	-0.282	0.206
-346.435	75.307	-0.071	-0.074
-345.420	-22.473	0.288	-0.173
-344.406	800.000	0.050	0.151
-343.391	-200.000	0.049	-0.222
-342.377	-29.655	-0.312	-0.177
-341.362	15.347	-0.017	0.013
-340.348	227.187	0.029	-0.047
-339.333	-120.456	0.334	-0.056
-338.318	-10.247	-0.089	0.058
-337.304	-53.826	-0.264	-0.119
-336.289	-200.000	0.044	0.331
-335.275	439.716	0.061	0.132
-334.260	-65.376	0.215	0.086
-333.245	-77.944	0.075	0.026
-332.231	541.243	-0.101	-0.239
-331.216	-111.050	-0.194	-0.039
-330.202	-200.000	0.036	-0.326
-329.187	-120.278	0.231	-0.039
-328.172	-200.000	-0.000	0.238
-327.158	-200.000	0.021	0.180
-326.143	-200.000	-0.050	-0.406
-325.129	-99.769	0.185	-0.046
-324.114	-51.476	-0.233	-0.108
-323.099	-136.194	0.251	0.029
-322.085	477.183	0.074	0.166
-321.070	-38.403	0.172	-0.090
-320.056	800.000	0.190	-0.548
-319.041	-200.000	-0.053	-0.286
-318.026	379.758	0.072	-0.146
-317.012	130.590	-0.068	0.087
-315.997	-50.971	0.063	-0.030
-314.983	-200.000	-0.019	0.148
-313.968	279.493	-0.030	-0.052
-312.953	44.709	0.254	-0.232
-311.939	-73.981	0.115	-0.041
-310.924	-75.395	0.276	0.097
-309.910	215.196	0.120	0.188
-308.895	-120.691	0.199	-0.033
-307.880	-123.712	0.118	0.019
-306.866	-160.707	-0.307	0.016
-305.851	447.793	0.050	-0.109
-304.837	-136.376	-0.194	0.022
-303.822	-102.012	-0.148	0.035
-302.807	-4.795	0.358	-0.244
-301.793	-23.308	0.072	-0.043
-300.778	123.968	0.203	0.253
-299.764	-61.439	-0.045	-0.019
-298.749	-200.000	0.005	-0.141
-297.735	-121.284	0.364	0.060
-296.720	-79.140	0.135	-0.045
-295.705	-200.000	0.006	0.161
-294.691	2.393	-0.227	0.162
-293.676	-200.000	-0.019	0.128
-292.662	-57.366	-0.141	-0.061
-291.647	-200.000	-0.001	0.084
-290.632	217.847	-0.067	-0.106
-289.618	-13.571	-0.325	0.208
-288.603	-130.261	0.071	-0.010
-287.589	3.553	-0.070	0.050
-286.574	187.191	0.136	0.200
-285.559	-31.290	0.386	0.215
-284.545	52.567	-0.209	-0.197
-283.530	-89.349	0.302	0.088
-282.516	292.956	0.150	-0.271
-281.501	-26.238	-0.389	-0.226
-280.486	-69.968	-0.108	-0.041
-279.472	-114.630	0.048	-0.009
-278.457	-147.318	-0.270	0.023
-277.443	72.959	0.185	-0.191
-276.428	800.000	0.019	0.069
-275.413	312.838	-0.057	0.107
-274.399	-200.000	0.014	0.064
-273.384	175.094	0.194	0.278
-272.370	800.000	0.133	-0.376
-271.355	800.000	0.071	0.300
-270.340	800.000	-0.078	-0.289
-269.326	-21.120	-0.207	-0.125
-268.311	-80.024	0.096	0.032
-267.297	6.874	-0.203	0.150
-266.282	-24.439	-0.217	-0.128
-265.267	207.476	-0.133	-0.205
-264.253	-23.359	-0.164	0.098
-263.238	119.317	0.226	-0.277
-262.224	25.216	0.163	0.134
-261.209	87.477	-0.046	-0.050
-260.195	-128.387	-0.343	-0.048
-259.180	539.515	0.036	-0.084
-258.165	24.060	0.147	0.120
-257.151	88.943	-0.186	0.205
-256.136	67.149	-0.299	0.301
-255.122	800.000	-0.065	0.188
-254.107	-128.632	0.088	0.012
-253.092	-178.374	0.302	-0.007
-252.078	-141.424	-0.284	0.028
-251.063	-75.509	0.054	-0.019
-250.049	60.224	0.152	0.149
-249.034	-93.044	0.150	-0.041
-248.019	85.504	-0.090	0.097
-247.005	-60.560	0.276	-0.116
-245.990	-111.893	0.089	0.018
-244.976	108.130	0.072	-0.085
-243.961	388.569	0.068	-0.138
-242.946	-50.996	-0.315	-0.146
-241.932	175.547	0.117	-0.168
-240.917	-33.958	-0.239	-0.130
-239.903	-111.920	-0.297	-0.059
-238.888	-139.548	-0.159	0.017
-237.873	-86.534	0.190	-0.057
-236.859	-45.644	0.037	0.018
-235.844	150.512	-0.104	0.140
-234.830	-200.000	0.013	0.317
-233.815	-100.457	-0.234	-0.057
-232.800	-80.942	-0.168	0.055
-231.786	-138.455	-0.089	-0.010
-230.771	-24.134	0.344	0.203
-229.757	67.378	-0.112	0.113
-228.742	-126.157	-0.304	-0.045
-227.727	-19.105	0.034	0.021
-226.713	130.298	0.160	0.202
-225.698	382.956	0.043	0.088
-224.684	-72.230	-0.151	0.055
-223.669	800.000	-0.096	0.299
-222.655	-200.000	0.049	0.420
-221.640	800.000	0.158	0.467
-220.625	694.618	0.062	-0.161
-219.611	-16.828	-0.186	0.116
-218.596	-63.594	-0.173	-0.070
-217.582	-73.974	-0.192	-0.069
-216.567	800.000	0.055	0.195
-215.552	-72.458	-0.360	0.131
-214.538	-147.567	0.348	-0.029
-213.523	69.234	0.295	-0.299
-212.509	-7.133	-0.174	-0.117
-211.494	138.877	-0.162	0.209
-210.479	-54.085	0.151	0.068
-209.465	160.033	0.158	0.217
-208.450	-200.000	0.006	0.054
-207.436	-77.992	-0.215	-0.073
-206.421	-53.574	0.026	-0.012
-205.406	-104.867	-0.273	-0.062
-204.392	230.976	-0.195	0.315
-203.377	95.236	0.097	-0.109
-202.363	290.260	-0.036	0.065
-201.348	-103.540	-0.241	-0.056
-200.333	-49.843	0.188	0.088
-199.319	68.699	0.060	-0.061
-198.304	-75.884	0.098	0.034
-197.290	-24.316	-0.315	0.185
-196.275	800.000	-0.021	-0.070
-195.260	230.709	0.177	0.286
-194.246	18.239	0.288	0.226
-193.231	-93.587	-0.097	-0.026
-192.217	450.622	-0.089	-0.195
-191.202	209.577	-0.077	-0.119
-190.187	76.161	-0.179	0.187
-189.173	-40.673	-0.235	0.120
-188.158	719.274	-0.040	0.104
-187.144	-7.085	0.102	0.068
-186.129	-81.003	-0.128	-0.042
-185.114	-67.576	-0.162	0.062
-184.100	68.511	-0.087	0.088
-183.085	800.000	0.022	0.086
-182.071	-96.624	0.334	0.087
-181.056	-162.549	-0.278	-0.014
-180.042	-46.146	-0.228	-0.111
-179.027	-118.528	0.123	0.021
-178.012	-54.623	-0.185	0.082
-176.998	-45.856	-0.324	-0.158
-175.983	-58.795	0.219	0.093
-174.969	-129.599	0.259	-0.035
-173.954	-130.382	0.322	-0.043
-172.939	-200.000	0.007	0.069
-171.925	-200.000	-0.019	-0.196
-170.910	82.110	0.318	0.339
-169.896	-24.134	-0.226	-0.133
-168.881	-200.000	0.008	0.206
-167.866	32.724	-0.086	-0.073
-166.852	-24.455	-0.305	0.179
-165.837	49.259	0.133	0.123
-164.823	189.408	0.106	-0.157
-163.808	-200.000	-0.010	-0.233
-162.793	-141.944	-0.250	0.025
-161.779	800.000	-0.041	0.160
-160.764	-141.010	0.212	-0.021
-159.750	800.000	0.004	-0.016
-158.735	-169.527	0.117	-0.004
-157.720	-118.746	0.162	-0.028
-156.706	-143.541	0.085	0.008
-155.691	800.000	-0.068	-0.275
-154.677	-200.000	-0.011	0.172
-153.662	50.224	0.449	0.417
-152.647	-140.162	-0.233	-0.024
-151.633	-200.000	0.056	-0.282
-150.618	-92.662	-0.041	-0.011
-149.604	108.051	-0.107	0.126
-148.589	-200.000	-0.011	0.369
-147.574	-10.958	-0.081	0.053
-146.560	431.822	0.149	-0.319
-145.545	-146.837	-0.292	0.025
-144.531	-120.519	0.287	0.048
-143.516	261.936	-0.144	0.246
-142.502	-105.971	0.318	-0.070
-141.487	800.000	0.075	0.212
-140.472	132.264	-0.153	0.194
-139.458	-200.000	-0.030	0.136
-138.443	62.689	0.220	0.216
-137.429	-200.000	0.021	0.106
-136.414	238.538	-0.140	0.230
-135.399	-39.981	-0.057	0.029
-134.385	-72.449	-0.257	0.093
-133.370	-72.038	-0.190	0.069
-132.356	-14.873	-0.083	-0.052
-131.341	405.020	-0.108	0.224
-130.326	463.888	0.162	0.357
-129.312	-18.695	-0.136	-0.083
-128.297	-200.000	0.055	-0.336
-127.283	167.560	0.082	-0.114
-126.268	-100.280	0.435	0.106
-125.253	-74.781	-0.334	-0.118
-124.239	-200.000	-0.003	-0.285
-123.224	60.064	-0.182	-0.176
-122.210	121.777	0.073	0.090
-121.195	-200.000	0.005	-0.112
-120.180	-137.191	-0.212	-0.024
-119.166	800.000	-0.027	-0.080
-118.151	-200.000	-0.017	-0.386
-117.137	40.504	0.107	-0.095
-116.122	800.000	0.083	0.295
-115.107	-108.470	0.248	0.053
-114.093	503.114	0.173	-0.393
-113.078	332.817	-0.092	-0.175
-112.064	800.000	-0.056	0.207
-111.049	127.992	-0.177	0.221
-110.034	-200.000	-0.041	0.260
-109.020	340.777	-0.089	0.170
-108.005	-50.705	-0.108	0.050
-106.991	116.852	-0.063	-0.075
-105.976	800.000	-0.032	-0.109
-104.962	-200.000	0.211	-0.000
-103.947	800.000	-0.074	0.299
-102.932	-200.000	0.014	0.071
-101.918	-38.784	0.253	0.131
-100.903	-200.000	-0.065	0.305
-99.889	134.717	0.135	-0.172
-98.874	210.564	0.258	-0.398
-97.859	81.513	-0.163	-0.173
-96.845	99.659	0.094	0.106
-95.830	-102.916	0.233	0.054
-94.816	-69.555	-0.198	0.075
-93.801	-35.125	0.179	0.096
-92.786	-35.366	-0.244	-0.130
-91.772	-200.000	0.172	-0.000
-90.757	-81.751	-0.240	0.077
-89.743	-104.818	0.313	0.071
-88.728	-158.851	0.236	-0.013
-87.713	-170.138	-0.338	-0.012
-86.699	-200.000	0.003	0.105
-85.684	173.503	0.213	0.302
-84.670	-56.742	-0.374	0.162
-83.655	-200.000	-0.034	-0.207
-82.640	81.343	-0.194	0.205
-81.626	-200.000	0.025	0.125
-80.611	-172.080	-0.421	-0.013
-79.597	-169.223	0.083	-0.003
-78.582	-200.000	-0.111	0.623
-77.567	157.808	0.195	0.266
-76.553	-200.000	0.022	0.386
-75.538	540.036	0.143	-0.335
-74.524	-200.000	-0.028	-0.521
-73.509	-21.816	0.198	-0.118
-72.494	707.677	-0.079	0.205
-71.480	800.000	0.079	0.291
-70.465	19.923	-0.106	0.084
-69.451	-200.000	0.017	-0.119
-68.436	800.000	0.065	-0.182
-67.422	800.000	0.106	-0.312
-66.407	110.180	-0.071	-0.083
-65.392	-200.000	-0.058	0.264
-64.378	82.201	-0.204	0.217
-63.363	21.209	0.292	0.233
-62.349	-12.031	0.304	0.195
-61.334	136.159	-0.879	-1.124
-60.319	-31.545	0.631	0.348
-59.305	800.000	-0.321	-1.087
-58.290	-200.000	0.220	0.994
-57.276	239.478	0.912	1.487
-56.261	-200.000	104.992	605.311
-55.246	496.681	1500.878	3383.394
-54.232	176.946	2696.127	3844.766
-53.217	111.099	2186.607	2581.272
-52.203	40.384	1703.307	1502.606
-51.188	32.739	1512.044	1282.095
-50.173	30.511	1485.155	1244.343
-49.159	50.882	1540.637	1430.436
-48.144	51.579	1557.089	1450.413
-47.130	33.061	1513.341	1285.177
-46.115	30.004	1498.085	1251.557
-45.100	29.795	1494.669	1247.239
-44.086	29.682	1493.462	1245.421
-43.071	29.690	1490.542	1242.993
-42.057	29.700	1488.756	1241.518
-41.042	29.634	1487.714	1240.159
-40.027	29.654	1486.370	1239.125
-39.013	29.601	1484.566	1237.215
-37.998	29.729	1483.325	1236.989
-36.984	29.637	1482.330	1235.493
-35.969	29.711	1480.604	1234.503
-34.954	29.610	1480.064	1233.326
-33.940	29.614	1477.981	1231.573
-32.925	29.597	1476.584	1230.245
-31.911	29.686	1475.070	1229.525
-30.896	29.817	1474.100	1229.538
-29.881	29.877	1472.265	1228.356
-28.867	29.806	1471.489	1227.189
-27.852	29.735	1470.081	1225.501
-26.838	29.696	1468.785	1224.109
-25.823	29.728	1467.403	1223.124
-24.809	29.706	1465.626	1221.448
-23.794	29.691	1464.138	1220.061
-22.779	29.723	1462.841	1219.141
-21.765	29.664	1462.482	1218.403
-20.750	29.728	1461.249	1217.752
-19.736	29.715	1460.037	1216.606
-18.721	29.669	1459.052	1215.435
-17.706	29.619	1457.386	1213.674
-16.692	29.717	1456.309	1213.371
-15.677	29.639	1455.742	1212.338
-14.663	29.705	1454.690	1211.844
-13.648	29.614	1454.013	1210.634
-12.633	29.612	1453.187	1209.890
-11.619	29.622	1452.126	1209.020
-10.604	29.636	1451.200	1208.293
-9.590	29.538	1450.363	1206.906
-8.575	29.678	1449.326	1206.914
-7.560	29.733	1448.312	1206.380
-6.546	29.594	1447.738	1204.949
-5.531	29.624	1446.662	1204.201
-4.517	29.503	1446.638	1203.340
-3.502	29.529	1445.204	1202.268
-2.487	29.509	1444.416	1201.439
-1.473	29.530	1442.884	1200.253
-0.458	29.634	1441.374	1199.623
0.556	27.279	1432.111	1189.486
1.571	24.492	1407.654	1151.129
2.586	21.445	1350.015	1085.023
3.600	20.016	1269.968	1012.255
4.615	18.827	1225.454	969.979
5.629	16.450	1170.804	913.800
6.644	8.379	1087.283	807.865
7.659	1.157	1046.748	742.411
8.673	0.010	1040.594	732.397
9.688	-0.235	1037.657	729.077
10.702	-0.261	1035.797	727.579
11.717	-0.243	1033.858	726.240
12.731	2.974	1037.754	744.518
13.746	11.892	1050.597	797.252
14.761	18.751	1058.997	837.111
15.775	20.731	1060.991	848.273
16.790	21.080	1060.301	849.343
17.804	20.918	1059.511	847.847
18.819	20.633	1059.310	846.225
19.834	20.759	1058.332	845.982
20.848	20.869	1057.560	845.823
21.863	20.876	1057.825	845.996
22.877	20.831	1057.765	845.653
23.892	20.864	1056.456	844.692
24.907	20.865	1055.367	843.753
25.921	20.789	1055.114	843.107
26.936	20.844	1054.072	842.465
27.950	20.908	1053.140	841.958
28.965	20.742	1051.821	840.028
29.980	20.664	1050.227	838.304
30.994	20.737	1048.803	837.444
32.009	20.967	1047.530	837.459
33.023	21.009	1047.301	837.402
34.038	20.869	1046.027	835.637
35.053	20.780	1045.416	834.648
36.067	20.856	1044.951	834.571
37.082	20.901	1043.780	833.774
38.096	20.903	1043.382	833.395
39.111	21.095	1042.238	833.325
40.126	21.182	1041.422	833.009
41.140	21.034	1040.358	831.382
42.155	20.805	1039.213	829.302
43.169	20.540	1037.364	826.495
44.184	20.570	1036.523	825.890
45.199	20.580	1035.561	825.099
46.213	20.586	1034.496	824.207
47.228	20.504	1033.678	823.095
48.242	20.659	1032.732	823.000
49.257	20.658	1032.376	822.640
50.271	20.760	1031.606	822.436
51.286	20.896	1030.852	822.403
52.301	21.016	1029.965	822.191
53.315	20.791	1029.109	820.375
54.330	20.898	1028.283	820.146
55.344	20.790	1027.782	819.166
56.359	20.835	1026.917	818.617
57.374	20.878	1025.974	817.993
58.388	20.676	1024.946	816.153
59.403	20.639	1023.786	814.983
60.417	20.699	1023.108	814.655
61.432	20.630	1022.349	813.653
62.447	20.522	1021.862	812.689
63.461	20.644	1021.009	812.508
64.476	20.663	1020.482	812.109
65.490	20.700	1019.542	811.460
66.505	20.597	1018.377	809.982
67.520	20.676	1017.709	809.744
68.534	20.700	1016.774	809.043
69.549	20.531	1016.017	807.581
70.563	20.325	1014.224	805.130
71.578	20.206	1013.683	804.079
72.593	20.299	1012.966	803.870
73.607	20.117	1011.472	801.769
74.622	20.192	1010.861	801.560
75.636	20.411	1010.583	802.285
76.651	20.561	1009.413	801.977
77.666	20.441	1008.475	800.604
78.680	20.367	1007.602	799.503
79.695	20.343	1007.473	799.217
80.709	20.431	1006.576	798.838
81.724	20.671	1005.717	799.191
82.739	20.471	1004.765	797.443
83.753	20.423	1004.016	796.559
84.768	20.708	1003.508	797.393
85.782	21.016	1002.757	798.134
86.797	21.147	1002.316	798.311
87.812	21.109	1000.989	797.010
88.826	20.992	999.998	795.618
89.841	21.047	999.229	795.185
90.855	21.120	998.783	795.094
91.870	21.152	997.800	794.386
92.884	21.006	997.373	793.310
93.899	21.040	995.835	792.172
94.914	20.889	994.790	790.586
95.928	20.972	994.601	790.745
96.943	21.015	993.325	789.852
97.957	20.775	991.792	787.481
98.972	20.552	990.885	785.682
99.987	20.454	989.914	784.398
101.001	20.570	989.200	784.289
102.016	20.707	989.068	784.731
103.030	20.914	987.834	784.616
104.045	20.700	986.852	782.802
105.060	20.500	985.885	781.068
106.074	20.467	984.163	779.489
107.089	20.589	983.219	779.218
108.103	20.811	983.503	780.369
109.118	20.976	982.559	780.290
110.133	20.754	981.137	778.099
111.147	20.646	980.549	777.082
112.162	20.668	978.891	775.794
113.176	20.260	977.793	773.039
114.191	20.532	977.146	773.672
115.206	20.564	976.568	773.289
116.220	20.293	974.749	770.574
117.235	20.147	974.671	769.798
118.249	20.321	973.682	769.719
119.264	20.399	972.507	769.066
120.279	20.277	971.637	767.771
121.293	20.305	971.370	767.615
122.308	20.406	970.302	767.152
123.322	20.329	969.537	766.140
124.337	20.315	968.444	765.148
125.352	20.220	967.245	763.710
126.366	19.916	965.382	760.836
127.381	19.586	964.047	758.270
128.395	20.191	963.680	760.565
129.410	20.753	963.406	762.745
130.424	20.806	962.931	762.535
131.439	20.860	961.764	761.780
132.454	20.834	960.535	760.626
133.468	20.723	960.081	759.717
134.483	20.562	959.473	758.464
135.497	20.774	958.398	758.471
136.512	20.940	957.613	758.503
137.527	20.943	957.402	758.284
138.541	21.056	955.917	757.534
139.556	21.096	955.530	757.331
140.570	20.993	954.650	756.120
141.585	20.980	954.034	755.511
142.600	20.920	953.151	754.483
143.614	20.916	952.225	753.664
144.629	21.098	951.573	753.868
145.643	21.280	950.941	754.088
146.658	21.276	949.434	752.811
147.673	20.896	948.858	750.651
148.687	20.898	947.178	749.262
149.702	20.938	946.030	748.461
150.716	20.825	945.205	747.258
151.731	20.888	943.922	746.445
152.746	20.972	943.560	746.452
153.760	21.146	943.370	746.980
154.775	21.180	942.413	746.301
155.789	21.238	941.387	745.670
156.804	21.164	940.503	744.591
157.819	21.189	939.247	743.637
158.833	21.194	938.609	743.087
159.848	21.295	938.000	742.969
160.862	21.236	937.052	741.903
161.877	21.242	936.274	741.244
162.892	21.121	935.058	739.702
163.906	21.219	934.630	739.716
164.921	21.324	933.322	739.058
165.935	21.158	932.615	737.733
166.950	21.046	931.545	736.346
167.964	21.102	930.727	735.870
168.979	21.076	930.312	735.368
169.994	21.035	928.468	733.673
171.008	21.116	927.421	733.123
172.023	21.114	927.125	732.813
173.037	21.252	926.373	732.737
174.052	21.112	925.139	731.108
175.067	20.926	923.878	729.270
176.081	20.920	923.266	728.694
177.096	21.002	922.577	728.428
178.110	21.097	921.750	728.107
179.125	20.829	920.801	726.178
180.140	20.612	919.555	724.227
181.154	20.652	918.778	723.718
182.169	20.573	918.892	723.413
183.183	20.976	917.910	724.250
184.198	21.026	918.404	724.783
185.213	21.064	917.348	724.046
186.227	20.994	916.611	723.107
187.242	21.134	916.182	723.289
188.256	21.085	915.241	722.278
189.271	21.137	914.369	721.739
190.286	21.210	913.848	721.566
191.300	21.093	912.892	720.266
192.315	20.543	911.197	716.597
193.329	19.939	909.953	713.069
194.344	19.578	908.857	710.662
195.359	20.025	909.175	712.688
196.373	20.892	909.466	716.419
197.388	21.180	909.065	717.222
198.402	20.949	908.577	715.825
199.417	21.009	907.528	715.181
200.432	21.019	907.718	715.311
201.446	20.896	906.522	713.798
202.461	20.525	906.090	711.876
203.475	20.583	905.669	711.720
204.490	20.220	903.787	708.695
205.504	19.149	901.702	702.630
206.519	19.527	902.004	704.346
207.534	20.597	902.470	709.012
208.548	20.640	901.827	708.620
209.563	20.995	901.670	709.878
210.577	20.936	900.802	708.894
211.592	20.760	899.910	707.414
212.607	21.109	899.752	708.644
213.621	21.229	899.370	708.770
214.636	21.191	898.722	708.042
215.650	21.293	898.019	707.838
216.665	21.236	897.407	707.060
217.680	21.187	897.308	706.723
218.694	21.128	896.519	705.799
219.709	21.007	895.512	704.457
220.723	20.599	894.675	702.089
221.738	20.869	893.907	702.513
222.753	20.953	894.039	702.892
223.767	21.062	892.623	702.156
224.782	21.101	891.957	701.726
225.796	21.252	891.567	701.964
226.811	21.335	891.078	701.851
227.826	20.832	889.715	698.697
228.840	20.118	888.350	694.705
229.855	20.039	887.887	693.965
230.869	20.370	887.315	694.778
231.884	20.134	886.155	692.865
232.899	19.996	885.857	692.019
233.913	20.964	885.837	695.810
234.928	21.091	885.456	695.956
235.942	21.011	884.684	694.967
236.957	20.952	884.281	694.354
237.972	20.781	883.199	692.765
238.986	20.682	882.145	691.481
240.001	20.676	882.130	691.386
241.015	20.790	881.456	691.251
242.030	20.725	880.696	690.335
243.045	20.894	880.301	690.635
244.059	21.103	879.637	690.879
245.074	21.238	879.337	691.115
246.088	21.236	878.287	690.224
247.103	20.691	877.960	687.750
248.117	20.744	877.170	687.280
249.132	21.222	877.335	689.236
250.147	21.532	877.018	690.150
251.161	21.708	875.940	689.933
252.176	21.843	875.734	690.241
253.190	21.945	874.900	689.923
254.205	22.051	874.454	689.928
255.220	22.032	874.445	689.786
256.234	21.931	873.774	688.798
257.249	21.894	873.208	688.143
258.263	21.841	872.209	687.089
259.278	21.796	871.544	686.327
260.293	21.849	871.523	686.457
261.307	21.932	870.910	686.239
262.322	21.925	869.702	685.201
263.336	21.909	868.935	684.470
264.351	21.195	868.116	680.981
265.366	20.170	866.050	675.311
266.380	19.722	864.963	672.661
267.395	20.629	865.521	676.565
268.409	21.459	865.510	679.724
269.424	21.368	864.952	678.872
270.439	21.542	864.672	679.269
271.453	21.844	863.416	679.389
272.468	21.819	862.876	678.810
273.482	22.053	862.519	679.374
274.497	22.009	862.485	679.118
275.512	21.814	861.122	677.232
276.526	21.323	859.574	674.060
277.541	21.492	859.431	674.541
278.555	21.771	859.507	675.614
279.570	21.559	858.710	674.113
280.585	21.393	858.156	672.978
281.599	21.526	857.124	672.621
282.614	21.694	856.863	673.001
283.628	21.191	855.728	670.122
284.643	21.019	854.761	668.647
285.657	21.269	854.975	669.714
286.672	21.196	854.011	668.618
287.687	20.714	852.763	665.738
288.701	21.113	852.846	667.270
289.716	21.449	852.765	668.431
290.730	21.142	851.796	666.442
291.745	20.966	851.287	665.312
292.760	20.742	850.149	663.512
293.774	20.803	849.622	663.275
294.789	21.708	849.957	666.923
295.803	22.204	849.982	668.770
296.818	22.118	850.180	668.540
297.833	22.358	849.076	668.523
298.847	22.055	847.938	666.421
299.862	21.684	847.234	664.400
300.876	21.970	846.414	664.781
301.891	22.155	846.389	665.404
302.906	22.339	845.578	665.406
303.920	21.874	844.612	662.827
304.935	21.682	844.236	661.749
305.949	22.009	843.511	662.356
306.964	22.225	843.293	662.940
307.979	21.856	842.868	661.158
308.993	22.022	841.732	660.834
310.008	22.344	841.732	661.984
311.022	22.372	841.264	661.664
312.037	22.291	840.323	660.561
313.052	21.980	840.074	659.141
314.066	21.962	839.096	658.248
315.081	21.220	837.891	654.461
316.095	20.677	836.474	651.266
317.110	21.125	836.773	653.118
318.125	22.039	836.821	656.519
319.139	21.540	835.665	653.689
320.154	20.416	834.124	648.232
321.168	20.009	833.265	645.989
322.183	20.642	833.853	648.751
323.197	21.553	834.252	652.399
324.212	21.827	833.890	653.083
325.227	21.949	833.457	653.137
326.241	21.979	833.207	652.997
327.256	21.981	832.180	652.140
328.270	21.736	831.668	650.772
329.285	21.835	830.819	650.419
330.300	21.656	830.115	649.146
331.314	21.480	829.232	647.747
332.329	21.522	828.696	647.425
333.343	21.879	828.545	648.571
334.358	22.128	828.014	649.018
335.373	22.040	827.527	648.254
336.387	22.239	827.089	648.586
337.402	22.437	826.864	649.084
338.416	22.456	826.375	648.711
339.431	22.543	825.829	648.547
340.446	22.425	825.495	647.792
341.460	22.727	824.569	648.120
342.475	22.915	823.691	648.061
343.489	22.609	822.864	646.230
344.504	22.483	822.354	645.311
345.519	22.684	822.625	646.205
346.533	22.819	822.220	646.321
347.548	22.991	821.670	646.460
348.562	22.890	821.320	645.758
349.577	23.002	820.596	645.542
350.592	22.784	820.320	644.471
351.606	22.840	819.322	643.836
352.621	22.832	819.177	643.637
353.635	22.829	818.413	642.969
354.650	22.739	817.827	642.121
355.665	22.429	816.888	640.203
356.679	21.297	815.300	634.789
357.694	21.075	815.311	633.934
358.708	21.867	814.928	636.457
359.723	21.822	814.512	635.911
360.738	22.100	814.084	636.530
361.752	22.474	814.172	637.896
362.767	22.661	813.841	638.257
363.781	22.914	813.147	638.572
364.796	23.092	813.114	639.133
365.810	23.150	813.018	639.211
366.825	23.164	812.744	638.988
367.840	23.270	812.075	638.789
368.854	23.161	811.686	638.033
369.869	22.764	810.176	635.360
370.883	22.546	809.933	634.330
371.898	22.568	809.641	634.124
372.913	22.625	808.723	633.552
373.927	22.529	808.150	632.703
374.942	22.838	807.547	633.284
375.956	22.767	807.330	632.803
376.971	22.896	806.583	632.624
377.986	23.005	805.824	632.362
379.000	23.329	805.567	633.264
380.015	23.163	805.428	632.503
381.029	23.160	804.216	631.487
382.044	23.017	804.092	630.822
383.059	23.257	803.243	630.956
384.073	23.155	802.861	630.237
385.088	23.306	802.232	630.224
386.102	23.295	801.610	629.643
387.117	22.928	801.192	627.953
388.132	22.830	800.993	627.393
389.146	22.701	800.266	626.309
390.161	22.324	798.895	623.847
391.175	22.336	798.823	623.777
392.190	22.851	798.852	625.570
393.205	22.862	798.823	625.530
394.219	21.901	796.791	620.486
395.234	20.349	794.566	613.221
396.248	19.605	793.615	609.807
397.263	20.683	794.613	614.327
398.278	22.370	795.967	621.282
399.292	22.765	795.548	622.292
400.307	22.602	794.756	621.045
401.321	22.569	794.163	620.409
402.336	22.756	794.028	620.908
403.350	22.910	793.853	621.258
404.365	23.321	793.624	622.469
405.380	23.620	793.478	623.349
406.394	23.731	793.363	623.591
407.409	24.005	792.616	623.913
408.423	23.881	792.209	623.100
409.438	23.617	791.927	621.899
410.453	23.770	791.341	621.918
411.467	23.863	791.068	621.975
412.482	23.887	790.211	621.331
413.496	23.780	789.787	620.567
414.511	23.820	789.748	620.623
415.526	23.999	789.325	620.861
416.540	23.836	788.869	619.877
417.555	23.865	788.250	619.436
418.569	23.616	787.127	617.634
419.584	23.533	786.835	617.062
420.599	23.596	786.618	617.054
421.613	156.836	1365.566	1798.340
422.628	135.666	1449.881	1798.451
