DTS Sentinel unit serial number:	SN413079Multiplexer serial number:	ORYXHardware model number:	OX4-SRSoftware version number:	ORYX F/W v4.00 Oryx Data Collector v3.7.2.0data status	okinstallation	princeton_trtdifferential loss correction	single-endedforward channel	channel 3reverse channel	N/Adate	2019/09/13time	02:52:35forward acquisition time	60.00reverse acquisition time	0.00gamma	496.2192k internal	0.2334k external	0.2334temperature offset calibration	1.0141default loss term (dB/km)	0.3790temperature slope calibration	1.0000multiplexer offset coefficient	1.0000multiplexer slope coefficient	1.0000fibre end	0.00T internal ref (°C)	27.44T ext. ref 1 (°C)	4.04T ext. ref 2 (°C)	22.36length (m)	temperature (°C)	Stokes	anti-Stokes-747.200	302.561	0.128	-0.238
-746.185	-200.000	-0.324	-0.001
-745.171	34.887	-0.096	0.084
-744.156	-59.788	-0.293	0.126
-743.142	-200.000	0.011	-0.074
-742.127	24.345	-0.064	-0.053
-741.112	-179.293	0.388	-0.009
-740.098	135.562	-0.067	-0.087
-739.083	-11.161	0.084	0.056
-738.069	-113.341	0.233	0.046
-737.054	87.593	-0.155	0.172
-736.039	-90.810	-0.182	0.053
-735.025	118.743	0.226	0.281
-734.010	-200.000	-0.052	-0.316
-732.996	-200.000	-0.019	-0.343
-731.981	-200.000	-0.033	0.174
-730.966	-200.000	0.006	0.099
-729.952	-117.421	-0.286	-0.052
-728.937	-20.976	-0.224	-0.137
-727.923	82.993	-0.018	-0.020
-726.908	76.533	0.141	0.150
-725.894	161.718	0.090	-0.127
-724.879	525.275	-0.060	-0.143
-723.864	-149.173	0.081	-0.006
-722.850	-58.259	-0.259	-0.113
-721.835	180.366	-0.129	0.190
-720.821	-164.257	0.116	-0.005
-719.806	763.581	0.059	-0.161
-718.791	16.308	-0.078	0.062
-717.777	-89.769	-0.081	0.024
-716.762	-99.033	-0.299	-0.076
-715.748	672.427	0.105	-0.274
-714.733	4.586	-0.114	-0.084
-713.718	-99.881	0.108	0.027
-712.704	800.000	0.037	0.159
-711.689	-186.812	0.092	-0.001
-710.675	77.339	0.201	0.215
-709.660	-112.855	-0.086	-0.017
-708.645	319.684	0.097	0.185
-707.631	27.103	0.272	0.229
-706.616	-200.000	0.044	0.497
-705.602	-160.897	-0.225	0.012
-704.587	-91.310	-0.537	0.154
-703.572	800.000	-0.092	0.336
-702.558	-116.271	-0.303	0.056
-701.543	-131.207	0.147	0.020
-700.529	-130.671	0.188	-0.025
-699.514	-186.868	-0.252	-0.004
-698.499	-200.000	-0.038	0.209
-697.485	18.486	-0.176	-0.141
-696.470	179.094	-0.082	0.120
-695.456	321.117	0.080	-0.153
-694.441	463.414	0.077	-0.173
-693.426	205.420	-0.036	-0.056
-692.412	-115.742	-0.263	0.049
-691.397	312.364	-0.069	-0.130
-690.383	-83.972	-0.076	0.024
-689.368	29.669	-0.226	0.193
-688.354	142.116	0.076	-0.101
-687.339	25.897	0.107	-0.089
-686.324	-105.580	-0.323	-0.074
-685.310	-200.000	-0.003	-0.190
-684.295	-102.364	-0.236	-0.057
-683.281	3.059	-0.217	-0.158
-682.266	-136.656	-0.205	0.024
-681.251	-75.554	0.210	-0.075
-680.237	-135.865	-0.174	0.021
-679.222	43.943	-0.198	-0.182
-678.208	-129.847	0.189	-0.026
-677.193	-200.000	-0.111	0.693
-676.178	-200.000	0.033	-0.186
-675.164	-77.594	-0.226	-0.079
-674.149	-68.640	0.260	-0.101
-673.135	-56.113	0.184	-0.082
-672.120	-200.000	0.021	-0.250
-671.105	-89.585	0.324	-0.095
-670.091	106.649	-0.083	-0.099
-669.076	63.176	-0.140	0.140
-668.062	-75.043	0.153	0.055
-667.047	-8.166	-0.248	-0.168
-666.032	-126.216	-0.097	0.015
-665.018	-89.158	0.152	0.045
-664.003	-200.000	-0.026	0.165
-662.989	50.141	-0.073	-0.069
-661.974	62.333	-0.290	0.290
-660.959	-119.197	-0.265	0.046
-659.945	633.400	0.080	0.203
-658.930	34.637	0.198	-0.173
-657.916	-40.291	0.205	-0.107
-656.901	-14.490	0.169	-0.109
-655.886	59.154	0.169	-0.167
-654.872	-200.000	-0.022	-0.327
-653.857	800.000	0.034	0.101
-652.843	-198.298	0.248	-0.001
-651.828	-146.218	-0.280	0.025
-650.814	-97.648	0.208	0.054
-649.799	304.860	-0.012	0.023
-648.784	72.786	0.217	-0.227
-647.770	242.083	0.174	-0.291
-646.755	308.366	-0.040	-0.074
-645.741	-200.000	-0.029	-0.454
-644.726	-83.776	0.101	0.032
-643.711	-96.939	-0.332	0.087
-642.697	778.532	-0.095	0.259
-641.682	98.622	0.070	-0.081
-640.668	-62.792	-0.321	-0.133
-639.653	80.456	-0.150	-0.161
-638.638	82.011	-0.144	0.156
-637.624	-200.000	-0.021	0.195
-636.609	439.374	0.052	-0.113
-635.595	331.988	-0.055	0.106
-634.580	-152.486	-0.194	-0.014
-633.565	118.001	0.062	0.077
-632.551	-40.151	-0.239	0.124
-631.536	800.000	0.030	-0.124
-630.522	-64.662	-0.154	-0.062
-629.507	-123.245	0.181	0.029
-628.492	-113.987	-0.179	0.035
-627.478	800.000	-0.039	0.145
-626.463	3.406	0.310	-0.226
-625.449	-116.835	-0.327	-0.060
-624.434	12.850	-0.220	-0.170
-623.419	179.778	0.047	-0.068
-622.405	800.000	0.050	0.174
-621.390	255.507	-0.049	0.084
-620.376	-186.820	-0.273	-0.004
-619.361	105.586	-0.130	-0.154
-618.346	74.184	0.207	0.217
-617.332	-114.307	-0.210	0.041
-616.317	-80.833	-0.518	0.172
-615.303	-180.289	0.171	-0.004
-614.288	-200.000	0.081	-0.000
-613.273	-45.338	-0.173	0.086
-612.259	-200.000	0.016	0.120
-611.244	107.506	-0.008	0.009
-610.230	287.909	-0.273	-0.494
-609.215	639.237	0.028	0.070
-608.201	-200.000	0.027	-0.168
-607.186	-200.000	-0.003	0.085
-606.171	570.486	0.068	0.166
-605.157	-106.180	0.402	-0.090
-604.142	-54.360	0.194	-0.088
-603.128	445.120	-0.045	0.100
-602.113	-200.000	-0.007	0.136
-601.098	-61.287	0.296	-0.124
-600.084	75.370	0.115	-0.121
-599.069	93.622	-0.024	0.027
-598.055	273.627	-0.102	0.180
-597.040	-138.483	-0.249	-0.027
-596.025	-86.537	0.217	0.067
-595.011	35.425	0.115	-0.101
-593.996	313.838	-0.079	-0.149
-592.982	183.336	-0.145	-0.215
-591.967	-104.604	-0.393	-0.091
-590.952	173.361	0.035	-0.050
-589.938	-200.000	-0.060	-0.515
-588.923	-147.265	-0.131	-0.011
-587.909	800.000	0.009	-0.034
-586.894	800.000	0.101	-0.363
-585.879	118.543	-0.094	-0.116
-584.865	699.123	0.087	-0.230
-583.850	-200.000	-0.003	0.022
-582.836	-200.000	0.024	-0.218
-581.821	-200.000	-0.035	-0.298
-580.806	120.194	-0.214	0.265
-579.792	8.529	-0.313	0.235
-578.777	308.413	-0.091	0.170
-577.763	97.554	-0.198	0.227
-576.748	17.927	-0.029	0.023
-575.733	-86.223	-0.257	0.079
-574.719	-111.819	0.029	0.006
-573.704	-52.318	0.231	0.107
-572.690	-200.000	-0.017	0.092
-571.675	400.844	-0.127	-0.265
-570.661	208.761	-0.153	-0.238
-569.646	259.515	-0.087	-0.150
-568.631	105.547	0.133	0.156
-567.617	-74.639	-0.362	-0.130
-566.602	14.450	-0.344	-0.268
-565.588	600.848	-0.082	0.203
-564.573	-200.000	0.061	-0.332
-563.558	-157.509	0.128	-0.008
-562.544	-89.463	-0.419	0.123
-561.529	800.000	-0.107	0.442
-560.515	-200.000	-0.019	0.493
-559.500	18.014	-0.071	0.057
-558.485	-1.506	0.091	0.064
-557.471	-94.053	-0.026	0.007
-556.456	367.656	0.298	-0.601
-555.442	327.518	0.207	-0.395
-554.427	-67.650	-0.055	0.022
-553.412	103.836	0.052	0.060
-552.398	42.735	-0.085	-0.077
-551.383	523.972	0.071	0.168
-550.369	800.000	0.087	0.257
-549.354	-175.270	-0.452	-0.012
-548.339	344.102	0.084	0.164
-547.325	-134.144	-0.307	0.038
-546.310	314.753	0.154	0.290
-545.296	38.472	-0.027	0.024
-544.281	-61.144	-0.096	-0.040
-543.266	-113.087	-0.194	0.038
-542.252	800.000	-0.097	0.270
-541.237	-97.081	0.304	0.079
-540.223	-92.066	-0.150	-0.042
-539.208	52.922	0.276	0.264
-538.193	47.195	0.416	0.386
-537.179	-200.000	0.039	0.362
-536.164	33.468	-0.188	0.163
-535.150	-200.000	0.020	-0.294
-534.135	800.000	-0.096	-0.359
-533.121	-200.000	-0.022	-0.164
-532.106	41.162	-0.098	0.089
-531.091	800.000	0.053	-0.219
-530.077	352.538	-0.050	-0.099
-529.062	529.567	0.146	0.344
-528.048	800.000	0.126	-0.376
-527.033	-59.457	-0.251	-0.108
-526.018	366.594	-0.037	0.074
-525.004	-50.958	0.234	0.109
-523.989	84.919	-0.075	-0.082
-522.975	-200.000	0.032	-0.244
-521.960	-124.515	0.405	-0.063
-520.945	-108.193	0.130	0.028
-519.931	331.692	0.127	0.244
-518.916	7.482	0.297	0.221
-517.902	29.120	0.119	0.100
-516.887	-200.000	-0.013	0.076
-515.872	-123.269	0.068	0.011
-514.858	-54.547	0.142	0.064
-513.843	82.278	0.043	0.047
-512.829	-108.079	0.352	-0.076
-511.814	295.096	0.033	-0.060
-510.799	-200.000	-0.010	-0.145
-509.785	43.045	-0.147	-0.133
-508.770	-147.411	-0.200	-0.017
-507.756	-91.138	-0.443	-0.127
-506.741	-83.520	-0.328	-0.105
-505.726	205.217	-0.070	-0.108
-504.712	-200.000	0.027	0.232
-503.697	-128.566	-0.135	0.019
-502.683	-29.261	-0.239	-0.136
-501.668	-141.509	-0.189	0.019
-500.653	-200.000	-0.058	0.384
-499.639	555.926	0.047	-0.112
-498.624	565.777	0.160	-0.387
-497.610	163.979	0.052	0.073
-496.595	107.458	0.168	0.198
-495.581	-200.000	-0.014	0.073
-494.566	-77.538	-0.159	-0.055
-493.551	-79.560	0.133	-0.045
-492.537	234.141	0.145	-0.238
-491.522	153.571	0.047	-0.064
-490.508	-200.000	0.020	0.138
-489.493	146.873	-0.131	0.175
-488.478	349.603	0.119	0.233
-487.464	-36.928	-0.013	-0.007
-486.449	56.316	0.068	0.066
-485.435	-26.231	-0.146	-0.085
-484.420	-200.000	-0.000	-0.134
-483.405	334.661	-0.120	0.232
-482.391	510.557	0.171	-0.397
-481.376	-188.013	0.268	-0.003
-480.362	107.317	-0.150	-0.178
-479.347	-200.000	-0.024	0.217
-478.332	-42.559	-0.055	-0.028
-477.318	-12.987	0.318	-0.206
-476.303	-127.894	-0.036	-0.005
-475.289	103.335	0.182	0.212
-474.274	666.141	0.061	0.157
-473.259	647.075	0.081	0.206
-472.245	130.164	-0.037	0.047
-471.230	-200.000	-0.003	0.245
-470.216	-89.076	0.203	-0.060
-469.201	-46.805	0.246	-0.120
-468.186	27.593	0.076	0.063
-467.172	-78.996	-0.121	-0.041
-466.157	349.110	0.090	0.176
-465.143	-28.143	0.169	0.097
-464.128	-103.395	-0.133	-0.031
-463.113	800.000	-0.037	-0.133
-462.099	317.241	-0.085	-0.160
-461.084	-95.157	-0.098	0.026
-460.070	88.260	-0.018	-0.019
-459.055	-179.362	-0.175	0.004
-458.040	211.717	0.087	0.136
-457.026	482.604	0.124	-0.280
-456.011	302.171	0.087	-0.161
-454.997	-3.700	-0.048	0.033
-453.982	331.132	0.054	0.103
-452.968	-72.370	-0.210	0.077
-451.953	-200.000	-0.006	-0.075
-450.938	-49.595	0.123	0.058
-449.924	-200.000	0.026	0.183
-448.909	-200.000	0.029	-0.332
-447.895	193.656	-0.047	0.070
-446.880	-124.374	0.267	0.041
-445.865	276.671	0.147	-0.259
-444.851	182.871	-0.078	-0.114
-443.836	53.672	-0.138	0.131
-442.822	35.408	0.296	-0.258
-441.807	-110.945	-0.226	-0.046
-440.792	85.215	-0.052	0.056
-439.778	-156.379	0.202	0.013
-438.763	-158.755	-0.168	-0.010
-437.749	-200.000	-0.016	-0.245
-436.734	7.639	0.165	-0.122
-435.719	269.254	-0.069	-0.121
-434.705	-48.288	0.179	-0.086
-433.690	-20.822	0.104	-0.063
-432.676	85.430	-0.114	0.124
-431.661	86.331	-0.168	-0.184
-430.646	-104.658	0.132	-0.030
-429.632	-36.431	0.180	-0.096
-428.617	623.142	0.125	-0.313
-427.603	-53.650	-0.077	-0.035
-426.588	-52.945	-0.330	0.151
-425.573	800.000	0.012	-0.047
-424.559	-93.930	0.132	0.036
-423.544	5.033	-0.208	-0.152
-422.530	63.832	0.120	-0.119
-421.515	-96.860	0.281	0.073
-420.500	-103.210	-0.235	-0.055
-419.486	365.205	-0.155	0.311
-418.471	47.168	-0.107	0.098
-417.457	-48.863	-0.261	-0.124
-416.442	309.031	-0.188	-0.349
-415.428	-200.000	-0.007	-0.095
-414.413	10.635	0.375	-0.284
-413.398	479.188	0.156	0.351
-412.384	-89.738	0.187	-0.054
-411.369	-16.903	-0.155	-0.097
-410.355	-77.355	-0.304	0.105
-409.340	182.177	-0.106	-0.155
-408.325	525.145	-0.104	-0.243
-407.311	108.471	0.122	0.145
-406.296	-200.000	-0.043	-0.223
-405.282	-200.000	0.020	0.125
-404.267	-17.184	-0.236	-0.147
-403.252	-64.114	0.342	-0.138
-402.238	800.000	0.078	-0.294
-401.223	-180.147	0.438	-0.009
-400.209	-85.059	0.080	0.025
-399.194	800.000	0.094	-0.338
-398.179	-200.000	0.006	-0.309
-397.165	-200.000	0.011	-0.089
-396.150	509.928	-0.033	-0.077
-395.136	-104.654	0.209	0.048
-394.121	191.034	0.055	0.082
-393.106	-200.000	-0.086	-0.394
-392.092	152.452	-0.147	0.198
-391.077	-55.809	-0.130	-0.058
-390.063	733.448	-0.074	-0.196
-389.048	-36.281	-0.131	-0.070
-388.033	-6.877	-0.222	0.149
-387.019	800.000	-0.042	0.125
-386.004	-31.371	-0.272	-0.152
-384.990	-117.617	0.206	0.037
-383.975	452.309	0.061	0.133
-382.960	182.981	0.126	0.184
-381.946	-54.184	-0.406	0.183
-380.931	-144.966	0.153	0.014
-379.917	-200.000	-0.034	0.166
-378.902	178.837	0.062	0.089
-377.888	-130.005	-0.252	0.034
-376.873	129.110	-0.095	-0.120
-375.858	-112.603	-0.266	-0.053
-374.844	-53.559	-0.215	0.097
-373.829	-54.038	-0.101	0.046
-372.815	-200.000	-0.015	0.465
-371.800	191.682	-0.148	0.221
-370.785	800.000	-0.020	0.079
-369.771	-20.318	0.258	-0.157
-368.756	-200.000	0.004	0.051
-367.742	354.745	0.151	0.298
-366.727	15.684	0.143	-0.112
-365.712	192.004	-0.082	-0.122
-364.698	330.173	0.160	-0.306
-363.683	-200.000	0.035	-0.182
-362.669	-131.052	-0.242	-0.032
-361.654	-40.701	-0.225	-0.115
-360.639	75.071	-0.200	-0.208
-359.625	-200.000	0.005	-0.180
-358.610	-81.058	-0.074	0.024
-357.596	48.471	-0.248	0.230
-356.581	-57.796	-0.046	0.020
-355.566	-94.413	0.154	-0.042
-354.552	800.000	-0.034	0.103
-353.537	-59.126	-0.143	-0.061
-352.523	-0.294	-0.360	0.253
-351.508	-36.708	0.290	-0.154
-350.493	-73.072	0.192	0.070
-349.479	-200.000	-0.011	-0.070
-348.464	281.271	0.182	-0.322
-347.450	70.196	0.200	0.204
-346.435	-200.000	-0.073	-0.462
-345.420	-66.823	0.161	-0.063
-344.406	38.238	0.081	-0.071
-343.391	800.000	0.102	0.296
-342.377	-73.069	-0.218	0.079
-341.362	-72.918	0.439	-0.160
-340.348	121.960	0.254	0.313
-339.333	-200.000	0.016	-0.215
-338.318	800.000	-0.097	-0.279
-337.304	-45.844	0.139	0.068
-336.289	165.739	0.042	0.059
-335.275	148.949	0.131	-0.176
-334.260	27.024	0.348	-0.289
-333.245	-159.476	0.197	-0.011
-332.231	-47.875	-0.126	0.060
-331.216	119.543	-0.077	0.095
-330.202	-88.853	0.201	-0.059
-329.187	-200.000	-0.006	-0.115
-328.172	37.454	-0.136	-0.119
-327.158	376.725	-0.169	0.342
-326.143	-200.000	0.010	0.056
-325.129	63.626	0.111	0.110
-324.114	800.000	0.015	0.050
-323.099	-200.000	-0.059	0.377
-322.085	107.805	-0.063	0.075
-321.070	-200.000	-0.015	-0.194
-320.056	-114.425	0.311	-0.059
-319.041	-150.762	-0.117	-0.009
-318.026	-82.517	-0.330	-0.106
-317.012	11.550	-0.140	-0.106
-315.997	-112.414	0.347	0.068
-314.983	-113.766	0.159	0.031
-313.968	-200.000	0.014	0.291
-312.953	-200.000	0.045	0.250
-311.939	-60.447	0.297	0.125
-310.924	-200.000	0.077	-0.337
-309.910	342.510	0.048	-0.093
-308.895	75.865	0.221	0.231
-307.880	75.536	-0.058	0.060
-306.866	-122.311	-0.114	0.018
-305.851	218.279	0.152	-0.240
-304.837	105.963	0.122	0.143
-303.822	0.593	-0.106	0.075
-302.807	-200.000	0.028	0.361
-301.793	-4.260	-0.125	0.086
-300.778	33.795	-0.260	-0.224
-299.764	312.478	-0.135	0.251
-298.749	-97.114	-0.152	0.039
-297.735	-115.170	-0.460	0.086
-296.720	110.735	-0.086	0.102
-295.705	98.872	0.226	-0.258
-294.691	3.531	0.080	0.057
-293.676	375.820	0.150	0.302
-292.662	32.876	0.069	0.059
-291.647	90.927	-0.187	-0.207
-290.632	-200.000	0.033	0.216
-289.618	-112.346	0.165	0.033
-288.603	-98.470	-0.058	-0.015
-287.589	-125.630	0.256	-0.038
-286.574	67.028	0.097	-0.098
-285.559	382.199	0.107	-0.218
-284.545	242.268	0.193	-0.319
-283.530	800.000	-0.048	0.180
-282.516	19.104	0.289	-0.229
-281.501	8.902	0.175	-0.131
-280.486	-57.853	0.081	-0.035
-279.472	517.628	-0.146	0.337
-278.457	800.000	0.033	-0.109
-277.443	557.407	0.170	0.405
-276.428	80.606	-0.261	0.277
-275.413	-104.607	0.422	-0.096
-274.399	-60.409	0.289	0.121
-273.384	89.064	-0.118	-0.129
-272.370	-163.459	-0.041	0.002
-271.355	-55.251	-0.291	0.129
-270.340	800.000	-0.115	-0.337
-269.326	800.000	-0.071	-0.207
-268.311	-20.047	0.196	0.119
-267.297	671.340	-0.071	0.181
-266.282	-200.000	-0.015	0.244
-265.267	21.539	0.180	0.145
-264.253	1.593	-0.106	0.076
-263.238	-200.000	-0.042	-0.201
-262.224	117.345	0.049	-0.059
-261.209	113.826	0.153	-0.183
-260.195	-157.763	-0.215	0.013
-259.180	-178.986	0.075	0.002
-258.165	-33.295	-0.078	0.042
-257.151	800.000	0.021	0.091
-256.136	373.251	0.093	0.186
-255.122	800.000	0.080	0.249
-254.107	50.232	0.211	0.196
-253.092	-42.636	-0.287	0.144
-252.078	7.736	0.052	-0.038
-251.063	328.954	0.137	-0.260
-250.049	24.705	-0.060	-0.049
-249.034	537.446	-0.081	0.190
-248.019	-200.000	-0.006	0.105
-247.005	800.000	-0.026	-0.071
-245.990	183.026	-0.095	0.138
-244.976	-200.000	0.044	-0.203
-243.961	-27.210	0.275	-0.158
-242.946	588.305	-0.033	-0.079
-241.932	-80.229	0.511	0.169
-240.917	-79.592	-0.289	0.096
-239.903	-22.111	-0.270	-0.161
-238.888	180.347	0.139	0.201
-237.873	213.241	0.032	-0.050
-236.859	183.748	0.198	0.288
-235.844	-135.526	-0.053	0.006
-234.830	59.958	-0.178	0.173
-233.815	206.230	0.019	-0.029
-232.800	-55.451	0.378	0.167
-231.786	288.925	-0.129	-0.230
-230.771	-11.251	0.059	-0.038
-229.757	-150.539	-0.202	0.015
-228.742	36.715	0.148	-0.129
-227.727	-91.191	-0.366	0.103
-226.713	800.000	-0.091	-0.283
-225.698	-69.407	-0.038	0.014
-224.684	-57.378	-0.099	-0.043
-223.669	-69.206	0.203	-0.077
-222.655	-66.086	0.151	0.059
-221.640	177.056	0.069	0.099
-220.625	-125.312	0.551	0.083
-219.611	105.706	-0.110	0.129
-218.596	-133.376	-0.503	-0.062
-217.582	-66.449	0.458	0.179
-216.567	174.217	0.066	0.094
-215.552	115.143	0.182	-0.219
-214.538	-200.000	-0.004	-0.022
-213.523	800.000	-0.084	-0.297
-212.509	800.000	-0.062	0.185
-211.494	-137.808	-0.140	-0.015
-210.479	219.605	0.161	0.254
-209.465	-200.000	-0.034	0.198
-208.450	11.098	0.104	-0.078
-207.436	-97.482	-0.132	0.034
-206.421	-29.936	-0.089	-0.050
-205.406	-94.121	0.062	0.017
-204.392	-171.436	0.220	-0.007
-203.377	-111.571	0.202	-0.040
-202.363	122.480	-0.226	0.278
-201.348	172.092	-0.125	0.177
-200.333	-94.448	-0.343	-0.092
-199.319	52.528	-0.143	-0.135
-198.304	-96.466	-0.205	0.053
-197.290	-106.891	0.170	-0.037
-196.275	800.000	-0.035	0.137
-195.260	-97.165	-0.349	0.090
-194.246	-40.788	-0.309	-0.158
-193.231	-73.363	-0.256	0.092
-192.217	-135.958	0.404	0.047
-191.202	-98.031	0.179	-0.045
-190.187	77.423	0.118	0.123
-189.173	-70.477	-0.082	0.031
-188.158	800.000	0.088	-0.309
-187.144	-30.508	0.140	0.078
-186.129	26.624	0.212	0.174
-185.114	-200.000	-0.043	0.320
-184.100	-200.000	-0.028	-0.255
-183.085	800.000	-0.097	0.331
-182.071	-80.460	-0.068	-0.022
-181.056	757.055	-0.077	-0.205
-180.042	800.000	-0.058	0.204
-179.027	-200.000	-0.038	-0.250
-178.012	-26.726	-0.073	0.042
-176.998	-30.298	-0.498	0.278
-175.983	-159.123	0.129	0.007
-174.969	-200.000	-0.034	0.464
-173.954	800.000	0.162	0.523
-172.939	26.034	-0.160	-0.131
-171.925	-200.000	0.088	-0.440
-170.910	-49.139	0.100	0.047
-169.896	315.411	-0.198	-0.367
-168.881	270.193	0.029	-0.050
-167.866	-23.260	-0.096	0.056
-166.852	800.000	0.015	0.062
-165.837	217.155	-0.077	-0.120
-164.823	-24.322	0.125	0.073
-163.808	-97.096	-0.268	-0.069
-162.793	-200.000	0.034	0.207
-161.779	140.927	0.185	0.241
-160.764	-33.758	0.206	0.111
-159.750	-11.551	0.298	-0.193
-158.735	-88.092	0.352	-0.104
-157.720	-187.059	0.041	-0.001
-156.706	17.375	0.249	0.194
-155.691	-143.128	0.206	0.019
-154.677	-78.162	0.328	0.111
-153.662	790.821	-0.176	0.474
-152.647	-133.024	-0.019	-0.002
-151.633	-122.725	-0.113	0.018
-150.618	-200.000	0.022	-0.388
-149.604	800.000	0.039	0.121
-148.589	-32.712	0.140	0.077
-147.574	-158.578	0.296	-0.017
-146.560	-178.135	0.142	-0.003
-145.545	-55.565	-0.083	-0.036
-144.531	-17.945	0.115	-0.071
-143.516	146.517	-0.193	0.255
-142.502	-139.692	-0.104	-0.011
-141.487	115.624	-0.132	0.158
-140.472	800.000	0.117	-0.401
-139.458	-200.000	0.010	-0.127
-138.443	-200.000	0.005	-0.169
-137.429	255.491	-0.221	-0.372
-136.414	-26.605	0.169	0.097
-135.399	-200.000	-0.005	0.373
-134.385	-200.000	-0.022	0.099
-133.370	-102.508	0.123	-0.029
-132.356	-200.000	-0.046	0.257
-131.341	-200.000	-0.006	0.131
-130.326	-90.022	-0.379	0.108
-129.312	-200.000	0.057	0.282
-128.297	-153.328	-0.128	0.009
-127.283	103.398	0.068	-0.078
-126.268	-114.549	-0.104	0.020
-125.253	-42.776	0.279	0.139
-124.239	184.529	-0.084	-0.122
-123.224	-42.563	0.612	0.306
-122.210	423.252	0.102	0.216
-121.195	342.058	-0.090	0.173
-120.180	430.213	0.162	-0.344
-119.166	-200.000	-0.014	-0.207
-118.151	213.036	0.019	0.030
-117.137	566.745	-0.018	0.042
-116.122	-200.000	-0.007	0.210
-115.107	-81.874	0.218	-0.070
-114.093	-200.000	0.022	0.266
-113.078	-29.195	-0.222	-0.125
-112.064	-75.828	-0.055	0.019
-111.049	-200.000	0.013	0.098
-110.034	6.882	-0.295	-0.216
-109.020	-125.834	0.097	-0.014
-108.005	-83.268	-0.118	-0.037
-106.991	-15.438	0.382	-0.239
-105.976	-159.095	-0.241	0.013
-104.962	575.778	0.052	0.126
-103.947	-147.057	-0.328	-0.027
-102.932	800.000	-0.074	0.243
-101.918	800.000	0.033	0.098
-100.903	71.616	-0.081	0.082
-99.889	117.166	0.181	0.218
-98.874	-180.528	-0.362	0.007
-97.859	-147.644	0.285	-0.023
-96.845	-71.241	0.058	-0.021
-95.830	-200.000	0.004	-0.105
-94.816	702.344	-0.174	0.450
-93.801	530.827	0.039	-0.091
-92.786	-141.918	0.142	0.014
-91.772	-200.000	-0.008	0.146
-90.757	-53.146	0.337	-0.152
-89.743	800.000	-0.089	-0.337
-88.728	94.637	0.140	-0.156
-87.713	281.367	0.097	-0.170
-86.699	52.335	-0.179	0.167
-85.684	-151.682	-0.276	-0.020
-84.670	14.961	0.251	0.192
-83.655	800.000	0.106	-0.296
-82.640	571.779	0.076	0.180
-81.626	-134.206	-0.346	0.042
-80.611	265.057	0.215	-0.367
-79.597	-25.277	0.352	-0.204
-78.582	-200.000	-0.024	0.200
-77.567	-124.601	-0.112	0.017
-76.553	-7.751	-0.158	-0.104
-75.538	800.000	0.071	-0.220
-74.524	397.658	0.120	0.246
-73.509	800.000	-0.071	0.271
-72.494	484.028	0.176	0.392
-71.480	-19.943	0.273	-0.165
-70.465	200.665	0.101	-0.152
-69.451	-93.287	0.401	0.109
-68.436	-52.989	0.338	-0.152
-67.422	-57.158	0.100	0.043
-66.407	-91.784	0.248	-0.069
-65.392	-200.000	0.004	0.042
-64.378	-67.630	0.101	-0.039
-63.363	-75.348	0.311	-0.109
-62.349	-200.000	-0.012	0.094
-61.334	132.850	-1.026	-1.296
-60.319	800.000	0.255	0.774
-59.305	800.000	-0.431	-1.395
-58.290	254.680	0.461	0.772
-57.276	231.938	0.757	1.215
-56.261	-200.000	114.263	658.181
-55.246	541.927	1523.625	3552.856
-54.232	178.773	2688.712	3843.816
-53.217	108.291	2170.655	2533.245
-52.203	37.933	1698.127	1476.582
-51.188	30.464	1516.814	1268.124
-50.173	28.193	1492.914	1232.812
-49.159	52.283	1551.277	1447.014
-48.144	50.699	1566.161	1449.986
-47.130	30.675	1522.049	1273.739
-46.115	27.619	1507.579	1240.818
-45.100	27.481	1503.708	1236.648
-44.086	27.457	1501.842	1234.904
-43.071	27.367	1500.320	1232.989
-42.057	27.409	1498.393	1231.642
-41.042	27.429	1496.911	1230.510
-40.027	27.461	1495.362	1229.408
-39.013	27.309	1494.308	1227.463
-37.998	27.335	1492.810	1226.360
-36.984	27.461	1491.282	1225.904
-35.969	27.397	1490.220	1224.549
-34.954	27.406	1488.761	1223.366
-33.940	27.371	1487.457	1222.013
-32.925	27.418	1485.986	1221.071
-31.911	27.534	1483.994	1220.160
-30.896	27.571	1483.144	1219.659
-29.881	27.542	1482.100	1218.561
-28.867	27.485	1480.902	1217.142
-27.852	27.410	1479.992	1215.846
-26.838	27.527	1478.429	1215.295
-25.823	27.382	1477.307	1213.362
-24.809	27.486	1475.247	1212.308
-23.794	27.504	1473.931	1211.304
-22.779	27.454	1472.967	1210.130
-21.765	27.535	1471.682	1209.562
-20.750	27.425	1470.980	1208.209
-19.736	27.465	1469.560	1207.256
-18.721	27.392	1469.165	1206.400
-17.706	27.465	1467.672	1205.612
-16.692	27.449	1466.301	1204.334
-15.677	27.481	1465.466	1203.812
-14.663	27.489	1464.387	1202.931
-13.648	27.412	1463.480	1201.626
-12.633	27.429	1462.840	1201.165
-11.619	27.379	1462.169	1200.237
-10.604	27.388	1461.610	1199.789
-9.590	27.389	1460.335	1198.703
-8.575	27.463	1459.402	1198.380
-7.560	27.438	1458.371	1197.319
-6.546	27.489	1457.618	1196.989
-5.531	27.419	1456.594	1195.641
-4.517	27.434	1455.577	1194.857
-3.502	27.348	1454.611	1193.453
-2.487	27.435	1453.514	1193.077
-1.473	27.346	1452.982	1192.007
-0.458	27.500	1451.171	1191.482
0.556	29.314	1440.946	1180.005
1.571	26.248	1416.767	1140.772
2.586	22.767	1360.360	1074.113
3.600	21.229	1279.722	1001.541
4.615	19.878	1233.899	958.117
5.629	17.356	1177.320	900.764
6.644	10.380	1094.610	802.945
7.659	4.910	1057.066	749.095
8.673	4.333	1051.754	742.504
9.688	4.077	1047.972	738.550
10.702	3.888	1046.486	736.535
11.717	3.862	1044.587	735.012
12.731	6.443	1046.605	748.643
13.746	13.996	1057.290	792.360
14.761	20.777	1066.129	831.409
15.775	22.720	1067.946	842.032
16.790	22.356	1066.145	838.807
17.804	21.442	1064.716	833.256
18.819	20.640	1062.860	827.909
19.834	20.334	1061.667	825.455
20.848	20.217	1061.230	824.484
21.863	20.281	1060.859	824.431
22.877	20.153	1059.804	822.930
23.892	20.149	1058.402	821.750
24.907	19.911	1057.954	820.199
25.921	19.986	1057.343	820.007
26.936	19.863	1056.233	818.493
27.950	19.813	1055.340	817.490
28.965	19.756	1054.478	816.482
29.980	19.929	1053.183	816.224
30.994	20.108	1052.316	816.322
32.009	20.210	1051.702	816.254
33.023	20.271	1050.863	815.820
34.038	20.241	1050.512	815.332
35.053	20.199	1049.145	814.003
36.067	20.040	1047.656	812.030
37.082	19.939	1046.862	810.869
38.096	19.870	1046.597	810.270
39.111	20.083	1046.092	810.802
40.126	20.209	1045.243	810.662
41.140	20.078	1043.626	808.726
42.155	19.663	1042.602	805.924
43.169	19.534	1041.497	804.400
44.184	19.460	1039.939	802.778
45.199	19.423	1039.343	802.078
46.213	19.375	1038.070	800.800
47.228	19.606	1037.369	801.262
48.242	19.824	1036.676	801.665
49.257	20.001	1036.318	802.136
50.271	19.827	1035.880	800.923
51.286	20.022	1034.118	800.389
52.301	20.090	1034.100	800.619
53.315	20.093	1033.162	799.836
54.330	19.988	1032.215	798.547
55.344	19.863	1030.996	796.957
56.359	19.785	1029.748	795.564
57.374	19.569	1029.379	794.215
58.388	19.685	1028.437	793.953
59.403	19.449	1028.139	792.566
60.417	19.427	1026.518	791.145
61.432	19.443	1026.598	791.211
62.447	19.347	1025.868	790.138
63.461	19.312	1024.820	789.102
64.476	19.196	1023.910	787.799
65.490	19.125	1022.756	786.518
66.505	19.194	1021.967	786.159
67.520	19.201	1021.539	785.792
68.534	19.326	1020.722	785.662
69.549	19.212	1019.676	784.266
70.563	19.232	1018.828	783.640
71.578	19.177	1018.182	782.821
72.593	18.977	1017.467	781.292
73.607	18.714	1016.258	779.104
74.622	18.842	1015.097	778.725
75.636	18.914	1014.458	778.491
76.651	19.078	1013.529	778.454
77.666	19.015	1013.067	777.743
78.680	19.109	1012.177	777.417
79.695	19.025	1012.118	776.924
80.709	19.043	1011.361	776.351
81.724	19.265	1011.119	777.100
82.739	19.465	1009.665	776.814
83.753	19.450	1009.463	776.521
84.768	19.809	1008.771	777.535
85.782	20.058	1008.802	778.611
86.797	20.396	1007.805	779.287
87.812	20.435	1007.377	779.063
88.826	20.154	1006.183	776.814
89.841	20.140	1005.560	776.199
90.855	20.257	1004.572	775.891
91.870	20.252	1003.962	775.331
92.884	20.331	1003.162	774.996
93.899	20.329	1002.522	774.423
94.914	20.250	1001.429	773.161
95.928	20.183	1001.190	772.608
96.943	20.337	999.846	772.186
97.957	20.291	998.695	771.026
98.972	20.108	998.607	770.075
99.987	20.161	997.572	769.446
101.001	20.211	997.139	769.263
102.016	20.097	996.457	768.168
103.030	20.025	995.319	766.903
104.045	20.101	994.315	766.397
105.060	20.271	993.150	766.182
106.074	20.033	992.373	764.464
107.089	19.730	991.255	762.199
108.103	19.568	989.952	760.415
109.118	19.455	988.691	758.882
110.133	19.308	988.130	757.738
111.147	19.263	986.635	756.329
112.162	19.073	986.466	755.301
113.176	19.331	985.158	755.361
114.191	19.386	984.460	754.999
115.206	19.463	984.005	754.921
116.220	19.457	983.371	754.344
117.235	19.559	982.045	753.704
118.249	19.382	981.430	752.392
119.264	19.343	980.654	751.563
120.279	19.285	980.315	750.980
121.293	19.058	979.086	748.987
122.308	19.036	978.088	748.060
123.322	19.015	977.365	747.349
124.337	18.912	976.065	745.843
125.352	18.849	975.212	744.851
126.366	18.882	973.873	743.906
127.381	18.991	972.664	743.386
128.395	18.875	971.890	742.230
129.410	18.995	971.075	742.061
130.424	19.157	970.321	742.115
131.439	19.082	969.913	741.416
132.454	19.258	969.471	741.771
133.468	19.428	968.489	741.686
134.483	19.398	968.024	741.132
135.497	19.359	967.559	740.544
136.512	19.369	966.739	739.893
137.527	19.487	965.705	739.545
138.541	19.497	964.883	738.892
139.556	19.414	964.396	738.099
140.570	19.564	963.478	737.970
141.585	19.666	963.032	738.001
142.600	19.822	962.789	738.415
143.614	20.096	961.936	738.861
144.629	20.186	961.522	738.861
145.643	20.286	960.861	738.715
146.658	20.219	959.897	737.623
147.673	19.954	958.511	735.366
148.687	19.770	957.333	733.618
149.702	19.580	956.704	732.265
150.716	19.444	955.121	730.413
151.731	19.569	954.309	730.256
152.746	19.516	953.768	729.554
153.760	19.572	952.779	728.971
154.775	19.603	952.033	728.466
155.789	19.898	950.996	728.852
156.804	19.818	950.651	728.185
157.819	19.725	950.267	727.436
158.833	19.862	949.643	727.468
159.848	19.982	948.847	727.298
160.862	20.292	948.427	728.214
161.877	20.191	947.856	727.285
162.892	19.880	946.403	724.805
163.906	19.573	945.103	722.460
164.921	19.519	944.308	721.565
165.935	19.504	943.186	720.579
166.950	19.521	942.503	720.064
167.964	19.747	941.696	720.326
168.979	19.680	940.940	719.404
169.994	19.564	939.878	718.049
171.008	19.532	939.013	717.192
172.023	19.620	938.042	716.750
173.037	19.808	937.817	717.296
174.052	20.175	937.010	718.137
175.067	19.983	936.400	716.809
176.081	19.514	935.677	714.253
177.096	19.428	934.028	712.574
178.110	19.361	933.089	711.517
179.125	19.508	932.919	711.932
180.140	19.490	932.187	711.237
181.154	19.607	931.179	710.889
182.169	19.873	930.992	711.775
183.183	19.830	930.621	711.251
184.198	19.968	929.896	711.204
185.213	20.106	929.150	711.133
186.227	19.832	928.931	709.779
187.242	20.030	928.259	710.017
188.256	20.235	927.293	710.055
189.271	20.364	926.919	710.232
190.286	20.403	926.093	709.696
191.300	20.153	925.085	707.839
192.315	19.551	923.902	704.415
193.329	19.216	923.023	702.319
194.344	19.241	922.421	701.901
195.359	19.415	921.921	702.164
196.373	19.603	921.438	702.500
197.388	19.747	920.912	702.623
198.402	19.985	920.948	703.554
199.417	20.198	920.448	703.975
200.432	20.209	920.514	704.008
201.446	20.504	919.901	704.671
202.461	20.565	919.980	704.919
203.475	20.605	919.324	704.517
204.490	20.712	918.064	703.922
205.504	20.297	917.582	701.810
206.519	20.141	916.200	700.062
207.534	20.071	915.380	699.089
208.548	20.003	914.744	698.269
209.563	20.082	913.893	697.877
210.577	20.214	913.159	697.787
211.592	20.117	912.778	697.044
212.607	20.419	912.522	697.999
213.621	20.564	911.728	697.913
214.636	20.382	911.261	696.763
215.650	20.323	910.543	695.916
216.665	20.459	909.594	695.672
217.680	20.402	909.613	695.400
218.694	20.664	909.256	696.110
219.709	20.657	908.709	695.604
220.723	20.620	908.098	694.926
221.738	20.530	907.172	693.797
222.753	20.503	906.171	692.862
223.767	20.333	905.891	691.907
224.782	20.550	905.019	692.044
225.796	20.679	904.691	692.248
226.811	20.754	904.047	691.990
227.826	20.565	903.521	690.776
228.840	20.299	902.567	688.931
229.855	20.335	901.751	688.389
230.869	20.383	900.524	687.581
231.884	20.337	900.300	687.169
232.899	20.233	899.185	685.844
233.913	20.255	898.850	685.615
234.928	20.174	897.941	684.542
235.942	20.056	897.138	683.404
236.957	19.950	896.341	682.319
237.972	19.979	895.577	681.790
238.986	20.153	895.185	682.116
240.001	20.054	894.240	680.946
241.015	20.151	893.779	680.917
242.030	20.099	893.546	680.476
243.045	20.331	892.873	680.814
244.059	20.317	892.298	680.259
245.074	20.321	891.454	679.572
246.088	20.357	891.166	679.433
247.103	20.461	891.020	679.666
248.117	20.452	890.540	679.204
249.132	20.896	889.790	680.306
250.147	21.065	889.594	680.757
251.161	21.429	889.460	682.015
252.176	21.456	888.972	681.685
253.190	21.420	888.018	680.753
254.205	21.431	888.149	680.835
255.220	21.626	887.502	681.039
256.234	21.545	886.515	679.904
257.249	21.471	885.574	678.835
258.263	21.499	885.445	678.786
259.278	21.467	884.587	677.946
260.293	21.469	884.100	677.517
261.307	21.513	883.472	677.148
262.322	21.596	882.970	677.024
263.336	21.639	882.199	676.540
264.351	21.620	881.718	676.037
265.366	21.710	881.086	675.841
266.380	21.584	880.615	674.933
267.395	21.636	879.911	674.534
268.409	21.479	879.388	673.470
269.424	21.461	878.178	672.415
270.439	21.305	877.572	671.289
271.453	21.275	877.183	670.818
272.468	21.213	875.811	669.472
273.482	21.107	875.658	668.890
274.497	21.067	874.949	668.135
275.512	21.109	874.295	667.738
276.526	21.064	873.484	666.888
277.541	21.054	873.169	666.551
278.555	21.285	872.477	666.847
279.570	21.408	871.987	666.881
280.585	21.658	871.588	667.469
281.599	21.629	871.216	667.016
282.614	21.533	870.286	665.878
283.628	21.405	868.985	664.339
284.643	21.329	868.571	663.673
285.657	21.262	868.132	663.026
286.672	21.343	867.497	662.789
287.687	21.370	866.873	662.355
288.701	21.456	866.678	662.474
289.716	21.346	866.431	661.810
290.730	21.448	865.370	661.326
291.745	21.445	864.970	660.952
292.760	21.334	864.452	660.079
293.774	21.398	863.935	659.866
294.789	21.678	863.908	660.845
295.803	21.826	862.775	660.475
296.818	21.477	862.206	658.668
297.833	21.509	860.788	657.646
298.847	21.359	860.689	656.951
299.862	21.369	859.843	656.282
300.876	21.293	859.454	655.642
301.891	21.564	858.990	656.249
302.906	21.800	858.629	656.799
303.920	21.939	857.902	656.705
304.935	22.024	857.649	656.771
305.949	22.295	856.843	657.108
306.964	22.093	856.402	655.958
307.979	21.957	855.437	654.651
308.993	21.669	855.313	653.424
310.008	21.940	854.599	653.833
311.022	21.977	854.318	653.695
312.037	22.007	853.549	653.162
313.052	21.723	852.837	651.505
314.066	21.555	852.035	650.208
315.081	21.490	850.925	649.063
316.095	21.462	850.528	648.600
317.110	21.351	850.022	647.746
318.125	21.462	849.579	647.759
319.139	21.447	849.129	647.305
320.154	21.316	848.603	646.362
321.168	21.329	847.972	645.873
322.183	21.425	847.495	645.805
323.197	21.505	847.137	645.772
324.212	21.461	846.445	645.025
325.227	21.566	845.671	644.766
326.241	21.531	845.421	644.389
327.256	21.301	845.128	643.260
328.270	21.420	844.080	642.843
329.285	21.416	843.684	642.471
330.300	21.423	843.027	641.939
331.314	21.391	842.279	641.196
332.329	21.453	841.686	640.916
333.343	21.656	841.250	641.269
334.358	21.874	841.075	641.876
335.373	21.769	840.643	641.107
336.387	21.866	839.996	640.912
337.402	21.834	839.943	640.697
338.416	22.067	838.929	640.716
339.431	22.156	838.593	640.730
340.446	22.210	838.225	640.588
341.460	22.360	837.897	640.825
342.475	22.470	837.240	640.665
343.489	22.515	837.006	640.594
344.504	22.657	836.278	640.495
345.519	22.662	835.698	640.014
346.533	22.804	835.242	640.125
347.548	22.668	834.868	639.287
348.562	22.507	834.200	638.136
349.577	22.090	833.334	635.908
350.592	21.973	832.289	634.631
351.606	21.771	831.917	633.563
352.621	21.791	831.599	633.334
353.635	21.891	831.101	633.259
354.650	21.880	830.657	632.827
355.665	22.042	830.370	633.135
356.679	21.966	829.818	632.385
357.694	22.149	829.366	632.642
358.708	22.271	828.626	632.461
359.723	22.111	828.363	631.631
360.738	22.088	827.783	631.049
361.752	22.139	827.501	630.963
362.767	22.338	826.753	631.049
363.781	22.327	826.593	630.831
364.796	22.640	826.138	631.549
365.810	22.631	826.259	631.554
366.825	22.905	825.926	632.225
367.840	22.989	825.561	632.189
368.854	22.978	824.794	631.506
369.869	22.942	823.828	630.583
370.883	22.623	823.685	629.281
371.898	22.727	822.863	628.966
372.913	22.729	822.430	628.587
373.927	22.958	821.830	628.888
374.942	22.690	821.266	627.446
375.956	22.625	820.569	626.629
376.971	22.850	820.054	626.981
377.986	22.952	819.761	627.063
379.000	23.070	818.837	626.717
380.015	23.202	818.568	626.923
381.029	23.257	818.178	626.766
382.044	23.014	817.552	625.370
383.059	23.046	816.499	624.622
384.073	23.038	816.170	624.286
385.088	23.001	815.517	623.601
386.102	22.688	814.987	622.038
387.117	22.491	814.037	620.562
388.132	22.471	813.923	620.350
389.146	22.452	813.364	619.803
390.161	22.591	812.832	619.831
391.175	22.685	812.865	620.132
392.190	23.068	812.328	621.013
393.205	22.870	811.877	619.918
394.219	22.570	811.256	618.339
395.234	22.497	811.081	617.892
396.248	22.340	810.034	616.491
397.263	22.283	809.217	615.615
398.278	22.269	809.231	615.524
399.292	22.280	808.498	614.949
400.307	22.119	807.847	613.837
401.321	22.194	808.089	614.229
402.336	22.209	807.597	613.853
403.350	22.415	806.894	613.982
404.365	22.554	806.614	614.200
405.380	22.635	806.411	614.272
406.394	22.928	806.190	615.071
407.409	23.088	805.678	615.183
408.423	23.118	805.427	615.040
409.438	23.222	804.904	614.947
410.453	23.332	804.694	615.115
411.467	23.383	804.167	614.833
412.482	23.509	803.714	614.872
413.496	23.422	803.411	614.283
414.511	23.574	803.062	614.489
415.526	23.475	802.527	613.682
416.540	23.357	802.178	612.951
417.555	23.218	801.630	612.000
418.569	23.242	801.228	611.722
419.584	23.379	800.334	611.456
420.599	23.354	799.952	611.025
421.613	164.694	1371.399	1797.814
422.628	143.097	1454.656	1797.898
