DTS Sentinel unit serial number:	SN413079Multiplexer serial number:	ORYXHardware model number:	OX4-SRSoftware version number:	ORYX F/W v4.00 Oryx Data Collector v3.7.2.0data status	okinstallation	princeton_trtdifferential loss correction	single-endedforward channel	channel 3reverse channel	N/Adate	2019/09/13time	04:36:34forward acquisition time	60.00reverse acquisition time	0.00gamma	496.2192k internal	0.2337k external	0.2337temperature offset calibration	1.0135default loss term (dB/km)	0.3790temperature slope calibration	1.0000multiplexer offset coefficient	1.0000multiplexer slope coefficient	1.0000fibre end	0.00T internal ref (°C)	26.67T ext. ref 1 (°C)	4.05T ext. ref 2 (°C)	21.19length (m)	temperature (°C)	Stokes	anti-Stokes-747.200	800.000	0.098	0.358
-746.185	-92.546	-0.254	-0.072
-745.171	-200.000	-0.019	-0.156
-744.156	215.983	0.157	0.251
-743.142	-200.000	-0.002	-0.043
-742.127	-147.875	-0.351	0.029
-741.112	-87.304	0.178	-0.054
-740.098	800.000	0.020	-0.064
-739.083	800.000	0.101	0.340
-738.069	-40.990	-0.100	-0.052
-737.054	-62.180	-0.157	0.066
-736.039	-82.955	-0.415	0.134
-735.025	800.000	0.126	0.373
-734.010	356.688	0.138	0.277
-732.996	61.855	-0.206	0.206
-731.981	800.000	-0.063	0.235
-730.966	800.000	-0.101	0.286
-729.952	6.492	-0.237	-0.177
-728.937	82.575	-0.149	-0.162
-727.923	21.796	-0.159	-0.130
-726.908	-56.642	-0.425	0.189
-725.894	99.401	-0.059	-0.068
-724.879	24.393	-0.148	-0.123
-723.864	800.000	0.103	0.414
-722.850	-68.669	0.201	-0.078
-721.835	-200.000	-0.089	-0.418
-720.821	-79.172	0.172	-0.059
-719.806	444.084	-0.059	0.130
-718.791	-200.000	-0.021	0.173
-717.777	239.483	0.126	0.210
-716.762	-148.400	0.088	0.007
-715.748	46.267	-0.164	0.153
-714.733	10.341	-0.234	-0.179
-713.718	800.000	-0.064	0.234
-712.704	-149.388	-0.399	-0.032
-711.689	-149.399	0.100	-0.008
-710.675	-44.987	0.389	-0.194
-709.660	-177.421	-0.442	0.011
-708.645	708.160	-0.167	0.442
-707.631	-200.000	-0.005	0.439
-706.616	-200.000	0.003	-0.046
-705.602	650.472	-0.089	0.228
-704.587	185.592	0.078	0.116
-703.572	-117.560	-0.136	-0.025
-702.558	-200.000	0.254	0.001
-701.543	-63.901	-0.318	0.130
-700.529	-7.511	0.139	-0.094
-699.514	-165.225	0.166	-0.007
-698.499	86.958	0.198	-0.220
-697.485	800.000	-0.099	-0.316
-696.470	-38.767	0.201	-0.106
-695.456	-200.000	-0.048	-0.269
-694.441	800.000	-0.087	-0.252
-693.426	-34.055	-0.144	-0.080
-692.412	-68.929	0.172	-0.067
-691.397	-76.655	-0.143	-0.050
-690.383	56.598	-0.147	-0.143
-689.368	-200.000	0.029	-0.241
-688.354	-187.466	0.069	-0.001
-687.339	143.168	-0.021	-0.028
-686.324	-148.588	0.251	-0.021
-685.310	313.783	-0.110	-0.208
-684.295	-20.682	0.087	-0.053
-683.281	-11.907	-0.189	0.124
-682.266	-1.491	0.097	0.068
-681.251	-158.123	-0.211	-0.012
-680.237	204.028	0.170	0.263
-679.222	-71.348	-0.353	-0.132
-678.208	-200.000	-0.017	0.288
-677.193	60.956	-0.189	0.188
-676.178	722.258	0.097	0.257
-675.164	-37.180	-0.296	0.159
-674.149	88.707	-0.149	-0.166
-673.135	-27.743	0.147	-0.085
-672.120	-200.000	0.037	0.189
-671.105	-72.228	0.104	0.039
-670.091	-111.626	-0.140	-0.028
-669.076	344.727	0.139	-0.272
-668.062	-200.000	-0.013	-0.247
-667.047	178.991	-0.057	0.083
-666.032	560.506	0.071	-0.172
-665.018	-123.127	0.133	0.021
-664.003	31.393	0.134	-0.115
-662.989	650.227	-0.077	0.198
-661.974	-97.839	0.223	0.058
-660.959	8.875	-0.286	-0.216
-659.945	-59.306	-0.582	0.251
-658.930	-200.000	0.018	0.089
-657.916	-93.498	-0.216	0.060
-656.901	-200.000	0.008	0.316
-655.886	422.395	0.094	0.203
-654.872	800.000	-0.018	0.069
-653.857	775.292	0.026	-0.072
-652.843	-78.293	-0.382	0.131
-651.828	-3.672	-0.065	0.045
-650.814	-48.147	0.226	0.109
-649.799	-41.803	0.091	-0.047
-648.784	23.667	-0.082	0.067
-647.770	-99.317	0.025	-0.006
-646.755	-200.000	-0.000	-0.213
-645.741	-200.000	0.005	0.281
-644.726	-51.422	-0.440	-0.206
-643.711	-200.000	-0.020	0.192
-642.697	327.930	0.041	-0.079
-641.682	-52.876	-0.227	0.104
-640.668	353.487	0.145	0.288
-639.653	-79.368	0.274	0.093
-638.638	20.245	-0.206	0.167
-637.624	-27.360	0.422	0.246
-636.609	22.655	0.363	0.297
-635.595	-100.017	-0.077	0.019
-634.580	-33.664	-0.256	0.141
-633.565	800.000	-0.031	-0.123
-632.551	7.414	-0.151	-0.113
-631.536	42.225	0.337	-0.306
-630.522	107.290	-0.121	0.144
-629.507	-75.468	0.391	-0.139
-628.492	-51.296	-0.188	-0.088
-627.478	-19.276	-0.191	-0.118
-626.463	69.540	-0.095	0.098
-625.449	645.167	0.080	-0.204
-624.434	-132.987	0.144	-0.018
-623.419	47.992	-0.051	0.047
-622.405	-112.448	0.121	0.024
-621.390	-200.000	-0.032	-0.192
-620.376	-15.979	-0.080	0.051
-619.361	-194.091	-0.293	-0.002
-618.346	494.195	0.174	0.398
-617.332	79.801	-0.038	-0.041
-616.317	800.000	-0.033	-0.137
-615.303	249.912	-0.111	0.189
-614.288	800.000	-0.037	-0.118
-613.273	185.200	0.135	0.201
-612.259	-174.706	-0.134	-0.004
-611.244	-175.134	0.205	-0.006
-610.230	800.000	-0.075	0.247
-609.215	707.831	-0.059	-0.156
-608.201	-85.177	-0.310	0.097
-607.186	9.190	-0.154	0.116
-606.171	77.000	0.166	-0.176
-605.157	263.692	0.060	0.104
-604.142	680.520	0.036	0.095
-603.128	-200.000	0.001	-0.062
-602.113	22.704	0.368	0.301
-601.098	-27.012	-0.163	-0.095
-600.084	90.596	-0.133	0.149
-599.069	-193.057	-0.162	0.001
-598.055	682.028	-0.010	0.027
-597.040	-61.370	0.289	0.121
-596.025	76.897	0.113	0.120
-595.011	-200.000	-0.029	-0.279
-593.996	205.760	0.077	0.119
-592.982	800.000	0.035	0.102
-591.967	145.373	-0.170	0.227
-590.952	-93.752	0.319	-0.088
-589.938	800.000	-0.025	0.104
-588.923	116.720	-0.094	0.115
-587.909	0.391	-0.192	0.137
-586.894	-153.637	-0.378	-0.026
-585.879	-94.647	-0.112	0.030
-584.865	208.386	0.166	0.258
-583.850	28.769	0.269	-0.227
-582.836	311.705	-0.113	0.211
-581.821	800.000	-0.084	-0.277
-580.806	186.196	-0.054	0.081
-579.792	-53.902	-0.176	0.080
-578.777	205.341	-0.207	-0.321
-577.763	-30.874	0.251	0.141
-576.748	150.520	0.215	0.291
-575.733	-64.752	-0.096	-0.039
-574.719	49.075	-0.173	0.162
-573.704	213.594	-0.078	0.123
-572.690	-97.357	0.113	-0.029
-571.675	-70.392	0.190	-0.072
-570.661	-100.241	0.283	0.070
-569.646	-70.906	0.216	0.081
-568.631	-92.791	-0.296	0.083
-567.617	260.255	-0.118	0.204
-566.602	-200.000	-0.002	0.216
-565.588	-142.554	-0.237	0.023
-564.573	-120.207	0.199	0.034
-563.558	-13.576	0.053	0.034
-562.544	395.206	0.175	-0.363
-561.529	66.385	0.218	0.221
-560.515	-200.000	0.036	0.193
-559.500	-181.571	0.127	-0.002
-558.485	-110.123	-0.124	-0.026
-557.471	-26.972	-0.179	0.104
-556.456	219.116	0.022	0.036
-555.442	-75.524	0.167	0.059
-554.427	-111.160	-0.116	-0.024
-553.412	-200.000	-0.023	0.206
-552.398	358.794	-0.114	0.226
-551.383	302.153	0.075	-0.138
-550.369	369.052	0.046	0.093
-549.354	188.564	0.052	0.078
-548.339	62.132	0.266	0.264
-547.325	22.539	-0.141	-0.115
-546.310	611.027	-0.094	0.234
-545.296	391.159	0.194	0.402
-544.281	-84.801	0.359	0.113
-543.266	8.177	-0.171	0.128
-542.252	41.600	-0.203	-0.183
-541.237	800.000	-0.074	0.217
-540.223	-20.581	-0.173	0.106
-539.208	102.337	-0.390	-0.454
-538.193	-115.948	-0.326	0.060
-537.179	-200.000	-0.049	0.281
-536.164	91.651	0.037	-0.041
-535.150	-142.327	0.651	0.064
-534.135	-101.813	0.182	-0.044
-533.121	-21.807	0.133	0.080
-532.106	800.000	-0.050	-0.146
-531.091	-108.762	-0.170	0.036
-530.077	29.626	-0.153	0.129
-529.062	-128.006	-0.192	-0.027
-528.048	16.329	-0.119	0.093
-527.033	-15.243	-0.227	0.145
-526.018	77.459	0.079	0.083
-525.004	-200.000	-0.016	-0.106
-523.989	163.562	-0.031	-0.043
-522.975	161.439	0.038	-0.052
-521.960	174.424	0.203	-0.292
-520.945	-137.636	-0.354	-0.040
-519.931	-200.000	0.020	-0.125
-518.916	800.000	0.126	-0.381
-517.902	118.440	0.153	-0.188
-516.887	346.748	-0.145	0.285
-515.872	599.799	-0.105	-0.259
-514.858	-151.835	-0.095	-0.007
-513.843	-53.024	0.124	-0.057
-512.829	-79.880	-0.532	0.178
-511.814	103.490	0.064	-0.074
-510.799	377.800	-0.163	-0.330
-509.785	118.479	0.101	0.123
-508.770	13.081	0.186	-0.143
-507.756	800.000	-0.004	-0.013
-506.741	-200.000	-0.004	-0.137
-505.726	12.060	-0.113	0.087
-504.712	-200.000	0.024	-0.233
-503.697	164.539	-0.009	-0.013
-502.683	-155.440	-0.227	0.015
-501.668	-200.000	0.009	-0.075
-500.653	-3.341	-0.210	-0.146
-499.639	105.755	0.174	0.205
-498.624	169.873	0.236	-0.335
-497.610	-15.020	-0.121	-0.077
-496.595	41.477	0.100	0.090
-495.581	800.000	0.074	-0.210
-494.566	53.438	0.273	0.261
-493.551	550.002	0.040	-0.095
-492.537	-200.000	-0.010	-0.358
-491.522	-200.000	-0.021	-0.123
-490.508	-155.844	-0.114	-0.007
-489.493	800.000	0.098	-0.328
-488.478	-70.420	-0.073	-0.027
-487.464	22.579	0.253	0.206
-486.449	125.576	0.203	-0.255
-485.435	454.329	-0.148	-0.325
-484.420	213.942	0.166	-0.262
-483.405	-138.627	0.431	-0.047
-482.391	-200.000	0.038	0.352
-481.376	-89.174	0.203	0.060
-480.362	-72.845	0.218	-0.080
-479.347	-160.256	0.400	0.021
-478.332	36.368	0.271	-0.237
-477.318	-136.096	-0.232	-0.027
-476.303	800.000	-0.089	-0.331
-475.289	-48.024	0.064	0.031
-474.274	-101.577	-0.124	0.030
-473.259	84.882	-0.147	-0.160
-472.245	495.822	0.023	0.052
-471.230	650.692	-0.109	-0.277
-470.216	-200.000	-0.019	0.246
-469.201	800.000	0.058	0.166
-468.186	-200.000	0.007	0.118
-467.172	-131.309	-0.018	-0.002
-466.157	137.483	0.047	0.061
-465.143	22.093	-0.256	0.207
-464.128	-0.684	-0.336	-0.237
-463.113	159.974	-0.201	-0.278
-462.099	-200.000	0.010	0.350
-461.084	-200.000	0.000	-0.029
-460.070	37.968	0.098	0.086
-459.055	-34.477	-0.189	0.103
-458.040	612.843	0.046	-0.114
-457.026	-200.000	0.033	0.391
-456.011	150.465	-0.067	-0.091
-454.997	65.356	-0.161	0.162
-453.982	-89.842	0.307	-0.089
-452.968	-200.000	-0.005	0.057
-451.953	76.732	0.049	0.052
-450.938	-200.000	-0.028	-0.202
-449.924	-200.000	-0.026	0.422
-448.909	-5.879	-0.346	-0.235
-447.895	41.069	0.041	-0.036
-446.880	-124.652	-0.315	0.048
-445.865	-66.748	0.336	0.132
-444.851	-81.057	-0.017	-0.006
-443.836	-200.000	-0.042	-0.205
-442.822	-169.163	0.269	0.010
-441.807	494.700	0.119	0.271
-440.792	64.924	-0.126	0.126
-439.778	129.989	0.179	-0.227
-438.763	48.101	0.031	-0.029
-437.749	-127.283	-0.361	0.052
-436.734	101.201	0.092	-0.106
-435.719	151.013	-0.027	0.036
-434.705	272.266	-0.133	0.233
-433.690	-200.000	0.022	-0.182
-432.676	29.687	-0.070	-0.059
-431.661	-81.880	-0.355	-0.115
-430.646	-56.001	0.312	0.138
-429.632	-37.799	-0.140	-0.074
-428.617	70.384	0.092	0.094
-427.603	-200.000	0.003	-0.015
-426.588	-200.000	0.040	-0.429
-425.573	-175.317	-0.144	0.004
-424.559	800.000	0.066	-0.274
-423.544	-120.251	0.176	0.030
-422.530	-200.000	0.010	-0.046
-421.515	-200.000	-0.012	0.073
-420.500	-77.966	-0.318	0.109
-419.486	800.000	0.031	-0.087
-418.471	-136.414	-0.083	-0.010
-417.457	123.020	0.117	-0.145
-416.442	-153.527	-0.048	-0.003
-415.428	17.480	0.104	-0.081
-414.413	-200.000	0.026	0.169
-413.398	80.725	-0.188	0.201
-412.384	797.344	-0.129	-0.351
-411.369	-24.841	-0.096	-0.056
-410.355	-53.308	0.029	-0.013
-409.340	-58.339	0.321	0.138
-408.325	-200.000	-0.054	-0.335
-407.311	800.000	-0.023	-0.065
-406.296	451.705	-0.185	-0.405
-405.282	7.476	0.468	-0.347
-404.267	-200.000	0.275	-0.001
-403.252	-107.179	-0.116	0.025
-402.238	294.168	-0.099	-0.179
-401.223	-76.088	0.172	0.060
-400.209	-200.000	0.082	0.412
-399.194	281.916	-0.092	-0.163
-398.179	506.113	-0.062	-0.142
-397.165	-84.934	-0.106	-0.033
-396.150	36.447	0.197	0.172
-395.136	-142.796	-0.172	-0.017
-394.121	800.000	0.053	0.158
-393.106	-84.352	-0.301	0.094
-392.092	-100.498	0.128	-0.031
-391.077	-173.676	0.308	0.009
-390.063	381.569	-0.028	-0.057
-389.048	-200.000	0.013	0.238
-388.033	395.423	-0.095	-0.195
-387.019	-200.000	0.091	-0.503
-386.004	800.000	-0.041	-0.136
-384.990	-97.709	0.165	-0.042
-383.975	-48.786	-0.239	-0.114
-382.960	4.606	-0.137	-0.099
-381.946	411.336	-0.111	-0.234
-380.931	6.857	-0.207	-0.152
-379.917	613.406	-0.088	0.218
-378.902	567.857	-0.034	-0.083
-377.888	208.039	0.159	0.245
-376.873	800.000	0.042	0.137
-375.858	-93.957	-0.113	0.031
-374.844	255.650	0.195	-0.330
-373.829	-200.000	0.017	-0.095
-372.815	800.000	0.005	0.014
-371.800	332.521	-0.243	0.465
-370.785	262.608	-0.226	-0.387
-369.771	36.102	-0.183	-0.159
-368.756	-200.000	0.009	-0.250
-367.742	-61.660	-0.098	0.040
-366.727	505.196	-0.101	0.232
-365.712	73.855	0.192	-0.199
-364.698	190.405	0.242	0.359
-363.683	27.889	-0.150	-0.125
-362.669	800.000	0.062	0.266
-361.654	0.094	-0.214	0.151
-360.639	-144.015	-0.116	-0.011
-359.625	429.550	-0.053	-0.113
-358.610	15.205	0.031	-0.024
-357.596	-200.000	-0.007	0.402
-356.581	-200.000	0.007	0.218
-355.566	10.270	-0.133	0.100
-354.552	800.000	0.013	0.041
-353.537	-99.365	0.252	0.063
-352.523	-117.389	0.138	-0.025
-351.508	159.456	-0.129	0.177
-350.493	24.501	-0.218	0.178
-349.479	-61.716	0.115	-0.048
-348.464	305.760	0.140	-0.258
-347.450	58.228	-0.209	-0.203
-346.435	-165.533	-0.064	0.003
-345.420	-200.000	0.036	-0.329
-344.406	83.135	0.182	-0.196
-343.391	-177.026	-0.289	-0.007
-342.377	-104.093	0.211	0.049
-341.362	179.932	0.222	-0.322
-340.348	146.259	-0.092	0.122
-339.333	-34.204	0.094	-0.051
-338.318	800.000	-0.064	-0.229
-337.304	-10.329	-0.132	0.087
-336.289	-200.000	-0.002	-0.009
-335.275	77.315	0.146	-0.154
-334.260	36.660	-0.160	0.139
-333.245	-37.726	-0.141	-0.074
-332.231	381.713	-0.170	-0.345
-331.216	-112.003	0.158	-0.031
-330.202	-30.729	0.227	0.127
-329.187	-131.739	0.382	0.049
-328.172	-19.205	-0.035	-0.022
-327.158	369.156	-0.104	0.207
-326.143	-76.802	0.277	-0.096
-325.129	-200.000	0.025	-0.124
-324.114	14.118	0.090	-0.069
-323.099	-200.000	0.029	0.317
-322.085	-200.000	-0.009	-0.241
-321.070	-119.458	-0.185	0.032
-320.056	-155.456	-0.334	-0.021
-319.041	53.483	0.094	0.089
-318.026	-36.414	-0.262	-0.139
-317.012	-39.433	0.072	0.037
-315.997	300.457	-0.146	0.266
-314.983	332.687	0.079	-0.150
-313.968	-135.247	0.320	-0.038
-312.953	477.724	0.093	0.207
-311.939	-200.000	-0.009	0.072
-310.924	-200.000	0.003	-0.255
-309.910	-50.549	0.210	0.098
-308.895	-200.000	0.020	-0.094
-307.880	-49.857	0.369	-0.173
-306.866	34.945	-0.342	-0.295
-305.851	138.449	-0.112	0.146
-304.837	800.000	-0.069	0.199
-303.822	-66.700	-0.255	0.100
-302.807	720.085	-0.057	0.150
-301.793	-200.000	0.023	0.210
-300.778	13.347	0.027	-0.020
-299.764	-82.578	-0.180	-0.058
-298.749	-200.000	-0.042	-0.298
-297.735	-15.822	-0.222	0.140
-296.720	433.847	0.216	0.463
-295.705	411.981	0.087	-0.183
-294.691	289.239	-0.160	0.286
-293.676	137.180	0.114	-0.147
-292.662	215.437	-0.225	0.352
-291.647	-21.791	-0.216	0.129
-290.632	136.300	-0.144	-0.185
-289.618	-108.946	0.083	0.018
-288.603	-130.911	-0.441	0.058
-287.589	-200.000	0.031	-0.178
-286.574	85.997	0.158	0.171
-285.559	-162.580	-0.102	0.005
-284.545	4.047	-0.052	0.037
-283.530	-200.000	0.009	-0.134
-282.516	-200.000	-0.070	-0.389
-281.501	-29.659	-0.249	-0.140
-280.486	20.688	0.129	0.103
-279.472	423.041	-0.085	0.181
-278.457	335.255	0.088	0.168
-277.443	141.960	-0.151	-0.197
-276.428	695.291	-0.122	-0.316
-275.413	266.118	0.030	-0.052
-274.399	800.000	0.063	0.173
-273.384	-22.193	0.191	0.114
-272.370	-106.561	-0.176	0.039
-271.355	198.883	0.091	0.138
-270.340	123.352	0.162	0.200
-269.326	-73.752	0.046	0.017
-268.311	-120.627	0.181	-0.030
-267.297	-200.000	-0.003	-0.064
-266.282	29.470	0.173	-0.145
-265.267	131.396	0.222	-0.281
-264.253	185.928	0.081	-0.119
-263.238	344.484	-0.148	-0.287
-262.224	160.427	0.085	0.117
-261.209	159.709	0.228	0.312
-260.195	-125.350	-0.267	0.040
-259.180	51.235	0.303	0.283
-258.165	-80.431	0.108	0.036
-257.151	26.241	-0.233	-0.191
-256.136	332.952	-0.074	0.140
-255.122	-67.001	0.083	0.032
-254.107	3.211	0.180	-0.129
-253.092	-100.544	-0.225	-0.055
-252.078	-99.239	-0.130	0.032
-251.063	49.763	0.036	0.033
-250.049	377.334	-0.105	-0.212
-249.034	800.000	-0.027	-0.102
-248.019	168.356	0.088	0.123
-247.005	-5.505	-0.210	0.142
-245.990	-67.036	-0.313	0.122
-244.976	115.676	-0.159	-0.192
-243.961	75.799	-0.102	-0.106
-242.946	-28.932	-0.292	-0.165
-241.932	-101.656	-0.433	0.103
-240.917	-27.024	-0.345	-0.198
-239.903	-123.183	-0.142	-0.022
-238.888	-27.985	-0.166	0.095
-237.873	-145.115	0.257	0.023
-236.859	55.723	0.011	0.011
-235.844	93.119	-0.183	-0.204
-234.830	-144.019	0.344	0.032
-233.815	-125.062	0.170	-0.026
-232.800	-72.703	0.166	0.060
-231.786	-109.229	0.292	0.061
-230.771	26.224	0.126	-0.103
-229.757	-50.468	-0.129	-0.060
-228.742	326.440	-0.148	0.278
-227.727	-200.000	-0.055	-0.279
-226.713	-146.009	-0.188	0.016
-225.698	213.657	-0.075	0.117
-224.684	-200.000	-0.031	-0.348
-223.669	-200.000	0.009	-0.119
-222.655	157.398	0.094	0.128
-221.640	-67.731	-0.176	0.068
-220.625	-200.000	-0.068	0.313
-219.611	-124.946	-0.324	-0.049
-218.596	57.767	0.359	-0.345
-217.582	-84.024	0.118	-0.037
-216.567	-78.865	-0.397	0.133
-215.552	-37.003	0.346	0.182
-214.538	-3.630	0.227	-0.155
-213.523	-84.287	0.095	0.029
-212.509	38.180	0.143	0.125
-211.494	-165.401	0.104	-0.004
-210.479	-84.094	-0.208	-0.065
-209.465	-86.506	0.224	-0.068
-208.450	-109.151	-0.323	-0.068
-207.436	800.000	-0.037	-0.156
-206.421	-122.142	0.177	0.029
-205.406	800.000	0.072	0.245
-204.392	-96.061	-0.125	-0.033
-203.377	289.139	-0.094	-0.167
-202.363	516.375	0.108	0.249
-201.348	-57.490	0.346	0.149
-200.333	-100.754	0.272	0.066
-199.319	800.000	0.143	-0.389
-198.304	250.561	0.176	0.294
-197.290	10.563	0.286	-0.214
-196.275	-155.290	0.210	-0.013
-195.260	-29.343	-0.037	0.021
-194.246	-47.068	0.295	0.141
-193.231	474.932	-0.057	0.127
-192.217	-88.680	0.267	0.078
-191.202	-126.509	-0.183	0.027
-190.187	-74.561	0.402	-0.142
-189.173	-173.583	0.233	-0.007
-188.158	153.269	0.197	-0.265
-187.144	101.771	0.057	-0.065
-186.129	-39.108	0.277	-0.143
-185.114	20.940	-0.243	0.194
-184.100	800.000	0.048	0.153
-183.085	-200.000	0.036	-0.293
-182.071	31.635	0.084	-0.071
-181.056	22.621	0.081	0.065
-180.042	7.023	-0.084	-0.061
-179.027	-200.000	0.011	-0.154
-178.012	800.000	0.064	-0.192
-176.998	-133.578	-0.357	-0.044
-175.983	-182.715	-0.254	0.005
-174.969	94.880	-0.200	0.223
-173.954	456.510	-0.051	0.111
-172.939	-26.993	0.271	0.155
-171.925	800.000	0.037	-0.121
-170.910	-76.974	0.409	0.140
-169.896	-127.596	-0.344	0.049
-168.881	-200.000	-0.029	-0.201
-167.866	37.183	0.184	-0.160
-166.852	-24.884	-0.080	0.047
-165.837	40.763	0.117	-0.103
-164.823	-10.169	-0.188	0.123
-163.808	26.353	-0.242	0.198
-162.793	-0.503	0.396	0.276
-161.779	47.645	-0.157	-0.143
-160.764	-101.019	0.302	0.073
-159.750	-5.881	-0.234	0.157
-158.735	800.000	-0.058	0.209
-157.720	-173.159	0.269	-0.008
-156.706	-50.036	0.224	0.104
-155.691	-30.367	-0.093	0.052
-154.677	190.208	-0.144	-0.212
-153.662	-200.000	-0.008	0.190
-152.647	-200.000	-0.042	0.183
-151.633	-147.546	0.277	-0.023
-150.618	-200.000	-0.018	-0.122
-149.604	-200.000	-0.021	-0.509
-148.589	-50.942	0.071	0.033
-147.574	-46.580	-0.243	-0.117
-146.560	-200.000	-0.002	0.021
-145.545	-87.481	0.257	-0.076
-144.531	50.602	0.115	-0.107
-143.516	566.673	0.046	-0.109
-142.502	-96.639	0.065	-0.017
-141.487	-53.423	-0.123	-0.055
-140.472	-115.615	-0.204	0.038
-139.458	-153.637	0.229	-0.016
-138.443	382.343	0.136	-0.273
-137.429	477.378	-0.017	-0.037
-136.414	800.000	-0.062	0.171
-135.399	800.000	-0.035	0.101
-134.385	-113.741	-0.223	0.043
-133.370	45.471	-0.058	-0.053
-132.356	91.619	0.111	-0.122
-131.341	-134.363	-0.381	-0.046
-130.326	84.088	-0.189	-0.202
-129.312	-34.367	-0.176	0.095
-128.297	-121.729	-0.361	0.059
-127.283	9.469	0.245	-0.182
-126.268	487.862	-0.095	0.211
-125.253	800.000	-0.044	-0.183
-124.239	7.549	-0.083	-0.061
-123.224	648.745	-0.027	-0.068
-122.210	-131.326	0.540	-0.070
-121.195	50.587	0.167	-0.155
-120.180	-200.000	-0.029	-0.331
-119.166	207.336	0.180	0.276
-118.151	-98.847	0.056	0.014
-117.137	-200.000	0.005	0.202
-116.122	-32.743	-0.468	0.255
-115.107	-47.457	0.186	-0.088
-114.093	-4.419	0.233	-0.158
-113.078	-142.854	0.376	0.036
-112.064	-118.707	-0.377	0.065
-111.049	499.162	-0.090	0.204
-110.034	-200.000	0.009	0.323
-109.020	-200.000	0.266	-0.001
-108.005	61.692	0.241	-0.234
-106.991	-163.442	0.186	-0.009
-105.976	60.844	0.243	0.236
-104.962	300.914	0.133	-0.241
-103.947	-130.821	0.119	0.016
-102.932	119.187	0.151	-0.183
-101.918	83.011	-0.133	0.142
-100.903	-153.847	-0.413	0.028
-99.889	287.883	0.163	-0.290
-98.874	-29.640	-0.147	0.082
-97.859	-56.437	-0.216	0.094
-96.845	800.000	0.042	-0.170
-95.830	-200.000	-0.015	-0.067
-94.816	422.855	-0.112	0.234
-93.801	-59.108	-0.263	0.111
-92.786	16.873	-0.090	-0.070
-91.772	-70.813	0.337	-0.124
-90.757	-23.028	0.152	-0.089
-89.743	-23.921	-0.088	-0.051
-88.728	-146.105	0.104	0.009
-87.713	-44.871	0.137	0.067
-86.699	74.689	-0.226	0.232
-85.684	38.049	-0.171	0.149
-84.670	-131.946	-0.384	0.049
-83.655	-200.000	-0.009	0.059
-82.640	91.492	-0.125	-0.138
-81.626	517.518	0.128	0.293
-80.611	543.683	-0.097	-0.227
-79.597	-97.907	0.204	-0.051
-78.582	-54.665	-0.281	-0.124
-77.567	-12.210	-0.093	0.060
-76.553	48.695	0.165	-0.151
-75.538	-51.783	-0.277	0.126
-74.524	-200.000	-0.014	-0.122
-73.509	800.000	0.107	0.334
-72.494	-200.000	0.002	0.045
-71.480	444.403	0.068	-0.145
-70.465	6.538	-0.077	-0.056
-69.451	-65.484	0.361	0.142
-68.436	32.635	-0.129	-0.109
-67.422	-119.476	-0.102	-0.017
-66.407	-200.000	-0.005	-0.066
-65.392	154.677	0.289	-0.389
-64.378	800.000	0.107	-0.355
-63.363	86.809	-0.149	0.161
-62.349	325.381	-0.017	-0.033
-61.334	160.138	-0.634	-0.863
-60.319	174.542	0.635	0.897
-59.305	639.025	-0.378	-0.940
-58.290	190.306	0.874	1.283
-57.276	338.989	0.773	1.472
-56.261	-200.000	116.995	654.437
-55.246	517.599	1539.776	3519.260
-54.232	176.455	2707.211	3843.353
-53.217	106.350	2170.032	2512.417
-52.203	37.265	1689.263	1461.919
-51.188	29.823	1505.518	1252.686
-50.173	27.590	1480.937	1217.292
-49.159	50.787	1540.754	1425.238
-48.144	49.123	1555.782	1427.749
-47.130	29.872	1510.970	1257.355
-46.115	27.028	1495.605	1225.363
-45.100	26.686	1493.066	1220.928
-44.086	26.718	1490.532	1219.023
-43.071	26.681	1488.708	1217.232
-42.057	26.468	1487.749	1214.967
-41.042	26.560	1485.746	1213.905
-40.027	26.569	1484.536	1212.924
-39.013	26.647	1482.757	1211.947
-37.998	26.580	1481.965	1210.802
-36.984	26.637	1480.507	1209.942
-35.969	26.735	1478.817	1209.169
-34.954	26.679	1477.771	1207.892
-33.940	26.593	1476.472	1206.208
-32.925	26.722	1474.911	1205.743
-31.911	26.699	1473.376	1204.287
-30.896	26.695	1472.603	1203.583
-29.881	26.700	1471.000	1202.256
-28.867	26.753	1470.094	1201.825
-27.852	26.833	1468.445	1200.958
-26.838	26.736	1467.391	1199.407
-25.823	26.710	1465.930	1197.990
-24.809	26.693	1464.263	1196.466
-23.794	26.768	1462.942	1195.840
-22.779	26.654	1461.980	1194.249
-21.765	26.760	1460.498	1193.689
-20.750	26.777	1459.607	1193.030
-19.736	26.655	1458.512	1191.282
-18.721	26.670	1457.287	1190.331
-17.706	26.718	1456.281	1189.778
-16.692	26.703	1454.828	1188.445
-15.677	26.724	1453.993	1187.855
-14.663	26.640	1453.328	1186.714
-13.648	26.535	1452.725	1185.489
-12.633	26.564	1451.308	1184.476
-11.619	26.649	1450.882	1184.637
-10.604	26.698	1449.672	1183.923
-9.590	26.632	1448.743	1182.684
-8.575	26.528	1448.456	1181.726
-7.560	26.618	1446.852	1180.954
-6.546	26.698	1445.959	1180.699
-5.531	26.665	1445.566	1180.120
-4.517	26.667	1444.479	1179.196
-3.502	26.653	1443.320	1178.112
-2.487	26.689	1442.502	1177.632
-1.473	26.713	1441.133	1176.622
-0.458	26.582	1440.286	1175.033
0.556	28.284	1430.144	1163.798
1.571	25.107	1405.349	1123.640
2.586	21.446	1346.480	1054.447
3.600	19.852	1264.832	981.388
4.615	18.630	1219.647	939.557
5.629	16.415	1164.727	885.572
6.644	9.971	1083.364	792.129
7.659	4.959	1046.362	741.220
8.673	4.217	1041.140	733.947
9.688	4.055	1038.053	730.938
10.702	3.922	1036.075	728.854
11.717	3.987	1033.986	727.629
12.731	6.383	1035.888	740.175
13.746	13.431	1046.270	780.885
14.761	20.253	1054.179	819.037
15.775	22.383	1056.508	830.843
16.790	22.045	1055.341	828.257
17.804	21.084	1053.372	822.114
18.819	20.338	1051.569	817.123
19.834	19.958	1050.408	814.359
20.848	19.953	1049.484	813.549
21.863	19.892	1049.733	813.383
22.877	19.753	1048.870	811.989
23.892	19.576	1047.456	809.994
24.907	19.466	1046.863	808.944
25.921	19.566	1045.860	808.565
26.936	19.413	1045.372	807.402
27.950	19.481	1044.152	806.707
28.965	19.437	1043.188	805.685
29.980	19.574	1042.355	805.609
30.994	19.650	1040.934	804.795
32.009	19.830	1040.393	805.144
33.023	19.929	1039.820	805.087
34.038	19.760	1038.977	803.581
35.053	19.690	1037.732	802.219
36.067	19.602	1037.030	801.198
37.082	19.538	1036.068	800.090
38.096	19.578	1035.320	799.622
39.111	19.597	1034.901	799.317
40.126	19.743	1033.951	799.189
41.140	19.580	1032.854	797.517
42.155	19.397	1031.338	795.433
43.169	19.107	1030.107	793.078
44.184	19.101	1028.917	792.061
45.199	19.072	1027.995	791.149
46.213	18.908	1027.447	789.905
47.228	19.109	1026.835	790.286
48.242	19.404	1026.030	790.951
49.257	19.616	1025.145	791.167
50.271	19.393	1024.409	789.510
51.286	19.599	1023.635	789.789
52.301	19.649	1023.139	789.560
53.315	19.608	1022.290	788.649
54.330	19.597	1020.657	787.269
55.344	19.299	1019.731	785.131
56.359	19.227	1018.795	784.012
57.374	19.225	1018.037	783.348
58.388	19.152	1017.555	782.578
59.403	19.152	1016.330	781.566
60.417	19.052	1015.357	780.295
61.432	19.034	1014.976	779.850
62.447	19.062	1014.207	779.319
63.461	19.003	1012.827	777.920
64.476	18.822	1012.663	776.908
65.490	18.772	1011.395	775.644
66.505	18.749	1010.687	774.928
67.520	18.816	1009.931	774.578
68.534	18.795	1009.641	774.197
69.549	18.904	1008.574	773.799
70.563	18.850	1007.753	772.856
71.578	18.708	1006.837	771.449
72.593	18.609	1005.626	770.007
73.607	18.418	1005.158	768.725
74.622	18.537	1003.872	768.206
75.636	18.498	1003.040	767.328
76.651	18.632	1002.455	767.411
77.666	18.642	1001.368	766.556
78.680	18.682	1000.996	766.384
79.695	18.742	1000.544	766.234
80.709	18.694	1000.391	765.839
81.724	18.778	999.355	765.348
82.739	19.099	998.585	766.121
83.753	19.119	997.974	765.673
84.768	19.445	997.207	766.466
85.782	19.777	996.970	767.691
86.797	19.986	996.550	768.229
87.812	19.959	995.817	767.475
88.826	19.684	994.940	765.512
89.841	19.629	994.057	764.522
90.855	19.771	993.191	764.416
91.870	19.762	992.859	764.053
92.884	20.073	991.688	764.457
93.899	19.822	991.620	763.231
94.914	19.962	989.931	762.478
95.928	19.933	989.550	761.989
96.943	19.997	988.448	761.355
97.957	19.889	987.439	760.036
98.972	19.704	986.882	758.727
99.987	19.690	986.329	758.173
101.001	19.789	985.459	757.871
102.016	19.816	984.817	757.432
103.030	19.707	983.786	756.092
104.045	19.778	982.841	755.610
105.060	19.762	981.998	754.826
106.074	19.573	981.071	753.223
107.089	19.440	979.994	751.748
108.103	19.075	979.021	749.347
109.118	18.935	977.693	747.656
110.133	18.945	976.723	746.890
111.147	18.779	976.229	745.728
112.162	18.785	975.193	744.895
113.176	18.776	974.067	743.931
114.191	18.957	973.420	744.153
115.206	19.234	972.398	744.505
116.220	19.185	971.754	743.735
117.235	19.106	971.053	742.791
118.249	19.061	970.214	741.890
119.264	19.030	969.542	741.177
120.279	18.936	968.383	739.818
121.293	18.779	967.729	738.580
122.308	18.720	967.170	737.833
123.322	18.645	966.158	736.673
124.337	18.640	965.127	735.803
125.352	18.632	963.527	734.480
126.366	18.534	963.059	733.642
127.381	18.320	962.581	732.299
128.395	18.617	960.919	732.235
129.410	18.612	960.129	731.549
130.424	18.609	959.311	730.850
131.439	18.747	958.453	730.715
132.454	18.972	957.419	730.821
133.468	19.033	956.874	730.597
134.483	18.924	956.534	729.811
135.497	19.031	955.805	729.646
136.512	19.055	955.386	729.362
137.527	19.105	954.296	728.675
138.541	19.172	953.299	728.135
139.556	19.067	952.582	727.078
140.570	19.146	951.834	726.777
141.585	19.319	951.356	727.077
142.600	19.515	951.066	727.620
143.614	19.555	950.479	727.275
144.629	19.663	949.865	727.193
145.643	19.797	949.426	727.357
146.658	19.877	947.820	726.399
147.673	19.601	947.183	724.687
148.687	19.233	946.309	722.411
149.702	19.309	944.510	721.292
150.716	19.160	943.916	720.153
151.731	19.119	943.028	719.241
152.746	19.019	942.372	718.256
153.760	19.134	941.691	718.153
154.775	19.286	941.118	718.286
155.789	19.440	940.470	718.369
156.804	19.515	939.614	717.964
157.819	19.369	938.809	716.681
158.833	19.503	938.161	716.677
159.848	19.667	937.768	716.994
160.862	19.824	937.100	717.075
161.877	19.936	935.769	716.454
162.892	19.616	934.896	714.400
163.906	19.158	933.999	711.757
164.921	18.953	933.036	710.115
165.935	19.078	931.804	709.631
166.950	19.169	931.161	709.451
167.964	19.354	930.152	709.380
168.979	19.322	929.023	708.324
169.994	19.325	927.739	707.296
171.008	19.181	927.075	706.139
172.023	19.197	926.539	705.732
173.037	19.412	926.195	706.287
174.052	19.713	925.450	706.888
175.067	19.537	924.639	705.489
176.081	19.427	923.326	703.973
177.096	19.014	922.390	701.513
178.110	18.953	921.727	700.701
179.125	19.076	920.765	700.406
180.140	19.251	920.144	700.586
181.154	19.339	919.362	700.286
182.169	19.401	919.385	700.491
183.183	19.648	919.372	701.422
184.198	19.584	918.844	700.699
185.213	19.783	917.271	700.244
186.227	19.692	916.617	699.312
187.242	19.582	916.444	698.676
188.256	19.845	915.731	699.133
189.271	19.871	915.359	698.893
190.286	20.039	914.249	698.659
191.300	19.703	913.674	696.805
192.315	19.174	912.301	693.565
193.329	18.933	911.494	691.922
194.344	18.896	910.964	691.310
195.359	19.103	910.160	691.468
196.373	19.375	909.732	692.175
197.388	19.450	909.365	692.133
198.402	19.685	908.768	692.560
199.417	19.964	908.837	693.670
200.432	19.938	908.818	693.489
201.446	20.253	908.036	694.093
202.461	20.334	907.644	694.054
203.475	20.310	907.338	693.665
204.490	20.365	906.062	692.848
205.504	19.923	905.794	690.817
206.519	19.781	904.580	689.263
207.534	19.776	903.816	688.602
208.548	19.758	902.999	687.845
209.563	19.705	902.215	686.977
210.577	19.644	902.168	686.638
211.592	19.745	901.013	686.101
212.607	20.086	900.729	687.175
213.621	20.095	900.582	687.039
214.636	20.102	900.076	686.617
215.650	19.952	898.974	685.121
216.665	20.079	898.468	685.179
217.680	20.004	897.957	684.434
218.694	20.148	897.880	684.883
219.709	20.184	897.472	684.653
220.723	20.087	896.838	683.725
221.738	20.117	895.999	683.143
222.753	20.125	895.139	682.461
223.767	20.041	894.670	681.708
224.782	20.137	893.478	681.120
225.796	20.333	892.765	681.286
226.811	20.390	892.534	681.272
227.826	20.353	891.526	680.297
228.840	19.943	891.284	678.448
229.855	19.910	890.171	677.410
230.869	20.092	889.171	677.301
231.884	19.962	888.701	676.374
232.899	19.862	887.729	675.186
233.913	19.878	887.042	674.665
234.928	19.874	885.929	673.745
235.942	19.629	885.569	672.455
236.957	19.801	884.506	672.259
237.972	19.662	884.196	671.421
238.986	19.685	883.735	671.102
240.001	19.698	883.116	670.624
241.015	19.654	882.390	669.843
242.030	19.928	881.353	670.056
243.045	19.754	881.354	669.324
244.059	19.943	880.839	669.604
245.074	20.065	880.330	669.631
246.088	20.045	879.726	669.033
247.103	20.154	879.397	669.146
248.117	20.510	878.557	669.821
249.132	20.390	878.704	669.411
250.147	20.688	878.368	670.243
251.161	21.068	877.752	671.177
252.176	21.113	877.419	671.036
253.190	21.193	876.350	670.466
254.205	21.257	875.951	670.345
255.220	21.332	875.771	670.437
256.234	21.097	875.011	668.894
257.249	21.113	874.388	668.420
258.263	20.995	873.980	667.599
259.278	21.039	873.083	667.023
260.293	21.007	872.580	666.457
261.307	21.140	872.155	666.581
262.322	21.225	871.832	666.601
263.336	21.298	871.063	666.230
264.351	21.383	870.065	665.733
265.366	21.208	869.901	664.883
266.380	21.316	869.010	664.552
267.395	21.330	868.330	664.029
268.409	21.165	867.588	662.774
269.424	20.921	867.020	661.356
270.439	20.940	866.267	660.795
271.453	20.997	865.500	660.370
272.468	20.876	864.740	659.271
273.482	20.762	864.163	658.344
274.497	20.746	863.552	657.758
275.512	20.822	862.948	657.526
276.526	20.820	861.909	656.671
277.541	20.824	861.452	656.279
278.555	20.754	861.262	655.812
279.570	21.011	860.690	656.284
280.585	21.237	860.392	656.848
281.599	21.238	860.119	656.587
282.614	21.152	858.864	655.247
283.628	20.751	858.499	653.408
284.643	20.848	857.698	653.103
285.657	20.864	857.123	652.667
286.672	20.994	856.683	652.764
287.687	21.050	856.016	652.406
288.701	20.800	855.679	651.155
289.716	20.972	855.521	651.623
290.730	21.019	854.809	651.197
291.745	21.153	853.805	650.875
292.760	21.059	853.378	650.140
293.774	21.171	852.674	649.963
294.789	21.423	852.370	650.613
295.803	21.484	851.727	650.292
296.818	21.220	850.941	648.652
297.833	21.139	850.091	647.647
298.847	21.065	849.498	646.864
299.862	20.969	849.133	646.173
300.876	21.115	848.635	646.275
301.891	21.351	847.671	646.357
302.906	21.387	847.599	646.379
303.920	21.641	846.823	646.668
304.935	21.588	847.000	646.552
305.949	21.892	845.993	646.846
306.964	21.622	845.630	645.515
307.979	21.489	844.846	644.372
308.993	21.318	844.187	643.182
310.008	21.598	843.749	643.821
311.022	21.721	843.081	643.707
312.037	21.566	842.704	642.791
313.052	21.292	842.218	641.360
314.066	21.335	840.757	640.346
315.081	20.998	840.387	638.774
316.095	21.018	839.590	638.184
317.110	21.149	839.168	638.286
318.125	20.925	838.824	637.150
319.139	20.895	838.305	636.588
320.154	20.934	838.178	636.580
321.168	21.037	837.173	636.137
322.183	21.273	836.601	636.504
323.197	21.240	836.505	636.253
324.212	21.283	835.903	635.897
325.227	21.143	835.601	635.102
326.241	21.267	834.455	634.624
327.256	21.254	833.945	634.135
328.270	21.048	833.439	632.945
329.285	21.078	833.085	632.731
330.300	21.106	832.558	632.376
331.314	21.093	831.863	631.742
332.329	21.123	831.156	631.260
333.343	21.427	830.548	631.839
334.358	21.385	830.381	631.507
335.373	21.378	830.063	631.184
336.387	21.636	829.188	631.393
337.402	21.720	828.886	631.407
338.416	21.726	828.301	630.929
339.431	21.749	827.928	630.673
340.446	21.961	827.491	631.046
341.460	22.070	827.181	631.146
342.475	22.077	826.573	630.649
343.489	22.130	826.067	630.398
344.504	22.271	825.456	630.383
345.519	22.226	825.369	630.098
346.533	22.267	824.943	629.862
347.548	22.357	824.188	629.555
348.562	22.148	823.310	628.081
349.577	21.867	822.319	626.267
350.592	21.671	822.002	625.268
351.606	21.436	821.681	624.132
352.621	21.499	821.088	623.850
353.635	21.507	820.456	623.342
354.650	21.644	820.512	623.818
355.665	21.792	819.647	623.632
356.679	21.678	819.553	623.099
357.694	21.906	818.743	623.238
358.708	21.947	818.390	623.062
359.723	21.889	817.728	622.298
360.738	21.868	817.162	621.735
361.752	21.824	817.025	621.422
362.767	21.990	816.199	621.325
363.781	22.008	815.993	621.178
364.796	22.406	815.752	622.345
365.810	22.377	815.566	622.047
366.825	22.579	815.122	622.366
367.840	22.659	814.845	622.383
368.854	22.433	814.654	621.384
369.869	22.365	813.858	620.481
370.883	22.231	813.324	619.549
371.898	22.200	812.544	618.790
372.913	22.282	812.419	618.929
373.927	22.571	811.363	619.083
374.942	22.365	810.673	617.779
375.956	22.320	810.197	617.205
376.971	22.292	810.054	616.942
377.986	22.461	809.003	616.679
379.000	22.711	808.834	617.372
380.015	22.916	808.108	617.478
381.029	22.569	808.002	616.131
382.044	22.623	807.314	615.741
383.059	22.658	806.682	615.325
384.073	22.604	806.206	614.721
385.088	22.827	805.024	614.540
386.102	22.446	804.414	612.695
387.117	22.091	804.218	611.256
388.132	22.281	803.188	611.082
389.146	22.189	802.749	610.371
390.161	22.259	802.498	610.371
391.175	22.462	802.629	611.120
392.190	22.500	802.319	610.964
393.205	22.471	802.057	610.609
394.219	22.273	801.338	609.323
395.234	22.204	800.559	608.437
396.248	22.290	799.924	608.198
397.263	22.123	799.316	607.103
398.278	22.003	798.610	606.099
399.292	21.868	798.439	605.451
400.307	22.045	797.732	605.470
401.321	22.043	797.404	605.160
402.336	21.933	797.467	604.778
403.350	21.971	797.461	604.851
404.365	22.230	796.822	605.204
405.380	22.330	796.548	605.285
406.394	22.610	795.641	605.503
407.409	22.809	795.398	605.949
408.423	22.927	794.952	605.960
409.438	22.958	794.559	605.713
410.453	23.013	794.324	605.669
411.467	23.031	794.117	605.518
412.482	23.103	793.314	605.099
413.496	23.170	792.845	604.916
414.511	23.143	792.866	604.787
415.526	23.259	792.224	604.640
416.540	23.080	791.934	603.754
417.555	23.001	791.481	603.088
418.569	22.879	790.829	602.120
419.584	22.930	790.425	601.935
420.599	23.179	789.781	602.239
421.613	165.374	1370.051	1797.945
422.628	143.385	1454.572	1798.015
