DTS Sentinel unit serial number:	SN413079Multiplexer serial number:	ORYXHardware model number:	OX4-SRSoftware version number:	ORYX F/W v4.00 Oryx Data Collector v3.7.2.0data status	okinstallation	princeton_trtdifferential loss correction	single-endedforward channel	channel 3reverse channel	N/Adate	2019/09/16time	01:24:35forward acquisition time	60.00reverse acquisition time	0.00gamma	496.2192k internal	0.2337k external	0.2337temperature offset calibration	0.9951default loss term (dB/km)	0.3790temperature slope calibration	1.0000multiplexer offset coefficient	1.0000multiplexer slope coefficient	1.0000fibre end	0.00T internal ref (°C)	27.27T ext. ref 1 (°C)	9.89T ext. ref 2 (°C)	21.86length (m)	temperature (°C)	Stokes	anti-Stokes-747.200	-200.000	-0.031	-0.204
-746.185	800.000	-0.022	-0.093
-745.171	99.750	0.224	0.261
-744.156	-155.700	0.067	-0.004
-743.142	-99.319	0.226	0.057
-742.127	-136.015	0.064	-0.008
-741.112	269.224	-0.145	0.255
-740.098	111.915	-0.196	0.238
-739.083	-117.071	-0.288	-0.053
-738.069	203.705	-0.205	0.319
-737.054	-126.963	0.149	-0.022
-736.039	-60.027	-0.255	0.109
-735.025	31.747	0.184	0.159
-734.010	-129.893	-0.099	0.014
-732.996	23.600	-0.100	-0.083
-731.981	800.000	-0.023	0.091
-730.966	-50.571	-0.122	-0.058
-729.952	67.730	0.294	-0.302
-728.937	-21.597	0.177	0.108
-727.923	800.000	-0.061	-0.252
-726.908	3.825	-0.242	0.177
-725.894	173.457	-0.135	0.195
-724.879	29.405	0.377	0.321
-723.864	212.196	-0.075	-0.119
-722.850	-35.500	-0.157	-0.086
-721.835	-61.574	0.076	-0.032
-720.821	0.505	-0.130	0.093
-719.806	-48.760	0.225	-0.108
-718.791	243.913	-0.040	-0.067
-717.777	-200.000	0.027	0.452
-716.762	34.489	-0.189	-0.166
-715.748	-67.408	-0.085	0.034
-714.733	253.382	0.043	0.073
-713.718	-52.427	-0.253	0.117
-712.704	18.011	-0.368	0.294
-711.689	-58.976	0.143	0.062
-710.675	-200.000	-0.008	0.064
-709.660	-200.000	-0.053	0.241
-708.645	27.403	-0.116	0.097
-707.631	110.649	-0.066	0.079
-706.616	-200.000	-0.026	0.199
-705.602	800.000	0.054	-0.215
-704.587	-200.000	0.027	-0.160
-703.572	-52.992	-0.312	0.144
-702.558	-200.000	0.080	-0.418
-701.543	800.000	-0.026	-0.096
-700.529	-150.566	-0.163	-0.013
-699.514	7.741	-0.263	0.197
-698.499	-200.000	-0.004	-0.072
-697.485	-200.000	-0.003	0.275
-696.470	-7.807	-0.411	-0.278
-695.456	-190.813	0.193	0.002
-694.441	-117.155	-0.226	0.041
-693.426	-200.000	-0.027	-0.377
-692.412	-200.000	0.026	-0.498
-691.397	-135.717	0.233	0.028
-690.383	-62.709	0.356	0.148
-689.368	95.156	0.100	-0.114
-688.354	-200.000	-0.016	-0.100
-687.339	288.942	0.164	-0.299
-686.324	733.559	0.100	0.267
-685.310	-7.708	0.347	-0.235
-684.295	-78.956	0.186	0.063
-683.281	-89.770	-0.277	0.081
-682.266	-46.896	-0.218	0.107
-681.251	589.375	-0.149	0.368
-680.237	-40.927	-0.323	-0.167
-679.222	88.759	-0.047	0.052
-678.208	153.206	-0.140	0.192
-677.193	234.201	0.153	-0.253
-676.178	4.788	-0.190	-0.140
-675.164	800.000	-0.043	-0.146
-674.149	462.441	-0.153	-0.341
-673.135	-200.000	-0.128	-0.686
-672.120	-12.441	-0.114	0.074
-671.105	134.065	0.183	0.238
-670.091	-50.360	-0.058	-0.028
-669.076	800.000	0.035	0.139
-668.062	662.505	-0.063	0.162
-667.047	82.246	0.033	-0.036
-666.032	-167.376	-0.146	0.006
-665.018	800.000	-0.021	0.089
-664.003	-200.000	0.014	0.122
-662.989	136.311	0.049	-0.064
-661.974	-200.000	0.028	0.427
-660.959	-53.329	-0.153	0.070
-659.945	520.171	0.079	-0.185
-658.930	-23.549	0.213	-0.128
-657.916	22.978	-0.258	-0.212
-656.901	-150.076	-0.122	-0.010
-655.886	800.000	-0.033	-0.105
-654.872	49.120	-0.085	-0.080
-653.857	800.000	-0.049	-0.134
-652.843	-17.995	-0.128	0.080
-651.828	141.683	0.122	-0.162
-650.814	-76.570	0.204	0.072
-649.799	-200.000	0.031	-0.237
-648.784	-200.000	0.042	-0.504
-647.770	224.841	0.132	-0.213
-646.755	71.412	-0.260	-0.270
-645.741	-6.087	0.158	0.108
-644.726	60.299	-0.214	-0.212
-643.711	23.075	-0.145	-0.119
-642.697	-200.000	0.021	-0.289
-641.682	208.429	-0.175	-0.273
-640.668	-153.619	-0.557	0.038
-639.653	76.841	0.226	0.239
-638.638	227.395	-0.110	0.178
-637.624	-15.866	-0.130	-0.083
-636.609	19.399	0.259	0.208
-635.595	246.707	-0.101	0.170
-634.580	-200.000	0.012	-0.309
-633.565	-88.492	-0.229	-0.068
-632.551	-200.000	0.008	0.059
-631.536	-200.000	0.009	-0.161
-630.522	244.051	0.146	-0.245
-629.507	-200.000	0.032	0.179
-628.492	-163.006	-0.117	-0.006
-627.478	96.328	0.074	0.084
-626.463	-109.956	-0.132	-0.028
-625.449	313.599	-0.077	0.145
-624.434	3.666	-0.112	0.081
-623.419	-63.099	0.182	-0.075
-622.405	26.816	-0.081	-0.068
-621.390	800.000	-0.095	0.313
-620.376	-41.897	0.219	0.112
-619.361	-78.284	0.535	0.184
-618.346	-78.288	0.121	-0.042
-617.332	-200.000	-0.062	0.306
-616.317	246.789	-0.063	0.105
-615.303	140.874	-0.108	0.142
-614.288	-200.000	-0.026	-0.475
-613.273	396.604	-0.142	-0.295
-612.259	271.727	0.159	-0.280
-611.244	-73.238	-0.266	0.097
-610.230	26.865	-0.171	0.143
-609.215	44.212	0.023	0.021
-608.201	-130.599	0.200	0.027
-607.186	-148.766	-0.101	-0.008
-606.171	282.514	-0.037	-0.067
-605.157	800.000	-0.036	-0.124
-604.142	800.000	-0.078	-0.284
-603.128	142.316	-0.051	-0.067
-602.113	161.399	-0.119	-0.166
-601.098	-200.000	-0.007	0.143
-600.084	715.260	0.126	-0.333
-599.069	-105.509	-0.215	-0.049
-598.055	493.673	-0.097	-0.222
-597.040	289.974	0.177	-0.321
-596.025	-6.055	0.317	-0.216
-595.011	-200.000	-0.003	0.049
-593.996	-87.611	-0.110	-0.033
-592.982	220.486	0.142	-0.227
-591.967	800.000	-0.043	0.182
-590.952	-6.268	0.206	-0.140
-589.938	-200.000	-0.028	-0.258
-588.923	200.671	0.084	-0.129
-587.909	192.753	-0.109	-0.164
-586.894	-144.760	0.126	0.012
-585.879	800.000	-0.041	0.130
-584.865	800.000	-0.082	-0.246
-583.850	-69.625	-0.413	-0.158
-582.836	-43.485	-0.159	0.080
-581.821	800.000	-0.035	-0.097
-580.806	205.793	-0.040	-0.061
-579.792	91.933	0.349	-0.392
-578.777	482.851	-0.166	-0.376
-577.763	54.240	-0.268	-0.257
-576.748	-200.000	-0.008	-0.144
-575.733	-47.066	0.186	0.091
-574.719	800.000	-0.113	0.347
-573.704	800.000	-0.023	-0.098
-572.690	328.855	-0.099	0.189
-571.675	-37.838	0.194	-0.103
-570.661	82.051	0.330	0.356
-569.646	-35.911	0.401	-0.217
-568.631	-53.645	0.333	0.151
-567.617	56.920	-0.233	0.226
-566.602	302.903	0.037	-0.068
-565.588	-200.000	0.003	0.043
-564.573	398.516	0.174	-0.362
-563.558	-23.307	0.106	0.063
-562.544	-124.015	-0.193	-0.030
-561.529	-130.348	0.354	0.048
-560.515	-200.000	-0.035	0.393
-559.500	-117.481	0.197	0.035
-558.485	353.777	-0.200	0.396
-557.471	-79.996	-0.381	-0.128
-556.456	-107.950	0.169	0.037
-555.442	-118.320	0.290	-0.051
-554.427	-107.506	0.289	0.063
-553.412	-133.931	0.153	-0.019
-552.398	-130.282	0.146	0.020
-551.383	-164.308	0.269	0.012
-550.369	577.006	-0.063	-0.154
-549.354	115.927	-0.135	-0.164
-548.339	-106.948	-0.229	-0.050
-547.325	34.861	0.047	0.041
-546.310	215.827	-0.180	0.284
-545.296	33.977	-0.115	0.100
-544.281	-146.366	-0.258	0.022
-543.266	106.247	0.182	-0.215
-542.252	-159.313	0.095	0.005
-541.237	-78.064	-0.324	0.111
-540.223	298.318	-0.074	0.136
-539.208	26.942	0.054	-0.045
-538.193	-165.589	-0.183	-0.008
-537.179	45.155	-0.148	0.136
-536.164	-170.348	0.215	0.008
-535.150	-55.868	0.098	0.044
-534.135	-26.450	-0.135	-0.079
-533.121	-46.037	0.219	0.107
-532.106	-200.000	-0.040	-0.239
-531.091	800.000	-0.046	-0.130
-530.077	48.255	-0.190	-0.177
-529.062	-52.288	-0.127	-0.058
-528.048	-67.918	-0.134	-0.052
-527.033	261.877	-0.089	-0.153
-526.018	210.347	-0.180	0.281
-525.004	-35.600	0.223	-0.121
-523.989	-200.000	0.036	-0.182
-522.975	290.355	-0.054	0.097
-521.960	503.058	-0.061	-0.141
-520.945	800.000	-0.054	-0.212
-519.931	-150.528	-0.167	0.013
-518.916	-132.327	-0.249	-0.032
-517.902	-154.521	0.095	-0.006
-516.887	602.587	-0.147	-0.365
-515.872	7.473	-0.095	-0.071
-514.858	385.234	0.094	0.192
-513.843	800.000	0.074	0.219
-512.829	-12.158	-0.042	0.027
-511.814	298.428	0.047	0.086
-510.799	-200.000	-0.033	0.233
-509.785	3.357	-0.078	-0.056
-508.770	14.348	0.087	-0.068
-507.756	800.000	-0.109	-0.350
-506.741	-90.570	-0.313	-0.090
-505.726	-200.000	-0.061	-0.412
-504.712	-200.000	-0.066	0.411
-503.697	800.000	-0.001	0.003
-502.683	-200.000	0.006	0.098
-501.668	-130.104	0.249	-0.034
-500.653	-30.333	0.170	-0.096
-499.639	-200.000	0.074	0.341
-498.624	-60.832	0.531	0.224
-497.610	-200.000	0.029	0.263
-496.595	58.074	0.056	-0.055
-495.581	99.638	-0.142	0.164
-494.566	-200.000	-0.048	-0.242
-493.551	800.000	-0.041	0.134
-492.537	-123.585	0.033	-0.005
-491.522	210.552	0.029	0.045
-490.508	612.474	-0.092	0.228
-489.493	-200.000	0.066	0.376
-488.478	496.858	-0.065	0.148
-487.464	273.741	0.062	0.108
-486.449	-78.363	0.202	-0.069
-485.435	800.000	0.071	0.236
-484.420	-130.432	-0.128	-0.017
-483.405	-200.000	0.055	0.242
-482.391	106.799	0.041	-0.049
-481.376	-200.000	0.006	0.097
-480.362	-84.522	-0.155	-0.049
-479.347	-46.364	0.292	-0.143
-478.332	-3.646	0.088	-0.061
-477.318	-48.174	-0.338	-0.162
-476.303	-200.000	-0.011	0.265
-475.289	-4.362	0.328	-0.226
-474.274	56.480	0.088	0.085
-473.259	-200.000	-0.024	-0.226
-472.245	14.624	-0.124	0.097
-471.230	-130.604	0.250	0.033
-470.216	65.225	0.114	-0.115
-469.201	800.000	-0.095	-0.349
-468.186	-96.016	-0.155	0.041
-467.172	-8.832	0.295	-0.196
-466.157	-108.637	-0.343	-0.073
-465.143	40.688	-0.096	-0.086
-464.128	-183.365	0.127	0.002
-463.113	152.215	0.176	-0.239
-462.099	-144.788	-0.120	0.011
-461.084	-41.733	-0.224	0.114
-460.070	104.890	-0.129	0.151
-459.055	-123.555	0.139	-0.022
-458.040	-200.000	-0.039	0.377
-457.026	-65.178	0.155	0.062
-456.011	-173.630	0.358	0.011
-454.997	800.000	0.093	-0.308
-453.982	213.560	0.112	-0.176
-452.968	90.511	0.028	0.031
-451.953	13.426	0.114	-0.088
-450.938	-114.163	-0.253	0.049
-449.924	-32.918	0.134	0.074
-448.909	-10.179	-0.180	0.118
-447.895	26.051	-0.115	0.095
-446.880	-200.000	0.042	0.212
-445.865	-136.644	-0.089	0.010
-444.851	67.222	0.113	0.114
-443.836	746.542	-0.086	-0.231
-442.822	99.444	0.141	-0.162
-441.807	45.264	-0.115	0.105
-440.792	-114.676	-0.461	-0.088
-439.778	75.393	0.167	0.175
-438.763	283.142	-0.058	0.104
-437.749	-42.792	-0.390	-0.197
-436.734	-200.000	0.032	-0.286
-435.719	-160.301	-0.228	-0.012
-434.705	112.572	0.142	0.170
-433.690	-200.000	-0.031	0.449
-432.676	161.844	0.065	0.091
-431.661	-200.000	0.041	-0.277
-430.646	-125.181	-0.297	-0.045
-429.632	-200.000	-0.007	-0.059
-428.617	122.382	0.188	-0.233
-427.603	575.213	0.125	-0.302
-426.588	29.586	-0.129	0.109
-425.573	-200.000	-0.025	-0.156
-424.559	64.019	0.113	-0.113
-423.544	21.590	-0.135	-0.109
-422.530	559.129	-0.154	-0.369
-421.515	-95.523	0.262	-0.070
-420.500	177.478	-0.133	0.192
-419.486	-83.974	0.206	0.065
-418.471	-200.000	-0.018	0.252
-417.457	101.022	0.058	0.067
-416.442	-57.346	0.202	0.088
-415.428	-66.820	-0.380	-0.149
-414.413	-78.774	0.216	-0.073
-413.398	671.357	0.089	-0.228
-412.384	-35.433	0.093	-0.050
-411.369	800.000	0.027	-0.085
-410.355	-200.000	-0.004	-0.153
-409.340	-107.527	-0.243	-0.053
-408.325	-36.630	-0.241	0.128
-407.311	-74.682	-0.181	0.064
-406.296	266.559	-0.143	0.247
-405.282	-119.278	0.118	-0.020
-404.267	-200.000	-0.013	-0.179
-403.252	-200.000	-0.019	0.352
-402.238	-84.766	-0.223	0.069
-401.223	-168.390	0.200	-0.008
-400.209	61.519	0.292	-0.287
-399.194	-146.355	0.277	0.024
-398.179	96.621	0.073	0.083
-397.165	-76.182	-0.240	-0.084
-396.150	-200.000	-0.019	0.207
-395.136	372.650	-0.200	0.402
-394.121	-200.000	0.096	0.441
-393.106	36.549	-0.258	-0.226
-392.092	390.422	0.155	-0.318
-391.077	-200.000	0.005	-0.292
-390.063	17.313	-0.432	0.339
-389.048	800.000	-0.065	0.207
-388.033	-86.043	-0.280	-0.086
-387.019	99.020	-0.162	-0.185
-386.004	347.028	-0.221	0.431
-384.990	-54.092	0.145	0.065
-383.975	74.056	0.203	0.211
-382.960	-200.000	-0.047	0.221
-381.946	-110.042	-0.341	-0.071
-380.931	560.655	0.203	0.486
-379.917	471.728	-0.202	0.451
-378.902	-200.000	0.016	0.300
-377.888	121.096	0.128	-0.158
-376.873	602.000	0.069	0.170
-375.858	9.734	0.019	0.014
-374.844	152.241	0.103	-0.139
-373.829	-200.000	0.038	0.246
-372.815	-200.000	0.035	0.328
-371.800	-200.000	0.056	-0.253
-370.785	-98.363	0.156	-0.040
-369.771	-200.000	-0.032	-0.275
-368.756	8.024	0.129	-0.096
-367.742	800.000	0.085	-0.286
-366.727	-56.741	0.059	-0.026
-365.712	-65.569	-0.298	-0.118
-364.698	-12.238	-0.153	0.099
-363.683	81.920	-0.090	0.097
-362.669	-200.000	0.017	-0.256
-361.654	-124.443	-0.396	-0.061
-360.639	-51.250	0.033	0.015
-359.625	-200.000	-0.088	0.475
-358.610	-200.000	-0.060	0.500
-357.596	-134.726	-0.398	0.048
-356.581	162.329	-0.068	-0.094
-355.566	-200.000	-0.016	0.270
-354.552	-71.539	0.186	0.069
-353.537	-47.994	-0.189	0.091
-352.523	278.919	-0.032	0.057
-351.508	228.114	0.126	-0.204
-350.493	56.419	0.057	-0.054
-349.479	194.604	0.087	0.130
-348.464	-29.427	0.314	-0.177
-347.450	-39.519	-0.134	0.069
-346.435	-80.255	-0.314	0.104
-345.420	446.041	-0.064	0.139
-344.406	324.150	0.201	0.379
-343.391	84.252	0.079	0.086
-342.377	285.248	0.178	-0.317
-341.362	-200.000	0.027	0.281
-340.348	412.924	-0.127	0.267
-339.333	-101.510	0.239	0.057
-338.318	224.405	-0.032	-0.051
-337.304	243.514	-0.128	-0.213
-336.289	-200.000	-0.020	-0.123
-335.275	129.247	-0.145	-0.183
-334.260	190.759	-0.194	-0.288
-333.245	-82.078	0.210	-0.068
-332.231	-200.000	0.029	0.161
-331.216	-59.081	0.199	0.085
-330.202	61.700	-0.044	0.044
-329.187	132.609	0.209	-0.266
-328.172	-149.286	-0.155	-0.012
-327.158	-53.881	0.123	0.055
-326.143	279.793	-0.159	0.280
-325.129	43.012	0.251	0.226
-324.114	-200.000	0.033	0.296
-323.099	-92.269	-0.163	0.045
-322.085	-131.289	-0.213	-0.028
-321.070	544.302	0.072	-0.169
-320.056	-200.000	0.003	0.244
-319.041	-200.000	-0.003	-0.153
-318.026	800.000	0.119	0.348
-317.012	40.775	-0.139	0.123
-315.997	-96.852	0.205	-0.053
-314.983	800.000	-0.083	0.231
-313.968	-131.858	0.012	-0.002
-312.953	-142.852	0.131	0.013
-311.939	179.605	0.106	-0.153
-310.924	64.480	0.225	-0.224
-309.910	169.593	0.342	-0.483
-308.895	-77.481	0.227	-0.078
-307.880	-200.000	0.014	0.123
-306.866	130.877	-0.168	-0.213
-305.851	-67.360	0.205	-0.079
-304.837	745.531	0.094	0.250
-303.822	800.000	0.044	-0.174
-302.807	429.335	-0.241	-0.514
-301.793	-110.195	-0.511	-0.105
-300.778	-164.883	-0.234	0.010
-299.764	123.149	-0.155	0.192
-298.749	42.409	0.216	0.194
-297.735	-143.973	0.191	-0.018
-296.720	-14.759	0.052	-0.033
-295.705	-100.837	-0.070	-0.017
-294.691	-200.000	0.057	-0.376
-293.676	800.000	-0.048	-0.166
-292.662	-200.000	-0.006	0.076
-291.647	690.150	0.061	-0.157
-290.632	-88.981	-0.046	0.013
-289.618	-200.000	-0.009	0.052
-288.603	-94.528	0.090	-0.024
-287.589	428.835	0.028	0.059
-286.574	800.000	-0.051	-0.180
-285.559	91.784	0.199	0.221
-284.545	800.000	0.142	0.435
-283.530	-141.437	0.200	0.020
-282.516	719.570	-0.039	0.103
-281.501	-31.759	0.306	0.169
-280.486	-78.101	0.101	0.034
-279.472	109.206	0.209	0.247
-278.457	-81.643	-0.321	-0.104
-277.443	800.000	-0.008	0.029
-276.428	170.708	-0.184	-0.260
-275.413	84.943	-0.047	-0.051
-274.399	-200.000	-0.166	0.001
-273.384	800.000	-0.102	0.330
-272.370	692.388	0.096	-0.248
-271.355	433.352	-0.090	-0.193
-270.340	800.000	0.027	0.088
-269.326	145.392	-0.129	0.170
-268.311	118.002	0.152	-0.184
-267.297	-120.817	0.272	-0.045
-266.282	64.123	-0.301	-0.299
-265.267	262.003	0.170	-0.290
-264.253	374.187	-0.114	0.229
-263.238	800.000	0.038	-0.121
-262.224	-129.852	-0.187	0.025
-261.209	-5.103	0.174	0.118
-260.195	40.214	0.081	-0.072
-259.180	-75.146	-0.305	0.107
-258.165	-200.000	-0.062	0.292
-257.151	-125.473	-0.247	0.037
-256.136	389.247	0.078	0.160
-255.122	56.352	-0.064	-0.061
-254.107	-200.000	-0.044	0.252
-253.092	-200.000	-0.044	-0.228
-252.078	344.595	-0.138	-0.266
-251.063	-54.725	-0.104	0.046
-250.049	-34.651	0.161	-0.087
-249.034	800.000	0.061	-0.197
-248.019	-90.417	0.188	-0.054
-247.005	-107.643	-0.306	-0.066
-245.990	-123.824	-0.141	-0.022
-244.976	800.000	-0.072	-0.297
-243.961	111.411	-0.113	0.134
-242.946	-200.000	-0.012	0.091
-241.932	-72.300	-0.451	-0.165
-240.917	126.142	0.020	-0.025
-239.903	-61.224	0.043	0.018
-238.888	-200.000	0.032	0.455
-237.873	800.000	-0.066	0.280
-236.859	800.000	0.052	0.210
-235.844	-200.000	-0.020	0.149
-234.830	800.000	0.077	0.269
-233.815	51.825	0.215	-0.201
-232.800	287.462	-0.129	0.229
-231.786	-90.358	-0.242	-0.069
-230.771	-200.000	0.033	0.402
-229.757	-187.234	0.195	0.003
-228.742	800.000	-0.039	0.135
-227.727	-98.602	0.234	-0.059
-226.713	-200.000	-0.007	-0.274
-225.698	-200.000	0.003	-0.066
-224.684	95.321	-0.269	-0.302
-223.669	539.656	0.099	-0.231
-222.655	-154.863	0.260	0.017
-221.640	320.537	0.219	0.409
-220.625	100.685	0.140	0.160
-219.611	-113.619	0.396	-0.076
-218.596	-43.096	0.217	-0.108
-217.582	-35.101	0.060	-0.032
-216.567	-200.000	-0.006	-0.216
-215.552	-200.000	-0.030	-0.187
-214.538	800.000	0.051	-0.205
-213.523	-27.978	0.123	-0.070
-212.509	427.246	-0.068	0.143
-211.494	-70.548	0.104	-0.039
-210.479	-200.000	-0.029	0.126
-209.465	-200.000	-0.013	-0.513
-208.450	-176.277	-0.169	-0.004
-207.436	-200.000	0.039	0.177
-206.421	-115.524	-0.270	-0.050
-205.406	800.000	0.110	0.317
-204.392	559.762	0.122	-0.289
-203.377	800.000	-0.101	-0.430
-202.363	-26.879	-0.337	0.193
-201.348	264.664	0.084	0.144
-200.333	-33.948	-0.083	0.045
-199.319	9.671	0.174	-0.130
-198.304	-117.903	0.286	0.050
-197.290	-200.000	0.011	0.285
-196.275	-132.307	0.217	-0.028
-195.260	426.884	0.102	-0.217
-194.246	38.476	0.067	-0.058
-193.231	-200.000	-0.071	0.329
-192.217	800.000	0.035	-0.135
-191.202	143.297	-0.040	0.053
-190.187	-147.948	0.085	0.007
-189.173	-144.102	-0.272	0.025
-188.158	-200.000	-0.007	0.322
-187.144	437.732	0.042	-0.090
-186.129	-39.050	0.282	-0.146
-185.114	800.000	0.099	-0.334
-184.100	-78.570	-0.242	0.081
-183.085	66.444	0.172	-0.172
-182.071	-200.000	0.069	0.346
-181.056	449.051	0.080	0.174
-180.042	-166.298	-0.144	-0.006
-179.027	18.375	0.366	0.287
-178.012	800.000	-0.109	-0.307
-176.998	338.897	0.128	-0.245
-175.983	-200.000	0.040	0.376
-174.969	-101.001	-0.250	0.060
-173.954	-13.872	0.270	0.171
-172.939	-106.185	0.107	0.024
-171.925	800.000	-0.086	0.259
-170.910	-89.732	-0.397	0.114
-169.896	-85.949	-0.291	-0.088
-168.881	-2.976	0.117	-0.080
-167.866	95.212	-0.074	0.083
-166.852	19.394	0.075	-0.059
-165.837	-130.979	0.286	0.037
-164.823	-200.000	0.037	-0.218
-163.808	-84.831	0.150	0.046
-162.793	169.126	0.155	0.217
-161.779	133.204	0.225	0.285
-160.764	-96.258	0.166	-0.043
-159.750	74.157	-0.027	-0.027
-158.735	-97.949	0.224	0.057
-157.720	154.708	-0.110	0.148
-156.706	-200.000	0.052	-0.375
-155.691	83.944	0.033	0.035
-154.677	105.095	0.229	0.265
-153.662	800.000	-0.033	0.112
-152.647	-200.000	-0.146	-0.001
-151.633	-44.190	-0.206	0.101
-150.618	-79.709	0.249	-0.082
-149.604	800.000	0.009	-0.038
-148.589	-114.174	0.208	0.039
-147.574	328.294	-0.157	0.295
-146.560	36.936	-0.071	0.062
-145.545	-200.000	-0.052	0.238
-144.531	800.000	-0.086	0.309
-143.516	495.519	-0.191	-0.431
-142.502	191.090	-0.103	0.152
-141.487	13.883	-0.108	-0.083
-140.472	240.499	0.179	-0.292
-139.458	-200.000	-0.040	0.350
-138.443	32.921	0.338	0.287
-137.429	-88.001	-0.308	0.091
-136.414	-25.814	0.052	0.030
-135.399	-18.200	0.125	-0.076
-134.385	27.552	0.285	-0.235
-133.370	-200.000	0.006	0.096
-132.356	800.000	0.039	0.156
-131.341	258.336	-0.165	0.279
-130.326	-200.000	0.029	0.146
-129.312	-200.000	-0.005	0.088
-128.297	32.763	-0.239	-0.202
-127.283	-95.149	0.189	-0.050
-126.268	-11.748	0.095	-0.061
-125.253	-115.140	-0.500	0.093
-124.239	6.323	0.133	0.096
-123.224	-61.196	-0.188	0.078
-122.210	-199.570	0.364	-0.002
-121.195	74.906	0.153	0.158
-120.180	14.730	0.169	-0.129
-119.166	-0.599	-0.294	-0.204
-118.151	225.737	0.161	0.255
-117.137	-170.765	-0.523	0.018
-116.122	-133.553	-0.245	0.030
-115.107	-29.602	-0.181	0.101
-114.093	218.199	-0.192	-0.300
-113.078	-81.176	0.230	-0.074
-112.064	-131.732	-0.119	-0.015
-111.049	-81.781	-0.125	0.040
-110.034	-20.071	-0.078	0.047
-109.020	245.094	0.134	-0.221
-108.005	-87.060	0.346	-0.103
-106.991	-200.000	-0.010	0.102
-105.976	363.337	-0.081	-0.160
-104.962	77.444	0.045	0.047
-103.947	-200.000	0.048	-0.289
-102.932	-200.000	0.006	0.037
-101.918	800.000	-0.040	-0.144
-100.903	53.334	0.189	-0.177
-99.889	66.958	0.307	-0.306
-98.874	333.928	0.101	-0.190
-97.859	-94.105	-0.446	0.120
-96.845	-200.000	-0.041	-0.205
-95.830	-49.031	0.226	-0.106
-94.816	181.066	-0.081	0.117
-93.801	-67.245	0.210	0.081
-92.786	-33.115	0.084	-0.046
-91.772	-200.000	-0.014	0.230
-90.757	-200.000	0.045	0.273
-89.743	8.325	0.081	0.059
-88.728	-164.860	-0.293	0.013
-87.713	-200.000	0.002	0.061
-86.699	425.124	-0.041	0.086
-85.684	119.129	0.017	-0.020
-84.670	689.630	0.074	0.189
-83.655	-200.000	0.012	0.129
-82.640	128.544	0.118	0.147
-81.626	-74.500	-0.317	-0.112
-80.611	-56.717	0.237	0.102
-79.597	-200.000	-0.037	0.236
-78.582	124.434	-0.243	-0.299
-77.567	283.711	-0.136	-0.239
-76.553	376.401	0.163	0.326
-75.538	-115.410	-0.169	-0.031
-74.524	-129.905	0.096	0.013
-73.509	800.000	-0.119	-0.453
-72.494	-95.151	0.100	0.026
-71.480	800.000	-0.119	-0.336
-70.465	25.800	-0.191	-0.155
-69.451	-117.392	-0.185	-0.033
-68.436	599.952	-0.061	-0.148
-67.422	42.299	0.194	-0.173
-66.407	73.429	-0.188	-0.193
-65.392	9.174	0.197	0.146
-64.378	-200.000	0.033	0.323
-63.363	-31.522	-0.060	0.033
-62.349	-120.788	-0.050	-0.008
-61.334	110.033	-1.155	-1.355
-60.319	5.821	0.603	0.436
-59.305	800.000	-0.325	-1.219
-58.290	225.829	0.776	1.229
-57.276	800.000	0.640	1.873
-56.261	-200.000	114.326	644.332
-55.246	475.787	1501.963	3314.788
-54.232	149.500	2662.920	3523.664
-53.217	102.099	2162.864	2467.402
-52.203	37.444	1692.496	1466.131
-51.188	30.360	1509.831	1259.968
-50.173	28.104	1485.558	1224.580
-49.159	51.610	1543.182	1433.096
-48.144	50.507	1558.358	1439.615
-47.130	30.491	1515.690	1265.549
-46.115	27.542	1500.000	1232.490
-45.100	27.259	1496.905	1227.990
-44.086	27.220	1495.033	1226.138
-43.071	27.225	1492.912	1224.386
-42.057	27.289	1491.606	1223.696
-41.042	27.277	1490.008	1222.258
-40.027	27.272	1488.546	1220.973
-39.013	27.129	1486.913	1218.627
-37.998	27.181	1485.789	1218.005
-36.984	27.255	1484.996	1217.803
-35.969	27.250	1483.162	1216.215
-34.954	27.245	1481.811	1215.027
-33.940	27.290	1479.981	1213.783
-32.925	27.215	1479.053	1212.471
-31.911	27.312	1477.726	1211.977
-30.896	27.265	1476.496	1210.614
-29.881	27.333	1475.406	1210.122
-28.867	27.292	1473.997	1208.642
-27.852	27.237	1472.916	1207.343
-26.838	27.329	1471.054	1206.383
-25.823	27.350	1469.507	1205.207
-24.809	27.308	1468.190	1203.795
-23.794	27.299	1467.085	1202.786
-22.779	27.248	1465.672	1201.239
-21.765	27.296	1464.882	1200.862
-20.750	27.317	1463.177	1199.559
-19.736	27.250	1462.242	1198.304
-18.721	27.353	1460.917	1197.845
-17.706	27.258	1460.070	1196.480
-16.692	27.295	1459.141	1195.914
-15.677	27.329	1458.006	1195.162
-14.663	27.284	1457.054	1194.039
-13.648	27.214	1456.816	1193.333
-12.633	27.273	1455.197	1192.347
-11.619	27.350	1454.336	1192.096
-10.604	27.286	1453.959	1191.322
-9.590	27.245	1453.075	1190.280
-8.575	27.195	1452.317	1189.290
-7.560	27.171	1451.295	1188.249
-6.546	27.350	1450.002	1188.307
-5.531	27.265	1449.614	1187.391
-4.517	27.193	1448.578	1186.023
-3.502	27.304	1447.385	1185.725
-2.487	27.239	1446.310	1184.370
-1.473	27.197	1445.608	1183.481
-0.458	27.247	1444.392	1182.763
0.556	25.597	1434.809	1171.701
1.571	22.793	1410.397	1133.683
2.586	19.538	1350.582	1065.451
3.600	18.191	1268.685	992.941
4.615	17.239	1223.736	952.345
5.629	16.304	1171.184	906.353
6.644	13.214	1095.110	831.870
7.659	10.386	1060.934	792.034
8.673	10.025	1056.023	786.542
9.688	9.922	1052.342	783.228
10.702	9.770	1051.138	781.527
11.717	9.823	1048.695	779.900
12.731	11.055	1048.533	785.658
13.746	14.505	1052.630	805.346
14.761	17.305	1055.975	821.382
15.775	17.718	1055.954	823.288
16.790	17.036	1054.165	818.531
17.804	15.826	1052.197	811.104
18.819	15.084	1049.874	805.670
19.834	14.552	1048.734	802.165
20.848	14.266	1047.498	799.779
21.863	13.935	1047.274	797.947
22.877	13.736	1045.929	795.895
23.892	13.613	1045.000	794.530
24.907	13.586	1044.371	793.850
25.921	13.427	1044.280	792.948
26.936	13.448	1042.991	791.999
27.950	13.515	1042.330	791.748
28.965	13.647	1040.880	791.206
29.980	13.756	1039.554	790.647
30.994	13.703	1038.778	789.736
32.009	13.658	1038.120	788.949
33.023	13.641	1037.341	788.207
34.038	13.710	1036.544	787.861
35.053	13.718	1035.311	786.893
36.067	13.720	1034.176	785.972
37.082	13.568	1033.687	784.809
38.096	13.614	1033.116	784.523
39.111	13.701	1032.554	784.437
40.126	13.696	1031.329	783.417
41.140	13.713	1030.353	782.683
42.155	13.556	1029.150	780.962
43.169	13.424	1028.137	779.505
44.184	13.423	1027.532	778.970
45.199	13.556	1026.025	778.386
46.213	13.495	1024.852	777.138
47.228	13.471	1024.081	776.374
48.242	13.598	1023.198	776.231
49.257	13.650	1022.071	775.549
50.271	13.630	1021.269	774.777
51.286	13.603	1020.418	773.936
52.301	13.579	1019.635	773.162
53.315	13.669	1018.837	772.911
54.330	13.606	1018.276	772.121
55.344	13.497	1016.974	770.560
56.359	13.367	1016.716	769.693
57.374	13.550	1015.262	769.375
58.388	13.447	1014.373	768.151
59.403	13.530	1013.088	767.494
60.417	13.424	1013.188	767.016
61.432	13.460	1012.142	766.320
62.447	13.386	1011.632	765.525
63.461	13.443	1010.100	764.558
64.476	13.395	1009.215	763.601
65.490	13.321	1008.896	762.952
66.505	13.370	1008.114	762.517
67.520	13.422	1007.534	762.249
68.534	13.489	1006.501	761.708
69.549	13.499	1005.326	760.798
70.563	13.401	1004.959	760.003
71.578	13.487	1004.102	759.684
72.593	13.346	1003.535	758.540
73.607	13.306	1002.297	757.357
74.622	13.277	1001.255	756.369
75.636	13.316	1000.118	755.620
76.651	13.198	1000.021	754.939
77.666	13.281	999.262	754.681
78.680	13.339	998.257	754.118
79.695	13.373	997.980	753.999
80.709	13.339	997.253	753.229
81.724	13.465	995.963	752.759
82.739	13.460	995.322	752.184
83.753	13.501	994.825	751.929
84.768	13.557	994.143	751.603
85.782	13.697	993.401	751.607
86.797	13.827	992.238	751.249
87.812	13.705	991.756	750.269
88.826	13.605	990.844	749.060
89.841	13.670	989.669	748.397
90.855	13.559	988.538	746.975
91.870	13.592	988.549	747.068
92.884	13.677	987.339	746.470
93.899	13.719	986.700	746.110
94.914	13.702	985.983	745.423
95.928	13.799	985.378	745.336
96.943	13.900	984.518	745.073
97.957	13.712	983.677	743.527
98.972	13.704	983.048	742.951
99.987	13.775	982.039	742.442
101.001	13.626	981.861	741.575
102.016	13.689	980.610	740.844
103.030	13.791	979.666	740.522
104.045	13.756	978.724	739.587
105.060	13.812	977.914	739.158
106.074	13.739	976.704	737.855
107.089	13.691	975.885	736.956
108.103	13.562	975.201	735.801
109.118	13.598	974.269	735.195
110.133	13.406	973.751	733.889
111.147	13.520	972.530	733.408
112.162	13.457	971.499	732.285
113.176	13.390	971.400	731.848
114.191	13.580	970.045	731.602
115.206	13.551	969.037	730.650
116.220	13.729	968.136	730.693
117.235	13.581	967.516	729.507
118.249	13.506	966.850	728.608
119.264	13.540	966.123	728.149
120.279	13.742	964.811	727.982
121.293	13.479	964.220	726.316
122.308	13.457	963.644	725.720
123.322	13.326	963.192	724.744
124.337	13.579	961.444	724.471
125.352	13.405	960.505	722.937
126.366	13.408	959.436	722.082
127.381	13.518	958.027	721.438
128.395	13.382	957.645	720.494
129.410	13.413	956.559	719.748
130.424	13.453	955.547	719.095
131.439	13.387	954.646	718.071
132.454	13.629	953.688	718.336
133.468	13.608	953.183	717.801
134.483	13.568	952.608	717.131
135.497	13.575	951.730	716.436
136.512	13.663	951.224	716.371
137.527	13.613	950.115	715.258
138.541	13.675	949.294	714.842
139.556	13.656	948.990	714.467
140.570	13.543	948.244	713.358
141.585	13.684	947.265	713.164
142.600	13.762	947.184	713.375
143.614	13.800	946.041	712.617
144.629	13.736	945.371	711.773
145.643	13.848	944.784	711.749
146.658	13.812	943.841	710.822
147.673	13.862	942.937	710.289
148.687	13.757	941.850	708.960
149.702	13.575	941.482	707.842
150.716	13.691	940.249	707.349
151.731	13.593	939.479	706.287
152.746	13.576	938.707	705.572
153.760	13.680	938.007	705.427
154.775	13.700	937.233	704.870
155.789	13.795	936.394	704.579
156.804	13.679	935.937	703.681
157.819	13.937	934.700	703.782
158.833	13.753	934.422	702.731
159.848	13.963	933.358	702.757
160.862	13.933	933.052	702.335
161.877	13.912	932.448	701.730
162.892	13.880	931.426	700.765
163.906	13.772	930.804	699.778
164.921	13.739	930.006	698.977
165.935	13.767	928.890	698.196
166.950	13.701	927.945	697.145
167.964	13.843	926.992	696.963
168.979	13.809	926.034	696.041
169.994	13.871	924.949	695.425
171.008	13.724	924.607	694.488
172.023	13.804	923.428	693.875
173.037	13.880	922.913	693.745
174.052	14.041	922.045	693.703
175.067	13.991	921.558	693.068
176.081	13.940	920.662	692.119
177.096	13.826	919.688	690.849
178.110	13.763	918.948	689.973
179.125	13.921	918.120	689.944
180.140	13.891	917.328	689.164
181.154	13.926	917.147	689.114
182.169	14.032	916.000	688.629
183.183	14.073	915.734	688.540
184.198	14.169	914.761	688.143
185.213	14.161	914.170	687.605
186.227	14.049	913.416	686.515
187.242	14.123	913.107	686.526
188.256	14.174	912.123	685.937
189.271	14.158	911.757	685.533
190.286	14.135	910.844	684.694
191.300	14.062	909.968	683.675
192.315	13.921	909.074	682.362
193.329	13.891	908.690	681.889
194.344	13.983	907.802	681.540
195.359	13.845	907.551	680.727
196.373	13.991	906.902	680.779
197.388	14.031	906.674	680.711
198.402	14.174	905.648	680.463
199.417	14.296	905.332	680.665
200.432	14.202	905.074	680.029
201.446	14.486	904.063	680.365
202.461	14.411	904.013	679.963
203.475	14.466	903.511	679.751
204.490	14.426	902.615	678.852
205.504	14.430	901.908	678.275
206.519	14.310	901.199	677.194
207.534	14.413	900.323	676.895
208.548	14.284	899.807	675.923
209.563	14.297	899.104	675.387
210.577	14.514	898.160	675.498
211.592	14.354	897.904	674.598
212.607	14.401	897.244	674.234
213.621	14.456	896.717	674.001
214.636	14.497	896.095	673.639
215.650	14.513	895.540	673.229
216.665	14.494	894.962	672.654
217.680	14.533	894.336	672.283
218.694	14.598	893.742	672.040
219.709	14.624	893.447	671.862
220.723	14.542	893.070	671.190
221.738	14.605	892.029	670.601
222.753	14.626	891.286	670.069
223.767	14.572	890.623	669.294
224.782	14.610	890.004	668.920
225.796	14.733	889.259	668.796
226.811	14.556	888.814	667.693
227.826	14.780	887.859	667.812
228.840	14.769	887.134	667.164
229.855	14.630	886.408	666.003
230.869	14.684	886.095	665.923
231.884	14.760	885.043	665.379
232.899	14.729	884.490	664.780
233.913	14.518	883.965	663.486
234.928	14.561	883.398	663.174
235.942	14.749	882.476	663.171
236.957	14.602	881.745	661.978
237.972	14.576	881.124	661.352
238.986	14.678	880.375	661.134
240.001	14.708	879.917	660.850
241.015	14.681	879.310	660.230
242.030	14.791	878.728	660.167
243.045	14.740	878.123	659.453
244.059	14.816	877.499	659.226
245.074	14.855	876.801	658.799
246.088	14.864	875.719	657.962
247.103	14.889	875.588	657.903
248.117	14.893	874.711	657.201
249.132	14.999	874.677	657.534
250.147	15.104	873.874	657.284
251.161	15.095	873.211	656.693
252.176	15.163	872.692	656.512
253.190	15.069	871.920	655.505
254.205	15.111	871.431	655.244
255.220	15.267	870.751	655.284
256.234	15.382	869.813	654.968
257.249	15.342	869.092	654.212
258.263	15.268	868.860	653.689
259.278	15.244	868.848	653.530
260.293	15.253	867.961	652.839
261.307	15.326	867.147	652.454
262.322	15.400	866.420	652.137
263.336	15.432	865.716	651.674
264.351	15.490	865.201	651.454
265.366	15.449	864.783	650.922
266.380	15.477	863.996	650.382
267.395	15.334	863.561	649.442
268.409	15.436	862.509	648.989
269.424	15.367	862.035	648.307
270.439	15.443	861.378	648.047
271.453	15.363	860.707	647.178
272.468	15.369	860.122	646.705
273.482	15.469	859.570	646.615
274.497	15.256	859.181	645.447
275.512	15.432	857.990	645.172
276.526	15.385	857.403	644.493
277.541	15.378	856.908	644.035
278.555	15.285	856.640	643.423
279.570	15.522	855.373	643.321
280.585	15.512	855.308	643.179
281.599	15.659	854.538	643.105
282.614	15.619	853.964	642.463
283.628	15.662	853.327	642.090
284.643	15.638	852.891	641.613
285.657	15.733	852.212	641.409
286.672	15.640	851.820	640.701
287.687	15.512	851.463	639.887
288.701	15.714	851.054	640.294
289.716	15.708	850.356	639.688
290.730	15.642	849.418	638.676
291.745	15.628	848.858	638.147
292.760	15.748	848.245	638.085
293.774	15.761	847.672	637.644
294.789	15.714	847.484	637.268
295.803	15.732	846.633	636.642
296.818	15.751	846.102	636.260
297.833	15.747	845.154	635.472
298.847	15.704	844.683	634.901
299.862	15.747	844.354	634.760
300.876	15.971	843.324	634.773
301.891	15.833	842.734	633.753
302.906	15.783	842.628	633.429
303.920	15.968	841.642	633.328
304.935	15.967	840.939	632.740
305.949	15.831	840.713	632.001
306.964	16.021	840.011	632.131
307.979	15.974	838.924	631.082
308.993	16.001	838.598	630.880
310.008	15.898	838.291	630.209
311.022	15.951	838.039	630.161
312.037	16.134	837.108	630.091
313.052	15.988	836.738	629.210
314.066	15.996	836.011	628.638
315.081	15.906	835.516	627.874
316.095	15.868	835.067	627.339
317.110	15.874	834.510	626.888
318.125	15.942	833.922	626.644
319.139	15.868	833.662	626.117
320.154	15.989	832.865	625.915
321.168	15.908	832.258	625.100
322.183	15.956	832.056	625.074
323.197	16.148	831.382	625.222
324.212	16.040	830.516	624.118
325.227	16.114	829.804	623.800
326.241	16.232	829.124	623.671
327.256	16.010	828.930	622.649
328.270	16.059	828.247	622.262
329.285	16.189	827.819	622.364
330.300	16.089	827.236	621.503
331.314	16.169	826.428	621.135
332.329	16.096	825.803	620.341
333.343	16.175	825.545	620.384
334.358	16.280	825.025	620.323
335.373	16.524	824.122	620.483
336.387	16.191	823.703	618.893
337.402	16.104	823.486	618.356
338.416	16.391	822.963	618.961
339.431	16.462	822.247	618.628
340.446	16.560	821.547	618.402
341.460	16.528	821.056	617.861
342.475	16.544	821.029	617.848
343.489	16.589	820.115	617.269
344.504	16.689	819.388	617.032
345.519	16.645	819.172	616.652
346.533	16.698	818.678	616.418
347.548	16.660	818.159	615.836
348.562	16.661	817.733	615.464
349.577	16.536	816.732	614.202
350.592	16.565	816.322	613.945
351.606	16.492	816.254	613.574
352.621	16.475	815.725	613.061
353.635	16.615	815.149	613.080
354.650	16.656	814.616	612.775
355.665	16.495	814.541	612.081
356.679	16.599	813.895	611.917
357.694	16.671	813.426	611.771
358.708	16.575	813.067	611.099
359.723	16.772	812.362	611.225
360.738	16.663	811.477	610.115
361.752	16.721	811.129	610.009
362.767	16.762	810.921	609.946
363.781	16.866	810.379	609.857
364.796	16.879	809.811	609.422
365.810	16.982	809.454	609.471
366.825	17.017	808.998	609.198
367.840	16.921	808.949	608.762
368.854	16.951	808.249	608.292
369.869	16.978	807.683	607.906
370.883	16.863	807.395	607.226
371.898	17.033	806.811	607.339
372.913	17.006	806.092	606.650
373.927	16.937	805.678	606.037
374.942	17.023	805.050	605.817
375.956	17.056	804.137	605.193
376.971	17.159	803.580	605.091
377.986	17.182	803.376	604.966
379.000	17.269	802.687	604.701
380.015	17.081	802.100	603.538
381.029	17.211	801.676	603.627
382.044	17.175	801.526	603.332
383.059	17.184	800.702	602.691
384.073	17.229	799.807	602.123
385.088	17.196	799.466	601.697
386.102	17.191	798.844	601.156
387.117	17.254	798.319	600.933
388.132	17.262	798.064	600.717
389.146	17.187	797.690	600.114
390.161	17.215	797.360	599.912
391.175	17.162	797.281	599.612
392.190	17.299	796.480	599.439
393.205	17.262	796.199	599.044
394.219	17.304	795.721	598.782
395.234	17.214	794.894	597.791
396.248	17.354	794.488	597.924
397.263	17.150	794.259	596.981
398.278	17.162	793.895	596.697
399.292	17.159	793.119	596.051
400.307	17.001	793.080	595.413
401.321	17.233	792.611	595.823
402.336	17.137	792.189	595.116
403.350	17.160	792.354	595.266
404.365	17.223	791.554	594.833
405.380	17.462	790.462	594.796
406.394	17.413	790.261	594.422
407.409	17.312	790.154	593.938
408.423	17.455	789.614	593.977
409.438	17.542	789.140	593.872
410.453	17.521	788.683	593.400
411.467	17.786	787.706	593.535
412.482	17.520	787.926	592.723
413.496	17.608	787.216	592.444
414.511	17.693	786.719	592.312
415.526	17.608	786.506	591.803
416.540	17.701	786.403	591.995
417.555	17.741	785.769	591.607
418.569	17.568	785.381	590.662
419.584	17.615	784.890	590.404
420.599	17.730	784.527	590.474
421.613	111.761	1292.906	1476.088
422.628	95.871	1366.935	1476.206
