DTS Sentinel unit serial number:	SN413079Multiplexer serial number:	ORYXHardware model number:	OX4-SRSoftware version number:	ORYX F/W v4.00 Oryx Data Collector v3.7.2.0data status	okinstallation	princeton_trtdifferential loss correction	single-endedforward channel	channel 3reverse channel	N/Adate	2019/09/18time	11:00:35forward acquisition time	60.00reverse acquisition time	0.00gamma	496.2192k internal	0.2326k external	0.2326temperature offset calibration	0.9953default loss term (dB/km)	0.3790temperature slope calibration	1.0000multiplexer offset coefficient	1.0000multiplexer slope coefficient	1.0000fibre end	0.00T internal ref (°C)	29.31T ext. ref 1 (°C)	0.40T ext. ref 2 (°C)	25.65length (m)	temperature (°C)	Stokes	anti-Stokes-747.200	286.067	0.157	-0.286
-746.185	-93.317	-0.230	-0.064
-745.171	-20.513	0.224	0.139
-744.156	87.067	-0.198	0.221
-743.142	578.876	0.060	0.148
-742.127	-15.138	-0.263	-0.170
-741.112	603.235	0.072	-0.182
-740.098	-135.950	-0.236	-0.028
-739.083	196.526	-0.082	0.126
-738.069	-200.000	-0.068	0.361
-737.054	-56.374	0.190	-0.085
-736.039	-130.035	-0.539	0.074
-735.025	-147.663	0.282	0.024
-734.010	18.885	-0.029	-0.024
-732.996	-200.000	-0.124	-0.564
-731.981	113.130	-0.186	-0.228
-730.966	88.630	0.124	-0.139
-729.952	-200.000	0.010	-0.101
-728.937	800.000	-0.071	-0.214
-727.923	-81.714	-0.103	-0.034
-726.908	59.664	-0.106	0.105
-725.894	135.834	-0.196	-0.257
-724.879	704.105	0.145	-0.385
-723.864	-39.503	0.115	-0.061
-722.850	-165.124	-0.282	0.013
-721.835	727.719	0.184	-0.494
-720.821	-73.467	-0.141	-0.052
-719.806	-200.000	0.036	0.310
-718.791	60.136	0.146	-0.145
-717.777	-121.356	0.143	0.024
-716.762	-41.474	-0.207	-0.108
-715.748	203.535	-0.165	0.258
-714.733	433.241	0.127	-0.277
-713.718	-116.691	-0.011	0.002
-712.704	-68.739	0.127	0.050
-711.689	204.310	-0.156	0.244
-710.675	121.172	-0.285	-0.357
-709.660	-200.000	0.033	-0.172
-708.645	-130.626	-0.136	-0.018
-707.631	-82.508	0.254	-0.083
-706.616	-200.000	0.000	-0.051
-705.602	-200.000	0.041	-0.199
-704.587	36.435	0.178	-0.158
-703.572	-200.000	-0.014	-0.183
-702.558	-200.000	0.024	0.112
-701.543	-42.343	0.153	0.079
-700.529	123.897	0.137	-0.173
-699.514	-134.462	-0.519	0.064
-698.499	73.143	-0.311	0.327
-697.485	-200.000	0.015	0.107
-696.470	-76.711	0.269	-0.095
-695.456	800.000	0.033	-0.096
-694.441	19.554	-0.273	0.221
-693.426	-200.000	-0.008	0.048
-692.412	144.048	0.121	-0.163
-691.397	72.485	-0.063	0.066
-690.383	131.946	0.176	-0.228
-689.368	-200.000	0.039	0.216
-688.354	11.114	0.237	0.182
-687.339	-200.000	0.035	-0.152
-686.324	-66.263	-0.159	-0.063
-685.310	47.678	-0.223	-0.209
-684.295	265.903	0.120	-0.210
-683.281	157.453	-0.146	0.203
-682.266	-87.485	0.081	-0.025
-681.251	-122.863	-0.098	-0.016
-680.237	-200.000	0.010	0.140
-679.222	189.220	-0.128	-0.194
-678.208	24.524	0.074	0.062
-677.193	800.000	-0.080	-0.248
-676.178	-2.373	-0.298	-0.210
-675.164	-19.627	0.311	-0.194
-674.149	800.000	-0.135	-0.462
-673.135	-200.000	0.021	0.277
-672.120	211.948	-0.262	-0.415
-671.105	-22.766	-0.182	-0.110
-670.091	575.275	0.092	-0.226
-669.076	-81.939	0.194	-0.064
-668.062	-146.966	-0.491	0.042
-667.047	-173.677	0.143	0.004
-666.032	-200.000	0.049	-0.306
-665.018	-167.859	0.229	-0.009
-664.003	-6.381	-0.035	0.024
-662.989	99.253	-0.046	-0.053
-661.974	-200.000	-0.012	-0.087
-660.959	226.923	-0.068	0.111
-659.945	303.611	0.035	0.065
-658.930	244.381	0.209	-0.353
-657.916	127.764	-0.315	-0.402
-656.901	-38.953	-0.153	-0.081
-655.886	165.444	-0.099	0.141
-654.872	-95.711	-0.387	-0.104
-653.857	800.000	-0.005	-0.018
-652.843	71.484	-0.195	-0.204
-651.828	442.004	0.195	0.429
-650.814	-30.680	0.228	0.130
-649.799	-116.475	-0.298	-0.055
-648.784	33.120	0.216	-0.188
-647.770	43.727	-0.284	0.261
-646.755	-200.000	-0.068	0.318
-645.741	150.788	0.100	0.137
-644.726	17.392	-0.181	-0.144
-643.711	-49.040	-0.187	0.090
-642.697	-200.000	-0.073	-0.326
-641.682	-200.000	0.012	-0.152
-640.668	-21.141	-0.051	-0.031
-639.653	-1.603	-0.058	0.041
-638.638	-102.143	0.128	-0.031
-637.624	226.319	-0.106	-0.173
-636.609	-38.035	0.157	-0.084
-635.595	-48.953	-0.077	-0.037
-634.580	-200.000	-0.019	0.170
-633.565	262.744	-0.057	-0.099
-632.551	-200.000	0.018	0.214
-631.536	248.586	0.108	0.184
-630.522	-54.646	-0.310	0.141
-629.507	169.674	0.197	0.282
-628.492	-152.667	0.195	0.014
-627.478	-200.000	0.016	-0.136
-626.463	325.639	-0.035	-0.068
-625.449	-36.295	-0.462	-0.250
-624.434	-53.386	-0.060	0.027
-623.419	301.392	-0.065	-0.120
-622.405	-191.727	0.118	0.001
-621.390	-162.887	0.227	0.011
-620.376	-92.897	0.101	0.028
-619.361	-200.000	0.053	-0.300
-618.346	-64.743	-0.187	0.076
-617.332	800.000	-0.122	0.341
-616.317	-128.237	0.515	-0.074
-615.303	62.256	-0.096	0.096
-614.288	-200.000	0.001	-0.446
-613.273	751.543	-0.115	0.312
-612.259	-200.000	0.044	-0.337
-611.244	-11.289	-0.205	-0.136
-610.230	303.638	0.057	0.106
-609.215	211.035	-0.047	-0.073
-608.201	-99.583	0.216	0.054
-607.186	590.716	0.026	0.063
-606.171	267.420	0.063	0.111
-605.157	800.000	-0.153	-0.442
-604.142	-71.240	0.343	0.129
-603.128	-60.026	0.111	0.048
-602.113	150.318	-0.186	0.253
-601.098	38.871	0.053	-0.047
-600.084	413.509	-0.211	0.451
-599.069	-200.000	-0.010	-0.117
-598.055	-153.184	-0.344	-0.024
-597.040	5.676	-0.103	0.076
-596.025	-137.222	-0.307	0.035
-595.011	-27.522	-0.102	0.059
-593.996	-47.329	-0.082	0.040
-592.982	-123.329	-0.154	0.025
-591.967	222.705	-0.185	0.299
-590.952	721.047	0.021	-0.056
-589.938	800.000	-0.005	-0.023
-588.923	727.108	-0.116	-0.310
-587.909	17.117	0.048	0.038
-586.894	269.792	0.158	-0.278
-585.879	-125.875	-0.166	-0.025
-584.865	-26.395	0.400	-0.235
-583.850	-200.000	0.003	-0.088
-582.836	-83.816	0.470	-0.150
-581.821	800.000	-0.049	-0.198
-580.806	98.734	-0.098	-0.113
-579.792	-152.525	0.260	0.019
-578.777	-37.984	0.029	0.015
-577.763	337.626	0.131	-0.256
-576.748	-200.000	0.020	-0.091
-575.733	-162.494	-0.245	0.012
-574.719	-171.246	-0.092	0.003
-573.704	22.475	-0.025	-0.021
-572.690	800.000	0.069	-0.210
-571.675	89.813	0.256	0.287
-570.661	-127.031	-0.324	-0.048
-569.646	405.998	0.055	-0.116
-568.631	191.741	-0.085	-0.128
-567.617	95.524	0.096	0.109
-566.602	-68.871	-0.198	-0.077
-565.588	-187.521	0.265	0.004
-564.573	93.953	0.094	-0.107
-563.558	183.980	-0.099	0.147
-562.544	64.339	-0.127	-0.128
-561.529	-200.000	0.029	-0.187
-560.515	-200.000	0.007	0.033
-559.500	141.306	0.210	-0.278
-558.485	-24.473	0.259	-0.155
-557.471	800.000	-0.049	-0.184
-556.456	-39.301	0.260	-0.136
-555.442	-152.314	0.062	-0.004
-554.427	-177.414	-0.065	0.002
-553.412	401.167	-0.099	0.209
-552.398	51.131	0.144	-0.136
-551.383	-79.906	0.184	-0.062
-550.369	-200.000	0.011	0.150
-549.354	141.420	0.153	0.203
-548.339	-200.000	-0.019	-0.224
-547.325	434.277	0.093	-0.202
-546.310	-149.052	0.199	-0.016
-545.296	-96.344	-0.390	-0.103
-544.281	40.355	0.110	-0.099
-543.266	53.894	-0.212	0.204
-542.252	800.000	-0.133	0.502
-541.237	-65.955	-0.049	-0.020
-540.223	-7.963	0.232	0.157
-539.208	160.657	-0.177	0.247
-538.193	4.047	-0.351	0.257
-537.179	-115.897	-0.082	-0.015
-536.164	-48.316	0.290	0.140
-535.150	-121.085	0.064	-0.011
-534.135	-26.759	0.270	-0.158
-533.121	334.901	-0.050	0.098
-532.106	72.690	-0.142	0.148
-531.091	-13.886	0.060	-0.039
-530.077	-200.000	0.076	-0.388
-529.062	-200.000	0.032	0.344
-528.048	-168.235	-0.141	0.005
-527.033	-200.000	-0.030	0.208
-526.018	322.967	0.164	0.313
-525.004	-6.592	-0.262	0.178
-523.989	800.000	0.074	0.226
-522.975	280.682	0.178	-0.318
-521.960	147.286	0.136	-0.184
-520.945	-162.760	-0.130	0.006
-519.931	299.479	0.132	-0.243
-518.916	-52.387	0.192	-0.089
-517.902	-38.302	0.077	0.041
-516.887	-114.173	0.028	0.005
-515.872	309.256	0.104	0.194
-514.858	-21.426	-0.144	0.088
-513.843	800.000	0.097	0.332
-512.829	1.622	0.232	-0.167
-511.814	-63.031	0.107	0.044
-510.799	800.000	0.035	0.144
-509.785	181.529	0.131	-0.193
-508.770	243.072	-0.072	-0.121
-507.756	800.000	-0.041	-0.168
-506.741	-200.000	0.021	0.126
-505.726	800.000	-0.036	-0.155
-504.712	-143.723	0.313	-0.030
-503.697	103.019	-0.077	-0.090
-502.683	253.050	-0.150	-0.255
-501.668	-59.446	0.175	-0.075
-500.653	-39.392	-0.149	-0.078
-499.639	-200.000	0.076	-0.334
-498.624	220.040	0.244	-0.390
-497.610	-71.428	0.237	0.089
-496.595	135.014	0.185	0.241
-495.581	654.009	-0.145	-0.370
-494.566	61.774	0.166	0.165
-493.551	800.000	0.023	0.093
-492.537	800.000	-0.027	-0.089
-491.522	245.802	0.158	-0.266
-490.508	-39.083	0.300	0.157
-489.493	332.393	-0.076	0.147
-488.478	333.997	0.083	-0.160
-487.464	86.681	0.225	-0.248
-486.449	-56.051	0.108	0.048
-485.435	-200.000	-0.071	0.311
-484.420	174.343	-0.042	-0.060
-483.405	649.580	0.129	0.330
-482.391	476.549	-0.212	0.479
-481.376	-200.000	-0.002	0.095
-480.362	-200.000	-0.005	-0.099
-479.347	-200.000	0.021	-0.385
-478.332	-78.236	-0.416	-0.143
-477.318	-200.000	-0.010	-0.062
-476.303	-130.402	0.448	-0.061
-475.289	800.000	0.017	-0.051
-474.274	-200.000	0.003	-0.081
-473.259	800.000	0.014	-0.053
-472.245	-67.165	0.221	0.087
-471.230	-2.595	0.220	-0.154
-470.216	73.411	0.178	-0.186
-469.201	176.541	0.074	-0.108
-468.186	-76.860	0.215	0.075
-467.172	-200.000	-0.027	0.179
-466.157	180.700	-0.119	-0.175
-465.143	-98.596	0.037	-0.009
-464.128	800.000	0.062	0.185
-463.113	61.594	0.144	0.143
-462.099	800.000	-0.031	-0.124
-461.084	-136.427	0.253	0.029
-460.070	800.000	-0.019	-0.060
-459.055	129.381	-0.079	0.101
-458.040	134.698	-0.239	-0.310
-457.026	-78.198	0.133	-0.046
-456.011	30.378	0.257	-0.219
-454.997	-149.648	0.246	-0.019
-453.982	-47.102	0.168	-0.082
-452.968	800.000	-0.032	-0.124
-451.953	-200.000	-0.005	0.148
-450.938	-12.306	0.236	0.154
-449.924	-200.000	0.021	0.523
-448.909	-88.787	-0.280	0.083
-447.895	180.574	0.020	-0.029
-446.880	-68.655	-0.210	-0.081
-445.865	-86.892	-0.207	-0.063
-444.851	-31.659	0.211	0.118
-443.836	-143.440	0.268	0.025
-442.822	800.000	0.054	-0.155
-441.807	-200.000	0.087	-0.382
-440.792	358.034	0.117	0.232
-439.778	505.917	-0.132	0.304
-438.763	800.000	0.084	-0.329
-437.749	-129.115	0.345	-0.048
-436.734	-72.616	-0.452	0.166
-435.719	800.000	0.102	-0.394
-434.705	-1.667	-0.491	-0.345
-433.690	-30.633	0.094	-0.053
-432.676	-124.760	0.179	0.028
-431.661	-48.963	-0.416	-0.199
-430.646	-55.514	0.174	0.078
-429.632	800.000	0.039	0.129
-428.617	-153.983	-0.255	0.017
-427.603	205.136	0.333	0.515
-426.588	-200.000	-0.021	-0.134
-425.573	-143.207	0.262	-0.025
-424.559	-200.000	0.006	0.233
-423.544	-75.951	0.605	-0.213
-422.530	-200.000	0.003	0.140
-421.515	212.142	-0.098	0.154
-420.500	-158.251	-0.569	0.033
-419.486	139.477	0.078	-0.102
-418.471	312.895	0.296	-0.554
-417.457	-16.301	-0.264	0.167
-416.442	-155.893	0.301	0.019
-415.428	111.121	-0.179	-0.215
-414.413	800.000	0.087	-0.323
-413.398	-200.000	0.009	-0.059
-412.384	-200.000	0.063	0.357
-411.369	-164.600	-0.210	0.009
-410.355	800.000	0.023	-0.072
-409.340	-55.947	-0.045	-0.020
-408.325	800.000	0.123	0.391
-407.311	-75.190	-0.381	0.136
-406.296	6.054	-0.214	0.157
-405.282	-200.000	-0.016	0.203
-404.267	8.160	-0.189	-0.141
-403.252	-144.811	-0.177	0.016
-402.238	-200.000	0.020	-0.091
-401.223	-127.332	-0.452	0.066
-400.209	800.000	0.092	0.355
-399.194	312.971	0.027	-0.051
-398.179	25.051	0.284	-0.234
-397.165	22.197	0.124	-0.101
-396.150	719.849	0.092	0.244
-395.136	84.668	-0.078	-0.085
-394.121	336.960	0.099	-0.191
-393.106	-151.240	-0.265	-0.020
-392.092	-30.745	0.306	0.172
-391.077	105.937	-0.088	0.103
-390.063	122.355	-0.151	0.188
-389.048	334.226	0.083	-0.160
-388.033	-115.750	-0.101	0.019
-387.019	14.830	-0.332	0.258
-386.004	800.000	-0.046	-0.135
-384.990	217.775	-0.113	-0.180
-383.975	-50.792	-0.201	0.094
-382.960	265.933	-0.088	0.153
-381.946	33.942	-0.080	-0.070
-380.931	-115.990	0.231	0.043
-379.917	-162.583	0.084	0.004
-378.902	-111.129	-0.245	-0.050
-377.888	55.630	-0.060	0.058
-376.873	-167.384	-0.253	-0.010
-375.858	-200.000	0.013	-0.168
-374.844	-200.000	0.049	-0.220
-373.829	-0.938	-0.081	0.057
-372.815	31.740	0.166	0.142
-371.800	40.878	-0.406	0.364
-370.785	-200.000	0.037	0.258
-369.771	800.000	0.115	0.315
-368.756	96.219	-0.188	-0.214
-367.742	105.487	0.142	0.167
-366.727	592.789	0.181	0.444
-365.712	-129.291	-0.071	0.010
-364.698	-129.195	0.139	0.019
-363.683	17.449	-0.236	-0.186
-362.669	0.769	0.207	0.147
-361.654	-166.021	0.218	-0.009
-360.639	233.052	0.067	-0.110
-359.625	-158.006	0.436	-0.026
-358.610	-83.713	-0.348	-0.110
-357.596	-200.000	-0.005	-0.088
-356.581	-200.000	0.001	-0.376
-355.566	314.169	-0.174	-0.325
-354.552	-48.394	0.145	0.070
-353.537	-200.000	-0.030	0.191
-352.523	-189.582	0.089	0.001
-351.508	-137.942	-0.225	0.025
-350.493	-40.136	0.232	-0.120
-349.479	150.116	0.096	0.130
-348.464	-200.000	-0.001	-0.040
-347.450	462.949	-0.039	-0.087
-346.435	-103.511	-0.113	0.026
-345.420	56.489	-0.177	0.171
-344.406	273.752	-0.182	0.320
-343.391	-100.594	-0.056	-0.014
-342.377	32.596	0.173	0.148
-341.362	-200.000	-0.031	0.232
-340.348	13.515	0.017	-0.013
-339.333	235.272	-0.107	0.176
-338.318	52.982	-0.121	0.115
-337.304	-112.520	0.303	0.060
-336.289	4.318	0.188	0.137
-335.275	-200.000	-0.015	0.095
-334.260	201.745	0.060	0.092
-333.245	-200.000	-0.028	0.249
-332.231	317.721	-0.137	-0.257
-331.216	-193.240	0.472	0.004
-330.202	-200.000	0.058	0.300
-329.187	116.147	0.056	0.068
-328.172	-200.000	-0.051	0.224
-327.158	34.755	-0.100	0.087
-326.143	-200.000	-0.022	0.170
-325.129	33.086	0.158	-0.136
-324.114	234.452	0.161	0.264
-323.099	-13.368	-0.240	-0.155
-322.085	-200.000	0.002	0.224
-321.070	-20.685	-0.199	0.121
-320.056	-200.000	0.025	0.113
-319.041	230.242	-0.105	0.170
-318.026	-22.265	0.289	-0.174
-317.012	-153.129	-0.060	-0.004
-315.997	-200.000	-0.019	-0.278
-314.983	800.000	0.021	0.068
-313.968	800.000	-0.058	-0.158
-312.953	-105.349	-0.230	-0.052
-311.939	-25.878	0.276	-0.161
-310.924	-200.000	0.017	0.386
-309.910	-200.000	-0.013	0.064
-308.895	158.029	0.127	0.174
-307.880	-35.365	-0.363	-0.196
-306.866	-200.000	-0.008	0.121
-305.851	-32.891	0.121	0.067
-304.837	-78.868	0.217	0.073
-303.822	641.169	-0.027	0.067
-302.807	131.511	-0.045	0.058
-301.793	-200.000	-0.009	-0.259
-300.778	-168.162	-0.452	-0.017
-299.764	-156.474	0.353	-0.022
-298.749	181.606	-0.058	-0.084
-297.735	77.719	-0.141	0.149
-296.720	-200.000	0.010	-0.175
-295.705	-71.079	-0.070	-0.026
-294.691	119.931	-0.137	-0.168
-293.676	-200.000	0.028	-0.142
-292.662	-200.000	0.057	-0.385
-291.647	-200.000	-0.063	0.277
-290.632	5.674	0.060	-0.044
-289.618	800.000	0.062	0.204
-288.603	-65.337	-0.230	0.092
-287.589	34.258	0.224	0.193
-286.574	293.896	0.095	0.172
-285.559	171.009	0.125	-0.178
-284.545	800.000	0.063	0.184
-283.530	150.631	-0.217	-0.292
-282.516	-46.365	0.280	0.136
-281.501	54.392	-0.144	-0.138
-280.486	-200.000	0.020	-0.291
-279.472	-98.474	-0.296	0.075
-278.457	147.675	-0.080	0.107
-277.443	-43.008	-0.152	0.076
-276.428	127.721	-0.061	0.077
-275.413	-44.556	0.151	0.075
-274.399	93.484	-0.202	0.227
-273.384	-47.937	-0.198	-0.095
-272.370	-42.949	-0.191	-0.096
-271.355	-72.618	0.106	0.039
-270.340	-107.968	-0.130	0.028
-269.326	82.779	-0.241	-0.259
-268.311	508.731	-0.089	0.204
-267.297	800.000	-0.053	0.177
-266.282	-100.710	0.446	0.109
-265.267	800.000	-0.067	-0.283
-264.253	396.253	-0.083	-0.172
-263.238	-142.093	-0.217	0.021
-262.224	4.939	-0.145	-0.106
-261.209	-200.000	0.012	0.260
-260.195	800.000	-0.048	-0.181
-259.180	-152.321	0.104	0.007
-258.165	326.971	-0.140	0.266
-257.151	-200.000	0.013	0.117
-256.136	-51.855	-0.165	0.076
-255.122	11.361	-0.174	0.132
-254.107	-200.000	-0.034	0.160
-253.092	-118.608	0.190	0.033
-252.078	-99.925	-0.105	-0.026
-251.063	-14.471	-0.262	0.167
-250.049	-200.000	0.011	0.268
-249.034	-200.000	-0.019	0.204
-248.019	-108.782	0.288	-0.061
-247.005	-200.000	-0.041	0.190
-245.990	-57.758	0.204	-0.088
-244.976	330.545	0.078	0.149
-243.961	208.857	-0.118	0.182
-242.946	187.495	0.076	0.113
-241.932	-200.000	-0.074	0.373
-240.917	800.000	0.090	-0.319
-239.903	-124.758	-0.217	-0.033
-238.888	-200.000	0.037	0.271
-237.873	-139.794	0.253	0.027
-236.859	-66.905	0.169	-0.066
-235.844	-98.347	-0.063	-0.016
-234.830	-138.903	-0.164	0.018
-233.815	-142.828	-0.111	0.011
-232.800	97.706	0.108	-0.123
-231.786	3.550	-0.066	0.048
-230.771	-91.261	0.332	0.094
-229.757	800.000	0.106	-0.337
-228.742	37.786	0.089	-0.078
-227.727	0.481	-0.449	-0.317
-226.713	-171.963	0.323	0.010
-225.698	-91.069	0.198	0.056
-224.684	256.293	-0.125	-0.212
-223.669	-84.032	0.070	-0.022
-222.655	800.000	0.069	0.284
-221.640	-200.000	-0.023	0.295
-220.625	518.716	-0.087	-0.200
-219.611	119.355	-0.097	0.119
-218.596	384.097	0.128	0.261
-217.582	-29.948	-0.051	0.028
-216.567	181.599	-0.300	-0.436
-215.552	175.929	0.110	-0.158
-214.538	2.363	0.177	0.126
-213.523	186.175	0.033	0.048
-212.509	-142.559	0.192	-0.019
-211.494	-138.919	-0.448	-0.048
-210.479	-70.088	-0.093	0.035
-209.465	8.615	0.255	-0.190
-208.450	-42.275	-0.063	0.032
-207.436	800.000	0.089	-0.299
-206.421	264.469	-0.137	-0.235
-205.406	-200.000	-0.034	0.147
-204.392	-34.967	-0.064	-0.034
-203.377	230.151	-0.173	-0.280
-202.363	800.000	-0.115	-0.425
-201.348	220.963	-0.115	-0.183
-200.333	-200.000	0.030	0.146
-199.319	53.421	0.039	-0.037
-198.304	37.197	0.293	-0.257
-197.290	-200.000	-0.277	-0.001
-196.275	-139.714	-0.264	-0.028
-195.260	672.740	-0.043	-0.111
-194.246	130.893	-0.176	-0.223
-193.231	335.184	0.101	0.193
-192.217	-32.149	-0.138	-0.076
-191.202	-75.054	0.116	-0.041
-190.187	502.398	-0.022	-0.051
-189.173	-57.715	0.161	0.070
-188.158	-22.902	-0.290	-0.172
-187.144	-121.643	0.240	-0.039
-186.129	97.608	0.196	-0.222
-185.114	-75.607	0.135	0.047
-184.100	800.000	-0.026	-0.082
-183.085	-57.159	-0.161	-0.070
-182.071	800.000	-0.036	-0.112
-181.056	424.586	-0.064	0.136
-180.042	-195.295	-0.284	-0.002
-179.027	-34.387	0.078	-0.042
-178.012	-63.291	-0.358	0.146
-176.998	-16.119	-0.066	0.042
-175.983	-181.985	-0.048	-0.001
-174.969	-200.000	-0.486	-0.001
-173.954	-69.932	-0.207	-0.078
-172.939	-8.810	0.459	-0.304
-171.925	376.608	-0.212	-0.427
-170.910	164.926	-0.157	0.218
-169.896	-114.549	0.312	-0.059
-168.881	-144.050	-0.118	0.011
-167.866	800.000	-0.060	0.192
-166.852	415.805	-0.034	-0.071
-165.837	-200.000	-0.004	-0.284
-164.823	-66.900	0.188	-0.073
-163.808	23.921	0.055	-0.044
-162.793	-116.558	-0.070	-0.013
-161.779	273.280	-0.268	0.468
-160.764	800.000	0.031	-0.133
-159.750	11.623	0.123	-0.093
-158.735	-120.043	0.203	0.034
-157.720	-166.948	0.092	-0.004
-156.706	-200.000	0.034	0.185
-155.691	-157.193	-0.317	0.019
-154.677	-195.839	-0.207	0.001
-153.662	9.074	0.136	0.101
-152.647	-37.985	0.268	0.140
-151.633	-157.474	0.265	0.016
-150.618	591.660	-0.173	0.421
-149.604	41.732	-0.073	-0.065
-148.589	-200.000	-0.043	0.307
-147.574	-38.500	-0.128	-0.067
-146.560	24.627	0.085	-0.069
-145.545	364.457	-0.116	-0.230
-144.531	-190.114	-0.111	-0.001
-143.516	-130.148	0.211	-0.028
-142.502	-82.217	0.026	0.008
-141.487	-200.000	0.026	0.246
-140.472	3.992	0.240	-0.172
-139.458	60.768	-0.220	-0.215
-138.443	-71.471	0.065	-0.024
-137.429	-36.577	-0.246	0.130
-136.414	800.000	0.057	0.164
-135.399	800.000	-0.107	-0.348
-134.385	294.614	0.099	0.178
-133.370	-64.079	0.423	-0.170
-132.356	-46.209	-0.087	0.042
-131.341	126.579	0.163	-0.203
-130.326	39.867	-0.165	0.146
-129.312	-200.000	-0.015	0.288
-128.297	241.630	0.179	0.294
-127.283	-200.000	0.064	0.448
-126.268	-9.742	-0.168	0.110
-125.253	27.603	0.131	-0.109
-124.239	-200.000	0.011	-0.099
-123.224	-72.888	0.165	-0.060
-122.210	581.525	-0.092	0.223
-121.195	44.470	-0.302	0.273
-120.180	-200.000	-0.042	-0.277
-119.166	25.214	0.254	0.208
-118.151	463.166	-0.099	-0.218
-117.137	-13.691	-0.081	-0.051
-116.122	-13.894	-0.277	0.176
-115.107	150.503	0.173	0.231
-114.093	800.000	0.047	0.138
-113.078	-60.666	-0.387	-0.161
-112.064	566.122	0.086	0.206
-111.049	622.994	-0.197	-0.488
-110.034	44.252	-0.134	0.121
-109.020	577.701	-0.064	0.154
-108.005	474.587	0.142	0.316
-106.991	64.744	0.197	0.196
-105.976	-200.000	-0.010	-0.521
-104.962	265.001	0.114	-0.196
-103.947	-85.145	0.177	0.054
-102.932	147.552	-0.188	0.250
-101.918	17.700	0.156	0.122
-100.903	22.518	0.331	-0.266
-99.889	800.000	0.137	0.414
-98.874	-83.405	-0.227	0.072
-97.859	86.376	-0.169	-0.183
-96.845	-177.278	-0.378	-0.009
-95.830	800.000	0.067	0.200
-94.816	-78.990	0.383	0.128
-93.801	-143.973	0.146	-0.014
-92.786	-52.767	-0.352	-0.160
-91.772	-200.000	-0.072	-0.350
-90.757	91.517	0.187	0.206
-89.743	43.441	0.183	0.164
-88.728	64.467	0.217	-0.215
-87.713	320.948	0.091	-0.170
-86.699	-153.292	0.443	0.030
-85.684	543.365	0.025	0.058
-84.670	800.000	-0.055	-0.196
-83.655	-88.769	-0.250	-0.073
-82.640	-95.126	-0.175	-0.046
-81.626	-27.015	0.293	-0.168
-80.611	73.122	-0.191	-0.196
-79.597	226.833	0.055	-0.088
-78.582	-200.000	0.058	0.274
-77.567	84.203	0.114	0.122
-76.553	-200.000	-0.044	0.281
-75.538	29.411	0.039	0.032
-74.524	522.492	0.120	-0.276
-73.509	-200.000	-0.068	0.294
-72.494	-93.238	-0.208	-0.057
-71.480	546.401	0.093	0.219
-70.465	-169.025	0.304	-0.011
-69.451	-9.449	0.128	0.084
-68.436	-200.000	-0.060	0.289
-67.422	800.000	0.046	-0.177
-66.407	-75.151	-0.205	-0.072
-65.392	22.897	0.091	-0.073
-64.378	-97.670	0.236	0.060
-63.363	-29.070	-0.248	0.140
-62.349	61.392	0.136	-0.133
-61.334	178.411	-0.920	-1.319
-60.319	-47.072	0.775	0.371
-59.305	800.000	-0.273	-1.076
-58.290	270.595	0.695	1.200
-57.276	800.000	0.502	1.700
-56.261	-200.000	106.564	576.610
-55.246	421.835	1501.075	3161.679
-54.232	141.703	2706.735	3520.107
-53.217	103.336	2218.057	2553.448
-52.203	39.553	1738.647	1529.650
-51.188	32.269	1550.396	1313.317
-50.173	30.027	1523.685	1275.225
-49.159	50.626	1578.492	1466.018
-48.144	50.932	1595.362	1483.775
-47.130	32.592	1551.806	1316.561
-46.115	29.590	1536.495	1282.708
-45.100	29.463	1533.554	1279.324
-44.086	29.470	1531.175	1277.334
-43.071	29.330	1529.520	1274.938
-42.057	29.325	1527.809	1273.428
-41.042	29.344	1526.264	1272.218
-40.027	29.420	1524.482	1271.206
-39.013	29.301	1522.970	1269.076
-37.998	29.259	1522.112	1268.017
-36.984	29.311	1520.275	1266.796
-35.969	29.204	1519.505	1265.370
-34.954	29.326	1518.115	1264.998
-33.940	29.275	1516.583	1263.322
-32.925	29.277	1515.422	1262.317
-31.911	29.313	1514.100	1261.413
-30.896	29.321	1512.894	1260.417
-29.881	29.444	1511.317	1259.892
-28.867	29.425	1509.890	1258.519
-27.852	29.385	1508.393	1256.950
-26.838	29.340	1507.314	1255.699
-25.823	29.289	1505.973	1254.183
-24.809	29.296	1504.191	1252.698
-23.794	29.389	1502.757	1252.082
-22.779	29.372	1501.760	1251.090
-21.765	29.393	1500.282	1249.949
-20.750	29.364	1499.556	1249.098
-19.736	29.314	1498.491	1247.823
-18.721	29.386	1496.610	1246.693
-17.706	29.300	1495.619	1245.236
-16.692	29.304	1494.421	1244.216
-15.677	29.309	1493.567	1243.493
-14.663	29.268	1492.632	1242.387
-13.648	29.210	1491.715	1241.184
-12.633	29.381	1490.392	1241.187
-11.619	29.323	1489.606	1240.088
-10.604	29.322	1488.731	1239.305
-9.590	29.325	1487.765	1238.473
-8.575	29.356	1487.447	1238.367
-7.560	29.316	1486.190	1237.006
-6.546	29.222	1485.845	1236.037
-5.531	29.230	1484.563	1234.975
-4.517	29.230	1484.073	1234.515
-3.502	29.175	1482.654	1232.919
-2.487	29.294	1481.395	1232.622
-1.473	29.262	1480.445	1231.565
-0.458	29.283	1478.842	1230.326
0.556	27.827	1469.742	1220.674
1.571	25.106	1445.161	1182.233
2.586	21.875	1382.315	1110.309
3.600	20.218	1298.599	1033.112
4.615	18.913	1252.549	988.882
5.629	16.167	1195.343	928.541
6.644	8.166	1108.487	820.004
7.659	1.641	1067.151	756.975
8.673	0.525	1061.667	747.495
9.688	0.346	1058.941	744.624
10.702	0.423	1057.450	743.889
11.717	0.287	1055.475	741.766
12.731	2.684	1057.842	755.180
13.746	10.597	1068.502	801.964
14.761	16.175	1075.172	834.566
15.775	17.025	1075.582	839.019
16.790	16.458	1074.501	835.297
17.804	15.513	1071.951	828.580
18.819	14.680	1069.795	822.739
19.834	14.192	1068.712	819.428
20.848	13.966	1067.836	817.573
21.863	13.800	1066.457	815.629
22.877	13.571	1065.817	813.944
23.892	13.309	1064.815	811.820
24.907	13.211	1064.063	810.692
25.921	13.127	1063.468	809.755
26.936	13.213	1063.099	809.825
27.950	13.215	1062.512	809.318
28.965	13.339	1061.221	808.866
29.980	13.226	1060.491	807.687
30.994	13.351	1059.311	807.327
32.009	13.516	1058.253	807.255
33.023	13.472	1057.649	806.509
34.038	13.402	1057.223	805.771
35.053	13.413	1055.912	804.756
36.067	13.334	1055.160	803.727
37.082	13.389	1054.331	803.290
38.096	13.354	1054.021	802.813
39.111	13.331	1053.146	801.963
40.126	13.393	1051.836	801.195
41.140	13.243	1051.128	799.859
42.155	13.304	1050.016	799.238
43.169	13.235	1049.249	798.250
44.184	13.281	1048.256	797.645
45.199	13.106	1046.898	795.699
46.213	13.235	1046.150	795.681
47.228	13.138	1044.802	794.120
48.242	13.312	1043.802	794.124
49.257	13.331	1043.023	793.551
50.271	13.285	1041.971	792.459
51.286	13.338	1041.095	791.978
52.301	13.421	1040.197	791.622
53.315	13.248	1039.918	790.511
54.330	13.340	1038.954	790.148
55.344	13.256	1037.796	788.797
56.359	13.283	1037.098	788.325
57.374	13.365	1035.918	787.752
58.388	13.271	1035.423	786.855
59.403	13.129	1034.852	785.676
60.417	13.044	1033.834	784.431
61.432	13.153	1032.861	784.143
62.447	13.181	1032.489	783.925
63.461	13.219	1031.276	783.111
64.476	13.088	1030.420	781.772
65.490	13.034	1029.889	781.046
66.505	13.093	1028.842	780.462
67.520	13.240	1027.883	780.359
68.534	13.296	1026.969	779.862
69.549	13.214	1026.435	778.998
70.563	13.243	1025.783	778.573
71.578	13.118	1025.436	777.651
72.593	13.357	1024.023	777.636
73.607	13.193	1022.772	775.846
74.622	13.084	1022.432	775.006
75.636	13.084	1021.230	774.029
76.651	13.105	1020.578	773.563
77.666	13.084	1019.829	772.831
78.680	13.083	1019.245	772.313
79.695	13.126	1018.995	772.256
80.709	13.210	1017.842	771.706
81.724	13.188	1017.350	771.163
82.739	13.210	1016.358	770.446
83.753	13.386	1015.132	770.269
84.768	13.362	1014.363	769.505
85.782	13.241	1014.442	768.934
86.797	13.376	1013.484	768.767
87.812	13.310	1012.490	767.637
88.826	13.408	1011.410	767.205
89.841	13.332	1010.912	766.406
90.855	13.284	1010.132	765.525
91.870	13.368	1009.354	765.257
92.884	13.282	1008.502	764.144
93.899	13.307	1008.133	763.913
94.914	13.313	1007.308	763.249
95.928	13.393	1006.737	763.116
96.943	13.550	1005.566	762.886
97.957	13.383	1005.163	761.746
98.972	13.386	1004.040	760.840
99.987	13.279	1003.717	760.037
101.001	13.501	1002.293	759.910
102.016	13.475	1001.611	759.206
103.030	13.393	1000.690	758.064
104.045	13.537	999.501	757.757
105.060	13.485	998.801	756.920
106.074	13.406	997.670	755.635
107.089	13.361	997.173	754.986
108.103	13.378	996.141	754.218
109.118	13.233	995.291	752.847
110.133	13.097	995.018	751.951
111.147	13.292	993.456	751.592
112.162	13.259	992.437	750.606
113.176	13.390	991.609	750.504
114.191	13.322	990.712	749.453
115.206	13.412	989.897	749.180
116.220	13.267	989.612	748.239
117.235	13.272	988.573	747.412
118.249	13.357	987.198	746.690
119.264	13.285	986.555	745.812
120.279	13.268	985.654	744.986
121.293	13.302	984.840	744.458
122.308	13.313	984.378	744.092
123.322	13.255	983.695	743.251
124.337	13.268	982.322	742.204
125.352	13.296	981.149	741.380
126.366	13.193	980.294	740.207
127.381	13.313	979.055	739.741
128.395	13.184	978.148	738.417
129.410	13.268	976.750	737.668
130.424	13.312	976.601	737.687
131.439	13.337	975.358	736.797
132.454	13.224	974.710	735.739
133.468	13.391	973.820	735.741
134.483	13.342	973.229	735.014
135.497	13.317	972.854	734.555
136.512	13.250	971.627	733.265
137.527	13.322	970.916	732.982
138.541	13.252	970.067	731.967
139.556	13.398	968.833	731.619
140.570	13.346	968.709	731.230
141.585	13.439	967.725	730.833
142.600	13.434	967.206	730.353
143.614	13.335	966.287	729.159
144.629	13.347	965.521	728.570
145.643	13.310	965.161	728.071
146.658	13.358	964.203	727.494
147.673	13.529	962.880	727.182
148.687	13.383	962.357	726.081
149.702	13.370	961.695	725.460
150.716	13.317	960.559	724.307
151.731	13.455	959.327	723.920
152.746	13.387	958.855	723.199
153.760	13.536	957.962	723.115
154.775	13.460	957.130	722.091
155.789	13.581	956.306	721.932
156.804	13.372	955.983	720.713
157.819	13.432	954.947	720.132
158.833	13.516	954.384	720.009
159.848	13.537	953.085	719.057
160.862	13.664	952.677	719.237
161.877	13.579	952.259	718.486
162.892	13.541	951.323	717.552
163.906	13.473	950.162	716.321
164.921	13.417	949.452	715.477
165.935	13.489	948.624	715.103
166.950	13.484	947.915	714.484
167.964	13.464	946.404	713.195
168.979	13.618	945.288	712.953
169.994	13.640	944.199	712.162
171.008	13.417	944.078	711.051
172.023	13.626	942.845	710.958
173.037	13.744	941.936	710.715
174.052	13.599	941.565	709.750
175.067	13.667	941.117	709.639
176.081	13.593	940.096	708.494
177.096	13.606	939.564	708.085
178.110	13.623	938.727	707.464
179.125	13.643	937.332	706.434
180.140	13.697	937.069	706.401
181.154	13.572	936.262	705.201
182.169	13.693	935.680	705.213
183.183	13.725	935.191	704.921
184.198	13.617	934.559	703.920
185.213	13.795	933.667	703.943
186.227	13.729	933.293	703.318
187.242	13.796	932.451	702.907
188.256	13.816	931.522	702.228
189.271	13.943	930.948	702.272
190.286	13.815	930.524	701.347
191.300	13.856	929.526	700.706
192.315	13.731	929.041	699.750
193.329	13.681	928.123	698.787
194.344	13.680	927.507	698.257
195.359	13.751	926.850	698.000
196.373	13.608	926.962	697.419
197.388	13.873	925.807	697.604
198.402	13.777	925.597	696.982
199.417	13.908	925.205	697.171
200.432	13.994	924.420	696.880
201.446	14.034	924.118	696.761
202.461	14.044	923.877	696.557
203.475	14.111	922.637	695.843
204.490	14.064	922.130	695.200
205.504	14.152	921.224	694.822
206.519	14.105	920.569	694.071
207.534	14.007	920.253	693.362
208.548	14.015	919.415	692.704
209.563	14.109	918.555	692.385
210.577	14.083	917.463	691.394
211.592	14.019	917.112	690.800
212.607	14.120	916.520	690.715
213.621	14.187	915.849	690.426
214.636	14.052	915.584	689.606
215.650	14.188	914.707	689.449
216.665	14.282	913.953	689.206
217.680	14.050	913.665	687.969
218.694	14.212	912.810	687.932
219.709	14.326	912.294	687.957
220.723	14.424	911.549	687.739
221.738	14.361	910.628	686.720
222.753	14.152	910.243	685.509
223.767	14.279	909.147	685.146
224.782	14.356	908.193	684.682
225.796	14.365	907.815	684.376
226.811	14.447	907.487	684.401
227.826	14.345	906.917	683.496
228.840	14.432	905.798	682.945
229.855	14.347	905.256	682.129
230.869	14.454	904.388	681.852
231.884	14.472	903.657	681.313
232.899	14.333	903.276	680.398
233.913	14.347	902.315	679.673
234.928	14.337	901.972	679.313
235.942	14.543	900.995	679.356
236.957	14.235	900.662	677.792
237.972	14.357	899.609	677.433
238.986	14.410	898.973	677.113
240.001	14.359	898.786	676.705
241.015	14.416	898.042	676.315
242.030	14.407	897.280	675.647
243.045	14.476	896.622	675.368
244.059	14.379	896.000	674.447
245.074	14.473	895.328	674.263
246.088	14.530	894.363	673.705
247.103	14.598	893.743	673.453
248.117	14.701	892.988	673.240
249.132	14.588	892.715	672.519
250.147	14.656	892.140	672.300
251.161	14.712	891.714	672.146
252.176	14.677	891.057	671.450
253.190	14.843	890.170	671.388
254.205	14.776	889.671	670.686
255.220	14.867	889.167	670.612
256.234	14.931	888.320	670.167
257.249	14.796	887.697	669.098
258.263	14.820	887.028	668.634
259.278	14.938	886.555	668.689
260.293	14.875	886.231	668.132
261.307	14.961	885.383	667.776
262.322	14.882	884.869	667.017
263.336	15.065	884.731	667.584
264.351	14.985	883.746	666.462
265.366	15.083	883.298	666.456
266.380	15.105	882.321	665.747
267.395	15.046	881.832	665.082
268.409	15.048	880.895	664.328
269.424	14.994	880.574	663.813
270.439	15.138	879.553	663.556
271.453	15.058	879.129	662.857
272.468	15.082	878.186	662.183
273.482	15.032	877.361	661.307
274.497	15.006	877.306	661.102
275.512	15.124	876.148	660.637
276.526	15.063	875.479	659.835
277.541	15.110	874.750	659.410
278.555	15.163	874.499	659.371
279.570	15.189	873.942	658.998
280.585	15.337	873.242	658.990
281.599	15.312	872.456	658.244
282.614	15.197	871.933	657.338
283.628	15.204	871.606	657.061
284.643	15.209	871.361	656.836
285.657	15.388	870.310	656.687
286.672	15.411	869.497	656.107
287.687	15.282	869.380	655.455
288.701	15.313	868.753	655.046
289.716	15.403	867.914	654.707
290.730	15.372	867.489	654.207
291.745	15.354	867.209	653.867
292.760	15.391	866.296	653.265
293.774	15.350	865.951	652.788
294.789	15.513	865.130	652.745
295.803	15.366	864.534	651.665
296.818	15.387	863.979	651.273
297.833	15.453	863.075	650.787
298.847	15.377	862.644	650.111
299.862	15.460	861.601	649.590
300.876	15.517	860.986	649.288
301.891	15.395	860.712	648.553
302.906	15.459	860.078	648.264
303.920	15.554	859.111	647.845
304.935	15.648	858.291	647.530
305.949	15.724	857.922	647.490
306.964	15.665	857.400	646.810
307.979	15.646	856.729	646.174
308.993	15.655	856.286	645.817
310.008	15.761	855.738	645.755
311.022	15.752	855.062	645.153
312.037	15.817	854.909	645.230
313.052	15.744	854.174	644.336
314.066	15.665	853.788	643.686
315.081	15.660	853.075	643.071
316.095	15.745	852.239	642.712
317.110	15.717	851.830	642.240
318.125	15.648	851.362	641.566
319.139	15.698	850.589	641.118
320.154	15.686	850.474	640.928
321.168	15.680	849.894	640.411
322.183	15.632	849.634	639.977
323.197	15.695	849.133	639.780
324.212	15.932	848.147	639.881
325.227	15.927	847.286	639.158
326.241	15.938	846.726	638.722
327.256	15.959	846.130	638.294
328.270	15.949	845.564	637.771
329.285	15.896	845.264	637.288
330.300	15.869	844.963	636.905
331.314	15.887	844.261	636.386
332.329	15.909	843.256	635.654
333.343	15.933	842.766	635.319
334.358	15.869	842.544	634.854
335.373	16.032	841.891	634.920
336.387	15.952	841.450	634.230
337.402	16.088	841.179	634.485
338.416	16.149	839.848	633.652
339.431	16.056	839.571	633.039
340.446	16.135	838.654	632.585
341.460	16.272	838.232	632.726
342.475	16.278	837.606	632.221
343.489	16.227	837.266	631.717
344.504	16.141	836.728	630.933
345.519	16.254	836.164	630.876
346.533	16.301	835.644	630.600
347.548	16.382	834.832	630.236
348.562	16.285	834.581	629.629
349.577	16.216	833.934	628.828
350.592	16.149	833.515	628.208
351.606	16.234	832.927	628.025
352.621	16.168	832.912	627.710
353.635	16.360	832.330	627.930
354.650	16.262	831.941	627.217
355.665	16.415	831.167	627.145
356.679	16.414	830.872	626.865
357.694	16.346	830.237	626.079
358.708	16.298	829.640	625.394
359.723	16.278	829.521	625.177
360.738	16.508	828.726	625.373
361.752	16.331	828.192	624.261
362.767	16.539	827.685	624.591
363.781	16.497	827.267	624.064
364.796	16.383	827.106	623.468
365.810	16.493	826.543	623.394
366.825	16.473	826.380	623.143
367.840	16.630	825.745	623.185
368.854	16.513	825.697	622.664
369.869	16.580	824.783	622.164
370.883	16.558	824.436	621.767
371.898	16.622	823.512	621.250
372.913	16.621	822.903	620.735
373.927	16.765	822.275	620.731
374.942	16.629	821.935	619.922
375.956	16.595	820.996	619.035
376.971	16.691	820.753	619.149
377.986	16.617	819.863	618.152
379.000	16.854	819.816	618.927
380.015	16.950	819.040	618.638
381.029	16.886	818.431	617.887
382.044	16.764	818.107	617.144
383.059	16.870	817.242	616.823
384.073	16.973	816.983	616.949
385.088	16.935	816.571	616.445
386.102	17.037	815.364	615.848
387.117	16.949	815.165	615.324
388.132	16.862	814.838	614.707
389.146	16.721	814.837	614.140
390.161	16.890	814.379	614.355
391.175	16.813	813.971	613.714
392.190	16.820	813.936	613.658
393.205	16.953	813.495	613.751
394.219	16.925	812.616	612.933
395.234	17.029	811.752	612.603
396.248	16.786	811.755	611.672
397.263	16.892	811.145	611.543
398.278	16.934	810.393	611.073
399.292	16.944	809.851	610.647
400.307	17.074	809.267	610.620
401.321	16.921	809.176	609.944
402.336	16.980	808.997	609.970
403.350	17.111	808.203	609.789
404.365	17.069	807.910	609.362
405.380	17.215	807.344	609.403
406.394	17.077	807.104	608.674
407.409	17.182	806.837	608.796
408.423	17.178	805.824	607.963
409.438	17.194	805.559	607.766
410.453	17.365	805.023	607.918
411.467	17.320	804.850	607.576
412.482	17.330	804.202	607.068
413.496	17.372	803.849	606.896
414.511	17.407	803.577	606.762
415.526	17.381	802.919	606.119
416.540	17.452	802.699	606.152
417.555	17.369	802.490	605.646
418.569	17.303	801.948	604.947
419.584	17.286	801.521	604.511
420.599	17.301	801.140	604.224
421.613	109.467	1293.620	1472.264
422.628	94.229	1365.337	1472.376
