DTS Sentinel unit serial number:	SN413079Multiplexer serial number:	ORYXHardware model number:	OX4-SRSoftware version number:	ORYX F/W v4.00 Oryx Data Collector v3.7.2.0data status	okinstallation	princeton_trtdifferential loss correction	single-endedforward channel	channel 3reverse channel	N/Adate	2019/09/14time	22:00:35forward acquisition time	60.00reverse acquisition time	0.00gamma	496.2192k internal	0.2318k external	0.2318temperature offset calibration	0.9987default loss term (dB/km)	0.3790temperature slope calibration	1.0000multiplexer offset coefficient	1.0000multiplexer slope coefficient	1.0000fibre end	0.00T internal ref (°C)	32.69T ext. ref 1 (°C)	4.72T ext. ref 2 (°C)	27.60length (m)	temperature (°C)	Stokes	anti-Stokes-747.200	-137.110	0.025	0.003
-746.185	514.739	0.035	0.082
-745.171	-200.000	0.011	-0.076
-744.156	-13.497	0.084	-0.055
-743.142	162.725	0.097	-0.138
-742.127	800.000	-0.035	0.118
-741.112	-10.296	-0.258	-0.173
-740.098	-106.061	0.213	-0.049
-739.083	-86.320	0.143	-0.045
-738.069	627.160	0.087	-0.221
-737.054	717.298	-0.147	-0.394
-736.039	-88.141	-0.073	-0.022
-735.025	-200.000	-0.009	-0.104
-734.010	442.386	-0.231	-0.511
-732.996	26.578	-0.239	-0.203
-731.981	297.874	0.120	0.222
-730.966	141.357	-0.125	-0.167
-729.952	-65.068	-0.345	-0.141
-728.937	-200.000	0.005	0.129
-727.923	-147.535	0.120	-0.010
-726.908	405.061	0.012	0.025
-725.894	-123.839	-0.309	0.049
-724.879	136.132	-0.216	-0.284
-723.864	-200.000	-0.021	-0.127
-722.850	56.882	-0.229	0.225
-721.835	800.000	-0.083	-0.273
-720.821	-49.683	-0.102	0.049
-719.806	-152.706	0.258	0.019
-718.791	297.297	-0.073	-0.135
-717.777	-70.864	0.077	-0.030
-716.762	-67.952	-0.320	0.126
-715.748	549.102	0.124	-0.301
-714.733	-81.629	0.057	-0.019
-713.718	-131.785	-0.290	0.038
-712.704	133.834	0.190	0.249
-711.689	-121.588	0.089	0.015
-710.675	-200.000	0.040	-0.205
-709.660	-198.983	0.429	-0.002
-708.645	800.000	-0.035	-0.132
-707.631	-19.060	-0.161	-0.101
-706.616	-200.000	0.032	0.145
-705.602	185.322	-0.082	0.122
-704.587	68.255	0.075	0.077
-703.572	-168.438	-0.145	-0.006
-702.558	-60.270	-0.088	0.038
-701.543	-55.737	-0.134	-0.061
-700.529	800.000	0.083	-0.339
-699.514	-151.213	0.540	0.041
-698.499	-200.000	0.011	0.091
-697.485	-142.223	0.427	-0.043
-696.470	331.087	0.105	0.205
-695.456	-86.780	-0.279	-0.086
-694.441	-11.774	0.108	0.071
-693.426	179.296	0.111	-0.164
-692.412	-88.508	-0.251	0.076
-691.397	-200.000	-0.010	-0.310
-690.383	-200.000	-0.047	-0.244
-689.368	800.000	0.185	-0.527
-688.354	-200.000	-0.024	-0.145
-687.339	-164.516	0.239	0.011
-686.324	128.246	0.058	-0.074
-685.310	800.000	-0.026	0.102
-684.295	-80.411	0.166	-0.056
-683.281	19.160	0.137	0.111
-682.266	-200.000	-0.012	0.067
-681.251	800.000	0.059	-0.205
-680.237	-23.524	0.192	-0.116
-679.222	119.161	0.064	0.080
-678.208	-63.514	-0.175	-0.073
-677.193	-135.736	0.143	0.017
-676.178	800.000	-0.061	0.173
-675.164	-102.880	-0.148	-0.035
-674.149	-53.019	-0.208	-0.096
-673.135	-155.646	-0.041	0.003
-672.120	623.954	0.081	0.207
-671.105	-125.312	0.165	-0.025
-670.091	98.019	-0.132	0.154
-669.076	-84.332	0.264	0.084
-668.062	-200.000	0.018	-0.194
-667.047	-159.266	-0.139	0.008
-666.032	417.516	0.094	-0.202
-665.018	35.811	0.168	-0.149
-664.003	-200.000	0.014	-0.083
-662.989	-86.382	0.117	0.036
-661.974	24.974	-0.263	-0.220
-660.959	-200.000	0.020	0.213
-659.945	-49.868	0.322	-0.154
-658.930	159.994	0.191	0.269
-657.916	157.650	0.114	-0.159
-656.901	-25.301	0.385	-0.230
-655.886	314.740	0.131	-0.249
-654.872	-110.027	-0.137	0.029
-653.857	-181.736	0.144	0.003
-652.843	103.974	-0.054	-0.063
-651.828	-154.347	0.291	0.020
-650.814	-129.878	-0.282	-0.039
-649.799	93.296	0.235	0.268
-648.784	-200.000	-0.039	-0.194
-647.770	514.128	0.079	0.185
-646.755	800.000	-0.072	0.219
-645.741	149.134	-0.104	-0.142
-644.726	-200.000	-0.050	-0.232
-643.711	236.901	-0.151	-0.253
-642.697	111.357	0.119	0.144
-641.682	-200.000	0.023	0.140
-640.668	14.256	0.117	0.092
-639.653	-59.033	-0.252	0.109
-638.638	35.637	-0.126	-0.111
-637.624	-45.782	0.060	0.030
-636.609	-148.032	-0.220	-0.018
-635.595	48.475	-0.168	-0.159
-634.580	-113.632	-0.243	-0.048
-633.565	347.641	-0.163	-0.324
-632.551	390.278	-0.028	-0.058
-631.536	-26.447	-0.294	-0.174
-630.522	80.279	0.178	-0.193
-629.507	293.329	0.106	-0.195
-628.492	66.143	-0.170	-0.174
-627.478	249.442	0.094	0.160
-626.463	-6.424	-0.134	-0.092
-625.449	52.144	0.214	0.205
-624.434	-200.000	0.001	-0.022
-623.419	344.091	0.070	0.138
-622.405	-117.024	0.269	-0.049
-621.390	-113.331	-0.395	0.078
-620.376	32.206	0.080	-0.070
-619.361	-36.156	0.489	-0.266
-618.346	-10.782	-0.095	0.063
-617.332	-142.767	-0.100	-0.010
-616.317	656.940	-0.036	-0.093
-615.303	215.604	-0.140	0.223
-614.288	800.000	-0.089	0.302
-613.273	-200.000	-0.002	0.248
-612.259	-200.000	-0.030	-0.175
-611.244	-200.000	0.015	-0.073
-610.230	604.376	0.062	-0.157
-609.215	21.275	0.330	-0.269
-608.201	237.841	-0.121	-0.201
-607.186	62.942	-0.118	0.119
-606.171	800.000	-0.020	-0.066
-605.157	222.912	0.182	-0.295
-604.142	-200.000	0.024	-0.174
-603.128	-169.904	0.042	-0.002
-602.113	-125.710	0.359	-0.055
-601.098	-82.307	-0.206	0.067
-600.084	-104.606	0.100	-0.023
-599.069	26.194	-0.087	-0.073
-598.055	-109.936	-0.184	0.039
-597.040	198.332	-0.114	-0.176
-596.025	-116.907	-0.370	-0.068
-595.011	-10.584	-0.098	0.065
-593.996	391.448	0.107	0.223
-592.982	-85.497	0.043	-0.014
-591.967	51.244	-0.279	-0.267
-590.952	-162.163	-0.235	0.012
-589.938	800.000	0.062	0.228
-588.923	-109.912	-0.208	0.044
-587.909	99.273	0.156	-0.181
-586.894	800.000	0.041	-0.122
-585.879	58.918	-0.082	-0.081
-584.865	783.541	-0.115	-0.316
-583.850	-3.881	-0.251	0.175
-582.836	230.864	-0.113	0.186
-581.821	-151.184	-0.095	0.007
-580.806	150.737	0.151	0.206
-579.792	-200.000	-0.012	0.065
-578.777	108.567	-0.266	-0.320
-577.763	249.568	-0.079	0.135
-576.748	-138.735	-0.126	-0.014
-575.733	-200.000	0.047	0.261
-574.719	34.924	-0.144	0.127
-573.704	698.257	0.043	0.113
-572.690	-170.481	0.321	0.011
-571.675	-200.000	-0.039	-0.179
-570.661	-123.912	0.342	-0.054
-569.646	-126.894	0.309	-0.046
-568.631	-167.496	-0.145	-0.006
-567.617	-70.787	-0.095	0.036
-566.602	72.073	-0.142	0.148
-565.588	350.926	-0.027	-0.053
-564.573	63.874	0.112	0.113
-563.558	199.562	0.135	0.209
-562.544	-55.554	0.313	0.141
-561.529	800.000	0.087	0.316
-560.515	-59.846	-0.177	-0.076
-559.500	581.084	0.099	-0.245
-558.485	800.000	0.142	-0.450
-557.471	82.172	0.213	-0.232
-556.456	676.349	0.032	0.083
-555.442	-135.379	0.114	0.014
-554.427	-111.090	-0.160	0.033
-553.412	162.572	0.179	-0.252
-552.398	-200.000	-0.023	0.151
-551.383	-200.000	-0.011	0.126
-550.369	10.189	-0.296	-0.226
-549.354	-61.480	-0.246	0.104
-548.339	448.336	0.072	0.160
-547.325	800.000	0.135	-0.454
-546.310	289.824	-0.075	-0.138
-545.296	439.768	0.139	-0.306
-544.281	-152.109	0.061	-0.004
-543.266	231.407	-0.067	0.111
-542.252	27.435	-0.100	0.084
-541.237	-73.993	-0.126	0.046
-540.223	-200.000	0.007	-0.385
-539.208	-200.000	-0.037	-0.240
-538.193	-24.330	-0.165	-0.099
-537.179	800.000	-0.047	0.169
-536.164	14.558	-0.031	-0.025
-535.150	-116.009	-0.419	-0.078
-534.135	-110.525	-0.301	-0.063
-533.121	-104.056	-0.038	0.009
-532.106	800.000	0.025	-0.104
-531.091	250.499	0.120	0.205
-530.077	-35.752	0.143	-0.078
-529.062	57.388	-0.067	-0.066
-528.048	-173.783	0.056	-0.002
-527.033	-53.136	0.070	0.032
-526.018	118.616	-0.087	-0.107
-525.004	-200.000	-0.134	-0.000
-523.989	57.893	-0.197	0.194
-522.975	-140.908	0.256	-0.026
-521.960	-200.000	0.010	0.208
-520.945	237.572	-0.080	0.134
-519.931	84.245	-0.262	-0.287
-518.916	-200.000	-0.001	0.082
-517.902	165.039	-0.137	0.194
-516.887	174.672	-0.030	0.044
-515.872	-200.000	-0.016	0.196
-514.858	-169.386	0.229	-0.008
-513.843	-178.055	0.304	0.007
-512.829	800.000	0.054	-0.172
-511.814	800.000	0.046	0.140
-510.799	25.471	0.267	0.223
-509.785	18.007	0.033	-0.026
-508.770	18.965	0.360	0.289
-507.756	800.000	0.073	0.230
-506.741	-200.000	-0.033	0.464
-505.726	79.289	0.229	0.247
-504.712	-88.122	-0.356	-0.107
-503.697	-57.353	-0.083	-0.037
-502.683	201.983	-0.268	0.414
-501.668	800.000	-0.046	-0.138
-500.653	407.064	-0.103	0.219
-499.639	-71.740	0.150	0.056
-498.624	-113.911	0.203	-0.039
-497.610	-57.694	0.497	0.218
-496.595	53.338	0.184	0.177
-495.581	77.627	0.081	0.086
-494.566	108.401	0.117	0.140
-493.551	800.000	0.039	-0.147
-492.537	207.284	-0.172	0.269
-491.522	227.328	-0.082	-0.133
-490.508	7.877	0.206	-0.154
-489.493	-85.945	0.190	-0.059
-488.478	-200.000	0.013	-0.231
-487.464	461.237	0.068	-0.153
-486.449	-200.000	-0.019	0.189
-485.435	-158.966	0.084	-0.005
-484.420	711.937	-0.106	-0.280
-483.405	-188.876	-0.332	-0.004
-482.391	657.688	-0.116	-0.298
-481.376	-22.549	0.128	-0.077
-480.362	800.000	0.076	-0.245
-479.347	-120.026	0.204	-0.035
-478.332	-131.191	0.573	0.076
-477.318	-200.000	0.026	-0.156
-476.303	117.572	0.258	-0.318
-475.289	-200.000	-0.008	-0.213
-474.274	-138.004	0.389	-0.043
-473.259	261.790	-0.142	-0.246
-472.245	-16.109	0.030	-0.019
-471.230	3.273	0.100	0.073
-470.216	67.345	-0.116	-0.119
-469.201	-38.837	0.247	-0.130
-468.186	228.828	-0.117	0.190
-467.172	-94.559	0.211	0.057
-466.157	-12.081	-0.454	0.298
-465.143	-200.000	-0.020	-0.232
-464.128	-200.000	0.042	-0.364
-463.113	3.859	0.348	0.254
-462.099	-65.749	0.125	0.050
-461.084	-200.000	0.027	-0.364
-460.070	-200.000	-0.056	-0.292
-459.055	399.942	-0.069	0.144
-458.040	-79.718	-0.196	0.066
-457.026	-200.000	0.025	-0.174
-456.011	800.000	0.103	0.329
-454.997	662.807	0.090	0.232
-453.982	-128.822	0.226	-0.032
-452.968	-53.393	-0.108	-0.049
-451.953	-34.151	0.237	-0.130
-450.938	527.728	0.007	0.017
-449.924	800.000	0.039	-0.115
-448.909	-80.679	0.247	0.082
-447.895	326.821	-0.150	-0.288
-446.880	-57.904	0.224	0.098
-445.865	127.695	-0.205	-0.260
-444.851	157.612	-0.123	-0.171
-443.836	800.000	0.032	0.108
-442.822	95.710	0.304	0.347
-441.807	142.126	0.225	0.298
-440.792	368.952	-0.107	-0.216
-439.778	20.576	0.341	0.276
-438.763	800.000	-0.024	-0.091
-437.749	216.312	-0.074	0.118
-436.734	298.444	-0.129	0.237
-435.719	-22.168	-0.243	0.147
-434.705	528.675	-0.118	-0.279
-433.690	39.717	0.189	-0.169
-432.676	800.000	0.101	-0.323
-431.661	-200.000	0.001	0.070
-430.646	-200.000	0.034	0.174
-429.632	-200.000	0.028	0.227
-428.617	800.000	-0.080	0.319
-427.603	-122.325	-0.222	-0.036
-426.588	-13.239	0.238	-0.154
-425.573	800.000	-0.119	-0.339
-424.559	-200.000	-0.013	-0.158
-423.544	-69.236	0.175	0.067
-422.530	106.246	0.156	0.185
-421.515	800.000	0.058	-0.180
-420.500	-68.746	0.215	0.083
-419.486	-200.000	0.001	0.113
-418.471	129.507	-0.095	-0.121
-417.457	-71.602	0.153	0.057
-416.442	218.150	-0.033	0.053
-415.428	800.000	-0.027	-0.108
-414.413	690.199	0.086	-0.224
-413.398	72.854	0.289	0.302
-412.384	75.191	0.096	0.101
-411.369	-200.000	0.020	-0.110
-410.355	-126.453	-0.146	-0.022
-409.340	302.864	0.065	0.120
-408.325	64.865	-0.253	0.255
-407.311	83.754	0.282	0.307
-406.296	-200.000	-0.003	0.344
-405.282	-181.905	-0.031	-0.001
-404.267	-8.591	-0.153	-0.102
-403.252	-79.927	0.029	0.010
-402.238	-200.000	-0.041	-0.273
-401.223	151.851	-0.040	-0.055
-400.209	-114.468	0.356	0.068
-399.194	81.257	0.206	-0.222
-398.179	-61.551	-0.318	0.133
-397.165	17.063	0.114	0.091
-396.150	800.000	-0.068	0.221
-395.136	154.185	-0.154	-0.211
-394.121	800.000	-0.107	0.391
-393.106	556.177	-0.111	-0.267
-392.092	-200.000	-0.008	-0.066
-391.077	137.940	-0.119	0.155
-390.063	800.000	-0.077	0.221
-389.048	97.949	0.115	-0.132
-388.033	-68.160	-0.219	-0.085
-387.019	634.496	-0.017	0.042
-386.004	800.000	0.164	-0.466
-384.990	-116.576	-0.219	-0.040
-383.975	152.919	0.062	-0.084
-382.960	-100.544	0.216	-0.053
-381.946	399.255	-0.132	0.276
-380.931	146.522	0.189	-0.253
-379.917	-185.898	-0.428	0.006
-378.902	26.150	0.129	-0.107
-377.888	-44.590	-0.369	0.184
-376.873	86.971	0.073	-0.080
-375.858	322.372	0.110	-0.209
-374.844	118.600	-0.214	0.264
-373.829	35.573	0.033	0.029
-372.815	-200.000	0.009	0.133
-371.800	-104.681	0.360	0.083
-370.785	800.000	-0.069	0.196
-369.771	381.661	0.239	0.489
-368.756	-145.604	-0.116	-0.010
-367.742	197.635	0.242	-0.369
-366.727	-32.563	-0.158	-0.088
-365.712	-102.928	-0.153	0.036
-364.698	272.827	-0.131	-0.231
-363.683	-141.574	0.024	-0.002
-362.669	139.511	-0.139	-0.182
-361.654	36.877	-0.178	0.157
-360.639	365.614	0.155	0.311
-359.625	-180.851	0.204	0.004
-358.610	370.473	0.116	-0.235
-357.596	-162.959	0.317	-0.015
-356.581	127.780	-0.221	0.280
-355.566	800.000	0.094	0.312
-354.552	-33.911	0.143	-0.078
-353.537	-87.524	-0.346	-0.104
-352.523	-75.717	-0.225	-0.080
-351.508	-8.817	-0.104	-0.070
-350.493	-102.993	0.222	-0.052
-349.479	800.000	0.126	-0.411
-348.464	-200.000	-0.025	-0.193
-347.450	800.000	-0.020	0.084
-346.435	204.495	-0.134	-0.207
-345.420	5.506	-0.187	-0.138
-344.406	-88.752	-0.492	-0.146
-343.391	-130.361	0.136	-0.018
-342.377	800.000	-0.119	0.395
-341.362	800.000	-0.024	-0.074
-340.348	-121.858	-0.180	-0.030
-339.333	800.000	-0.018	-0.065
-338.318	-137.491	-0.123	0.014
-337.304	-35.914	-0.101	0.054
-336.289	-43.219	0.056	0.028
-335.275	404.995	-0.113	-0.237
-334.260	-49.469	0.091	-0.043
-333.245	-41.844	-0.110	0.056
-332.231	-200.000	-0.061	-0.364
-331.216	-115.557	0.260	-0.049
-330.202	10.060	0.174	-0.131
-329.187	800.000	0.095	0.284
-328.172	62.325	-0.219	0.218
-327.158	800.000	-0.073	-0.303
-326.143	-200.000	-0.075	-0.351
-325.129	-65.351	0.036	-0.014
-324.114	-8.588	0.169	0.113
-323.099	-97.156	0.113	0.029
-322.085	-200.000	-0.008	0.037
-321.070	-152.210	0.381	-0.027
-320.056	18.974	0.261	-0.208
-319.041	94.088	-0.176	-0.199
-318.026	800.000	0.055	0.175
-317.012	-24.451	-0.398	0.236
-315.997	-112.041	0.472	0.095
-314.983	-12.761	-0.296	-0.192
-313.968	445.532	0.119	-0.260
-312.953	117.766	0.163	0.200
-311.939	800.000	0.071	0.206
-310.924	800.000	-0.057	0.163
-309.910	-200.000	-0.043	0.305
-308.895	441.011	-0.079	0.171
-307.880	-88.693	0.174	-0.052
-306.866	-200.000	0.008	0.405
-305.851	-200.000	0.034	0.152
-304.837	-200.000	-0.015	0.443
-303.822	-134.328	-0.428	0.052
-302.807	-143.675	0.180	0.017
-301.793	327.744	-0.196	0.374
-300.778	-69.945	0.104	-0.040
-299.764	48.873	0.071	-0.067
-298.749	-142.756	-0.140	0.014
-297.735	-200.000	-0.014	0.173
-296.720	-200.000	0.061	-0.269
-295.705	-200.000	-0.061	-0.333
-294.691	-135.896	-0.259	0.030
-293.676	-200.000	0.016	0.180
-292.662	-200.000	-0.057	-0.315
-291.647	-67.038	0.112	-0.044
-290.632	-200.000	-0.001	-0.063
-289.618	-21.895	0.136	0.082
-288.603	-200.000	-0.011	-0.339
-287.589	-200.000	-0.053	0.289
-286.574	357.745	0.075	-0.148
-285.559	800.000	-0.070	-0.283
-284.545	-125.081	0.407	0.062
-283.530	-124.132	0.235	0.037
-282.516	-190.181	-0.496	0.005
-281.501	-10.504	-0.138	-0.091
-280.486	-15.752	0.330	0.209
-279.472	-200.000	0.015	-0.261
-278.457	-159.399	0.238	-0.013
-277.443	-200.000	0.044	-0.279
-276.428	-24.226	-0.237	-0.141
-275.413	181.456	-0.243	0.355
-274.399	-200.000	-0.019	0.154
-273.384	800.000	0.050	-0.187
-272.370	-49.866	-0.066	0.031
-271.355	-28.724	0.060	-0.034
-270.340	16.976	0.070	-0.055
-269.326	-136.726	-0.470	0.054
-268.311	-100.449	0.194	0.048
-267.297	-138.644	0.164	0.018
-266.282	20.228	-0.075	0.060
-265.267	171.367	0.159	-0.226
-264.253	453.100	0.076	-0.168
-263.238	58.266	-0.428	-0.417
-262.224	800.000	0.051	-0.155
-261.209	115.928	0.090	0.109
-260.195	188.504	0.111	0.165
-259.180	-21.567	-0.182	-0.110
-258.165	473.320	-0.126	0.282
-257.151	-45.034	-0.036	0.018
-256.136	-200.000	-0.042	-0.350
-255.122	-83.069	0.362	0.116
-254.107	-18.383	0.161	0.100
-253.092	-18.922	-0.465	0.287
-252.078	-200.000	0.011	0.208
-251.063	493.888	0.076	-0.174
-250.049	-200.000	-0.288	-0.000
-249.034	-97.637	-0.168	0.043
-248.019	-14.921	-0.210	-0.134
-247.005	-200.000	0.050	0.341
-245.990	-200.000	-0.083	0.414
-244.976	336.939	0.074	0.142
-243.961	277.725	0.080	0.141
-242.946	-200.000	-0.037	0.186
-241.932	19.160	-0.064	0.051
-240.917	-200.000	-0.009	0.462
-239.903	-161.488	-0.628	-0.032
-238.888	-43.318	-0.046	0.023
-237.873	-49.293	0.211	-0.100
-236.859	2.398	-0.176	0.126
-235.844	-121.905	0.210	0.034
-234.830	140.602	0.168	0.219
-233.815	187.894	0.149	0.221
-232.800	-200.000	0.015	0.171
-231.786	160.453	-0.157	-0.217
-230.771	800.000	-0.045	0.157
-229.757	406.554	0.087	0.182
-228.742	-152.746	-0.288	-0.020
-227.727	127.620	-0.077	0.096
-226.713	164.429	0.096	-0.134
-225.698	-117.679	0.196	0.035
-224.684	800.000	-0.062	0.194
-223.669	144.817	0.167	0.221
-222.655	-146.012	-0.301	0.026
-221.640	800.000	0.025	0.071
-220.625	-167.744	-0.113	-0.004
-219.611	800.000	-0.061	0.176
-218.596	-43.098	0.086	-0.043
-217.582	87.558	0.191	0.210
-216.567	149.128	-0.107	0.143
-215.552	51.960	0.142	0.134
-214.538	-200.000	-0.002	0.185
-213.523	-67.376	0.408	-0.159
-212.509	319.111	0.078	-0.147
-211.494	-18.212	-0.141	0.088
-210.479	-200.000	0.003	0.139
-209.465	210.768	-0.226	-0.353
-208.450	19.369	0.266	0.211
-207.436	-137.321	0.140	-0.016
-206.421	23.764	0.174	0.142
-205.406	-13.769	-0.027	0.017
-204.392	-145.252	0.304	-0.027
-203.377	661.652	-0.097	0.248
-202.363	227.575	0.162	-0.262
-201.348	281.031	0.076	-0.135
-200.333	-144.736	0.096	-0.009
-199.319	-55.782	-0.355	-0.157
-198.304	-55.035	-0.211	-0.094
-197.290	-79.879	0.308	0.102
-196.275	-15.059	-0.132	-0.084
-195.260	-105.085	0.062	-0.014
-194.246	20.342	-0.202	0.162
-193.231	-32.954	0.276	-0.152
-192.217	-200.000	0.005	-0.122
-191.202	-200.000	0.030	-0.174
-190.187	31.484	0.100	-0.085
-189.173	193.493	-0.159	-0.238
-188.158	159.036	0.296	-0.408
-187.144	306.963	-0.044	-0.081
-186.129	-55.672	-0.302	0.134
-185.114	800.000	-0.059	-0.218
-184.100	571.444	0.021	0.052
-183.085	-110.857	-0.230	0.047
-182.071	132.266	-0.123	-0.157
-181.056	-67.614	0.057	-0.022
-180.042	-200.000	-0.040	-0.280
-179.027	-122.623	-0.266	0.043
-178.012	-169.810	0.167	0.006
-176.998	-200.000	0.033	0.445
-175.983	-99.443	-0.170	0.042
-174.969	-200.000	0.096	0.518
-173.954	370.497	0.125	-0.251
-172.939	337.747	-0.112	0.215
-171.925	137.771	-0.035	-0.045
-170.910	642.147	0.084	-0.213
-169.896	-118.430	0.176	-0.031
-168.881	-200.000	0.012	-0.251
-167.866	618.603	-0.057	-0.141
-166.852	-102.991	-0.300	-0.071
-165.837	800.000	0.033	-0.107
-164.823	-200.000	-0.072	-0.384
-163.808	800.000	0.110	0.322
-162.793	31.847	0.219	-0.187
-161.779	-141.865	0.228	0.023
-160.764	5.469	-0.012	0.008
-159.750	263.262	-0.247	0.424
-158.735	192.951	0.124	0.186
-157.720	-200.000	0.009	0.046
-156.706	-55.581	0.032	-0.014
-155.691	-117.245	-0.331	0.060
-154.677	-62.875	-0.250	-0.102
-153.662	271.663	-0.125	-0.217
-152.647	-200.000	0.015	0.095
-151.633	-200.000	0.003	0.127
-150.618	-88.353	0.180	-0.053
-149.604	138.112	0.096	0.124
-148.589	-21.245	0.114	0.069
-147.574	547.814	-0.084	0.199
-146.560	501.604	-0.115	0.262
-145.545	-92.274	0.023	-0.006
-144.531	-135.260	-0.039	0.005
-143.516	-200.000	0.005	-0.035
-142.502	-144.424	-0.115	0.011
-141.487	31.068	0.241	-0.204
-140.472	681.072	-0.018	0.045
-139.458	-34.596	-0.073	0.039
-138.443	-47.226	-0.347	0.167
-137.429	344.764	0.113	-0.220
-136.414	183.682	0.012	0.017
-135.399	-68.787	0.130	-0.050
-134.385	-66.522	-0.359	0.141
-133.370	215.564	0.087	0.136
-132.356	-200.000	-0.053	0.275
-131.341	-161.778	-0.115	-0.006
-130.326	47.390	0.173	0.159
-129.312	-133.786	0.110	-0.013
-128.297	-91.970	-0.141	-0.039
-127.283	209.680	0.030	-0.047
-126.268	-76.614	-0.316	0.109
-125.253	-200.000	-0.019	0.091
-124.239	316.470	-0.177	0.331
-123.224	202.827	0.138	-0.210
-122.210	78.610	-0.065	-0.069
-121.195	-200.000	0.009	0.368
-120.180	419.528	-0.118	-0.250
-119.166	664.952	0.155	-0.396
-118.151	-31.201	-0.332	0.185
-117.137	138.518	0.072	-0.093
-116.122	-99.818	0.043	-0.011
-115.107	87.645	0.240	0.262
-114.093	330.166	0.097	0.184
-113.078	-79.774	-0.225	-0.075
-112.064	226.504	0.140	-0.224
-111.049	78.686	0.165	-0.174
-110.034	-200.000	0.041	0.349
-109.020	-45.352	0.037	-0.018
-108.005	253.602	0.052	-0.088
-106.991	-200.000	-0.001	-0.074
-105.976	-200.000	0.034	-0.257
-104.962	800.000	0.035	0.110
-103.947	-151.269	-0.234	-0.017
-102.932	691.630	0.021	0.054
-101.918	108.538	0.207	0.244
-100.903	-23.854	-0.141	0.083
-99.889	-200.000	0.006	-0.241
-98.874	-120.452	0.227	0.038
-97.859	-200.000	0.000	0.007
-96.845	251.636	-0.138	-0.232
-95.830	426.016	0.060	0.128
-94.816	228.221	0.113	-0.182
-93.801	-21.215	-0.083	0.050
-92.786	-200.000	0.001	0.184
-91.772	236.328	0.062	-0.102
-90.757	800.000	0.098	-0.277
-89.743	-200.000	-0.011	-0.098
-88.728	-151.481	-0.132	-0.010
-87.713	800.000	-0.051	0.186
-86.699	141.979	0.164	0.214
-85.684	-147.273	-0.482	-0.040
-84.670	371.451	0.121	-0.243
-83.655	297.723	-0.068	0.124
-82.640	433.331	-0.101	0.217
-81.626	-200.000	-0.035	0.467
-80.611	183.134	0.247	0.360
-79.597	262.001	0.117	-0.199
-78.582	13.267	-0.231	0.177
-77.567	800.000	0.069	0.189
-76.553	-154.015	-0.102	0.007
-75.538	-58.008	-0.113	0.049
-74.524	17.050	0.214	0.167
-73.509	-5.841	0.162	0.109
-72.494	742.681	0.075	-0.198
-71.480	178.870	-0.115	0.166
-70.465	357.931	0.049	0.097
-69.451	-200.000	0.002	-0.312
-68.436	201.154	-0.210	0.319
-67.422	173.653	-0.139	0.198
-66.407	0.510	-0.213	-0.150
-65.392	-200.000	0.050	0.244
-64.378	90.635	0.072	0.079
-63.363	244.082	-0.096	-0.159
-62.349	12.190	0.341	0.259
-61.334	60.509	-0.982	-0.958
-60.319	25.191	0.383	0.313
-59.305	800.000	-0.328	-0.945
-58.290	470.637	0.486	1.077
-57.276	800.000	0.549	1.789
-56.261	-200.000	95.293	572.722
-55.246	646.003	1373.166	3454.401
-54.232	199.532	2543.590	3842.555
-53.217	118.796	2161.591	2630.363
-52.203	43.242	1708.030	1536.103
-51.188	35.998	1520.650	1318.187
-50.173	33.559	1493.809	1278.446
-49.159	52.588	1542.079	1450.519
-48.144	54.292	1560.034	1479.026
-47.130	36.051	1520.585	1318.285
-46.115	32.896	1506.152	1284.290
-45.100	32.885	1502.075	1280.694
-44.086	32.811	1500.357	1278.672
-43.071	32.785	1498.596	1276.950
-42.057	32.661	1496.872	1274.591
-41.042	32.690	1495.334	1273.421
-40.027	32.789	1493.949	1272.863
-39.013	32.726	1492.521	1271.171
-37.998	32.676	1491.409	1269.836
-36.984	32.681	1490.432	1268.983
-35.969	32.738	1488.758	1267.892
-34.954	32.738	1487.429	1266.712
-33.940	32.780	1486.030	1265.755
-32.925	32.709	1484.743	1264.127
-31.911	32.668	1483.826	1263.024
-30.896	32.747	1482.118	1262.050
-29.881	32.752	1480.643	1260.774
-28.867	32.737	1479.380	1259.550
-27.852	32.835	1477.490	1258.544
-26.838	32.755	1476.513	1257.131
-25.823	32.695	1474.875	1255.289
-24.809	32.735	1473.551	1254.376
-23.794	32.670	1471.834	1252.430
-22.779	32.839	1469.881	1251.843
-21.765	32.718	1469.336	1250.526
-20.750	32.673	1468.396	1249.379
-19.736	32.703	1466.979	1248.318
-18.721	32.762	1465.939	1247.775
-17.706	32.657	1464.845	1246.105
-16.692	32.637	1463.940	1245.148
-15.677	32.582	1463.204	1244.115
-14.663	32.716	1461.813	1243.761
-13.648	32.522	1461.353	1242.042
-12.633	32.601	1460.250	1241.580
-11.619	32.704	1459.357	1241.447
-10.604	32.683	1458.496	1240.525
-9.590	32.588	1457.600	1239.090
-8.575	32.600	1456.740	1238.393
-7.560	32.662	1455.921	1238.053
-6.546	32.654	1455.086	1237.242
-5.531	32.658	1454.146	1236.419
-4.517	32.614	1453.176	1235.253
-3.502	32.634	1452.294	1234.589
-2.487	32.766	1450.753	1234.090
-1.473	32.647	1450.023	1232.647
-0.458	32.676	1448.835	1231.775
0.556	31.715	1439.286	1220.860
1.571	28.805	1413.273	1180.029
2.586	25.299	1353.080	1108.069
3.600	23.565	1271.639	1031.218
4.615	22.111	1226.313	986.218
5.629	19.216	1169.497	924.918
6.644	11.587	1086.227	820.799
7.659	5.654	1045.729	761.362
8.673	4.681	1041.006	753.146
9.688	4.819	1037.424	751.157
10.702	4.726	1036.301	749.828
11.717	4.644	1034.569	748.116
12.731	6.775	1036.549	759.739
13.746	14.098	1046.259	802.239
14.761	18.959	1052.703	830.647
15.775	18.839	1051.013	828.659
16.790	17.726	1049.117	821.731
17.804	16.672	1046.896	814.848
18.819	15.831	1044.588	808.937
19.834	15.372	1043.417	805.757
20.848	15.002	1042.624	803.296
21.863	14.964	1041.686	802.323
22.877	14.602	1041.265	800.191
23.892	14.578	1039.784	798.868
24.907	14.362	1039.777	797.757
25.921	14.352	1039.427	797.368
26.936	14.368	1038.332	796.535
27.950	14.497	1037.075	796.116
28.965	14.388	1036.442	795.040
29.980	14.587	1034.666	794.556
30.994	14.596	1033.941	793.973
32.009	14.748	1032.546	793.552
33.023	14.676	1032.083	792.784
34.038	14.745	1031.028	792.231
35.053	14.602	1030.207	790.854
36.067	14.626	1029.258	790.165
37.082	14.488	1028.689	789.008
38.096	14.443	1028.095	788.268
39.111	14.628	1026.951	788.197
40.126	14.697	1026.343	787.987
41.140	14.571	1025.189	786.436
42.155	14.456	1023.792	784.754
43.169	14.407	1023.096	783.918
44.184	14.253	1021.934	782.239
45.199	14.138	1020.833	780.785
46.213	14.337	1019.536	780.654
47.228	14.350	1018.671	779.985
48.242	14.421	1018.018	779.750
49.257	14.592	1016.803	779.549
50.271	14.376	1016.386	778.153
51.286	14.432	1015.496	777.661
52.301	14.470	1014.656	777.129
53.315	14.537	1013.639	776.589
54.330	14.466	1012.687	775.466
55.344	14.361	1012.135	774.485
56.359	14.203	1011.285	773.032
57.374	14.445	1009.800	772.950
58.388	14.279	1009.536	771.909
59.403	14.453	1008.238	771.654
60.417	14.282	1007.926	770.555
61.432	14.251	1007.296	769.864
62.447	14.306	1006.202	769.212
63.461	14.208	1005.600	768.233
64.476	14.288	1004.594	767.764
65.490	14.094	1003.883	766.260
66.505	14.169	1002.888	765.777
67.520	14.238	1002.167	765.478
68.534	14.317	1001.535	765.287
69.549	14.356	1000.386	764.522
70.563	14.178	1000.041	763.373
71.578	14.204	999.224	762.800
72.593	14.079	998.526	761.632
73.607	14.052	997.819	760.900
74.622	14.073	996.474	759.900
75.636	14.206	995.425	759.642
76.651	13.997	995.527	758.697
77.666	14.206	993.925	758.361
78.680	14.127	993.194	757.377
79.695	14.122	992.864	757.039
80.709	13.969	992.786	756.215
81.724	14.318	991.211	756.535
82.739	14.305	990.752	756.055
83.753	14.360	989.991	755.656
84.768	14.463	989.291	755.524
85.782	14.476	988.530	754.935
86.797	14.685	987.970	755.388
87.812	14.781	986.754	754.825
88.826	14.547	986.200	753.276
89.841	14.410	985.639	752.161
90.855	14.497	984.640	751.728
91.870	14.519	984.110	751.354
92.884	14.645	983.375	751.293
93.899	14.579	982.457	750.230
94.914	14.728	981.552	750.142
95.928	14.685	981.263	749.660
96.943	14.860	980.032	749.437
97.957	14.747	979.288	748.297
98.972	14.625	978.617	747.172
99.987	14.621	978.289	746.838
101.001	14.653	977.509	746.321
102.016	14.573	976.954	745.472
103.030	14.591	976.195	744.908
104.045	14.525	975.151	743.752
105.060	14.697	974.043	743.604
106.074	14.655	972.823	742.423
107.089	14.426	972.199	740.861
108.103	14.197	971.637	739.351
109.118	14.215	970.303	738.351
110.133	14.207	970.010	738.028
111.147	14.298	968.732	737.393
112.162	14.167	968.200	736.343
113.176	14.400	967.307	736.628
114.191	14.247	966.396	735.194
115.206	14.390	965.273	734.902
116.220	14.465	964.502	734.582
117.235	14.367	963.695	733.473
118.249	14.393	962.863	732.887
119.264	14.373	962.097	732.150
120.279	14.266	961.159	730.905
121.293	14.235	960.697	730.352
122.308	14.147	960.058	729.416
123.322	14.222	959.138	728.980
124.337	14.317	958.168	728.596
125.352	14.128	957.068	726.868
126.366	14.159	955.805	725.979
127.381	14.226	954.872	725.500
128.395	14.248	953.716	724.653
129.410	14.156	953.109	723.729
130.424	14.260	951.983	723.259
131.439	14.339	950.998	722.791
132.454	14.485	950.105	722.680
133.468	14.445	949.619	722.073
134.483	14.489	948.845	721.611
135.497	14.337	948.586	720.694
136.512	14.475	947.716	720.565
137.527	14.454	947.262	720.063
138.541	14.290	946.507	718.722
139.556	14.380	945.830	718.529
140.570	14.434	944.407	717.616
141.585	14.602	943.788	717.807
142.600	14.672	943.465	717.797
143.614	14.672	942.826	717.249
144.629	14.602	942.332	716.508
145.643	14.664	941.036	715.726
146.658	14.618	940.387	714.972
147.673	14.735	939.113	714.442
148.687	14.590	938.020	712.928
149.702	14.455	937.694	712.037
150.716	14.385	936.772	710.977
151.731	14.364	936.379	710.528
152.746	14.374	935.481	709.824
153.760	14.344	935.015	709.281
154.775	14.533	933.935	709.203
155.789	14.503	933.202	708.456
156.804	14.616	932.429	708.287
157.819	14.706	931.481	707.884
158.833	14.629	931.072	707.183
159.848	14.733	930.457	707.096
160.862	14.826	929.504	706.701
161.877	14.738	929.161	706.009
162.892	14.623	927.873	704.482
163.906	14.448	927.217	703.182
164.921	14.624	926.154	703.055
165.935	14.618	925.008	702.095
166.950	14.567	924.268	701.260
167.964	14.679	923.578	701.144
168.979	14.725	922.377	700.363
169.994	14.507	921.757	698.918
171.008	14.517	920.765	698.145
172.023	14.615	920.116	698.000
173.037	14.795	919.191	697.990
174.052	14.741	918.705	697.331
175.067	14.774	917.872	696.778
176.081	14.632	917.481	695.826
177.096	14.651	915.969	694.696
178.110	14.537	915.464	693.780
179.125	14.613	914.770	693.507
180.140	14.748	913.968	693.397
181.154	14.547	913.754	692.340
182.169	14.584	913.197	692.012
183.183	14.736	912.386	691.965
184.198	14.959	911.230	691.947
185.213	14.961	911.054	691.764
186.227	14.945	910.211	690.995
187.242	14.881	909.914	690.446
188.256	15.107	909.011	690.631
189.271	14.990	908.835	689.953
190.286	15.098	908.099	689.779
191.300	14.891	906.775	687.861
192.315	14.606	906.355	686.309
193.329	14.687	905.259	685.751
194.344	14.671	904.851	685.315
195.359	14.650	904.367	684.801
196.373	14.780	903.910	684.929
197.388	14.789	903.248	684.404
198.402	14.914	902.744	684.471
199.417	15.081	902.226	684.700
200.432	15.215	901.989	685.009
201.446	15.187	901.764	684.662
202.461	15.287	901.109	684.513
203.475	15.330	900.527	684.185
204.490	15.369	899.580	683.564
205.504	15.110	898.677	681.763
206.519	15.176	897.742	681.262
207.534	15.036	897.597	680.522
208.548	14.924	896.896	679.475
209.563	14.997	896.309	679.267
210.577	14.998	895.510	678.607
211.592	15.086	894.699	678.289
212.607	15.255	894.272	678.590
213.621	15.299	893.800	678.348
214.636	15.326	893.095	677.861
215.650	15.334	892.270	677.210
216.665	15.232	891.956	676.499
217.680	15.371	891.330	676.525
218.694	15.429	891.014	676.459
219.709	15.384	890.509	675.836
220.723	15.474	889.393	675.289
221.738	15.461	888.660	674.620
222.753	15.463	888.152	674.185
223.767	15.419	887.645	673.561
224.782	15.489	886.607	672.996
225.796	15.433	885.633	671.974
226.811	15.520	885.165	671.908
227.826	15.475	884.954	671.506
228.840	15.328	884.494	670.512
229.855	15.327	883.778	669.905
230.869	15.363	882.587	669.087
231.884	15.399	881.935	668.678
232.899	15.364	881.507	668.155
233.913	15.333	880.588	667.275
234.928	15.253	879.998	666.449
235.942	15.464	879.174	666.605
236.957	15.423	878.294	665.715
237.972	15.346	878.159	665.251
238.986	15.308	877.442	664.496
240.001	15.446	876.459	664.239
241.015	15.328	876.551	663.785
242.030	15.403	875.729	663.400
243.045	15.455	875.040	663.024
244.059	15.496	874.366	662.617
245.074	15.509	873.815	662.193
246.088	15.433	873.224	661.385
247.103	15.644	872.735	661.787
248.117	15.601	872.050	661.042
249.132	15.754	871.392	661.085
250.147	15.837	871.336	661.310
251.161	15.863	870.539	660.749
252.176	15.991	869.968	660.760
253.190	15.941	869.135	659.873
254.205	16.070	868.443	659.794
255.220	16.070	867.910	659.329
256.234	16.044	867.110	658.561
257.249	16.066	866.680	658.263
258.263	16.056	866.043	657.680
259.278	16.153	865.570	657.642
260.293	15.953	865.363	656.647
261.307	16.237	864.281	656.876
262.322	16.159	863.968	656.275
263.336	16.346	863.182	656.345
264.351	16.228	862.687	655.454
265.366	16.296	862.035	655.163
266.380	16.126	861.817	654.282
267.395	16.257	860.726	653.900
268.409	16.097	860.165	652.797
269.424	16.201	859.583	652.703
270.439	16.284	858.484	652.131
271.453	16.234	858.139	651.615
272.468	16.104	856.965	650.168
273.482	16.177	856.663	650.163
274.497	16.095	856.123	649.377
275.512	16.253	855.308	649.312
276.526	16.193	854.572	648.462
277.541	16.067	854.158	647.609
278.555	16.295	853.380	647.837
279.570	16.283	853.057	647.486
280.585	16.356	852.962	647.637
281.599	16.490	851.691	647.127
282.614	16.367	851.371	646.356
283.628	16.384	850.795	645.928
284.643	16.216	850.445	644.963
285.657	16.327	849.880	644.902
286.672	16.258	849.315	644.152
287.687	16.303	848.681	643.787
288.701	16.417	848.124	643.741
289.716	16.334	847.682	643.033
290.730	16.443	846.698	642.645
291.745	16.560	845.980	642.488
292.760	16.359	845.984	641.670
293.774	16.485	845.128	641.442
294.789	16.623	844.828	641.678
295.803	16.449	844.318	640.576
296.818	16.624	843.245	640.368
297.833	16.493	842.926	639.572
298.847	16.529	841.856	638.842
299.862	16.571	841.242	638.477
300.876	16.567	840.869	638.121
301.891	16.654	840.141	637.842
302.906	16.577	839.723	637.176
303.920	16.826	838.934	637.461
304.935	16.735	838.436	636.683
305.949	16.861	838.144	636.876
306.964	16.859	837.244	636.131
307.979	16.691	837.009	635.264
308.993	16.870	836.227	635.288
310.008	17.014	835.566	635.266
311.022	16.899	835.590	634.798
312.037	16.858	834.866	634.040
313.052	16.839	834.006	633.259
314.066	16.866	833.166	632.667
315.081	16.653	833.099	631.764
316.095	16.694	832.509	631.412
317.110	16.590	831.991	630.576
318.125	16.724	831.276	630.478
319.139	16.665	831.029	630.015
320.154	16.731	830.451	629.767
321.168	16.773	829.796	629.370
322.183	16.724	829.410	628.839
323.197	16.832	828.922	628.814
324.212	16.889	828.128	628.370
325.227	16.787	827.893	627.755
326.241	16.858	827.201	627.441
327.256	16.649	826.671	626.207
328.270	16.834	826.180	626.465
329.285	16.917	825.125	625.917
330.300	16.776	824.744	625.052
331.314	16.850	824.482	625.071
332.329	16.774	823.438	623.943
333.343	16.826	823.040	623.777
334.358	16.958	822.994	624.173
335.373	16.962	822.259	623.576
336.387	17.092	821.336	623.297
337.402	17.079	821.103	623.020
338.416	17.135	820.477	622.694
339.431	17.221	819.779	622.425
340.446	17.219	819.729	622.324
341.460	17.440	818.976	622.506
342.475	17.271	818.762	621.671
343.489	17.382	817.919	621.379
344.504	17.562	816.991	621.276
345.519	17.329	817.105	620.457
346.533	17.406	816.372	620.128
347.548	17.530	816.033	620.265
348.562	17.442	815.434	619.435
349.577	17.325	814.712	618.409
350.592	17.144	814.146	617.265
351.606	17.110	813.910	616.907
352.621	17.191	813.403	616.764
353.635	17.267	812.624	616.396
354.650	17.238	812.294	615.984
355.665	17.230	811.933	615.626
356.679	17.354	811.721	615.862
357.694	17.384	810.938	615.322
358.708	17.394	810.484	614.957
359.723	17.350	810.097	614.451
360.738	17.387	809.214	613.862
361.752	17.550	808.474	613.833
362.767	17.476	808.364	613.429
363.781	17.560	808.069	613.451
364.796	17.459	808.054	613.023
365.810	17.518	807.615	612.849
366.825	17.651	807.312	613.041
367.840	17.640	807.039	612.741
368.854	17.621	806.501	612.209
369.869	17.615	805.883	611.667
370.883	17.739	804.708	611.165
371.898	17.707	804.205	610.614
372.913	17.804	803.770	610.576
373.927	17.696	803.408	609.859
374.942	17.772	802.678	609.525
375.956	17.773	801.980	608.945
376.971	17.812	801.489	608.657
377.986	17.807	801.395	608.512
379.000	17.920	800.700	608.332
380.015	17.952	800.316	608.101
381.029	17.772	799.702	606.943
382.044	17.884	798.918	606.691
383.059	17.947	798.397	606.467
384.073	17.866	797.732	605.621
385.088	17.986	797.457	605.783
386.102	17.860	796.793	604.778
387.117	17.941	796.175	604.544
388.132	17.792	795.976	603.810
389.146	17.851	795.416	603.542
390.161	17.950	795.081	603.584
391.175	18.024	794.672	603.482
392.190	17.968	794.657	603.218
393.205	17.922	794.183	602.643
394.219	17.920	793.435	602.015
395.234	17.837	792.881	601.248
396.248	17.724	792.303	600.359
397.263	17.771	792.165	600.368
398.278	17.815	791.480	599.948
399.292	17.820	791.188	599.691
400.307	17.786	790.635	599.100
401.321	17.795	790.215	598.761
402.336	17.707	789.694	598.006
403.350	17.921	789.827	598.803
404.365	17.923	789.149	598.242
405.380	18.151	788.418	598.434
406.394	18.170	788.158	598.250
407.409	18.154	787.876	597.928
408.423	18.242	786.913	597.451
409.438	18.357	786.562	597.531
410.453	18.320	786.419	597.240
411.467	18.510	785.723	597.323
412.482	18.378	785.498	596.638
413.496	18.401	785.216	596.451
414.511	18.456	784.754	596.239
415.526	18.471	784.537	596.075
416.540	18.318	783.898	595.005
417.555	18.384	783.831	595.129
418.569	18.369	783.487	594.763
419.584	18.374	782.547	594.014
420.599	18.414	782.101	593.764
421.613	156.361	1369.357	1795.638
422.628	134.989	1454.938	1795.698
