DTS Sentinel unit serial number:	SN413079Multiplexer serial number:	ORYXHardware model number:	OX4-SRSoftware version number:	ORYX F/W v4.00 Oryx Data Collector v3.7.2.0data status	okinstallation	princeton_trtdifferential loss correction	single-endedforward channel	channel 3reverse channel	N/Adate	2019/09/12time	21:12:35forward acquisition time	60.00reverse acquisition time	0.00gamma	496.2192k internal	0.2326k external	0.2326temperature offset calibration	1.0126default loss term (dB/km)	0.3790temperature slope calibration	1.0000multiplexer offset coefficient	1.0000multiplexer slope coefficient	1.0000fibre end	0.00T internal ref (°C)	30.69T ext. ref 1 (°C)	3.61T ext. ref 2 (°C)	25.22length (m)	temperature (°C)	Stokes	anti-Stokes-747.200	87.901	-0.047	-0.053
-746.185	-200.000	0.035	0.244
-745.171	-85.116	0.245	0.077
-744.156	74.494	0.219	0.233
-743.142	-93.730	0.075	-0.021
-742.127	155.918	-0.130	0.180
-741.112	47.713	0.211	0.199
-740.098	-32.830	-0.263	0.148
-739.083	-103.416	0.072	0.017
-738.069	-200.000	-0.019	-0.177
-737.054	-166.473	0.147	0.006
-736.039	32.004	0.135	0.118
-735.025	202.117	0.139	0.216
-734.010	-200.000	-0.073	-0.365
-732.996	-74.934	-0.049	-0.018
-731.981	370.106	-0.113	-0.231
-730.966	16.604	-0.166	-0.133
-729.952	538.806	-0.096	0.231
-728.937	-57.901	0.117	-0.052
-727.923	-45.881	-0.080	-0.040
-726.908	31.304	-0.154	-0.133
-725.894	800.000	0.021	-0.087
-724.879	561.297	-0.156	-0.380
-723.864	629.373	-0.150	-0.382
-722.850	-110.943	0.124	0.026
-721.835	-94.520	-0.225	0.062
-720.821	13.738	0.179	0.140
-719.806	-200.000	-0.021	-0.094
-718.791	292.135	-0.047	-0.087
-717.777	-127.046	-0.115	0.017
-716.762	-35.259	-0.127	0.070
-715.748	-200.000	0.002	-0.320
-714.733	-98.586	-0.078	-0.020
-713.718	-200.000	0.089	-0.560
-712.704	-119.243	-0.192	-0.034
-711.689	-43.020	0.403	-0.206
-710.675	-23.951	-0.237	0.143
-709.660	50.679	-0.255	-0.243
-708.645	40.653	0.195	-0.177
-707.631	-40.612	0.097	0.051
-706.616	-200.000	0.052	0.243
-705.602	-83.697	-0.305	-0.098
-704.587	25.542	-0.166	-0.139
-703.572	-71.745	0.094	-0.035
-702.558	-27.333	-0.249	-0.146
-701.543	-62.442	-0.177	0.074
-700.529	591.229	-0.103	0.255
-699.514	73.491	-0.022	0.023
-698.499	-33.003	0.443	-0.247
-697.485	331.629	0.027	-0.052
-696.470	-67.102	-0.281	0.112
-695.456	-200.000	-0.011	-0.163
-694.441	504.039	0.027	-0.064
-693.426	-200.000	-0.026	-0.187
-692.412	51.375	0.167	0.160
-691.397	-124.679	0.129	-0.020
-690.383	84.660	0.089	-0.098
-689.368	532.729	0.128	0.304
-688.354	193.084	0.085	0.130
-687.339	800.000	-0.029	-0.125
-686.324	2.389	-0.088	0.064
-685.310	-200.000	-0.001	-0.258
-684.295	-50.336	0.285	0.136
-683.281	19.863	0.157	0.127
-682.266	800.000	0.069	0.244
-681.251	125.956	0.069	0.087
-680.237	142.704	-0.190	0.254
-679.222	539.753	0.119	-0.285
-678.208	-102.441	0.112	0.027
-677.193	155.485	-0.205	-0.284
-676.178	800.000	-0.059	0.197
-675.164	145.379	0.142	-0.192
-674.149	217.365	-0.159	0.254
-673.135	-23.299	-0.218	0.132
-672.120	280.758	0.190	-0.341
-671.105	-144.538	-0.322	-0.030
-670.091	162.020	0.019	0.027
-669.076	800.000	0.026	0.102
-668.062	109.150	-0.058	-0.070
-667.047	-56.024	0.169	-0.076
-666.032	-26.211	0.207	-0.122
-665.018	-141.273	-0.149	-0.015
-664.003	-87.420	-0.128	0.039
-662.989	24.934	-0.300	0.250
-661.974	138.096	-0.149	-0.196
-660.959	137.609	-0.121	0.159
-659.945	-97.838	-0.362	-0.094
-658.930	142.491	0.102	0.136
-657.916	10.635	0.413	0.317
-656.901	800.000	-0.082	-0.277
-655.886	99.366	0.161	0.187
-654.872	-8.090	0.106	0.072
-653.857	-200.000	-0.014	0.117
-652.843	-89.808	-0.166	0.049
-651.828	547.928	-0.068	-0.165
-650.814	262.919	0.119	0.207
-649.799	471.291	-0.014	0.031
-648.784	82.250	-0.172	-0.187
-647.770	-95.330	-0.197	0.053
-646.755	76.848	-0.101	-0.108
-645.741	-99.384	0.350	-0.089
-644.726	-200.000	-0.047	0.331
-643.711	-200.000	0.019	0.102
-642.697	800.000	0.085	-0.264
-641.682	130.769	-0.288	0.371
-640.668	-200.000	0.006	0.375
-639.653	-108.027	-0.138	0.030
-638.638	-101.630	-0.232	0.057
-637.624	800.000	0.035	0.127
-636.609	-78.768	0.337	-0.116
-635.595	-28.951	0.287	0.165
-634.580	-200.000	-0.016	0.217
-633.565	800.000	0.066	-0.206
-632.551	-200.000	-0.022	-0.222
-631.536	162.530	-0.243	-0.342
-630.522	132.910	0.083	-0.108
-629.507	-200.000	-0.005	0.237
-628.492	-200.000	0.021	-0.164
-627.478	-18.961	0.473	0.295
-626.463	800.000	-0.008	-0.031
-625.449	-200.000	0.023	-0.111
-624.434	-42.193	-0.244	-0.125
-623.419	126.430	-0.142	-0.180
-622.405	213.606	-0.131	0.209
-621.390	264.442	-0.070	-0.123
-620.376	-72.159	-0.202	0.075
-619.361	-170.524	-0.126	0.004
-618.346	800.000	-0.071	-0.265
-617.332	800.000	0.067	0.210
-616.317	-167.681	-0.328	0.013
-615.303	-200.000	0.004	-0.175
-614.288	419.213	0.080	0.171
-613.273	17.292	-0.258	-0.205
-612.259	-200.000	0.071	0.337
-611.244	-12.941	-0.216	0.141
-610.230	-200.000	0.004	-0.036
-609.215	800.000	0.041	-0.131
-608.201	159.286	0.118	-0.165
-607.186	-200.000	-0.004	-0.060
-606.171	-53.509	-0.308	-0.141
-605.157	-147.154	0.188	-0.016
-604.142	38.534	-0.143	0.128
-603.128	204.428	-0.120	-0.186
-602.113	738.540	0.061	0.163
-601.098	113.779	-0.229	-0.279
-600.084	-49.641	0.043	-0.020
-599.069	-143.387	0.177	0.017
-598.055	-137.108	0.129	0.015
-597.040	-113.185	-0.201	-0.040
-596.025	-112.511	-0.152	-0.030
-595.011	188.996	-0.136	0.204
-593.996	776.177	-0.096	0.263
-592.982	-56.241	-0.235	-0.105
-591.967	-99.634	0.444	0.112
-590.952	1.143	-0.114	0.082
-589.938	104.253	-0.089	-0.105
-588.923	-30.389	-0.095	-0.054
-587.909	-101.926	0.432	-0.105
-586.894	-27.747	-0.186	0.108
-585.879	-128.388	-0.306	-0.044
-584.865	-124.504	-0.273	0.043
-583.850	-200.000	-0.019	0.104
-582.836	800.000	-0.079	0.239
-581.821	-60.115	0.175	0.075
-580.806	497.758	0.043	0.099
-579.792	297.527	-0.027	0.049
-578.777	-200.000	-0.004	0.280
-577.763	-39.534	-0.039	0.020
-576.748	-134.654	-0.043	0.005
-575.733	-87.401	0.126	0.038
-574.719	85.270	-0.170	-0.187
-573.704	258.840	-0.073	-0.126
-572.690	78.580	-0.165	0.176
-571.675	-118.055	0.202	-0.036
-570.661	14.280	0.087	0.068
-569.646	-132.254	0.153	0.020
-568.631	-78.624	0.113	0.039
-567.617	40.633	0.121	-0.109
-566.602	-153.331	0.078	0.005
-565.588	800.000	-0.081	0.256
-564.573	250.162	0.111	0.189
-563.558	-139.794	0.303	-0.032
-562.544	-130.025	-0.251	0.034
-561.529	-200.000	-0.056	-0.289
-560.515	-137.749	-0.334	0.037
-559.500	-200.000	-0.039	0.173
-558.485	-140.258	0.087	-0.009
-557.471	-56.574	-0.108	0.048
-556.456	-7.194	-0.078	0.053
-555.442	-200.000	0.041	-0.186
-554.427	157.385	-0.115	0.160
-553.412	338.709	0.108	-0.210
-552.398	-200.000	-0.015	0.156
-551.383	-114.687	-0.256	0.049
-550.369	-144.164	0.123	0.012
-549.354	-166.903	0.151	0.006
-548.339	800.000	-0.039	0.117
-547.325	16.069	0.272	0.215
-546.310	-200.000	-0.005	-0.177
-545.296	-200.000	-0.035	-0.518
-544.281	800.000	-0.019	0.055
-543.266	35.445	-0.305	0.268
-542.252	65.020	-0.250	-0.253
-541.237	24.661	0.089	0.074
-540.223	-200.000	-0.234	-0.000
-539.208	281.375	0.062	0.112
-538.193	316.679	-0.129	-0.244
-537.179	-200.000	0.055	-0.298
-536.164	-87.405	-0.198	-0.060
-535.150	-95.667	-0.192	0.051
-534.135	800.000	0.021	0.065
-533.121	-104.421	-0.195	0.045
-532.106	-111.810	0.227	-0.046
-531.091	-200.000	-0.003	0.344
-530.077	-127.316	0.178	-0.026
-529.062	214.119	-0.186	-0.294
-528.048	43.596	-0.010	0.010
-527.033	75.137	-0.086	-0.090
-526.018	2.485	0.242	-0.175
-525.004	577.445	0.131	0.321
-523.989	-12.382	0.122	0.080
-522.975	49.501	0.117	-0.110
-521.960	122.336	0.188	-0.235
-520.945	800.000	-0.207	0.610
-519.931	266.456	0.129	0.225
-518.916	301.876	0.303	0.561
-517.902	219.431	-0.139	0.222
-516.887	-177.566	0.153	-0.004
-515.872	53.411	-0.027	-0.026
-514.858	-141.105	0.219	0.022
-513.843	-200.000	0.060	-0.288
-512.829	138.964	0.067	0.089
-511.814	-48.459	-0.088	-0.042
-510.799	51.427	-0.049	-0.046
-509.785	-200.000	-0.055	-0.288
-508.770	-15.073	0.109	0.070
-507.756	-34.916	0.074	0.040
-506.741	-66.769	-0.420	0.166
-505.726	115.025	-0.131	-0.160
-504.712	512.730	0.129	-0.300
-503.697	-200.000	-0.023	0.209
-502.683	-117.245	-0.348	-0.063
-501.668	800.000	-0.056	-0.229
-500.653	-62.398	-0.229	-0.095
-499.639	708.334	0.080	0.210
-498.624	456.127	-0.133	0.295
-497.610	-24.782	-0.183	-0.109
-496.595	-20.516	-0.201	-0.124
-495.581	556.552	0.064	-0.155
-494.566	-64.839	-0.333	0.135
-493.551	800.000	0.157	-0.472
-492.537	155.924	0.146	0.201
-491.522	152.979	0.190	0.259
-490.508	-200.000	0.012	0.133
-489.493	-200.000	0.016	-0.275
-488.478	-38.074	-0.270	-0.143
-487.464	800.000	-0.063	-0.238
-486.449	-152.100	0.152	-0.011
-485.435	234.117	0.082	-0.134
-484.420	-200.000	0.014	-0.078
-483.405	611.950	0.025	0.063
-482.391	-0.534	-0.308	0.218
-481.376	581.491	-0.096	0.235
-480.362	396.668	0.188	0.392
-479.347	800.000	0.080	-0.292
-478.332	-96.961	0.156	0.041
-477.318	98.791	-0.098	0.113
-476.303	-71.613	-0.373	-0.139
-475.289	-20.662	-0.546	0.335
-474.274	187.096	-0.087	-0.130
-473.259	281.214	0.142	0.253
-472.245	-92.972	0.227	-0.063
-471.230	81.148	0.138	0.149
-470.216	109.468	-0.224	-0.268
-469.201	-20.596	0.065	-0.040
-468.186	-200.000	-0.030	-0.313
-467.172	52.149	0.061	-0.058
-466.157	800.000	-0.038	0.159
-465.143	130.511	-0.067	0.086
-464.128	800.000	0.074	-0.219
-463.113	800.000	0.076	-0.228
-462.099	241.253	-0.036	-0.060
-461.084	18.774	-0.198	0.158
-460.070	-23.665	0.199	0.119
-459.055	310.568	-0.081	-0.152
-458.040	728.637	-0.010	-0.026
-457.026	-43.571	0.138	0.069
-456.011	-68.433	0.401	-0.155
-454.997	21.138	-0.245	0.198
-453.982	147.915	-0.095	-0.128
-452.968	800.000	0.029	0.083
-451.953	35.874	-0.225	0.197
-450.938	609.525	0.085	-0.212
-449.924	246.222	-0.125	-0.210
-448.909	-200.000	-0.000	-0.263
-447.895	5.787	-0.098	0.072
-446.880	800.000	0.053	0.150
-445.865	745.705	0.115	-0.308
-444.851	-85.183	-0.169	0.053
-443.836	800.000	0.024	0.080
-442.822	-200.000	-0.004	-0.099
-441.807	27.552	-0.112	0.094
-440.792	-200.000	-0.029	0.219
-439.778	-134.064	0.055	0.007
-438.763	9.009	-0.223	-0.168
-437.749	750.626	-0.050	0.136
-436.734	-24.998	-0.098	-0.058
-435.719	98.383	0.254	-0.292
-434.705	800.000	0.031	0.103
-433.690	-200.000	0.178	-0.000
-432.676	-104.770	-0.117	-0.027
-431.661	11.643	0.335	-0.256
-430.646	-131.346	-0.188	-0.025
-429.632	-35.803	-0.182	-0.098
-428.617	142.923	0.137	0.182
-427.603	-200.000	-0.066	-0.331
-426.588	468.780	0.040	0.089
-425.573	515.061	0.037	-0.086
-424.559	88.865	-0.081	-0.090
-423.544	-46.529	0.118	-0.058
-422.530	-61.359	-0.222	0.093
-421.515	-158.087	-0.226	-0.013
-420.500	-101.915	0.136	-0.033
-419.486	6.766	0.156	-0.116
-418.471	535.346	0.040	0.094
-417.457	-66.022	-0.149	0.059
-416.442	-194.150	-0.249	0.002
-415.428	715.872	-0.221	-0.585
-414.413	280.735	0.006	-0.011
-413.398	-140.805	0.116	-0.012
-412.384	58.020	-0.039	-0.038
-411.369	-16.888	0.251	0.158
-410.355	243.289	-0.029	0.049
-409.340	72.178	-0.090	-0.093
-408.325	800.000	0.158	0.482
-407.311	60.372	0.014	0.014
-406.296	-134.130	0.221	-0.027
-405.282	17.714	0.129	-0.102
-404.267	-70.209	0.214	-0.081
-403.252	282.388	-0.163	-0.290
-402.238	18.887	0.251	-0.200
-401.223	-200.000	-0.039	0.245
-400.209	-188.257	0.391	-0.005
-399.194	34.154	0.119	0.103
-398.179	68.690	-0.213	-0.217
-397.165	-78.542	0.126	0.043
-396.150	124.056	-0.034	0.042
-395.136	800.000	0.018	0.061
-394.121	-115.459	0.174	0.033
-393.106	-154.003	-0.416	0.028
-392.092	-200.000	-0.068	0.366
-391.077	-62.376	0.313	0.130
-390.063	-200.000	-0.118	0.586
-389.048	-133.492	0.346	0.043
-388.033	-34.511	-0.445	0.243
-387.019	317.872	0.076	-0.144
-386.004	-9.604	0.053	-0.035
-384.990	-200.000	-0.086	0.393
-383.975	223.892	-0.058	0.092
-382.960	93.935	0.124	0.140
-381.946	236.879	0.169	-0.279
-380.931	-105.626	-0.313	0.071
-379.917	-58.013	-0.153	-0.066
-378.902	-67.090	-0.176	-0.069
-377.888	-29.801	0.142	-0.080
-376.873	515.116	-0.075	0.174
-375.858	189.382	-0.036	-0.053
-374.844	-27.828	-0.119	-0.069
-373.829	-200.000	0.001	0.121
-372.815	-200.000	0.004	0.075
-371.800	73.592	0.099	0.103
-370.785	-81.580	-0.130	-0.042
-369.771	-28.637	-0.125	-0.071
-368.756	800.000	-0.069	0.203
-367.742	-91.861	0.077	0.022
-366.727	-9.311	0.323	0.215
-365.712	-200.000	0.004	-0.201
-364.698	63.421	-0.131	-0.130
-363.683	-178.915	-0.414	0.009
-362.669	-29.761	0.058	-0.033
-361.654	-151.194	0.359	-0.027
-360.639	-29.655	0.576	0.327
-359.625	-8.428	0.234	0.156
-358.610	-137.267	-0.154	-0.017
-357.596	-200.000	-0.037	-0.219
-356.581	9.330	-0.149	-0.112
-355.566	-106.811	0.212	-0.047
-354.552	525.170	-0.022	-0.051
-353.537	-194.345	-0.347	0.003
-352.523	-151.088	0.075	0.006
-351.508	51.543	0.045	-0.043
-350.493	-200.000	-0.012	-0.102
-349.479	-200.000	-0.025	-0.140
-348.464	58.291	0.103	-0.100
-347.450	190.488	0.159	-0.237
-346.435	800.000	0.016	0.062
-345.420	42.397	0.187	-0.169
-344.406	-200.000	-0.010	-0.175
-343.391	113.350	0.159	-0.192
-342.377	-200.000	-0.003	-0.233
-341.362	161.467	0.108	-0.150
-340.348	-200.000	0.050	-0.294
-339.333	320.337	-0.146	0.276
-338.318	-66.126	-0.066	0.026
-337.304	-131.646	0.287	-0.037
-336.289	-17.123	-0.216	-0.135
-335.275	800.000	0.077	0.216
-334.260	-79.269	-0.088	-0.030
-333.245	313.341	-0.132	-0.247
-332.231	175.919	-0.116	0.166
-331.216	-42.803	0.234	0.118
-330.202	76.292	0.080	0.084
-329.187	-43.046	0.073	-0.037
-328.172	800.000	0.046	0.183
-327.158	118.168	-0.277	0.338
-326.143	-89.395	-0.021	-0.006
-325.129	191.316	0.102	0.152
-324.114	134.564	0.191	0.246
-323.099	-5.452	0.071	0.048
-322.085	53.350	0.147	0.140
-321.070	46.450	-0.057	-0.052
-320.056	-200.000	0.045	-0.381
-319.041	-200.000	0.018	-0.178
-318.026	-126.677	0.180	0.026
-317.012	343.230	0.139	-0.271
-315.997	13.360	-0.433	0.333
-314.983	-102.967	-0.248	-0.058
-313.968	-200.000	-0.052	-0.384
-312.953	-38.210	0.121	0.064
-311.939	-138.136	0.072	-0.008
-310.924	800.000	0.052	0.199
-309.910	45.950	-0.133	0.122
-308.895	-143.533	0.123	-0.012
-307.880	-197.109	0.166	-0.001
-306.866	320.355	0.052	0.098
-305.851	-15.554	-0.256	-0.162
-304.837	-200.000	-0.001	0.202
-303.822	-172.405	-0.095	-0.003
-302.807	-200.000	-0.032	0.226
-301.793	0.308	0.219	0.155
-300.778	308.604	0.095	0.175
-299.764	800.000	0.042	0.130
-298.749	800.000	0.122	0.518
-297.735	24.733	0.223	0.183
-296.720	205.002	0.090	-0.138
-295.705	496.282	0.044	0.100
-294.691	-40.881	0.255	0.131
-293.676	479.746	0.147	-0.330
-292.662	-200.000	0.050	-0.585
-291.647	-7.763	0.163	0.109
-290.632	-136.887	0.417	0.047
-289.618	800.000	0.052	-0.175
-288.603	-57.577	-0.187	-0.081
-287.589	-62.098	0.176	0.073
-286.574	-149.480	0.072	-0.006
-285.559	-200.000	0.069	0.329
-284.545	356.024	0.054	0.106
-283.530	119.105	-0.081	-0.100
-282.516	-105.238	-0.329	-0.074
-281.501	9.088	-0.180	0.135
-280.486	71.594	0.102	-0.105
-279.472	66.346	0.154	0.155
-278.457	-63.354	-0.142	-0.058
-277.443	-200.000	-0.005	0.120
-276.428	800.000	0.097	0.307
-275.413	752.306	0.049	-0.131
-274.399	-81.229	0.395	-0.129
-273.384	-200.000	0.057	-0.487
-272.370	161.442	-0.147	0.203
-271.355	475.541	0.024	0.054
-270.340	-200.000	0.006	0.217
-269.326	-200.000	0.085	0.538
-268.311	20.494	0.144	-0.116
-267.297	-200.000	-0.072	-0.453
-266.282	-150.520	0.083	-0.006
-265.267	11.509	0.089	-0.068
-264.253	130.750	-0.075	0.096
-263.238	-200.000	0.038	-0.178
-262.224	-17.741	-0.172	0.107
-261.209	-75.528	-0.163	0.057
-260.195	-200.000	0.043	0.259
-259.180	-55.309	-0.299	-0.133
-258.165	152.714	-0.016	0.022
-257.151	40.160	-0.050	0.044
-256.136	411.516	0.018	0.038
-255.122	38.431	-0.305	0.269
-254.107	218.870	0.139	-0.219
-253.092	569.941	0.060	0.145
-252.078	-200.000	-0.058	-0.428
-251.063	-114.393	-0.182	-0.035
-250.049	143.145	-0.251	-0.331
-249.034	-200.000	-0.002	-0.142
-248.019	40.928	-0.089	-0.080
-247.005	-116.861	0.069	-0.012
-245.990	201.050	0.228	-0.347
-244.976	520.305	-0.098	-0.228
-243.961	391.778	-0.180	-0.369
-242.946	15.107	-0.247	0.191
-241.932	800.000	0.012	-0.048
-240.917	43.238	-0.220	-0.199
-239.903	542.120	0.068	-0.161
-238.888	-131.840	-0.358	-0.046
-237.873	-135.646	0.127	-0.015
-236.859	-57.339	-0.184	-0.080
-235.844	-152.006	0.359	-0.026
-234.830	14.777	0.079	0.061
-233.815	7.965	-0.160	0.119
-232.800	343.401	0.087	0.168
-231.786	-28.565	-0.135	-0.077
-230.771	-116.086	-0.338	-0.062
-229.757	-20.135	0.350	0.214
-228.742	110.490	-0.158	-0.188
-227.727	-126.182	0.184	0.027
-226.713	-98.279	0.405	-0.103
-225.698	223.632	-0.071	0.113
-224.684	-126.425	0.130	-0.019
-223.669	-59.810	-0.334	0.141
-222.655	247.929	0.126	0.211
-221.640	-85.392	-0.301	-0.093
-220.625	800.000	0.145	0.421
-219.611	-175.244	0.265	0.007
-218.596	-17.310	0.251	0.156
-217.582	18.750	-0.356	0.282
-216.567	221.856	0.230	-0.366
-215.552	92.020	0.173	-0.192
-214.538	67.183	-0.087	-0.088
-213.523	147.860	0.134	-0.178
-212.509	-80.205	-0.478	0.158
-211.494	-200.000	-0.025	-0.121
-210.479	191.176	0.073	0.109
-209.465	-44.852	0.146	0.072
-208.450	-37.779	0.300	-0.158
-207.436	-129.932	0.122	0.017
-206.421	159.770	0.225	-0.309
-205.406	309.070	-0.121	-0.224
-204.392	-200.000	-0.004	0.107
-203.377	-71.934	0.442	0.162
-202.363	154.105	-0.099	0.134
-201.348	120.633	-0.179	0.220
-200.333	-164.521	0.443	-0.020
-199.319	-185.028	0.294	0.005
-198.304	32.843	-0.141	0.120
-197.290	434.764	0.066	0.142
-196.275	-200.000	-0.008	0.127
-195.260	-20.472	-0.143	-0.087
-194.246	81.846	0.094	-0.101
-193.231	2.917	0.194	0.139
-192.217	-200.000	-0.016	-0.139
-191.202	350.524	0.083	0.162
-190.187	73.905	0.187	0.194
-189.173	-99.929	0.176	0.043
-188.158	64.003	0.165	-0.164
-187.144	110.014	-0.156	-0.184
-186.129	800.000	-0.089	0.268
-185.114	342.507	-0.059	-0.114
-184.100	188.739	-0.172	0.254
-183.085	141.806	-0.233	-0.305
-182.071	544.845	0.005	-0.012
-181.056	272.371	0.167	0.290
-180.042	31.674	-0.083	0.071
-179.027	10.232	-0.189	0.141
-178.012	-200.000	0.035	-0.247
-176.998	-87.899	0.039	0.012
-175.983	-200.000	0.073	0.407
-174.969	-154.127	-0.374	0.025
-173.954	-200.000	0.035	-0.254
-172.939	634.940	-0.101	-0.254
-171.925	-200.000	0.008	0.058
-170.910	-200.000	0.053	-0.277
-169.896	-40.761	-0.068	0.035
-168.881	-74.095	0.136	0.049
-167.866	-200.000	0.004	0.052
-166.852	-132.033	-0.237	0.030
-165.837	32.392	0.034	-0.029
-164.823	-85.806	0.208	-0.064
-163.808	66.000	-0.153	-0.153
-162.793	-198.993	0.284	-0.002
-161.779	-125.307	-0.304	0.046
-160.764	228.024	0.082	-0.131
-159.750	-49.349	0.156	-0.073
-158.735	78.986	-0.144	0.152
-157.720	-78.452	0.392	-0.132
-156.706	-27.755	0.099	-0.057
-155.691	35.420	0.287	-0.248
-154.677	-152.692	0.226	0.016
-153.662	26.299	0.027	-0.022
-152.647	-171.237	-0.238	-0.008
-151.633	325.732	0.125	-0.236
-150.618	800.000	-0.058	-0.227
-149.604	-35.282	0.176	-0.094
-148.589	216.836	0.088	-0.139
-147.574	-200.000	0.008	0.292
-146.560	31.769	-0.061	-0.052
-145.545	198.185	0.114	-0.172
-144.531	-200.000	-0.001	-0.048
-143.516	800.000	0.033	0.127
-142.502	-200.000	0.003	0.280
-141.487	-72.682	0.214	0.078
-140.472	604.259	0.143	-0.350
-139.458	575.881	-0.069	-0.167
-138.443	-85.064	-0.045	0.014
-137.429	453.313	-0.065	0.143
-136.414	90.912	-0.163	-0.180
-135.399	269.006	0.019	-0.033
-134.385	800.000	-0.088	-0.360
-133.370	450.147	0.106	-0.230
-132.356	-40.735	-0.309	-0.158
-131.341	194.633	0.277	-0.413
-130.326	20.817	-0.064	-0.051
-129.312	-81.904	-0.263	0.085
-128.297	469.683	0.071	0.158
-127.283	-132.666	-0.101	0.013
-126.268	9.599	-0.125	0.093
-125.253	-200.000	-0.018	0.191
-124.239	-71.571	0.261	-0.096
-123.224	127.271	0.105	0.131
-122.210	-200.000	0.057	0.461
-121.195	192.853	0.097	-0.144
-120.180	31.236	0.234	-0.198
-119.166	-63.425	0.087	-0.035
-118.151	-101.594	0.331	-0.079
-117.137	-93.673	-0.205	-0.056
-116.122	-28.799	0.032	-0.018
-115.107	-200.000	0.007	-0.173
-114.093	-30.886	-0.157	-0.087
-113.078	437.251	0.016	0.034
-112.064	112.085	0.072	0.085
-111.049	-200.000	0.008	0.067
-110.034	-84.010	-0.108	-0.034
-109.020	-92.627	-0.218	0.060
-108.005	61.953	-0.196	-0.192
-106.991	-200.000	0.008	-0.302
-105.976	349.390	0.065	-0.127
-104.962	-72.833	-0.120	0.044
-103.947	709.148	0.026	-0.067
-102.932	190.269	0.188	0.277
-101.918	77.295	-0.208	-0.217
-100.903	-90.557	-0.180	0.051
-99.889	625.950	0.049	0.121
-98.874	678.316	-0.062	-0.157
-97.859	-104.905	-0.241	0.054
-96.845	532.193	0.061	-0.142
-95.830	-94.434	-0.043	-0.012
-94.816	3.953	-0.168	-0.121
-93.801	432.149	-0.176	0.376
-92.786	-200.000	0.053	0.230
-91.772	423.579	0.086	-0.181
-90.757	355.651	0.012	-0.023
-89.743	-128.072	0.069	-0.010
-88.728	75.333	0.106	0.110
-87.713	99.845	-0.109	0.124
-86.699	-2.000	-0.197	-0.136
-85.684	-200.000	0.006	0.108
-84.670	-200.000	-0.001	-0.077
-83.655	291.492	-0.059	-0.106
-82.640	-195.970	0.237	-0.002
-81.626	-200.000	0.002	0.075
-80.611	-136.241	0.374	0.043
-79.597	614.406	-0.081	0.200
-78.582	-200.000	0.098	0.459
-77.567	-200.000	0.012	0.063
-76.553	43.471	-0.136	0.122
-75.538	25.510	-0.224	0.183
-74.524	-9.223	0.174	-0.114
-73.509	76.410	-0.169	0.176
-72.494	376.294	0.010	0.021
-71.480	-200.000	0.000	-0.434
-70.465	-28.019	0.251	0.143
-69.451	-6.400	-0.255	-0.171
-68.436	-89.956	0.364	0.104
-67.422	-67.253	-0.033	0.013
-66.407	75.671	0.112	0.117
-65.392	-200.000	-0.070	0.386
-64.378	-82.696	-0.078	-0.025
-63.363	800.000	-0.093	-0.398
-62.349	-185.244	0.145	0.002
-61.334	100.823	-0.791	-0.903
-60.319	38.648	0.460	0.403
-59.305	-200.000	-0.194	-1.154
-58.290	287.500	0.710	1.261
-57.276	594.004	0.586	1.423
-56.261	-200.000	102.603	580.142
-55.246	552.553	1428.269	3369.398
-54.232	189.842	2609.135	3843.752
-53.217	114.903	2155.540	2581.721
-52.203	41.304	1689.016	1499.646
-51.188	33.830	1500.402	1281.917
-50.173	31.402	1473.669	1242.907
-49.159	51.542	1526.454	1424.282
-48.144	52.822	1544.196	1449.456
-47.130	34.018	1501.900	1284.266
-46.115	30.932	1486.952	1250.756
-45.100	30.753	1483.259	1246.403
-44.086	30.744	1481.755	1245.027
-43.071	30.776	1479.063	1242.931
-42.057	30.679	1477.582	1240.988
-41.042	30.634	1476.252	1239.521
-40.027	30.678	1475.438	1239.084
-39.013	30.598	1473.803	1237.130
-37.998	30.655	1472.140	1236.060
-36.984	30.653	1470.973	1235.017
-35.969	30.691	1469.902	1234.321
-34.954	30.671	1468.225	1232.732
-33.940	30.704	1467.120	1231.978
-32.925	30.721	1465.532	1230.709
-31.911	30.738	1464.304	1229.735
-30.896	30.735	1463.163	1228.712
-29.881	30.717	1461.918	1227.496
-28.867	30.800	1460.448	1226.763
-27.852	30.725	1459.184	1225.157
-26.838	30.758	1457.937	1224.278
-25.823	30.639	1457.054	1222.705
-24.809	30.761	1454.219	1221.081
-23.794	30.789	1452.775	1220.004
-22.779	30.778	1452.028	1219.253
-21.765	30.799	1450.962	1218.452
-20.750	30.737	1450.350	1217.480
-19.736	30.723	1449.063	1216.264
-18.721	30.666	1448.092	1215.029
-17.706	30.686	1446.909	1214.118
-16.692	30.707	1445.975	1213.422
-15.677	30.668	1444.861	1212.185
-14.663	30.604	1444.060	1211.046
-13.648	30.695	1442.994	1210.699
-12.633	30.653	1441.935	1209.489
-11.619	30.718	1440.704	1208.827
-10.604	30.618	1440.263	1207.761
-9.590	30.650	1439.112	1206.954
-8.575	30.680	1438.818	1206.856
-7.560	30.650	1437.868	1205.819
-6.546	30.656	1436.608	1204.751
-5.531	30.557	1436.467	1203.944
-4.517	30.591	1434.888	1202.790
-3.502	30.647	1434.471	1202.758
-2.487	30.619	1433.267	1201.521
-1.473	30.506	1432.388	1200.006
-0.458	30.673	1430.574	1199.518
0.556	32.118	1421.100	1187.700
1.571	28.926	1396.190	1146.910
2.586	25.331	1337.669	1077.214
3.600	23.533	1257.421	1002.351
4.615	22.150	1212.161	958.647
5.629	19.137	1156.737	899.028
6.644	11.213	1073.542	795.742
7.659	4.810	1034.455	736.492
8.673	3.945	1028.948	728.437
9.688	3.523	1025.546	723.985
10.702	3.445	1024.083	722.523
11.717	3.538	1022.482	721.763
12.731	6.514	1025.055	737.458
13.746	14.757	1037.082	784.922
14.761	21.929	1045.786	825.298
15.775	23.961	1047.150	835.862
16.790	23.648	1046.211	833.565
17.804	23.045	1044.517	829.316
18.819	22.541	1043.300	825.916
19.834	22.288	1042.323	823.883
20.848	22.308	1041.290	823.087
21.863	22.346	1041.646	823.472
22.877	22.342	1041.286	823.098
23.892	22.132	1040.218	821.197
24.907	22.070	1039.146	819.989
25.921	22.004	1038.480	819.082
26.936	21.829	1038.006	817.824
27.950	21.905	1036.449	816.875
28.965	21.811	1035.740	815.808
29.980	21.729	1034.649	814.497
30.994	22.046	1033.185	814.744
32.009	22.168	1032.981	815.075
33.023	22.216	1032.491	814.837
34.038	22.340	1031.182	814.310
35.053	22.064	1030.440	812.375
36.067	21.953	1029.483	811.033
37.082	21.790	1028.548	809.473
38.096	21.771	1027.659	808.615
39.111	22.013	1026.962	809.107
40.126	22.218	1026.410	809.545
41.140	22.077	1025.052	807.758
42.155	21.632	1023.589	804.487
43.169	21.470	1022.463	802.791
44.184	21.374	1021.770	801.732
45.199	21.283	1020.536	800.278
46.213	21.247	1019.942	799.575
47.228	21.423	1018.701	799.335
48.242	21.700	1018.957	800.731
49.257	22.141	1018.284	802.146
50.271	22.190	1017.179	801.429
51.286	22.081	1016.839	800.592
52.301	22.120	1016.350	800.315
53.315	22.163	1015.068	799.428
54.330	22.086	1014.151	798.289
55.344	21.771	1013.585	796.338
56.359	21.845	1012.006	795.363
57.374	21.706	1011.542	794.298
58.388	21.810	1010.044	793.524
59.403	21.562	1009.842	792.175
60.417	21.382	1008.469	790.212
61.432	21.365	1008.120	789.795
62.447	21.352	1007.479	789.160
63.461	21.364	1006.740	788.565
64.476	21.291	1006.106	787.673
65.490	21.050	1005.464	786.014
66.505	21.100	1004.089	785.093
67.520	21.064	1003.407	784.328
68.534	21.320	1002.551	784.740
69.549	21.268	1001.845	783.887
70.563	21.015	1001.162	782.147
71.578	20.925	1000.426	781.101
72.593	20.738	999.358	779.360
73.607	20.580	998.100	777.602
74.622	20.550	997.397	776.851
75.636	20.703	996.787	776.990
76.651	20.767	995.928	776.540
77.666	20.738	995.464	775.979
78.680	20.918	994.970	776.327
79.695	20.876	994.434	775.654
80.709	20.841	993.860	774.979
81.724	21.136	993.163	775.678
82.739	21.164	992.807	775.457
83.753	21.288	991.781	775.136
84.768	21.679	991.476	776.563
85.782	22.299	991.109	778.957
86.797	22.458	990.796	779.344
87.812	22.502	990.147	778.960
88.826	22.385	988.382	776.984
89.841	22.179	988.096	775.785
90.855	22.482	987.173	776.323
91.870	22.369	986.642	775.342
92.884	22.408	985.814	774.793
93.899	22.328	985.406	774.053
94.914	22.330	984.331	773.146
95.928	22.421	983.280	772.654
96.943	22.395	982.721	772.033
97.957	22.182	981.690	770.220
98.972	21.980	980.675	768.471
99.987	22.052	979.876	768.094
101.001	22.185	979.176	768.058
102.016	22.189	979.004	767.873
103.030	22.044	977.652	766.109
104.045	22.163	976.615	765.749
105.060	22.195	976.252	765.535
106.074	22.103	975.291	764.313
107.089	21.878	974.227	762.435
108.103	21.537	972.997	759.924
109.118	21.507	971.742	758.745
110.133	21.183	970.762	756.509
111.147	21.114	969.303	755.009
112.162	21.055	968.692	754.209
113.176	20.979	967.884	753.187
114.191	21.173	967.051	753.308
115.206	21.325	966.678	753.609
116.220	21.395	965.792	753.149
117.235	21.287	964.916	751.937
118.249	21.203	964.277	751.013
119.264	21.116	963.417	749.899
120.279	20.941	962.250	748.174
121.293	20.993	961.484	747.737
122.308	20.815	960.624	746.239
123.322	20.672	960.207	745.235
124.337	20.731	958.490	744.090
125.352	20.468	957.714	742.299
126.366	20.508	956.723	741.635
127.381	20.627	955.692	741.278
128.395	20.710	954.880	740.935
129.410	20.949	953.876	741.108
130.424	20.984	952.593	740.193
131.439	21.004	952.441	740.095
132.454	21.192	952.067	740.535
133.468	21.354	951.281	740.544
134.483	21.337	950.178	739.550
135.497	21.317	949.642	738.982
136.512	21.416	949.103	738.915
137.527	21.537	947.885	738.413
138.541	21.561	947.593	738.222
139.556	21.531	946.881	737.476
140.570	21.546	946.226	736.963
141.585	21.623	945.892	736.963
142.600	21.878	945.607	737.747
143.614	22.168	944.438	737.986
144.629	22.173	944.144	737.715
145.643	22.411	943.583	738.207
146.658	22.272	942.665	736.841
147.673	22.051	941.520	734.959
148.687	21.850	940.064	732.918
149.702	21.538	939.625	731.204
150.716	21.473	938.603	730.073
151.731	21.283	937.713	728.524
152.746	21.530	936.589	728.616
153.760	21.590	936.340	728.606
154.775	21.635	935.690	728.226
155.789	21.854	934.576	728.203
156.804	21.845	934.032	727.675
157.819	21.852	933.338	727.100
158.833	21.855	932.255	726.205
159.848	22.017	931.988	726.602
160.862	22.226	931.594	727.095
161.877	22.299	930.647	726.595
162.892	21.873	928.998	723.485
163.906	21.491	928.066	721.122
164.921	21.343	927.179	719.758
165.935	21.293	925.991	718.567
166.950	21.431	925.211	718.467
167.964	21.669	924.393	718.743
168.979	21.633	923.433	717.786
169.994	21.505	922.781	716.690
171.008	21.396	922.028	715.599
172.023	21.431	921.681	715.407
173.037	21.779	920.486	715.837
174.052	22.140	919.560	716.529
175.067	22.086	919.211	715.971
176.081	21.680	918.024	713.329
177.096	21.311	916.851	710.857
178.110	21.188	915.665	709.374
179.125	21.236	915.527	709.400
180.140	21.233	914.922	708.854
181.154	21.360	914.109	708.679
182.169	21.592	913.516	709.094
183.183	21.915	913.605	710.410
184.198	22.053	912.693	710.194
185.213	21.846	912.150	708.874
186.227	21.879	911.597	708.515
187.242	21.920	911.266	708.360
188.256	22.231	910.125	708.663
189.271	22.163	910.143	708.340
190.286	22.316	909.239	708.190
191.300	22.038	908.420	706.374
192.315	21.454	906.864	702.754
193.329	20.998	905.896	700.110
194.344	21.026	905.490	699.847
195.359	21.266	905.336	700.629
196.373	21.595	904.607	701.320
197.388	21.499	904.547	700.829
198.402	21.871	903.833	701.701
199.417	22.194	904.053	703.101
200.432	22.445	903.747	703.807
201.446	22.490	903.511	703.739
202.461	22.674	902.890	703.930
203.475	22.727	902.542	703.805
204.490	22.641	901.537	702.617
205.504	22.177	900.119	699.605
206.519	21.969	899.042	697.879
207.534	21.957	898.785	697.570
208.548	22.011	897.887	697.025
209.563	21.930	897.479	696.326
210.577	21.897	897.088	695.827
211.592	21.893	895.959	694.876
212.607	22.231	895.677	695.934
213.621	22.529	895.757	697.114
214.636	22.499	894.548	695.994
215.650	22.457	893.687	695.094
216.665	22.291	893.446	694.193
217.680	22.215	893.086	693.551
218.694	22.432	892.696	694.039
219.709	22.370	892.388	693.498
220.723	22.542	891.446	693.380
221.738	22.317	890.561	691.747
222.753	22.260	889.708	690.799
223.767	22.105	889.188	689.723
224.782	22.408	888.181	690.071
225.796	22.468	888.066	690.154
226.811	22.676	887.477	690.449
227.826	22.433	886.769	688.889
228.840	22.017	886.002	686.606
229.855	21.971	884.926	685.532
230.869	21.972	884.414	685.077
231.884	21.945	883.898	684.512
232.899	21.953	883.227	683.964
233.913	21.837	882.759	683.086
234.928	21.921	881.387	682.291
235.942	21.523	881.010	680.395
236.957	21.642	879.585	679.693
237.972	21.424	879.780	678.937
238.986	21.354	879.398	678.312
240.001	21.574	878.397	678.333
241.015	21.547	877.287	677.309
242.030	21.589	877.213	677.355
243.045	21.711	876.790	677.442
244.059	21.840	876.519	677.672
245.074	22.001	875.642	677.554
246.088	22.125	874.996	677.474
247.103	22.168	874.749	677.389
248.117	22.289	874.684	677.741
249.132	22.775	874.167	679.152
250.147	22.905	874.196	679.615
251.161	23.333	873.744	680.849
252.176	23.488	873.655	681.316
253.190	23.483	872.792	680.564
254.205	23.755	871.769	680.746
255.220	23.464	871.942	679.705
256.234	23.450	870.669	678.603
257.249	23.326	869.823	677.406
258.263	23.275	869.632	677.003
259.278	23.097	869.098	675.849
260.293	23.116	868.898	675.703
261.307	23.153	868.311	675.331
262.322	23.372	867.531	675.498
263.336	23.205	867.535	674.806
264.351	23.339	866.970	674.818
265.366	23.361	865.657	673.820
266.380	23.292	864.879	672.893
267.395	23.409	864.190	672.740
268.409	23.447	863.913	672.609
269.424	23.177	863.053	670.855
270.439	23.224	862.475	670.526
271.453	23.212	861.690	669.810
272.468	23.005	860.389	667.960
273.482	22.952	859.805	667.247
274.497	22.847	860.004	666.945
275.512	22.937	858.874	666.348
276.526	22.858	858.363	665.595
277.541	22.970	857.645	665.401
278.555	23.096	857.102	665.395
279.570	23.201	857.071	665.706
280.585	23.575	856.762	666.816
281.599	23.518	856.057	665.993
282.614	23.235	855.123	664.144
283.628	22.892	854.502	662.318
284.643	22.780	853.661	661.188
285.657	22.916	853.382	661.424
286.672	22.923	852.863	660.988
287.687	22.884	852.626	660.599
288.701	22.966	852.329	660.617
289.716	23.064	851.590	660.354
290.730	23.105	850.900	659.913
291.745	23.017	850.354	659.102
292.760	23.212	849.542	659.143
293.774	23.056	849.217	658.251
294.789	23.543	848.896	659.754
295.803	23.578	848.446	659.477
296.818	23.361	847.536	657.906
297.833	23.110	846.409	656.040
298.847	23.032	846.047	655.412
299.862	23.016	845.289	654.709
300.876	23.015	844.983	654.409
301.891	23.357	844.497	655.243
302.906	23.522	844.080	655.470
303.920	23.685	843.857	655.841
304.935	23.906	843.396	656.239
305.949	24.063	842.599	656.142
306.964	24.000	841.773	655.205
307.979	23.565	841.202	653.103
308.993	23.395	840.650	651.991
310.008	23.623	839.939	652.222
311.022	23.626	839.877	652.127
312.037	23.569	839.331	651.435
313.052	23.394	838.618	650.183
314.066	23.226	837.543	648.677
315.081	22.957	836.659	646.949
316.095	22.773	836.103	645.790
317.110	22.940	835.804	646.112
318.125	22.828	835.167	645.151
319.139	22.910	834.648	644.993
320.154	22.601	834.193	643.455
321.168	22.578	833.944	643.124
322.183	22.708	833.474	643.180
323.197	22.900	832.871	643.355
324.212	23.037	832.021	643.140
325.227	23.049	831.665	642.854
326.241	23.019	830.972	642.150
327.256	22.861	830.329	641.024
328.270	22.841	829.995	640.637
329.285	22.726	829.422	639.720
330.300	22.750	828.763	639.242
331.314	22.674	828.029	638.346
332.329	22.618	827.780	637.895
333.343	22.964	827.164	638.615
334.358	23.434	826.440	639.696
335.373	23.425	826.209	639.428
336.387	23.298	826.119	638.841
337.402	23.389	825.813	638.876
338.416	23.814	824.787	639.558
339.431	23.677	824.492	638.777
340.446	23.902	824.396	639.458
341.460	24.226	823.990	640.250
342.475	24.260	823.354	639.821
343.489	24.211	822.793	639.151
344.504	24.212	822.648	638.987
345.519	24.301	822.410	639.064
346.533	24.501	821.808	639.254
347.548	24.559	821.148	638.893
348.562	24.210	820.465	637.060
349.577	23.917	819.255	635.016
350.592	23.637	818.675	633.511
351.606	23.571	817.904	632.623
352.621	23.419	817.327	631.579
353.635	23.340	816.999	630.988
354.650	23.441	817.012	631.302
355.665	23.636	816.414	631.479
356.679	23.730	815.560	631.097
357.694	23.764	815.054	630.770
358.708	23.798	814.991	630.787
359.723	23.406	814.660	629.083
360.738	23.568	813.508	628.711
361.752	23.554	813.379	628.508
362.767	23.666	812.933	628.504
363.781	23.912	813.029	629.390
364.796	24.395	812.630	630.735
365.810	24.319	812.531	630.336
366.825	24.612	811.793	630.741
367.840	24.592	811.664	630.513
368.854	24.563	810.959	629.808
369.869	24.303	810.456	628.447
370.883	24.056	809.770	626.988
371.898	24.033	809.434	626.592
372.913	24.160	808.566	626.312
373.927	24.555	807.963	627.176
374.942	24.555	807.288	626.597
375.956	24.195	806.734	624.848
376.971	24.350	806.319	625.015
377.986	24.497	805.857	625.117
379.000	24.620	805.407	625.144
380.015	24.749	805.110	625.307
381.029	24.639	804.667	624.524
382.044	24.562	803.918	623.620
383.059	24.593	803.589	623.417
384.073	24.747	802.484	623.039
385.088	24.672	802.000	622.349
386.102	24.360	801.036	620.461
387.117	23.960	800.421	618.540
388.132	23.985	800.059	618.292
389.146	23.921	799.597	617.656
390.161	24.142	798.994	617.903
391.175	24.038	799.429	617.825
392.190	24.380	799.117	618.716
393.205	24.338	798.450	617.999
394.219	24.156	797.539	616.609
395.234	23.831	796.874	614.915
396.248	23.620	796.441	613.798
397.263	23.713	795.929	613.669
398.278	23.725	795.971	613.688
399.292	23.767	794.672	612.779
400.307	23.478	794.085	611.275
401.321	23.398	794.021	610.896
402.336	23.499	793.850	611.057
403.350	23.745	793.228	611.371
404.365	23.828	793.353	611.700
405.380	24.205	793.151	612.787
406.394	24.568	793.021	613.879
407.409	25.021	792.408	614.905
408.423	25.073	791.966	614.686
409.438	25.009	791.760	614.252
410.453	24.993	791.205	613.715
411.467	25.163	790.693	613.844
412.482	24.971	790.114	612.685
413.496	25.118	789.966	613.016
414.511	25.152	789.755	612.916
415.526	25.151	789.298	612.503
416.540	24.968	788.673	611.341
417.555	24.758	788.324	610.297
418.569	24.875	787.809	610.245
419.584	24.934	787.162	609.889
420.599	24.883	786.564	609.198
421.613	163.119	1369.029	1796.878
422.628	141.256	1453.913	1796.988
