DTS Sentinel unit serial number:	SN413079Multiplexer serial number:	ORYXHardware model number:	OX4-SRSoftware version number:	ORYX F/W v4.00 Oryx Data Collector v3.7.2.0data status	okinstallation	princeton_trtdifferential loss correction	single-endedforward channel	channel 3reverse channel	N/Adate	2019/09/13time	21:28:35forward acquisition time	60.00reverse acquisition time	0.00gamma	496.2192k internal	0.2334k external	0.2334temperature offset calibration	1.0053default loss term (dB/km)	0.3790temperature slope calibration	1.0000multiplexer offset coefficient	1.0000multiplexer slope coefficient	1.0000fibre end	0.00T internal ref (°C)	28.31T ext. ref 1 (°C)	3.14T ext. ref 2 (°C)	22.97length (m)	temperature (°C)	Stokes	anti-Stokes-747.200	800.000	0.083	0.306
-746.185	357.510	-0.150	0.301
-745.171	-200.000	0.007	0.267
-744.156	445.108	0.057	-0.127
-743.142	-27.235	-0.390	-0.228
-742.127	-200.000	-0.012	0.227
-741.112	-110.663	-0.104	0.022
-740.098	-200.000	0.016	0.350
-739.083	-200.000	-0.025	0.175
-738.069	620.924	-0.023	0.059
-737.054	83.458	0.212	-0.233
-736.039	-157.338	-0.087	-0.005
-735.025	39.341	-0.123	0.111
-734.010	-75.035	0.222	0.080
-732.996	-131.764	-0.368	-0.049
-731.981	-106.140	0.137	0.031
-730.966	-31.561	-0.118	0.067
-729.952	116.878	-0.198	-0.245
-728.937	181.979	0.238	0.353
-727.923	-110.091	-0.130	0.027
-726.908	-200.000	-0.029	-0.218
-725.894	560.998	0.041	0.099
-724.879	-12.288	0.087	-0.057
-723.864	11.436	-0.114	-0.088
-722.850	-98.423	0.362	-0.093
-721.835	800.000	-0.034	-0.142
-720.821	-96.526	0.191	-0.051
-719.806	23.883	0.306	-0.253
-718.791	-12.514	-0.321	0.210
-717.777	-18.762	0.087	-0.055
-716.762	197.394	-0.151	-0.231
-715.748	110.095	-0.147	0.178
-714.733	46.634	-0.300	0.280
-713.718	142.138	0.191	-0.255
-712.704	-182.867	-0.435	0.008
-711.689	-200.000	-0.059	0.303
-710.675	-200.000	0.013	0.185
-709.660	109.858	0.177	-0.213
-708.645	-200.000	-0.049	-0.413
-707.631	800.000	-0.057	0.171
-706.616	-46.751	-0.244	0.120
-705.602	-200.000	0.197	0.001
-704.587	-20.121	-0.110	0.068
-703.572	800.000	0.102	-0.290
-702.558	426.827	-0.082	0.177
-701.543	564.498	0.073	0.178
-700.529	12.060	-0.213	-0.164
-699.514	155.312	0.147	-0.203
-698.499	-23.441	0.133	-0.080
-697.485	213.122	-0.224	-0.355
-696.470	68.387	0.080	-0.083
-695.456	17.747	-0.052	0.041
-694.441	134.223	0.087	-0.113
-693.426	-200.000	0.033	-0.339
-692.412	75.148	0.171	-0.181
-691.397	-200.000	0.026	0.197
-690.383	-200.000	-0.003	-0.078
-689.368	48.040	-0.185	0.174
-688.354	63.134	0.161	-0.162
-687.339	-200.000	-0.006	-0.362
-686.324	800.000	0.040	0.127
-685.310	-178.861	-0.224	0.005
-684.295	-85.417	-0.259	0.081
-683.281	-83.984	-0.317	-0.101
-682.266	-67.930	-0.195	-0.077
-681.251	800.000	-0.092	0.300
-680.237	-23.543	0.251	-0.151
-679.222	-76.384	-0.290	-0.102
-678.208	-200.000	-0.021	-0.176
-677.193	360.351	-0.074	0.149
-676.178	64.474	-0.110	0.111
-675.164	447.734	0.099	-0.219
-674.149	-13.631	0.268	-0.174
-673.135	-9.476	-0.225	0.150
-672.120	-200.000	0.002	0.110
-671.105	26.213	-0.204	0.171
-670.091	-28.328	-0.134	0.077
-669.076	270.578	-0.135	0.238
-668.062	-49.565	-0.083	0.040
-667.047	800.000	0.106	0.382
-666.032	270.763	0.025	-0.044
-665.018	-20.761	0.326	-0.200
-664.003	4.075	0.103	0.075
-662.989	800.000	-0.015	-0.057
-661.974	800.000	-0.069	-0.264
-660.959	-60.621	0.179	0.076
-659.945	762.410	-0.084	0.229
-658.930	-200.000	-0.001	0.065
-657.916	-36.443	-0.082	-0.045
-656.901	63.873	0.102	0.102
-655.886	334.195	0.045	0.088
-654.872	-1.407	-0.476	0.337
-653.857	55.954	0.146	0.142
-652.843	-75.469	-0.139	-0.050
-651.828	-119.518	0.195	-0.034
-650.814	-14.648	-0.309	-0.199
-649.799	-10.650	-0.316	-0.209
-648.784	-156.834	-0.197	-0.012
-647.770	800.000	0.037	0.155
-646.755	646.615	-0.042	-0.109
-645.741	-176.413	-0.194	0.005
-644.726	-75.855	0.068	-0.024
-643.711	327.981	-0.071	0.137
-642.697	233.816	0.183	-0.302
-641.682	-11.043	-0.149	-0.098
-640.668	308.267	-0.159	0.298
-639.653	-200.000	-0.008	-0.095
-638.638	-123.633	0.197	-0.031
-637.624	-56.795	0.299	-0.132
-636.609	176.659	-0.190	0.277
-635.595	-113.844	0.091	0.018
-634.580	223.807	-0.204	-0.330
-633.565	129.483	0.166	-0.212
-632.551	-200.000	0.016	-0.208
-631.536	100.775	-0.187	-0.218
-630.522	-115.927	-0.279	0.052
-629.507	17.649	0.180	-0.143
-628.492	635.132	-0.060	0.153
-627.478	-200.000	0.021	-0.128
-626.463	-47.387	0.106	0.052
-625.449	161.677	-0.171	0.239
-624.434	-183.137	-0.188	0.003
-623.419	141.897	0.117	-0.156
-622.405	314.328	-0.124	0.234
-621.390	285.367	-0.045	-0.082
-620.376	-200.000	0.010	0.114
-619.361	-167.035	-0.181	0.007
-618.346	-10.826	-0.158	-0.104
-617.332	397.464	-0.027	0.056
-616.317	-97.816	-0.048	0.012
-615.303	-200.000	-0.032	-0.201
-614.288	800.000	0.037	0.124
-613.273	-200.000	0.071	-0.354
-612.259	-111.491	0.171	0.035
-611.244	18.693	-0.187	0.150
-610.230	-146.122	-0.351	-0.031
-609.215	-156.884	0.425	-0.026
-608.201	-200.000	-0.000	0.104
-607.186	22.836	-0.256	-0.210
-606.171	277.643	-0.092	-0.163
-605.157	-200.000	0.038	-0.250
-604.142	275.762	0.067	0.119
-603.128	148.391	0.087	-0.118
-602.113	-116.767	-0.323	0.059
-601.098	100.254	-0.199	0.231
-600.084	318.346	-0.150	-0.283
-599.069	502.171	0.035	-0.081
-598.055	500.860	-0.055	0.127
-597.040	25.274	0.137	0.114
-596.025	89.404	-0.068	-0.076
-595.011	-30.965	0.240	-0.136
-593.996	60.288	0.043	0.042
-592.982	-174.933	0.121	0.003
-591.967	-75.390	0.166	0.059
-590.952	800.000	0.037	0.113
-589.938	-105.143	-0.032	-0.007
-588.923	-102.916	0.237	0.056
-587.909	285.265	-0.169	0.304
-586.894	778.002	-0.113	0.309
-585.879	-13.438	-0.096	0.062
-584.865	-85.372	0.210	-0.065
-583.850	-48.556	0.328	-0.157
-582.836	684.510	-0.049	0.128
-581.821	787.309	0.190	-0.522
-580.806	-67.940	0.156	-0.061
-579.792	-124.921	-0.483	-0.074
-578.777	422.875	0.063	-0.135
-577.763	57.332	-0.113	0.110
-576.748	157.879	-0.186	0.257
-575.733	139.560	0.047	-0.062
-574.719	800.000	0.063	-0.275
-573.704	499.511	-0.075	0.173
-572.690	-15.439	-0.166	0.106
-571.675	-40.206	-0.157	-0.082
-570.661	-200.000	0.006	0.071
-569.646	187.255	0.068	0.101
-568.631	-200.000	-0.025	-0.188
-567.617	-200.000	-0.019	0.532
-566.602	-97.309	0.169	-0.044
-565.588	244.679	0.039	-0.066
-564.573	258.971	0.076	-0.131
-563.558	-88.277	-0.180	0.054
-562.544	283.247	0.111	0.200
-561.529	267.947	0.107	-0.187
-560.515	128.231	0.166	-0.211
-559.500	-200.000	-0.010	-0.215
-558.485	-200.000	-0.008	0.105
-557.471	-95.060	0.212	0.057
-556.456	-95.561	-0.111	-0.030
-555.442	800.000	0.035	0.133
-554.427	201.797	-0.131	0.202
-553.412	-200.000	0.029	-0.229
-552.398	-200.000	0.003	-0.146
-551.383	-10.024	-0.308	-0.204
-550.369	17.062	0.204	0.161
-549.354	250.855	-0.061	-0.104
-548.339	-71.870	0.053	0.020
-547.325	82.454	-0.232	-0.251
-546.310	73.121	0.163	0.170
-545.296	-200.000	-0.058	-0.299
-544.281	312.955	0.181	0.340
-543.266	-42.578	0.178	0.090
-542.252	-29.566	0.144	0.082
-541.237	-104.050	-0.188	-0.044
-540.223	-200.000	0.017	0.211
-539.208	-200.000	-0.014	0.242
-538.193	-1.655	-0.127	0.089
-537.179	68.949	0.023	0.023
-536.164	-130.482	-0.124	0.017
-535.150	800.000	0.013	0.043
-534.135	18.875	0.081	-0.065
-533.121	505.525	0.058	-0.133
-532.106	-200.000	0.082	-0.456
-531.091	132.226	-0.073	0.094
-530.077	-200.000	0.039	0.427
-529.062	602.952	-0.071	0.176
-528.048	-24.242	-0.158	-0.094
-527.033	-10.700	-0.423	-0.279
-526.018	-39.683	0.102	-0.053
-525.004	293.818	0.211	-0.383
-523.989	-200.000	-0.032	-0.313
-522.975	132.055	0.242	-0.311
-521.960	23.619	0.262	0.215
-520.945	230.839	0.151	-0.246
-519.931	-200.000	-0.004	0.078
-518.916	117.535	-0.129	0.158
-517.902	-138.300	0.236	-0.026
-516.887	-200.000	-0.014	0.190
-515.872	522.429	0.049	0.115
-514.858	-24.667	-0.151	-0.090
-513.843	-135.685	-0.447	0.053
-512.829	-79.703	0.215	-0.072
-511.814	287.143	-0.051	0.092
-510.799	800.000	-0.042	0.152
-509.785	567.257	0.124	-0.300
-508.770	-29.925	-0.142	-0.080
-507.756	753.634	0.055	0.147
-506.741	-167.729	-0.043	0.002
-505.726	-132.862	0.089	0.011
-504.712	273.528	-0.116	0.204
-503.697	-51.020	0.029	0.014
-502.683	3.361	0.192	0.139
-501.668	-44.575	-0.130	-0.065
-500.653	310.323	-0.140	0.261
-499.639	-54.083	-0.242	0.109
-498.624	7.463	-0.096	0.071
-497.610	-24.433	0.092	-0.054
-496.595	-200.000	-0.007	-0.033
-495.581	220.074	-0.167	-0.267
-494.566	76.428	0.222	-0.234
-493.551	241.608	0.124	0.206
-492.537	-34.809	0.080	0.043
-491.522	161.579	0.161	0.224
-490.508	-162.610	0.247	-0.012
-489.493	15.032	-0.145	0.113
-488.478	233.863	0.217	-0.355
-487.464	698.520	0.026	-0.067
-486.449	-70.864	0.169	-0.064
-485.435	167.011	0.104	0.147
-484.420	800.000	0.088	0.275
-483.405	96.768	0.063	-0.072
-482.391	24.239	-0.232	0.191
-481.376	-76.317	-0.044	-0.015
-480.362	156.110	-0.032	-0.044
-479.347	-42.358	0.291	-0.148
-478.332	-200.000	-0.048	-0.255
-477.318	-200.000	-0.047	-0.332
-476.303	-200.000	-0.013	0.163
-475.289	30.736	0.174	0.148
-474.274	-80.189	0.254	0.084
-473.259	-3.473	-0.297	-0.205
-472.245	110.705	-0.189	-0.226
-471.230	-177.717	-0.184	0.004
-470.216	354.532	0.120	0.237
-469.201	-200.000	0.078	0.509
-468.186	-100.081	0.431	-0.107
-467.172	-78.509	-0.164	0.056
-466.157	-44.702	0.267	0.132
-465.143	58.349	0.111	-0.109
-464.128	800.000	-0.037	-0.129
-463.113	206.127	0.094	0.145
-462.099	-200.000	0.006	0.149
-461.084	800.000	-0.060	-0.233
-460.070	-103.128	0.111	0.026
-459.055	673.212	0.108	0.278
-458.040	-36.381	-0.080	0.043
-457.026	21.456	-0.042	-0.034
-456.011	800.000	-0.080	-0.260
-454.997	-25.103	0.212	-0.125
-453.982	-200.000	0.022	0.107
-452.968	800.000	0.088	-0.353
-451.953	281.959	0.044	0.078
-450.938	-76.360	0.243	0.085
-449.924	385.384	0.154	-0.315
-448.909	-87.335	0.115	-0.035
-447.895	-23.781	-0.299	0.178
-446.880	-200.000	0.003	0.210
-445.865	533.517	0.150	0.353
-444.851	-19.123	0.134	-0.083
-443.836	-22.688	0.122	-0.073
-442.822	203.440	-0.191	-0.293
-441.807	154.441	0.202	0.275
-440.792	120.822	-0.077	0.095
-439.778	454.428	-0.034	0.076
-438.763	-3.477	0.325	0.225
-437.749	-150.516	0.123	0.009
-436.734	800.000	0.043	-0.173
-435.719	800.000	-0.147	0.473
-434.705	-69.616	-0.343	0.130
-433.690	-200.000	-0.045	-0.293
-432.676	-71.915	-0.246	-0.091
-431.661	800.000	0.117	0.498
-430.646	705.991	-0.055	0.145
-429.632	-81.750	0.062	-0.020
-428.617	48.204	-0.317	0.295
-427.603	800.000	0.049	0.188
-426.588	154.419	0.175	-0.239
-425.573	-200.000	-0.022	-0.139
-424.559	207.188	-0.182	0.281
-423.544	41.248	-0.045	0.040
-422.530	78.222	-0.092	-0.097
-421.515	-34.203	-0.395	-0.216
-420.500	-129.889	0.284	0.039
-419.486	397.113	0.051	-0.105
-418.471	-154.431	0.189	0.013
-417.457	724.152	0.044	0.115
-416.442	-65.435	0.160	-0.064
-415.428	-140.174	-0.146	-0.015
-414.413	-200.000	0.002	-0.128
-413.398	783.041	-0.099	0.270
-412.384	-62.809	-0.098	-0.040
-411.369	-16.816	0.077	-0.048
-410.355	800.000	0.054	-0.192
-409.340	-18.791	-0.206	0.127
-408.325	17.782	-0.119	-0.094
-407.311	-200.000	-0.023	-0.218
-406.296	-127.822	-0.345	0.049
-405.282	-87.371	0.372	0.112
-404.267	48.407	0.093	-0.086
-403.252	800.000	-0.044	-0.123
-402.238	48.591	-0.121	0.112
-401.223	-200.000	0.035	0.589
-400.209	-200.000	-0.016	-0.113
-399.194	370.177	0.164	-0.329
-398.179	37.279	-0.138	-0.121
-397.165	-26.796	0.079	0.046
-396.150	222.372	0.115	0.184
-395.136	-200.000	0.009	0.097
-394.121	-200.000	-0.053	0.487
-393.106	800.000	-0.122	0.487
-392.092	-27.889	-0.143	0.082
-391.077	-200.000	0.007	-0.309
-390.063	-14.318	0.130	0.083
-389.048	78.779	-0.238	0.252
-388.033	-43.318	0.128	-0.064
-387.019	28.674	-0.266	0.223
-386.004	363.244	0.204	0.407
-384.990	302.411	-0.087	0.159
-383.975	-42.636	-0.114	-0.057
-382.960	194.075	-0.154	-0.232
-381.946	-0.955	-0.341	0.239
-380.931	-21.779	0.201	-0.121
-379.917	417.740	-0.094	0.199
-378.902	119.907	-0.108	0.133
-377.888	-75.941	-0.298	0.104
-376.873	-200.000	-0.107	-0.617
-375.858	-26.543	-0.384	-0.223
-374.844	366.261	0.066	0.132
-373.829	212.510	0.055	-0.087
-372.815	-7.737	0.272	-0.182
-371.800	178.632	0.102	-0.147
-370.785	206.251	-0.091	-0.140
-369.771	196.135	0.037	-0.056
-368.756	-4.442	-0.119	0.081
-367.742	363.727	0.181	0.361
-366.727	474.692	0.149	0.333
-365.712	800.000	0.079	-0.337
-364.698	302.449	-0.043	-0.078
-363.683	-200.000	0.056	0.248
-362.669	-200.000	-0.009	-0.305
-361.654	130.536	-0.131	0.167
-360.639	-200.000	0.046	-0.244
-359.625	1.281	-0.469	-0.333
-358.610	30.923	0.242	0.205
-357.596	-200.000	-0.039	0.255
-356.581	-77.331	-0.162	-0.056
-355.566	-135.559	-0.373	-0.044
-354.552	800.000	0.086	0.329
-353.537	281.268	-0.159	0.281
-352.523	-43.970	0.123	0.061
-351.508	-200.000	-0.038	-0.326
-350.493	-107.354	-0.289	0.063
-349.479	-83.466	-0.132	0.042
-348.464	-58.479	0.294	-0.126
-347.450	-52.636	-0.317	-0.145
-346.435	-124.591	-0.312	-0.048
-345.420	-43.960	0.109	-0.054
-344.406	259.855	-0.171	0.292
-343.391	-28.378	-0.308	0.176
-342.377	50.438	-0.456	0.427
-341.362	-68.299	0.209	-0.080
-340.348	-59.870	-0.426	0.180
-339.333	-97.620	0.312	-0.080
-338.318	539.622	-0.065	0.152
-337.304	-116.205	0.489	-0.090
-336.289	-122.256	-0.146	0.024
-335.275	-200.000	0.006	0.083
-334.260	233.068	-0.132	0.215
-333.245	-157.567	-0.203	0.012
-332.231	123.816	0.182	-0.226
-331.216	106.465	0.028	0.033
-330.202	478.900	-0.126	-0.283
-329.187	88.779	-0.286	-0.314
-328.172	-36.178	0.159	-0.085
-327.158	76.938	0.140	-0.147
-326.143	-79.435	0.155	0.052
-325.129	-79.619	-0.082	0.027
-324.114	-119.450	0.226	0.039
-323.099	-149.522	-0.216	0.017
-322.085	-27.579	0.254	-0.146
-321.070	50.463	0.109	-0.102
-320.056	-87.802	0.294	-0.087
-319.041	158.350	-0.142	0.194
-318.026	800.000	-0.093	0.337
-317.012	610.253	-0.100	0.247
-315.997	-58.845	0.184	-0.079
-314.983	96.465	-0.112	-0.126
-313.968	13.114	-0.172	-0.131
-312.953	-111.186	0.370	-0.075
-311.939	360.245	0.061	0.121
-310.924	202.180	-0.073	0.111
-309.910	5.305	-0.295	0.215
-308.895	312.968	-0.096	-0.178
-307.880	-200.000	0.017	-0.509
-306.866	501.480	-0.048	-0.110
-305.851	49.183	0.144	0.134
-304.837	-185.867	-0.273	-0.004
-303.822	-200.000	0.002	0.150
-302.807	800.000	0.055	-0.166
-301.793	-0.104	0.180	-0.127
-300.778	147.493	-0.241	0.320
-299.764	-65.926	0.035	-0.014
-298.749	-143.205	-0.345	0.033
-297.735	800.000	0.013	-0.050
-296.720	-5.771	0.029	-0.019
-295.705	-65.566	-0.205	0.081
-294.691	66.914	0.104	0.104
-293.676	-200.000	-0.070	-0.328
-292.662	-128.514	0.256	-0.036
-291.647	510.301	0.020	-0.045
-290.632	-200.000	-0.057	0.299
-289.618	-63.891	0.224	-0.091
-288.603	-132.812	0.177	-0.022
-287.589	148.479	-0.255	-0.340
-286.574	-200.000	0.015	-0.152
-285.559	-183.938	0.354	-0.006
-284.545	39.722	0.122	-0.108
-283.530	112.637	-0.059	0.071
-282.516	284.896	-0.105	-0.187
-281.501	-200.000	0.009	-0.068
-280.486	800.000	-0.047	0.161
-279.472	122.915	-0.128	0.158
-278.457	59.287	0.047	0.046
-277.443	-139.645	0.211	0.022
-276.428	-200.000	-0.066	0.328
-275.413	800.000	-0.148	0.557
-274.399	800.000	-0.072	0.236
-273.384	17.519	0.090	0.071
-272.370	-200.000	0.042	-0.240
-271.355	719.110	0.070	-0.185
-270.340	-66.166	0.251	0.099
-269.326	800.000	0.121	0.396
-268.311	-71.027	0.338	0.125
-267.297	354.239	-0.207	0.405
-266.282	-37.978	-0.223	0.117
-265.267	-67.342	0.345	0.134
-264.253	128.335	0.097	0.122
-263.238	-4.084	-0.165	0.112
-262.224	95.970	-0.105	-0.118
-261.209	-16.921	-0.538	-0.335
-260.195	348.841	-0.150	-0.292
-259.180	414.392	0.085	-0.179
-258.165	-200.000	-0.006	-0.096
-257.151	88.435	-0.173	-0.189
-256.136	-69.421	-0.543	-0.206
-255.122	741.288	-0.089	-0.237
-254.107	800.000	-0.042	-0.134
-253.092	177.819	0.143	0.206
-252.078	-200.000	0.029	-0.265
-251.063	800.000	0.025	0.099
-250.049	-72.399	-0.119	0.043
-249.034	-55.077	-0.082	-0.036
-248.019	-200.000	-0.017	0.195
-247.005	106.097	0.095	0.111
-245.990	800.000	-0.085	0.254
-244.976	-66.962	0.224	-0.087
-243.961	800.000	0.146	0.486
-242.946	80.388	-0.168	-0.178
-241.932	800.000	-0.066	-0.269
-240.917	-100.891	-0.090	-0.022
-239.903	-200.000	0.014	0.176
-238.888	-79.135	0.087	-0.029
-237.873	-66.367	-0.167	-0.066
-236.859	369.581	0.090	0.179
-235.844	-155.207	-0.127	-0.008
-234.830	800.000	0.021	0.075
-233.815	-96.378	0.446	-0.116
-232.800	-85.681	0.101	-0.031
-231.786	-200.000	-0.023	0.128
-230.771	244.312	-0.069	0.115
-229.757	-69.908	0.148	-0.055
-228.742	-145.279	0.115	0.010
-227.727	34.816	0.193	0.166
-226.713	-54.002	-0.044	0.020
-225.698	446.893	-0.160	0.346
-224.684	-23.752	0.157	0.093
-223.669	39.117	0.133	-0.117
-222.655	-0.655	0.142	-0.099
-221.640	10.389	-0.070	-0.053
-220.625	-87.918	-0.279	0.083
-219.611	216.127	0.130	-0.203
-218.596	-135.410	0.357	0.042
-217.582	391.020	-0.214	-0.438
-216.567	63.204	0.270	-0.266
-215.552	-126.119	-0.219	-0.032
-214.538	-200.000	-0.093	-0.409
-213.523	45.333	0.182	-0.166
-212.509	93.987	0.160	0.179
-211.494	701.080	0.089	0.229
-210.479	-2.131	-0.105	-0.072
-209.465	111.347	0.138	-0.164
-208.450	-96.726	-0.264	0.068
-207.436	10.625	0.090	0.067
-206.421	253.863	-0.026	-0.043
-205.406	-49.012	0.142	0.067
-204.392	668.399	-0.014	0.036
-203.377	-46.691	-0.109	0.053
-202.363	275.732	0.095	0.166
-201.348	166.634	0.194	-0.271
-200.333	171.057	0.059	-0.083
-199.319	143.066	-0.069	0.090
-198.304	-93.681	0.488	0.133
-197.290	-72.126	0.317	0.116
-196.275	-200.000	0.052	0.515
-195.260	-200.000	0.037	-0.195
-194.246	-200.000	-0.016	-0.096
-193.231	800.000	-0.020	-0.082
-192.217	126.594	0.266	-0.331
-191.202	72.801	0.045	0.046
-190.187	800.000	-0.075	-0.246
-189.173	-14.295	-0.202	-0.128
-188.158	800.000	-0.087	-0.254
-187.144	-92.798	-0.158	0.044
-186.129	-73.523	-0.220	-0.079
-185.114	-131.926	-0.342	0.044
-184.100	-200.000	0.067	-0.296
-183.085	-200.000	0.027	0.201
-182.071	-80.047	0.207	0.068
-181.056	-200.000	0.035	0.325
-180.042	-200.000	-0.016	0.255
-179.027	800.000	-0.060	-0.168
-178.012	-120.039	0.106	-0.018
-176.998	-200.000	0.055	-0.273
-175.983	-50.965	0.242	-0.112
-174.969	-62.775	0.041	0.017
-173.954	-76.558	-0.165	-0.057
-172.939	-130.782	0.538	0.071
-171.925	-200.000	0.103	-0.593
-170.910	242.142	-0.043	0.070
-169.896	-108.494	0.275	-0.058
-168.881	2.718	0.099	-0.071
-167.866	-32.833	-0.261	-0.143
-166.852	-90.941	-0.122	0.034
-165.837	-153.521	0.225	0.015
-164.823	268.825	0.101	-0.174
-163.808	150.986	0.038	-0.051
-162.793	-135.349	0.165	0.019
-161.779	-90.159	0.175	-0.050
-160.764	409.562	-0.058	-0.120
-159.750	-200.000	0.029	-0.136
-158.735	800.000	0.082	-0.279
-157.720	-187.222	-0.315	0.004
-156.706	-70.894	0.206	-0.076
-155.691	800.000	-0.059	-0.193
-154.677	617.050	-0.109	0.268
-153.662	54.717	0.045	-0.043
-152.647	-173.682	0.166	0.005
-151.633	-22.154	0.355	0.212
-150.618	-78.660	0.087	0.029
-149.604	132.727	0.197	-0.250
-148.589	-72.624	0.224	-0.081
-147.574	-200.000	-0.020	-0.111
-146.560	-200.000	0.023	-0.107
-145.545	800.000	0.031	-0.099
-144.531	-200.000	0.031	0.262
-143.516	-107.073	0.151	-0.033
-142.502	-47.625	0.253	0.121
-141.487	-77.022	0.160	-0.055
-140.472	24.919	-0.172	-0.140
-139.458	-78.025	-0.208	-0.070
-138.443	190.986	-0.102	0.150
-137.429	-57.268	0.243	0.105
-136.414	-16.424	-0.298	0.185
-135.399	-113.759	-0.194	0.037
-134.385	71.327	0.162	0.165
-133.370	800.000	-0.046	0.183
-132.356	102.515	-0.179	0.206
-131.341	-200.000	0.005	-0.103
-130.326	27.374	0.091	-0.075
-129.312	-33.293	-0.232	0.126
-128.297	-200.000	-0.036	0.315
-127.283	800.000	0.070	0.282
-126.268	800.000	0.183	0.507
-125.253	12.241	0.084	0.063
-124.239	-128.114	0.171	0.024
-123.224	-86.170	0.078	-0.024
-122.210	800.000	-0.031	0.107
-121.195	-64.301	-0.296	-0.118
-120.180	-55.102	0.131	-0.058
-119.166	110.401	0.154	-0.182
-118.151	212.430	-0.177	0.274
-117.137	-62.587	-0.318	0.130
-116.122	-38.501	-0.203	-0.105
-115.107	23.494	0.297	-0.240
-114.093	800.000	0.043	0.161
-113.078	201.311	0.222	0.334
-112.064	269.066	0.162	-0.279
-111.049	800.000	0.102	0.370
-110.034	380.075	-0.039	-0.078
-109.020	82.303	-0.116	0.124
-108.005	-88.458	0.255	0.075
-106.991	60.103	0.285	0.276
-105.976	-89.666	-0.224	-0.064
-104.962	104.101	0.203	0.235
-103.947	-25.903	-0.179	-0.104
-102.932	-55.105	0.175	0.077
-101.918	83.445	-0.108	-0.116
-100.903	126.944	0.159	0.198
-99.889	-200.000	0.089	-0.407
-98.874	172.927	-0.261	-0.369
-97.859	586.836	0.149	-0.360
-96.845	166.386	-0.251	0.349
-95.830	0.270	0.033	-0.023
-94.816	-174.159	-0.159	-0.005
-93.801	53.703	0.306	0.288
-92.786	-46.214	-0.157	0.076
-91.772	228.277	-0.070	0.111
-90.757	-200.000	0.128	-0.588
-89.743	5.851	-0.223	-0.162
-88.728	0.371	-0.138	-0.097
-87.713	116.083	-0.213	-0.256
-86.699	-123.224	0.226	0.035
-85.684	-135.492	-0.304	-0.035
-84.670	35.636	0.134	0.116
-83.655	-56.703	-0.141	-0.061
-82.640	147.247	-0.098	-0.129
-81.626	-200.000	-0.034	0.159
-80.611	393.776	0.057	0.116
-79.597	-75.104	0.131	0.046
-78.582	-30.580	-0.259	-0.144
-77.567	88.562	0.178	-0.194
-76.553	-200.000	0.010	-0.220
-75.538	-200.000	-0.028	-0.232
-74.524	187.681	-0.186	-0.272
-73.509	-14.922	0.144	0.091
-72.494	-36.985	0.229	-0.120
-71.480	-86.936	0.225	0.067
-70.465	-36.941	0.217	0.114
-69.451	-81.714	-0.270	0.087
-68.436	-118.469	0.359	0.062
-67.422	336.023	0.082	0.156
-66.407	119.867	0.079	0.096
-65.392	-23.418	-0.105	0.062
-64.378	-200.000	-0.021	-0.168
-63.363	170.793	0.095	0.134
-62.349	-200.000	0.024	0.194
-61.334	36.834	-0.988	-0.855
-60.319	115.688	0.546	0.653
-59.305	555.641	-0.355	-0.837
-58.290	236.319	0.662	1.072
-57.276	800.000	0.517	1.638
-56.261	-200.000	113.236	661.860
-55.246	552.719	1512.781	3556.601
-54.232	179.710	2682.064	3843.954
-53.217	112.490	2169.910	2569.123
-52.203	39.066	1699.148	1486.406
-51.188	31.437	1518.091	1276.141
-50.173	29.200	1493.446	1240.336
-49.159	53.490	1552.544	1456.731
-48.144	52.312	1567.512	1462.654
-47.130	31.804	1522.975	1282.552
-46.115	28.611	1508.490	1248.625
-45.100	28.437	1505.154	1244.633
-44.086	28.439	1503.225	1243.000
-43.071	28.273	1501.684	1240.548
-42.057	28.329	1499.793	1239.318
-41.042	28.329	1498.732	1238.394
-40.027	28.293	1497.294	1236.911
-39.013	28.222	1495.344	1234.773
-37.998	28.227	1494.110	1233.741
-36.984	28.264	1493.171	1233.166
-35.969	28.308	1491.785	1232.267
-34.954	28.311	1490.270	1230.989
-33.940	28.366	1489.013	1230.266
-32.925	28.365	1487.529	1228.985
-31.911	28.265	1486.534	1227.444
-30.896	28.363	1484.970	1226.758
-29.881	28.306	1483.971	1225.509
-28.867	28.326	1482.394	1224.290
-27.852	28.297	1481.252	1223.107
-26.838	28.395	1479.941	1222.625
-25.823	28.355	1478.488	1221.113
-24.809	28.355	1476.845	1219.707
-23.794	28.310	1475.873	1218.555
-22.779	28.363	1474.816	1217.984
-21.765	28.407	1473.443	1217.098
-20.750	28.419	1472.325	1216.201
-19.736	28.394	1471.376	1215.208
-18.721	28.335	1470.383	1213.950
-17.706	28.288	1469.091	1212.522
-16.692	28.318	1467.764	1211.578
-15.677	28.262	1467.142	1210.641
-14.663	28.357	1466.340	1210.565
-13.648	28.374	1465.038	1209.551
-12.633	28.361	1463.996	1208.560
-11.619	28.294	1463.340	1207.526
-10.604	28.270	1462.173	1206.357
-9.590	28.264	1462.104	1206.212
-8.575	28.171	1460.939	1204.589
-7.560	28.280	1459.938	1204.433
-6.546	28.367	1458.491	1203.763
-5.531	28.288	1458.037	1202.827
-4.517	28.227	1457.335	1201.795
-3.502	28.355	1456.175	1201.633
-2.487	28.313	1455.020	1200.354
-1.473	28.329	1454.188	1199.725
-0.458	28.388	1452.507	1198.676
0.556	28.502	1443.107	1187.099
1.571	25.284	1417.734	1145.621
2.586	21.687	1356.010	1073.643
3.600	19.850	1272.363	996.752
4.615	18.638	1227.635	954.889
5.629	16.050	1172.307	898.000
6.644	9.067	1090.642	800.647
7.659	3.839	1053.018	747.728
8.673	3.197	1047.703	740.798
9.688	3.098	1044.475	737.974
10.702	3.079	1042.830	736.657
11.717	3.186	1040.952	735.779
12.731	4.973	1042.171	745.119
13.746	11.844	1051.893	785.060
14.761	18.366	1060.075	822.522
15.775	19.940	1061.126	830.823
16.790	19.426	1059.729	827.191
17.804	18.350	1057.804	820.462
18.819	17.438	1056.089	814.695
19.834	17.045	1054.694	811.668
20.848	16.880	1053.738	810.070
21.863	16.878	1053.289	809.648
22.877	16.613	1052.692	807.849
23.892	16.446	1051.497	806.065
24.907	16.359	1051.059	805.245
25.921	16.446	1050.100	804.851
26.936	16.299	1049.233	803.418
27.950	16.428	1048.169	803.147
28.965	16.395	1046.977	802.005
29.980	16.475	1046.094	801.636
30.994	16.590	1044.712	801.051
32.009	16.709	1044.120	801.090
33.023	16.652	1043.981	800.640
34.038	16.646	1043.114	799.879
35.053	16.558	1041.888	798.450
36.067	16.486	1040.858	797.250
37.082	16.381	1040.297	796.257
38.096	16.633	1039.238	796.560
39.111	16.553	1038.581	795.610
40.126	16.722	1037.800	795.736
41.140	16.547	1036.722	794.017
42.155	16.294	1035.478	791.811
43.169	16.222	1034.297	790.499
44.184	16.141	1033.436	789.390
45.199	16.154	1032.228	788.459
46.213	16.232	1030.693	787.582
47.228	16.208	1030.360	787.146
48.242	16.429	1029.400	787.373
49.257	16.616	1028.403	787.410
50.271	16.520	1027.318	786.063
51.286	16.513	1026.549	785.375
52.301	16.551	1026.021	785.077
53.315	16.417	1025.708	784.145
54.330	16.399	1024.616	783.158
55.344	16.310	1023.345	781.706
56.359	16.329	1021.862	780.592
57.374	16.241	1021.594	779.910
58.388	16.281	1020.603	779.271
59.403	16.143	1019.960	778.072
60.417	16.125	1019.207	777.349
61.432	16.147	1018.251	776.652
62.447	16.131	1017.414	775.870
63.461	16.077	1016.595	774.927
64.476	15.908	1015.769	773.455
65.490	15.936	1015.135	773.031
66.505	15.928	1014.120	772.153
67.520	15.972	1013.296	771.658
68.534	15.974	1012.541	771.025
69.549	15.972	1011.899	770.459
70.563	16.174	1011.055	770.673
71.578	16.040	1010.179	769.323
72.593	15.993	1009.525	768.544
73.607	15.927	1008.341	767.274
74.622	15.831	1007.059	765.793
75.636	15.883	1006.594	765.608
76.651	15.969	1005.419	765.038
77.666	15.862	1004.901	764.091
78.680	15.922	1004.126	763.705
79.695	15.956	1004.005	763.699
80.709	15.929	1003.315	762.984
81.724	15.973	1002.293	762.336
82.739	16.065	1001.983	762.452
83.753	16.220	1001.161	762.460
84.768	16.404	1000.720	762.886
85.782	16.570	999.939	762.973
86.797	16.719	998.982	762.846
87.812	16.809	998.259	762.631
88.826	16.574	997.116	760.636
89.841	16.391	996.816	759.514
90.855	16.583	995.620	759.401
91.870	16.662	994.722	759.003
92.884	16.676	994.284	758.661
93.899	16.619	993.865	758.019
94.914	16.500	993.423	757.082
95.928	16.777	991.954	757.135
96.943	16.716	991.619	756.538
97.957	16.632	990.528	755.266
98.972	16.577	989.804	754.401
99.987	16.523	988.881	753.392
101.001	16.591	988.665	753.461
102.016	16.661	987.241	752.620
103.030	16.732	986.682	752.444
104.045	16.522	985.625	750.638
105.060	16.678	984.918	750.726
106.074	16.568	983.850	749.359
107.089	16.333	982.844	747.485
108.103	16.128	981.969	745.850
109.118	16.211	980.503	745.036
110.133	16.042	979.736	743.643
111.147	16.136	978.249	742.861
112.162	15.993	978.054	742.019
113.176	15.960	977.655	741.506
114.191	16.094	977.013	741.541
115.206	16.317	975.821	741.551
116.220	16.276	974.652	740.416
117.235	16.122	974.246	739.369
118.249	16.118	973.467	738.693
119.264	16.208	972.679	738.423
120.279	16.121	971.546	737.116
121.293	15.948	970.970	735.861
122.308	16.067	969.593	735.270
123.322	15.876	969.429	734.248
124.337	15.853	967.801	732.848
125.352	15.929	966.671	732.258
126.366	15.971	965.599	731.568
127.381	15.967	964.864	730.926
128.395	15.902	964.164	730.051
129.410	15.974	962.894	729.335
130.424	16.006	962.302	728.963
131.439	16.110	961.094	728.430
132.454	16.191	960.553	728.305
133.468	16.164	960.032	727.730
134.483	16.196	959.325	727.267
135.497	16.286	958.494	726.960
136.512	16.220	958.010	726.244
137.527	16.216	957.222	725.564
138.541	16.260	956.696	725.293
139.556	16.226	955.910	724.485
140.570	16.318	955.162	724.251
141.585	16.390	954.206	723.770
142.600	16.414	954.052	723.690
143.614	16.423	953.287	723.084
144.629	16.613	952.244	723.042
145.643	16.676	951.712	722.845
146.658	16.501	951.340	721.750
147.673	16.551	949.428	720.448
148.687	16.352	948.864	719.111
149.702	16.259	948.115	718.084
150.716	16.329	946.843	717.356
151.731	16.199	946.315	716.338
152.746	16.178	945.774	715.777
153.760	16.284	944.789	715.417
154.775	16.338	943.585	714.672
155.789	16.374	943.326	714.562
156.804	16.469	942.708	714.433
157.819	16.480	941.804	713.731
158.833	16.619	941.159	713.765
159.848	16.590	940.734	713.259
160.862	16.681	939.907	712.952
161.877	16.750	938.927	712.435
162.892	16.526	937.899	710.652
163.906	16.336	936.787	708.949
164.921	16.288	936.380	708.375
165.935	16.287	935.324	707.508
166.950	16.468	933.998	707.202
167.964	16.439	933.459	706.610
168.979	16.309	932.783	705.492
169.994	16.384	931.774	704.980
171.008	16.340	930.501	703.770
172.023	16.508	930.077	704.088
173.037	16.539	929.341	703.599
174.052	16.754	928.751	703.983
175.067	16.557	928.424	702.855
176.081	16.520	927.144	701.670
177.096	16.291	926.336	700.044
178.110	16.327	925.194	699.268
179.125	16.441	924.823	699.401
180.140	16.484	923.869	698.793
181.154	16.506	923.155	698.284
182.169	16.546	922.767	698.093
183.183	16.655	922.204	698.054
184.198	16.800	921.344	697.938
185.213	16.823	921.114	697.798
186.227	16.759	920.172	696.759
187.242	16.747	919.633	696.239
188.256	16.748	919.091	695.770
189.271	16.874	918.862	696.054
190.286	16.918	917.987	695.509
191.300	16.719	916.981	693.870
192.315	16.477	915.917	692.013
193.329	16.268	915.173	690.534
194.344	16.221	914.253	689.588
195.359	16.474	913.594	690.065
196.373	16.683	913.216	690.569
197.388	16.629	913.359	690.397
198.402	16.708	912.831	690.259
199.417	16.748	913.006	690.493
200.432	16.953	912.156	690.625
201.446	17.070	911.829	690.792
202.461	17.135	911.572	690.801
203.475	17.173	911.134	690.562
204.490	17.210	909.955	689.757
205.504	17.101	909.034	688.554
206.519	16.893	908.210	687.026
207.534	16.724	907.883	686.034
208.548	16.847	906.917	685.743
209.563	16.954	906.053	685.459
210.577	16.921	905.144	684.578
211.592	16.900	904.814	684.185
212.607	17.064	904.354	684.436
213.621	17.159	903.717	684.275
214.636	17.086	903.396	683.680
215.650	17.084	902.375	682.840
216.665	17.125	902.052	682.697
217.680	17.162	901.434	682.319
218.694	17.207	901.545	682.523
219.709	17.262	900.539	681.923
220.723	17.412	899.697	681.827
221.738	17.255	899.197	680.758
222.753	17.217	898.586	680.080
223.767	17.254	898.029	679.747
224.782	17.272	896.849	678.868
225.796	17.390	896.284	678.851
226.811	17.390	896.064	678.623
227.826	17.301	895.014	677.414
228.840	17.175	894.266	676.287
229.855	17.267	893.703	676.166
230.869	17.205	893.150	675.442
231.884	17.197	892.566	674.908
232.899	17.173	891.944	674.283
233.913	17.183	890.931	673.496
234.928	17.148	890.471	672.950
235.942	17.107	889.689	672.137
236.957	16.975	888.720	670.826
237.972	17.087	888.292	670.886
238.986	16.933	887.875	669.901
240.001	17.084	887.100	669.856
241.015	17.175	886.367	669.601
242.030	17.213	885.489	669.028
243.045	17.145	885.060	668.375
244.059	17.435	884.448	668.995
245.074	17.285	883.932	667.956
246.088	17.460	883.153	667.997
247.103	17.475	882.441	667.456
248.117	17.384	882.535	667.111
249.132	17.473	881.869	666.899
250.147	17.648	881.386	667.160
251.161	17.923	880.974	667.866
252.176	17.993	879.901	667.263
253.190	17.980	879.542	666.881
254.205	18.072	878.696	666.539
255.220	18.116	878.065	666.174
256.234	18.105	877.621	665.738
257.249	18.125	876.777	665.115
258.263	18.101	876.384	664.664
259.278	18.006	875.864	663.841
260.293	17.965	875.549	663.384
261.307	18.085	875.017	663.391
262.322	18.195	874.180	663.124
263.336	18.186	873.350	662.400
264.351	18.198	873.205	662.279
265.366	18.220	872.508	661.777
266.380	18.222	871.924	661.284
267.395	18.046	871.263	660.042
268.409	18.296	870.039	660.019
269.424	18.022	869.666	658.623
270.439	18.086	869.210	658.467
271.453	18.133	868.298	657.897
272.468	17.933	867.441	656.421
273.482	18.047	866.942	656.422
274.497	18.150	866.260	656.246
275.512	17.967	865.526	654.931
276.526	18.040	864.615	654.460
277.541	18.146	863.933	654.291
278.555	17.956	863.301	653.030
279.570	18.103	863.236	653.484
280.585	18.243	862.805	653.634
281.599	18.320	862.471	653.619
282.614	18.159	861.625	652.308
283.628	18.091	860.880	651.424
284.643	18.199	860.218	651.279
285.657	18.182	859.632	650.710
286.672	18.172	859.578	650.574
287.687	18.282	858.632	650.221
288.701	18.172	858.274	649.472
289.716	18.243	858.122	649.569
290.730	18.112	857.592	648.613
291.745	18.197	856.573	648.110
292.760	18.203	855.943	647.597
293.774	18.261	855.169	647.173
294.789	18.434	854.897	647.563
295.803	18.402	854.528	647.108
296.818	18.412	852.957	645.899
297.833	18.223	852.689	644.926
298.847	18.217	852.197	644.473
299.862	18.190	851.619	643.876
300.876	18.446	850.481	643.922
301.891	18.496	850.138	643.794
302.906	18.556	849.624	643.573
303.920	18.592	848.988	643.168
304.935	18.709	848.411	643.112
305.949	18.779	848.042	643.038
306.964	18.922	846.812	642.584
307.979	18.646	846.859	641.531
308.993	18.697	846.237	641.192
310.008	18.724	845.828	640.928
311.022	18.754	845.146	640.464
312.037	18.822	844.480	640.158
313.052	18.606	843.832	638.806
314.066	18.518	842.974	637.770
315.081	18.461	842.346	637.029
316.095	18.435	841.575	636.294
317.110	18.460	841.594	636.343
318.125	18.346	841.016	635.426
319.139	18.290	840.844	635.032
320.154	18.462	840.034	635.003
321.168	18.541	839.535	634.862
322.183	18.538	838.756	634.207
323.197	18.470	838.610	633.787
324.212	18.569	838.140	633.741
325.227	18.634	837.705	633.597
326.241	18.559	836.759	632.550
327.256	18.376	836.623	631.716
328.270	18.587	835.998	631.966
329.285	18.571	835.182	631.233
330.300	18.495	834.767	630.586
331.314	18.608	834.293	630.585
332.329	18.490	833.631	629.595
333.343	18.763	832.865	629.962
334.358	18.837	832.595	629.977
335.373	18.708	832.075	629.054
336.387	18.831	831.465	628.985
337.402	18.894	830.767	628.635
338.416	18.882	830.199	628.103
339.431	18.881	830.221	628.062
340.446	19.098	829.987	628.622
341.460	19.127	829.098	627.998
342.475	19.119	828.604	627.539
343.489	19.169	828.409	627.520
344.504	19.233	827.618	627.095
345.519	19.342	827.058	627.014
346.533	19.302	826.711	626.548
347.548	19.352	825.907	626.065
348.562	19.241	825.274	625.127
349.577	18.969	824.762	623.701
350.592	18.820	824.218	622.692
351.606	18.880	823.444	622.268
352.621	18.865	822.991	621.818
353.635	18.862	822.680	621.518
354.650	19.011	822.213	621.647
355.665	19.155	821.884	621.863
356.679	19.148	821.202	621.268
357.694	19.123	820.792	620.812
358.708	19.172	820.265	620.537
359.723	19.124	819.959	620.075
360.738	19.173	819.346	619.733
361.752	19.108	819.009	619.191
362.767	19.188	818.437	618.990
363.781	19.141	818.186	618.577
364.796	19.349	817.589	618.820
365.810	19.484	817.317	619.043
366.825	19.657	817.234	619.546
367.840	19.660	816.900	619.247
368.854	19.637	816.183	618.565
369.869	19.599	815.602	617.934
370.883	19.443	814.571	616.543
371.898	19.500	814.209	616.417
372.913	19.604	814.120	616.665
373.927	19.496	813.494	615.754
374.942	19.473	812.944	615.199
375.956	19.415	812.292	614.446
376.971	19.523	811.441	614.132
377.986	19.851	810.683	614.669
379.000	19.882	810.557	614.629
380.015	19.911	810.029	614.278
381.029	19.791	809.828	613.643
382.044	19.683	809.140	612.686
383.059	19.867	808.126	612.515
384.073	19.794	808.098	612.181
385.088	19.851	807.503	611.880
386.102	19.692	806.365	610.400
387.117	19.571	806.057	609.687
388.132	19.579	805.854	609.506
389.146	19.569	805.053	608.814
390.161	19.467	805.012	608.368
391.175	19.688	804.445	608.665
392.190	19.843	803.871	608.721
393.205	19.731	803.672	608.124
394.219	19.528	803.292	607.067
395.234	19.734	802.391	607.055
396.248	19.561	802.107	606.180
397.263	19.524	801.375	605.443
398.278	19.443	800.693	604.590
399.292	19.413	800.744	604.471
400.307	19.536	799.744	604.093
401.321	19.489	799.844	603.951
402.336	19.471	799.494	603.569
403.350	19.661	798.721	603.597
404.365	19.741	798.309	603.510
405.380	19.705	798.039	603.129
406.394	19.943	797.822	603.740
407.409	20.095	797.190	603.740
408.423	20.192	796.975	603.862
409.438	20.115	796.306	603.032
410.453	20.082	796.269	602.836
411.467	20.168	795.492	602.491
412.482	20.124	795.263	602.114
413.496	20.238	794.918	602.193
414.511	20.223	794.597	601.846
415.526	20.228	794.330	601.608
416.540	20.268	793.581	601.127
417.555	20.106	793.135	600.174
418.569	20.216	792.944	600.357
419.584	20.281	792.417	600.130
420.599	20.356	791.489	599.632
421.613	161.103	1371.484	1797.097
422.628	139.557	1455.994	1797.190
