DTS Sentinel unit serial number:	SN413079Multiplexer serial number:	ORYXHardware model number:	OX4-SRSoftware version number:	ORYX F/W v4.00 Oryx Data Collector v3.7.2.0data status	okinstallation	princeton_trtdifferential loss correction	single-endedforward channel	channel 3reverse channel	N/Adate	2019/09/18time	04:04:34forward acquisition time	60.00reverse acquisition time	0.00gamma	496.2192k internal	0.2342k external	0.2342temperature offset calibration	0.9947default loss term (dB/km)	0.3790temperature slope calibration	1.0000multiplexer offset coefficient	1.0000multiplexer slope coefficient	1.0000fibre end	0.00T internal ref (°C)	23.22T ext. ref 1 (°C)	0.19T ext. ref 2 (°C)	18.01length (m)	temperature (°C)	Stokes	anti-Stokes-747.200	91.185	-0.177	0.199
-746.185	800.000	-0.068	0.243
-745.171	57.914	-0.237	-0.233
-744.156	281.493	0.015	-0.027
-743.142	800.000	0.028	0.108
-742.127	-161.502	-0.237	-0.012
-741.112	310.111	0.114	0.214
-740.098	-177.476	-0.088	0.002
-739.083	-151.613	0.231	-0.017
-738.069	139.762	-0.024	0.032
-737.054	-117.067	0.223	0.041
-736.039	-80.407	-0.443	0.148
-735.025	154.407	-0.140	0.192
-734.010	80.085	0.215	0.231
-732.996	-200.000	0.040	0.279
-731.981	-49.654	-0.173	-0.083
-730.966	800.000	0.073	0.219
-729.952	-200.000	-0.015	-0.069
-728.937	-128.707	-0.251	-0.035
-727.923	174.574	0.149	0.215
-726.908	800.000	-0.058	0.165
-725.894	-146.165	0.343	0.030
-724.879	-200.000	-0.049	0.000
-723.864	-200.000	-0.018	0.149
-722.850	152.455	-0.094	0.129
-721.835	-72.793	-0.333	-0.123
-720.821	-143.327	-0.190	-0.018
-719.806	353.538	0.007	0.015
-718.791	-51.135	-0.121	-0.057
-717.777	-126.963	-0.473	0.070
-716.762	-200.000	-0.049	0.276
-715.748	800.000	-0.046	-0.165
-714.733	52.454	-0.090	-0.086
-713.718	-196.056	-0.138	0.001
-712.704	625.129	-0.107	0.270
-711.689	139.911	-0.234	0.308
-710.675	-200.000	-0.013	0.102
-709.660	163.170	-0.197	0.277
-708.645	-181.427	-0.256	0.005
-707.631	517.249	-0.060	0.140
-706.616	708.304	0.020	0.053
-705.602	-200.000	-0.024	-0.139
-704.587	-17.726	0.050	-0.032
-703.572	154.195	0.099	0.136
-702.558	-0.885	0.133	-0.094
-701.543	-150.955	-0.060	0.005
-700.529	-86.031	0.101	-0.031
-699.514	-176.613	0.159	-0.004
-698.499	-137.121	-0.334	-0.038
-697.485	-67.835	0.149	0.058
-696.470	-41.112	-0.120	0.062
-695.456	721.851	0.071	-0.188
-694.441	-51.090	-0.362	-0.170
-693.426	136.636	0.104	-0.136
-692.412	533.732	-0.014	0.032
-691.397	84.255	-0.068	0.074
-690.383	-151.163	-0.347	-0.026
-689.368	800.000	-0.067	-0.188
-688.354	800.000	-0.057	-0.216
-687.339	800.000	-0.161	-0.497
-686.324	203.089	-0.179	-0.276
-685.310	164.460	0.184	0.259
-684.295	158.765	-0.272	0.378
-683.281	111.571	-0.307	0.370
-682.266	-43.859	0.116	0.058
-681.251	-81.286	-0.146	-0.048
-680.237	-71.339	-0.219	0.082
-679.222	223.041	-0.210	-0.338
-678.208	-67.279	-0.075	0.030
-677.193	66.018	0.099	0.100
-676.178	-23.295	-0.217	-0.130
-675.164	-42.462	0.099	-0.050
-674.149	39.758	-0.206	-0.185
-673.135	6.347	-0.263	0.195
-672.120	-106.621	0.218	-0.049
-671.105	680.432	0.021	-0.055
-670.091	800.000	-0.038	-0.107
-669.076	-60.644	-0.363	-0.154
-668.062	209.219	-0.133	0.208
-667.047	-200.000	-0.021	0.344
-666.032	-200.000	0.006	-0.262
-665.018	-200.000	-0.018	-0.176
-664.003	-200.000	0.030	0.462
-662.989	-28.694	0.223	0.128
-661.974	244.613	0.079	-0.132
-660.959	-86.653	0.236	0.072
-659.945	327.119	-0.086	0.165
-658.930	-200.000	0.094	-0.447
-657.916	-153.279	0.202	-0.014
-656.901	-14.892	-0.218	0.139
-655.886	-62.538	-0.178	0.074
-654.872	-76.357	-0.163	0.057
-653.857	21.612	-0.285	-0.232
-652.843	-200.000	-0.009	0.320
-651.828	-134.630	0.346	-0.042
-650.814	-23.636	0.104	-0.062
-649.799	-83.242	0.344	0.110
-648.784	-200.000	0.023	-0.375
-647.770	53.456	-0.142	-0.136
-646.755	-83.046	0.079	0.025
-645.741	-200.000	-0.045	0.249
-644.726	-124.842	0.208	-0.032
-643.711	10.188	0.088	0.066
-642.697	299.848	-0.094	0.173
-641.682	799.379	0.118	-0.324
-640.668	225.586	-0.199	-0.321
-639.653	-78.866	-0.114	0.039
-638.638	-132.899	-0.271	0.034
-637.624	800.000	-0.053	-0.229
-636.609	-123.894	0.156	0.025
-635.595	-54.333	0.173	-0.078
-634.580	53.779	-0.168	0.161
-633.565	659.374	0.081	0.208
-632.551	0.050	0.299	-0.212
-631.536	-19.412	0.035	-0.022
-630.522	65.287	-0.126	-0.127
-629.507	19.582	-0.271	-0.218
-628.492	54.622	-0.176	-0.169
-627.478	-200.000	0.000	-0.269
-626.463	-197.349	-0.084	0.001
-625.449	800.000	-0.047	0.179
-624.434	184.495	0.199	-0.294
-623.419	800.000	0.057	-0.212
-622.405	379.288	0.073	0.149
-621.390	800.000	0.148	-0.524
-620.376	-165.749	0.216	0.009
-619.361	-142.791	-0.176	0.017
-618.346	-150.240	-0.059	-0.005
-617.332	-112.750	0.366	0.072
-616.317	117.753	-0.093	-0.115
-615.303	-10.276	-0.293	0.194
-614.288	224.821	0.042	0.068
-613.273	-151.750	-0.113	0.008
-612.259	-158.502	-0.138	-0.008
-611.244	-138.250	-0.154	0.017
-610.230	-65.531	-0.237	0.095
-609.215	-200.000	0.001	0.091
-608.201	-127.003	-0.181	-0.026
-607.186	377.789	0.026	-0.052
-606.171	-111.903	-0.191	0.038
-605.157	100.656	-0.177	-0.205
-604.142	-153.748	-0.083	-0.006
-603.128	-54.443	0.117	0.053
-602.113	314.875	0.071	-0.133
-601.098	-17.122	0.136	-0.085
-600.084	578.272	0.168	-0.409
-599.069	-85.182	-0.427	-0.133
-598.055	19.308	0.123	-0.098
-597.040	77.046	0.312	-0.330
-596.025	-94.405	-0.081	-0.022
-595.011	-83.680	-0.393	-0.125
-593.996	-37.920	-0.436	0.231
-592.982	126.825	0.017	-0.022
-591.967	-200.000	0.003	0.020
-590.952	65.884	-0.052	0.052
-589.938	-200.000	-0.026	-0.333
-588.923	167.640	-0.147	0.207
-587.909	256.001	0.098	-0.168
-586.894	184.573	-0.106	-0.156
-585.879	-103.861	-0.229	0.053
-584.865	-64.801	0.398	0.160
-583.850	-13.601	-0.166	0.107
-582.836	-91.490	-0.196	-0.056
-581.821	-200.000	-0.001	-0.061
-580.806	284.672	-0.038	0.068
-579.792	-200.000	-0.039	0.191
-578.777	-14.460	-0.203	-0.130
-577.763	174.561	0.147	-0.212
-576.748	63.538	-0.154	-0.154
-575.733	-24.691	0.203	0.120
-574.719	-167.502	0.197	0.008
-573.704	83.906	-0.088	0.096
-572.690	-133.970	0.367	0.045
-571.675	-33.640	0.156	-0.086
-570.661	800.000	-0.087	0.283
-569.646	608.544	-0.137	-0.340
-568.631	-190.368	0.367	0.004
-567.617	512.537	0.046	-0.107
-566.602	121.385	0.210	-0.260
-565.588	-200.000	-0.020	0.162
-564.573	-37.627	0.288	0.153
-563.558	-45.809	-0.070	0.035
-562.544	423.768	-0.181	-0.386
-561.529	800.000	-0.116	0.410
-560.515	218.879	-0.128	0.203
-559.500	43.443	-0.307	-0.279
-558.485	800.000	-0.120	-0.423
-557.471	-200.000	-0.027	0.194
-556.456	-96.224	-0.420	0.111
-555.442	136.795	-0.050	-0.065
-554.427	-121.685	-0.330	0.054
-553.412	-104.151	0.192	-0.044
-552.398	-13.516	-0.147	-0.095
-551.383	-70.625	0.306	-0.115
-550.369	-12.738	0.088	-0.057
-549.354	-19.480	-0.240	-0.148
-548.339	-132.278	0.495	0.064
-547.325	-79.576	-0.466	0.156
-546.310	-38.218	0.126	0.066
-545.296	26.542	0.239	-0.199
-544.281	301.000	-0.050	0.091
-543.266	-104.655	0.137	0.031
-542.252	-95.730	-0.335	-0.089
-541.237	152.229	0.280	-0.380
-540.223	-200.000	-0.023	0.339
-539.208	433.138	0.047	0.101
-538.193	101.506	0.226	-0.262
-537.179	-129.626	-0.055	0.007
-536.164	800.000	0.059	0.165
-535.150	-42.684	-0.103	-0.052
-534.135	-113.588	-0.147	-0.028
-533.121	357.762	0.197	0.391
-532.106	-200.000	-0.064	-0.367
-531.091	800.000	-0.038	-0.127
-530.077	-200.000	-0.019	0.195
-529.062	-107.521	-0.272	-0.059
-528.048	103.000	0.064	0.074
-527.033	93.981	-0.203	-0.229
-526.018	800.000	-0.098	0.287
-525.004	-25.389	0.116	0.068
-523.989	337.774	-0.233	0.450
-522.975	70.069	0.137	-0.140
-521.960	-200.000	-0.028	-0.154
-520.945	-99.245	-0.083	0.021
-519.931	-200.000	-0.003	-0.054
-518.916	-125.687	0.189	-0.028
-517.902	251.715	0.107	-0.181
-516.887	-1.966	-0.028	-0.019
-515.872	-195.731	-0.122	0.001
-514.858	453.006	0.119	0.261
-513.843	-32.117	-0.184	0.102
-512.829	800.000	0.074	-0.220
-511.814	65.735	0.283	-0.285
-510.799	-136.752	-0.165	-0.019
-509.785	-200.000	-0.027	0.185
-508.770	172.629	-0.233	0.333
-507.756	-126.325	-0.455	-0.067
-506.741	-6.389	0.071	0.048
-505.726	-184.533	-0.305	-0.005
-504.712	-133.482	-0.103	-0.013
-503.697	90.776	-0.328	0.364
-502.683	14.054	-0.195	-0.150
-501.668	-117.537	-0.281	-0.050
-500.653	-79.271	0.151	-0.051
-499.639	-174.599	-0.487	0.014
-498.624	800.000	-0.099	-0.291
-497.610	-48.592	-0.364	-0.174
-496.595	31.965	-0.137	-0.117
-495.581	-200.000	-0.014	0.113
-494.566	209.830	-0.146	0.226
-493.551	-58.317	-0.165	0.071
-492.537	-120.399	-0.160	-0.027
-491.522	-95.174	0.279	0.075
-490.508	800.000	0.100	0.385
-489.493	149.963	0.090	-0.121
-488.478	-0.869	-0.066	-0.046
-487.464	-25.630	-0.251	0.147
-486.449	54.179	-0.161	-0.154
-485.435	-63.011	-0.162	-0.066
-484.420	-93.899	-0.297	0.081
-483.405	-200.000	0.025	0.226
-482.391	800.000	-0.096	0.330
-481.376	577.327	-0.064	-0.154
-480.362	49.600	0.096	0.090
-479.347	800.000	0.063	0.229
-478.332	-200.000	0.006	-0.088
-477.318	-200.000	-0.001	-0.269
-476.303	-156.822	0.483	-0.029
-475.289	48.180	-0.159	-0.148
-474.274	-20.517	0.274	0.167
-473.259	56.906	0.104	-0.101
-472.245	520.349	0.112	-0.260
-471.230	-128.589	0.222	0.031
-470.216	800.000	0.051	0.185
-469.201	-200.000	0.039	0.263
-468.186	-80.272	0.126	0.042
-467.172	-55.556	0.246	-0.109
-466.157	398.296	0.106	-0.220
-465.143	-104.937	-0.119	-0.027
-464.128	-200.000	-0.053	0.273
-463.113	-200.000	-0.013	-0.284
-462.099	800.000	0.020	0.055
-461.084	-88.566	-0.167	0.049
-460.070	417.901	0.140	0.297
-459.055	-69.017	-0.362	0.138
-458.040	-130.561	-0.035	-0.005
-457.026	-11.502	0.081	0.053
-456.011	229.690	0.144	0.233
-454.997	-21.326	-0.228	-0.138
-453.982	171.018	0.104	-0.148
-452.968	-98.832	0.145	0.036
-451.953	-12.993	0.142	-0.092
-450.938	-21.136	-0.116	-0.070
-449.924	-200.000	0.027	-0.310
-448.909	79.185	0.263	-0.279
-447.895	-96.247	0.147	-0.038
-446.880	795.824	-0.034	0.092
-445.865	57.993	0.145	0.141
-444.851	800.000	-0.076	-0.236
-443.836	-95.459	0.414	0.110
-442.822	-1.410	0.281	-0.196
-441.807	800.000	0.039	-0.130
-440.792	800.000	0.042	-0.142
-439.778	-68.305	0.171	0.066
-438.763	-75.361	0.157	-0.055
-437.749	-70.703	-0.208	0.078
-436.734	90.971	0.121	-0.135
-435.719	-98.114	0.141	0.036
-434.705	-128.896	0.302	-0.042
-433.690	116.919	-0.115	-0.140
-432.676	89.930	0.214	-0.236
-431.661	-183.231	-0.285	-0.005
-430.646	188.201	-0.122	0.180
-429.632	-81.004	-0.139	-0.045
-428.617	-70.698	-0.025	0.009
-427.603	573.996	-0.094	-0.226
-426.588	-5.110	0.137	-0.093
-425.573	25.539	0.229	0.188
-424.559	689.239	0.127	0.329
-423.544	-200.000	-0.049	0.480
-422.530	-200.000	0.003	0.103
-421.515	700.846	-0.030	0.079
-420.500	352.180	-0.071	0.139
-419.486	-11.020	-0.050	0.033
-418.471	-200.000	0.341	0.000
-417.457	-72.240	0.096	-0.035
-416.442	-59.494	-0.638	0.271
-415.428	104.395	0.040	-0.046
-414.413	-65.957	-0.099	0.039
-413.398	13.229	-0.139	-0.107
-412.384	310.792	-0.156	0.288
-411.369	-41.434	-0.113	-0.058
-410.355	29.289	0.216	-0.181
-409.340	42.811	-0.258	-0.232
-408.325	285.594	0.178	0.317
-407.311	30.295	0.092	0.078
-406.296	800.000	-0.062	-0.261
-405.282	-200.000	-0.022	0.104
-404.267	20.325	-0.086	-0.069
-403.252	-106.554	-0.173	-0.038
-402.238	352.513	-0.185	-0.362
-401.223	800.000	0.192	0.538
-400.209	800.000	-0.012	-0.042
-399.194	800.000	-0.063	0.180
-398.179	25.731	0.200	0.164
-397.165	-85.962	0.533	0.163
-396.150	-33.273	0.173	-0.095
-395.136	-38.968	0.071	-0.037
-394.121	61.955	0.224	-0.221
-393.106	12.247	-0.431	-0.328
-392.092	-200.000	-0.015	0.201
-391.077	-74.719	0.098	-0.035
-390.063	4.015	0.457	0.330
-389.048	223.090	0.116	-0.185
-388.033	794.223	0.089	-0.241
-387.019	-122.952	-0.215	-0.034
-386.004	-163.852	-0.260	-0.012
-384.990	-131.591	-0.390	-0.051
-383.975	60.848	0.268	-0.263
-382.960	-200.000	-0.022	-0.106
-381.946	387.285	0.091	0.185
-380.931	280.252	0.094	0.167
-379.917	-35.646	0.322	-0.172
-378.902	-133.882	-0.041	0.005
-377.888	74.205	-0.191	0.198
-376.873	-68.993	0.225	-0.085
-375.858	103.154	-0.154	0.178
-374.844	-48.747	0.164	-0.078
-373.829	66.448	0.033	-0.033
-372.815	-42.764	0.217	0.109
-371.800	-104.336	-0.236	0.054
-370.785	-200.000	0.040	-0.174
-369.771	116.532	-0.140	0.169
-368.756	96.354	0.152	0.171
-367.742	-89.591	-0.172	0.050
-366.727	213.621	0.180	0.281
-365.712	493.947	0.067	-0.152
-364.698	-143.981	-0.063	-0.006
-363.683	-22.455	-0.325	0.194
-362.669	9.279	0.367	-0.274
-361.654	-118.384	-0.142	0.025
-360.639	468.959	0.139	0.309
-359.625	-137.548	0.147	-0.016
-358.610	-50.717	0.359	0.167
-357.596	-177.945	-0.125	0.003
-356.581	800.000	-0.072	-0.223
-355.566	-200.000	-0.022	-0.178
-354.552	53.064	0.093	-0.088
-353.537	-76.765	0.304	0.105
-352.523	-200.000	-0.030	-0.131
-351.508	-10.502	0.238	0.155
-350.493	568.596	-0.072	-0.174
-349.479	112.716	-0.068	0.081
-348.464	71.493	0.204	0.209
-347.450	-93.785	-0.145	0.039
-346.435	141.841	0.166	0.217
-345.420	-54.970	0.278	-0.123
-344.406	-158.705	0.091	0.005
-343.391	15.403	-0.096	-0.074
-342.377	800.000	0.114	-0.478
-341.362	417.710	0.048	0.100
-340.348	-91.160	0.136	0.038
-339.333	191.603	-0.062	-0.092
-338.318	-82.565	0.090	0.029
-337.304	759.720	0.095	-0.253
-336.289	800.000	-0.017	0.063
-335.275	-200.000	-0.008	-0.044
-334.260	-200.000	0.044	0.273
-333.245	497.536	0.075	-0.170
-332.231	71.206	0.248	0.254
-331.216	-88.861	0.211	-0.062
-330.202	771.723	-0.101	0.272
-329.187	-55.331	0.040	0.017
-328.172	-164.709	-0.315	0.014
-327.158	132.887	-0.199	0.253
-326.143	-200.000	0.033	0.231
-325.129	25.812	-0.255	-0.209
-324.114	-200.000	-0.009	-0.299
-323.099	-118.362	0.116	0.020
-322.085	-8.015	0.098	-0.065
-321.070	183.204	0.023	-0.034
-320.056	-185.994	-0.290	-0.004
-319.041	22.712	-0.031	0.025
-318.026	800.000	0.038	0.119
-317.012	-200.000	-0.021	0.129
-315.997	-68.999	-0.284	-0.108
-314.983	-55.934	0.337	0.148
-313.968	-128.876	-0.339	0.047
-312.953	-200.000	0.008	0.208
-311.939	227.500	0.072	-0.115
-310.924	-200.000	0.070	0.341
-309.910	-10.243	-0.297	0.194
-308.895	138.806	0.077	0.100
-307.880	-175.859	0.229	0.006
-306.866	-70.682	0.026	-0.010
-305.851	-200.000	0.003	0.240
-304.837	-66.453	0.359	0.140
-303.822	-60.349	-0.175	-0.073
-302.807	-200.000	-0.038	-0.187
-301.793	55.583	0.324	-0.309
-300.778	100.732	-0.130	-0.149
-299.764	95.219	-0.230	-0.258
-298.749	299.897	0.081	0.148
-297.735	-142.249	0.078	-0.008
-296.720	-200.000	-0.019	-0.281
-295.705	-66.616	0.202	-0.079
-294.691	-22.660	-0.087	0.052
-293.676	-91.370	-0.129	0.036
-292.662	-80.523	0.250	-0.082
-291.647	-49.184	0.091	0.043
-290.632	177.601	-0.130	0.186
-289.618	-197.660	0.185	0.001
-288.603	-199.654	-0.232	0.001
-287.589	-200.000	-0.015	0.262
-286.574	55.773	0.225	0.215
-285.559	-121.044	0.225	0.037
-284.545	599.702	-0.106	0.259
-283.530	37.020	0.103	0.090
-282.516	-25.495	-0.122	0.071
-281.501	507.247	0.033	0.076
-280.486	60.512	0.168	0.164
-279.472	-200.000	0.016	-0.101
-278.457	495.833	-0.044	0.100
-277.443	-69.365	0.465	0.176
-276.428	-15.836	0.107	0.067
-275.413	-104.205	-0.186	0.042
-274.399	-1.767	-0.153	-0.106
-273.384	11.036	-0.320	-0.240
-272.370	-97.530	0.304	0.078
-271.355	-160.900	-0.173	0.009
-270.340	63.881	0.094	0.093
-269.326	-200.000	0.041	-0.197
-268.311	-60.380	0.330	0.138
-267.297	7.271	-0.130	0.095
-266.282	47.378	-0.126	-0.115
-265.267	281.934	-0.143	-0.252
-264.253	-89.719	0.287	-0.083
-263.238	800.000	-0.098	-0.333
-262.224	51.447	-0.196	0.183
-261.209	-200.000	0.013	-0.136
-260.195	-80.293	0.175	0.057
-259.180	-112.922	-0.268	-0.052
-258.165	283.301	0.122	-0.216
-257.151	-153.135	0.212	-0.015
-256.136	-200.000	0.011	-0.116
-255.122	101.329	-0.056	0.064
-254.107	-200.000	0.001	-0.118
-253.092	40.090	0.128	-0.113
-252.078	551.093	-0.013	0.031
-251.063	-200.000	-0.001	0.020
-250.049	454.988	0.160	-0.348
-249.034	26.224	-0.094	-0.077
-248.019	-86.630	-0.174	0.052
-247.005	46.837	0.233	-0.213
-245.990	-27.278	-0.148	-0.085
-244.976	-172.355	-0.111	-0.003
-243.961	330.700	-0.121	0.229
-242.946	35.372	0.260	0.224
-241.932	-61.889	-0.332	-0.136
-240.917	-52.748	-0.145	0.066
-239.903	268.276	0.133	0.229
-238.888	-107.293	0.175	0.038
-237.873	-2.619	-0.017	-0.012
-236.859	-200.000	-0.018	-0.144
-235.844	-15.206	-0.278	0.175
-234.830	645.887	0.064	0.159
-233.815	731.391	-0.049	0.128
-232.800	30.456	0.186	0.156
-231.786	161.577	0.169	-0.232
-230.771	199.298	-0.172	-0.259
-229.757	-190.294	0.139	-0.002
-228.742	-164.557	-0.354	0.016
-227.727	-198.962	-0.107	0.001
-226.713	25.371	-0.204	0.167
-225.698	-64.645	0.218	0.087
-224.684	-200.000	0.004	-0.054
-223.669	-92.472	0.178	0.049
-222.655	800.000	-0.064	0.216
-221.640	-200.000	0.043	0.269
-220.625	-200.000	0.008	0.061
-219.611	-200.000	-0.039	-0.320
-218.596	-105.586	0.174	0.039
-217.582	348.157	-0.160	-0.310
-216.567	-140.513	-0.315	-0.032
-215.552	-88.955	-0.025	-0.007
-214.538	131.140	-0.215	0.271
-213.523	-88.591	0.372	-0.109
-212.509	-14.060	0.180	-0.114
-211.494	-15.651	-0.143	-0.090
-210.479	-200.000	0.028	0.327
-209.465	-13.988	-0.221	-0.140
-208.450	-143.809	-0.170	0.016
-207.436	-97.415	0.229	-0.058
-206.421	-83.926	-0.346	0.108
-205.406	-200.000	-0.019	0.358
-204.392	-200.000	0.014	0.101
-203.377	-88.313	-0.147	0.043
-202.363	-4.664	0.223	0.151
-201.348	-58.110	0.157	0.067
-200.333	-200.000	-0.073	0.548
-199.319	-103.432	-0.224	-0.052
-198.304	-138.152	-0.016	-0.002
-197.290	-176.115	0.338	0.009
-196.275	-200.000	-0.002	-0.022
-195.260	37.855	-0.226	-0.197
-194.246	662.738	-0.154	-0.388
-193.231	-157.332	0.228	0.013
-192.217	29.387	0.130	-0.108
-191.202	414.907	-0.054	-0.113
-190.187	-21.826	-0.279	0.166
-189.173	800.000	0.052	-0.168
-188.158	245.507	-0.151	-0.249
-187.144	-200.000	-0.013	0.155
-186.129	70.854	-0.142	-0.144
-185.114	-69.143	0.087	-0.033
-184.100	603.616	0.100	0.244
-183.085	64.264	-0.093	-0.091
-182.071	360.157	0.143	-0.281
-181.056	-200.000	-0.005	0.319
-180.042	144.483	0.108	0.142
-179.027	800.000	0.078	0.283
-178.012	-89.548	-0.123	-0.036
-176.998	133.847	0.109	-0.139
-175.983	-200.000	-0.021	0.130
-174.969	175.527	0.150	0.213
-173.954	170.330	-0.078	-0.109
-172.939	-200.000	0.018	-0.398
-171.925	768.528	-0.110	-0.292
-170.910	-200.000	-0.030	0.330
-169.896	-100.258	0.289	0.070
-168.881	-118.195	0.195	0.034
-167.866	-200.000	-0.008	0.226
-166.852	173.650	0.056	-0.080
-165.837	-23.620	-0.053	-0.031
-164.823	-98.613	0.282	0.071
-163.808	75.372	0.058	0.060
-162.793	-8.524	0.080	-0.053
-161.779	-55.241	0.008	-0.004
-160.764	677.399	-0.099	0.251
-159.750	-160.226	0.226	0.012
-158.735	-11.639	-0.063	-0.040
-157.720	-200.000	0.030	0.130
-156.706	800.000	-0.063	0.234
-155.691	-4.338	0.273	-0.185
-154.677	-52.007	-0.170	0.077
-153.662	800.000	-0.054	0.159
-152.647	-102.331	-0.239	-0.056
-151.633	-98.750	-0.196	0.049
-150.618	9.286	-0.145	0.107
-149.604	-3.968	0.158	-0.107
-148.589	-40.072	-0.101	-0.052
-147.574	-97.902	0.089	-0.022
-146.560	-69.296	-0.251	-0.094
-145.545	-27.077	0.204	0.116
-144.531	-113.712	-0.078	0.015
-143.516	-106.005	0.185	-0.041
-142.502	-200.000	-0.042	0.258
-141.487	-200.000	0.044	0.227
-140.472	-55.841	-0.220	-0.096
-139.458	-183.488	0.311	0.005
-138.443	-113.255	-0.133	-0.026
-137.429	87.232	0.173	0.187
-136.414	800.000	0.084	0.233
-135.399	-102.465	0.104	0.024
-134.385	474.921	0.257	-0.567
-133.370	167.329	0.287	0.399
-132.356	800.000	0.070	-0.254
-131.341	-200.000	0.007	0.360
-130.326	288.555	-0.139	-0.245
-129.312	-46.546	-0.498	-0.239
-128.297	296.068	0.268	-0.480
-127.283	426.679	-0.135	-0.286
-126.268	-200.000	0.003	-0.299
-125.253	-134.122	-0.315	0.038
-124.239	-167.813	0.285	-0.011
-123.224	-77.899	0.274	0.092
-122.210	800.000	0.038	0.114
-121.195	-101.576	0.188	0.045
-120.180	352.408	-0.114	0.221
-119.166	62.674	-0.174	0.170
-118.151	-27.940	0.081	-0.046
-117.137	-200.000	0.048	0.368
-116.122	72.780	-0.247	-0.252
-115.107	-45.439	-0.121	-0.059
-114.093	-86.522	-0.127	-0.038
-113.078	174.135	-0.183	-0.258
-112.064	-200.000	0.030	-0.362
-111.049	95.238	-0.072	0.080
-110.034	-200.000	0.065	0.401
-109.020	257.608	-0.119	0.200
-108.005	77.595	-0.117	-0.121
-106.991	461.860	-0.075	-0.164
-105.976	800.000	-0.056	-0.162
-104.962	-200.000	0.013	-0.321
-103.947	800.000	0.103	0.362
-102.932	-200.000	0.030	-0.225
-101.918	-200.000	0.029	0.190
-100.903	63.774	0.237	0.232
-99.889	-200.000	-0.023	0.209
-98.874	192.975	-0.019	-0.028
-97.859	46.398	0.071	-0.064
-96.845	27.131	0.071	-0.058
-95.830	-157.604	0.145	0.008
-94.816	800.000	-0.058	0.239
-93.801	-6.711	0.393	0.261
-92.786	-133.312	0.257	-0.032
-91.772	109.723	-0.072	0.085
-90.757	-91.760	0.283	-0.079
-89.743	-23.416	0.093	-0.055
-88.728	-146.374	-0.324	-0.028
-87.713	-200.000	-0.003	-0.070
-86.699	136.625	-0.223	0.284
-85.684	-51.937	0.125	0.057
-84.670	224.180	-0.045	0.071
-83.655	800.000	-0.087	-0.322
-82.640	92.441	-0.071	-0.078
-81.626	-42.927	-0.305	0.151
-80.611	67.051	0.082	0.081
-79.597	33.952	-0.169	0.144
-78.582	523.546	-0.057	-0.132
-77.567	-200.000	-0.005	0.129
-76.553	129.890	-0.199	-0.248
-75.538	190.932	-0.243	-0.356
-74.524	-200.000	-0.013	-0.092
-73.509	-67.538	0.320	-0.122
-72.494	12.254	0.088	-0.066
-71.480	-200.000	0.065	-0.305
-70.465	175.171	-0.032	0.045
-69.451	43.326	-0.079	0.070
-68.436	-137.217	0.165	0.018
-67.422	199.875	0.195	-0.292
-66.407	-157.514	-0.199	-0.012
-65.392	800.000	-0.086	0.324
-64.378	140.334	0.108	0.140
-63.363	262.119	0.168	0.285
-62.349	63.716	-0.316	0.310
-61.334	86.570	-0.944	-1.015
-60.319	-6.850	0.775	0.514
-59.305	785.639	-0.512	-1.369
-58.290	310.570	0.730	1.333
-57.276	800.000	0.451	1.438
-56.261	-200.000	124.178	644.116
-55.246	412.085	1564.648	3239.761
-54.232	143.577	2722.399	3535.015
-53.217	94.538	2183.691	2419.037
-52.203	33.708	1701.912	1442.729
-51.188	26.162	1520.304	1237.242
-50.173	24.308	1496.749	1205.503
-49.159	47.941	1567.103	1426.998
-48.144	45.478	1580.467	1422.023
-47.130	26.274	1529.347	1245.173
-46.115	23.430	1513.087	1212.464
-45.100	23.236	1510.042	1208.651
-44.086	23.214	1508.169	1206.953
-43.071	23.296	1506.179	1205.873
-42.057	23.316	1503.739	1204.009
-41.042	23.145	1502.840	1202.081
-40.027	23.257	1501.584	1201.789
-39.013	23.241	1499.555	1200.006
-37.998	23.119	1499.080	1198.749
-36.984	23.155	1497.768	1197.901
-35.969	23.188	1496.413	1196.993
-34.954	23.185	1494.283	1195.218
-33.940	23.094	1493.251	1193.729
-32.925	23.307	1491.441	1193.672
-31.911	23.278	1490.263	1192.489
-30.896	23.195	1489.759	1191.480
-29.881	23.255	1487.973	1190.404
-28.867	23.318	1486.788	1189.837
-27.852	23.207	1485.612	1188.098
-26.838	23.241	1484.072	1187.049
-25.823	23.284	1482.246	1185.832
-24.809	23.278	1480.239	1184.140
-23.794	23.293	1478.787	1183.029
-22.779	23.250	1477.910	1181.997
-21.765	23.248	1477.045	1181.239
-20.750	23.320	1475.864	1180.728
-19.736	23.214	1474.779	1179.108
-18.721	23.221	1474.040	1178.517
-17.706	23.225	1472.828	1177.527
-16.692	23.175	1471.563	1176.136
-15.677	23.237	1470.645	1175.770
-14.663	23.201	1469.807	1174.812
-13.648	23.230	1468.773	1174.136
-12.633	23.174	1468.026	1173.119
-11.619	23.258	1466.930	1172.750
-10.604	23.212	1465.970	1171.637
-9.590	23.124	1465.400	1170.547
-8.575	23.226	1464.395	1170.375
-7.560	23.286	1463.158	1169.736
-6.546	23.200	1462.593	1168.673
-5.531	23.225	1461.820	1168.169
-4.517	23.216	1460.640	1167.120
-3.502	23.223	1459.898	1166.531
-2.487	23.211	1458.795	1165.520
-1.473	23.216	1458.096	1164.953
-0.458	23.200	1456.594	1163.601
0.556	21.543	1446.812	1152.814
1.571	18.771	1423.663	1116.273
2.586	15.743	1362.896	1049.662
3.600	14.454	1279.260	977.608
4.615	13.439	1236.705	939.247
5.629	11.874	1179.151	886.985
6.644	5.845	1097.139	794.749
7.659	0.964	1061.159	744.656
8.673	0.316	1055.704	737.594
9.688	0.113	1053.067	734.693
10.702	0.140	1051.506	733.675
11.717	0.171	1049.040	732.039
12.731	2.080	1050.578	742.334
13.746	8.568	1059.011	779.947
14.761	14.714	1066.570	815.548
15.775	16.676	1068.837	826.799
16.790	16.307	1067.650	824.011
17.804	15.464	1065.373	818.071
18.819	14.549	1063.669	812.238
19.834	14.183	1062.025	809.132
20.848	13.897	1060.959	806.858
21.863	13.722	1060.391	805.503
22.877	13.478	1059.917	803.887
23.892	13.254	1058.659	801.776
24.907	13.231	1057.927	801.041
25.921	13.155	1057.197	800.049
26.936	13.127	1056.736	799.496
27.950	13.172	1056.727	799.633
28.965	13.205	1055.829	799.043
29.980	13.297	1054.176	798.166
30.994	13.242	1053.882	797.605
32.009	13.354	1052.594	797.102
33.023	13.371	1051.889	796.579
34.038	13.318	1051.711	796.116
35.053	13.238	1050.793	794.966
36.067	13.321	1049.694	794.465
37.082	13.210	1049.428	793.663
38.096	13.285	1048.000	792.870
39.111	13.367	1047.139	792.543
40.126	13.357	1046.425	791.885
41.140	13.289	1045.556	790.828
42.155	13.201	1044.139	789.269
43.169	13.214	1043.287	788.614
44.184	13.254	1042.411	788.075
45.199	13.129	1041.731	786.897
46.213	13.123	1040.528	785.891
47.228	13.304	1039.495	785.900
48.242	13.241	1038.436	784.728
49.257	13.291	1037.286	784.027
50.271	13.276	1036.556	783.334
51.286	13.204	1035.597	782.202
52.301	13.382	1034.567	782.196
53.315	13.319	1034.104	781.479
54.330	13.276	1032.939	780.328
55.344	13.325	1031.803	779.631
56.359	13.193	1031.460	778.679
57.374	13.279	1030.047	777.947
58.388	13.270	1029.263	777.248
59.403	13.331	1028.127	776.604
60.417	13.227	1027.622	775.668
61.432	13.226	1027.031	775.148
62.447	13.200	1026.150	774.295
63.461	13.112	1025.474	773.302
64.476	13.119	1024.613	772.616
65.490	13.133	1023.586	771.841
66.505	13.173	1022.472	771.118
67.520	13.164	1021.904	770.580
68.534	13.215	1021.115	770.155
69.549	13.227	1020.211	769.460
70.563	13.130	1019.497	768.401
71.578	13.190	1018.896	768.163
72.593	13.232	1017.894	767.531
73.607	13.066	1016.946	765.979
74.622	13.168	1016.412	765.981
75.636	13.121	1015.668	765.136
76.651	13.175	1014.495	764.437
77.666	13.172	1013.961	763.949
78.680	13.037	1013.028	762.558
79.695	13.183	1012.768	762.967
80.709	13.240	1011.694	762.354
81.724	13.170	1011.079	761.502
82.739	13.256	1009.758	760.836
83.753	13.207	1009.593	760.416
84.768	13.313	1008.559	760.060
85.782	13.352	1007.698	759.520
86.797	13.279	1007.040	758.625
87.812	13.361	1005.948	758.110
88.826	13.299	1005.516	757.432
89.841	13.260	1004.871	756.699
90.855	13.344	1003.573	756.042
91.870	13.344	1002.961	755.514
92.884	13.441	1002.357	755.433
93.899	13.287	1001.632	754.116
94.914	13.458	1000.573	754.033
95.928	13.503	1000.065	753.787
96.943	13.440	999.396	752.928
97.957	13.410	998.606	752.133
98.972	13.372	997.994	751.434
99.987	13.263	997.192	750.269
101.001	13.412	996.297	750.204
102.016	13.361	995.743	749.490
103.030	13.371	994.806	748.762
104.045	13.324	993.455	747.467
105.060	13.500	992.186	747.241
106.074	13.442	991.614	746.481
107.089	13.314	991.207	745.534
108.103	13.220	990.174	744.267
109.118	13.291	989.083	743.702
110.133	13.171	988.116	742.366
111.147	13.177	987.607	741.946
112.162	13.224	986.767	741.461
113.176	13.381	985.562	741.191
114.191	13.424	984.653	740.636
115.206	13.327	983.972	739.624
116.220	13.405	982.977	739.159
117.235	13.297	982.556	738.295
118.249	13.339	981.460	737.593
119.264	13.354	980.414	736.811
120.279	13.342	979.837	736.257
121.293	13.321	979.036	735.495
122.308	13.134	978.418	734.135
123.322	13.293	977.356	733.979
124.337	13.302	976.150	733.050
125.352	13.352	974.707	732.121
126.366	13.169	974.479	731.078
127.381	13.165	973.422	730.202
128.395	13.097	972.573	729.198
129.410	13.213	971.272	728.673
130.424	13.154	970.396	727.688
131.439	13.157	969.433	726.916
132.454	13.240	968.673	726.647
133.468	13.310	967.514	726.021
134.483	13.251	967.607	725.769
135.497	13.210	966.711	724.850
136.512	13.279	965.801	724.405
137.527	13.328	964.944	723.913
138.541	13.270	964.396	723.186
139.556	13.318	963.529	722.681
140.570	13.316	962.991	722.206
141.585	13.154	962.276	720.896
142.600	13.482	961.674	721.814
143.614	13.462	960.486	720.772
144.629	13.413	959.878	720.036
145.643	13.585	959.432	720.389
146.658	13.611	957.895	719.284
147.673	13.484	957.127	718.091
148.687	13.417	956.398	717.189
149.702	13.487	955.930	717.078
150.716	13.386	955.047	715.915
151.731	13.414	954.109	715.270
152.746	13.329	953.454	714.349
153.760	13.511	952.178	714.115
154.775	13.473	952.030	713.778
155.789	13.577	951.116	713.474
156.804	13.509	950.607	712.738
157.819	13.548	949.609	712.093
158.833	13.495	949.008	711.355
159.848	13.616	948.608	711.513
160.862	13.710	947.604	711.100
161.877	13.674	946.861	710.323
162.892	13.753	945.916	709.889
163.906	13.567	945.172	708.472
164.921	13.573	944.205	707.713
165.935	13.535	943.440	706.913
166.950	13.633	942.284	706.404
167.964	13.681	941.619	706.044
168.979	13.641	941.052	705.386
169.994	13.559	939.882	704.101
171.008	13.632	939.071	703.740
172.023	13.652	938.299	703.185
173.037	13.766	937.287	702.846
174.052	13.735	936.617	702.151
175.067	13.758	935.844	701.607
176.081	13.709	935.103	700.782
177.096	13.625	934.595	699.985
178.110	13.771	933.459	699.687
179.125	13.602	932.711	698.350
180.140	13.636	931.968	697.879
181.154	13.593	931.807	697.514
182.169	13.744	931.177	697.615
183.183	13.758	930.078	696.792
184.198	13.698	929.769	696.247
185.213	13.851	928.435	695.825
186.227	13.851	928.242	695.620
187.242	13.828	927.932	695.230
188.256	13.969	926.474	694.664
189.271	13.941	926.044	694.162
190.286	13.851	925.418	693.255
191.300	13.983	924.538	693.086
192.315	13.802	923.505	691.496
193.329	13.748	923.438	691.160
194.344	13.693	922.675	690.299
195.359	13.817	922.199	690.398
196.373	13.765	921.464	689.572
197.388	13.776	921.416	689.518
198.402	14.045	920.216	689.676
199.417	13.972	920.260	689.347
200.432	14.100	919.354	689.135
201.446	14.114	919.051	688.908
202.461	14.211	918.783	689.048
203.475	14.153	917.981	688.145
204.490	14.144	917.278	687.517
205.504	14.134	916.411	686.767
206.519	14.119	916.013	686.347
207.534	14.142	914.676	685.379
208.548	14.058	914.293	684.686
209.563	14.102	913.852	684.477
210.577	14.173	912.944	684.026
211.592	14.120	912.310	683.274
212.607	14.218	911.818	683.246
213.621	14.288	911.098	682.935
214.636	14.221	910.872	682.429
215.650	14.263	909.787	681.726
216.665	14.220	909.471	681.256
217.680	14.295	908.871	681.052
218.694	14.342	908.544	680.938
219.709	14.339	908.028	680.482
220.723	14.462	906.864	680.049
221.738	14.311	906.489	679.093
222.753	14.402	905.495	678.659
223.767	14.355	904.650	677.773
224.782	14.296	904.518	677.373
225.796	14.422	903.524	677.081
226.811	14.501	902.629	676.673
227.826	14.446	901.898	675.842
228.840	14.499	901.393	675.619
229.855	14.552	900.866	675.378
230.869	14.470	899.805	674.190
231.884	14.367	899.654	673.603
232.899	14.449	898.438	672.963
233.913	14.390	898.238	672.515
234.928	14.420	897.694	672.169
235.942	14.361	897.302	671.577
236.957	14.465	895.895	670.884
237.972	14.464	895.384	670.439
238.986	14.393	895.062	669.852
240.001	14.521	894.152	669.626
241.015	14.542	893.329	669.034
242.030	14.568	893.115	668.918
243.045	14.627	892.179	668.395
244.059	14.625	891.884	668.106
245.074	14.551	891.041	667.121
246.088	14.559	890.347	666.575
247.103	14.564	889.999	666.273
248.117	14.640	889.015	665.783
249.132	14.726	888.723	665.849
250.147	14.856	887.973	665.744
251.161	14.835	887.261	665.069
252.176	14.876	886.336	664.478
253.190	14.975	885.456	664.156
254.205	14.881	885.453	663.718
255.220	15.010	884.846	663.719
256.234	14.989	883.740	662.744
257.249	14.984	883.554	662.529
258.263	15.036	882.891	662.179
259.278	15.016	882.349	661.633
260.293	15.026	881.975	661.336
261.307	15.080	881.206	660.912
262.322	14.970	880.887	660.179
263.336	15.193	879.495	659.958
264.351	15.180	879.215	659.637
265.366	15.206	878.654	659.260
266.380	15.195	877.932	658.616
267.395	15.133	877.669	658.120
268.409	15.121	876.659	657.256
269.424	15.151	875.894	656.743
270.439	15.184	875.326	656.389
271.453	15.171	874.695	655.806
272.468	15.178	873.953	655.219
273.482	15.210	873.098	654.643
274.497	15.363	872.371	654.637
275.512	15.308	871.591	653.780
276.526	15.265	871.072	653.167
277.541	15.155	870.620	652.340
278.555	15.238	869.809	651.996
279.570	15.264	869.450	651.772
280.585	15.504	868.523	651.953
281.599	15.453	868.216	651.466
282.614	15.328	868.002	650.763
283.628	15.448	866.861	650.315
284.643	15.346	866.455	649.556
285.657	15.421	865.900	649.373
286.672	15.421	865.514	649.027
287.687	15.371	865.218	648.554
288.701	15.464	864.623	648.410
289.716	15.465	864.125	647.983
290.730	15.601	863.565	648.032
291.745	15.620	862.639	647.352
292.760	15.486	862.113	646.384
293.774	15.518	861.484	645.979
294.789	15.470	861.277	645.580
295.803	15.631	860.125	645.281
296.818	15.543	859.915	644.727
297.833	15.576	859.007	644.116
298.847	15.441	858.473	643.138
299.862	15.623	857.511	643.058
300.876	15.606	856.890	642.471
301.891	15.770	855.932	642.323
302.906	15.623	855.803	641.606
303.920	15.695	854.920	641.165
304.935	15.664	854.290	640.514
305.949	15.649	853.954	640.150
306.964	15.874	853.287	640.450
307.979	15.856	852.591	639.803
308.993	15.721	852.073	638.844
310.008	15.839	851.581	638.868
311.022	15.715	851.389	638.197
312.037	15.850	850.563	638.030
313.052	15.786	850.298	637.534
314.066	15.906	849.292	637.176
315.081	15.834	848.788	636.472
316.095	15.904	848.300	636.312
317.110	15.795	847.924	635.563
318.125	15.819	847.041	634.934
319.139	15.642	847.054	634.223
320.154	15.786	846.236	634.095
321.168	15.762	845.513	633.408
322.183	15.903	845.020	633.514
323.197	15.890	844.462	632.990
324.212	15.947	843.778	632.635
325.227	15.996	843.298	632.402
326.241	16.057	842.714	632.136
327.256	15.938	842.175	631.231
328.270	15.920	841.614	630.687
329.285	16.014	841.222	630.691
330.300	16.041	840.275	630.025
331.314	15.998	839.969	629.581
332.329	16.187	838.804	629.354
333.343	15.940	838.870	628.428
334.358	15.989	838.129	628.000
335.373	16.128	837.770	628.193
336.387	16.027	837.016	627.195
337.402	16.070	836.555	626.956
338.416	16.107	835.963	626.594
339.431	16.188	835.404	626.420
340.446	16.295	834.449	626.043
341.460	16.273	834.595	626.017
342.475	16.408	833.707	625.798
343.489	16.251	833.329	624.877
344.504	16.297	832.854	624.634
345.519	16.314	832.059	624.045
346.533	16.399	831.309	623.741
347.548	16.536	830.901	623.888
348.562	16.406	830.749	623.236
349.577	16.393	830.007	622.577
350.592	16.337	829.819	622.177
351.606	16.343	829.120	621.618
352.621	16.413	828.543	621.387
353.635	16.366	828.047	620.788
354.650	16.575	827.768	621.293
355.665	16.263	827.728	620.063
356.679	16.491	826.745	620.105
357.694	16.527	826.408	619.931
358.708	16.390	826.181	619.204
359.723	16.569	825.421	619.233
360.738	16.510	824.807	618.503
361.752	16.517	824.155	617.985
362.767	16.675	823.629	618.112
363.781	16.633	823.168	617.560
364.796	16.570	822.870	617.052
365.810	16.516	822.843	616.778
366.825	16.679	821.985	616.676
367.840	16.645	821.670	616.259
368.854	16.712	821.383	616.233
369.869	16.696	820.758	615.654
370.883	16.628	820.758	615.350
371.898	16.710	819.687	614.793
372.913	16.789	818.928	614.453
373.927	16.758	818.404	613.894
374.942	16.954	817.553	613.912
375.956	16.753	817.401	613.016
376.971	16.823	816.815	612.775
377.986	17.060	815.794	612.812
379.000	16.883	815.509	611.903
380.015	17.038	815.161	612.147
381.029	16.852	814.746	611.111
382.044	16.949	814.061	610.892
383.059	17.057	813.428	610.752
384.073	17.079	812.973	610.436
385.088	16.904	812.474	609.376
386.102	16.977	812.026	609.251
387.117	16.990	811.624	608.941
388.132	16.930	811.232	608.376
389.146	16.916	810.389	607.641
390.161	17.013	810.172	607.773
391.175	17.114	809.592	607.647
392.190	17.123	809.146	607.288
393.205	17.151	809.018	607.239
394.219	17.012	808.430	606.247
395.234	17.089	807.903	606.072
396.248	17.147	807.233	605.725
397.263	17.030	807.158	605.196
398.278	17.073	806.465	604.777
399.292	17.065	806.148	604.456
400.307	16.958	805.906	603.841
401.321	17.004	805.280	603.483
402.336	17.102	804.752	603.381
403.350	17.157	804.360	603.229
404.365	17.161	803.863	602.820
405.380	17.103	803.691	602.429
406.394	17.218	803.167	602.392
407.409	17.218	802.645	601.948
408.423	17.312	801.909	601.673
409.438	17.449	801.554	601.839
410.453	17.382	801.489	601.501
411.467	17.445	800.674	601.058
412.482	17.425	799.988	600.418
413.496	17.544	799.956	600.763
414.511	17.553	799.300	600.246
415.526	17.550	798.605	599.663
416.540	17.468	798.532	599.265
417.555	17.617	798.084	599.401
418.569	17.502	797.898	598.804
419.584	17.453	797.244	598.086
420.599	17.574	796.991	598.269
421.613	113.460	1298.218	1487.991
422.628	97.692	1371.241	1488.082
