DTS Sentinel unit serial number:	SN413079Multiplexer serial number:	ORYXHardware model number:	OX4-SRSoftware version number:	ORYX F/W v4.00 Oryx Data Collector v3.7.2.0data status	okinstallation	princeton_trtdifferential loss correction	single-endedforward channel	channel 3reverse channel	N/Adate	2019/09/15time	21:52:35forward acquisition time	60.00reverse acquisition time	0.00gamma	496.2192k internal	0.2329k external	0.2329temperature offset calibration	0.9939default loss term (dB/km)	0.3790temperature slope calibration	1.0000multiplexer offset coefficient	1.0000multiplexer slope coefficient	1.0000fibre end	0.00T internal ref (°C)	30.06T ext. ref 1 (°C)	8.46T ext. ref 2 (°C)	23.07length (m)	temperature (°C)	Stokes	anti-Stokes-747.200	-82.110	0.243	-0.080
-746.185	-171.538	0.036	-0.001
-745.171	-102.844	0.358	-0.086
-744.156	-200.000	0.013	-0.386
-743.142	373.538	-0.179	0.367
-742.127	-200.000	-0.008	-0.118
-741.112	-96.339	0.085	0.023
-740.098	-38.212	-0.142	0.076
-739.083	83.036	-0.084	-0.092
-738.069	341.039	-0.289	0.569
-737.054	451.334	-0.126	-0.281
-736.039	-44.413	-0.488	-0.246
-735.025	800.000	0.015	0.046
-734.010	-200.000	0.013	-0.530
-732.996	-82.498	0.187	-0.061
-731.981	-73.300	0.050	0.018
-730.966	366.502	-0.105	-0.214
-729.952	634.085	-0.176	-0.450
-728.937	670.483	-0.070	-0.183
-727.923	-78.136	-0.182	0.063
-726.908	-54.154	-0.145	-0.066
-725.894	-16.938	-0.163	0.103
-724.879	78.425	0.305	0.328
-723.864	-200.000	-0.037	-0.186
-722.850	317.393	-0.095	-0.181
-721.835	-132.864	0.157	0.020
-720.821	36.425	-0.112	-0.099
-719.806	-127.617	0.235	0.034
-718.791	-103.898	-0.240	-0.056
-717.777	26.896	0.142	-0.120
-716.762	-42.090	0.262	-0.135
-715.748	800.000	-0.143	-0.459
-714.733	205.654	0.161	-0.251
-713.718	-200.000	0.042	-0.357
-712.704	-172.090	-0.246	-0.008
-711.689	116.350	0.045	0.055
-710.675	-115.828	0.204	0.038
-709.660	407.171	0.087	0.184
-708.645	-200.000	0.018	-0.199
-707.631	-200.000	-0.034	-0.248
-706.616	84.369	0.177	-0.195
-705.602	800.000	0.102	-0.287
-704.587	8.195	0.090	0.068
-703.572	120.035	-0.050	-0.063
-702.558	-200.000	-0.041	-0.325
-701.543	51.355	0.194	-0.185
-700.529	-66.586	-0.462	0.184
-699.514	-113.697	-0.283	-0.055
-698.499	212.114	0.034	-0.053
-697.485	-200.000	0.039	0.230
-696.470	712.631	-0.038	0.100
-695.456	34.399	0.214	-0.188
-694.441	-141.782	-0.137	-0.014
-693.426	-200.000	-0.066	-0.428
-692.412	-102.706	-0.279	0.067
-691.397	75.717	-0.138	-0.147
-690.383	127.181	-0.138	0.176
-689.368	800.000	-0.080	-0.256
-688.354	109.605	0.122	0.147
-687.339	118.728	0.173	-0.215
-686.324	-200.000	0.021	0.253
-685.310	-57.432	-0.216	0.096
-684.295	-200.000	-0.008	0.112
-683.281	-114.637	-0.277	-0.053
-682.266	-153.304	-0.258	0.018
-681.251	489.321	0.050	0.115
-680.237	-200.000	-0.018	0.218
-679.222	0.951	-0.327	-0.235
-678.208	800.000	0.089	-0.336
-677.193	-107.540	-0.436	0.096
-676.178	-21.244	0.149	0.091
-675.164	-66.003	0.190	0.076
-674.149	-69.636	-0.198	0.076
-673.135	126.036	-0.171	-0.218
-672.120	290.450	-0.115	0.210
-671.105	740.417	0.061	0.165
-670.091	-83.480	-0.245	0.079
-669.076	-166.292	0.224	-0.009
-668.062	-200.000	-0.020	-0.162
-667.047	800.000	-0.052	-0.166
-666.032	-200.000	-0.025	0.144
-665.018	-103.705	-0.346	0.081
-664.003	-45.385	-0.049	0.024
-662.989	-109.466	0.090	-0.019
-661.974	94.224	0.179	-0.204
-660.959	-200.000	0.006	-0.226
-659.945	-132.735	-0.159	0.020
-658.930	313.638	0.162	0.305
-657.916	-112.376	-0.035	0.007
-656.901	51.686	0.131	-0.125
-655.886	-157.446	-0.282	-0.017
-654.872	-141.872	-0.230	-0.023
-653.857	-47.170	-0.332	-0.163
-652.843	15.046	-0.112	-0.088
-651.828	-11.121	0.079	0.052
-650.814	-200.000	0.034	-0.270
-649.799	800.000	-0.068	-0.289
-648.784	317.227	-0.045	-0.086
-647.770	800.000	0.031	0.134
-646.755	-200.000	-0.010	-0.392
-645.741	-104.305	-0.225	0.052
-644.726	-120.018	-0.067	0.012
-643.711	-200.000	-0.022	0.255
-642.697	155.792	-0.096	-0.133
-641.682	-13.985	0.080	-0.052
-640.668	-55.698	0.201	0.090
-639.653	-2.659	0.089	0.062
-638.638	126.471	-0.141	0.179
-637.624	59.198	-0.150	-0.148
-636.609	-200.000	0.054	-0.393
-635.595	-107.467	-0.499	0.110
-634.580	-9.805	0.154	-0.103
-633.565	-17.927	-0.162	-0.102
-632.551	-200.000	-0.005	-0.415
-631.536	-98.207	0.151	-0.039
-630.522	35.666	0.325	-0.287
-629.507	-55.629	-0.238	0.107
-628.492	-41.134	0.262	0.135
-627.478	-200.000	0.022	-0.105
-626.463	-197.242	-0.326	0.002
-625.449	485.945	0.088	0.201
-624.434	166.315	0.235	-0.334
-623.419	-44.387	-0.196	-0.098
-622.405	-90.608	0.464	0.134
-621.390	-171.655	-0.273	-0.009
-620.376	35.930	0.173	-0.153
-619.361	-114.693	0.122	0.023
-618.346	-122.933	-0.365	-0.059
-617.332	-102.085	-0.139	-0.033
-616.317	-143.124	0.249	0.024
-615.303	-89.718	0.128	0.038
-614.288	-31.537	-0.174	0.098
-613.273	-200.000	-0.306	-0.001
-612.259	-57.945	-0.223	-0.097
-611.244	-35.655	-0.404	-0.219
-610.230	-200.000	0.011	-0.264
-609.215	800.000	0.097	-0.310
-608.201	5.433	-0.276	0.204
-607.186	-119.100	-0.197	0.035
-606.171	-78.627	-0.184	0.063
-605.157	403.256	0.066	-0.139
-604.142	-115.103	-0.316	-0.060
-603.128	-200.000	0.008	-0.152
-602.113	800.000	-0.059	0.256
-601.098	-15.396	-0.102	0.065
-600.084	-46.170	0.181	0.089
-599.069	-146.674	0.342	-0.030
-598.055	89.780	-0.118	0.132
-597.040	-117.297	-0.070	-0.013
-596.025	-116.660	-0.328	0.060
-595.011	15.581	0.107	-0.084
-593.996	-4.754	0.157	-0.108
-592.982	-200.000	-0.005	-0.075
-591.967	535.136	-0.097	-0.231
-590.952	-50.564	-0.201	-0.095
-589.938	-35.411	0.254	-0.138
-588.923	-130.828	-0.356	-0.048
-587.909	-200.000	0.051	-0.459
-586.894	-125.449	-0.029	0.004
-585.879	233.244	0.174	0.287
-584.865	-3.626	0.055	0.038
-583.850	-79.831	0.393	-0.132
-582.836	537.932	0.122	-0.290
-581.821	192.267	0.062	-0.093
-580.806	-75.222	0.386	-0.138
-579.792	-35.348	0.178	0.097
-578.777	427.454	0.035	-0.076
-577.763	-172.865	-0.057	-0.002
-576.748	-51.418	-0.215	0.100
-575.733	-200.000	-0.006	0.057
-574.719	254.226	0.081	0.139
-573.704	207.037	-0.104	-0.161
-572.690	-36.230	-0.163	0.088
-571.675	800.000	0.028	0.115
-570.661	210.069	0.181	-0.284
-569.646	97.738	-0.228	-0.262
-568.631	5.086	0.125	0.092
-567.617	482.180	0.050	0.113
-566.602	-22.713	0.227	-0.137
-565.588	-45.510	0.115	0.057
-564.573	203.670	-0.086	0.133
-563.558	-200.000	-0.021	-0.222
-562.544	-200.000	-0.008	0.063
-561.529	-77.832	0.173	-0.060
-560.515	-100.234	0.073	-0.018
-559.500	11.330	-0.030	-0.023
-558.485	113.578	-0.212	0.257
-557.471	337.826	0.077	-0.151
-556.456	34.261	0.027	-0.024
-555.442	-187.606	-0.235	0.003
-554.427	-107.603	0.403	-0.088
-553.412	29.110	-0.228	-0.193
-552.398	185.240	0.068	-0.100
-551.383	-56.698	-0.324	0.143
-550.369	-130.998	-0.151	0.020
-549.354	800.000	0.004	0.016
-548.339	66.583	0.093	-0.095
-547.325	310.592	0.061	0.114
-546.310	-151.800	0.273	-0.020
-545.296	-121.203	0.153	0.026
-544.281	-200.000	0.005	-0.150
-543.266	-109.506	-0.128	0.027
-542.252	-28.140	-0.362	-0.209
-541.237	-38.421	-0.180	-0.095
-540.223	447.814	-0.196	-0.430
-539.208	-104.145	-0.318	0.074
-538.193	-120.177	0.043	0.007
-537.179	800.000	0.037	-0.131
-536.164	69.802	-0.283	-0.291
-535.150	212.740	0.265	-0.417
-534.135	800.000	-0.042	-0.160
-533.121	301.638	0.139	0.256
-532.106	-200.000	0.009	0.091
-531.091	-200.000	-0.004	-0.144
-530.077	-84.625	0.198	0.062
-529.062	-30.629	0.280	0.159
-528.048	60.891	-0.203	-0.201
-527.033	-90.425	-0.125	0.036
-526.018	-41.989	-0.079	-0.041
-525.004	-200.000	-0.030	-0.401
-523.989	32.046	-0.135	0.116
-522.975	26.681	-0.152	0.127
-521.960	800.000	-0.016	-0.055
-520.945	-62.010	0.090	-0.038
-519.931	-200.000	0.025	0.123
-518.916	-200.000	0.007	-0.121
-517.902	-91.803	0.128	0.036
-516.887	-200.000	-0.009	-0.234
-515.872	-200.000	-0.007	-0.280
-514.858	161.632	0.065	0.090
-513.843	732.324	0.038	-0.103
-512.829	-138.200	-0.283	-0.031
-511.814	-114.292	0.137	-0.026
-510.799	-200.000	0.044	0.436
-509.785	61.161	0.074	0.074
-508.770	800.000	0.056	0.204
-507.756	-168.266	-0.320	0.012
-506.741	8.610	0.236	0.177
-505.726	-182.781	0.281	0.005
-504.712	-103.176	0.126	-0.030
-503.697	-81.572	-0.149	0.049
-502.683	531.932	0.105	0.248
-501.668	-88.151	0.295	0.088
-500.653	-65.964	-0.107	-0.043
-499.639	322.579	-0.030	-0.057
-498.624	-105.234	0.101	0.023
-497.610	83.940	-0.057	-0.062
-496.595	384.217	-0.102	-0.210
-495.581	-115.265	-0.214	0.040
-494.566	-30.937	0.249	-0.140
-493.551	-135.197	-0.243	-0.029
-492.537	-65.690	-0.215	-0.086
-491.522	304.166	0.084	0.155
-490.508	-61.723	-0.312	0.130
-489.493	-140.988	0.210	0.022
-488.478	54.187	-0.034	0.032
-487.464	-12.829	0.205	-0.133
-486.449	-200.000	0.093	0.447
-485.435	-16.815	-0.015	-0.010
-484.420	-200.000	0.002	0.027
-483.405	618.501	-0.057	-0.142
-482.391	-42.382	-0.143	0.073
-481.376	-200.000	-0.002	0.328
-480.362	-123.639	-0.447	0.071
-479.347	-56.128	0.178	-0.079
-478.332	288.705	0.148	0.268
-477.318	-71.245	0.235	-0.088
-476.303	-200.000	0.086	0.476
-475.289	800.000	0.065	-0.216
-474.274	40.146	-0.167	0.150
-473.259	42.865	0.179	-0.163
-472.245	102.537	-0.154	-0.179
-471.230	222.225	-0.036	0.057
-470.216	-144.591	0.110	0.010
-469.201	75.908	0.214	-0.225
-468.186	-192.757	-0.081	0.001
-467.172	-35.315	-0.260	-0.141
-466.157	-179.237	0.275	-0.006
-465.143	-200.000	-0.004	0.162
-464.128	4.386	-0.095	0.070
-463.113	800.000	0.011	-0.033
-462.099	-200.000	-0.008	-0.167
-461.084	-200.000	-0.005	0.000
-460.070	-14.376	0.306	0.196
-459.055	-200.000	0.010	0.104
-458.040	561.834	-0.130	0.313
-457.026	-200.000	-0.003	0.160
-456.011	800.000	0.062	-0.199
-454.997	-200.000	0.006	0.078
-453.982	-60.404	0.121	0.051
-452.968	800.000	-0.068	-0.286
-451.953	13.850	-0.168	0.130
-450.938	728.303	-0.118	0.314
-449.924	-6.532	-0.171	0.116
-448.909	-200.000	0.006	-0.333
-447.895	-53.150	0.066	0.030
-446.880	59.211	-0.146	0.143
-445.865	190.897	-0.039	0.058
-444.851	-55.023	-0.147	0.066
-443.836	130.896	0.140	0.179
-442.822	297.992	0.137	0.250
-441.807	57.777	-0.080	0.078
-440.792	-131.342	-0.160	-0.021
-439.778	-37.585	-0.128	0.068
-438.763	-125.187	0.299	0.046
-437.749	-200.000	-0.026	-0.116
-436.734	800.000	0.040	-0.141
-435.719	-119.954	0.459	-0.078
-434.705	428.912	-0.150	-0.324
-433.690	44.198	0.180	-0.165
-432.676	-200.000	0.009	0.224
-431.661	43.117	-0.221	-0.201
-430.646	-145.038	0.264	0.024
-429.632	-29.463	-0.031	0.018
-428.617	-126.538	0.177	-0.026
-427.603	-200.000	-0.031	0.583
-426.588	-107.774	-0.174	-0.038
-425.573	66.711	-0.144	-0.146
-424.559	-200.000	-0.079	0.369
-423.544	-110.206	0.044	0.009
-422.530	-44.871	-0.216	0.107
-421.515	59.405	0.126	-0.123
-420.500	800.000	-0.048	-0.185
-419.486	208.225	0.128	-0.200
-418.471	91.197	-0.295	0.330
-417.457	233.898	-0.163	0.267
-416.442	-200.000	-0.005	0.217
-415.428	150.727	-0.173	0.234
-414.413	-43.823	-0.167	-0.083
-413.398	263.012	-0.028	-0.049
-412.384	-11.601	0.103	0.067
-411.369	-30.548	0.129	0.073
-410.355	47.488	-0.216	-0.200
-409.340	82.379	-0.039	-0.042
-408.325	24.416	0.161	-0.133
-407.311	32.444	0.077	-0.066
-406.296	-170.259	0.105	-0.004
-405.282	-140.580	0.204	-0.021
-404.267	255.871	-0.158	0.270
-403.252	34.661	0.069	0.060
-402.238	15.741	-0.300	-0.234
-401.223	-150.338	-0.256	0.020
-400.209	800.000	-0.020	0.069
-399.194	-200.000	-0.004	-0.275
-398.179	-135.139	-0.366	-0.044
-397.165	-55.635	-0.283	-0.126
-396.150	-200.000	-0.052	0.271
-395.136	-200.000	0.016	-0.072
-394.121	-10.120	0.172	-0.114
-393.106	-11.913	-0.202	-0.132
-392.092	-200.000	-0.009	0.203
-391.077	-101.415	0.542	0.131
-390.063	100.305	-0.151	-0.174
-389.048	-166.557	-0.290	0.012
-388.033	-70.589	-0.035	0.013
-387.019	-74.839	-0.485	0.173
-386.004	800.000	0.038	-0.144
-384.990	-7.649	0.355	0.238
-383.975	227.938	-0.065	-0.105
-382.960	-45.626	0.442	0.217
-381.946	-50.604	0.108	-0.051
-380.931	16.597	-0.135	0.106
-379.917	40.785	-0.071	-0.063
-378.902	800.000	0.092	0.287
-377.888	800.000	0.025	0.100
-376.873	-118.482	0.043	0.008
-375.858	-31.744	0.159	-0.089
-374.844	-116.174	-0.146	0.027
-373.829	-200.000	0.035	0.206
-372.815	-32.299	-0.223	-0.123
-371.800	144.591	0.169	0.224
-370.785	74.725	0.097	-0.101
-369.771	30.584	0.264	0.224
-368.756	-200.000	0.021	0.092
-367.742	79.338	0.283	0.302
-366.727	33.162	-0.260	0.224
-365.712	-83.170	-0.153	-0.049
-364.698	118.742	-0.122	-0.150
-363.683	-67.234	-0.220	0.086
-362.669	-130.529	0.096	0.013
-361.654	-98.583	0.176	-0.045
-360.639	94.041	-0.131	-0.147
-359.625	-200.000	-0.053	0.256
-358.610	-50.503	0.336	-0.157
-357.596	-100.940	-0.299	-0.073
-356.581	-34.214	0.113	-0.061
-355.566	800.000	0.135	-0.460
-354.552	-0.305	-0.282	-0.199
-353.537	-122.664	0.103	0.017
-352.523	-200.000	0.070	-0.434
-351.508	44.803	-0.045	0.041
-350.493	42.982	-0.191	-0.173
-349.479	64.092	-0.181	-0.180
-348.464	-200.000	0.029	-0.305
-347.450	-6.392	-0.139	0.094
-346.435	-200.000	-0.016	-0.136
-345.420	220.489	0.162	0.257
-344.406	-35.658	0.230	0.124
-343.391	-200.000	0.002	-0.347
-342.377	-200.000	0.008	0.137
-341.362	-172.120	0.064	-0.002
-340.348	581.668	-0.057	-0.138
-339.333	-71.612	0.270	0.100
-338.318	-119.036	0.246	0.043
-337.304	-200.000	0.028	0.383
-336.289	-55.280	0.184	0.082
-335.275	-141.674	-0.230	-0.023
-334.260	-32.276	0.198	-0.110
-333.245	-200.000	0.043	0.273
-332.231	3.280	-0.272	-0.196
-331.216	-181.174	-0.481	-0.009
-330.202	-80.749	0.235	-0.077
-329.187	19.235	0.090	-0.072
-328.172	17.542	-0.187	0.148
-327.158	-200.000	-0.027	-0.134
-326.143	-147.636	-0.183	0.015
-325.129	303.765	-0.073	0.134
-324.114	-200.000	0.019	-0.146
-323.099	606.790	-0.125	0.309
-322.085	263.683	-0.111	0.191
-321.070	800.000	0.046	-0.197
-320.056	800.000	0.016	0.054
-319.041	-8.136	-0.020	0.013
-318.026	210.318	0.125	-0.195
-317.012	-13.047	-0.096	0.062
-315.997	136.438	-0.074	-0.096
-314.983	-200.000	0.000	-0.223
-313.968	220.114	-0.215	0.342
-312.953	-12.609	-0.239	-0.155
-311.939	5.372	-0.300	0.219
-310.924	-101.890	-0.328	0.079
-309.910	-57.221	0.161	-0.070
-308.895	-119.444	0.089	-0.015
-307.880	-200.000	0.016	-0.134
-306.866	-24.459	0.076	0.045
-305.851	-42.782	-0.019	0.009
-304.837	225.534	0.216	-0.347
-303.822	-200.000	-0.006	0.128
-302.807	55.325	0.128	-0.123
-301.793	98.131	-0.174	-0.198
-300.778	800.000	-0.032	-0.129
-299.764	-137.337	-0.287	-0.032
-298.749	800.000	0.059	0.201
-297.735	455.897	0.085	0.187
-296.720	-200.000	0.018	-0.197
-295.705	-200.000	-0.008	0.081
-294.691	-97.020	-0.235	-0.061
-293.676	800.000	0.066	-0.191
-292.662	250.566	-0.159	0.267
-291.647	173.679	-0.138	-0.197
-290.632	56.628	0.246	0.237
-289.618	-129.354	-0.176	0.024
-288.603	-34.464	0.250	-0.136
-287.589	-52.885	0.214	-0.097
-286.574	-200.000	-0.006	-0.273
-285.559	600.425	0.064	0.157
-284.545	107.545	0.253	0.298
-283.530	-200.000	0.036	0.240
-282.516	95.448	-0.165	0.186
-281.501	-116.913	-0.268	-0.048
-280.486	-142.759	0.163	0.016
-279.472	148.289	0.254	-0.339
-278.457	190.625	0.057	0.085
-277.443	-200.000	-0.013	-0.121
-276.428	52.512	0.272	0.257
-275.413	138.030	0.102	-0.132
-274.399	122.493	0.124	-0.153
-273.384	-35.404	0.254	0.136
-272.370	-64.797	0.293	0.117
-271.355	-52.842	0.215	0.098
-270.340	-87.525	0.072	-0.021
-269.326	-4.303	0.106	-0.072
-268.311	-200.000	-0.056	0.518
-267.297	800.000	-0.013	-0.048
-266.282	-119.656	-0.105	-0.018
-265.267	-32.402	0.275	0.152
-264.253	800.000	0.054	-0.218
-263.238	-23.357	-0.194	0.116
-262.224	-99.031	-0.391	0.098
-261.209	22.500	-0.373	0.301
-260.195	-84.243	0.172	0.054
-259.180	800.000	0.103	0.297
-258.165	-151.794	0.196	-0.014
-257.151	20.910	-0.212	0.170
-256.136	623.522	-0.097	0.241
-255.122	-111.776	0.165	0.033
-254.107	109.288	0.246	-0.291
-253.092	-77.521	-0.318	-0.109
-252.078	-200.000	0.023	0.214
-251.063	-99.893	0.144	0.036
-250.049	107.805	0.012	-0.014
-249.034	92.210	-0.295	0.328
-248.019	433.483	0.097	-0.208
-247.005	129.931	-0.293	-0.370
-245.990	110.066	0.202	0.239
-244.976	9.925	-0.123	-0.093
-243.961	-200.000	-0.058	0.252
-242.946	46.470	-0.046	0.042
-241.932	-104.934	0.126	-0.029
-240.917	125.736	-0.174	0.218
-239.903	-200.000	-0.020	-0.316
-238.888	0.917	-0.122	0.087
-237.873	-48.563	0.079	-0.038
-236.859	-148.199	0.293	0.024
-235.844	79.381	-0.301	-0.318
-234.830	-107.716	0.048	-0.010
-233.815	-77.497	0.147	-0.050
-232.800	36.151	-0.136	0.118
-231.786	-200.000	0.023	0.210
-230.771	83.273	-0.172	0.184
-229.757	19.937	0.093	-0.074
-228.742	-52.104	0.239	-0.110
-227.727	313.386	-0.028	-0.052
-226.713	253.569	-0.131	0.222
-225.698	-63.944	0.248	-0.100
-224.684	-199.164	-0.392	0.002
-223.669	-117.043	0.326	-0.059
-222.655	578.712	0.153	-0.370
-221.640	202.899	-0.104	0.158
-220.625	-1.537	-0.181	-0.126
-219.611	465.942	-0.137	-0.302
-218.596	89.389	0.074	-0.082
-217.582	-200.000	0.089	0.406
-216.567	484.486	0.062	-0.139
-215.552	800.000	-0.011	0.031
-214.538	-200.000	-0.040	0.215
-213.523	800.000	0.098	-0.309
-212.509	218.956	0.092	0.145
-211.494	16.281	-0.105	-0.082
-210.479	20.928	-0.390	-0.312
-209.465	-114.234	0.361	-0.069
-208.450	-33.708	0.274	-0.149
-207.436	800.000	0.016	-0.049
-206.421	243.413	0.170	0.281
-205.406	-59.052	-0.162	-0.069
-204.392	191.648	0.260	-0.386
-203.377	-32.009	0.131	0.072
-202.363	330.270	0.066	0.124
-201.348	800.000	-0.054	-0.167
-200.333	-129.432	-0.147	0.020
-199.319	21.034	-0.077	0.062
-198.304	-21.002	0.129	0.078
-197.290	-200.000	0.042	0.334
-196.275	-200.000	0.000	-0.030
-195.260	701.963	0.076	0.196
-194.246	-145.710	-0.278	0.024
-193.231	-27.091	0.361	-0.207
-192.217	-124.223	0.289	-0.045
-191.202	800.000	0.170	0.482
-190.187	-5.431	-0.117	0.079
-189.173	-69.731	-0.182	0.069
-188.158	136.724	-0.087	-0.112
-187.144	-119.923	0.398	-0.067
-186.129	143.634	-0.069	0.091
-185.114	800.000	0.049	0.189
-184.100	233.714	0.187	-0.304
-183.085	-49.235	-0.216	0.102
-182.071	-200.000	-0.029	-0.268
-181.056	88.058	-0.073	0.080
-180.042	60.225	0.185	0.181
-179.027	9.758	-0.145	-0.109
-178.012	-144.197	0.564	-0.052
-176.998	19.954	-0.231	0.183
-175.983	327.210	0.156	0.294
-174.969	-12.659	0.406	-0.261
-173.954	315.157	-0.057	0.106
-172.939	-36.074	0.109	-0.058
-171.925	493.538	-0.083	0.187
-170.910	84.531	-0.079	0.085
-169.896	-200.000	-0.014	0.076
-168.881	-85.440	-0.243	0.075
-167.866	279.547	0.151	0.266
-166.852	-122.329	-0.208	0.033
-165.837	-200.000	-0.011	0.376
-164.823	800.000	-0.052	0.197
-163.808	316.351	0.064	-0.119
-162.793	-24.312	-0.131	-0.077
-161.779	-164.102	0.706	0.032
-160.764	-46.919	0.243	-0.117
-159.750	-59.631	0.159	-0.067
-158.735	6.704	-0.159	0.116
-157.720	252.764	-0.154	-0.258
-156.706	151.135	0.179	-0.240
-155.691	81.468	-0.205	0.218
-154.677	140.371	0.383	0.498
-153.662	-41.064	0.178	-0.090
-152.647	-184.080	-0.116	-0.002
-151.633	218.497	-0.036	0.056
-150.618	-12.889	0.258	-0.165
-149.604	94.181	0.098	-0.109
-148.589	17.604	0.072	0.056
-147.574	-35.454	-0.221	0.118
-146.560	314.393	-0.049	0.091
-145.545	357.114	0.085	-0.166
-144.531	-200.000	-0.020	0.121
-143.516	-130.307	-0.118	0.016
-142.502	-120.499	-0.008	0.001
-141.487	-92.272	-0.151	0.042
-140.472	800.000	-0.064	-0.176
-139.458	554.975	0.036	-0.085
-138.443	-94.548	0.038	-0.010
-137.429	241.022	-0.067	0.110
-136.414	-90.902	0.313	0.089
-135.399	-57.778	-0.057	-0.024
-134.385	-156.745	-0.081	0.005
-133.370	-108.076	0.128	-0.027
-132.356	729.343	0.102	-0.268
-131.341	-200.000	-0.130	0.001
-130.326	776.110	-0.063	-0.169
-129.312	271.760	0.168	-0.292
-128.297	-135.612	-0.349	-0.041
-127.283	-63.342	0.115	-0.047
-126.268	-0.889	-0.093	-0.065
-125.253	-200.000	-0.028	0.213
-124.239	49.919	0.160	-0.149
-123.224	26.923	0.159	0.131
-122.210	47.316	-0.075	-0.069
-121.195	340.354	-0.015	0.029
-120.180	-200.000	-0.025	0.203
-119.166	-22.246	-0.174	0.104
-118.151	-148.050	0.180	-0.015
-117.137	-130.527	-0.133	0.018
-116.122	-200.000	0.051	0.329
-115.107	-200.000	0.029	-0.231
-114.093	62.706	-0.347	0.341
-113.078	-148.591	-0.091	0.007
-112.064	-200.000	0.025	0.147
-111.049	13.548	-0.051	0.039
-110.034	-200.000	0.053	-0.415
-109.020	-200.000	0.008	-0.068
-108.005	16.054	0.237	-0.183
-106.991	27.909	-0.129	0.107
-105.976	429.777	-0.077	0.164
-104.962	83.403	0.072	0.077
-103.947	5.310	0.152	-0.110
-102.932	-94.024	-0.173	0.047
-101.918	72.607	0.058	0.059
-100.903	53.525	0.110	0.104
-99.889	800.000	0.069	-0.274
-98.874	108.063	-0.065	0.076
-97.859	209.713	-0.202	0.311
-96.845	118.928	0.361	-0.438
-95.830	-200.000	0.011	-0.107
-94.816	76.672	0.089	0.093
-93.801	-200.000	0.007	-0.228
-92.786	56.442	-0.121	-0.116
-91.772	-200.000	0.010	0.295
-90.757	154.270	0.129	-0.173
-89.743	-1.328	-0.151	0.105
-88.728	-142.880	-0.243	-0.023
-87.713	-115.227	-0.394	0.073
-86.699	800.000	0.095	-0.317
-85.684	659.047	0.092	-0.234
-84.670	800.000	0.004	0.012
-83.655	800.000	0.120	0.383
-82.640	-200.000	-0.002	0.274
-81.626	25.637	-0.377	-0.308
-80.611	-200.000	0.016	0.109
-79.597	-80.075	0.189	0.062
-78.582	-24.471	0.063	0.037
-77.567	-78.422	0.327	0.110
-76.553	16.949	0.110	0.086
-75.538	-125.308	-0.347	0.052
-74.524	94.287	0.180	0.200
-73.509	-200.000	-0.003	0.039
-72.494	-200.000	-0.004	-0.264
-71.480	-42.260	-0.143	-0.072
-70.465	60.039	0.320	0.311
-69.451	180.014	0.191	-0.275
-68.436	13.600	-0.037	0.028
-67.422	734.823	-0.127	0.335
-66.407	-35.989	-0.146	-0.078
-65.392	-69.073	-0.539	0.204
-64.378	148.557	-0.127	-0.168
-63.363	-200.000	0.005	0.139
-62.349	-200.000	0.006	0.204
-61.334	72.325	-1.128	-1.153
-60.319	73.061	0.559	0.573
-59.305	423.717	-0.503	-1.060
-58.290	306.083	0.644	1.176
-57.276	800.000	0.541	1.586
-56.261	-200.000	107.149	594.373
-55.246	455.156	1473.444	3202.730
-54.232	149.610	2648.456	3518.062
-53.217	105.979	2162.397	2509.371
-52.203	40.062	1698.716	1496.598
-51.188	33.103	1515.466	1287.892
-50.173	30.832	1488.307	1249.542
-49.159	51.991	1544.145	1441.666
-48.144	52.355	1561.182	1460.002
-47.130	33.402	1517.398	1291.370
-46.115	30.406	1502.489	1258.367
-45.100	30.226	1499.204	1254.344
-44.086	30.108	1497.542	1252.107
-43.071	29.975	1495.061	1249.087
-42.057	29.958	1493.766	1247.840
-41.042	30.072	1492.231	1247.279
-40.027	30.111	1489.997	1245.624
-39.013	30.069	1489.058	1244.505
-37.998	30.025	1487.573	1242.923
-36.984	29.987	1486.634	1241.830
-35.969	30.110	1484.670	1240.967
-34.954	30.025	1484.054	1239.828
-33.940	30.000	1482.725	1238.504
-32.925	30.104	1481.105	1237.795
-31.911	30.124	1480.056	1237.002
-30.896	30.157	1478.464	1235.848
-29.881	30.210	1477.340	1235.212
-28.867	30.140	1475.760	1233.376
-27.852	30.145	1474.753	1232.518
-26.838	30.125	1472.990	1230.859
-25.823	30.031	1471.947	1229.319
-24.809	30.104	1470.142	1228.245
-23.794	30.084	1468.886	1227.014
-22.779	30.074	1467.533	1225.769
-21.765	30.116	1466.620	1225.234
-20.750	30.020	1465.981	1224.018
-19.736	30.049	1464.408	1222.849
-18.721	30.090	1463.241	1222.095
-17.706	30.105	1462.021	1221.127
-16.692	30.057	1461.227	1220.097
-15.677	29.972	1460.418	1218.813
-14.663	30.081	1458.874	1218.198
-13.648	30.030	1458.306	1217.335
-12.633	30.069	1457.604	1216.959
-11.619	30.018	1456.567	1215.713
-10.604	30.015	1455.689	1214.911
-9.590	30.040	1454.405	1213.951
-8.575	29.961	1454.135	1213.162
-7.560	30.046	1452.643	1212.427
-6.546	30.060	1452.216	1212.115
-5.531	30.108	1451.210	1211.537
-4.517	29.996	1450.364	1210.050
-3.502	30.067	1449.257	1209.543
-2.487	30.036	1448.265	1208.466
-1.473	29.929	1447.656	1207.215
-0.458	29.969	1445.935	1205.992
0.556	27.919	1436.257	1193.654
1.571	24.540	1410.523	1150.435
2.586	20.667	1348.092	1075.529
3.600	18.745	1265.776	998.596
4.615	17.617	1220.244	956.266
5.629	16.393	1167.764	908.478
6.644	12.617	1090.860	829.575
7.659	9.123	1055.080	785.235
8.673	8.620	1050.298	779.156
9.688	8.519	1046.864	776.050
10.702	8.393	1045.620	774.449
11.717	8.298	1043.990	772.714
12.731	9.873	1043.805	780.122
13.746	13.857	1048.982	803.239
14.761	16.999	1052.832	821.349
15.775	17.617	1052.503	824.007
16.790	16.800	1050.663	818.551
17.804	15.740	1048.199	811.446
18.819	14.919	1046.537	806.132
19.834	14.286	1045.112	801.916
20.848	13.917	1044.812	799.835
21.863	13.784	1043.611	798.208
22.877	13.462	1042.873	796.023
23.892	13.260	1042.065	794.366
24.907	13.288	1040.942	793.575
25.921	13.213	1040.488	792.799
26.936	13.301	1039.519	792.412
27.950	13.438	1038.239	792.019
28.965	13.441	1037.600	791.475
29.980	13.431	1036.206	790.297
30.994	13.451	1035.212	789.562
32.009	13.556	1034.151	789.183
33.023	13.599	1033.465	788.798
34.038	13.500	1032.448	787.481
35.053	13.518	1031.634	786.877
36.067	13.576	1030.342	786.095
37.082	13.458	1030.072	785.261
38.096	13.615	1029.001	785.117
39.111	13.492	1028.623	784.179
40.126	13.507	1027.483	783.310
41.140	13.370	1026.741	782.028
42.155	13.304	1025.512	780.712
43.169	13.153	1025.010	779.546
44.184	13.355	1023.245	779.087
45.199	13.218	1022.478	777.789
46.213	13.309	1021.143	777.131
47.228	13.315	1020.640	776.707
48.242	13.224	1019.734	775.526
49.257	13.422	1018.173	775.196
50.271	13.377	1017.705	774.561
51.286	13.477	1016.241	773.844
52.301	13.455	1015.966	773.466
53.315	13.496	1015.126	772.949
54.330	13.347	1014.333	771.583
55.344	13.406	1013.024	770.791
56.359	13.278	1012.007	769.355
57.374	13.355	1011.453	769.224
58.388	13.345	1010.852	768.649
59.403	13.376	1010.171	768.210
60.417	13.195	1009.507	766.796
61.432	13.325	1008.254	766.377
62.447	13.183	1007.903	765.385
63.461	13.203	1006.815	764.584
64.476	13.128	1005.970	763.529
65.490	13.102	1004.728	762.400
66.505	13.160	1004.178	762.183
67.520	13.109	1003.159	761.105
68.534	13.149	1003.059	761.146
69.549	13.251	1001.359	760.258
70.563	13.235	1000.931	759.791
71.578	13.234	1000.191	759.158
72.593	13.249	999.220	758.426
73.607	13.073	998.644	757.112
74.622	13.060	997.555	756.162
75.636	13.079	996.347	755.266
76.651	13.105	995.747	754.862
77.666	13.141	995.034	754.421
78.680	13.285	994.177	754.359
79.695	13.052	994.098	753.171
80.709	13.106	993.609	752.978
81.724	13.246	992.702	752.862
82.739	13.282	992.057	752.473
83.753	13.298	991.206	751.830
84.768	13.318	990.483	751.307
85.782	13.369	989.801	750.955
86.797	13.589	988.655	751.016
87.812	13.604	987.514	750.152
88.826	13.361	987.585	749.041
89.841	13.383	986.681	748.388
90.855	13.427	985.719	747.792
91.870	13.522	984.823	747.474
92.884	13.413	984.143	746.399
93.899	13.506	983.525	746.284
94.914	13.544	982.563	745.659
95.928	13.495	982.290	745.164
96.943	13.549	981.001	744.364
97.957	13.582	980.045	743.718
98.972	13.363	979.618	742.349
99.987	13.522	978.891	742.444
101.001	13.453	978.278	741.603
102.016	13.454	977.653	741.069
103.030	13.524	976.112	740.150
104.045	13.453	975.522	739.319
105.060	13.470	974.518	738.570
106.074	13.486	973.770	738.006
107.089	13.326	972.783	736.482
108.103	13.462	971.747	736.235
109.118	13.281	970.786	734.640
110.133	13.218	970.199	733.850
111.147	13.228	969.422	733.241
112.162	13.236	968.665	732.642
113.176	13.336	967.614	732.225
114.191	13.312	966.834	731.463
115.206	13.345	965.814	730.771
116.220	13.316	965.390	730.257
117.235	13.300	964.185	729.212
118.249	13.281	963.714	728.706
119.264	13.199	962.653	727.479
120.279	13.291	961.608	727.028
121.293	13.235	960.908	726.188
122.308	13.337	959.917	725.825
123.322	13.166	959.407	724.625
124.337	13.225	958.138	723.863
125.352	13.219	956.947	722.872
126.366	13.129	956.053	721.738
127.381	13.137	955.273	721.120
128.395	13.279	954.083	720.776
129.410	13.282	953.072	719.963
130.424	13.247	952.202	719.091
131.439	13.376	951.169	718.805
132.454	13.266	950.722	717.926
133.468	13.289	949.919	717.359
134.483	13.474	948.946	717.362
135.497	13.384	948.377	716.475
136.512	13.459	947.728	716.248
137.527	13.329	946.968	715.048
138.541	13.232	946.614	714.301
139.556	13.315	945.653	713.868
140.570	13.305	945.277	713.479
141.585	13.380	944.300	712.999
142.600	13.383	943.544	712.382
143.614	13.449	942.811	712.047
144.629	13.527	941.640	711.434
145.643	13.642	941.069	711.435
146.658	13.617	940.217	710.621
147.673	13.496	939.194	709.268
148.687	13.511	938.303	708.594
149.702	13.620	936.965	707.987
150.716	13.491	936.643	707.130
151.731	13.483	935.866	706.445
152.746	13.636	934.887	706.297
153.760	13.480	934.865	705.556
154.775	13.512	933.940	704.929
155.789	13.509	933.275	704.353
156.804	13.627	931.932	703.780
157.819	13.613	931.164	703.077
158.833	13.646	930.961	703.000
159.848	13.572	930.596	702.350
160.862	13.742	929.676	702.311
161.877	13.653	928.989	701.353
162.892	13.589	928.091	700.343
163.906	13.483	927.338	699.266
164.921	13.579	926.202	698.751
165.935	13.548	925.674	698.162
166.950	13.551	924.511	697.237
167.964	13.550	923.639	696.513
168.979	13.640	922.321	695.834
169.994	13.535	921.879	694.999
171.008	13.676	921.199	695.017
172.023	13.765	920.263	694.623
173.037	13.709	919.583	693.812
174.052	13.723	918.854	693.260
175.067	13.671	918.507	692.721
176.081	13.588	917.469	691.526
177.096	13.637	916.282	690.775
178.110	13.604	915.627	690.083
179.125	13.763	914.672	689.966
180.140	13.642	914.148	689.006
181.154	13.790	913.209	688.850
182.169	13.606	913.261	688.066
183.183	13.957	911.936	688.462
184.198	13.754	912.028	687.628
185.213	13.870	910.970	687.250
186.227	13.812	910.608	686.678
187.242	13.845	910.115	686.381
188.256	13.981	909.139	686.145
189.271	13.958	908.239	685.312
190.286	13.967	907.996	685.104
191.300	13.968	906.798	684.144
192.315	13.560	906.418	682.116
193.329	13.670	905.425	681.760
194.344	13.547	904.859	680.769
195.359	13.612	904.754	680.895
196.373	13.761	903.816	680.743
197.388	13.851	903.448	680.776
198.402	14.019	902.711	680.847
199.417	13.999	902.790	680.764
200.432	14.184	902.074	680.922
201.446	14.043	901.563	679.897
202.461	14.071	901.223	679.698
203.475	14.244	900.570	679.852
204.490	14.293	899.956	679.529
205.504	14.026	899.414	677.970
206.519	14.093	898.363	677.387
207.534	14.072	897.637	676.697
208.548	14.081	896.537	675.844
209.563	14.098	896.085	675.513
210.577	14.034	895.573	674.805
211.592	14.203	894.897	674.923
212.607	14.140	894.498	674.307
213.621	14.266	893.765	674.203
214.636	14.219	892.851	673.264
215.650	14.219	892.393	672.863
216.665	14.292	892.125	672.895
217.680	14.374	891.381	672.604
218.694	14.412	890.946	672.371
219.709	14.478	890.503	672.242
220.723	14.259	890.218	671.086
221.738	14.316	889.098	670.411
222.753	14.379	888.105	669.854
223.767	14.439	887.566	669.633
224.782	14.410	886.789	668.868
225.796	14.424	886.232	668.448
226.811	14.343	885.802	667.737
227.826	14.528	884.851	667.704
228.840	14.439	883.959	666.617
229.855	14.376	883.588	666.024
230.869	14.513	882.651	665.807
231.884	14.399	882.010	664.811
232.899	14.459	881.399	664.529
233.913	14.425	880.582	663.719
234.928	14.364	880.040	663.011
235.942	14.387	879.573	662.688
236.957	14.535	878.443	662.366
237.972	14.262	877.956	660.856
238.986	14.438	876.921	660.718
240.001	14.310	876.691	659.981
241.015	14.517	875.941	660.175
242.030	14.524	875.226	659.607
243.045	14.525	874.558	659.049
244.059	14.568	874.126	658.834
245.074	14.551	873.470	658.213
246.088	14.702	872.774	658.228
247.103	14.595	872.746	657.727
248.117	14.727	871.902	657.550
249.132	14.671	871.170	656.721
250.147	14.916	870.723	657.290
251.161	14.833	870.342	656.616
252.176	14.951	869.278	656.218
253.190	14.776	869.200	655.414
254.205	14.915	867.952	654.960
255.220	15.023	867.606	655.066
256.234	15.007	866.612	654.194
257.249	14.978	866.352	653.825
258.263	15.053	865.944	653.753
259.278	15.005	865.103	652.874
260.293	15.067	864.683	652.739
261.307	15.071	864.239	652.362
262.322	14.948	863.923	651.587
263.336	15.181	863.025	651.760
264.351	15.097	862.270	650.804
265.366	15.221	861.723	650.816
266.380	15.192	861.317	650.341
267.395	15.125	860.503	649.407
268.409	15.143	859.479	648.647
269.424	15.122	859.110	648.230
270.439	15.151	858.470	647.803
271.453	15.188	857.825	647.402
272.468	15.085	856.841	646.205
273.482	15.059	856.718	645.951
274.497	15.166	855.657	645.508
275.512	15.102	854.793	644.553
276.526	15.169	854.294	644.378
277.541	15.210	853.939	644.211
278.555	15.223	852.996	643.494
279.570	15.170	852.839	643.112
280.585	15.430	851.991	643.413
281.599	15.319	851.804	642.791
282.614	15.386	850.723	642.172
283.628	15.255	850.461	641.417
284.643	15.171	850.420	641.008
285.657	15.330	849.312	640.726
286.672	15.302	849.073	640.382
287.687	15.268	848.293	639.607
288.701	15.203	847.843	638.962
289.716	15.387	847.204	639.125
290.730	15.433	846.474	638.693
291.745	15.408	846.005	638.187
292.760	15.504	845.353	638.003
293.774	15.498	844.944	637.614
294.789	15.478	844.294	636.994
295.803	15.558	843.992	637.012
296.818	15.437	842.901	635.673
297.833	15.628	842.414	635.973
298.847	15.589	841.706	635.237
299.862	15.569	841.127	634.667
300.876	15.606	840.305	634.131
301.891	15.594	839.649	633.535
302.906	15.702	838.865	633.293
303.920	15.689	838.551	632.951
304.935	15.626	838.106	632.323
305.949	15.796	837.117	632.159
306.964	15.791	836.483	631.604
307.979	15.761	836.391	631.366
308.993	15.781	835.935	631.043
310.008	15.763	835.144	630.320
311.022	15.871	834.585	630.247
312.037	15.689	834.435	629.399
313.052	15.819	833.721	629.290
314.066	15.654	832.832	627.947
315.081	15.681	832.292	627.584
316.095	15.735	831.762	627.332
317.110	15.653	831.497	626.769
318.125	15.794	830.842	626.746
319.139	15.596	830.682	625.832
320.154	15.711	829.839	625.568
321.168	15.655	829.572	625.105
322.183	15.980	828.443	625.406
323.197	15.856	828.397	624.855
324.212	15.883	827.756	624.415
325.227	15.870	827.012	623.750
326.241	15.782	826.610	623.067
327.256	15.881	826.308	623.151
328.270	15.764	825.211	621.838
329.285	15.937	824.648	621.995
330.300	15.942	824.058	621.514
331.314	15.872	823.260	620.598
332.329	15.915	823.371	620.788
333.343	15.824	822.528	619.759
334.358	16.047	821.831	620.001
335.373	16.082	821.421	619.767
336.387	16.142	821.077	619.673
337.402	16.127	820.181	618.885
338.416	16.197	820.007	618.956
339.431	16.003	819.516	617.821
340.446	16.217	818.604	617.861
341.460	16.294	818.121	617.723
342.475	16.286	818.076	617.607
343.489	16.223	817.313	616.747
344.504	16.313	816.682	616.545
345.519	16.421	816.177	616.503
346.533	16.291	815.819	615.701
347.548	16.277	815.610	615.439
348.562	16.340	814.719	614.941
349.577	16.130	814.224	613.750
350.592	16.357	813.487	613.966
351.606	16.291	813.101	613.378
352.621	16.170	812.824	612.676
353.635	16.160	812.486	612.333
354.650	16.287	811.793	612.216
355.665	16.285	811.543	611.967
356.679	16.367	811.254	611.989
357.694	16.285	810.864	611.347
358.708	16.564	809.802	611.501
359.723	16.474	809.050	610.553
360.738	16.291	808.810	609.655
361.752	16.509	808.148	609.890
362.767	16.213	808.182	608.795
363.781	16.495	807.495	609.240
364.796	16.647	806.906	609.287
365.810	16.574	806.462	608.638
366.825	16.652	806.493	608.886
367.840	16.789	805.973	608.933
368.854	16.750	805.412	608.315
369.869	16.609	805.133	607.543
370.883	16.595	804.671	607.093
371.898	16.483	804.016	606.142
372.913	16.738	803.355	606.503
373.927	16.873	802.512	606.297
374.942	16.771	802.161	605.611
375.956	16.790	801.261	604.949
376.971	16.957	800.979	605.278
377.986	16.930	800.486	604.755
379.000	16.987	799.720	604.326
380.015	16.931	799.628	604.003
381.029	17.016	799.050	603.814
382.044	17.089	797.963	603.199
383.059	16.987	798.053	602.852
384.073	16.917	797.665	602.256
385.088	16.898	796.933	601.585
386.102	16.871	795.985	600.718
387.117	16.918	795.472	600.444
388.132	16.794	795.232	599.774
389.146	16.902	795.124	600.020
390.161	16.868	794.718	599.540
391.175	16.858	794.143	599.017
392.190	16.945	793.940	599.120
393.205	17.059	793.234	598.936
394.219	17.038	792.936	598.582
395.234	17.052	792.449	598.212
396.248	16.939	791.969	597.400
397.263	16.845	791.267	596.485
398.278	16.813	790.872	596.023
399.292	16.827	790.437	595.692
400.307	16.972	790.172	595.949
401.321	16.903	789.673	595.276
402.336	16.988	789.355	595.284
403.350	16.902	789.080	594.722
404.365	16.914	788.515	594.285
405.380	17.096	788.003	594.484
406.394	17.285	787.421	594.654
407.409	17.181	786.965	593.894
408.423	17.287	786.623	593.952
409.438	17.317	786.180	593.671
410.453	17.316	786.160	593.599
411.467	17.150	785.391	592.388
412.482	17.231	785.205	592.477
413.496	17.429	784.655	592.697
414.511	17.547	784.217	592.725
415.526	17.569	783.379	592.117
416.540	17.421	783.482	591.627
417.555	17.500	782.844	591.366
418.569	17.356	782.599	590.630
419.584	17.232	782.136	589.800
420.599	17.536	781.492	590.315
421.613	109.646	1290.795	1470.176
422.628	93.872	1364.977	1470.289
