DTS Sentinel unit serial number:	SN413079Multiplexer serial number:	ORYXHardware model number:	OX4-SRSoftware version number:	ORYX F/W v4.00 Oryx Data Collector v3.7.2.0data status	okinstallation	princeton_trtdifferential loss correction	single-endedforward channel	channel 3reverse channel	N/Adate	2019/09/16time	08:24:35forward acquisition time	60.00reverse acquisition time	0.00gamma	496.2192k internal	0.2325k external	0.2325temperature offset calibration	0.9953default loss term (dB/km)	0.3790temperature slope calibration	1.0000multiplexer offset coefficient	1.0000multiplexer slope coefficient	1.0000fibre end	0.00T internal ref (°C)	29.12T ext. ref 1 (°C)	11.88T ext. ref 2 (°C)	25.57length (m)	temperature (°C)	Stokes	anti-Stokes-747.200	-14.406	0.258	0.168
-746.185	-131.897	-0.356	0.047
-745.171	-24.665	-0.156	0.094
-744.156	-62.426	0.268	0.113
-743.142	-33.055	-0.138	-0.077
-742.127	-200.000	-0.079	0.469
-741.112	440.393	0.089	0.197
-740.098	520.464	-0.173	0.409
-739.083	-50.238	-0.246	0.117
-738.069	-67.165	-0.107	-0.042
-737.054	-36.700	-0.115	-0.062
-736.039	-200.000	0.022	0.171
-735.025	38.784	0.111	0.100
-734.010	-137.252	-0.282	0.032
-732.996	-200.000	0.029	-0.249
-731.981	-100.331	-0.227	0.057
-730.966	-116.490	0.334	-0.062
-729.952	-200.000	-0.014	-0.173
-728.937	800.000	-0.095	0.387
-727.923	152.472	0.197	0.272
-726.908	538.514	-0.071	0.169
-725.894	-29.072	0.160	0.093
-724.879	-200.000	0.009	0.293
-723.864	-97.491	0.446	0.117
-722.850	275.537	-0.130	0.232
-721.835	634.082	-0.048	-0.124
-720.821	219.175	-0.063	0.101
-719.806	187.624	-0.272	-0.409
-718.791	525.528	-0.014	0.034
-717.777	-61.294	-0.167	-0.071
-716.762	11.618	-0.330	-0.255
-715.748	-80.253	0.060	0.020
-714.733	-58.905	-0.446	0.194
-713.718	272.305	0.098	-0.175
-712.704	-69.660	0.036	0.014
-711.689	1.662	-0.239	-0.174
-710.675	-200.000	0.002	-0.016
-709.660	190.316	0.005	-0.007
-708.645	12.934	-0.155	0.120
-707.631	-110.460	-0.171	-0.036
-706.616	-130.589	-0.139	-0.019
-705.602	-200.000	0.011	0.156
-704.587	101.178	-0.084	-0.098
-703.572	-154.166	-0.168	0.011
-702.558	-33.244	0.126	-0.070
-701.543	-83.272	-0.415	0.134
-700.529	800.000	-0.020	-0.072
-699.514	297.735	0.175	-0.323
-698.499	137.932	0.144	-0.190
-697.485	355.379	0.120	-0.241
-696.470	247.109	0.124	-0.210
-695.456	-14.240	-0.077	-0.050
-694.441	-20.977	0.184	-0.114
-693.426	-138.345	-0.116	0.013
-692.412	91.836	-0.274	-0.310
-691.397	297.256	-0.023	-0.042
-690.383	-115.212	0.117	0.022
-689.368	-200.000	-0.021	-0.388
-688.354	-46.040	0.247	-0.123
-687.339	-120.125	-0.169	0.029
-686.324	76.204	-0.087	-0.092
-685.310	-200.000	0.047	-0.409
-684.295	-38.146	-0.265	-0.141
-683.281	-73.976	0.339	-0.124
-682.266	322.990	-0.180	-0.346
-681.251	-34.492	-0.244	0.135
-680.237	140.357	0.120	-0.160
-679.222	605.347	-0.084	-0.211
-678.208	-94.051	-0.293	-0.081
-677.193	-84.431	0.253	0.081
-676.178	-129.604	0.195	-0.027
-675.164	-125.186	-0.351	0.054
-674.149	139.882	0.063	0.083
-673.135	800.000	-0.088	0.308
-672.120	329.367	-0.048	0.093
-671.105	-132.643	-0.327	-0.042
-670.091	-200.000	0.070	-0.318
-669.076	29.278	0.113	0.096
-668.062	-200.000	-0.024	-0.260
-667.047	-200.000	-0.023	0.145
-666.032	14.518	0.151	0.119
-665.018	72.433	0.173	-0.181
-664.003	-200.000	0.012	-0.146
-662.989	138.022	-0.068	0.089
-661.974	-159.296	-0.246	-0.014
-660.959	129.376	-0.181	-0.233
-659.945	52.822	-0.193	0.186
-658.930	800.000	0.088	0.338
-657.916	44.822	0.108	-0.100
-656.901	-104.231	0.235	0.055
-655.886	38.947	0.129	-0.116
-654.872	-54.081	0.194	0.089
-653.857	800.000	-0.014	-0.050
-652.843	146.191	0.188	0.254
-651.828	-180.957	-0.098	0.002
-650.814	169.018	-0.186	-0.266
-649.799	-32.290	-0.211	0.119
-648.784	104.673	0.202	-0.240
-647.770	-114.124	0.219	0.043
-646.755	-200.000	-0.028	-0.131
-645.741	-61.928	0.371	0.156
-644.726	-200.000	0.010	-0.137
-643.711	-38.123	-0.245	0.130
-642.697	-91.101	0.376	0.109
-641.682	-1.450	-0.251	-0.178
-640.668	303.556	-0.090	0.167
-639.653	800.000	0.063	-0.266
-638.638	-104.608	0.272	-0.063
-637.624	38.758	0.078	-0.070
-636.609	-93.049	0.103	-0.029
-635.595	-200.000	0.044	0.280
-634.580	-191.821	-0.301	-0.003
-633.565	-200.000	0.037	-0.285
-632.551	-200.000	-0.099	-0.450
-631.536	-189.440	0.261	-0.003
-630.522	536.878	-0.085	-0.203
-629.507	-88.672	0.264	-0.079
-628.492	16.585	-0.135	-0.107
-627.478	-118.639	-0.263	-0.047
-626.463	-131.554	-0.082	-0.011
-625.449	25.538	0.214	0.179
-624.434	-200.000	0.025	0.254
-623.419	-200.000	0.005	0.350
-622.405	131.554	-0.071	-0.092
-621.390	-162.467	0.348	-0.017
-620.376	800.000	-0.083	-0.282
-619.361	25.045	-0.196	-0.164
-618.346	482.837	0.177	-0.404
-617.332	800.000	0.024	0.071
-616.317	58.477	0.144	0.142
-615.303	800.000	-0.069	-0.301
-614.288	296.179	0.140	0.257
-613.273	-42.563	-0.081	0.042
-612.259	800.000	-0.126	0.388
-611.244	-50.563	-0.147	-0.070
-610.230	-41.920	0.194	-0.100
-609.215	-65.588	0.320	0.129
-608.201	-19.026	-0.121	-0.076
-607.186	-200.000	0.044	-0.419
-606.171	-99.268	0.201	-0.051
-605.157	800.000	0.032	-0.108
-604.142	-132.224	-0.265	0.034
-603.128	-19.630	-0.149	-0.093
-602.113	-200.000	-0.036	-0.339
-601.098	777.131	0.114	0.313
-600.084	-200.000	0.022	0.100
-599.069	-57.569	0.182	-0.080
-598.055	-53.095	0.166	0.077
-597.040	2.250	-0.146	0.106
-596.025	-42.053	-0.090	0.046
-595.011	-30.680	0.211	0.120
-593.996	-200.000	0.008	-0.072
-592.982	-3.534	0.189	0.132
-591.967	10.915	0.151	0.116
-590.952	61.838	0.197	-0.197
-589.938	126.576	-0.185	0.236
-588.923	800.000	-0.117	0.339
-587.909	340.108	0.081	-0.159
-586.894	-115.220	0.242	0.046
-585.879	-98.455	0.071	-0.018
-584.865	105.980	-0.113	0.134
-583.850	-200.000	0.046	-0.305
-582.836	-12.488	-0.118	-0.077
-581.821	38.879	-0.341	-0.305
-580.806	800.000	0.029	-0.097
-579.792	800.000	-0.036	0.105
-578.777	-68.301	0.040	0.015
-577.763	30.663	-0.320	-0.275
-576.748	51.963	0.201	0.192
-575.733	107.422	-0.074	-0.088
-574.719	130.203	0.099	-0.128
-573.704	-200.000	0.007	-0.180
-572.690	-200.000	-0.034	-0.316
-571.675	-37.588	-0.170	0.091
-570.661	323.795	0.091	-0.175
-569.646	-55.650	-0.125	0.056
-568.631	190.277	-0.118	0.177
-567.617	374.613	0.203	0.415
-566.602	101.328	-0.025	-0.029
-565.588	197.954	-0.055	0.084
-564.573	-92.904	0.140	-0.039
-563.558	-65.319	-0.264	0.107
-562.544	508.410	-0.160	0.372
-561.529	-200.000	-0.023	0.213
-560.515	-28.541	-0.067	0.038
-559.500	67.130	-0.318	0.325
-558.485	293.083	-0.206	0.377
-557.471	159.337	-0.101	0.141
-556.456	15.508	0.173	-0.136
-555.442	218.652	-0.222	-0.356
-554.427	-60.957	0.069	0.029
-553.412	-120.284	0.230	0.039
-552.398	-170.291	0.154	-0.005
-551.383	263.699	-0.141	-0.246
-550.369	-200.000	0.026	-0.186
-549.354	-39.929	-0.106	0.056
-548.339	-97.265	0.066	-0.017
-547.325	-200.000	-0.041	-0.180
-546.310	-191.529	-0.335	-0.003
-545.296	-69.717	-0.288	0.110
-544.281	-117.799	-0.299	-0.054
-543.266	81.333	0.179	-0.193
-542.252	-200.000	-0.043	-0.265
-541.237	-135.603	0.283	-0.034
-540.223	519.759	-0.073	0.171
-539.208	-200.000	0.006	0.242
-538.193	-45.991	0.116	0.057
-537.179	-200.000	-0.025	-0.157
-536.164	-95.119	-0.198	-0.054
-535.150	484.276	-0.057	0.130
-534.135	-200.000	0.015	-0.145
-533.121	84.989	0.203	0.223
-532.106	-200.000	0.015	0.384
-531.091	204.183	-0.074	-0.114
-530.077	284.760	-0.061	-0.110
-529.062	86.551	0.093	0.102
-528.048	451.140	0.072	-0.160
-527.033	800.000	0.024	-0.091
-526.018	207.339	-0.161	0.252
-525.004	31.962	0.111	-0.096
-523.989	-23.663	0.094	0.057
-522.975	-200.000	-0.015	0.201
-521.960	800.000	-0.142	0.438
-520.945	-10.119	-0.159	0.106
-519.931	98.339	-0.167	0.192
-518.916	800.000	-0.037	0.153
-517.902	-200.000	-0.061	-0.383
-516.887	-200.000	-0.057	-0.369
-515.872	-112.924	-0.200	0.040
-514.858	-119.884	0.161	0.028
-513.843	-32.990	0.325	0.180
-512.829	-83.719	-0.375	-0.120
-511.814	74.048	-0.097	0.101
-510.799	-32.122	-0.191	0.107
-509.785	-13.127	-0.300	0.195
-508.770	130.122	0.128	0.164
-507.756	-200.000	-0.008	-0.120
-506.741	-73.314	0.140	-0.051
-505.726	-61.863	0.242	-0.101
-504.712	9.940	-0.199	0.151
-503.697	93.812	-0.174	-0.197
-502.683	-200.000	-0.005	-0.286
-501.668	-13.208	0.226	-0.146
-500.653	380.804	-0.169	-0.347
-499.639	-125.424	0.360	-0.055
-498.624	-145.574	-0.169	-0.015
-497.610	410.177	0.015	0.031
-496.595	800.000	-0.057	-0.210
-495.581	-200.000	-0.027	0.212
-494.566	-7.191	0.046	0.031
-493.551	197.104	0.078	0.119
-492.537	-200.000	-0.037	-0.173
-491.522	-41.691	-0.199	-0.102
-490.508	15.772	-0.394	-0.310
-489.493	135.612	-0.245	0.318
-488.478	-200.000	0.077	0.356
-487.464	-101.586	0.282	0.068
-486.449	-200.000	0.038	0.244
-485.435	10.845	-0.149	0.113
-484.420	108.090	0.066	0.078
-483.405	47.277	-0.151	0.140
-482.391	-76.042	0.150	0.053
-481.376	-157.290	0.024	-0.001
-480.362	472.720	0.068	0.153
-479.347	-80.125	0.157	-0.052
-478.332	-9.427	-0.184	0.122
-477.318	-200.000	-0.030	0.259
-476.303	800.000	-0.100	0.356
-475.289	-58.421	-0.167	0.072
-474.274	-102.625	0.224	-0.053
-473.259	533.465	-0.114	-0.270
-472.245	296.411	-0.164	-0.300
-471.230	-200.000	0.001	-0.040
-470.216	-13.635	0.224	-0.145
-469.201	-131.874	-0.107	0.014
-468.186	-200.000	-0.059	0.548
-467.172	-23.214	-0.238	0.143
-466.157	-200.000	0.019	0.190
-465.143	464.226	-0.019	-0.042
-464.128	63.787	0.194	-0.194
-463.113	-147.539	-0.253	0.021
-462.099	88.455	0.132	0.146
-461.084	800.000	-0.044	0.152
-460.070	-68.550	-0.303	-0.117
-459.055	800.000	-0.058	-0.249
-458.040	358.240	0.074	-0.147
-457.026	800.000	0.015	0.062
-456.011	-42.942	0.169	0.086
-454.997	-200.000	-0.003	0.339
-453.982	165.129	-0.282	0.398
-452.968	215.674	0.141	-0.223
-451.953	81.108	-0.185	-0.200
-450.938	-200.000	0.067	-0.577
-449.924	-188.225	0.211	0.003
-448.909	168.778	0.261	0.371
-447.895	-200.000	0.012	-0.213
-446.880	163.420	0.023	-0.032
-445.865	162.722	0.110	-0.154
-444.851	290.842	0.026	-0.047
-443.836	-200.000	0.004	-0.224
-442.822	432.106	0.139	0.301
-441.807	-200.000	0.023	-0.211
-440.792	-93.753	-0.098	-0.027
-439.778	-143.568	0.202	0.019
-438.763	47.783	0.150	-0.140
-437.749	312.746	0.090	-0.168
-436.734	800.000	0.041	0.146
-435.719	-200.000	0.007	0.036
-434.705	-5.593	-0.351	-0.240
-433.690	147.767	-0.060	-0.080
-432.676	-200.000	0.005	-0.158
-431.661	192.602	0.027	-0.041
-430.646	-178.092	0.205	-0.005
-429.632	-10.207	0.322	0.213
-428.617	-200.000	-0.023	-0.214
-427.603	154.355	-0.152	0.208
-426.588	-88.098	-0.101	-0.030
-425.573	-200.000	0.037	-0.261
-424.559	-16.127	-0.264	-0.167
-423.544	-13.149	-0.272	-0.176
-422.530	800.000	0.061	0.205
-421.515	3.629	-0.204	-0.148
-420.500	-200.000	0.006	-0.156
-419.486	-115.104	0.225	-0.043
-418.471	-17.440	-0.156	0.098
-417.457	-200.000	0.033	0.176
-416.442	-200.000	0.017	-0.109
-415.428	42.707	-0.079	-0.072
-414.413	-49.982	0.169	0.080
-413.398	196.192	0.100	0.152
-412.384	151.792	0.094	0.127
-411.369	-80.606	0.415	0.138
-410.355	310.659	0.035	-0.066
-409.340	-31.255	0.119	0.067
-408.325	20.126	0.238	0.191
-407.311	340.927	0.045	-0.088
-406.296	-200.000	0.062	-0.451
-405.282	-40.438	-0.212	-0.110
-404.267	292.766	0.071	0.129
-403.252	-67.960	0.275	-0.107
-402.238	800.000	0.085	0.278
-401.223	-50.828	-0.272	0.127
-400.209	-144.473	0.284	0.026
-399.194	800.000	0.038	-0.145
-398.179	800.000	0.064	0.192
-397.165	-93.301	-0.165	-0.046
-396.150	-131.762	0.387	-0.050
-395.136	291.343	0.076	-0.137
-394.121	-200.000	0.065	0.352
-393.106	74.694	0.150	0.157
-392.092	-200.000	-0.008	0.085
-391.077	24.253	0.090	-0.074
-390.063	-77.020	-0.183	-0.063
-389.048	-6.362	-0.243	-0.165
-388.033	622.287	-0.218	-0.547
-387.019	-64.120	0.184	-0.075
-386.004	800.000	0.089	-0.293
-384.990	-19.918	-0.110	0.068
-383.975	59.050	0.101	0.099
-382.960	800.000	0.135	0.424
-381.946	373.420	-0.052	-0.105
-380.931	800.000	0.051	-0.211
-379.917	-81.549	0.180	-0.059
-378.902	162.347	0.163	-0.227
-377.888	-200.000	0.014	-0.072
-376.873	-80.769	-0.147	0.049
-375.858	-187.976	-0.108	0.001
-374.844	-200.000	-0.021	0.242
-373.829	95.149	0.261	0.296
-372.815	-200.000	0.022	-0.462
-371.800	-32.785	-0.182	-0.101
-370.785	188.243	0.066	0.098
-369.771	-49.230	-0.030	-0.014
-368.756	800.000	0.063	0.192
-367.742	-74.725	-0.150	0.054
-366.727	-200.000	0.002	0.242
-365.712	-95.890	-0.144	-0.038
-364.698	187.242	0.141	0.209
-363.683	-127.849	0.112	-0.016
-362.669	146.083	0.279	0.372
-361.654	-172.994	-0.428	-0.013
-360.639	-88.543	0.207	-0.061
-359.625	98.085	-0.319	0.365
-358.610	-200.000	-0.037	0.194
-357.596	-200.000	0.029	0.141
-356.581	-200.000	-0.056	-0.271
-355.566	-70.993	-0.153	0.057
-354.552	156.577	-0.154	0.212
-353.537	-88.861	-0.112	0.033
-352.523	-200.000	-0.354	0.001
-351.508	-25.088	-0.377	-0.222
-350.493	-49.194	-0.200	-0.095
-349.479	-148.041	0.137	0.011
-348.464	-152.866	0.200	-0.014
-347.450	130.693	-0.121	0.154
-346.435	-200.000	-0.022	0.108
-345.420	800.000	0.046	-0.193
-344.406	34.959	-0.239	-0.208
-343.391	52.985	0.147	-0.140
-342.377	599.149	0.157	-0.388
-341.362	-25.959	0.211	-0.123
-340.348	-200.000	-0.002	0.128
-339.333	-125.001	0.434	-0.066
-338.318	70.190	-0.014	0.014
-337.304	-200.000	0.004	-0.039
-336.289	-122.736	-0.274	0.044
-335.275	-200.000	0.015	-0.106
-334.260	87.138	-0.189	0.208
-333.245	-151.475	0.461	-0.034
-332.231	-200.000	-0.007	-0.078
-331.216	800.000	0.064	-0.185
-330.202	232.957	0.117	-0.191
-329.187	22.242	-0.094	-0.076
-328.172	-101.296	0.236	-0.057
-327.158	-73.529	0.072	-0.026
-326.143	-33.979	-0.302	-0.165
-325.129	800.000	-0.051	-0.199
-324.114	35.219	-0.186	0.162
-323.099	27.382	-0.178	0.149
-322.085	-200.000	0.017	0.209
-321.070	32.978	0.198	0.171
-320.056	704.196	0.098	0.257
-319.041	-175.677	-0.329	0.009
-318.026	800.000	-0.014	-0.053
-317.012	166.468	0.060	-0.085
-315.997	555.144	0.065	0.155
-314.983	56.701	0.175	-0.169
-313.968	-79.090	0.405	0.136
-312.953	82.675	-0.155	-0.167
-311.939	-200.000	-0.055	-0.316
-310.924	352.710	0.068	-0.133
-309.910	-54.011	-0.125	-0.057
-308.895	-108.819	0.174	-0.037
-307.880	-61.728	-0.246	-0.102
-306.866	-36.028	-0.203	-0.109
-305.851	138.444	-0.204	-0.266
-304.837	304.183	0.087	-0.160
-303.822	146.000	0.057	-0.076
-302.807	14.691	0.145	-0.113
-301.793	-200.000	-0.004	0.141
-300.778	121.792	-0.142	0.175
-299.764	169.366	0.177	0.251
-298.749	800.000	0.069	0.196
-297.735	-200.000	0.040	-0.210
-296.720	-46.722	-0.192	0.093
-295.705	-66.003	-0.118	-0.047
-294.691	117.520	0.200	0.243
-293.676	185.903	-0.079	-0.117
-292.662	161.957	-0.115	0.159
-291.647	-200.000	0.021	0.240
-290.632	204.354	0.128	-0.197
-289.618	-89.212	0.214	-0.063
-288.603	19.582	-0.085	-0.067
-287.589	-77.603	-0.165	-0.057
-286.574	-79.953	0.093	-0.031
-285.559	-29.324	0.317	-0.180
-284.545	-139.681	-0.634	0.067
-283.530	212.315	0.112	0.174
-282.516	800.000	0.051	-0.159
-281.501	324.005	-0.048	0.091
-280.486	800.000	-0.025	-0.069
-279.472	-50.430	-0.193	0.090
-278.457	97.673	-0.066	0.076
-277.443	-110.670	0.482	-0.099
-276.428	-41.698	-0.068	-0.035
-275.413	776.954	-0.055	-0.149
-274.399	-175.667	-0.241	0.006
-273.384	-200.000	0.024	-0.233
-272.370	29.418	0.035	0.030
-271.355	-134.372	0.205	-0.025
-270.340	253.275	-0.122	-0.206
-269.326	800.000	-0.066	-0.212
-268.311	-89.314	0.124	-0.036
-267.297	-106.883	-0.332	0.073
-266.282	97.287	0.180	-0.205
-265.267	-165.727	0.205	0.009
-264.253	317.019	-0.055	0.102
-263.238	-151.445	-0.299	-0.022
-262.224	282.290	-0.071	-0.126
-261.209	800.000	0.052	-0.204
-260.195	800.000	-0.044	0.147
-259.180	-200.000	0.006	-0.117
-258.165	-200.000	0.011	0.089
-257.151	-164.006	0.271	0.012
-256.136	21.750	0.159	0.128
-255.122	-200.000	0.008	0.190
-254.107	7.132	-0.329	-0.243
-253.092	-200.000	-0.034	-0.216
-252.078	-62.297	0.070	-0.029
-251.063	-200.000	-0.035	0.563
-250.049	-137.567	0.369	-0.041
-249.034	-70.271	-0.147	-0.055
-248.019	-200.000	-0.038	-0.204
-247.005	800.000	-0.072	0.280
-245.990	-125.489	-0.200	-0.030
-244.976	800.000	-0.110	0.320
-243.961	95.156	0.238	0.268
-242.946	81.125	0.049	-0.052
-241.932	-125.381	0.158	-0.024
-240.917	-68.584	0.273	0.105
-239.903	-195.584	-0.281	-0.002
-238.888	-4.024	0.174	-0.119
-237.873	-183.873	-0.361	-0.006
-236.859	121.838	0.146	0.181
-235.844	115.189	-0.055	0.067
-234.830	-89.270	-0.397	0.116
-233.815	153.508	0.140	0.190
-232.800	275.760	0.108	0.190
-231.786	-98.510	-0.303	0.076
-230.771	-95.984	-0.099	-0.026
-229.757	-113.447	-0.120	-0.023
-228.742	-200.000	0.005	0.157
-227.727	165.764	0.071	0.099
-226.713	-166.463	-0.258	-0.011
-225.698	301.079	-0.119	0.218
-224.684	274.326	-0.101	-0.177
-223.669	800.000	0.063	-0.245
-222.655	-200.000	-0.085	0.501
-221.640	-200.000	-0.036	0.338
-220.625	162.397	0.169	0.234
-219.611	685.846	0.054	0.140
-218.596	11.282	0.126	0.095
-217.582	-90.084	-0.268	0.077
-216.567	329.751	0.139	0.263
-215.552	10.070	-0.061	0.046
-214.538	232.846	-0.170	0.277
-213.523	-200.000	-0.010	0.110
-212.509	-16.035	-0.078	0.049
-211.494	537.717	-0.032	0.074
-210.479	273.143	0.158	-0.275
-209.465	-36.307	0.323	-0.172
-208.450	-200.000	-0.058	-0.421
-207.436	155.122	-0.060	-0.081
-206.421	-27.388	-0.059	-0.034
-205.406	0.319	-0.197	-0.139
-204.392	151.193	0.123	0.166
-203.377	-132.918	0.226	-0.028
-202.363	132.570	0.108	-0.138
-201.348	-49.327	0.178	-0.084
-200.333	-139.525	0.302	-0.032
-199.319	22.676	-0.256	-0.207
-198.304	20.341	0.080	0.064
-197.290	361.771	-0.140	0.277
-196.275	337.307	-0.069	-0.132
-195.260	-200.000	0.025	-0.311
-194.246	39.084	0.094	-0.083
-193.231	-21.187	-0.310	-0.187
-192.217	-200.000	-0.011	0.083
-191.202	661.852	-0.080	-0.203
-190.187	161.725	-0.146	-0.202
-189.173	-180.117	0.239	-0.005
-188.158	63.557	0.171	0.169
-187.144	800.000	-0.070	0.196
-186.129	-164.415	-0.132	-0.006
-185.114	800.000	-0.053	0.162
-184.100	-26.923	0.240	0.138
-183.085	-94.777	-0.076	-0.020
-182.071	3.779	0.268	0.193
-181.056	-112.465	-0.120	0.024
-180.042	754.961	0.123	-0.327
-179.027	-37.541	0.194	0.102
-178.012	75.639	-0.152	0.158
-176.998	6.180	0.136	-0.100
-175.983	-200.000	0.004	0.025
-174.969	-21.109	0.202	0.122
-173.954	83.286	0.136	-0.147
-172.939	-58.120	0.307	0.132
-171.925	-200.000	0.316	-0.001
-170.910	681.236	0.075	0.192
-169.896	-60.809	-0.432	0.180
-168.881	155.260	-0.109	-0.147
-167.866	20.285	-0.160	0.128
-166.852	-80.576	-0.096	0.032
-165.837	-45.372	0.378	0.185
-164.823	-130.630	0.201	0.027
-163.808	8.979	-0.160	-0.119
-162.793	-200.000	0.005	-0.133
-161.779	-92.978	-0.237	0.065
-160.764	-157.621	0.107	0.006
-159.750	-58.016	0.111	-0.048
-158.735	194.965	0.454	-0.680
-157.720	75.274	0.221	-0.229
-156.706	-78.472	-0.189	0.064
-155.691	10.270	-0.192	-0.144
-154.677	-200.000	0.019	0.145
-153.662	-200.000	0.014	0.456
-152.647	12.898	-0.220	0.167
-151.633	-200.000	0.008	-0.282
-150.618	94.964	0.303	0.340
-149.604	-200.000	-0.006	-0.126
-148.589	-92.373	0.301	0.084
-147.574	-45.843	0.277	0.135
-146.560	-35.837	0.125	-0.066
-145.545	150.130	0.178	0.238
-144.531	-51.380	0.363	0.167
-143.516	800.000	0.064	-0.202
-142.502	123.787	0.157	0.194
-141.487	85.506	-0.107	0.116
-140.472	-104.177	0.164	0.037
-139.458	481.185	-0.032	0.071
-138.443	-51.992	-0.439	-0.201
-137.429	-147.705	-0.119	0.010
-136.414	800.000	-0.056	-0.172
-135.399	484.910	-0.037	0.083
-134.385	-200.000	-0.016	0.291
-133.370	-200.000	-0.016	0.290
-132.356	12.289	0.130	0.099
-131.341	-79.232	0.176	-0.059
-130.326	21.562	0.247	-0.198
-129.312	-112.621	-0.516	0.101
-128.297	425.251	0.095	-0.201
-127.283	-27.205	0.373	0.214
-126.268	40.494	-0.216	-0.192
-125.253	-200.000	0.004	-0.176
-124.239	-63.717	0.163	0.066
-123.224	11.391	0.116	0.088
-122.210	517.052	0.124	0.285
-121.195	-106.034	-0.213	0.047
-120.180	-121.279	-0.158	-0.026
-119.166	-91.701	0.213	-0.060
-118.151	55.480	-0.144	-0.138
-117.137	-22.551	0.282	0.168
-116.122	-200.000	0.028	0.504
-115.107	492.337	-0.053	0.119
-114.093	-126.266	-0.056	0.008
-113.078	171.258	-0.084	0.119
-112.064	-65.455	-0.068	-0.027
-111.049	82.060	-0.223	-0.238
-110.034	-200.000	-0.032	0.328
-109.020	-21.608	-0.132	0.079
-108.005	357.797	-0.144	-0.283
-106.991	158.246	-0.135	0.184
-105.976	37.851	0.123	-0.108
-104.962	-200.000	-0.077	0.506
-103.947	-115.456	-0.207	-0.038
-102.932	100.550	0.099	-0.114
-101.918	13.040	0.098	-0.075
-100.903	76.587	0.194	0.202
-99.889	259.580	-0.085	0.145
-98.874	-109.706	-0.238	0.049
-97.859	183.753	0.011	0.016
-96.845	-43.233	-0.208	0.104
-95.830	315.004	0.135	0.251
-94.816	-154.616	-0.082	0.005
-93.801	-6.976	-0.152	-0.101
-92.786	800.000	-0.077	0.237
-91.772	265.081	-0.154	0.264
-90.757	-125.184	0.260	0.039
-89.743	-200.000	0.049	0.220
-88.728	96.050	0.234	-0.263
-87.713	41.362	0.092	0.082
-86.699	-200.000	0.036	0.314
-85.684	-200.000	-0.065	0.420
-84.670	-107.436	0.294	-0.063
-83.655	70.350	0.162	0.164
-82.640	800.000	-0.039	-0.129
-81.626	-25.569	-0.078	0.045
-80.611	-48.836	-0.211	-0.099
-79.597	800.000	0.007	0.030
-78.582	612.306	-0.006	-0.014
-77.567	14.544	0.371	0.285
-76.553	24.650	0.080	-0.065
-75.538	60.911	0.182	0.177
-74.524	-109.918	0.022	-0.005
-73.509	-200.000	0.007	-0.217
-72.494	-67.380	0.592	-0.229
-71.480	-200.000	0.039	0.469
-70.465	-200.000	-0.067	0.460
-69.451	173.347	0.108	-0.154
-68.436	-76.568	0.397	-0.137
-67.422	-127.730	0.190	-0.027
-66.407	-86.293	-0.065	-0.020
-65.392	-144.764	-0.166	-0.015
-64.378	-95.858	-0.182	0.048
-63.363	15.174	0.183	0.141
-62.349	40.049	-0.139	0.123
-61.334	26.525	-1.063	-0.874
-60.319	-45.162	0.586	0.286
-59.305	-200.000	-0.121	-1.268
-58.290	790.843	0.330	0.891
-57.276	261.205	0.781	1.328
-56.261	-200.000	106.924	581.482
-55.246	439.527	1482.013	3179.153
-54.232	145.128	2676.875	3517.531
-53.217	104.368	2193.744	2536.017
-52.203	39.328	1720.405	1512.726
-51.188	32.160	1533.055	1298.607
-50.173	29.785	1506.947	1260.285
-49.159	50.639	1561.611	1451.254
-48.144	50.789	1578.474	1467.906
-47.130	32.439	1535.508	1302.411
-46.115	29.452	1520.113	1268.803
-45.100	29.224	1516.900	1264.507
-44.086	29.240	1514.643	1262.687
-43.071	29.239	1512.114	1260.516
-42.057	29.099	1511.184	1258.737
-41.042	29.185	1509.490	1257.866
-40.027	29.133	1507.971	1256.191
-39.013	29.092	1506.160	1254.356
-37.998	29.179	1505.160	1254.066
-36.984	29.041	1504.187	1252.263
-35.969	29.017	1502.878	1250.962
-34.954	29.077	1501.633	1250.286
-33.940	29.144	1500.214	1249.506
-32.925	29.053	1498.864	1247.714
-31.911	29.139	1497.505	1247.117
-30.896	29.205	1495.932	1246.204
-29.881	29.185	1494.829	1245.101
-28.867	29.212	1493.276	1243.943
-27.852	29.172	1492.322	1242.824
-26.838	29.177	1490.858	1241.593
-25.823	29.266	1488.749	1240.389
-24.809	29.199	1487.826	1239.117
-23.794	29.164	1486.086	1237.386
-22.779	29.145	1485.112	1236.399
-21.765	29.095	1484.721	1235.687
-20.750	29.154	1482.974	1234.579
-19.736	29.158	1481.660	1233.461
-18.721	29.136	1480.597	1232.383
-17.706	29.180	1479.312	1231.556
-16.692	29.162	1477.980	1230.276
-15.677	29.210	1476.973	1229.714
-14.663	29.110	1476.546	1228.638
-13.648	29.117	1475.388	1227.673
-12.633	29.051	1474.337	1226.310
-11.619	29.062	1473.692	1225.800
-10.604	29.136	1472.485	1225.238
-9.590	29.067	1471.931	1224.273
-8.575	29.094	1470.913	1223.554
-7.560	29.094	1470.135	1222.860
-6.546	29.131	1469.111	1222.208
-5.531	29.067	1468.488	1221.215
-4.517	29.019	1467.479	1220.008
-3.502	29.062	1466.315	1219.277
-2.487	29.061	1465.300	1218.375
-1.473	29.112	1464.124	1217.686
-0.458	29.123	1462.673	1216.506
0.556	27.749	1453.357	1207.176
1.571	25.363	1428.784	1171.124
2.586	22.377	1369.647	1103.854
3.600	20.986	1286.723	1028.730
4.615	19.777	1240.750	985.004
5.629	18.738	1187.242	936.773
6.644	15.369	1110.214	858.702
7.659	12.182	1075.084	815.640
8.673	11.969	1069.746	810.461
9.688	11.880	1066.716	807.656
10.702	11.851	1064.698	805.917
11.717	11.810	1062.677	804.113
12.731	13.233	1062.879	811.181
13.746	16.327	1067.125	829.573
14.761	18.272	1068.897	840.438
15.775	17.903	1067.753	837.654
16.790	16.989	1065.092	831.015
17.804	15.851	1063.391	824.048
18.819	15.118	1061.223	818.715
19.834	14.581	1059.274	814.517
20.848	14.211	1058.682	812.182
21.863	13.954	1057.801	810.180
22.877	13.614	1057.684	808.362
23.892	13.599	1056.023	806.950
24.907	13.429	1055.194	805.416
25.921	13.482	1054.830	805.323
26.936	13.499	1053.659	804.441
27.950	13.507	1052.939	803.862
28.965	13.561	1051.339	802.828
29.980	13.610	1050.605	802.437
30.994	13.679	1049.278	801.683
32.009	13.632	1048.487	800.781
33.023	13.736	1048.079	800.900
34.038	13.853	1046.621	800.283
35.053	13.714	1046.007	799.072
36.067	13.703	1044.705	797.950
37.082	13.612	1044.010	796.913
38.096	13.691	1043.340	796.712
39.111	13.628	1043.228	796.254
40.126	13.659	1041.733	795.191
41.140	13.631	1040.688	794.185
42.155	13.664	1039.478	793.352
43.169	13.558	1038.526	792.049
44.184	13.432	1037.332	790.464
45.199	13.398	1036.521	789.616
46.213	13.437	1035.263	788.773
47.228	13.456	1034.133	787.935
48.242	13.509	1033.232	787.427
49.257	13.641	1032.097	787.121
50.271	13.577	1031.420	786.230
51.286	13.485	1030.745	785.213
52.301	13.638	1030.010	785.306
53.315	13.573	1028.976	784.141
54.330	13.597	1027.647	783.171
55.344	13.511	1027.186	782.343
56.359	13.512	1026.522	781.773
57.374	13.404	1025.605	780.497
58.388	13.431	1025.047	780.133
59.403	13.273	1024.103	778.601
60.417	13.274	1023.382	777.987
61.432	13.351	1022.483	777.595
62.447	13.321	1021.723	776.812
63.461	13.379	1020.776	776.293
64.476	13.360	1020.088	775.613
65.490	13.394	1018.996	774.872
66.505	13.377	1018.015	773.980
67.520	13.362	1017.244	773.256
68.534	13.538	1016.584	773.507
69.549	13.342	1016.211	772.241
70.563	13.399	1015.455	771.860
71.578	13.431	1014.269	771.040
72.593	13.305	1013.784	770.018
73.607	13.422	1012.447	769.477
74.622	13.254	1011.690	768.053
75.636	13.300	1010.559	767.343
76.651	13.133	1010.582	766.515
77.666	13.146	1009.746	765.874
78.680	13.158	1008.736	765.097
79.695	13.395	1008.236	765.744
80.709	13.267	1007.857	764.800
81.724	13.292	1006.618	763.904
82.739	13.452	1005.414	763.664
83.753	13.480	1004.835	763.286
84.768	13.493	1004.318	762.885
85.782	13.671	1003.496	763.011
86.797	13.722	1002.588	762.490
87.812	13.626	1002.053	761.574
88.826	13.634	1001.060	760.786
89.841	13.634	999.989	759.906
90.855	13.507	999.504	758.890
91.870	13.572	998.840	758.616
92.884	13.673	997.721	758.157
93.899	13.593	997.316	757.421
94.914	13.601	996.765	756.970
95.928	13.636	996.201	756.633
96.943	13.792	995.186	756.506
97.957	13.758	993.958	755.352
98.972	13.702	993.292	754.527
99.987	13.739	992.396	753.944
101.001	13.765	991.828	753.564
102.016	13.608	990.951	752.121
103.030	13.705	989.487	751.380
104.045	13.812	989.032	751.456
105.060	13.730	987.966	750.209
106.074	13.592	987.109	748.867
107.089	13.464	986.417	747.699
108.103	13.472	985.516	746.985
109.118	13.511	984.489	746.315
110.133	13.443	983.536	745.222
111.147	13.457	982.882	744.721
112.162	13.488	981.440	743.703
113.176	13.439	980.825	742.949
114.191	13.384	980.158	742.131
115.206	13.471	979.144	741.688
116.220	13.497	978.462	741.227
117.235	13.423	977.304	739.952
118.249	13.468	976.515	739.489
119.264	13.455	975.640	738.704
120.279	13.487	975.125	738.389
121.293	13.440	974.280	737.477
122.308	13.405	973.992	737.037
123.322	13.407	972.677	735.983
124.337	13.370	971.683	735.002
125.352	13.442	970.359	734.256
126.366	13.431	969.169	733.240
127.381	13.443	968.045	732.379
128.395	13.375	967.621	731.694
129.410	13.371	966.653	730.881
130.424	13.500	965.443	730.468
131.439	13.516	964.502	729.763
132.454	13.565	963.725	729.327
133.468	13.600	963.076	728.924
134.483	13.510	962.689	728.169
135.497	13.535	962.019	727.711
136.512	13.642	961.018	727.359
137.527	13.680	960.122	726.782
138.541	13.513	959.494	725.510
139.556	13.666	958.767	725.565
140.570	13.501	958.480	724.563
141.585	13.638	957.444	724.314
142.600	13.659	956.767	723.831
143.614	13.643	956.174	723.249
144.629	13.740	955.349	722.985
145.643	13.842	954.847	722.985
146.658	13.715	953.881	721.633
147.673	13.720	952.452	720.513
148.687	13.605	952.232	719.783
149.702	13.527	951.187	718.592
150.716	13.481	950.567	717.860
151.731	13.583	949.490	717.426
152.746	13.605	948.798	716.933
153.760	13.607	948.149	716.385
154.775	13.723	947.138	716.059
155.789	13.614	946.556	715.087
156.804	13.723	945.876	714.982
157.819	13.808	944.820	714.482
158.833	13.842	944.164	714.069
159.848	13.901	943.566	713.811
160.862	13.828	942.690	712.771
161.877	13.860	942.166	712.448
162.892	13.809	941.369	711.563
163.906	13.611	940.622	710.088
164.921	13.660	939.704	709.542
165.935	13.671	938.450	708.580
166.950	13.707	937.551	707.992
167.964	13.734	937.073	707.682
168.979	13.770	935.798	706.813
169.994	13.810	934.785	706.154
171.008	13.752	933.688	705.015
172.023	13.720	933.462	704.645
173.037	13.783	932.188	703.890
174.052	13.938	931.533	703.989
175.067	13.922	930.733	703.257
176.081	13.939	930.091	702.780
177.096	13.856	929.007	701.550
178.110	13.848	928.249	700.880
179.125	13.709	927.850	699.931
180.140	13.840	927.085	699.846
181.154	13.693	926.526	698.742
182.169	13.953	925.748	699.187
183.183	13.862	925.328	698.425
184.198	13.893	924.281	697.703
185.213	13.872	923.984	697.328
186.227	13.992	922.912	696.960
187.242	14.036	922.562	696.819
188.256	13.962	922.188	696.166
189.271	14.287	920.937	696.522
190.286	14.161	920.409	695.531
191.300	14.110	919.126	694.289
192.315	13.876	918.993	693.150
193.329	13.678	918.361	691.786
194.344	13.746	917.626	691.453
195.359	13.848	917.259	691.541
196.373	14.020	916.392	691.541
197.388	14.041	916.307	691.505
198.402	14.078	915.471	690.966
199.417	14.263	914.986	691.306
200.432	14.317	914.246	690.910
201.446	14.328	913.818	690.570
202.461	14.408	913.472	690.579
203.475	14.318	913.190	689.935
204.490	14.382	912.662	689.739
205.504	14.239	911.384	688.119
206.519	14.215	910.706	687.446
207.534	14.234	909.817	686.796
208.548	14.277	908.921	686.233
209.563	14.371	907.833	685.741
210.577	14.229	907.667	684.968
211.592	14.103	907.652	684.378
212.607	14.266	906.767	684.322
213.621	14.370	906.348	684.371
214.636	14.539	904.989	683.976
215.650	14.505	904.463	683.379
216.665	14.511	904.240	683.176
217.680	14.511	903.668	682.683
218.694	14.482	903.602	682.455
219.709	14.548	902.789	682.049
220.723	14.465	902.068	681.106
221.738	14.494	901.554	680.776
222.753	14.564	900.517	680.218
223.767	14.641	899.910	680.013
224.782	14.670	898.974	679.364
225.796	14.805	898.164	679.241
226.811	14.623	897.725	678.108
227.826	14.743	896.926	677.932
228.840	14.524	896.273	676.488
229.855	14.600	895.630	676.252
230.869	14.703	894.995	676.131
231.884	14.688	894.336	675.514
232.899	14.727	893.503	674.983
233.913	14.528	893.072	673.793
234.928	14.566	892.049	673.114
235.942	14.525	892.074	672.910
236.957	14.476	891.210	671.999
237.972	14.517	890.318	671.431
238.986	14.711	889.451	671.499
240.001	14.506	889.131	670.375
241.015	14.662	887.732	669.888
242.030	14.614	887.627	669.553
243.045	14.722	886.965	669.431
244.059	14.740	886.234	668.892
245.074	14.754	885.797	668.556
246.088	14.819	885.326	668.405
247.103	14.768	884.620	667.606
248.117	14.963	883.714	667.642
249.132	14.876	883.349	666.962
250.147	14.946	882.889	666.831
251.161	14.986	882.074	666.317
252.176	15.128	881.320	666.254
253.190	15.109	880.663	665.623
254.205	15.133	880.320	665.400
255.220	15.098	879.591	664.651
256.234	15.234	878.982	664.672
257.249	15.126	878.213	663.602
258.263	15.156	877.829	663.375
259.278	15.191	877.331	663.076
260.293	15.093	876.799	662.227
261.307	15.125	876.512	662.079
262.322	15.258	875.921	662.100
263.336	15.368	875.064	661.829
264.351	15.342	874.438	661.194
265.366	15.409	873.654	660.806
266.380	15.519	873.054	660.727
267.395	15.433	872.111	659.616
268.409	15.278	871.701	658.639
269.424	15.267	870.926	657.952
270.439	15.208	870.860	657.614
271.453	15.299	869.691	657.028
272.468	15.306	868.750	656.285
273.482	15.360	867.940	655.826
274.497	15.417	867.799	655.888
275.512	15.213	867.414	654.739
276.526	15.314	866.566	654.438
277.541	15.334	865.911	653.959
278.555	15.409	865.164	653.632
279.570	15.540	864.277	653.412
280.585	15.447	863.985	652.771
281.599	15.455	863.518	652.393
282.614	15.522	862.818	652.065
283.628	15.437	862.029	651.084
284.643	15.605	861.546	651.312
285.657	15.551	860.989	650.623
286.672	15.507	860.791	650.248
287.687	15.491	860.144	649.639
288.701	15.495	859.801	649.339
289.716	15.490	859.085	648.721
290.730	15.585	858.344	648.471
291.745	15.685	857.832	648.414
292.760	15.610	857.172	647.565
293.774	15.707	856.586	647.440
294.789	15.778	855.756	647.026
295.803	15.651	855.316	646.151
296.818	15.517	854.997	645.337
297.833	15.610	854.060	644.930
298.847	15.621	853.453	644.456
299.862	15.709	852.357	643.910
300.876	15.641	851.996	643.318
301.891	15.759	851.565	643.389
302.906	15.869	850.732	643.123
303.920	15.917	849.844	642.578
304.935	15.889	849.338	642.029
305.949	15.783	849.267	641.516
306.964	16.012	848.264	641.575
307.979	16.040	847.640	641.152
308.993	16.036	846.838	640.471
310.008	16.087	846.209	640.133
311.022	15.853	846.155	639.149
312.037	15.940	845.275	638.756
313.052	15.886	845.188	638.428
314.066	15.777	844.620	637.532
315.081	15.880	843.788	637.237
316.095	15.894	843.249	636.827
317.110	15.838	842.841	636.249
318.125	15.871	842.276	635.891
319.139	15.959	841.792	635.804
320.154	15.969	841.015	635.196
321.168	15.972	840.718	634.926
322.183	16.064	839.869	634.576
323.197	16.033	839.572	634.178
324.212	16.113	838.730	633.788
325.227	16.000	838.532	633.156
326.241	16.184	837.853	633.280
327.256	15.959	837.421	632.052
328.270	16.003	836.817	631.705
329.285	15.795	836.713	630.792
330.300	16.103	835.584	631.037
331.314	16.117	834.800	630.442
332.329	16.062	834.369	629.854
333.343	16.131	833.756	629.596
334.358	16.218	833.432	629.620
335.373	16.146	832.946	628.926
336.387	16.184	832.283	628.513
337.402	16.130	831.980	628.028
338.416	16.274	831.120	627.858
339.431	16.279	830.739	627.533
340.446	16.334	830.225	627.293
341.460	16.416	829.488	626.986
342.475	16.352	829.058	626.367
343.489	16.427	828.598	626.243
344.504	16.325	827.988	625.349
345.519	16.443	827.475	625.344
346.533	16.569	826.830	625.266
347.548	16.528	826.415	624.747
348.562	16.531	825.426	623.954
349.577	16.366	825.446	623.304
350.592	16.266	825.168	622.670
351.606	16.369	824.415	622.428
352.621	16.343	823.818	621.823
353.635	16.500	823.702	622.261
354.650	16.513	823.049	621.760
355.665	16.487	822.688	621.338
356.679	16.498	822.261	621.000
357.694	16.387	821.915	620.276
358.708	16.536	821.331	620.327
359.723	16.682	820.367	620.079
360.738	16.571	819.931	619.289
361.752	16.535	819.531	618.801
362.767	16.553	819.244	618.595
363.781	16.654	818.874	618.627
364.796	16.668	818.509	618.348
365.810	16.748	817.951	618.166
366.825	16.916	817.543	618.416
367.840	16.859	817.203	617.897
368.854	16.854	816.430	617.237
369.869	16.781	816.452	616.933
370.883	16.730	815.693	616.120
371.898	16.876	815.051	616.113
372.913	16.943	814.235	615.682
373.927	16.954	813.842	615.373
374.942	16.963	813.143	614.823
375.956	16.749	812.874	613.787
376.971	16.922	811.928	613.646
377.986	17.097	811.080	613.582
379.000	16.999	811.089	613.183
380.015	17.040	810.608	612.912
381.029	17.086	809.699	612.337
382.044	17.077	809.198	611.871
383.059	17.057	808.980	611.578
384.073	17.284	807.897	611.525
385.088	17.111	807.730	610.722
386.102	16.958	807.435	609.894
387.117	17.119	806.359	609.605
388.132	17.084	806.083	609.215
389.146	16.717	806.583	608.222
390.161	17.119	805.271	608.619
391.175	17.082	805.261	608.427
392.190	17.161	804.664	608.206
393.205	17.332	804.239	608.441
394.219	17.352	803.396	607.821
395.234	17.079	803.499	606.871
396.248	17.101	802.829	606.390
397.263	17.074	802.294	605.834
398.278	17.064	801.975	605.503
399.292	17.101	801.389	605.140
400.307	17.133	800.939	604.861
401.321	17.150	800.501	604.535
402.336	17.036	800.266	603.900
403.350	17.105	799.946	603.851
404.365	17.229	799.527	603.920
405.380	17.400	798.695	603.845
406.394	17.414	798.141	603.424
407.409	17.355	797.794	602.901
408.423	17.421	797.573	602.913
409.438	17.450	797.310	602.765
410.453	17.346	796.872	602.010
411.467	17.504	796.270	602.063
412.482	17.519	795.645	601.590
413.496	17.576	795.401	601.550
414.511	17.443	795.131	600.824
415.526	17.615	794.509	600.907
416.540	17.521	794.054	600.182
417.555	17.603	793.771	600.202
418.569	17.616	793.370	599.890
419.584	17.512	792.834	599.066
420.599	17.592	792.191	598.809
421.613	109.400	1290.996	1469.711
422.628	93.948	1363.662	1469.814
