DTS Sentinel unit serial number:	SN413079Multiplexer serial number:	ORYXHardware model number:	OX4-SRSoftware version number:	ORYX F/W v4.00 Oryx Data Collector v3.7.2.0data status	okinstallation	princeton_trtdifferential loss correction	single-endedforward channel	channel 3reverse channel	N/Adate	2019/09/12time	19:28:04forward acquisition time	15.00reverse acquisition time	0.00gamma	496.2192k internal	0.2322k external	0.2322temperature offset calibration	1.0112default loss term (dB/km)	0.3790temperature slope calibration	1.0000multiplexer offset coefficient	1.0000multiplexer slope coefficient	1.0000fibre end	0.00T internal ref (°C)	32.31T ext. ref 1 (°C)	3.25T ext. ref 2 (°C)	26.87length (m)	temperature (°C)	Stokes	anti-Stokes-747.200	94.280	-0.114	-0.131
-746.185	-53.772	-0.530	-0.244
-745.171	800.000	0.028	0.082
-744.156	-200.000	-0.205	0.928
-743.142	-152.218	0.744	-0.054
-742.127	317.279	-0.133	-0.255
-741.112	-200.000	0.072	-0.390
-740.098	-13.920	-0.410	0.268
-739.083	-72.732	-0.160	-0.059
-738.069	781.743	0.048	0.134
-737.054	-64.815	-0.132	-0.054
-736.039	12.131	-0.487	-0.378
-735.025	-79.347	0.543	0.186
-734.010	-30.561	-0.377	0.215
-732.996	149.560	-0.488	-0.668
-731.981	-200.000	0.061	-0.860
-730.966	-114.538	0.558	-0.108
-729.952	800.000	0.254	0.798
-728.937	280.489	0.157	-0.283
-727.923	-200.000	-0.100	0.594
-726.908	-200.000	0.127	-0.746
-725.894	96.272	-0.082	-0.095
-724.879	-106.666	-0.398	0.089
-723.864	-200.000	0.014	0.281
-722.850	112.972	-0.244	-0.299
-721.835	35.320	-0.565	-0.500
-720.821	-119.669	-0.380	0.066
-719.806	800.000	0.196	-0.828
-718.791	-168.640	0.608	0.023
-717.777	800.000	-0.239	-0.966
-716.762	-200.000	0.066	-0.292
-715.748	-5.664	0.108	-0.075
-714.733	52.577	0.426	0.411
-713.718	-75.093	-0.802	-0.289
-712.704	65.948	-0.204	-0.209
-711.689	423.844	0.202	-0.437
-710.675	-125.385	-0.282	0.043
-709.660	800.000	0.148	0.473
-708.645	-143.258	-0.551	0.053
-707.631	-200.000	-0.002	-0.189
-706.616	-62.409	-0.319	-0.134
-705.602	-80.442	0.732	-0.247
-704.587	-200.000	-0.047	0.506
-703.572	-181.671	-0.789	-0.015
-702.558	-140.356	1.017	-0.107
-701.543	-80.995	-0.860	-0.287
-700.529	-200.000	-0.069	-0.527
-699.514	-28.734	-0.991	-0.575
-698.499	430.350	-0.296	-0.646
-697.485	434.464	0.083	0.181
-696.470	-200.000	-0.185	-0.841
-695.456	-60.102	0.680	0.293
-694.441	-84.204	0.392	-0.125
-693.426	129.455	-0.681	-0.878
-692.412	521.642	0.177	0.418
-691.397	-60.372	0.209	-0.090
-690.383	329.400	-0.317	0.614
-689.368	800.000	-0.039	0.173
-688.354	106.074	0.639	-0.763
-687.339	-58.191	-0.558	0.245
-686.324	28.876	-0.348	0.297
-685.310	63.149	0.418	0.422
-684.295	39.635	0.277	0.251
-683.281	-87.877	-0.829	0.251
-682.266	-12.879	0.456	-0.299
-681.251	320.936	-0.201	-0.386
-680.237	-103.914	0.095	-0.022
-679.222	-108.204	-0.302	-0.066
-678.208	-200.000	0.714	0.001
-677.193	-169.329	-0.390	0.014
-676.178	-200.000	-0.048	-0.330
-675.164	-65.413	0.362	0.146
-674.149	74.774	-0.514	0.545
-673.135	-39.202	-0.080	0.042
-672.120	29.042	-0.261	0.223
-671.105	-200.000	-0.035	0.188
-670.091	-200.000	-0.059	-0.374
-669.076	-72.093	0.263	-0.098
-668.062	169.519	0.486	-0.699
-667.047	-131.271	-0.769	0.103
-666.032	-14.712	-0.646	-0.418
-665.018	399.664	-0.070	0.147
-664.003	-105.963	-0.532	0.121
-662.989	800.000	0.153	0.538
-661.974	-31.985	-0.843	-0.475
-660.959	-59.976	-0.705	-0.303
-659.945	17.428	0.462	-0.370
-658.930	-160.490	0.607	-0.033
-657.916	-200.000	-0.093	0.418
-656.901	-131.846	-0.261	-0.034
-655.886	183.522	0.585	0.870
-654.872	-200.000	-0.004	0.465
-653.857	-59.513	-0.186	0.080
-652.843	-63.044	-0.430	-0.179
-651.828	132.021	0.456	0.592
-650.814	-200.000	0.018	1.262
-649.799	53.973	0.456	0.441
-648.784	-43.670	-0.365	0.185
-647.770	-97.537	0.257	-0.067
-646.755	-129.624	-0.646	0.090
-645.741	99.738	0.243	0.283
-644.726	-32.589	-0.405	-0.227
-643.711	-200.000	0.005	-0.553
-642.697	-62.318	-0.821	0.344
-641.682	-62.080	0.284	0.119
-640.668	-23.816	-0.323	0.195
-639.653	-70.457	-0.446	-0.170
-638.638	0.678	0.911	0.656
-637.624	-21.795	0.234	-0.143
-636.609	-200.000	-0.014	0.594
-635.595	191.041	-0.326	0.493
-634.580	-147.487	-0.217	-0.018
-633.565	56.541	0.672	0.658
-632.551	584.003	-0.127	-0.313
-631.536	-200.000	0.057	0.412
-630.522	800.000	-0.098	0.377
-629.507	-53.559	0.786	-0.362
-628.492	-200.000	-0.019	0.674
-627.478	800.000	0.227	0.674
-626.463	3.341	0.388	0.284
-625.449	800.000	0.042	0.178
-624.434	-200.000	-0.006	-0.270
-623.419	-200.000	-0.056	-0.324
-622.405	-93.755	0.275	-0.076
-621.390	118.045	0.291	0.361
-620.376	5.491	0.054	-0.040
-619.361	-98.330	-0.275	0.071
-618.346	412.870	0.191	-0.408
-617.332	-129.231	0.702	0.098
-616.317	35.927	0.365	0.323
-615.303	147.973	-0.083	0.112
-614.288	73.505	0.351	-0.369
-613.273	211.529	-0.284	0.450
-612.259	800.000	-0.190	-0.743
-611.244	-160.761	-0.381	0.020
-610.230	421.371	-0.122	-0.263
-609.215	-79.852	-0.679	-0.229
-608.201	-120.793	0.516	-0.087
-607.186	-200.000	-0.058	0.294
-606.171	574.943	0.296	0.725
-605.157	800.000	-0.279	-0.883
-604.142	140.345	0.673	-0.892
-603.128	800.000	0.147	-0.530
-602.113	546.460	-0.342	-0.822
-601.098	-21.424	0.997	0.611
-600.084	4.007	-0.571	0.419
-599.069	-16.952	0.722	-0.458
-598.055	-200.000	-0.028	-0.933
-597.040	-200.000	0.320	-0.001
-596.025	-200.000	-0.088	0.448
-595.011	-200.000	0.028	0.135
-593.996	-190.519	0.329	-0.004
-592.982	429.018	-0.175	0.379
-591.967	800.000	-0.369	-1.160
-590.952	5.416	-0.343	0.254
-589.938	-33.769	-0.122	-0.067
-588.923	-161.941	0.363	-0.018
-587.909	218.473	-0.356	-0.570
-586.894	349.784	-0.128	-0.253
-585.879	254.660	0.364	-0.626
-584.865	-109.741	0.193	0.041
-583.850	-1.725	-0.412	-0.291
-582.836	800.000	0.065	-0.200
-581.821	45.995	0.468	0.435
-580.806	-200.000	0.263	-1.303
-579.792	13.845	-0.585	-0.457
-578.777	-94.785	-0.429	-0.117
-577.763	-121.631	0.061	-0.010
-576.748	40.747	-0.567	0.514
-575.733	182.465	0.349	-0.517
-574.719	-73.131	0.901	-0.332
-573.704	154.579	-0.430	0.593
-572.690	-200.000	-0.110	0.581
-571.675	800.000	-0.091	-0.341
-570.661	-56.558	0.765	0.340
-569.646	114.508	-0.309	0.378
-568.631	-67.028	-0.128	-0.050
-567.617	-114.146	0.206	0.040
-566.602	-37.450	0.207	0.111
-565.588	236.303	0.114	0.189
-564.573	-133.199	0.485	-0.062
-563.558	-2.449	0.867	0.610
-562.544	-50.341	-0.228	-0.108
-561.529	411.643	-0.104	0.222
-560.515	-116.096	-0.501	0.094
-559.500	258.863	-0.165	0.286
-558.485	148.634	-0.417	-0.565
-557.471	-200.000	0.059	-0.640
-556.456	-82.827	-0.196	-0.063
-555.442	-106.335	-0.372	0.083
-554.427	-93.009	0.301	0.084
-553.412	160.973	-0.170	-0.238
-552.398	-25.745	-0.899	-0.531
-551.383	529.457	0.315	0.746
-550.369	-67.906	0.834	0.327
-549.354	-200.000	-0.062	-0.505
-548.339	-123.326	-0.424	0.068
-547.325	167.421	-0.076	0.108
-546.310	800.000	-0.150	-0.497
-545.296	-200.000	-0.006	-0.042
-544.281	800.000	-0.108	0.403
-543.266	-33.125	-0.502	-0.279
-542.252	39.823	0.524	-0.472
-541.237	778.810	-0.261	0.715
-540.223	-61.616	0.354	-0.149
-539.208	-45.374	0.547	0.272
-538.193	774.115	0.246	0.672
-537.179	800.000	-0.289	0.922
-536.164	-200.000	0.066	-0.327
-535.150	-125.916	-0.245	0.037
-534.135	-33.531	0.499	-0.276
-533.121	197.660	-0.271	0.415
-532.106	-200.000	0.074	1.214
-531.091	295.722	0.457	-0.838
-530.077	-132.472	-0.646	-0.083
-529.062	204.788	0.195	-0.304
-528.048	-154.783	-0.346	0.023
-527.033	-155.841	0.679	0.043
-526.018	-42.405	-0.640	0.327
-525.004	-93.870	0.151	-0.042
-523.989	-200.000	-0.090	-0.422
-522.975	756.149	-0.202	0.548
-521.960	2.171	-0.329	0.238
-520.945	63.901	0.320	-0.322
-519.931	-200.000	0.056	-0.676
-518.916	30.124	-0.272	0.233
-517.902	133.678	0.122	-0.157
-516.887	-200.000	-0.042	0.234
-515.872	65.553	-0.431	0.437
-514.858	-186.966	1.061	-0.015
-513.843	-59.643	0.251	-0.108
-512.829	73.853	-0.524	0.550
-511.814	-200.000	-0.143	0.657
-510.799	132.591	0.056	-0.072
-509.785	-200.000	0.011	-0.754
-508.770	48.011	-0.604	0.565
-507.756	47.952	-0.334	0.313
-506.741	107.009	0.397	-0.472
-505.726	-123.520	0.608	0.097
-504.712	-169.697	0.633	-0.023
-503.697	786.572	-0.219	-0.600
-502.683	30.783	0.832	0.713
-501.668	7.403	-0.402	-0.301
-500.653	-200.000	-0.052	-0.624
-499.639	9.096	-0.374	0.283
-498.624	-57.761	0.145	-0.063
-497.610	9.226	-0.418	-0.316
-496.595	-108.632	-0.811	0.174
-495.581	-61.859	-0.342	0.143
-494.566	-200.000	0.148	-0.683
-493.551	18.796	0.495	0.397
-492.537	-200.000	-0.057	0.313
-491.522	14.209	-0.357	0.278
-490.508	45.969	-0.214	-0.198
-489.493	-200.000	0.055	-1.253
-488.478	-200.000	-0.021	0.479
-487.464	326.315	-0.230	-0.440
-486.449	-75.063	0.301	-0.108
-485.435	467.980	-0.405	0.908
-484.420	800.000	0.300	1.012
-483.405	800.000	0.040	0.142
-482.391	-200.000	0.057	0.781
-481.376	-200.000	0.009	-0.087
-480.362	-86.988	-0.405	0.123
-479.347	-138.637	0.396	0.043
-478.332	-149.318	0.131	-0.010
-477.318	-53.881	-1.229	-0.560
-476.303	-66.304	-0.143	0.057
-475.289	-47.327	-0.517	-0.252
-474.274	204.397	0.376	0.583
-473.259	-18.275	-0.426	0.267
-472.245	-12.207	0.448	-0.293
-471.230	351.177	-0.271	-0.537
-470.216	-23.079	-0.610	0.367
-469.201	-20.484	0.276	-0.169
-468.186	-154.981	0.435	0.029
-467.172	300.451	0.191	0.352
-466.157	-101.108	0.332	-0.081
-465.143	-102.360	-0.641	-0.154
-464.128	181.296	0.182	-0.268
-463.113	800.000	-0.099	-0.397
-462.099	216.401	0.074	0.118
-461.084	-33.320	-0.284	-0.157
-460.070	-101.699	0.428	-0.104
-459.055	68.174	0.466	0.477
-458.040	389.759	0.113	0.235
-457.026	800.000	0.235	-0.740
-456.011	21.691	0.590	0.480
-454.997	490.931	-0.319	0.730
-453.982	-28.571	-0.259	-0.149
-452.968	-171.900	0.948	0.031
-451.953	-200.000	0.081	0.502
-450.938	-61.631	-0.780	-0.327
-449.924	124.371	-0.157	-0.197
-448.909	-144.607	-0.187	0.017
-447.895	-200.000	-0.048	0.702
-446.880	-106.595	-0.813	-0.181
-445.865	-69.944	-0.109	0.042
-444.851	4.952	1.246	0.916
-443.836	237.291	0.442	-0.731
-442.822	-92.508	0.918	-0.258
-441.807	-82.729	-0.437	0.141
-440.792	163.764	-0.817	1.148
-439.778	49.690	-0.538	-0.506
-438.763	-105.749	-0.901	-0.203
-437.749	-60.196	-0.914	-0.389
-436.734	345.919	0.486	0.954
-435.719	129.550	0.251	-0.320
-434.705	-52.373	-0.248	-0.114
-433.690	-70.042	0.542	0.206
-432.676	-82.540	0.467	0.151
-431.661	-4.583	0.323	0.223
-430.646	-47.018	0.682	-0.333
-429.632	-200.000	0.341	0.000
-428.617	-189.811	0.653	-0.007
-427.603	-141.013	0.802	0.082
-426.588	3.885	0.322	-0.235
-425.573	-28.962	0.055	0.031
-424.559	57.098	-0.348	-0.338
-423.544	67.066	-0.193	-0.197
-422.530	7.232	-0.191	-0.142
-421.515	-200.000	0.101	0.571
-420.500	254.033	-0.339	0.577
-419.486	-200.000	0.156	-0.880
-418.471	340.050	0.351	0.682
-417.457	-200.000	0.092	-0.502
-416.442	-82.862	1.198	-0.386
-415.428	558.073	0.283	-0.680
-414.413	-200.000	-0.103	-0.813
-413.398	-200.000	-0.142	-0.769
-412.384	-200.000	-0.212	-0.929
-411.369	99.509	-0.568	-0.656
-410.355	-92.586	0.681	0.191
-409.340	-33.209	-0.370	-0.204
-408.325	503.275	-0.131	0.302
-407.311	-11.095	0.219	0.144
-406.296	137.471	0.189	0.247
-405.282	-200.000	-0.044	-0.852
-404.267	166.640	-0.481	-0.681
-403.252	-20.474	0.360	-0.221
-402.238	-200.000	-0.014	0.820
-401.223	462.599	0.114	-0.253
-400.209	-176.505	-0.374	0.010
-399.194	-114.157	-0.696	-0.134
-398.179	-127.004	-0.383	-0.056
-397.165	-77.609	-0.109	0.038
-396.150	262.337	0.511	0.884
-395.136	800.000	-0.246	0.879
-394.121	-57.888	-0.380	0.165
-393.106	-200.000	0.049	0.286
-392.092	113.074	0.143	-0.173
-391.077	-200.000	0.012	0.571
-390.063	-38.397	-0.617	-0.325
-389.048	-42.908	0.155	0.078
-388.033	800.000	-0.157	0.496
-387.019	506.078	-0.209	0.483
-386.004	21.587	-0.491	0.398
-384.990	165.974	-0.311	0.438
-383.975	548.956	0.054	0.129
-382.960	-67.660	0.571	0.223
-381.946	-98.617	-0.717	0.182
-380.931	-67.336	1.075	-0.421
-379.917	118.373	0.173	0.213
-378.902	-173.411	-0.760	0.023
-377.888	60.565	0.100	-0.098
-376.873	217.196	0.305	-0.484
-375.858	-48.923	-1.202	-0.574
-374.844	62.330	-0.130	-0.129
-373.829	-43.182	-0.679	0.343
-372.815	-120.210	0.429	-0.073
-371.800	21.155	0.530	-0.429
-370.785	-34.233	-0.535	0.292
-369.771	734.943	0.191	-0.509
-368.756	-200.000	-0.180	0.000
-367.742	-188.755	0.571	-0.007
-366.727	210.801	0.360	-0.563
-365.712	65.720	-0.512	-0.516
-364.698	76.690	-0.632	-0.667
-363.683	6.530	0.522	-0.386
-362.669	-165.928	0.726	-0.031
-361.654	55.402	-0.490	-0.472
-360.639	-41.899	0.223	-0.114
-359.625	800.000	-0.327	1.139
-358.610	-200.000	0.029	-0.312
-357.596	-75.206	0.752	0.267
-356.581	118.558	-0.600	0.737
-355.566	479.299	-0.222	-0.502
-354.552	-200.000	-0.077	0.376
-353.537	-152.521	0.188	0.013
-352.523	-200.000	-0.040	-0.211
-351.508	-200.000	-0.057	0.596
-350.493	-114.191	-0.096	-0.018
-349.479	-200.000	0.219	-1.002
-348.464	75.497	-0.202	-0.212
-347.450	19.711	1.016	-0.813
-346.435	-114.692	-1.014	0.193
-345.420	162.349	0.363	-0.507
-344.406	-29.708	0.528	-0.300
-343.391	-200.000	0.221	1.049
-342.377	-200.000	0.009	0.895
-341.362	249.170	0.221	-0.373
-340.348	-24.477	-0.231	-0.137
-339.333	-20.784	-0.348	-0.212
-338.318	522.291	-0.385	0.900
-337.304	-0.471	0.095	-0.067
-336.289	-7.231	-1.162	-0.783
-335.275	4.627	0.265	-0.193
-334.260	-99.601	-0.945	0.236
-333.245	-138.340	-0.409	0.045
-332.231	-200.000	-0.010	0.878
-331.216	58.616	0.441	-0.430
-330.202	-200.000	-0.102	0.961
-329.187	800.000	0.288	-0.932
-328.172	-86.094	0.513	-0.157
-327.158	-200.000	0.017	0.082
-326.143	-61.985	-0.525	-0.218
-325.129	-62.190	-0.386	-0.160
-324.114	-88.675	0.600	-0.177
-323.099	-139.346	-0.552	-0.059
-322.085	-133.538	-0.318	0.040
-321.070	800.000	-0.301	0.857
-320.056	-57.665	0.644	0.280
-319.041	683.331	0.146	-0.378
-318.026	4.961	-0.508	0.371
-317.012	43.008	-0.207	-0.187
-315.997	-65.585	0.696	-0.278
-314.983	36.441	-0.111	-0.097
-313.968	-58.318	0.304	0.131
-312.953	-42.234	-0.128	-0.065
-311.939	-75.186	0.308	0.109
-310.924	670.025	0.141	0.361
-309.910	15.988	-0.201	-0.157
-308.895	225.268	-0.203	-0.326
-307.880	-54.086	0.149	-0.067
-306.866	730.705	0.168	-0.447
-305.851	309.227	-0.184	-0.342
-304.837	49.412	0.279	-0.260
-303.822	-47.280	0.417	-0.202
-302.807	-200.000	0.106	-0.984
-301.793	-165.115	0.402	0.018
-300.778	178.465	-0.008	-0.012
-299.764	135.591	-0.250	0.322
-298.749	-87.810	0.513	0.153
-297.735	305.285	0.228	0.421
-296.720	-30.521	-0.114	-0.064
-295.705	85.480	0.502	-0.547
-294.691	-200.000	0.016	0.102
-293.676	-55.297	0.367	-0.164
-292.662	-137.709	0.565	-0.063
-291.647	-200.000	0.101	-0.620
-290.632	-2.761	0.421	-0.292
-289.618	-200.000	0.112	-0.831
-288.603	-141.549	-0.849	0.085
-287.589	-119.882	-0.713	-0.122
-286.574	-82.809	0.909	0.292
-285.559	-84.593	0.738	-0.231
-284.545	-23.746	0.398	-0.237
-283.530	-96.561	-0.451	0.118
-282.516	249.186	-0.449	0.755
-281.501	27.274	-0.153	0.128
-280.486	182.289	0.224	0.327
-279.472	86.116	0.228	-0.250
-278.457	18.498	-0.215	0.170
-277.443	-148.731	-1.119	0.090
-276.428	-200.000	0.085	0.567
-275.413	-22.655	0.665	-0.399
-274.399	78.456	-0.149	0.158
-273.384	-7.177	0.285	0.192
-272.370	51.758	-0.152	0.144
-271.355	-54.008	-0.322	-0.146
-270.340	-115.431	0.496	-0.093
-269.326	-51.127	-0.577	0.268
-268.311	-34.506	-0.429	0.233
-267.297	-33.184	-0.667	-0.366
-266.282	721.150	0.097	0.257
-265.267	-200.000	-0.048	0.427
-264.253	-200.000	-0.106	-0.549
-263.238	-200.000	0.079	-0.514
-262.224	-134.013	-0.287	-0.035
-261.209	-112.207	0.842	0.168
-260.195	-200.000	0.154	0.798
-259.180	-200.000	-0.032	0.436
-258.165	67.851	-0.131	-0.132
-257.151	501.743	0.042	0.095
-256.136	-128.152	0.523	-0.074
-255.122	-86.940	-0.469	-0.142
-254.107	38.986	0.782	0.693
-253.092	73.356	-0.156	-0.162
-252.078	138.760	0.122	-0.159
-251.063	-200.000	0.012	-0.977
-250.049	-55.413	0.570	-0.254
-249.034	608.144	-0.388	0.958
-248.019	-56.241	-0.753	-0.332
-247.005	162.269	-0.553	-0.768
-245.990	-7.988	0.352	0.235
-244.976	-61.794	0.796	0.330
-243.961	-45.122	0.566	-0.279
-242.946	-200.000	0.109	-0.482
-241.932	121.715	0.337	-0.416
-240.917	116.674	-0.328	-0.398
-239.903	-200.000	-0.003	0.275
-238.888	800.000	-0.130	-0.444
-237.873	-101.396	0.240	0.058
-236.859	345.745	0.428	0.834
-235.844	-200.000	0.027	0.180
-234.830	-88.307	0.661	-0.196
-233.815	51.483	0.357	0.336
-232.800	249.928	-0.205	0.345
-231.786	61.121	-0.269	0.265
-230.771	800.000	-0.140	-0.510
-229.757	411.543	-0.141	0.297
-228.742	-16.372	-0.421	0.264
-227.727	166.842	-0.367	-0.515
-226.713	-88.991	0.901	-0.264
-225.698	-83.132	0.219	0.070
-224.684	-10.590	-1.008	0.660
-223.669	12.487	0.289	-0.221
-222.655	-200.000	0.056	-0.506
-221.640	55.269	-0.804	-0.770
-220.625	-200.000	0.027	-0.383
-219.611	-158.486	-1.095	0.063
-218.596	-10.132	-0.211	-0.139
-217.582	353.516	0.033	-0.065
-216.567	-200.000	0.070	-0.825
-215.552	800.000	0.148	0.613
-214.538	-43.049	-0.723	0.363
-213.523	-200.000	-0.114	-0.495
-212.509	220.806	-0.161	0.255
-211.494	-106.233	-0.527	0.117
-210.479	249.480	-0.262	-0.440
-209.465	-118.187	-0.818	-0.144
-208.450	346.011	-0.060	-0.116
-207.436	-200.000	0.017	-0.185
-206.421	139.187	0.146	-0.190
-205.406	39.661	0.451	0.401
-204.392	800.000	-0.129	0.537
-203.377	-200.000	-0.024	0.167
-202.363	-200.000	-0.111	0.890
-201.348	-200.000	0.076	-0.559
-200.333	-20.275	-0.352	-0.215
-199.319	-157.904	-0.277	-0.016
-198.304	-33.128	0.518	-0.284
-197.290	-200.000	0.090	0.646
-196.275	-200.000	0.080	0.461
-195.260	-200.000	0.219	1.080
-194.246	-52.814	-0.583	0.266
-193.231	604.839	0.104	0.257
-192.217	-200.000	-0.012	-0.408
-191.202	-107.411	0.658	0.143
-190.187	-200.000	-0.111	0.547
-189.173	-115.186	-0.927	0.174
-188.158	-73.050	1.002	0.363
-187.144	-200.000	0.037	-0.312
-186.129	562.976	0.107	-0.257
-185.114	-93.745	0.345	-0.094
-184.100	-100.248	0.412	-0.101
-183.085	800.000	-0.147	-0.404
-182.071	273.133	0.199	-0.347
-181.056	-200.000	0.123	-0.601
-180.042	-5.791	0.303	0.205
-179.027	-200.000	-0.061	-0.449
-178.012	27.356	-0.125	-0.104
-176.998	209.418	-0.407	-0.631
-175.983	800.000	0.129	-0.469
-174.969	-141.388	0.573	0.057
-173.954	237.499	0.352	0.577
-172.939	800.000	-0.207	0.715
-171.925	-200.000	0.051	0.481
-170.910	800.000	0.098	0.308
-169.896	800.000	0.263	0.889
-168.881	-200.000	0.060	0.483
-167.866	-200.000	-0.065	-0.401
-166.852	-73.777	-0.125	-0.045
-165.837	23.321	0.371	-0.302
-164.823	-91.543	-0.856	-0.241
-163.808	-200.000	-0.069	0.591
-162.793	800.000	0.172	-0.550
-161.779	2.717	0.383	0.275
-160.764	-27.771	0.176	-0.101
-159.750	-97.129	-0.870	-0.225
-158.735	126.137	0.512	0.640
-157.720	-200.000	-0.118	-1.398
-156.706	154.216	-0.330	-0.447
-155.691	45.286	-0.310	0.283
-154.677	164.581	-0.255	0.355
-153.662	-200.000	-0.056	0.272
-152.647	431.990	-0.466	0.997
-151.633	92.968	-0.596	0.665
-150.618	49.994	0.554	0.516
-149.604	-200.000	0.116	0.566
-148.589	-200.000	0.009	0.142
-147.574	-158.552	0.588	-0.034
-146.560	-73.563	-0.118	0.043
-145.545	268.766	-0.069	0.120
-144.531	-46.683	0.715	-0.346
-143.516	-99.038	-0.939	0.235
-142.502	29.615	-0.345	-0.290
-141.487	-200.000	-0.045	-0.844
-140.472	288.259	0.348	0.622
-139.458	232.386	0.433	-0.701
-138.443	800.000	-0.166	-0.548
-137.429	800.000	-0.050	0.191
-136.414	-200.000	0.030	1.219
-135.399	800.000	-0.199	0.581
-134.385	800.000	0.191	-0.697
-133.370	800.000	0.057	-0.232
-132.356	409.717	-0.416	0.869
-131.341	229.149	-0.311	-0.501
-130.326	157.756	-0.499	0.682
-129.312	-106.445	-0.088	0.019
-128.297	-140.413	0.569	0.058
-127.283	417.223	-0.243	0.511
-126.268	-200.000	0.132	0.652
-125.253	131.667	-0.204	-0.259
-124.239	-124.855	-0.760	-0.116
-123.224	-50.903	0.279	0.129
-122.210	-18.403	-0.828	0.510
-121.195	-86.229	-0.743	-0.226
-120.180	-11.470	-0.373	-0.242
-119.166	-9.984	-0.410	-0.269
-118.151	800.000	0.229	0.653
-117.137	81.157	0.347	0.369
-116.122	62.911	-0.454	0.448
-115.107	157.103	-0.341	0.465
-114.093	469.983	0.231	0.511
-113.078	800.000	0.112	-0.372
-112.064	-13.234	-0.104	-0.067
-111.049	108.135	0.448	0.526
-110.034	77.912	0.031	-0.032
-109.020	800.000	-0.059	0.202
-108.005	-71.849	0.306	0.112
-106.991	-112.629	-0.373	0.073
-105.976	-24.540	0.400	-0.235
-104.962	-35.425	0.426	-0.228
-103.947	229.117	-0.166	0.266
-102.932	8.010	-0.570	-0.421
-101.918	237.413	0.521	-0.850
-100.903	-90.627	-0.491	0.140
-99.889	-200.000	0.055	-0.399
-98.874	349.129	-0.319	-0.621
-97.859	-200.000	0.096	-0.810
-96.845	451.694	0.143	-0.310
-95.830	-200.000	0.076	0.485
-94.816	151.197	0.320	0.429
-93.801	97.305	0.200	-0.226
-92.786	-200.000	0.000	0.350
-91.772	-96.068	0.450	-0.118
-90.757	-133.425	-0.589	0.073
-89.743	-147.600	-0.770	0.064
-88.728	81.123	0.638	-0.679
-87.713	469.380	-0.239	0.529
-86.699	-120.817	0.526	-0.087
-85.684	800.000	-0.110	-0.410
-84.670	-200.000	-0.113	0.598
-83.655	-200.000	-0.078	0.563
-82.640	-10.225	0.759	0.496
-81.626	-107.906	1.016	-0.218
-80.611	111.801	0.031	0.037
-79.597	-9.935	-0.143	0.094
-78.582	76.655	-0.250	-0.261
-77.567	-49.303	-0.092	0.043
-76.553	-44.275	0.552	-0.272
-75.538	106.675	-0.224	-0.262
-74.524	-200.000	0.096	-0.653
-73.509	-126.913	-0.649	0.094
-72.494	-157.567	-0.138	-0.008
-71.480	368.102	-0.208	-0.413
-70.465	203.714	0.323	0.492
-69.451	28.887	0.427	0.356
-68.436	-200.000	-0.017	-0.227
-67.422	-31.797	0.276	0.152
-66.407	800.000	-0.123	-0.488
-65.392	42.459	-0.644	-0.576
-64.378	26.870	0.214	0.177
-63.363	-200.000	0.019	-0.892
-62.349	43.731	0.424	0.382
-61.334	-35.402	-1.382	-0.739
-60.319	79.492	1.161	1.225
-59.305	720.568	-0.359	-0.938
-58.290	-200.000	0.212	1.035
-57.276	213.750	1.204	1.874
-56.261	-200.000	95.792	599.729
-55.246	678.894	1352.932	3462.266
-54.232	204.557	2517.948	3840.168
-53.217	119.209	2138.697	2601.984
-52.203	42.910	1692.454	1517.264
-51.188	35.447	1506.490	1300.181
-50.173	33.118	1480.577	1262.233
-49.159	52.759	1533.167	1441.080
-48.144	53.889	1550.177	1464.691
-47.130	35.767	1507.891	1303.349
-46.115	32.660	1492.500	1269.116
-45.100	32.369	1490.093	1265.063
-44.086	32.682	1487.126	1264.593
-43.071	32.427	1486.117	1261.976
-42.057	32.150	1484.968	1259.092
-41.042	32.097	1483.913	1257.793
-40.027	32.269	1481.838	1257.134
-39.013	32.373	1480.682	1256.797
-37.998	32.464	1478.796	1255.756
-36.984	32.246	1479.034	1254.451
-35.969	32.296	1477.028	1253.038
-34.954	32.342	1476.039	1252.451
-33.940	32.333	1473.806	1250.447
-32.925	32.221	1473.061	1249.023
-31.911	32.404	1471.241	1248.643
-30.896	32.491	1469.469	1247.666
-29.881	32.157	1468.785	1244.823
-28.867	32.416	1466.812	1244.815
-27.852	32.453	1465.530	1243.926
-26.838	32.207	1464.494	1241.370
-25.823	32.313	1462.885	1240.660
-24.809	32.313	1461.222	1239.200
-23.794	32.432	1459.393	1238.381
-22.779	32.352	1458.690	1237.209
-21.765	32.312	1457.193	1235.623
-20.750	32.349	1455.663	1234.522
-19.736	32.437	1455.555	1234.961
-18.721	32.186	1454.604	1232.459
-17.706	32.396	1453.398	1232.765
-16.692	32.315	1452.163	1231.133
-15.677	32.190	1451.452	1229.667
-14.663	32.202	1450.584	1228.958
-13.648	32.329	1448.627	1228.083
-12.633	32.276	1447.951	1227.116
-11.619	32.335	1447.430	1227.007
-10.604	32.255	1446.819	1225.923
-9.590	32.308	1446.090	1225.600
-8.575	32.262	1445.409	1224.675
-7.560	32.230	1444.170	1223.368
-6.546	32.196	1443.136	1222.222
-5.531	32.462	1442.042	1222.975
-4.517	32.119	1441.038	1219.847
-3.502	32.216	1440.854	1220.276
-2.487	32.032	1439.459	1217.850
-1.473	32.358	1437.356	1218.134
-0.458	32.455	1436.137	1217.679
0.556	33.333	1427.535	1204.361
1.571	30.382	1401.423	1163.763
2.586	26.736	1342.680	1092.942
3.600	24.754	1263.606	1017.226
4.615	23.442	1216.931	972.374
5.629	20.390	1160.593	911.280
6.644	11.395	1076.300	801.049
7.659	4.351	1035.872	737.514
8.673	3.421	1031.306	729.797
9.688	3.074	1028.400	726.034
10.702	3.236	1025.307	724.549
11.717	3.270	1024.191	723.856
12.731	6.042	1028.177	739.678
13.746	15.461	1039.198	792.183
14.761	22.817	1048.849	834.375
15.775	24.699	1049.482	843.694
16.790	24.267	1050.422	842.333
17.804	23.881	1048.112	838.586
18.819	23.476	1046.682	835.459
19.834	23.467	1046.197	834.958
20.848	23.560	1046.088	835.234
21.863	23.672	1045.561	835.268
22.877	23.637	1045.591	835.049
23.892	23.557	1044.810	833.977
24.907	23.513	1043.615	832.745
25.921	23.409	1043.287	831.920
26.936	23.524	1041.082	830.628
27.950	22.985	1041.149	828.082
28.965	23.273	1039.565	828.096
29.980	23.261	1038.369	827.016
30.994	23.312	1037.090	826.161
32.009	23.538	1036.614	826.760
33.023	23.634	1035.895	826.561
34.038	23.773	1035.204	826.584
35.053	23.324	1034.969	824.236
36.067	23.391	1033.512	823.313
37.082	22.994	1032.541	820.626
38.096	23.421	1031.146	821.420
39.111	23.505	1031.234	821.809
40.126	23.740	1030.640	822.350
41.140	23.548	1029.556	820.523
42.155	23.236	1027.201	817.135
43.169	22.761	1027.956	815.471
44.184	22.689	1026.379	813.814
45.199	22.808	1024.591	812.873
46.213	22.544	1024.405	811.436
47.228	23.075	1022.702	812.459
48.242	23.019	1024.190	813.311
49.257	23.530	1022.159	813.970
50.271	23.700	1020.504	813.359
51.286	23.410	1020.525	811.976
52.301	23.470	1020.823	812.413
53.315	23.976	1019.228	813.388
54.330	23.691	1018.736	811.620
55.344	23.689	1017.311	810.403
56.359	23.263	1017.344	808.417
57.374	23.537	1015.438	808.075
58.388	23.183	1015.155	806.169
59.403	23.129	1014.843	805.603
60.417	22.816	1014.116	803.530
61.432	22.715	1013.215	802.285
62.447	22.817	1012.535	802.140
63.461	22.908	1011.771	801.877
64.476	23.048	1010.313	801.284
65.490	22.990	1009.885	800.609
66.505	22.825	1009.193	799.246
67.520	22.823	1007.477	797.809
68.534	22.652	1007.524	797.003
69.549	22.694	1006.490	796.302
70.563	22.421	1005.990	794.602
71.578	22.459	1005.189	794.070
72.593	22.357	1004.815	793.245
73.607	22.019	1002.808	790.071
74.622	22.250	1001.309	789.858
75.636	22.513	1000.482	790.315
76.651	22.483	1000.667	790.259
77.666	22.532	999.956	789.844
78.680	22.892	998.001	789.844
79.695	22.433	998.395	788.028
80.709	22.483	997.571	787.535
81.724	22.555	996.875	787.236
82.739	22.900	996.219	788.190
83.753	22.854	995.007	786.953
84.768	23.373	995.011	789.201
85.782	23.723	995.118	790.773
86.797	23.883	994.972	791.299
87.812	23.932	994.147	790.790
88.826	24.021	992.792	790.038
89.841	23.316	992.902	786.926
90.855	23.995	990.830	788.223
91.870	23.636	990.748	786.498
92.884	23.853	990.334	787.060
93.899	23.605	989.447	785.189
94.914	23.749	988.302	784.848
95.928	23.874	987.293	784.528
96.943	23.672	986.550	782.975
97.957	23.558	985.731	781.757
98.972	23.233	985.541	780.102
99.987	23.619	984.239	780.703
101.001	23.967	982.261	780.590
102.016	23.367	983.111	778.561
103.030	23.192	982.117	776.938
104.045	23.707	981.240	778.433
105.060	23.586	980.043	776.888
106.074	23.689	978.738	776.233
107.089	23.557	977.644	774.718
108.103	23.444	976.950	773.610
109.118	23.197	976.329	771.969
110.133	23.223	974.054	770.215
111.147	23.105	973.501	769.199
112.162	22.375	972.189	764.924
113.176	22.996	971.189	766.762
114.191	22.695	971.276	765.460
115.206	23.005	969.696	765.486
116.220	22.947	968.447	764.184
117.235	22.572	967.897	762.062
118.249	22.739	967.611	762.489
119.264	22.600	966.562	760.994
120.279	22.326	966.017	759.319
121.293	22.444	964.635	758.672
122.308	22.253	963.854	757.170
123.322	22.116	963.438	756.184
124.337	22.168	962.489	755.597
125.352	22.299	960.392	754.445
126.366	22.070	960.688	753.628
127.381	21.931	959.342	751.911
128.395	22.658	958.069	753.957
129.410	22.577	958.698	754.036
130.424	22.880	957.777	754.540
131.439	22.747	956.804	753.140
132.454	22.773	956.746	753.140
133.468	23.214	954.965	753.549
134.483	22.941	953.936	751.507
135.497	22.620	954.332	750.389
136.512	23.101	952.560	750.971
137.527	22.988	952.277	750.201
138.541	22.974	953.185	750.790
139.556	23.145	950.924	749.668
140.570	23.055	949.917	748.428
141.585	23.424	948.686	748.950
142.600	23.359	948.909	748.786
143.614	23.760	948.395	750.008
144.629	23.478	948.822	749.088
145.643	24.147	947.011	750.412
146.658	23.851	946.805	748.933
147.673	23.532	946.040	746.922
148.687	23.326	944.238	744.567
149.702	23.386	942.715	743.553
150.716	23.227	941.288	741.693
151.731	23.091	940.751	740.636
152.746	22.844	940.255	739.147
153.760	23.091	940.681	740.447
154.775	23.547	939.109	741.053
155.789	23.432	938.841	740.293
156.804	23.442	937.972	739.583
157.819	23.226	936.996	737.849
158.833	23.483	936.404	738.387
159.848	23.510	935.817	737.974
160.862	23.639	935.730	738.374
161.877	24.102	933.061	738.124
162.892	23.504	932.428	735.081
163.906	23.525	931.563	734.420
164.921	23.134	930.438	731.851
165.935	23.142	929.640	731.190
166.950	23.010	929.234	730.264
167.964	23.449	927.948	730.999
168.979	23.282	927.971	730.261
169.994	22.833	927.526	727.996
171.008	23.088	925.464	727.362
172.023	23.196	925.302	727.615
173.037	23.770	923.729	728.669
174.052	23.577	924.252	728.224
175.067	23.656	922.304	726.950
176.081	23.043	922.232	724.319
177.096	22.580	921.158	721.516
178.110	22.751	919.737	721.035
179.125	22.777	918.762	720.314
180.140	22.591	917.673	718.638
181.154	22.536	918.487	718.988
182.169	23.086	917.454	720.356
183.183	23.385	916.585	720.829
184.198	23.981	915.518	722.345
185.213	23.584	915.972	721.027
186.227	23.513	914.356	719.402
187.242	23.318	914.425	718.602
188.256	23.534	914.197	719.236
189.271	23.819	912.856	719.269
190.286	23.826	912.608	719.039
191.300	23.651	910.505	716.612
192.315	23.121	909.409	713.550
193.329	22.539	908.806	710.668
194.344	22.345	908.508	709.589
195.359	22.626	908.244	710.454
196.373	23.272	908.026	712.820
197.388	23.405	906.982	712.471
198.402	23.629	907.604	713.799
199.417	23.800	907.134	714.055
200.432	23.992	907.367	714.945
201.446	24.075	906.187	714.284
202.461	24.014	905.908	713.756
203.475	24.184	904.373	713.165
204.490	23.978	903.917	711.919
205.504	22.980	902.865	707.038
206.519	23.116	902.415	707.167
207.534	23.490	901.271	707.697
208.548	23.507	900.890	707.406
209.563	23.116	901.154	705.988
210.577	23.666	899.426	706.762
211.592	23.875	898.562	706.854
212.607	23.939	899.190	707.538
213.621	24.282	898.498	708.297
214.636	24.060	897.848	706.838
215.650	23.576	897.799	704.817
216.665	24.035	896.324	705.413
217.680	23.595	896.879	704.042
218.694	24.057	895.572	704.783
219.709	23.698	895.176	702.991
220.723	23.690	894.410	702.296
221.738	23.573	893.797	701.288
222.753	23.701	891.704	700.090
223.767	23.671	891.840	700.015
224.782	23.821	890.278	699.320
225.796	23.850	890.671	699.678
226.811	24.087	889.386	699.537
227.826	24.072	889.325	699.371
228.840	23.346	888.788	696.035
229.855	23.223	887.722	694.656
230.869	23.063	887.359	693.682
231.884	23.763	886.247	695.495
232.899	23.467	885.660	693.814
233.913	23.124	885.791	692.510
234.928	23.332	883.986	691.850
235.942	23.554	883.125	691.983
236.957	23.078	883.531	690.381
237.972	22.603	882.646	687.777
238.986	23.191	880.964	688.692
240.001	23.274	880.115	688.294
241.015	22.888	881.223	687.597
242.030	23.294	880.122	688.255
243.045	23.115	880.755	687.991
244.059	23.165	880.226	687.710
245.074	23.419	878.879	687.585
246.088	23.253	878.857	686.863
247.103	23.448	878.712	687.444
248.117	23.733	878.049	687.969
249.132	24.025	876.839	688.087
250.147	24.291	876.816	689.036
251.161	24.756	876.307	690.373
252.176	24.958	876.007	690.855
253.190	24.714	875.979	689.831
254.205	24.919	874.944	689.744
255.220	25.036	874.706	689.943
256.234	24.977	873.614	688.794
257.249	24.643	873.105	687.052
258.263	24.456	872.672	685.931
259.278	24.154	872.338	684.448
260.293	24.020	871.877	683.510
261.307	24.422	870.705	684.071
262.322	24.604	871.161	685.065
263.336	24.607	870.294	684.335
264.351	24.546	870.201	683.968
265.366	24.953	867.810	683.582
266.380	24.498	867.014	681.161
267.395	24.371	867.065	680.654
268.409	24.760	866.525	681.655
269.424	24.379	866.009	679.737
270.439	24.630	864.892	679.755
271.453	24.504	864.384	678.818
272.468	24.131	864.281	677.259
273.482	24.204	863.042	676.504
274.497	24.677	862.895	678.123
275.512	24.452	861.970	676.483
276.526	24.238	861.165	674.981
277.541	24.464	861.153	675.769
278.555	24.440	860.557	675.149
279.570	24.573	859.783	674.987
280.585	24.370	860.858	675.003
281.599	24.751	860.086	675.775
282.614	24.590	858.720	674.037
283.628	24.344	856.920	671.637
284.643	24.259	857.255	671.520
285.657	24.217	855.910	670.250
286.672	24.071	855.476	669.302
287.687	24.556	855.355	670.970
288.701	24.153	855.074	669.179
289.716	24.386	855.545	670.363
290.730	24.598	853.517	669.506
291.745	24.407	853.592	668.790
292.760	24.277	853.301	668.018
293.774	24.524	851.239	667.266
294.789	25.034	851.695	669.470
295.803	24.869	852.063	669.084
296.818	24.782	850.905	667.791
297.833	24.590	849.985	666.296
298.847	24.515	849.039	665.213
299.862	24.446	847.871	663.985
300.876	24.660	847.612	664.519
301.891	24.411	847.848	663.719
302.906	24.837	846.899	664.500
303.920	24.918	847.098	664.898
304.935	25.209	846.953	665.805
305.949	25.641	845.362	666.093
306.964	25.608	844.441	665.188
307.979	25.232	843.491	662.992
308.993	24.572	844.393	661.198
310.008	25.058	842.383	661.363
311.022	24.883	842.866	661.035
312.037	24.853	843.089	661.043
313.052	24.928	841.327	659.879
314.066	24.485	840.981	657.917
315.081	24.132	840.471	656.158
316.095	24.038	839.460	654.966
317.110	24.373	838.014	655.010
318.125	24.339	838.294	655.044
319.139	23.858	838.411	653.310
320.154	24.103	836.952	653.017
321.168	23.706	837.024	651.559
322.183	23.806	835.630	650.782
323.197	24.452	835.072	652.654
324.212	24.333	835.043	652.135
325.227	24.747	833.771	652.595
326.241	24.070	834.430	650.581
327.256	24.500	833.369	651.264
328.270	23.860	832.913	648.519
329.285	23.800	833.025	648.327
330.300	24.065	831.357	647.938
331.314	23.903	831.031	647.036
332.329	24.009	830.366	646.848
333.343	24.354	830.602	648.229
334.358	24.570	830.551	648.914
335.373	24.710	829.588	648.613
336.387	24.500	828.895	647.253
337.402	24.772	828.266	647.688
338.416	25.070	827.893	648.418
339.431	25.158	827.513	648.381
340.446	25.054	827.906	648.258
341.460	25.154	827.942	648.589
342.475	24.829	827.375	646.913
343.489	25.623	826.730	649.218
344.504	25.263	827.157	648.196
345.519	25.760	824.917	648.172
346.533	25.614	824.382	647.171
347.548	25.785	824.406	647.745
348.562	25.120	823.776	644.803
349.577	25.424	822.428	644.782
350.592	25.061	822.180	643.229
351.606	24.937	821.289	642.029
352.621	24.758	821.360	641.385
353.635	25.172	819.456	641.326
354.650	24.758	819.745	640.011
355.665	24.511	819.732	639.062
356.679	24.518	818.825	638.322
357.694	24.876	818.184	639.044
358.708	24.761	818.244	638.626
359.723	24.583	817.842	637.620
360.738	24.576	816.200	636.258
361.752	24.768	816.039	636.761
362.767	24.966	816.057	637.421
363.781	24.945	816.078	637.307
364.796	25.363	816.082	638.740
365.810	25.734	815.071	639.212
366.825	25.688	815.303	639.173
367.840	25.754	814.332	638.590
368.854	25.706	814.309	638.343
369.869	24.995	814.291	635.751
370.883	25.175	813.330	635.584
371.898	25.040	811.936	633.961
372.913	25.394	811.452	634.775
373.927	25.881	810.938	636.038
374.942	25.552	809.948	634.047
375.956	25.316	809.551	632.848
376.971	25.318	809.793	632.988
377.986	25.580	809.170	633.368
379.000	25.598	807.973	632.437
380.015	25.765	808.358	633.270
381.029	25.687	807.103	631.956
382.044	26.038	805.955	632.233
383.059	25.467	807.249	631.187
384.073	25.733	806.279	631.307
385.088	25.786	805.273	630.649
386.102	25.455	804.542	628.860
387.117	25.283	803.014	627.009
388.132	25.062	803.376	626.466
389.146	24.857	802.569	625.065
390.161	24.755	802.512	624.608
391.175	25.484	802.040	626.728
392.190	25.928	801.896	628.108
393.205	25.640	801.521	626.758
394.219	25.441	800.296	625.052
395.234	24.503	799.614	621.202
396.248	24.157	798.758	619.278
397.263	24.941	797.637	621.075
398.278	25.155	797.560	621.701
399.292	24.797	797.399	620.282
400.307	24.701	797.452	619.935
401.321	24.912	796.062	619.530
402.336	24.615	796.320	618.648
403.350	24.672	796.581	618.993
404.365	25.071	795.678	619.616
405.380	25.550	795.890	621.383
406.394	25.895	795.813	622.459
407.409	25.892	795.050	621.797
408.423	26.181	795.518	623.103
409.438	26.129	794.636	622.177
410.453	26.149	793.844	621.573
411.467	26.473	793.766	622.572
412.482	26.217	792.980	621.021
413.496	25.787	792.583	619.176
414.511	26.191	792.342	620.321
415.526	26.323	791.267	619.877
416.540	26.311	790.807	619.420
417.555	26.072	789.946	617.873
418.569	25.885	790.176	617.356
419.584	25.952	790.245	617.587
420.599	25.891	789.429	616.685
421.613	161.135	1369.398	1793.355
422.628	139.555	1453.913	1793.452
