DTS Sentinel unit serial number:	SN413079Multiplexer serial number:	ORYXHardware model number:	OX4-SRSoftware version number:	ORYX F/W v4.00 Oryx Data Collector v3.7.2.0data status	okinstallation	princeton_trtdifferential loss correction	single-endedforward channel	channel 3reverse channel	N/Adate	2019/09/13time	22:16:35forward acquisition time	60.00reverse acquisition time	0.00gamma	496.2192k internal	0.2335k external	0.2335temperature offset calibration	1.0064default loss term (dB/km)	0.3790temperature slope calibration	1.0000multiplexer offset coefficient	1.0000multiplexer slope coefficient	1.0000fibre end	0.00T internal ref (°C)	27.87T ext. ref 1 (°C)	3.25T ext. ref 2 (°C)	22.58length (m)	temperature (°C)	Stokes	anti-Stokes-747.200	-200.000	-0.016	-0.213
-746.185	378.090	0.067	0.138
-745.171	-10.868	0.200	0.133
-744.156	800.000	-0.099	0.376
-743.142	70.774	-0.224	0.233
-742.127	-124.205	0.202	0.032
-741.112	-71.619	0.215	0.081
-740.098	800.000	-0.025	0.085
-739.083	316.176	0.127	-0.241
-738.069	-51.144	-0.242	-0.114
-737.054	189.463	-0.252	0.380
-736.039	-123.167	-0.182	-0.029
-735.025	-94.450	0.313	-0.086
-734.010	-88.910	-0.159	-0.047
-732.996	-200.000	-0.004	0.063
-731.981	169.160	0.081	0.116
-730.966	-200.000	-0.148	-0.001
-729.952	102.638	-0.184	-0.216
-728.937	-133.360	-0.140	-0.018
-727.923	166.082	0.070	0.100
-726.908	-1.889	-0.170	-0.120
-725.894	-102.250	-0.460	-0.111
-724.879	45.888	0.258	0.239
-723.864	-83.475	0.102	0.033
-722.850	-93.602	-0.230	-0.064
-721.835	-146.690	0.210	0.018
-720.821	-26.609	-0.365	0.214
-719.806	173.805	-0.056	-0.081
-718.791	-200.000	-0.005	-0.125
-717.777	594.145	-0.159	0.395
-716.762	-200.000	0.011	-0.051
-715.748	-200.000	0.030	-0.223
-714.733	800.000	-0.173	-0.491
-713.718	325.676	-0.038	-0.073
-712.704	78.675	0.148	-0.159
-711.689	70.649	-0.156	-0.162
-710.675	184.781	-0.028	-0.042
-709.660	-200.000	0.038	-0.285
-708.645	-13.585	-0.208	-0.135
-707.631	-51.748	-0.264	-0.123
-706.616	153.739	-0.184	-0.253
-705.602	800.000	0.088	-0.334
-704.587	-200.000	-0.006	0.185
-703.572	800.000	-0.107	0.305
-702.558	-141.476	0.118	0.012
-701.543	-131.617	-0.245	-0.032
-700.529	-200.000	-0.075	-0.456
-699.514	575.546	0.040	-0.099
-698.499	186.575	0.164	-0.244
-697.485	-134.512	0.092	0.011
-696.470	118.270	-0.080	0.099
-695.456	-7.497	0.274	-0.186
-694.441	-48.184	-0.223	0.108
-693.426	58.819	-0.156	0.154
-692.412	576.411	0.044	-0.107
-691.397	15.261	0.042	0.033
-690.383	444.109	-0.072	-0.159
-689.368	-115.595	-0.173	0.033
-688.354	-200.000	0.013	-0.268
-687.339	387.081	-0.053	-0.109
-686.324	-200.000	-0.028	0.326
-685.310	-129.482	-0.258	-0.036
-684.295	210.943	0.182	0.287
-683.281	-116.093	-0.273	-0.051
-682.266	-151.084	0.231	0.017
-681.251	-200.000	-0.008	-0.099
-680.237	-92.520	0.179	0.050
-679.222	800.000	-0.036	0.148
-678.208	90.106	0.234	0.263
-677.193	-37.352	0.129	-0.069
-676.178	593.401	0.077	-0.191
-675.164	-60.037	0.287	-0.123
-674.149	36.014	0.039	-0.035
-673.135	-105.458	-0.024	0.006
-672.120	134.686	-0.230	-0.299
-671.105	15.715	-0.246	0.194
-670.091	800.000	0.020	-0.059
-669.076	128.660	-0.116	0.148
-668.062	-65.629	-0.303	-0.122
-667.047	-200.000	0.010	0.141
-666.032	-54.721	-0.097	0.044
-665.018	-200.000	-0.004	0.095
-664.003	220.850	-0.050	0.081
-662.989	301.350	0.059	-0.109
-661.974	-200.000	0.052	-0.305
-660.959	91.607	0.083	0.093
-659.945	137.792	0.089	0.117
-658.930	800.000	0.053	0.203
-657.916	-81.322	0.177	-0.058
-656.901	-38.828	0.222	-0.117
-655.886	-68.293	0.211	-0.082
-654.872	-76.871	-0.417	0.146
-653.857	-56.256	0.052	-0.023
-652.843	-105.908	0.305	0.069
-651.828	-200.000	-0.011	0.090
-650.814	800.000	-0.041	-0.146
-649.799	-200.000	0.249	0.001
-648.784	301.603	0.093	0.172
-647.770	722.025	0.070	-0.188
-646.755	-200.000	0.029	-0.395
-645.741	129.046	-0.192	-0.245
-644.726	-5.685	-0.121	-0.083
-643.711	118.082	0.110	0.136
-642.697	308.500	-0.035	-0.064
-641.682	-200.000	-0.011	-0.155
-640.668	266.792	0.235	0.411
-639.653	547.567	0.067	-0.160
-638.638	-200.000	-0.034	0.186
-637.624	438.073	-0.099	0.216
-636.609	-200.000	0.030	0.171
-635.595	-144.723	-0.162	-0.015
-634.580	-54.749	0.103	0.046
-633.565	-187.506	-0.272	-0.004
-632.551	-78.173	-0.227	-0.078
-631.536	255.184	0.114	-0.196
-630.522	-200.000	-0.089	0.434
-629.507	85.925	-0.040	0.044
-628.492	79.773	-0.192	-0.207
-627.478	-200.000	0.058	-0.324
-626.463	252.464	0.207	-0.353
-625.449	-3.260	-0.277	-0.193
-624.434	-200.000	-0.024	-0.247
-623.419	-116.448	-0.069	0.013
-622.405	33.488	0.306	-0.266
-621.390	633.821	-0.166	-0.422
-620.376	448.680	-0.117	-0.258
-619.361	-16.293	0.239	0.151
-618.346	41.620	0.152	0.138
-617.332	154.105	-0.170	-0.232
-616.317	-131.754	-0.373	-0.049
-615.303	-50.358	0.242	0.114
-614.288	-200.000	-0.052	-0.325
-613.273	-101.594	0.358	0.087
-612.259	-200.000	-0.000	-0.060
-611.244	251.690	-0.112	-0.191
-610.230	-161.504	-0.230	-0.012
-609.215	210.764	-0.129	0.203
-608.201	-73.457	-0.112	-0.041
-607.186	-200.000	0.000	-0.205
-606.171	596.214	-0.122	0.303
-605.157	-157.058	0.120	-0.007
-604.142	-200.000	0.019	0.154
-603.128	-143.261	-0.398	-0.038
-602.113	-118.509	0.148	-0.026
-601.098	-185.186	0.090	-0.001
-600.084	-200.000	0.022	-0.113
-599.069	-200.000	-0.000	-0.096
-598.055	800.000	-0.012	0.048
-597.040	24.359	-0.188	0.155
-596.025	800.000	0.040	-0.171
-595.011	-117.055	-0.449	-0.082
-593.996	5.300	-0.213	0.157
-592.982	37.613	-0.187	-0.166
-591.967	800.000	0.112	-0.466
-590.952	-12.244	0.158	-0.103
-589.938	800.000	-0.052	-0.203
-588.923	156.300	0.155	0.214
-587.909	-200.000	-0.006	-0.140
-586.894	-72.250	-0.263	0.097
-585.879	98.624	0.255	0.293
-584.865	19.008	-0.212	-0.170
-583.850	-55.505	0.130	-0.058
-582.836	-111.017	-0.484	-0.099
-581.821	-124.737	-0.285	0.044
-580.806	10.141	0.243	-0.184
-579.792	-118.114	-0.189	0.034
-578.777	-100.745	-0.121	-0.030
-577.763	25.632	0.227	-0.188
-576.748	800.000	0.052	-0.163
-575.733	-168.175	-0.233	-0.009
-574.719	-55.155	0.248	-0.111
-573.704	-42.573	0.029	-0.014
-572.690	-168.772	-0.203	-0.008
-571.675	12.797	-0.115	0.089
-570.661	97.457	-0.169	0.194
-569.646	-70.668	0.307	-0.116
-568.631	302.597	0.202	0.373
-567.617	-76.731	-0.422	0.148
-566.602	133.449	-0.156	-0.201
-565.588	-65.266	0.139	-0.056
-564.573	-57.788	-0.129	-0.056
-563.558	800.000	-0.037	-0.155
-562.544	-128.345	-0.310	0.044
-561.529	148.258	-0.385	-0.518
-560.515	-200.000	-0.030	-0.475
-559.500	-127.985	0.115	-0.016
-558.485	800.000	0.098	0.291
-557.471	-15.030	-0.140	-0.090
-556.456	-18.965	-0.135	-0.084
-555.442	578.574	0.073	0.177
-554.427	294.770	-0.120	0.219
-553.412	85.881	0.134	-0.147
-552.398	-112.434	-0.403	-0.080
-551.383	-31.461	0.328	0.184
-550.369	-200.000	-0.016	-0.080
-549.354	258.375	0.047	-0.080
-548.339	-92.040	0.156	0.044
-547.325	-18.717	-0.147	-0.091
-546.310	503.089	0.117	0.270
-545.296	534.032	0.115	-0.271
-544.281	800.000	0.038	0.141
-543.266	-188.835	0.199	0.002
-542.252	-61.486	-0.186	-0.078
-541.237	98.865	0.063	0.073
-540.223	-119.093	-0.355	-0.062
-539.208	99.480	0.229	-0.264
-538.193	488.407	-0.054	-0.124
-537.179	695.594	0.200	-0.523
-536.164	395.366	0.043	-0.090
-535.150	614.566	-0.082	0.204
-534.135	320.665	0.118	0.223
-533.121	-51.709	-0.233	0.108
-532.106	486.143	-0.029	0.065
-531.091	303.537	-0.104	-0.192
-530.077	-200.000	-0.033	-0.208
-529.062	95.750	-0.170	-0.193
-528.048	800.000	0.015	-0.052
-527.033	51.361	0.158	-0.149
-526.018	-33.018	-0.253	0.140
-525.004	-21.252	-0.173	-0.105
-523.989	-86.601	0.192	0.059
-522.975	800.000	-0.048	-0.173
-521.960	-200.000	-0.000	0.093
-520.945	39.091	0.320	0.285
-519.931	-127.551	-0.108	-0.016
-518.916	-200.000	0.003	0.087
-517.902	-124.309	0.311	-0.048
-516.887	81.853	-0.289	0.312
-515.872	-200.000	0.001	-0.166
-514.858	-178.959	-0.091	-0.002
-513.843	800.000	0.121	0.466
-512.829	-114.714	0.153	0.029
-511.814	126.440	-0.152	-0.191
-510.799	-95.923	0.057	-0.015
-509.785	96.312	-0.191	0.217
-508.770	-60.149	0.326	0.138
-507.756	91.485	0.104	-0.116
-506.741	54.665	-0.190	0.182
-505.726	-16.112	-0.315	-0.199
-504.712	800.000	0.097	-0.274
-503.697	-93.532	-0.374	0.103
-502.683	800.000	-0.041	-0.120
-501.668	214.051	-0.123	0.193
-500.653	-200.000	0.051	0.268
-499.639	164.655	-0.118	0.166
-498.624	-200.000	-0.003	0.371
-497.610	-67.467	-0.144	0.056
-496.595	-109.884	-0.222	-0.046
-495.581	-106.586	0.204	0.045
-494.566	196.551	0.238	0.360
-493.551	800.000	-0.050	-0.217
-492.537	28.206	-0.174	0.146
-491.522	41.074	-0.169	0.152
-490.508	-200.000	0.047	-0.217
-489.493	-200.000	-0.008	-0.192
-488.478	2.904	-0.342	0.247
-487.464	-116.592	0.266	-0.049
-486.449	-23.781	-0.162	-0.097
-485.435	-129.165	-0.161	0.022
-484.420	-73.723	0.217	0.079
-483.405	160.493	0.165	0.229
-482.391	-200.000	-0.037	-0.383
-481.376	-140.636	0.289	0.030
-480.362	26.865	0.156	-0.130
-479.347	60.366	0.187	-0.184
-478.332	-45.413	0.103	-0.051
-477.318	21.111	-0.015	-0.012
-476.303	-75.845	0.186	-0.065
-475.289	-26.789	-0.079	-0.046
-474.274	71.571	-0.236	0.243
-473.259	-10.682	0.229	-0.150
-472.245	-117.893	-0.148	0.026
-471.230	-29.607	0.123	-0.070
-470.216	-5.556	0.253	0.173
-469.201	-138.280	-0.096	-0.011
-468.186	-113.980	-0.071	0.014
-467.172	-123.938	0.082	0.013
-466.157	-200.000	-0.034	-0.162
-465.143	80.114	0.129	-0.138
-464.128	-55.746	-0.237	-0.105
-463.113	747.927	0.055	0.148
-462.099	33.034	-0.142	0.123
-461.084	17.483	-0.166	0.131
-460.070	62.685	-0.121	0.120
-459.055	321.775	-0.097	-0.184
-458.040	-200.000	-0.004	-0.233
-457.026	-200.000	0.115	0.000
-456.011	1.619	-0.177	0.126
-454.997	125.416	-0.082	0.103
-453.982	-131.230	-0.065	-0.009
-452.968	44.870	0.099	0.090
-451.953	-98.043	0.177	0.045
-450.938	123.806	0.107	0.133
-449.924	98.161	0.099	-0.113
-448.909	-200.000	0.027	-0.363
-447.895	373.244	0.067	0.136
-446.880	-93.637	-0.160	-0.044
-445.865	-200.000	-0.018	-0.150
-444.851	800.000	0.076	0.272
-443.836	-200.000	0.004	0.153
-442.822	25.890	0.147	-0.122
-441.807	-200.000	-0.017	-0.145
-440.792	-173.764	-0.238	-0.007
-439.778	-200.000	-0.019	0.363
-438.763	-18.427	0.158	0.098
-437.749	-200.000	-0.007	0.069
-436.734	129.064	0.169	-0.214
-435.719	125.072	0.074	0.092
-434.705	-72.580	0.163	0.060
-433.690	82.764	0.159	0.171
-432.676	-200.000	-0.011	0.100
-431.661	390.456	0.149	0.306
-430.646	-200.000	0.033	-0.280
-429.632	-75.517	0.133	-0.047
-428.617	-1.406	0.197	-0.138
-427.603	800.000	-0.076	0.249
-426.588	238.770	-0.114	0.188
-425.573	800.000	0.004	-0.017
-424.559	-127.738	0.027	-0.004
-423.544	9.154	0.073	-0.054
-422.530	152.486	-0.149	-0.202
-421.515	80.296	0.229	-0.245
-420.500	-200.000	-0.029	-0.179
-419.486	-200.000	0.025	0.124
-418.471	800.000	0.123	0.379
-417.457	800.000	-0.027	-0.103
-416.442	445.766	-0.104	0.226
-415.428	-170.312	-0.309	-0.011
-414.413	41.291	0.277	0.249
-413.398	127.197	0.104	-0.130
-412.384	-200.000	0.043	-0.301
-411.369	-50.062	0.334	0.157
-410.355	-200.000	-0.013	-0.087
-409.340	-58.737	-0.100	0.043
-408.325	154.564	0.175	-0.239
-407.311	800.000	-0.047	0.130
-406.296	-200.000	-0.002	0.083
-405.282	496.281	0.088	-0.201
-404.267	-120.428	0.394	-0.066
-403.252	-104.129	-0.324	-0.075
-402.238	72.014	0.037	0.038
-401.223	-119.569	0.276	0.047
-400.209	262.699	-0.179	-0.308
-399.194	-45.593	-0.246	0.120
-398.179	783.809	-0.096	0.261
-397.165	800.000	0.087	0.261
-396.150	-50.944	0.163	-0.076
-395.136	27.485	-0.336	-0.280
-394.121	785.026	-0.099	0.269
-393.106	45.776	0.089	-0.082
-392.092	-17.009	-0.247	-0.154
-391.077	-93.575	-0.129	-0.035
-390.063	800.000	0.010	0.034
-389.048	207.061	0.073	-0.112
-388.033	-175.590	0.207	0.006
-387.019	18.743	-0.110	-0.087
-386.004	357.053	-0.112	0.222
-384.990	13.833	-0.189	-0.146
-383.975	800.000	0.088	0.260
-382.960	-94.871	0.171	-0.046
-381.946	-200.000	0.038	-0.278
-380.931	-200.000	-0.024	-0.125
-379.917	-182.985	-0.139	0.002
-378.902	-144.923	0.184	0.017
-377.888	-200.000	0.029	0.142
-376.873	-107.938	-0.291	0.063
-375.858	800.000	-0.020	-0.071
-374.844	-200.000	0.049	-0.264
-373.829	65.742	-0.059	0.059
-372.815	607.398	0.053	0.130
-371.800	-111.204	0.169	-0.034
-370.785	-121.745	-0.183	-0.030
-369.771	-49.959	-0.117	0.055
-368.756	188.668	0.068	-0.101
-367.742	-200.000	0.001	0.077
-366.727	-200.000	-0.085	-0.421
-365.712	112.499	-0.014	-0.016
-364.698	3.494	0.172	-0.124
-363.683	-146.503	0.443	-0.038
-362.669	800.000	0.046	-0.154
-361.654	-29.756	-0.116	-0.065
-360.639	575.331	0.049	-0.117
-359.625	-20.374	-0.217	0.132
-358.610	-102.502	0.332	0.079
-357.596	309.913	-0.105	-0.194
-356.581	-30.181	-0.127	0.071
-355.566	-147.613	-0.077	-0.006
-354.552	800.000	0.040	-0.137
-353.537	-140.307	-0.123	-0.013
-352.523	-132.238	0.331	-0.042
-351.508	-23.031	-0.336	0.200
-350.493	800.000	-0.030	0.096
-349.479	116.360	-0.024	-0.029
-348.464	719.116	0.012	0.032
-347.450	-200.000	0.020	-0.219
-346.435	-88.811	-0.245	0.072
-345.420	90.921	0.340	0.377
-344.406	-200.000	0.018	-0.090
-343.391	-200.000	-0.007	0.189
-342.377	620.591	-0.057	0.142
-341.362	0.170	-0.059	0.042
-340.348	-80.673	0.196	0.065
-339.333	-19.601	0.116	-0.071
-338.318	176.373	0.204	-0.293
-337.304	800.000	0.055	0.188
-336.289	171.563	-0.106	0.151
-335.275	800.000	-0.035	0.106
-334.260	800.000	0.195	0.674
-333.245	-86.531	-0.166	0.050
-332.231	403.825	-0.109	-0.226
-331.216	155.149	0.269	-0.366
-330.202	372.208	0.083	-0.166
-329.187	-200.000	0.002	0.150
-328.172	-119.192	-0.287	-0.049
-327.158	-200.000	0.004	0.071
-326.143	-88.886	0.290	-0.085
-325.129	20.516	0.099	-0.079
-324.114	128.097	0.080	-0.101
-323.099	0.585	-0.062	0.044
-322.085	-36.748	0.090	0.048
-321.070	234.638	-0.043	0.070
-320.056	107.074	-0.369	0.433
-319.041	-37.392	0.296	-0.156
-318.026	-37.199	-0.327	-0.173
-317.012	472.052	-0.099	-0.221
-315.997	-56.464	0.152	0.067
-314.983	-194.064	-0.190	-0.002
-313.968	25.125	0.086	0.071
-312.953	-200.000	0.031	-0.158
-311.939	-200.000	0.047	0.255
-310.924	7.065	0.042	-0.031
-309.910	-120.933	-0.143	0.024
-308.895	109.343	0.098	0.116
-307.880	492.463	-0.092	0.208
-306.866	207.077	0.093	-0.143
-305.851	800.000	-0.077	0.267
-304.837	-6.445	0.220	-0.148
-303.822	800.000	0.112	-0.421
-302.807	218.708	0.102	0.161
-301.793	210.425	0.178	0.275
-300.778	-200.000	-0.027	0.299
-299.764	36.957	-0.134	0.117
-298.749	-200.000	-0.027	0.215
-297.735	333.736	-0.150	-0.287
-296.720	-62.076	-0.161	-0.067
-295.705	-200.000	0.003	0.261
-294.691	-45.473	-0.151	0.074
-293.676	800.000	0.036	-0.118
-292.662	800.000	-0.105	0.372
-291.647	-55.425	0.252	-0.112
-290.632	-200.000	-0.020	0.229
-289.618	-74.298	0.225	-0.080
-288.603	191.255	0.164	-0.243
-287.589	-64.236	-0.317	-0.128
-286.574	-115.949	0.231	0.042
-285.559	-20.739	-0.223	-0.135
-284.545	43.050	0.204	0.183
-283.530	-200.000	0.018	0.158
-282.516	175.588	0.115	0.164
-281.501	-92.033	-0.179	-0.050
-280.486	800.000	0.096	-0.350
-279.472	70.778	0.084	0.086
-278.457	-200.000	0.038	-0.183
-277.443	295.813	0.157	-0.284
-276.428	-45.661	-0.069	0.033
-275.413	-200.000	-0.044	0.241
-274.399	375.577	-0.041	0.082
-273.384	800.000	-0.025	0.099
-272.370	-108.801	-0.189	-0.040
-271.355	-21.458	-0.080	-0.048
-270.340	79.578	0.246	0.261
-269.326	-71.471	-0.289	0.107
-268.311	-38.345	0.273	-0.142
-267.297	-79.935	-0.258	0.085
-266.282	800.000	-0.086	0.335
-265.267	-109.972	0.346	0.071
-264.253	800.000	0.191	-0.573
-263.238	-0.568	-0.046	0.032
-262.224	46.225	0.319	-0.291
-261.209	-87.985	0.315	0.093
-260.195	314.564	0.081	0.150
-259.180	-165.723	0.142	-0.006
-258.165	-137.648	0.120	-0.013
-257.151	-200.000	-0.056	0.254
-256.136	191.208	0.179	-0.266
-255.122	121.011	0.047	0.058
-254.107	753.417	0.023	-0.061
-253.092	-67.636	-0.276	-0.107
-252.078	-200.000	0.032	-0.161
-251.063	-164.302	0.417	0.019
-250.049	80.197	-0.389	0.412
-249.034	-200.000	0.033	0.239
-248.019	153.263	0.137	0.185
-247.005	800.000	0.111	0.334
-245.990	-78.659	-0.142	0.048
-244.976	110.716	0.179	0.212
-243.961	44.112	-0.052	-0.047
-242.946	-157.454	0.160	-0.009
-241.932	-26.490	0.180	0.104
-240.917	53.487	0.300	0.284
-239.903	-200.000	0.020	0.095
-238.888	-63.202	-0.246	0.100
-237.873	298.326	-0.115	-0.207
-236.859	-200.000	-0.012	-0.064
-235.844	97.378	0.114	0.129
-234.830	23.602	-0.018	0.015
-233.815	174.150	0.059	0.084
-232.800	-114.685	-0.296	0.056
-231.786	-76.040	-0.183	-0.064
-230.771	-44.903	-0.112	0.055
-229.757	-140.933	-0.162	-0.016
-228.742	-68.271	-0.241	-0.092
-227.727	-165.453	0.057	-0.002
-226.713	-9.304	0.098	0.064
-225.698	-121.990	0.275	0.045
-224.684	-200.000	0.009	-0.076
-223.669	214.098	0.124	0.194
-222.655	600.316	0.050	-0.122
-221.640	6.614	-0.224	0.164
-220.625	126.899	-0.036	0.045
-219.611	79.046	0.016	-0.017
-218.596	-200.000	-0.029	-0.211
-217.582	163.593	0.103	0.143
-216.567	-188.744	-0.237	0.003
-215.552	-132.867	0.215	-0.027
-214.538	166.476	0.243	-0.339
-213.523	800.000	-0.049	0.202
-212.509	194.743	-0.017	-0.026
-211.494	315.731	0.117	-0.216
-210.479	-200.000	0.029	-0.255
-209.465	-200.000	-0.014	-0.193
-208.450	-67.625	0.072	0.028
-207.436	655.350	-0.086	-0.217
-206.421	-83.964	-0.231	-0.072
-205.406	-169.415	0.269	-0.010
-204.392	-143.968	0.166	0.015
-203.377	193.828	-0.237	-0.353
-202.363	800.000	0.012	-0.050
-201.348	220.492	-0.178	-0.281
-200.333	111.476	-0.061	-0.072
-199.319	88.392	0.098	-0.107
-198.304	-200.000	-0.006	-0.053
-197.290	-200.000	-0.007	-0.262
-196.275	-156.830	-0.051	-0.003
-195.260	365.427	0.015	0.030
-194.246	-12.034	-0.227	0.146
-193.231	-43.494	-0.253	0.126
-192.217	-2.234	0.257	-0.177
-191.202	101.957	-0.173	0.199
-190.187	800.000	-0.023	-0.077
-189.173	-151.487	0.544	0.040
-188.158	-12.938	-0.150	0.096
-187.144	177.267	-0.126	0.180
-186.129	47.747	-0.091	0.083
-185.114	800.000	-0.049	0.170
-184.100	21.101	-0.205	0.163
-183.085	763.909	0.007	-0.019
-182.071	37.996	0.372	0.325
-181.056	-200.000	-0.042	0.287
-180.042	21.667	0.284	0.227
-179.027	-200.000	-0.062	0.354
-178.012	-96.482	-0.224	0.058
-176.998	-74.993	0.098	-0.034
-175.983	-200.000	-0.016	-0.080
-174.969	-200.000	0.019	-0.286
-173.954	-72.303	-0.244	-0.089
-172.939	-106.199	-0.241	0.053
-171.925	744.003	0.079	0.208
-170.910	107.065	-0.260	0.304
-169.896	-60.990	0.130	0.054
-168.881	-57.504	-0.153	-0.066
-167.866	294.591	-0.123	-0.221
-166.852	261.356	-0.121	0.206
-165.837	32.090	-0.197	0.167
-164.823	79.283	0.180	0.189
-163.808	800.000	0.065	-0.243
-162.793	-91.202	-0.035	-0.010
-161.779	800.000	0.073	0.265
-160.764	-200.000	-0.002	0.014
-159.750	-51.625	0.210	-0.096
-158.735	-200.000	-0.032	-0.153
-157.720	-126.281	0.210	0.031
-156.706	-176.224	0.337	0.009
-155.691	-200.000	0.007	0.507
-154.677	46.272	0.207	0.189
-153.662	-75.162	0.182	0.064
-152.647	-152.374	0.228	0.016
-151.633	800.000	-0.071	-0.269
-150.618	-128.771	-0.385	0.053
-149.604	192.674	0.147	-0.217
-148.589	-200.000	-0.009	0.266
-147.574	281.283	-0.163	-0.286
-146.560	-62.075	-0.180	-0.074
-145.545	81.945	0.151	0.160
-144.531	-200.000	0.022	0.133
-143.516	353.843	0.056	0.108
-142.502	-183.140	-0.226	-0.004
-141.487	-50.246	-0.246	-0.114
-140.472	-77.148	0.033	-0.011
-139.458	-82.011	0.147	-0.047
-138.443	-97.340	0.175	0.045
-137.429	42.827	0.176	0.157
-136.414	-117.546	-0.341	-0.060
-135.399	800.000	0.053	0.204
-134.385	-11.269	-0.294	-0.190
-133.370	44.289	-0.087	0.078
-132.356	-31.167	0.216	0.120
-131.341	-78.962	0.226	-0.076
-130.326	-200.000	-0.000	0.039
-129.312	800.000	-0.019	-0.075
-128.297	-69.622	0.282	-0.106
-127.283	40.242	0.177	-0.156
-126.268	-25.958	-0.042	-0.024
-125.253	221.519	-0.134	-0.211
-124.239	800.000	-0.078	-0.258
-123.224	434.984	0.042	0.091
-122.210	32.861	0.403	0.342
-121.195	-154.609	-0.137	0.009
-120.180	106.031	0.150	0.174
-119.166	606.675	0.104	-0.254
-118.151	800.000	-0.047	-0.156
-117.137	0.392	-0.084	-0.059
-116.122	180.100	-0.202	-0.291
-115.107	-200.000	0.076	0.410
-114.093	-120.176	-0.439	-0.073
-113.078	800.000	-0.136	0.486
-112.064	-200.000	-0.024	0.111
-111.049	800.000	0.089	-0.381
-110.034	52.119	0.151	-0.141
-109.020	63.731	-0.080	0.078
-108.005	800.000	-0.015	-0.057
-106.991	-121.960	-0.183	-0.029
-105.976	-59.590	0.358	-0.150
-104.962	-25.423	-0.139	0.081
-103.947	68.892	0.257	-0.258
-102.932	-61.913	0.036	0.015
-101.918	-58.832	-0.302	0.128
-100.903	-200.000	0.044	-0.419
-99.889	-81.099	0.034	-0.011
-98.874	-200.000	-0.006	-0.217
-97.859	-54.899	0.513	-0.227
-96.845	23.969	0.429	-0.346
-95.830	138.426	0.386	-0.496
-94.816	-63.136	0.160	0.065
-93.801	-200.000	-0.055	0.288
-92.786	-44.069	0.143	-0.071
-91.772	-200.000	0.036	0.226
-90.757	800.000	0.133	-0.359
-89.743	-68.690	-0.315	0.119
-88.728	39.958	0.219	0.193
-87.713	369.755	0.111	0.221
-86.699	50.453	-0.206	-0.190
-85.684	403.976	-0.034	-0.070
-84.670	-69.052	-0.118	-0.044
-83.655	197.720	-0.183	-0.274
-82.640	-51.371	-0.185	-0.085
-81.626	-120.368	-0.116	0.019
-80.611	48.534	0.245	0.225
-79.597	230.815	-0.150	0.240
-78.582	283.073	0.162	0.285
-77.567	-99.413	-0.365	0.090
-76.553	35.648	0.100	-0.086
-75.538	800.000	0.031	0.130
-74.524	-189.286	-0.395	-0.005
-73.509	-46.169	0.084	0.040
-72.494	800.000	0.015	0.066
-71.480	603.688	-0.017	0.042
-70.465	800.000	0.040	-0.109
-69.451	-47.979	-0.192	-0.091
-68.436	800.000	-0.036	-0.142
-67.422	-37.979	0.529	0.275
-66.407	800.000	0.136	-0.457
-65.392	-111.726	0.381	-0.075
-64.378	609.578	0.088	0.216
-63.363	422.097	0.051	-0.106
-62.349	-200.000	0.013	-0.069
-61.334	206.085	-0.730	-1.110
-60.319	37.656	0.587	0.510
-59.305	301.473	-0.426	-0.770
-58.290	246.479	0.683	1.125
-57.276	800.000	0.446	1.411
-56.261	-200.000	113.877	661.500
-55.246	550.796	1515.938	3556.588
-54.232	180.085	2679.939	3841.759
-53.217	111.096	2169.225	2554.596
-52.203	38.606	1697.800	1480.732
-51.188	30.963	1517.233	1271.310
-50.173	28.644	1493.076	1235.431
-49.159	52.738	1551.355	1449.526
-48.144	51.808	1566.475	1457.232
-47.130	31.206	1522.485	1277.172
-46.115	28.225	1507.302	1244.160
-45.100	27.946	1504.333	1239.768
-44.086	27.941	1502.784	1238.408
-43.071	27.831	1500.502	1235.731
-42.057	27.839	1499.261	1234.716
-41.042	28.026	1496.947	1234.024
-40.027	27.938	1495.904	1232.524
-39.013	27.882	1494.443	1230.889
-37.998	27.914	1493.037	1229.899
-36.984	27.915	1491.946	1228.961
-35.969	27.890	1490.817	1227.814
-34.954	27.859	1489.882	1226.785
-33.940	27.760	1488.208	1224.694
-32.925	27.950	1486.242	1224.299
-31.911	27.861	1485.468	1223.018
-30.896	27.892	1484.551	1222.425
-29.881	27.982	1482.807	1221.540
-28.867	27.895	1481.802	1220.078
-27.852	27.877	1480.701	1219.008
-26.838	27.885	1479.170	1217.753
-25.823	27.866	1477.484	1216.188
-24.809	28.011	1475.690	1215.626
-23.794	27.866	1474.972	1214.025
-22.779	27.840	1473.881	1212.903
-21.765	27.909	1472.927	1212.530
-20.750	27.922	1471.334	1211.258
-19.736	27.942	1469.998	1210.240
-18.721	27.852	1469.066	1208.833
-17.706	27.935	1468.017	1208.468
-16.692	27.870	1466.797	1206.985
-15.677	27.816	1466.222	1206.108
-14.663	27.874	1465.254	1205.647
-13.648	27.883	1463.806	1204.465
-12.633	27.800	1463.723	1203.803
-11.619	27.855	1462.582	1203.180
-10.604	27.883	1461.271	1202.237
-9.590	27.904	1460.332	1201.555
-8.575	27.768	1459.886	1200.250
-7.560	27.891	1458.807	1200.118
-6.546	27.915	1458.198	1199.730
-5.531	27.825	1457.309	1198.356
-4.517	27.893	1455.935	1197.630
-3.502	27.819	1455.500	1196.739
-2.487	27.944	1453.961	1196.246
-1.473	27.777	1453.616	1194.816
-0.458	27.885	1452.133	1194.261
0.556	28.212	1442.237	1182.515
1.571	25.025	1416.817	1141.303
2.586	21.513	1354.932	1069.923
3.600	19.846	1271.302	994.223
4.615	18.738	1226.263	952.774
5.629	16.004	1170.950	895.208
6.644	9.103	1089.132	798.373
7.659	3.940	1052.155	746.346
8.673	3.392	1046.642	739.741
9.688	3.203	1043.543	736.579
10.702	3.196	1042.229	735.552
11.717	3.199	1039.988	733.924
12.731	5.160	1041.161	744.040
13.746	11.920	1051.453	783.776
14.761	18.392	1059.272	820.641
15.775	19.919	1060.599	828.915
16.790	19.569	1058.622	825.622
17.804	18.435	1056.689	818.625
18.819	17.668	1054.662	813.324
19.834	17.267	1053.465	810.420
20.848	17.022	1052.569	808.490
21.863	16.916	1052.209	807.639
22.877	16.717	1051.743	806.262
23.892	16.587	1050.301	804.467
24.907	16.506	1049.737	803.575
25.921	16.456	1048.861	802.599
26.936	16.574	1047.652	802.161
27.950	16.391	1047.304	800.955
28.965	16.564	1045.931	800.653
29.980	16.602	1044.945	800.011
30.994	16.837	1043.683	800.081
32.009	16.707	1043.548	799.292
33.023	16.787	1042.533	798.823
34.038	16.798	1041.853	798.281
35.053	16.653	1040.895	796.798
36.067	16.718	1039.830	796.216
37.082	16.620	1038.657	794.786
38.096	16.647	1038.114	794.427
39.111	16.672	1037.789	794.228
40.126	16.809	1036.782	794.025
41.140	16.737	1035.281	792.472
42.155	16.555	1034.051	790.610
43.169	16.334	1033.436	789.036
44.184	16.174	1032.135	787.224
45.199	16.182	1031.010	786.336
46.213	16.152	1030.536	785.763
47.228	16.231	1029.292	785.114
48.242	16.600	1028.338	786.032
49.257	16.678	1027.622	785.775
50.271	16.593	1026.473	784.434
51.286	16.535	1026.098	783.812
52.301	16.663	1024.801	783.344
53.315	16.610	1024.147	782.528
54.330	16.733	1022.834	782.025
55.344	16.420	1022.517	780.268
56.359	16.321	1021.527	778.988
57.374	16.452	1020.438	778.691
58.388	16.417	1019.653	777.860
59.403	16.359	1018.805	776.880
60.417	16.163	1018.304	775.527
61.432	16.373	1017.291	775.653
62.447	16.372	1016.591	775.043
63.461	16.196	1015.873	773.623
64.476	16.104	1015.309	772.700
65.490	16.025	1014.192	771.423
66.505	16.156	1013.038	771.076
67.520	16.106	1012.639	770.476
68.534	16.238	1011.857	770.413
69.549	16.241	1011.171	769.835
70.563	16.269	1010.186	769.147
71.578	16.099	1009.568	767.832
72.593	15.928	1008.597	766.251
73.607	16.043	1007.268	765.695
74.622	15.843	1006.733	764.313
75.636	15.881	1005.874	763.764
76.651	15.955	1005.275	763.576
77.666	16.058	1004.562	763.435
78.680	16.016	1003.680	762.505
79.695	16.066	1003.398	762.450
80.709	16.107	1002.774	762.097
81.724	16.180	1001.946	761.728
82.739	16.224	1001.242	761.323
83.753	16.394	1000.069	761.132
84.768	16.444	999.732	761.033
85.782	16.617	999.263	761.387
86.797	16.880	998.453	761.885
87.812	16.874	997.362	760.959
88.826	16.814	996.431	759.908
89.841	16.604	995.683	758.333
90.855	16.674	995.217	758.221
91.870	16.830	994.338	758.185
92.884	16.787	994.020	757.684
93.899	16.886	993.044	757.315
94.914	16.799	991.825	755.931
95.928	16.853	991.053	755.515
96.943	16.865	990.800	755.309
97.957	16.698	990.015	753.901
98.972	16.827	988.813	753.492
99.987	16.652	988.244	752.211
101.001	16.747	987.496	751.997
102.016	16.747	986.990	751.547
103.030	16.726	985.691	750.396
104.045	16.749	985.193	750.053
105.060	16.892	983.940	749.668
106.074	16.588	983.215	747.705
107.089	16.470	981.910	746.124
108.103	16.256	980.925	744.366
109.118	16.126	980.179	743.163
110.133	16.181	979.185	742.585
111.147	16.332	978.130	742.384
112.162	16.147	977.556	741.067
113.176	16.184	977.057	740.789
114.191	16.350	976.061	740.695
115.206	16.325	975.115	739.803
116.220	16.503	973.911	739.603
117.235	16.297	973.384	738.237
118.249	16.304	972.647	737.641
119.264	16.327	971.546	736.840
120.279	16.255	970.675	735.801
121.293	16.163	970.148	734.938
122.308	16.116	969.487	734.167
123.322	16.086	968.260	733.043
124.337	16.055	967.457	732.237
125.352	15.926	966.412	730.820
126.366	16.127	965.252	730.747
127.381	16.199	963.823	729.913
128.395	16.084	962.968	728.706
129.410	16.005	962.434	727.896
130.424	16.088	961.444	727.441
131.439	16.195	960.690	727.265
132.454	16.320	960.219	727.385
133.468	16.276	959.517	726.597
134.483	16.291	958.865	726.107
135.497	16.364	958.220	725.864
136.512	16.245	957.530	724.766
137.527	16.236	956.818	724.128
138.541	16.406	955.756	723.988
139.556	16.376	954.985	723.210
140.570	16.351	954.584	722.736
141.585	16.478	953.686	722.536
142.600	16.685	953.010	722.841
143.614	16.723	952.387	722.469
144.629	16.654	951.936	721.769
145.643	16.922	951.008	722.144
146.658	16.756	950.197	720.755
147.673	16.750	949.146	719.871
148.687	16.595	948.082	718.341
149.702	16.438	947.349	717.056
150.716	16.504	946.069	716.302
151.731	16.429	945.565	715.541
152.746	16.390	944.817	714.745
153.760	16.529	943.706	714.428
154.775	16.418	943.444	713.698
155.789	16.731	942.643	714.350
156.804	16.676	942.031	713.592
157.819	16.702	941.136	712.959
158.833	16.561	940.643	711.929
159.848	16.757	940.008	712.210
160.862	16.812	939.489	711.986
161.877	16.905	938.658	711.682
162.892	16.635	937.365	709.508
163.906	16.485	936.649	708.275
164.921	16.460	935.685	707.379
165.935	16.415	934.926	706.554
166.950	16.509	933.857	706.078
167.964	16.609	933.040	705.814
168.979	16.613	932.171	705.111
169.994	16.521	931.333	704.033
171.008	16.425	930.337	702.816
172.023	16.542	929.626	702.702
173.037	16.736	928.748	702.783
174.052	16.787	927.865	702.263
175.067	16.872	927.312	702.134
176.081	16.556	926.575	700.209
177.096	16.501	925.463	699.076
178.110	16.518	924.442	698.315
179.125	16.458	924.210	697.831
180.140	16.617	923.203	697.663
181.154	16.554	922.704	696.967
182.169	16.634	921.988	696.691
183.183	16.764	921.603	696.875
184.198	16.936	920.810	696.922
185.213	16.980	920.204	696.582
186.227	16.847	919.544	695.473
187.242	16.826	919.088	694.983
188.256	16.927	918.603	694.968
189.271	17.222	917.316	695.138
190.286	17.054	917.172	694.282
191.300	16.874	916.363	692.870
192.315	16.595	914.941	690.596
193.329	16.350	914.472	689.181
194.344	16.395	913.496	688.569
195.359	16.501	912.955	688.532
196.373	16.596	912.853	688.780
197.388	16.830	911.880	688.934
198.402	16.893	911.816	689.082
199.417	17.056	911.630	689.545
200.432	17.167	911.136	689.560
201.446	17.246	910.738	689.520
202.461	17.250	910.364	689.189
203.475	17.239	909.650	688.544
204.490	17.470	908.580	688.609
205.504	17.092	908.111	686.664
206.519	16.922	907.275	685.281
207.534	16.922	906.617	684.724
208.548	17.035	905.376	684.183
209.563	17.011	904.720	683.531
210.577	16.969	904.392	683.051
211.592	17.072	903.425	682.677
212.607	17.207	903.413	683.149
213.621	17.314	902.373	682.733
214.636	17.333	901.769	682.293
215.650	17.317	900.946	681.543
216.665	17.180	901.006	680.978
217.680	17.338	900.462	681.141
218.694	17.416	900.065	681.094
219.709	17.534	899.317	680.939
220.723	17.367	898.521	679.609
221.738	17.333	897.903	678.945
222.753	17.430	896.773	678.417
223.767	17.392	896.228	677.792
224.782	17.572	895.322	677.767
225.796	17.503	894.875	677.094
226.811	17.611	894.143	676.906
227.826	17.456	894.127	676.219
228.840	17.416	892.933	675.098
229.855	17.214	892.505	673.913
230.869	17.406	891.555	673.898
231.884	17.369	891.000	673.271
232.899	17.320	890.085	672.325
233.913	17.256	889.353	671.463
234.928	17.231	888.824	670.905
235.942	17.116	887.893	669.688
236.957	17.064	887.658	669.247
237.972	17.233	886.704	669.137
238.986	17.206	886.046	668.474
240.001	17.275	885.448	668.235
241.015	17.194	884.943	667.475
242.030	17.345	884.326	667.544
243.045	17.370	883.491	666.954
244.059	17.472	882.930	666.869
245.074	17.418	882.717	666.439
246.088	17.392	882.101	665.811
247.103	17.424	881.381	665.334
248.117	17.520	881.021	665.379
249.132	17.781	880.338	665.822
250.147	17.921	879.471	665.654
251.161	18.050	879.557	666.164
252.176	18.159	878.862	666.004
253.190	18.161	877.988	665.291
254.205	18.133	877.506	664.759
255.220	18.225	876.508	664.300
256.234	18.264	875.819	663.871
257.249	18.196	875.623	663.397
258.263	18.221	875.573	663.400
259.278	18.186	874.529	662.412
260.293	18.237	874.010	662.159
261.307	18.197	873.636	661.663
262.322	18.185	873.486	661.443
263.336	18.353	872.681	661.426
264.351	18.335	871.918	660.718
265.366	18.393	870.922	660.129
266.380	18.358	870.679	659.752
267.395	18.214	870.135	658.728
268.409	18.160	869.183	657.741
269.424	18.260	868.094	657.240
270.439	18.242	867.572	656.720
271.453	18.334	866.695	656.349
272.468	18.145	866.218	655.208
273.482	18.140	865.609	654.668
274.497	18.223	864.788	654.307
275.512	18.082	864.870	653.771
276.526	18.108	863.545	652.810
277.541	18.216	862.844	652.636
278.555	18.289	862.293	652.439
279.570	18.331	861.826	652.190
280.585	18.368	861.614	652.113
281.599	18.559	860.939	652.270
282.614	18.459	859.972	651.098
283.628	18.206	859.654	649.840
284.643	18.263	859.123	649.598
285.657	18.189	858.717	648.951
286.672	18.192	857.965	648.340
287.687	18.319	857.527	648.430
288.701	18.380	856.865	648.105
289.716	18.305	856.626	647.582
290.730	18.297	855.903	646.948
291.745	18.315	855.407	646.584
292.760	18.456	854.770	646.575
293.774	18.430	853.698	645.611
294.789	18.578	853.756	646.157
295.803	18.625	853.010	645.710
296.818	18.501	852.113	644.509
297.833	18.484	851.340	643.805
298.847	18.503	850.801	643.409
299.862	18.608	850.437	643.470
300.876	18.491	849.605	642.346
301.891	18.523	849.253	642.144
302.906	18.896	848.205	642.690
303.920	18.711	848.085	641.849
304.935	18.797	847.968	642.025
305.949	18.859	847.153	641.582
306.964	18.870	846.612	641.159
307.979	18.721	845.828	639.953
308.993	18.713	845.434	639.567
310.008	18.796	844.652	639.228
311.022	18.865	844.123	639.027
312.037	18.921	843.608	638.790
313.052	18.757	843.050	637.700
314.066	18.533	842.602	636.475
315.081	18.461	841.577	635.375
316.095	18.554	841.084	635.291
317.110	18.577	840.477	634.864
318.125	18.505	840.156	634.297
319.139	18.709	839.651	634.616
320.154	18.476	839.173	633.336
321.168	18.508	838.784	633.106
322.183	18.503	838.078	632.499
323.197	18.705	837.693	632.895
324.212	18.589	837.143	631.999
325.227	18.659	836.914	632.027
326.241	18.782	835.987	631.724
327.256	18.656	835.543	630.868
328.270	18.577	834.596	629.808
329.285	18.585	834.165	629.456
330.300	18.569	833.694	628.985
331.314	18.702	833.128	628.992
332.329	18.707	832.552	628.518
333.343	18.744	831.908	628.112
334.358	18.875	831.622	628.320
335.373	18.871	830.943	627.736
336.387	19.003	830.250	627.638
337.402	18.999	829.978	627.363
338.416	19.033	829.425	627.013
339.431	19.074	829.105	626.865
340.446	19.217	828.590	626.940
341.460	19.292	828.041	626.744
342.475	19.326	827.118	626.114
343.489	19.467	826.558	626.144
344.504	19.587	826.138	626.208
345.519	19.488	825.806	625.541
346.533	19.592	825.103	625.331
347.548	19.463	824.929	624.674
348.562	19.304	824.476	623.702
349.577	19.262	823.434	622.706
350.592	19.118	822.632	621.526
351.606	19.051	822.632	621.227
352.621	19.024	821.936	620.548
353.635	18.922	821.387	619.714
354.650	19.019	821.372	619.995
355.665	19.112	820.794	619.838
356.679	19.140	820.479	619.650
357.694	19.438	819.705	620.082
358.708	19.274	819.383	619.193
359.723	19.276	818.551	618.517
360.738	19.311	818.121	618.263
361.752	19.155	817.863	617.452
362.767	19.189	817.663	617.367
363.781	19.317	817.296	617.496
364.796	19.586	816.647	617.914
365.810	19.513	816.589	617.552
366.825	19.636	816.040	617.524
367.840	19.841	815.580	617.854
368.854	19.692	815.462	617.176
369.869	19.541	814.636	615.958
370.883	19.685	813.846	615.820
371.898	19.619	813.495	615.266
372.913	19.730	812.703	615.008
373.927	19.741	812.828	615.084
374.942	19.834	811.377	614.262
375.956	19.676	810.952	613.326
376.971	19.662	810.569	612.933
377.986	19.805	809.870	612.858
379.000	20.026	809.453	613.269
380.015	20.001	808.761	612.602
381.029	19.954	808.634	612.285
382.044	19.892	807.884	611.446
383.059	19.910	807.133	610.888
384.073	19.905	806.684	610.476
385.088	19.931	806.057	610.037
386.102	19.750	805.523	608.941
387.117	19.707	804.598	608.038
388.132	19.648	804.602	607.778
389.146	19.820	803.999	607.874
390.161	19.728	804.067	607.550
391.175	19.838	803.693	607.598
392.190	19.927	803.044	607.367
393.205	19.885	802.568	606.806
394.219	19.806	802.080	606.105
395.234	19.803	801.841	605.861
396.248	19.720	800.838	604.758
397.263	19.565	800.678	604.043
398.278	19.668	799.974	603.820
399.292	19.607	799.449	603.155
400.307	19.574	799.118	602.737
401.321	19.689	798.502	602.619
402.336	19.518	798.262	601.789
403.350	19.673	798.121	602.169
404.365	19.738	797.399	601.799
405.380	19.985	797.031	602.326
406.394	20.004	796.673	602.068
407.409	19.963	796.558	601.787
408.423	19.929	796.126	601.289
409.438	20.233	795.401	601.741
410.453	20.323	795.098	601.774
411.467	20.342	795.026	601.729
412.482	20.371	794.532	601.405
413.496	20.387	793.837	600.881
414.511	20.490	793.326	600.795
415.526	20.402	793.131	600.290
416.540	20.356	792.834	599.853
417.555	20.371	792.112	599.307
418.569	20.400	791.511	598.899
419.584	20.434	791.035	598.605
420.599	20.385	790.737	598.155
421.613	161.266	1371.683	1795.103
422.628	139.676	1456.311	1795.177
