DTS Sentinel unit serial number:	SN413079Multiplexer serial number:	ORYXHardware model number:	OX4-SRSoftware version number:	ORYX F/W v4.00 Oryx Data Collector v3.7.2.0data status	okinstallation	princeton_trtdifferential loss correction	single-endedforward channel	channel 3reverse channel	N/Adate	2019/09/17time	20:32:35forward acquisition time	60.00reverse acquisition time	0.00gamma	496.2192k internal	0.2329k external	0.2329temperature offset calibration	0.9954default loss term (dB/km)	0.3790temperature slope calibration	1.0000multiplexer offset coefficient	1.0000multiplexer slope coefficient	1.0000fibre end	0.00T internal ref (°C)	30.47T ext. ref 1 (°C)	0.21T ext. ref 2 (°C)	21.17length (m)	temperature (°C)	Stokes	anti-Stokes-747.200	800.000	0.036	0.138
-746.185	-35.099	0.531	0.291
-745.171	-200.000	-0.004	-0.284
-744.156	91.889	0.156	0.177
-743.142	-34.190	-0.062	0.034
-742.127	89.805	-0.165	-0.185
-741.112	4.147	0.220	-0.162
-740.098	646.419	-0.140	0.361
-739.083	302.852	0.050	-0.093
-738.069	-200.000	-0.064	0.365
-737.054	320.150	0.125	0.239
-736.039	-122.148	-0.305	0.050
-735.025	186.573	0.235	0.352
-734.010	-10.818	-0.045	-0.030
-732.996	-57.443	-0.233	0.103
-731.981	165.561	0.143	-0.203
-730.966	248.203	-0.116	-0.198
-729.952	800.000	-0.107	-0.312
-728.937	-200.000	-0.028	-0.126
-727.923	163.208	-0.119	-0.169
-726.908	20.573	-0.196	0.160
-725.894	36.038	-0.157	0.139
-724.879	-67.107	-0.077	0.030
-723.864	446.352	0.100	0.222
-722.850	-47.689	0.390	0.190
-721.835	-63.728	0.134	0.055
-720.821	749.459	-0.111	0.302
-719.806	66.631	-0.099	0.102
-718.791	-104.892	0.190	-0.044
-717.777	-112.569	-0.248	-0.050
-716.762	-86.660	-0.066	0.020
-715.748	800.000	0.067	-0.187
-714.733	-200.000	-0.003	0.131
-713.718	312.854	0.123	0.233
-712.704	160.295	-0.084	-0.118
-711.689	55.155	-0.022	0.022
-710.675	46.142	-0.117	-0.109
-709.660	-64.987	0.338	-0.137
-708.645	24.393	-0.239	-0.199
-707.631	-200.000	0.009	0.062
-706.616	-200.000	0.033	0.449
-705.602	-155.302	0.182	0.012
-704.587	338.530	-0.091	-0.178
-703.572	-200.000	-0.007	0.266
-702.558	-2.019	-0.218	-0.154
-701.543	800.000	0.093	-0.297
-700.529	-51.567	0.484	0.227
-699.514	-154.356	0.129	-0.009
-698.499	458.908	0.105	0.235
-697.485	491.944	0.022	0.050
-696.470	79.184	-0.091	0.098
-695.456	-200.000	-0.006	0.330
-694.441	25.764	0.364	-0.304
-693.426	800.000	0.047	0.131
-692.412	-28.895	-0.103	-0.060
-691.397	-172.788	-0.261	0.008
-690.383	-200.000	0.014	-0.080
-689.368	34.554	-0.303	-0.266
-688.354	38.550	-0.113	0.101
-687.339	26.659	0.237	-0.199
-686.324	-132.296	0.169	-0.022
-685.310	372.527	-0.139	-0.283
-684.295	75.485	-0.227	-0.241
-683.281	12.117	0.299	-0.231
-682.266	-138.732	-0.422	0.046
-681.251	-200.000	-0.019	-0.115
-680.237	-172.418	0.177	0.006
-679.222	98.906	0.096	-0.111
-678.208	43.867	-0.273	0.251
-677.193	-200.000	0.002	0.120
-676.178	9.759	0.221	0.168
-675.164	-200.000	-0.003	-0.084
-674.149	-69.413	-0.229	-0.088
-673.135	17.237	0.090	0.071
-672.120	86.609	-0.106	0.117
-671.105	121.010	-0.168	-0.210
-670.091	-42.176	0.231	0.119
-669.076	800.000	0.062	-0.179
-668.062	-30.743	-0.169	0.096
-667.047	-200.000	0.005	0.086
-666.032	2.928	0.094	-0.069
-665.018	-63.096	-0.302	-0.125
-664.003	129.188	0.134	-0.172
-662.989	46.135	0.192	0.178
-661.974	-32.289	0.287	-0.161
-660.959	-200.000	-0.014	0.204
-659.945	-200.000	-0.007	-0.170
-658.930	38.566	-0.229	-0.205
-657.916	40.176	-0.091	-0.082
-656.901	124.550	0.215	-0.271
-655.886	800.000	-0.012	-0.048
-654.872	620.724	0.180	0.455
-653.857	81.760	-0.153	-0.166
-652.843	-200.000	0.029	0.297
-651.828	-111.963	-0.203	0.041
-650.814	-200.000	-0.039	0.450
-649.799	206.161	-0.021	0.033
-648.784	476.621	0.103	0.233
-647.770	-200.000	-0.031	0.286
-646.755	-109.712	-0.152	-0.032
-645.741	-61.807	0.159	-0.067
-644.726	75.628	0.179	-0.190
-643.711	-46.355	0.192	0.094
-642.697	-91.594	-0.072	-0.020
-641.682	800.000	0.043	0.133
-640.668	-118.697	-0.248	-0.044
-639.653	-102.364	0.166	-0.040
-638.638	-69.540	-0.251	-0.096
-637.624	-109.522	0.139	0.029
-636.609	-80.070	0.174	0.059
-635.595	-26.741	0.302	-0.177
-634.580	-44.258	0.120	0.061
-633.565	-200.000	-0.020	-0.117
-632.551	383.388	0.086	0.177
-631.536	462.207	0.054	-0.121
-630.522	-87.113	-0.233	0.071
-629.507	64.962	0.081	0.082
-628.492	14.647	0.126	0.098
-627.478	-200.000	0.084	0.476
-626.463	800.000	-0.063	0.217
-625.449	-43.888	-0.302	-0.152
-624.434	-200.000	0.015	-0.133
-623.419	13.005	-0.276	0.214
-622.405	56.505	0.128	0.125
-621.390	771.657	-0.079	-0.215
-620.376	-49.467	-0.355	0.169
-619.361	-200.000	0.010	-0.203
-618.346	-89.221	0.182	0.054
-617.332	238.316	0.084	0.139
-616.317	298.029	0.085	0.156
-615.303	20.873	-0.317	-0.257
-614.288	-15.270	0.204	-0.131
-613.273	-197.453	0.141	-0.001
-612.259	290.812	0.020	-0.036
-611.244	-96.180	-0.417	0.111
-610.230	319.551	-0.028	-0.053
-609.215	132.428	0.015	0.019
-608.201	744.199	-0.189	0.509
-607.186	800.000	0.025	0.074
-606.171	123.166	0.116	-0.145
-605.157	65.212	0.173	0.175
-604.142	146.427	0.215	0.289
-603.128	88.836	0.121	-0.135
-602.113	-88.550	-0.315	-0.094
-601.098	-94.592	0.206	0.056
-600.084	26.801	0.211	0.177
-599.069	-72.581	-0.130	0.048
-598.055	800.000	0.086	0.285
-597.040	64.298	0.293	-0.295
-596.025	-200.000	-0.073	0.336
-595.011	626.050	0.045	0.114
-593.996	-54.952	0.381	0.172
-592.982	84.206	-0.076	0.083
-591.967	27.645	-0.296	0.249
-590.952	304.656	-0.070	-0.130
-589.938	-86.830	0.188	0.057
-588.923	-111.125	0.341	0.070
-587.909	-79.507	-0.083	-0.028
-586.894	-162.283	0.362	-0.018
-585.879	376.130	-0.011	-0.023
-584.865	87.904	0.243	-0.270
-583.850	26.110	0.062	0.052
-582.836	-200.000	-0.021	0.168
-581.821	-148.738	-0.131	-0.011
-580.806	800.000	0.025	0.103
-579.792	-200.000	0.072	-0.324
-578.777	-35.595	0.270	-0.147
-577.763	5.570	0.136	-0.101
-576.748	-146.802	-0.287	-0.025
-575.733	-92.916	-0.160	-0.045
-574.719	673.443	-0.149	-0.387
-573.704	-200.000	0.052	0.255
-572.690	800.000	-0.066	0.252
-571.675	-10.711	0.171	0.113
-570.661	-136.333	-0.054	0.006
-569.646	-101.398	-0.378	-0.092
-568.631	446.610	0.152	0.334
-567.617	-79.134	0.232	0.079
-566.602	-84.372	0.351	-0.111
-565.588	-22.112	-0.245	-0.149
-564.573	-200.000	-0.013	-0.195
-563.558	-12.708	0.375	-0.244
-562.544	-96.176	-0.144	-0.038
-561.529	-200.000	-0.047	0.345
-560.515	707.244	-0.089	-0.235
-559.500	89.433	-0.151	-0.169
-558.485	800.000	-0.053	-0.206
-557.471	-200.000	0.037	-0.241
-556.456	-97.099	-0.218	-0.057
-555.442	-200.000	0.022	-0.120
-554.427	-200.000	-0.023	0.140
-553.412	193.183	0.030	-0.045
-552.398	-200.000	0.011	-0.120
-551.383	-43.064	0.195	-0.099
-550.369	216.954	0.082	-0.131
-549.354	107.692	0.285	-0.339
-548.339	-82.493	0.202	-0.066
-547.325	800.000	0.124	-0.526
-546.310	-200.000	0.011	-0.070
-545.296	-75.616	0.099	-0.035
-544.281	-200.000	-0.013	-0.121
-543.266	263.397	0.163	0.283
-542.252	-200.000	0.027	-0.172
-541.237	800.000	0.084	0.240
-540.223	78.610	0.150	0.160
-539.208	-200.000	0.050	-0.334
-538.193	234.535	0.028	-0.047
-537.179	-200.000	-0.052	-0.544
-536.164	229.473	0.091	-0.148
-535.150	-200.000	0.005	0.104
-534.135	-102.316	-0.327	0.078
-533.121	-102.733	-0.194	0.046
-532.106	304.307	-0.186	-0.345
-531.091	800.000	0.104	-0.345
-530.077	30.759	0.210	-0.180
-529.062	-86.851	-0.409	0.125
-528.048	-76.032	-0.234	0.083
-527.033	-112.445	-0.144	-0.029
-526.018	-200.000	-0.012	0.627
-525.004	4.665	-0.120	-0.088
-523.989	8.108	-0.320	0.240
-522.975	-167.047	0.160	-0.007
-521.960	57.036	-0.139	0.135
-520.945	800.000	-0.054	-0.169
-519.931	62.263	0.095	-0.095
-518.916	143.084	-0.150	0.199
-517.902	83.162	-0.033	-0.035
-516.887	-18.359	0.251	-0.156
-515.872	-40.224	0.206	-0.107
-514.858	-96.055	-0.051	0.014
-513.843	800.000	-0.048	-0.155
-512.829	-200.000	-0.013	-0.285
-511.814	9.540	0.107	-0.081
-510.799	559.160	0.095	-0.228
-509.785	-27.292	0.124	-0.072
-508.770	-53.375	0.025	0.011
-507.756	54.078	0.115	-0.111
-506.741	-19.905	-0.201	0.124
-505.726	-200.000	-0.011	-0.083
-504.712	152.276	-0.100	0.137
-503.697	-41.683	0.493	0.253
-502.683	61.286	-0.091	0.090
-501.668	800.000	0.075	-0.260
-500.653	5.646	0.092	0.068
-499.639	-200.000	-0.000	0.167
-498.624	94.579	0.136	-0.155
-497.610	-50.309	-0.305	-0.144
-496.595	-15.401	-0.341	0.218
-495.581	219.072	0.170	-0.271
-494.566	151.348	0.090	-0.122
-493.551	-9.378	-0.251	-0.167
-492.537	179.658	0.145	0.212
-491.522	413.666	0.099	-0.211
-490.508	-200.000	0.000	-0.060
-489.493	-27.267	-0.229	0.133
-488.478	25.882	0.165	-0.137
-487.464	-19.860	0.235	-0.145
-486.449	48.236	-0.364	-0.340
-485.435	178.454	0.223	-0.324
-484.420	164.979	0.230	0.324
-483.405	-20.086	-0.154	-0.094
-482.391	182.042	-0.218	-0.320
-481.376	0.844	-0.152	-0.109
-480.362	706.176	0.094	0.247
-479.347	-80.270	-0.200	0.067
-478.332	-70.789	-0.299	0.113
-477.318	-200.000	0.007	0.086
-476.303	64.649	-0.051	0.051
-475.289	506.822	0.024	-0.055
-474.274	-17.881	0.202	0.127
-473.259	-27.986	-0.171	-0.099
-472.245	-200.000	-0.005	0.366
-471.230	60.634	0.261	0.258
-470.216	-200.000	0.002	0.368
-469.201	-200.000	-0.031	-0.171
-468.186	-19.479	0.038	-0.023
-467.172	592.888	-0.037	0.091
-466.157	-98.649	-0.188	-0.048
-465.143	-200.000	0.012	0.434
-464.128	203.978	-0.162	-0.249
-463.113	800.000	0.057	-0.247
-462.099	-200.000	-0.055	-0.401
-461.084	-78.112	-0.132	0.045
-460.070	-129.829	0.169	-0.023
-459.055	66.767	-0.087	-0.088
-458.040	139.121	0.099	-0.130
-457.026	-78.753	0.355	0.121
-456.011	30.296	0.042	0.036
-454.997	-200.000	-0.037	0.283
-453.982	-138.536	0.238	-0.026
-452.968	144.308	-0.210	0.280
-451.953	3.848	-0.050	-0.037
-450.938	-61.640	0.116	-0.048
-449.924	-200.000	0.017	-0.317
-448.909	12.834	-0.168	0.130
-447.895	-16.842	0.202	-0.127
-446.880	652.718	-0.118	0.302
-445.865	-200.000	-0.021	0.124
-444.851	800.000	0.032	0.097
-443.836	-162.922	0.227	0.011
-442.822	-15.293	-0.286	0.182
-441.807	167.128	0.202	-0.285
-440.792	800.000	0.084	-0.296
-439.778	-69.076	0.060	0.023
-438.763	-103.288	0.076	0.018
-437.749	74.572	0.262	0.274
-436.734	800.000	-0.023	0.098
-435.719	348.847	-0.151	-0.296
-434.705	293.584	-0.065	0.119
-433.690	-81.445	0.158	0.052
-432.676	182.862	0.048	0.071
-431.661	800.000	0.001	-0.004
-430.646	800.000	-0.098	0.356
-429.632	-200.000	-0.019	0.366
-428.617	-142.486	0.141	0.014
-427.603	9.150	-0.035	0.027
-426.588	513.590	-0.091	0.212
-425.573	-85.916	-0.320	0.099
-424.559	-109.245	0.075	0.016
-423.544	684.566	0.055	0.144
-422.530	-86.527	0.199	-0.061
-421.515	-39.064	-0.019	0.010
-420.500	147.564	0.246	0.330
-419.486	383.527	0.046	-0.094
-418.471	-42.779	-0.070	0.036
-417.457	268.828	-0.149	-0.260
-416.442	-200.000	0.003	-0.092
-415.428	-114.029	-0.266	0.051
-414.413	-200.000	-0.024	-0.164
-413.398	-100.416	0.225	0.055
-412.384	-58.460	0.179	-0.077
-411.369	219.150	-0.068	0.108
-410.355	-12.989	-0.129	-0.084
-409.340	-69.994	0.198	-0.075
-408.325	-200.000	-0.058	-0.349
-407.311	-28.699	-0.174	-0.100
-406.296	-200.000	-0.035	-0.457
-405.282	-40.042	0.325	-0.168
-404.267	-161.740	-0.096	-0.005
-403.252	221.790	-0.158	-0.252
-402.238	-200.000	0.059	-0.412
-401.223	800.000	-0.055	0.217
-400.209	275.843	-0.034	0.059
-399.194	-200.000	0.014	-0.200
-398.179	161.134	-0.138	-0.192
-397.165	95.131	0.010	-0.012
-396.150	-121.161	0.127	0.021
-395.136	-36.044	0.184	-0.099
-394.121	-156.974	0.290	-0.018
-393.106	117.067	0.118	-0.145
-392.092	800.000	-0.116	0.366
-391.077	-116.399	0.111	-0.020
-390.063	-116.635	-0.159	0.029
-389.048	-200.000	0.013	-0.137
-388.033	-3.964	-0.120	-0.083
-387.019	-91.776	-0.281	-0.079
-386.004	51.355	0.123	0.116
-384.990	373.292	-0.017	-0.033
-383.975	469.357	-0.111	-0.248
-382.960	101.307	-0.181	-0.209
-381.946	-200.000	-0.008	-0.326
-380.931	42.568	-0.098	-0.088
-379.917	-76.859	-0.114	0.040
-378.902	343.557	0.056	0.108
-377.888	37.824	-0.068	-0.060
-376.873	86.869	0.173	-0.189
-375.858	151.462	0.198	-0.268
-374.844	-200.000	-0.037	-0.271
-373.829	-15.417	0.138	0.088
-372.815	146.459	0.077	-0.103
-371.800	282.763	-0.102	-0.181
-370.785	800.000	-0.036	0.107
-369.771	55.045	-0.191	-0.183
-368.756	251.612	-0.113	-0.190
-367.742	-200.000	-0.045	0.234
-366.727	800.000	-0.030	0.106
-365.712	-200.000	0.011	0.248
-364.698	800.000	0.019	-0.054
-363.683	346.777	-0.040	-0.079
-362.669	-88.065	-0.228	-0.068
-361.654	347.622	-0.137	0.268
-360.639	501.460	0.077	0.176
-359.625	67.824	-0.195	-0.198
-358.610	697.356	0.091	-0.237
-357.596	782.657	0.113	0.308
-356.581	-27.916	-0.102	-0.058
-355.566	-171.817	0.077	-0.003
-354.552	800.000	0.102	-0.341
-353.537	-193.101	-0.220	0.002
-352.523	-25.731	0.301	0.176
-351.508	-72.261	0.414	-0.152
-350.493	430.267	-0.087	0.186
-349.479	88.527	0.332	-0.366
-348.464	-200.000	0.010	-0.472
-347.450	-200.000	-0.028	-0.350
-346.435	-61.442	-0.124	0.052
-345.420	-158.276	-0.131	-0.008
-344.406	-100.918	0.170	0.041
-343.391	207.885	0.026	-0.041
-342.377	-176.330	-0.103	-0.003
-341.362	199.053	-0.154	0.234
-340.348	43.104	-0.017	0.016
-339.333	10.129	-0.150	0.113
-338.318	642.828	-0.048	0.122
-337.304	-149.492	0.181	0.014
-336.289	87.592	0.160	-0.175
-335.275	691.726	-0.078	-0.203
-334.260	-200.000	-0.010	0.120
-333.245	90.996	0.171	-0.190
-332.231	-200.000	-0.056	0.379
-331.216	608.928	0.078	-0.193
-330.202	-129.265	-0.257	-0.035
-329.187	-57.512	0.081	0.035
-328.172	-63.246	-0.233	-0.095
-327.158	800.000	-0.043	-0.135
-326.143	-200.000	-0.075	0.510
-325.129	206.854	0.098	0.152
-324.114	-200.000	-0.072	0.347
-323.099	-22.382	0.209	-0.126
-322.085	-40.053	0.160	0.082
-321.070	-200.000	0.026	0.177
-320.056	-91.923	0.453	-0.127
-319.041	800.000	0.029	0.110
-318.026	-135.469	-0.017	-0.002
-317.012	-65.855	0.109	0.043
-315.997	75.780	-0.081	-0.085
-314.983	-89.328	-0.179	-0.052
-313.968	-25.883	-0.157	0.092
-312.953	-200.000	-0.041	0.203
-311.939	-200.000	-0.057	0.288
-310.924	-200.000	0.121	-0.000
-309.910	-200.000	0.000	0.088
-308.895	-43.507	-0.136	-0.068
-307.880	53.204	0.206	0.195
-306.866	-200.000	0.002	-0.330
-305.851	-48.896	-0.247	-0.117
-304.837	656.808	-0.040	0.101
-303.822	-80.595	0.356	-0.117
-302.807	-112.406	-0.239	-0.047
-301.793	-200.000	0.021	0.255
-300.778	19.590	0.181	0.144
-299.764	-99.968	0.129	0.032
-298.749	-107.118	0.115	0.025
-297.735	-88.476	0.090	-0.027
-296.720	-111.575	-0.209	-0.042
-295.705	215.253	-0.091	0.143
-294.691	353.860	-0.161	0.317
-293.676	800.000	0.059	-0.168
-292.662	7.921	-0.087	-0.065
-291.647	46.558	-0.223	-0.204
-290.632	-55.854	-0.148	0.065
-289.618	-63.740	0.232	-0.094
-288.603	-72.334	-0.093	-0.034
-287.589	-101.164	-0.173	-0.042
-286.574	21.960	-0.109	0.088
-285.559	-200.000	0.002	0.220
-284.545	-27.290	0.243	-0.140
-283.530	-200.000	-0.002	0.250
-282.516	-200.000	-0.006	0.182
-281.501	800.000	-0.052	-0.148
-280.486	-159.743	-0.348	-0.019
-279.472	-200.000	0.037	-0.240
-278.457	162.029	-0.242	0.336
-277.443	146.825	-0.159	0.211
-276.428	608.987	0.064	0.158
-275.413	800.000	-0.037	-0.133
-274.399	-13.975	-0.315	-0.201
-273.384	-200.000	0.004	-0.176
-272.370	-129.619	-0.196	-0.027
-271.355	-154.663	0.039	0.003
-270.340	800.000	0.072	-0.278
-269.326	-115.596	0.141	0.026
-268.311	102.474	-0.139	-0.160
-267.297	800.000	-0.049	0.192
-266.282	11.221	0.230	0.174
-265.267	379.980	0.089	0.180
-264.253	800.000	0.128	-0.352
-263.238	135.126	-0.119	-0.152
-262.224	59.799	-0.147	-0.143
-261.209	-200.000	0.014	-0.231
-260.195	27.281	0.234	-0.194
-259.180	-116.192	0.132	-0.024
-258.165	65.625	0.143	0.144
-257.151	132.531	-0.152	-0.193
-256.136	-69.329	-0.136	-0.052
-255.122	275.189	-0.129	-0.226
-254.107	-83.570	-0.273	0.086
-253.092	-80.365	0.413	0.136
-252.078	-136.912	0.174	-0.020
-251.063	28.748	0.119	0.100
-250.049	-73.961	0.034	0.012
-249.034	595.060	0.081	-0.198
-248.019	244.256	-0.240	0.399
-247.005	180.499	0.129	-0.187
-245.990	199.160	-0.230	0.347
-244.976	251.180	-0.096	0.161
-243.961	25.975	0.094	-0.078
-242.946	-200.000	-0.019	0.138
-241.932	-87.459	0.430	-0.129
-240.917	-200.000	-0.003	0.069
-239.903	97.088	0.048	0.054
-238.888	227.022	-0.151	0.242
-237.873	-200.000	0.024	0.292
-236.859	800.000	-0.055	0.156
-235.844	275.308	-0.175	-0.306
-234.830	-200.000	-0.011	-0.119
-233.815	-109.110	-0.193	0.040
-232.800	603.828	0.077	-0.189
-231.786	161.947	0.199	0.275
-230.771	-80.251	-0.274	0.090
-229.757	-145.934	-0.181	-0.016
-228.742	21.175	-0.180	0.144
-227.727	529.180	-0.079	0.183
-226.713	-80.604	-0.390	-0.128
-225.698	14.042	0.151	-0.116
-224.684	728.713	-0.096	0.252
-223.669	456.210	0.095	0.208
-222.655	-131.001	-0.678	-0.089
-221.640	406.656	0.169	-0.351
-220.625	-18.092	0.212	0.131
-219.611	-88.496	-0.241	-0.071
-218.596	-200.000	0.022	-0.146
-217.582	118.397	-0.042	-0.051
-216.567	-43.652	0.311	0.155
-215.552	-91.175	-0.164	0.046
-214.538	214.668	0.058	-0.091
-213.523	-36.894	-0.201	-0.106
-212.509	-127.025	-0.228	0.033
-211.494	-49.677	-0.081	0.038
-210.479	-200.000	0.050	-0.277
-209.465	50.667	0.222	0.207
-208.450	449.798	-0.054	0.117
-207.436	-33.661	0.290	0.158
-206.421	-14.983	0.017	0.011
-205.406	-136.573	-0.458	-0.052
-204.392	-23.863	0.330	-0.195
-203.377	800.000	0.067	0.190
-202.363	-39.494	0.075	-0.039
-201.348	-57.168	0.341	0.148
-200.333	-68.774	0.123	-0.047
-199.319	775.967	-0.168	0.454
-198.304	274.101	0.051	0.088
-197.290	-200.000	-0.037	0.198
-196.275	-200.000	-0.001	-0.098
-195.260	800.000	0.100	0.326
-194.246	-121.284	0.376	-0.062
-193.231	-80.335	-0.292	-0.096
-192.217	800.000	-0.095	0.302
-191.202	-108.015	0.196	-0.042
-190.187	409.282	0.142	-0.296
-189.173	-119.000	-0.215	0.037
-188.158	-200.000	-0.036	0.302
-187.144	-182.733	0.423	-0.008
-186.129	-90.346	-0.214	0.061
-185.114	-53.260	-0.017	-0.008
-184.100	-77.454	-0.235	-0.080
-183.085	-56.314	0.111	0.049
-182.071	520.340	0.150	-0.347
-181.056	-200.000	0.020	-0.136
-180.042	-73.364	0.044	0.016
-179.027	575.086	0.055	0.133
-178.012	-200.000	0.068	0.432
-176.998	92.225	0.139	0.154
-175.983	-110.637	-0.186	0.038
-174.969	-117.779	-0.123	-0.022
-173.954	-135.150	0.233	0.028
-172.939	-25.309	-0.158	0.092
-171.925	267.669	0.149	0.256
-170.910	218.658	-0.144	-0.226
-169.896	-135.644	-0.024	-0.003
-168.881	403.547	-0.011	-0.022
-167.866	-82.700	-0.352	-0.112
-166.852	-77.480	0.128	-0.044
-165.837	131.900	-0.102	0.129
-164.823	-200.000	0.006	0.101
-163.808	214.648	-0.137	0.214
-162.793	-69.104	-0.334	0.127
-161.779	-158.408	-0.382	0.022
-160.764	-200.000	-0.055	0.243
-159.750	-137.562	0.302	0.034
-158.735	800.000	0.106	-0.313
-157.720	209.744	-0.228	0.352
-156.706	-124.755	0.289	0.044
-155.691	786.662	0.031	-0.083
-154.677	-200.000	0.000	0.277
-153.662	800.000	0.074	0.286
-152.647	-42.048	-0.177	-0.089
-151.633	14.966	-0.249	-0.192
-150.618	-13.124	0.221	0.142
-149.604	-32.195	-0.230	0.127
-148.589	431.308	0.056	-0.119
-147.574	60.777	0.145	-0.142
-146.560	167.066	-0.120	-0.167
-145.545	463.966	-0.145	0.318
-144.531	-122.872	-0.262	0.042
-143.516	-67.454	0.517	-0.200
-142.502	63.579	0.170	-0.168
-141.487	156.965	-0.037	0.051
-140.472	99.401	-0.141	-0.160
-139.458	37.903	0.079	0.069
-138.443	-156.239	0.129	-0.008
-137.429	800.000	0.044	0.135
-136.414	-30.264	-0.182	-0.102
-135.399	139.528	-0.081	-0.105
-134.385	-200.000	-0.083	0.400
-133.370	364.920	-0.155	-0.306
-132.356	488.195	-0.123	0.276
-131.341	-200.000	0.000	-0.102
-130.326	12.738	-0.271	0.206
-129.312	-97.190	-0.203	0.052
-128.297	-11.862	-0.269	-0.174
-127.283	-200.000	0.015	-0.069
-126.268	-83.312	0.016	0.005
-125.253	800.000	-0.018	0.071
-124.239	-112.729	-0.170	0.033
-123.224	-138.309	0.344	0.037
-122.210	255.272	-0.087	0.147
-121.195	-144.965	0.200	-0.018
-120.180	-21.093	-0.123	-0.074
-119.166	-200.000	0.021	0.214
-118.151	143.256	-0.112	0.146
-117.137	800.000	0.072	0.230
-116.122	800.000	0.079	0.222
-115.107	-147.108	-0.109	-0.009
-114.093	-200.000	0.007	-0.240
-113.078	-200.000	-0.019	-0.124
-112.064	96.765	-0.196	0.221
-111.049	-31.947	-0.195	0.107
-110.034	-63.195	-0.143	0.058
-109.020	-105.119	-0.236	0.053
-108.005	583.076	-0.045	-0.108
-106.991	-48.670	0.172	-0.081
-105.976	205.546	-0.037	-0.056
-104.962	-123.963	0.288	-0.044
-103.947	-79.895	-0.159	-0.053
-102.932	234.181	0.085	0.138
-101.918	-200.000	0.002	-0.193
-100.903	-53.269	-0.306	0.138
-99.889	298.335	-0.066	0.120
-98.874	77.356	0.253	-0.264
-97.859	533.063	0.043	0.100
-96.845	601.527	0.070	-0.171
-95.830	-12.570	-0.279	0.179
-94.816	217.644	0.096	-0.150
-93.801	116.297	0.182	0.218
-92.786	38.377	0.180	-0.157
-91.772	-89.443	-0.210	-0.061
-90.757	-141.722	-0.182	0.018
-89.743	-85.940	-0.300	0.091
-88.728	-115.290	-0.248	0.046
-87.713	52.158	0.259	-0.243
-86.699	91.760	0.060	-0.066
-85.684	800.000	-0.063	-0.269
-84.670	-139.107	-0.063	0.007
-83.655	613.636	0.040	-0.099
-82.640	-157.709	0.187	-0.011
-81.626	-6.362	0.275	0.184
-80.611	-200.000	0.015	-0.074
-79.597	-17.026	0.326	0.202
-78.582	94.000	0.201	-0.224
-77.567	9.130	0.185	0.137
-76.553	-157.486	0.250	0.015
-75.538	800.000	-0.114	-0.332
-74.524	-13.651	-0.156	0.099
-73.509	-126.208	-0.110	-0.016
-72.494	73.354	0.208	0.214
-71.480	-92.261	0.178	0.049
-70.465	56.253	0.148	-0.141
-69.451	-121.204	0.283	0.046
-68.436	498.597	-0.165	0.372
-67.422	31.476	-0.178	0.150
-66.407	114.242	0.112	-0.133
-65.392	330.173	-0.103	0.195
-64.378	-91.625	0.120	-0.033
-63.363	20.114	0.124	-0.098
-62.349	-53.204	0.285	0.128
-61.334	37.661	-1.335	-1.163
-60.319	34.125	0.541	0.462
-59.305	585.538	-0.369	-0.889
-58.290	221.762	0.756	1.192
-57.276	286.234	0.721	1.276
-56.261	-200.000	108.692	634.923
-55.246	475.874	1486.924	3293.592
-54.232	148.214	2659.083	3518.546
-53.217	109.506	2164.889	2542.808
-52.203	40.990	1701.799	1506.380
-51.188	33.664	1518.285	1294.149
-50.173	31.314	1492.136	1256.031
-49.159	54.787	1547.690	1463.933
-48.144	55.409	1563.751	1483.309
-47.130	33.993	1520.930	1298.443
-46.115	30.750	1505.753	1263.460
-45.100	30.578	1502.250	1259.307
-44.086	30.614	1499.908	1257.539
-43.071	30.522	1498.091	1255.342
-42.057	30.370	1496.728	1253.123
-41.042	30.452	1494.990	1252.171
-40.027	30.437	1493.798	1251.025
-39.013	30.366	1492.108	1249.082
-37.998	30.441	1490.632	1248.301
-36.984	30.349	1490.625	1247.627
-35.969	30.474	1488.481	1246.618
-34.954	30.465	1487.098	1245.352
-33.940	30.466	1485.720	1244.158
-32.925	30.442	1484.403	1242.841
-31.911	30.462	1482.979	1241.733
-30.896	30.564	1481.679	1241.278
-29.881	30.416	1480.983	1239.661
-28.867	30.594	1478.641	1238.836
-27.852	30.400	1477.751	1236.749
-26.838	30.514	1476.562	1236.461
-25.823	30.473	1474.902	1234.754
-24.809	30.526	1473.146	1233.585
-23.794	30.464	1472.202	1232.331
-22.779	30.446	1471.235	1231.353
-21.765	30.504	1469.910	1230.582
-20.750	30.543	1468.977	1230.010
-19.736	30.502	1467.674	1228.597
-18.721	30.574	1465.993	1227.616
-17.706	30.530	1465.299	1226.698
-16.692	30.485	1464.294	1225.509
-15.677	30.476	1462.816	1224.169
-14.663	30.479	1462.267	1223.678
-13.648	30.479	1461.029	1222.595
-12.633	30.528	1460.204	1222.175
-11.619	30.450	1459.662	1221.164
-10.604	30.568	1458.792	1221.161
-9.590	30.395	1458.142	1219.433
-8.575	30.395	1457.174	1218.575
-7.560	30.469	1456.293	1218.274
-6.546	30.502	1455.152	1217.488
-5.531	30.438	1454.364	1216.364
-4.517	30.347	1453.598	1215.076
-3.502	30.426	1452.671	1214.769
-2.487	30.364	1451.598	1213.423
-1.473	30.378	1450.472	1212.519
-0.458	30.383	1449.107	1211.367
0.556	28.367	1438.340	1196.596
1.571	24.020	1411.077	1145.889
2.586	19.094	1347.058	1063.452
3.600	16.769	1262.945	983.471
4.615	15.302	1218.525	940.578
5.629	13.271	1163.969	887.491
6.644	6.728	1082.684	792.678
7.659	1.237	1043.362	737.194
8.673	0.320	1038.169	729.028
9.688	0.238	1034.809	726.208
10.702	0.159	1033.328	724.723
11.717	0.113	1031.452	723.121
12.731	2.147	1033.179	734.052
13.746	8.997	1042.090	773.435
14.761	15.307	1049.803	809.649
15.775	17.047	1051.358	819.182
16.790	16.456	1050.066	815.251
17.804	15.489	1047.597	808.605
18.819	14.671	1045.598	803.060
19.834	14.184	1044.370	799.705
20.848	14.012	1043.187	797.904
21.863	13.650	1042.727	795.742
22.877	13.430	1041.793	793.906
23.892	13.331	1040.968	792.732
24.907	13.169	1040.145	791.259
25.921	13.181	1039.560	790.800
26.936	13.181	1039.134	790.407
27.950	13.225	1038.343	789.947
28.965	13.319	1037.617	789.773
29.980	13.435	1036.500	789.404
30.994	13.331	1035.764	788.280
32.009	13.331	1034.895	787.549
33.023	13.478	1034.245	787.681
34.038	13.487	1033.519	787.104
35.053	13.407	1032.815	786.119
36.067	13.373	1031.473	784.867
37.082	13.315	1031.191	784.307
38.096	13.419	1030.365	784.102
39.111	13.413	1029.614	783.433
40.126	13.401	1028.665	782.585
41.140	13.306	1027.703	781.332
42.155	13.323	1026.704	780.584
43.169	13.340	1025.913	779.993
44.184	13.161	1024.834	778.265
45.199	13.189	1023.641	777.422
46.213	13.274	1022.327	776.754
47.228	13.305	1021.526	776.219
48.242	13.296	1020.763	775.529
49.257	13.406	1019.884	775.309
50.271	13.287	1019.113	774.096
51.286	13.427	1017.724	773.627
52.301	13.354	1017.156	772.785
53.315	13.395	1016.595	772.484
54.330	13.312	1015.885	771.488
55.344	13.422	1014.850	771.147
56.359	13.241	1014.174	769.720
57.374	13.232	1013.084	768.786
58.388	13.205	1012.559	768.194
59.403	13.202	1011.435	767.260
60.417	13.063	1010.937	766.166
61.432	13.224	1010.465	766.487
62.447	13.179	1009.385	765.394
63.461	13.221	1008.328	764.720
64.476	13.188	1007.497	763.870
65.490	13.125	1006.880	763.040
66.505	13.169	1005.818	762.373
67.520	13.116	1005.363	761.714
68.534	13.217	1004.530	761.484
69.549	13.253	1003.609	760.882
70.563	13.170	1002.699	759.744
71.578	13.131	1002.620	759.436
72.593	13.149	1001.499	758.605
73.607	13.195	1000.358	757.884
74.622	13.181	999.553	757.142
75.636	13.080	998.738	755.994
76.651	13.141	997.933	755.598
77.666	13.052	997.255	754.611
78.680	12.976	996.909	753.936
79.695	13.193	995.699	753.942
80.709	13.139	995.353	753.368
81.724	13.181	994.428	752.796
82.739	13.097	993.951	751.984
83.753	13.193	993.309	751.868
84.768	13.250	992.246	751.256
85.782	13.362	991.400	751.059
86.797	13.377	990.652	750.493
87.812	13.383	989.861	749.853
88.826	13.350	988.992	748.980
89.841	13.382	988.160	748.427
90.855	13.355	987.179	747.499
91.870	13.486	986.721	747.674
92.884	13.299	986.101	746.298
93.899	13.416	985.334	746.178
94.914	13.509	984.584	745.961
95.928	13.392	983.862	744.821
96.943	13.546	983.026	744.816
97.957	13.439	982.679	744.005
98.972	13.270	981.921	742.610
99.987	13.454	980.845	742.553
101.001	13.554	980.288	742.516
102.016	13.393	979.365	741.028
103.030	13.391	978.465	740.272
104.045	13.423	977.551	739.659
105.060	13.504	976.690	739.302
106.074	13.500	975.729	738.494
107.089	13.320	975.091	737.143
108.103	13.235	974.300	736.101
109.118	13.330	972.841	735.355
110.133	13.242	972.642	734.752
111.147	13.263	971.794	734.135
112.162	13.391	970.887	733.956
113.176	13.225	970.157	732.603
114.191	13.333	969.231	732.316
115.206	13.330	968.192	731.452
116.220	13.279	967.585	730.705
117.235	13.283	966.639	729.945
118.249	13.388	965.440	729.436
119.264	13.256	965.122	728.550
120.279	13.345	964.208	728.185
121.293	13.365	963.017	727.310
122.308	13.210	962.561	726.221
123.322	13.265	961.765	725.799
124.337	13.240	960.545	724.705
125.352	13.358	959.500	724.367
126.366	13.274	958.821	723.422
127.381	13.211	957.205	721.866
128.395	13.265	957.016	721.896
129.410	13.225	955.619	720.604
130.424	13.283	954.574	720.003
131.439	13.255	953.937	719.337
132.454	13.411	953.138	719.350
133.468	13.433	952.156	718.640
134.483	13.310	951.983	717.911
135.497	13.360	951.018	717.337
136.512	13.301	950.333	716.503
137.527	13.429	949.465	716.339
138.541	13.313	948.459	715.013
139.556	13.313	948.254	714.796
140.570	13.289	947.267	713.887
141.585	13.386	946.334	713.537
142.600	13.368	945.816	713.005
143.614	13.519	944.744	712.786
144.629	13.575	944.293	712.623
145.643	13.564	943.676	712.048
146.658	13.532	942.617	711.048
147.673	13.392	941.647	709.652
148.687	13.525	940.621	709.384
149.702	13.394	940.405	708.597
150.716	13.350	939.250	707.477
151.731	13.385	938.524	707.018
152.746	13.461	937.533	706.533
153.760	13.352	936.634	705.329
154.775	13.414	936.171	705.180
155.789	13.539	935.231	704.943
156.804	13.538	934.300	704.176
157.819	13.450	934.064	703.562
158.833	13.472	933.646	703.278
159.848	13.534	932.555	702.655
160.862	13.671	931.722	702.547
161.877	13.613	930.922	701.636
162.892	13.623	930.243	701.104
163.906	13.560	929.609	700.297
164.921	13.472	928.676	699.164
165.935	13.428	928.159	698.525
166.950	13.522	926.795	697.833
167.964	13.602	925.888	697.424
168.979	13.487	924.985	696.199
169.994	13.750	923.622	696.218
171.008	13.723	922.603	695.273
172.023	13.590	922.262	694.396
173.037	13.601	922.006	694.188
174.052	13.721	920.742	693.678
175.067	13.660	920.414	693.115
176.081	13.626	919.570	692.274
177.096	13.653	918.594	691.594
178.110	13.623	917.528	690.605
179.125	13.719	917.021	690.561
180.140	13.668	916.203	689.672
181.154	13.619	915.586	688.944
182.169	13.668	915.155	688.762
183.183	13.615	914.716	688.151
184.198	13.818	913.717	688.180
185.213	13.823	913.293	687.821
186.227	13.936	912.393	687.550
187.242	13.862	912.266	687.087
188.256	13.923	911.604	686.780
189.271	13.934	910.657	686.049
190.286	13.927	909.984	685.452
191.300	13.823	909.056	684.264
192.315	13.594	908.996	683.213
193.329	13.599	908.081	682.486
194.344	13.769	907.250	682.503
195.359	13.800	906.051	681.666
196.373	13.792	906.065	681.585
197.388	13.963	905.293	681.644
198.402	13.802	905.560	681.124
199.417	13.990	904.441	680.995
200.432	13.921	904.236	680.494
201.446	14.085	903.503	680.556
202.461	14.120	902.914	680.194
203.475	14.135	902.550	679.924
204.490	14.116	902.039	679.400
205.504	14.231	900.779	678.858
206.519	14.077	900.079	677.645
207.534	14.103	899.449	677.216
208.548	13.987	899.208	676.503
209.563	13.974	898.274	675.684
210.577	14.084	897.843	675.749
211.592	14.266	897.037	675.820
212.607	14.241	896.609	675.339
213.621	14.174	896.030	674.570
214.636	14.258	894.960	674.047
215.650	14.130	894.308	672.977
216.665	14.214	894.272	673.229
217.680	14.153	893.635	672.445
218.694	14.325	892.973	672.582
219.709	14.379	891.896	671.929
220.723	14.282	891.718	671.346
221.738	14.334	890.764	670.777
222.753	14.341	890.162	670.289
223.767	14.294	889.531	669.566
224.782	14.321	888.778	669.052
225.796	14.371	888.298	668.831
226.811	14.324	887.484	667.968
227.826	14.394	886.687	667.590
228.840	14.299	886.324	666.877
229.855	14.460	885.209	666.626
230.869	14.399	884.562	665.834
231.884	14.286	884.166	665.028
232.899	14.369	883.623	664.892
233.913	14.486	882.221	664.241
234.928	14.206	882.412	663.212
235.942	14.335	881.571	663.037
236.957	14.373	880.564	662.369
237.972	14.230	880.341	661.575
238.986	14.396	879.749	661.729
240.001	14.430	878.587	660.931
241.015	14.467	878.214	660.741
242.030	14.353	877.982	660.058
243.045	14.456	876.976	659.649
244.059	14.511	876.390	659.367
245.074	14.679	875.452	659.265
246.088	14.588	874.649	658.244
247.103	14.632	874.382	658.160
248.117	14.644	873.591	657.553
249.132	14.596	873.600	657.312
250.147	14.671	872.747	656.908
251.161	14.718	872.075	656.528
252.176	14.754	871.405	656.106
253.190	14.814	870.533	655.629
254.205	14.974	869.978	655.779
255.220	14.969	869.135	655.067
256.234	14.850	869.066	654.491
257.249	14.878	868.485	654.104
258.263	15.062	867.465	653.998
259.278	14.831	867.146	652.795
260.293	14.997	866.497	652.898
261.307	15.029	865.756	652.406
262.322	15.040	865.711	652.359
263.336	15.165	864.882	652.160
264.351	15.164	864.212	651.595
265.366	15.102	863.711	650.919
266.380	15.113	863.008	650.374
267.395	15.044	862.313	649.526
268.409	15.157	861.668	649.419
269.424	15.170	860.701	648.682
270.439	15.036	860.227	647.752
271.453	15.090	859.469	647.331
272.468	15.091	858.505	646.551
273.482	15.129	858.100	646.336
274.497	15.120	857.527	645.811
275.512	15.168	856.828	645.413
276.526	15.100	856.484	644.838
277.541	15.229	855.533	644.558
278.555	15.103	855.025	643.633
279.570	15.330	854.245	643.864
280.585	15.342	853.878	643.576
281.599	15.240	853.451	642.807
282.614	15.225	852.597	642.046
283.628	15.217	852.364	641.784
284.643	15.318	851.534	641.488
285.657	15.430	850.924	641.400
286.672	15.320	850.797	640.828
287.687	15.356	849.924	640.250
288.701	15.365	849.389	639.825
289.716	15.501	848.558	639.660
290.730	15.347	848.225	638.767
291.745	15.348	848.011	638.555
292.760	15.505	847.039	638.364
293.774	15.309	846.443	637.114
294.789	15.573	845.793	637.567
295.803	15.303	845.469	636.243
296.818	15.503	844.571	636.271
297.833	15.500	843.847	635.655
298.847	15.384	843.239	634.704
299.862	15.600	842.619	634.996
300.876	15.529	841.912	634.139
301.891	15.600	841.428	633.987
302.906	15.743	840.160	633.515
303.920	15.636	840.420	633.250
304.935	15.687	839.493	632.690
305.949	15.899	838.389	632.599
306.964	15.812	838.225	632.093
307.979	15.798	837.525	631.455
308.993	15.708	837.073	630.721
310.008	15.570	836.944	630.049
311.022	15.670	836.632	630.133
312.037	15.904	835.731	630.275
313.052	15.748	835.587	629.525
314.066	15.810	834.482	628.870
315.081	15.785	833.775	628.188
316.095	15.808	833.633	628.114
317.110	15.794	833.078	627.587
318.125	15.692	832.587	626.781
319.139	15.694	832.153	626.406
320.154	15.765	831.503	626.127
321.168	15.764	830.903	625.615
322.183	15.902	830.206	625.546
323.197	15.781	830.108	624.967
324.212	15.858	829.681	624.877
325.227	15.811	828.979	624.121
326.241	15.822	828.333	623.618
327.256	15.867	827.620	623.193
328.270	15.811	827.392	622.761
329.285	15.767	826.868	622.145
330.300	15.813	826.319	621.850
331.314	15.922	825.543	621.614
332.329	15.880	824.984	620.980
333.343	15.801	824.637	620.374
334.358	15.979	823.649	620.230
335.373	15.912	823.448	619.777
336.387	15.948	822.930	619.466
337.402	16.060	821.848	619.006
338.416	16.174	821.189	618.874
339.431	16.025	820.959	618.100
340.446	16.096	820.537	617.989
341.460	16.019	820.094	617.316
342.475	16.244	819.453	617.603
343.489	16.346	818.628	617.302
344.504	16.333	817.961	616.696
345.519	16.280	817.494	616.094
346.533	16.341	817.000	615.890
347.548	16.233	817.305	615.671
348.562	16.297	816.513	615.256
349.577	16.250	815.615	614.353
350.592	16.216	815.087	613.777
351.606	16.237	814.763	613.553
352.621	16.281	813.990	613.078
353.635	16.168	813.996	612.616
354.650	16.195	813.421	612.230
355.665	16.339	812.666	612.130
356.679	16.378	812.200	611.866
357.694	16.356	811.603	611.281
358.708	16.422	811.306	611.242
359.723	16.551	810.300	610.897
360.738	16.488	810.176	610.521
361.752	16.408	809.938	610.000
362.767	16.396	809.382	609.485
363.781	16.431	808.985	609.256
364.796	16.605	808.266	609.287
365.810	16.562	808.073	608.932
366.825	16.557	807.652	608.543
367.840	16.520	807.393	608.162
368.854	16.617	806.851	608.048
369.869	16.517	806.776	607.579
370.883	16.539	806.214	607.180
371.898	16.603	805.544	606.853
372.913	16.798	804.770	606.913
373.927	16.770	804.504	606.561
374.942	16.731	803.443	605.566
375.956	16.526	802.975	604.427
376.971	16.851	802.501	605.179
377.986	16.701	801.790	604.054
379.000	16.736	801.995	604.280
380.015	16.862	801.313	604.159
381.029	16.847	800.808	603.672
382.044	16.713	800.252	602.724
383.059	16.913	799.587	602.880
384.073	16.897	798.713	602.111
385.088	16.990	798.366	602.127
386.102	16.915	797.831	601.404
387.117	16.917	797.394	601.029
388.132	16.843	797.067	600.465
389.146	16.858	796.577	600.098
390.161	16.931	796.403	600.170
391.175	17.018	795.147	599.481
392.190	16.902	795.264	599.104
393.205	17.138	794.661	599.431
394.219	16.932	794.580	598.589
395.234	16.928	793.769	597.912
396.248	16.938	793.300	597.539
397.263	16.939	793.004	597.269
398.278	16.908	792.386	596.640
399.292	16.915	791.774	596.152
400.307	17.030	791.487	596.287
401.321	16.944	791.218	595.728
402.336	16.990	790.992	595.670
403.350	17.201	790.215	595.771
404.365	17.066	790.030	595.105
405.380	17.309	789.401	595.429
406.394	17.247	789.117	594.945
407.409	17.199	788.802	594.486
408.423	17.255	788.235	594.203
409.438	17.399	787.404	594.028
410.453	17.338	787.337	593.712
411.467	17.263	786.807	592.996
412.482	17.406	786.552	593.252
413.496	17.381	785.743	592.502
414.511	17.465	785.859	592.829
415.526	17.445	785.142	592.166
416.540	17.395	785.087	591.898
417.555	17.216	784.809	591.013
418.569	17.307	783.925	590.612
419.584	17.522	783.399	590.910
420.599	17.401	782.561	589.805
421.613	110.170	1290.686	1470.544
422.628	94.377	1364.725	1470.635
