DTS Sentinel unit serial number:	SN413079Multiplexer serial number:	ORYXHardware model number:	OX4-SRSoftware version number:	ORYX F/W v4.00 Oryx Data Collector v3.7.2.0data status	okinstallation	princeton_trtdifferential loss correction	single-endedforward channel	channel 3reverse channel	N/Adate	2019/09/18time	07:16:35forward acquisition time	60.00reverse acquisition time	0.00gamma	496.2192k internal	0.2344k external	0.2344temperature offset calibration	0.9952default loss term (dB/km)	0.3790temperature slope calibration	1.0000multiplexer offset coefficient	1.0000multiplexer slope coefficient	1.0000fibre end	0.00T internal ref (°C)	23.19T ext. ref 1 (°C)	0.19T ext. ref 2 (°C)	17.44length (m)	temperature (°C)	Stokes	anti-Stokes-747.200	-80.131	-0.124	-0.042
-746.185	800.000	-0.036	-0.148
-745.171	75.095	0.279	0.295
-744.156	-200.000	0.017	0.170
-743.142	-142.020	0.466	-0.046
-742.127	-122.307	-0.238	0.039
-741.112	-131.741	-0.164	-0.021
-740.098	800.000	0.080	0.327
-739.083	800.000	0.111	-0.330
-738.069	-89.358	-0.301	-0.089
-737.054	74.811	-0.440	0.463
-736.039	-92.097	-0.294	-0.083
-735.025	-35.587	0.148	0.080
-734.010	-74.696	-0.579	-0.208
-732.996	-200.000	-0.013	0.167
-731.981	-92.015	-0.194	-0.055
-730.966	-200.000	-0.014	-0.064
-729.952	-93.553	-0.278	0.077
-728.937	291.958	0.050	-0.091
-727.923	800.000	0.069	-0.195
-726.908	5.441	-0.074	0.055
-725.894	26.963	-0.128	-0.108
-724.879	-95.936	0.283	0.075
-723.864	-106.299	-0.303	-0.068
-722.850	17.356	-0.244	-0.194
-721.835	79.898	-0.186	-0.200
-720.821	191.930	-0.235	-0.355
-719.806	-11.081	-0.157	0.103
-718.791	-76.711	-0.167	0.058
-717.777	-200.000	-0.004	-0.218
-716.762	-200.000	0.030	-0.548
-715.748	-19.526	0.157	-0.097
-714.733	-55.120	0.047	-0.021
-713.718	-200.000	0.030	-0.240
-712.704	-200.000	-0.003	-0.308
-711.689	-7.601	0.162	0.110
-710.675	-144.735	0.203	-0.019
-709.660	-200.000	-0.007	-0.203
-708.645	126.911	0.188	-0.238
-707.631	101.593	0.171	-0.199
-706.616	4.353	0.045	0.033
-705.602	-200.000	0.024	0.277
-704.587	800.000	-0.049	-0.161
-703.572	-35.216	-0.299	0.163
-702.558	134.577	0.030	-0.039
-701.543	-91.472	-0.168	0.048
-700.529	800.000	-0.144	0.463
-699.514	28.704	0.166	-0.140
-698.499	107.555	0.216	-0.257
-697.485	642.423	-0.064	-0.162
-696.470	-120.106	-0.185	0.032
-695.456	410.571	0.114	0.242
-694.441	-110.829	-0.107	-0.022
-693.426	800.000	-0.062	-0.199
-692.412	-104.980	-0.168	0.038
-691.397	32.974	-0.098	0.085
-690.383	-73.184	0.119	0.044
-689.368	-200.000	-0.006	0.092
-688.354	800.000	0.044	-0.155
-687.339	2.105	0.257	-0.185
-686.324	-200.000	-0.021	0.189
-685.310	-105.657	0.391	-0.088
-684.295	-124.824	-0.203	0.031
-683.281	-173.809	-0.301	-0.009
-682.266	-200.000	-0.045	-0.200
-681.251	-68.456	-0.204	-0.079
-680.237	153.279	0.072	0.098
-679.222	731.900	-0.103	0.276
-678.208	212.199	-0.329	-0.518
-677.193	-139.432	0.456	0.049
-676.178	266.692	0.036	0.063
-675.164	800.000	-0.070	0.212
-674.149	-75.463	0.180	-0.064
-673.135	-110.631	-0.363	0.075
-672.120	-25.309	0.273	0.161
-671.105	-200.000	0.018	0.454
-670.091	43.995	0.088	0.080
-669.076	107.063	-0.157	-0.186
-668.062	-196.197	0.149	-0.001
-667.047	-200.000	0.085	0.425
-666.032	-200.000	0.040	0.340
-665.018	20.142	-0.186	-0.150
-664.003	681.651	-0.148	-0.385
-662.989	-156.253	-0.296	-0.019
-661.974	610.109	-0.069	-0.172
-660.959	-44.190	0.167	-0.084
-659.945	36.715	0.207	-0.182
-658.930	696.594	0.074	-0.195
-657.916	-15.246	0.106	-0.068
-656.901	154.851	0.068	-0.093
-655.886	496.549	0.097	-0.223
-654.872	-106.918	-0.116	-0.026
-653.857	156.758	0.130	-0.180
-652.843	-200.000	-0.026	-0.315
-651.828	101.433	0.103	-0.120
-650.814	-200.000	0.019	-0.156
-649.799	76.405	0.098	0.104
-648.784	-200.000	-0.035	0.192
-647.770	94.189	-0.253	0.286
-646.755	-200.000	-0.000	-0.049
-645.741	67.105	-0.177	0.180
-644.726	-19.357	0.298	-0.184
-643.711	-83.021	-0.311	-0.100
-642.697	-101.805	-0.191	0.046
-641.682	-121.302	0.070	-0.012
-640.668	-101.388	-0.132	-0.032
-639.653	-2.864	0.056	-0.039
-638.638	599.813	-0.080	0.199
-637.624	-117.385	0.227	0.041
-636.609	-58.003	0.093	-0.041
-635.595	136.748	-0.146	0.190
-634.580	164.863	0.159	0.224
-633.565	144.266	0.184	0.245
-632.551	-200.000	0.020	0.303
-631.536	621.423	0.063	-0.159
-630.522	-36.119	-0.188	0.101
-629.507	-85.981	0.272	-0.084
-628.492	502.533	-0.065	0.149
-627.478	-123.019	0.450	-0.072
-626.463	-157.781	-0.162	0.010
-625.449	-200.000	-0.017	0.125
-624.434	-15.480	-0.222	0.141
-623.419	101.026	0.161	0.187
-622.405	202.391	0.066	-0.102
-621.390	-24.594	0.236	-0.140
-620.376	456.052	-0.182	0.403
-619.361	-181.074	0.276	0.005
-618.346	-71.486	0.162	0.060
-617.332	44.940	0.198	-0.181
-616.317	-111.470	-0.187	-0.038
-615.303	-29.541	-0.456	-0.260
-614.288	-135.756	0.530	0.062
-613.273	-63.636	-0.108	0.044
-612.259	-157.406	-0.217	0.013
-611.244	-200.000	0.024	-0.140
-610.230	59.140	0.209	-0.204
-609.215	-103.180	-0.345	0.081
-608.201	-6.433	-0.206	0.140
-607.186	46.366	-0.370	0.341
-606.171	175.849	-0.117	0.170
-605.157	-35.259	0.276	-0.149
-604.142	800.000	0.070	-0.248
-603.128	-199.330	-0.111	-0.001
-602.113	800.000	-0.029	0.102
-601.098	-142.329	-0.254	0.025
-600.084	169.886	-0.139	-0.198
-599.069	-15.643	0.447	-0.284
-598.055	-190.006	-0.322	-0.004
-597.040	-179.604	0.273	-0.006
-596.025	-33.489	0.137	0.075
-595.011	-127.976	-0.404	-0.058
-593.996	-200.000	0.011	0.091
-592.982	672.295	0.102	0.263
-591.967	-101.152	-0.204	0.050
-590.952	89.756	0.069	-0.077
-589.938	-156.271	0.176	-0.011
-588.923	731.839	0.081	0.214
-587.909	-70.907	0.453	-0.170
-586.894	-110.970	-0.205	0.042
-585.879	168.370	0.243	-0.345
-584.865	86.642	0.145	0.160
-583.850	-49.684	0.134	0.064
-582.836	314.718	-0.107	0.201
-581.821	-86.826	-0.069	-0.021
-580.806	-140.501	-0.034	-0.004
-579.792	-167.347	-0.319	-0.013
-578.777	-113.623	0.365	-0.071
-577.763	325.373	0.049	-0.093
-576.748	-73.404	-0.024	0.009
-575.733	41.742	-0.207	0.187
-574.719	-124.039	-0.212	-0.033
-573.704	368.357	0.170	-0.341
-572.690	-141.153	0.383	-0.039
-571.675	-67.880	0.183	0.071
-570.661	-59.707	0.017	0.007
-569.646	148.893	-0.056	0.075
-568.631	-78.496	0.250	0.085
-567.617	75.339	0.090	0.094
-566.602	3.954	-0.339	0.247
-565.588	-200.000	0.000	0.196
-564.573	-200.000	0.067	0.329
-563.558	-200.000	0.027	-0.142
-562.544	-49.472	-0.258	0.122
-561.529	-79.571	-0.089	-0.030
-560.515	-200.000	0.045	-0.457
-559.500	68.662	-0.068	0.070
-558.485	800.000	0.117	-0.370
-557.471	22.085	-0.150	0.121
-556.456	-200.000	0.002	-0.158
-555.442	780.706	0.021	-0.058
-554.427	-45.550	-0.274	0.135
-553.412	76.312	0.108	-0.113
-552.398	-88.155	0.266	-0.079
-551.383	800.000	0.096	-0.264
-550.369	664.011	0.141	-0.361
-549.354	-77.493	-0.066	-0.023
-548.339	326.540	0.152	0.290
-547.325	-111.749	0.074	-0.015
-546.310	-111.965	0.075	0.015
-545.296	-174.009	-0.151	0.004
-544.281	208.792	-0.134	-0.209
-543.266	-119.635	0.059	-0.010
-542.252	-136.254	-0.321	-0.037
-541.237	-200.000	-0.003	-0.184
-540.223	39.697	-0.180	0.160
-539.208	-200.000	-0.025	-0.197
-538.193	-8.852	-0.128	0.085
-537.179	-200.000	-0.034	-0.278
-536.164	-100.171	0.250	0.062
-535.150	9.228	-0.222	0.166
-534.135	157.584	0.091	0.125
-533.121	593.940	0.065	0.159
-532.106	473.099	0.124	0.277
-531.091	-83.337	0.262	-0.083
-530.077	-109.032	0.184	-0.039
-529.062	269.837	0.047	0.083
-528.048	-57.144	0.090	0.039
-527.033	4.048	-0.079	-0.058
-526.018	-146.048	-0.129	0.011
-525.004	538.445	-0.034	0.081
-523.989	-200.000	0.000	-0.138
-522.975	-68.402	-0.384	0.148
-521.960	-28.975	0.249	-0.142
-520.945	171.542	0.038	0.054
-519.931	605.427	-0.080	0.197
-518.916	380.775	-0.070	-0.142
-517.902	800.000	-0.020	0.087
-516.887	-200.000	0.003	-0.329
-515.872	-87.199	-0.139	-0.042
-514.858	-92.527	-0.306	0.085
-513.843	116.832	0.187	-0.228
-512.829	-200.000	0.021	-0.424
-511.814	-174.180	-0.385	0.011
-510.799	302.067	0.039	-0.071
-509.785	368.778	-0.093	-0.187
-508.770	703.633	0.065	-0.171
-507.756	347.693	-0.078	-0.152
-506.741	-70.246	-0.153	-0.058
-505.726	800.000	0.030	-0.104
-504.712	558.853	0.142	0.339
-503.697	94.775	0.078	0.088
-502.683	800.000	-0.064	-0.254
-501.668	-56.029	-0.270	-0.120
-500.653	-200.000	-0.036	-0.250
-499.639	789.607	0.076	-0.208
-498.624	-85.669	0.054	0.017
-497.610	142.889	0.099	0.130
-496.595	800.000	0.041	-0.177
-495.581	-200.000	-0.074	0.428
-494.566	-129.599	-0.223	-0.031
-493.551	-186.887	0.258	-0.004
-492.537	107.972	-0.221	0.261
-491.522	-111.197	-0.292	0.059
-490.508	14.374	-0.269	-0.208
-489.493	-78.494	0.187	0.063
-488.478	94.489	0.118	-0.132
-487.464	-187.991	0.127	-0.002
-486.449	-200.000	0.031	-0.293
-485.435	-47.706	0.181	0.087
-484.420	47.880	0.180	0.167
-483.405	-200.000	0.000	0.047
-482.391	6.970	-0.183	0.135
-481.376	381.405	0.048	0.098
-480.362	800.000	-0.023	-0.085
-479.347	-140.559	-0.130	0.013
-478.332	-200.000	-0.053	-0.427
-477.318	-10.732	-0.257	-0.169
-476.303	-2.023	0.297	0.207
-475.289	-95.759	0.130	-0.034
-474.274	800.000	-0.080	0.219
-473.259	-64.833	0.331	0.133
-472.245	-200.000	0.015	-0.124
-471.230	-118.186	0.376	0.066
-470.216	93.067	0.051	-0.057
-469.201	-30.041	0.233	-0.131
-468.186	-4.486	0.323	-0.221
-467.172	-75.826	0.147	-0.052
-466.157	-97.374	-0.261	-0.067
-465.143	1.181	0.091	-0.064
-464.128	0.375	-0.240	0.170
-463.113	319.532	0.134	-0.251
-462.099	-200.000	-0.056	0.249
-461.084	112.306	-0.068	-0.081
-460.070	-83.099	0.104	0.033
-459.055	106.858	-0.121	-0.143
-458.040	658.690	0.118	0.301
-457.026	800.000	-0.052	-0.200
-456.011	-74.263	-0.335	0.120
-454.997	-177.302	0.351	-0.009
-453.982	-200.000	0.056	-0.305
-452.968	-53.015	-0.133	0.061
-451.953	-93.379	-0.224	-0.061
-450.938	1.012	-0.292	-0.207
-449.924	308.522	-0.182	-0.336
-448.909	-27.646	-0.201	-0.115
-447.895	61.579	-0.053	-0.052
-446.880	-0.325	0.132	-0.093
-445.865	-74.656	0.244	-0.087
-444.851	128.592	-0.148	-0.187
-443.836	-12.848	-0.190	0.122
-442.822	153.495	-0.136	-0.184
-441.807	-79.706	0.348	0.116
-440.792	800.000	-0.121	0.419
-439.778	-200.000	-0.046	0.270
-438.763	592.489	-0.127	-0.311
-437.749	80.485	-0.203	-0.217
-436.734	260.065	0.283	0.483
-435.719	97.653	-0.153	0.174
-434.705	-200.000	-0.007	0.131
-433.690	178.049	0.060	-0.087
-432.676	800.000	0.070	0.199
-431.661	418.992	-0.061	0.129
-430.646	-71.225	-0.272	0.101
-429.632	-200.000	0.036	0.266
-428.617	-4.328	-0.131	-0.089
-427.603	375.422	0.040	0.081
-426.588	23.846	-0.173	-0.141
-425.573	-36.730	-0.100	0.053
-424.559	-24.158	0.078	0.046
-423.544	-91.454	0.115	0.032
-422.530	69.579	-0.143	0.146
-421.515	-111.690	0.143	-0.029
-420.500	180.016	-0.134	-0.195
-419.486	-33.908	-0.184	0.100
-418.471	39.512	-0.040	0.035
-417.457	800.000	-0.046	-0.158
-416.442	777.905	0.058	-0.157
-415.428	17.997	-0.141	0.111
-414.413	-52.406	0.093	-0.043
-413.398	-3.285	0.176	0.121
-412.384	800.000	-0.047	0.170
-411.369	-123.000	-0.154	-0.025
-410.355	112.394	-0.181	-0.217
-409.340	371.842	0.085	0.170
-408.325	-60.123	-0.300	-0.126
-407.311	-200.000	-0.040	-0.232
-406.296	357.439	0.055	-0.109
-405.282	423.313	-0.083	0.175
-404.267	-200.000	-0.006	-0.442
-403.252	23.244	0.351	-0.285
-402.238	800.000	0.030	0.110
-401.223	-60.056	0.111	-0.047
-400.209	-200.000	-0.024	-0.232
-399.194	800.000	-0.042	0.171
-398.179	-200.000	-0.001	0.054
-397.165	800.000	-0.034	0.118
-396.150	-129.209	0.177	-0.024
-395.136	-99.024	-0.271	0.068
-394.121	-138.637	-0.217	-0.023
-393.106	-75.653	-0.090	0.032
-392.092	-84.289	0.302	-0.094
-391.077	-200.000	-0.010	-0.166
-390.063	-47.060	-0.079	0.038
-389.048	-145.419	-0.115	-0.010
-388.033	142.778	0.283	0.371
-387.019	314.119	0.201	0.374
-386.004	-39.133	0.068	-0.035
-384.990	129.478	0.062	-0.079
-383.975	-20.239	0.083	-0.051
-382.960	-200.000	-0.008	0.193
-381.946	-128.569	0.322	0.045
-380.931	407.613	-0.077	-0.161
-379.917	-200.000	-0.034	0.256
-378.902	342.123	-0.174	0.335
-377.888	-117.324	0.050	-0.009
-376.873	-133.757	-0.096	0.012
-375.858	35.562	-0.042	0.036
-374.844	47.432	-0.195	0.180
-373.829	45.386	0.161	-0.147
-372.815	297.949	-0.172	-0.311
-371.800	-53.444	0.280	0.127
-370.785	-35.690	-0.364	0.195
-369.771	-46.291	-0.324	0.157
-368.756	-86.424	0.223	-0.068
-367.742	800.000	0.111	0.403
-366.727	-200.000	-0.007	0.281
-365.712	-52.142	0.256	0.117
-364.698	239.326	0.136	-0.223
-363.683	-200.000	0.036	-0.233
-362.669	15.477	0.119	0.092
-361.654	-22.625	0.202	0.120
-360.639	144.146	-0.108	0.142
-359.625	24.187	0.136	0.111
-358.610	80.503	0.130	0.138
-357.596	-83.065	-0.049	-0.016
-356.581	-200.000	0.000	0.044
-355.566	196.537	-0.216	0.324
-354.552	117.843	0.055	0.067
-353.537	449.859	-0.100	-0.218
-352.523	-200.000	-0.012	-0.133
-351.508	-109.091	-0.326	0.068
-350.493	-7.037	0.237	-0.158
-349.479	-200.000	0.064	-0.343
-348.464	48.514	-0.048	0.045
-347.450	-148.003	-0.172	0.014
-346.435	-10.033	-0.209	0.137
-345.420	-110.536	-0.143	-0.029
-344.406	213.678	-0.106	0.166
-343.391	-67.469	0.140	-0.054
-342.377	-92.721	-0.193	0.053
-341.362	-101.514	-0.033	0.008
-340.348	-130.699	0.162	0.021
-339.333	800.000	0.093	-0.306
-338.318	-200.000	-0.026	-0.219
-337.304	16.368	-0.345	-0.268
-336.289	800.000	0.055	-0.193
-335.275	-59.372	-0.335	0.142
-334.260	38.991	0.199	0.175
-333.245	-29.599	0.091	0.051
-332.231	-200.000	0.012	-0.182
-331.216	780.594	-0.098	-0.263
-330.202	-8.965	-0.036	0.024
-329.187	800.000	-0.052	0.193
-328.172	789.790	0.055	0.149
-327.158	-171.499	-0.376	0.012
-326.143	173.874	-0.127	-0.181
-325.129	-200.000	-0.004	-0.191
-324.114	-200.000	0.008	-0.175
-323.099	800.000	0.024	0.081
-322.085	-200.000	-0.009	-0.142
-321.070	258.636	0.134	-0.227
-320.056	110.402	-0.032	-0.038
-319.041	-70.107	0.418	-0.157
-318.026	-200.000	0.012	0.200
-317.012	-200.000	0.063	-0.391
-315.997	800.000	0.039	-0.122
-314.983	-131.413	0.272	-0.035
-313.968	800.000	-0.036	0.137
-312.953	-200.000	-0.009	-0.293
-311.939	-106.758	0.371	-0.081
-310.924	-64.870	0.304	-0.121
-309.910	267.583	0.027	0.046
-308.895	274.415	0.089	-0.154
-307.880	211.276	0.165	-0.255
-306.866	-104.279	0.363	0.083
-305.851	29.428	-0.147	0.123
-304.837	94.819	-0.095	0.106
-303.822	-103.555	-0.271	0.063
-302.807	137.261	-0.079	0.102
-301.793	-200.000	-0.054	-0.249
-300.778	138.073	0.188	0.242
-299.764	492.449	0.023	0.052
-298.749	-54.661	0.265	-0.118
-297.735	-130.893	0.491	-0.065
-296.720	-43.029	-0.432	-0.215
-295.705	56.266	-0.118	-0.113
-294.691	569.612	0.087	-0.207
-293.676	-200.000	0.268	0.001
-292.662	-200.000	0.030	0.234
-291.647	332.306	0.063	-0.120
-290.632	-152.954	-0.271	0.019
-289.618	-150.595	0.412	0.031
-288.603	-100.012	-0.209	-0.051
-287.589	-84.912	0.192	0.059
-286.574	-200.000	-0.131	-0.001
-285.559	62.405	0.143	0.140
-284.545	-200.000	-0.028	0.209
-283.530	346.835	-0.039	-0.076
-282.516	-200.000	-0.454	0.001
-281.501	366.883	0.067	-0.133
-280.486	800.000	0.021	-0.073
-279.472	800.000	0.026	-0.095
-278.457	-35.790	0.201	0.107
-277.443	-106.894	0.112	-0.024
-276.428	306.909	0.128	0.234
-275.413	-150.407	-0.090	0.007
-274.399	96.666	-0.103	-0.116
-273.384	-77.329	0.138	0.047
-272.370	-69.165	-0.109	-0.041
-271.355	-147.311	0.137	-0.011
-270.340	-200.000	-0.024	0.202
-269.326	800.000	-0.043	0.156
-268.311	200.450	0.110	0.166
-267.297	-120.878	-0.207	0.034
-266.282	123.943	0.147	0.181
-265.267	-189.633	0.383	-0.004
-264.253	-91.941	0.236	0.066
-263.238	686.367	0.132	-0.339
-262.224	800.000	-0.102	-0.321
-261.209	-200.000	0.044	-0.201
-260.195	61.224	-0.212	-0.206
-259.180	239.528	-0.194	-0.318
-258.165	-200.000	-0.064	-0.292
-257.151	234.425	-0.106	-0.171
-256.136	65.338	-0.279	0.277
-255.122	-32.464	-0.073	-0.040
-254.107	43.813	-0.057	-0.051
-253.092	-118.123	-0.288	0.051
-252.078	-75.938	0.170	0.059
-251.063	346.143	0.059	0.115
-250.049	-200.000	-0.039	0.199
-249.034	-200.000	0.010	-0.069
-248.019	354.703	-0.071	-0.138
-247.005	-96.213	-0.254	-0.066
-245.990	181.884	0.152	-0.219
-244.976	-12.113	0.254	0.163
-243.961	-176.033	0.268	-0.007
-242.946	-55.368	-0.119	0.052
-241.932	-34.124	-0.212	0.114
-240.917	-58.476	-0.098	0.042
-239.903	-66.103	0.203	0.080
-238.888	148.027	-0.241	0.319
-237.873	800.000	0.044	0.154
-236.859	-65.657	0.349	0.137
-235.844	-105.515	-0.163	-0.036
-234.830	49.115	0.377	0.348
-233.815	-129.255	0.179	0.024
-232.800	470.764	-0.017	0.039
-231.786	-44.235	-0.290	0.143
-230.771	-51.178	0.222	-0.102
-229.757	231.498	0.085	-0.136
-228.742	60.154	-0.192	0.186
-227.727	-38.507	-0.216	-0.112
-226.713	-73.624	-0.229	0.082
-225.698	-45.075	-0.402	0.196
-224.684	-200.000	0.015	0.212
-223.669	210.720	-0.086	0.132
-222.655	-17.758	0.325	-0.200
-221.640	-180.103	0.078	-0.002
-220.625	35.532	0.086	0.074
-219.611	-64.260	-0.044	0.018
-218.596	-24.368	-0.221	-0.129
-217.582	156.982	0.061	0.082
-216.567	800.000	-0.047	-0.185
-215.552	392.387	-0.119	-0.244
-214.538	73.223	0.111	-0.113
-213.523	-134.233	0.117	0.014
-212.509	-17.516	-0.215	0.133
-211.494	-200.000	0.004	0.038
-210.479	-200.000	0.014	-0.298
-209.465	-12.579	-0.115	0.074
-208.450	-198.063	0.353	0.002
-207.436	800.000	0.103	0.324
-206.421	262.693	-0.059	-0.100
-205.406	-5.452	-0.377	-0.254
-204.392	-200.000	0.035	0.205
-203.377	528.112	0.110	0.254
-202.363	-12.775	-0.157	0.100
-201.348	-65.371	-0.159	-0.063
-200.333	800.000	0.009	-0.033
-199.319	21.676	0.329	-0.262
-198.304	131.969	-0.024	-0.030
-197.290	-200.000	0.001	0.172
-196.275	90.196	-0.275	-0.302
-195.260	-200.000	0.008	0.184
-194.246	-67.406	0.089	0.034
-193.231	-200.000	-0.010	-0.203
-192.217	-70.710	-0.165	0.061
-191.202	800.000	-0.052	0.192
-190.187	-87.451	0.417	0.124
-189.173	0.555	-0.303	0.212
-188.158	108.021	-0.098	-0.114
-187.144	160.396	0.250	0.341
-186.129	-78.981	0.216	-0.072
-185.114	-167.498	-0.337	-0.013
-184.100	-200.000	0.029	-0.430
-183.085	49.100	-0.307	-0.282
-182.071	-64.471	0.167	0.066
-181.056	-66.138	-0.141	0.055
-180.042	-127.129	0.303	0.043
-179.027	160.696	-0.069	0.095
-178.012	124.070	0.129	-0.159
-176.998	138.285	-0.172	-0.221
-175.983	30.587	-0.183	-0.153
-174.969	89.673	0.140	0.153
-173.954	-67.920	-0.341	0.130
-172.939	-146.637	0.197	0.017
-171.925	-200.000	0.016	-0.391
-170.910	-89.543	-0.091	-0.026
-169.896	800.000	-0.064	0.180
-168.881	-167.853	-0.505	0.019
-167.866	582.597	0.022	-0.052
-166.852	-81.949	0.258	-0.083
-165.837	-102.634	0.226	0.053
-164.823	675.290	0.042	-0.108
-163.808	800.000	0.088	0.302
-162.793	-125.494	-0.092	0.014
-161.779	-200.000	0.096	0.427
-160.764	-52.963	0.402	-0.181
-159.750	665.604	-0.060	-0.152
-158.735	320.314	0.140	0.259
-157.720	-200.000	0.015	0.575
-156.706	191.877	-0.084	-0.123
-155.691	8.045	-0.128	-0.094
-154.677	164.499	0.184	0.254
-153.662	107.996	0.043	-0.050
-152.647	-81.427	0.138	0.044
-151.633	800.000	0.092	0.248
-150.618	-14.962	-0.298	-0.187
-149.604	-67.317	0.103	-0.039
-148.589	-200.000	-0.024	-0.335
-147.574	800.000	0.087	-0.247
-146.560	800.000	0.058	0.186
-145.545	-200.000	-0.031	-0.230
-144.531	-151.821	0.099	-0.007
-143.516	-200.000	0.004	0.021
-142.502	493.837	-0.163	-0.366
-141.487	-200.000	0.014	-0.272
-140.472	-200.000	-0.017	0.136
-139.458	-60.084	0.254	0.106
-138.443	-135.953	-0.079	0.009
-137.429	104.543	-0.231	-0.266
-136.414	258.840	0.108	-0.182
-135.399	56.500	-0.033	0.031
-134.385	-55.395	0.223	-0.098
-133.370	84.969	0.115	0.124
-132.356	-48.709	0.294	0.138
-131.341	-131.266	0.271	0.035
-130.326	40.685	-0.218	-0.192
-129.312	-50.816	0.372	-0.171
-128.297	-3.785	-0.212	-0.144
-127.283	42.693	0.188	0.167
-126.268	11.141	0.276	-0.206
-125.253	-200.000	0.020	0.098
-124.239	-42.606	0.040	0.020
-123.224	30.364	0.135	-0.113
-122.210	-53.607	0.128	0.057
-121.195	-63.726	-0.200	0.080
-120.180	-89.137	0.244	0.070
-119.166	-123.878	-0.364	-0.056
-118.151	-139.305	0.371	0.039
-117.137	-200.000	0.014	0.206
-116.122	-162.681	-0.077	-0.004
-115.107	-94.799	-0.213	0.056
-114.093	-148.260	0.431	0.035
-113.078	-133.774	0.422	0.051
-112.064	17.607	0.049	-0.038
-111.049	-11.390	0.324	-0.208
-110.034	-71.995	0.215	-0.078
-109.020	93.997	-0.122	0.135
-108.005	107.027	0.010	-0.011
-106.991	58.701	-0.194	-0.186
-105.976	-181.230	-0.146	0.003
-104.962	-170.041	-0.123	0.004
-103.947	-200.000	-0.007	-0.182
-102.932	149.153	0.166	0.219
-101.918	-178.494	0.360	-0.008
-100.903	-200.000	-0.039	0.227
-99.889	-60.911	-0.045	0.018
-98.874	-97.385	0.225	0.057
-97.859	-45.425	0.251	-0.122
-96.845	-61.191	0.358	-0.147
-95.830	67.042	-0.068	-0.068
-94.816	-200.000	-0.016	-0.114
-93.801	140.610	-0.041	-0.053
-92.786	-33.100	-0.061	0.033
-91.772	-200.000	0.070	-0.595
-90.757	49.039	0.154	-0.142
-89.743	12.485	0.127	-0.095
-88.728	-200.000	0.018	-0.106
-87.713	546.814	-0.120	0.280
-86.699	-39.223	-0.254	-0.130
-85.684	-109.293	0.194	0.040
-84.670	88.693	0.238	-0.258
-83.655	324.780	-0.106	-0.197
-82.640	283.216	-0.200	-0.351
-81.626	-96.058	0.180	-0.047
-80.611	-32.712	0.171	0.093
-79.597	-85.818	-0.085	0.026
-78.582	61.457	-0.111	-0.107
-77.567	-153.713	0.188	0.013
-76.553	-86.060	0.025	0.007
-75.538	800.000	0.038	0.106
-74.524	174.809	0.027	-0.038
-73.509	800.000	0.046	-0.176
-72.494	-20.329	-0.138	0.083
-71.480	32.384	0.160	0.135
-70.465	-200.000	0.047	-0.212
-69.451	-54.491	-0.247	0.109
-68.436	800.000	0.042	-0.155
-67.422	-31.739	-0.184	-0.101
-66.407	85.431	-0.191	-0.204
-65.392	-19.400	0.261	0.158
-64.378	-87.363	-0.041	0.012
-63.363	-33.343	-0.161	0.087
-62.349	77.718	-0.130	-0.135
-61.334	98.995	-0.887	-0.999
-60.319	49.244	0.727	0.666
-59.305	800.000	-0.462	-1.409
-58.290	710.049	0.559	1.440
-57.276	250.023	0.653	1.080
-56.261	-200.000	125.046	649.428
-55.246	403.590	1582.949	3246.272
-54.232	140.839	2745.771	3535.520
-53.217	94.471	2192.466	2426.869
-52.203	33.686	1707.003	1446.108
-51.188	26.148	1523.968	1239.464
-50.173	24.194	1500.690	1207.261
-49.159	48.772	1571.801	1436.235
-48.144	45.701	1584.752	1426.669
-47.130	26.351	1533.239	1248.214
-46.115	23.590	1516.490	1215.640
-45.100	23.272	1513.896	1211.340
-44.086	23.245	1512.439	1209.938
-43.071	23.193	1509.786	1207.414
-42.057	23.187	1508.493	1206.293
-41.042	23.155	1507.175	1204.973
-40.027	23.107	1505.966	1203.629
-39.013	23.152	1504.040	1202.353
-37.998	23.049	1502.887	1200.683
-36.984	23.161	1501.532	1200.313
-35.969	23.162	1499.977	1199.025
-34.954	23.158	1498.466	1197.746
-33.940	23.208	1497.249	1197.061
-32.925	23.162	1495.855	1195.591
-31.911	23.226	1494.624	1194.989
-30.896	23.179	1493.443	1193.682
-29.881	23.281	1492.220	1193.346
-28.867	23.231	1490.943	1191.938
-27.852	23.208	1489.490	1190.577
-26.838	23.293	1487.658	1189.632
-25.823	23.264	1486.140	1188.178
-24.809	23.155	1484.794	1186.329
-23.794	23.147	1483.534	1185.221
-22.779	23.208	1482.065	1184.406
-21.765	23.303	1480.939	1184.096
-20.750	23.244	1479.762	1182.708
-19.736	23.238	1478.666	1181.746
-18.721	23.326	1477.526	1181.377
-17.706	23.214	1476.762	1179.975
-16.692	23.205	1475.540	1178.888
-15.677	23.209	1474.518	1178.054
-14.663	23.211	1473.266	1177.017
-13.648	23.113	1472.678	1175.852
-12.633	23.123	1472.081	1175.397
-11.619	23.250	1470.838	1175.200
-10.604	23.141	1470.328	1174.022
-9.590	23.101	1469.706	1173.210
-8.575	23.141	1468.769	1172.685
-7.560	23.180	1467.559	1171.926
-6.546	23.157	1466.618	1170.979
-5.531	23.190	1465.804	1170.501
-4.517	23.185	1464.370	1169.275
-3.502	23.133	1463.739	1168.381
-2.487	23.262	1462.708	1168.363
-1.473	23.217	1461.483	1167.043
-0.458	23.144	1460.352	1165.610
0.556	21.530	1450.795	1154.660
1.571	18.452	1426.682	1115.368
2.586	15.074	1364.517	1045.605
3.600	13.680	1280.861	973.241
4.615	12.702	1237.575	934.717
5.629	11.163	1180.794	883.410
6.644	5.526	1099.374	793.898
7.659	0.863	1063.687	745.134
8.673	0.251	1057.922	738.033
9.688	0.238	1054.520	735.530
10.702	0.136	1053.379	734.169
11.717	0.155	1051.284	732.738
12.731	2.114	1052.002	742.710
13.746	8.071	1060.650	777.890
14.761	14.277	1068.145	813.742
15.775	16.516	1070.808	826.654
16.790	16.463	1069.479	825.298
17.804	15.552	1067.217	819.040
18.819	14.739	1065.452	813.653
19.834	14.156	1064.604	810.096
20.848	14.016	1063.173	808.251
21.863	13.782	1062.805	806.761
22.877	13.557	1061.331	804.478
23.892	13.283	1061.270	803.034
24.907	13.266	1059.907	801.848
25.921	13.338	1059.108	801.523
26.936	13.175	1058.780	800.413
27.950	13.209	1058.076	799.972
28.965	13.228	1057.716	799.724
29.980	13.391	1056.414	799.457
30.994	13.342	1055.691	798.599
32.009	13.477	1054.746	798.468
33.023	13.563	1053.845	798.128
34.038	13.476	1053.416	797.313
35.053	13.407	1052.469	796.192
36.067	13.452	1051.317	795.470
37.082	13.370	1050.897	794.684
38.096	13.454	1049.583	794.027
39.111	13.446	1048.732	793.275
40.126	13.509	1048.199	793.103
41.140	13.435	1047.134	791.872
42.155	13.263	1046.421	790.442
43.169	13.290	1045.647	789.917
44.184	13.232	1044.481	788.685
45.199	13.206	1043.734	787.927
46.213	13.239	1042.551	787.124
47.228	13.327	1041.434	786.629
48.242	13.383	1039.865	785.642
49.257	13.266	1039.420	784.678
50.271	13.328	1038.318	784.073
51.286	13.307	1037.801	783.514
52.301	13.396	1036.598	782.956
53.315	13.293	1036.331	782.200
54.330	13.434	1035.052	781.828
55.344	13.472	1033.968	781.123
56.359	13.255	1033.108	779.380
57.374	13.336	1032.047	778.891
58.388	13.327	1031.050	778.029
59.403	13.325	1030.516	777.548
60.417	13.366	1029.610	776.984
61.432	13.326	1029.116	776.358
62.447	13.224	1028.167	775.094
63.461	13.212	1027.433	774.416
64.476	13.260	1026.704	774.021
65.490	13.184	1025.851	772.955
66.505	13.142	1024.806	771.905
67.520	13.296	1024.084	772.009
68.534	13.341	1023.315	771.575
69.549	13.333	1022.695	770.997
70.563	13.255	1022.237	770.225
71.578	13.358	1021.040	769.732
72.593	13.349	1019.918	768.776
73.607	13.178	1019.308	767.452
74.622	13.211	1018.241	766.736
75.636	13.112	1017.681	765.787
76.651	13.185	1016.453	765.133
77.666	13.225	1016.078	764.970
78.680	13.210	1015.197	764.169
79.695	13.163	1014.764	763.558
80.709	13.319	1014.162	763.759
81.724	13.331	1013.294	763.094
82.739	13.261	1012.213	761.886
83.753	13.279	1011.877	761.650
84.768	13.390	1011.199	761.585
85.782	13.449	1010.048	760.923
86.797	13.503	1009.357	760.582
87.812	13.365	1008.404	759.161
88.826	13.482	1007.782	759.161
89.841	13.320	1007.091	757.832
90.855	13.350	1006.457	757.428
91.870	13.438	1005.362	756.937
92.884	13.471	1004.510	756.378
93.899	13.490	1003.780	755.852
94.914	13.480	1002.818	755.016
95.928	13.455	1002.575	754.648
96.943	13.464	1001.983	754.177
97.957	13.471	1001.305	753.631
98.972	13.551	1000.360	753.217
99.987	13.582	999.605	752.725
101.001	13.494	998.549	751.464
102.016	13.573	998.032	751.366
103.030	13.461	996.947	749.977
104.045	13.569	995.814	749.544
105.060	13.571	994.810	748.733
106.074	13.462	994.207	747.721
107.089	13.490	993.516	747.261
108.103	13.372	992.498	745.898
109.118	13.318	991.784	745.050
110.133	13.331	991.358	744.722
111.147	13.288	990.140	743.549
112.162	13.370	988.996	742.994
113.176	13.315	988.557	742.350
114.191	13.404	987.423	741.833
115.206	13.399	986.399	740.977
116.220	13.471	985.471	740.533
117.235	13.502	984.769	740.080
118.249	13.410	983.594	738.722
119.264	13.384	982.772	737.920
120.279	13.348	982.020	737.134
121.293	13.394	981.324	736.747
122.308	13.420	980.502	736.183
123.322	13.313	979.969	735.242
124.337	13.343	978.654	734.322
125.352	13.293	977.624	733.264
126.366	13.285	976.670	732.446
127.381	13.319	975.351	731.544
128.395	13.305	974.491	730.774
129.410	13.283	973.832	730.116
130.424	13.275	972.500	729.018
131.439	13.356	971.427	728.507
132.454	13.405	970.747	728.148
133.468	13.436	970.033	727.685
134.483	13.384	969.555	727.032
135.497	13.377	968.880	726.432
136.512	13.434	968.135	726.058
137.527	13.439	967.419	725.477
138.541	13.427	966.544	724.705
139.556	13.399	965.835	723.989
140.570	13.365	965.037	723.177
141.585	13.421	964.333	722.831
142.600	13.481	963.766	722.605
143.614	13.525	962.779	721.990
144.629	13.621	962.133	721.859
145.643	13.624	961.243	721.143
146.658	13.643	960.175	720.359
147.673	13.684	959.425	719.909
148.687	13.578	958.494	718.687
149.702	13.504	957.529	717.583
150.716	13.435	957.097	716.896
151.731	13.563	956.275	716.772
152.746	13.407	955.414	715.389
153.760	13.424	954.960	715.057
154.775	13.573	953.790	714.758
155.789	13.641	953.014	714.407
156.804	13.657	952.372	713.934
157.819	13.580	951.463	712.856
158.833	13.738	950.750	712.939
159.848	13.832	950.320	712.955
160.862	13.605	950.351	711.944
161.877	13.726	948.805	711.241
162.892	13.721	948.216	710.713
163.906	13.648	947.220	709.591
164.921	13.576	946.612	708.766
165.935	13.555	945.606	707.861
166.950	13.667	944.828	707.692
167.964	13.713	943.548	706.869
168.979	13.848	942.284	706.436
169.994	13.766	941.698	705.582
171.008	13.671	941.196	704.740
172.023	13.797	940.328	704.564
173.037	13.806	939.576	703.975
174.052	13.880	938.268	703.247
175.067	13.866	938.184	703.064
176.081	13.661	937.163	701.366
177.096	13.749	936.422	701.123
178.110	13.715	935.437	700.181
179.125	13.854	934.758	700.198
180.140	13.750	934.086	699.191
181.154	13.677	933.619	698.474
182.169	13.836	932.636	698.347
183.183	13.921	931.846	698.048
184.198	13.970	931.510	697.942
185.213	13.910	930.828	697.118
186.227	14.033	929.985	696.940
187.242	14.092	929.429	696.707
188.256	14.004	928.484	695.572
189.271	14.053	928.337	695.606
190.286	14.059	927.511	694.950
191.300	13.939	926.665	693.751
192.315	14.060	925.511	693.331
193.329	13.798	925.044	691.829
194.344	13.748	924.823	691.393
195.359	13.839	924.344	691.352
196.373	13.833	923.911	690.942
197.388	14.107	922.947	691.300
198.402	14.081	922.525	690.814
199.417	14.340	921.582	691.124
200.432	14.222	921.584	690.574
201.446	14.223	921.114	690.165
202.461	14.198	920.778	689.748
203.475	14.395	920.050	689.957
204.490	14.210	919.941	689.048
205.504	14.110	918.792	687.714
206.519	14.243	917.837	687.486
207.534	14.303	916.979	687.032
208.548	14.216	916.497	686.250
209.563	14.303	915.655	685.919
210.577	14.307	914.903	685.309
211.592	14.296	914.342	684.785
212.607	14.341	913.731	684.452
213.621	14.421	913.226	684.343
214.636	14.372	912.323	683.402
215.650	14.373	911.651	682.841
216.665	14.477	911.357	682.988
217.680	14.417	910.878	682.323
218.694	14.534	910.172	682.212
219.709	14.376	909.866	681.275
220.723	14.485	909.421	681.327
221.738	14.433	908.570	680.419
222.753	14.503	907.411	679.775
223.767	14.544	907.086	679.637
224.782	14.434	906.161	678.438
225.796	14.613	905.154	678.350
226.811	14.616	904.819	678.053
227.826	14.697	904.160	677.826
228.840	14.646	903.358	676.959
229.855	14.331	903.016	675.365
230.869	14.559	902.330	675.718
231.884	14.538	901.518	674.964
232.899	14.658	900.787	674.843
233.913	14.506	900.301	673.805
234.928	14.454	899.512	672.946
235.942	14.582	898.843	672.903
236.957	14.600	897.936	672.233
237.972	14.524	897.219	671.331
238.986	14.679	896.623	671.450
240.001	14.584	896.159	670.663
241.015	14.658	895.426	670.352
242.030	14.619	894.634	669.542
243.045	14.675	894.165	669.357
244.059	14.683	893.706	668.986
245.074	14.743	892.735	668.439
246.088	14.849	892.117	668.344
247.103	14.808	891.747	667.844
248.117	14.771	891.086	667.140
249.132	14.792	890.394	666.647
250.147	14.899	889.580	666.404
251.161	14.876	888.858	665.711
252.176	14.937	888.298	665.476
253.190	15.076	887.582	665.434
254.205	15.056	886.962	664.832
255.220	15.139	886.147	664.490
256.234	15.146	885.728	664.145
257.249	15.182	885.206	663.837
258.263	15.265	884.436	663.531
259.278	15.161	883.922	662.675
260.293	15.047	884.194	662.370
261.307	15.064	883.428	661.803
262.322	15.125	882.527	661.311
263.336	15.260	881.870	661.292
264.351	15.303	880.831	660.624
265.366	15.337	880.654	660.567
266.380	15.216	880.347	659.804
267.395	15.317	878.678	658.889
268.409	15.206	878.466	658.236
269.424	15.283	878.164	658.256
270.439	15.355	877.248	657.791
271.453	15.263	876.411	656.748
272.468	15.251	876.022	656.350
273.482	15.298	875.146	655.818
274.497	15.281	874.821	655.451
275.512	15.353	873.785	654.897
276.526	15.469	872.893	654.625
277.541	15.350	872.217	653.597
278.555	15.364	871.754	653.246
279.570	15.417	871.938	653.531
280.585	15.456	870.757	652.742
281.599	15.500	870.300	652.510
282.614	15.410	869.854	651.768
283.628	15.544	868.642	651.323
284.643	15.471	868.642	650.983
285.657	15.553	868.001	650.763
286.672	15.547	867.492	650.301
287.687	15.482	867.144	649.729
288.701	15.450	866.764	649.264
289.716	15.683	865.467	649.135
290.730	15.609	864.937	648.393
291.745	15.618	864.632	648.142
292.760	15.645	863.605	647.419
293.774	15.744	862.551	646.952
294.789	15.706	862.661	646.833
295.803	15.580	862.084	645.857
296.818	15.656	861.549	645.692
297.833	15.762	860.773	645.458
298.847	15.681	859.858	644.408
299.862	15.738	859.426	644.245
300.876	15.595	859.044	643.353
301.891	15.751	858.233	643.287
302.906	15.771	857.354	642.644
303.920	15.887	856.742	642.572
304.935	15.922	856.140	642.197
305.949	15.832	855.661	641.440
306.964	15.921	855.026	641.244
307.979	15.864	854.321	640.444
308.993	15.967	853.542	640.194
310.008	15.971	853.103	639.824
311.022	16.109	852.463	639.810
312.037	15.922	852.172	638.828
313.052	16.004	851.655	638.693
314.066	16.077	850.808	638.279
315.081	16.053	850.336	637.774
316.095	16.011	849.758	637.126
317.110	15.904	849.298	636.323
318.125	16.021	848.733	636.284
319.139	15.911	848.650	635.749
320.154	15.867	847.972	635.020
321.168	16.046	847.355	635.177
322.183	16.077	846.517	634.608
323.197	15.951	846.305	633.921
324.212	16.063	845.760	633.877
325.227	16.133	844.993	633.510
326.241	16.088	844.685	633.053
327.256	16.093	844.010	632.510
328.270	16.117	843.447	632.121
329.285	16.127	842.644	631.500
330.300	16.161	842.039	631.117
331.314	16.185	841.787	630.965
332.329	16.177	841.233	630.463
333.343	16.210	840.391	629.899
334.358	16.044	840.112	629.013
335.373	16.245	839.309	629.109
336.387	16.322	839.077	629.165
337.402	16.244	838.186	628.152
338.416	16.339	837.647	628.043
339.431	16.327	836.817	627.321
340.446	16.308	836.904	627.263
341.460	16.331	836.149	626.725
342.475	16.529	835.253	626.733
343.489	16.356	835.244	626.029
344.504	16.536	834.512	626.092
345.519	16.630	833.707	625.780
346.533	16.580	833.517	625.395
347.548	16.583	832.737	624.767
348.562	16.558	832.207	624.223
349.577	16.438	831.794	623.414
350.592	16.473	831.267	623.093
351.606	16.312	830.781	622.078
352.621	16.536	829.896	622.187
353.635	16.447	830.035	621.907
354.650	16.570	829.570	621.956
355.665	16.535	829.094	621.416
356.679	16.407	829.289	621.039
357.694	16.721	828.336	621.422
358.708	16.571	827.587	620.256
359.723	16.696	826.793	620.063
360.738	16.549	826.323	619.116
361.752	16.589	825.897	618.889
362.767	16.695	825.597	618.997
363.781	16.713	825.261	618.757
364.796	16.766	824.607	618.407
365.810	16.839	824.042	618.194
366.825	16.707	823.725	617.418
367.840	16.843	823.749	617.880
368.854	16.759	823.158	617.074
369.869	16.889	822.351	616.889
370.883	16.812	822.027	616.308
371.898	16.936	821.373	616.217
372.913	16.884	820.708	615.475
373.927	16.885	820.158	615.011
374.942	16.985	819.442	614.783
375.956	17.033	818.854	614.459
376.971	17.024	818.112	613.817
377.986	17.026	817.967	613.660
379.000	17.103	817.051	613.196
380.015	17.053	817.013	612.934
381.029	17.216	816.023	612.723
382.044	17.160	815.360	611.971
383.059	17.084	815.077	611.430
384.073	17.082	814.577	610.995
385.088	17.073	814.220	610.638
386.102	17.144	813.318	610.164
387.117	17.089	813.181	609.809
388.132	17.181	812.277	609.408
389.146	17.115	812.061	608.956
390.161	17.186	811.904	609.037
391.175	16.958	812.068	608.288
392.190	17.151	811.173	608.256
393.205	17.356	809.991	608.048
394.219	17.273	809.894	607.627
395.234	17.164	809.918	607.200
396.248	17.198	808.875	606.485
397.263	17.124	808.423	605.829
398.278	17.085	807.952	605.285
399.292	17.145	807.869	605.381
400.307	17.169	807.329	605.011
401.321	17.180	806.803	604.601
402.336	17.235	806.540	604.546
403.350	17.067	806.249	603.679
404.365	17.207	805.798	603.785
405.380	17.339	805.077	603.658
406.394	17.567	804.743	604.163
407.409	17.405	804.018	602.993
408.423	17.437	803.945	602.996
409.438	17.467	803.326	602.584
410.453	17.624	802.766	602.666
411.467	17.425	802.555	601.753
412.482	17.772	801.533	602.157
413.496	17.607	801.414	601.433
414.511	17.580	801.437	601.302
415.526	17.597	801.020	600.994
416.540	17.703	800.279	600.759
417.555	17.636	799.884	600.173
418.569	17.631	799.168	599.566
419.584	17.633	798.958	599.362
420.599	17.701	798.536	599.231
421.613	113.884	1298.104	1488.355
422.628	98.141	1370.827	1488.444
