DTS Sentinel unit serial number:	SN413079Multiplexer serial number:	ORYXHardware model number:	OX4-SRSoftware version number:	ORYX F/W v4.00 Oryx Data Collector v3.7.2.0data status	okinstallation	princeton_trtdifferential loss correction	single-endedforward channel	channel 3reverse channel	N/Adate	2019/09/15time	10:08:34forward acquisition time	60.00reverse acquisition time	0.00gamma	496.2192k internal	0.2307k external	0.2307temperature offset calibration	0.9976default loss term (dB/km)	0.3790temperature slope calibration	1.0000multiplexer offset coefficient	1.0000multiplexer slope coefficient	1.0000fibre end	0.00T internal ref (°C)	34.19T ext. ref 1 (°C)	5.02T ext. ref 2 (°C)	30.00length (m)	temperature (°C)	Stokes	anti-Stokes-747.200	-26.545	-0.137	0.081
-746.185	800.000	-0.106	0.422
-745.171	597.447	-0.088	-0.222
-744.156	588.559	-0.064	0.160
-743.142	800.000	0.084	0.352
-742.127	-200.000	0.022	0.127
-741.112	69.323	-0.065	0.068
-740.098	-200.000	-0.030	0.203
-739.083	-91.933	0.160	-0.046
-738.069	-200.000	-0.026	-0.129
-737.054	191.536	-0.171	0.263
-736.039	-28.314	-0.115	-0.067
-735.025	-200.000	-0.060	0.398
-734.010	-86.259	-0.262	0.082
-732.996	445.062	0.140	-0.311
-731.981	-31.413	-0.191	-0.109
-730.966	-15.425	0.183	0.119
-729.952	167.418	-0.153	-0.221
-728.937	136.248	-0.053	0.070
-727.923	-200.000	0.044	0.324
-726.908	-90.344	-0.303	-0.090
-725.894	-200.000	0.058	-0.262
-724.879	128.235	-0.068	-0.088
-723.864	358.697	0.097	-0.197
-722.850	199.821	0.059	0.091
-721.835	489.432	-0.077	-0.179
-720.821	453.680	0.113	0.254
-719.806	-89.437	0.137	-0.041
-718.791	53.321	-0.144	-0.141
-717.777	105.085	-0.068	0.081
-716.762	-52.130	-0.177	0.084
-715.748	-200.000	0.006	-0.048
-714.733	-200.000	-0.005	-0.260
-713.718	-200.000	-0.059	0.359
-712.704	30.851	0.056	0.049
-711.689	-2.581	-0.189	-0.134
-710.675	658.657	0.059	0.154
-709.660	159.970	0.151	-0.214
-708.645	-152.998	-0.101	-0.007
-707.631	-82.849	0.430	-0.141
-706.616	-200.000	-0.009	-0.190
-705.602	-62.579	-0.402	-0.169
-704.587	800.000	0.042	-0.185
-703.572	1.090	-0.186	0.135
-702.558	-160.988	-0.338	0.018
-701.543	-46.424	-0.261	-0.130
-700.529	-49.318	-0.362	0.176
-699.514	240.059	0.043	-0.073
-698.499	-200.000	-0.021	-0.222
-697.485	-27.711	0.230	-0.136
-696.470	800.000	-0.138	0.422
-695.456	263.195	0.192	0.339
-694.441	57.857	-0.147	0.146
-693.426	-113.532	0.197	-0.039
-692.412	-95.210	-0.164	-0.045
-691.397	-115.536	-0.258	0.049
-690.383	-98.985	0.382	-0.098
-689.368	58.411	-0.206	0.205
-688.354	800.000	0.061	0.170
-687.339	88.642	0.079	0.089
-686.324	-200.000	0.066	0.298
-685.310	35.853	0.151	-0.135
-684.295	-83.804	-0.257	-0.083
-683.281	-6.023	-0.397	0.275
-682.266	489.503	0.101	-0.234
-681.251	290.817	0.097	0.179
-680.237	-70.631	0.113	0.043
-679.222	1.683	-0.418	-0.305
-678.208	21.755	-0.246	-0.203
-677.193	-157.859	-0.272	-0.016
-676.178	-119.263	-0.108	-0.019
-675.164	-200.000	-0.055	0.354
-674.149	800.000	-0.037	0.163
-673.135	-50.187	0.312	-0.150
-672.120	94.490	0.145	0.167
-671.105	260.162	-0.186	-0.326
-670.091	165.278	-0.114	0.164
-669.076	-81.662	0.172	0.057
-668.062	707.931	0.080	-0.215
-667.047	377.038	0.100	0.206
-666.032	-167.200	0.237	-0.010
-665.018	505.024	0.008	-0.019
-664.003	215.463	0.171	0.275
-662.989	-51.985	0.086	-0.041
-661.974	479.566	-0.048	-0.111
-660.959	800.000	0.126	-0.425
-659.945	-20.391	0.182	-0.114
-658.930	-63.096	0.218	0.091
-657.916	-75.196	-0.052	0.019
-656.901	-200.000	-0.014	0.081
-655.886	-95.996	-0.138	0.037
-654.872	800.000	-0.055	-0.196
-653.857	300.844	0.181	0.338
-652.843	31.829	0.083	-0.073
-651.828	-25.254	-0.162	-0.097
-650.814	110.272	0.047	-0.058
-649.799	800.000	-0.055	-0.179
-648.784	-51.254	0.054	-0.026
-647.770	-110.017	-0.201	0.043
-646.755	60.473	0.212	0.212
-645.741	800.000	-0.017	0.050
-644.726	800.000	-0.051	0.218
-643.711	111.322	0.088	-0.108
-642.697	-44.176	0.138	0.070
-641.682	77.334	-0.093	0.100
-640.668	-50.104	-0.205	-0.098
-639.653	12.566	0.104	-0.081
-638.638	9.607	-0.227	0.174
-637.624	800.000	0.066	-0.222
-636.609	-133.715	0.264	0.033
-635.595	-41.959	-0.241	-0.125
-634.580	-88.024	0.123	0.037
-633.565	22.536	0.167	0.138
-632.551	-200.000	-0.080	0.385
-631.536	-71.580	-0.139	0.052
-630.522	194.694	-0.116	-0.178
-629.507	-200.000	-0.018	0.097
-628.492	-115.560	0.140	0.027
-627.478	-200.000	0.038	0.232
-626.463	-64.572	0.110	0.045
-625.449	-129.997	0.066	0.009
-624.434	576.881	0.134	-0.330
-623.419	-25.134	0.150	-0.090
-622.405	25.985	-0.260	-0.219
-621.390	-85.905	-0.111	0.035
-620.376	-10.115	-0.210	-0.141
-619.361	306.623	-0.053	0.099
-618.346	-69.205	0.053	0.021
-617.332	603.862	0.039	0.097
-616.317	-200.000	0.004	0.194
-615.303	68.272	0.199	-0.206
-614.288	106.310	0.316	-0.379
-613.273	183.212	0.120	-0.179
-612.259	-58.207	-0.045	0.020
-611.244	31.472	-0.441	0.384
-610.230	-89.112	0.375	-0.112
-609.215	332.786	-0.052	-0.101
-608.201	-200.000	-0.021	-0.226
-607.186	-200.000	0.117	0.000
-606.171	85.370	0.167	-0.186
-605.157	-118.044	-0.136	0.025
-604.142	800.000	-0.027	0.087
-603.128	-136.355	0.139	0.016
-602.113	57.024	-0.327	-0.322
-601.098	-200.000	-0.011	0.058
-600.084	718.954	-0.026	-0.070
-599.069	-200.000	0.034	0.453
-598.055	44.289	0.133	0.124
-597.040	-131.992	-0.127	-0.017
-596.025	800.000	0.071	0.263
-595.011	-13.004	0.218	-0.143
-593.996	-83.037	-0.345	0.112
-592.982	-55.262	0.199	-0.090
-591.967	570.008	0.066	-0.161
-590.952	-7.705	0.190	0.130
-589.938	-101.211	0.242	0.060
-588.923	104.827	0.210	-0.250
-587.909	800.000	0.016	0.059
-586.894	285.351	-0.063	-0.115
-585.879	461.169	0.009	0.019
-584.865	327.489	0.189	-0.367
-583.850	-62.743	0.125	-0.052
-582.836	555.593	-0.163	0.397
-581.821	372.038	-0.073	0.149
-580.806	693.905	-0.125	-0.332
-579.792	-77.030	0.212	-0.075
-578.777	-200.000	0.033	-0.349
-577.763	786.663	0.126	-0.349
-576.748	-171.223	0.381	0.013
-575.733	-86.734	0.160	0.050
-574.719	800.000	-0.068	0.267
-573.704	356.697	-0.084	-0.169
-572.690	222.854	-0.118	-0.192
-571.675	800.000	0.106	0.333
-570.661	3.484	-0.232	0.171
-569.646	38.896	0.274	0.247
-568.631	-109.355	-0.207	0.044
-567.617	710.150	-0.069	-0.183
-566.602	43.288	-0.202	-0.186
-565.588	211.082	-0.106	-0.169
-564.573	800.000	-0.026	-0.094
-563.558	-126.104	0.228	-0.035
-562.544	121.587	-0.318	0.400
-561.529	-20.963	-0.137	0.085
-560.515	-38.758	0.292	0.155
-559.500	-200.000	-0.017	-0.379
-558.485	-160.407	0.277	0.015
-557.471	-61.496	-0.290	0.123
-556.456	-167.107	0.183	-0.007
-555.442	-158.128	0.226	-0.013
-554.427	170.340	-0.025	-0.036
-553.412	-120.502	0.132	0.023
-552.398	-114.636	0.057	-0.011
-551.383	189.351	0.316	-0.478
-550.369	272.021	0.094	-0.168
-549.354	-200.000	0.042	0.187
-548.339	32.976	0.336	-0.294
-547.325	26.056	0.154	-0.129
-546.310	-200.000	-0.010	-0.129
-545.296	227.675	-0.119	-0.195
-544.281	-53.492	-0.171	-0.079
-543.266	22.962	-0.203	0.168
-542.252	106.083	-0.155	0.185
-541.237	800.000	-0.063	-0.219
-540.223	30.203	0.078	-0.067
-539.208	38.440	0.041	0.037
-538.193	131.002	0.295	0.382
-537.179	-65.839	0.029	0.012
-536.164	226.942	-0.019	-0.031
-535.150	71.139	-0.129	0.135
-534.135	800.000	0.070	0.198
-533.121	546.212	0.099	0.238
-532.106	-32.882	0.086	0.048
-531.091	-200.000	-0.005	0.105
-530.077	800.000	-0.050	0.186
-529.062	-79.520	-0.146	0.050
-528.048	-200.000	0.025	-0.124
-527.033	-164.826	-0.183	0.008
-526.018	-90.551	-0.184	-0.054
-525.004	-121.668	-0.364	-0.061
-523.989	43.583	-0.266	-0.245
-522.975	152.978	0.103	-0.142
-521.960	-177.532	-0.274	0.007
-520.945	-53.480	0.295	-0.136
-519.931	24.336	0.258	0.215
-518.916	800.000	-0.011	0.046
-517.902	-200.000	-0.009	0.126
-516.887	20.450	-0.238	0.194
-515.872	-76.953	-0.285	0.100
-514.858	800.000	-0.054	-0.172
-513.843	-127.512	0.052	0.008
-512.829	109.139	-0.110	-0.133
-511.814	-104.253	-0.151	0.035
-510.799	-200.000	0.015	-0.411
-509.785	-119.955	0.056	-0.010
-508.770	800.000	-0.069	-0.211
-507.756	443.833	0.122	-0.271
-506.741	-78.602	-0.331	0.114
-505.726	-102.873	-0.201	-0.048
-504.712	-101.070	-0.073	-0.018
-503.697	-69.586	0.129	-0.050
-502.683	-111.711	-0.373	-0.076
-501.668	416.340	0.125	-0.268
-500.653	-28.475	-0.114	-0.066
-499.639	155.343	-0.103	-0.143
-498.624	-112.193	0.166	-0.034
-497.610	-98.367	-0.039	0.010
-496.595	762.549	0.083	-0.228
-495.581	119.624	0.140	0.175
-494.566	-61.020	-0.404	0.172
-493.551	-15.582	0.181	-0.116
-492.537	-200.000	0.012	0.290
-491.522	53.809	0.110	0.106
-490.508	-147.762	-0.167	0.014
-489.493	-200.000	-0.014	0.122
-488.478	-122.993	0.290	-0.047
-487.464	-172.777	0.120	0.004
-486.449	800.000	-0.081	-0.297
-485.435	-200.000	0.021	0.097
-484.420	800.000	-0.069	-0.227
-483.405	-200.000	-0.004	0.356
-482.391	-200.000	0.053	0.330
-481.376	118.664	-0.039	0.049
-480.362	450.310	0.094	0.208
-479.347	-109.832	-0.347	0.073
-478.332	-200.000	-0.005	0.201
-477.318	491.753	-0.084	-0.193
-476.303	83.863	-0.051	0.056
-475.289	-200.000	-0.025	0.187
-474.274	-59.788	0.310	0.134
-473.259	6.626	-0.270	0.202
-472.245	-123.656	0.330	0.053
-471.230	-112.064	0.307	-0.062
-470.216	-120.424	-0.296	-0.051
-469.201	800.000	0.083	0.301
-468.186	229.959	0.079	0.130
-467.172	203.279	0.064	-0.100
-466.157	-200.000	-0.054	0.261
-465.143	187.288	-0.170	-0.255
-464.128	-200.000	0.045	0.248
-463.113	-84.776	-0.040	-0.013
-462.099	-200.000	-0.003	0.281
-461.084	-1.293	0.072	-0.051
-460.070	-160.893	-0.445	-0.024
-459.055	-160.213	0.059	-0.003
-458.040	155.523	-0.043	0.060
-457.026	-117.430	-0.027	-0.005
-456.011	59.215	-0.152	-0.150
-454.997	203.850	-0.131	-0.204
-453.982	265.107	0.071	-0.124
-452.968	6.823	-0.094	-0.071
-451.953	48.969	-0.146	0.138
-450.938	-33.126	-0.274	0.153
-449.924	-105.640	-0.225	0.051
-448.909	15.631	0.167	-0.132
-447.895	-19.555	0.080	-0.050
-446.880	800.000	-0.027	0.112
-445.865	-118.632	-0.430	-0.076
-444.851	800.000	0.078	0.297
-443.836	-34.867	-0.083	-0.046
-442.822	800.000	0.057	-0.230
-441.807	800.000	0.055	-0.240
-440.792	800.000	-0.079	-0.284
-439.778	398.555	0.103	-0.216
-438.763	40.459	-0.277	0.251
-437.749	-200.000	0.057	-0.330
-436.734	800.000	-0.067	0.190
-435.719	-52.971	0.068	-0.031
-434.705	26.280	-0.214	-0.180
-433.690	62.156	0.094	-0.095
-432.676	21.429	-0.191	-0.156
-431.661	-108.959	-0.447	-0.096
-430.646	-168.394	-0.175	0.007
-429.632	26.600	-0.105	0.089
-428.617	114.654	0.194	-0.238
-427.603	-200.000	-0.024	-0.189
-426.588	-10.209	-0.320	-0.213
-425.573	-38.716	0.246	0.130
-424.559	129.103	-0.214	0.275
-423.544	-47.250	0.225	0.110
-422.530	-103.168	0.336	-0.080
-421.515	186.128	-0.057	0.085
-420.500	67.981	-0.143	-0.147
-419.486	-48.997	0.056	-0.027
-418.471	-37.433	0.122	-0.066
-417.457	-64.225	0.170	0.070
-416.442	41.048	0.207	0.188
-415.428	14.868	-0.031	-0.024
-414.413	236.227	0.161	0.268
-413.398	800.000	0.057	-0.246
-412.384	44.897	0.088	0.082
-411.369	-136.172	0.408	-0.048
-410.355	-46.594	-0.153	0.075
-409.340	24.846	0.143	0.119
-408.325	-42.079	-0.179	0.092
-407.311	-200.000	-0.012	0.134
-406.296	-169.984	0.097	0.003
-405.282	490.187	0.045	-0.103
-404.267	-62.201	0.242	0.101
-403.252	800.000	-0.012	0.050
-402.238	256.562	0.166	0.286
-401.223	-32.184	0.185	-0.104
-400.209	-170.737	-0.131	-0.005
-399.194	-200.000	0.021	0.380
-398.179	-115.309	-0.230	0.044
-397.165	-9.081	-0.218	-0.147
-396.150	-200.000	-0.261	-0.001
-395.136	-200.000	0.020	-0.113
-394.121	41.628	0.242	-0.220
-393.106	-104.887	-0.246	-0.057
-392.092	-200.000	0.004	0.070
-391.077	2.677	0.076	0.056
-390.063	268.163	-0.126	0.222
-389.048	120.685	-0.269	0.335
-388.033	-200.000	0.010	-0.133
-387.019	800.000	0.051	0.151
-386.004	-187.179	0.243	0.003
-384.990	-200.000	-0.023	-0.260
-383.975	134.045	-0.223	0.290
-382.960	-76.683	-0.225	0.079
-381.946	14.662	0.175	-0.137
-380.931	201.820	-0.061	0.094
-379.917	-200.000	-0.029	0.181
-378.902	327.141	-0.124	-0.239
-377.888	-12.378	-0.263	-0.173
-376.873	-200.000	0.079	-0.351
-375.858	-121.642	-0.042	-0.007
-374.844	140.755	-0.241	0.320
-373.829	103.715	-0.119	0.140
-372.815	76.809	-0.106	0.113
-371.800	-37.100	0.102	-0.055
-370.785	-99.347	-0.582	0.147
-369.771	-200.000	-0.007	0.068
-368.756	270.209	0.128	0.225
-367.742	25.011	-0.114	0.095
-366.727	797.886	0.082	0.226
-365.712	400.139	-0.134	0.281
-364.698	36.568	-0.268	-0.237
-363.683	89.602	0.029	-0.032
-362.669	233.592	-0.286	0.471
-361.654	563.449	-0.158	0.383
-360.639	472.281	0.101	0.228
-359.625	-200.000	-0.006	0.189
-358.610	-81.690	-0.026	0.008
-357.596	-124.813	-0.151	-0.023
-356.581	-200.000	-0.007	0.228
-355.566	703.427	-0.046	0.122
-354.552	240.050	-0.039	-0.065
-353.537	38.262	-0.257	-0.229
-352.523	-200.000	0.004	-0.051
-351.508	800.000	-0.085	0.245
-350.493	56.824	0.082	0.080
-349.479	800.000	0.070	0.231
-348.464	-169.075	-0.171	-0.006
-347.450	298.543	0.120	-0.221
-346.435	-161.059	0.229	-0.012
-345.420	178.116	-0.075	-0.110
-344.406	209.358	0.329	0.516
-343.391	299.762	-0.071	0.131
-342.377	-20.891	0.088	-0.054
-341.362	328.116	-0.087	0.167
-340.348	393.070	-0.060	-0.125
-339.333	314.575	0.108	-0.204
-338.318	241.881	-0.078	-0.131
-337.304	-200.000	-0.032	0.196
-336.289	-166.780	-0.190	0.008
-335.275	54.096	-0.189	0.182
-334.260	-170.014	-0.191	-0.007
-333.245	-164.143	0.236	-0.011
-332.231	520.775	0.079	-0.184
-331.216	48.122	0.026	-0.024
-330.202	74.135	0.192	0.202
-329.187	-60.962	-0.062	0.026
-328.172	-149.448	0.041	0.003
-327.158	-183.221	0.300	-0.005
-326.143	401.598	-0.074	-0.156
-325.129	216.294	0.117	-0.185
-324.114	185.565	-0.193	-0.287
-323.099	-138.948	0.125	-0.014
-322.085	181.893	0.096	0.141
-321.070	-50.663	-0.229	-0.108
-320.056	-200.000	-0.042	-0.184
-319.041	-28.208	0.163	-0.094
-318.026	-200.000	-0.014	0.106
-317.012	-75.718	0.336	0.119
-315.997	-50.370	-0.435	-0.206
-314.983	-200.000	-0.006	0.171
-313.968	-200.000	0.017	0.403
-312.953	-200.000	0.004	-0.082
-311.939	-200.000	-0.027	-0.246
-310.924	156.657	0.154	0.213
-309.910	-200.000	0.062	0.273
-308.895	201.223	-0.138	-0.212
-307.880	160.816	0.150	0.209
-306.866	-200.000	-0.019	-0.231
-305.851	-72.502	0.210	0.078
-304.837	257.558	-0.108	0.185
-303.822	-150.744	0.127	-0.010
-302.807	800.000	-0.068	-0.286
-301.793	-200.000	-0.009	0.178
-300.778	-145.932	-0.071	0.006
-299.764	-11.925	-0.176	0.115
-298.749	23.817	0.149	-0.123
-297.735	-92.530	-0.521	-0.146
-296.720	141.131	0.086	-0.113
-295.705	-38.466	0.087	-0.046
-294.691	286.936	0.162	0.293
-293.676	-200.000	0.052	-0.229
-292.662	-110.953	-0.057	-0.012
-291.647	-117.208	-0.172	0.031
-290.632	130.970	0.152	-0.195
-289.618	-136.413	0.064	-0.007
-288.603	-22.125	-0.035	0.021
-287.589	-74.263	0.259	-0.094
-286.574	-171.781	-0.478	0.016
-285.559	-98.590	-0.162	-0.041
-284.545	-100.286	0.145	0.036
-283.530	-200.000	-0.002	0.059
-282.516	-51.396	0.470	-0.219
-281.501	-16.644	0.145	-0.092
-280.486	698.692	0.023	-0.061
-279.472	65.228	-0.243	0.245
-278.457	800.000	-0.134	-0.448
-277.443	-200.000	0.023	-0.109
-276.428	-141.527	-0.198	0.020
-275.413	-156.381	-0.219	-0.014
-274.399	-200.000	0.016	-0.096
-273.384	253.299	0.147	-0.250
-272.370	-8.215	0.218	-0.147
-271.355	-61.421	0.166	-0.070
-270.340	-47.349	-0.127	0.062
-269.326	-100.198	0.140	0.035
-268.311	224.961	0.129	0.209
-267.297	725.577	0.046	-0.122
-266.282	-200.000	0.100	-0.651
-265.267	-31.298	-0.107	-0.060
-264.253	-127.572	-0.278	0.040
-263.238	-93.003	-0.035	-0.010
-262.224	-72.705	-0.039	0.014
-261.209	-3.338	0.176	-0.122
-260.195	-157.733	-0.009	0.001
-259.180	800.000	0.026	-0.083
-258.165	-200.000	-0.003	-0.276
-257.151	-26.427	-0.180	0.105
-256.136	-18.732	0.111	0.069
-255.122	-51.938	-0.140	0.065
-254.107	-177.527	0.107	-0.003
-253.092	-200.000	-0.012	-0.125
-252.078	-200.000	-0.011	-0.092
-251.063	-200.000	0.084	-0.441
-250.049	800.000	-0.066	-0.245
-249.034	105.610	-0.189	0.223
-248.019	-200.000	0.003	-0.436
-247.005	19.948	-0.068	-0.055
-245.990	-30.339	-0.290	0.164
-244.976	-77.417	0.414	0.143
-243.961	-85.216	0.101	-0.031
-242.946	800.000	0.058	0.162
-241.932	-43.461	0.207	0.104
-240.917	28.274	-0.091	-0.077
-239.903	501.342	0.117	0.270
-238.888	-20.181	-0.132	0.081
-237.873	-200.000	-0.036	0.211
-236.859	54.305	0.187	0.179
-235.844	-26.567	0.106	0.062
-234.830	-4.168	-0.170	-0.117
-233.815	-191.005	-0.222	-0.002
-232.800	-111.367	0.220	-0.045
-231.786	-200.000	0.039	-0.192
-230.771	197.505	0.171	0.261
-229.757	324.867	-0.131	0.249
-228.742	-79.094	-0.318	0.108
-227.727	-76.818	-0.126	0.044
-226.713	-43.611	0.486	0.244
-225.698	-130.434	0.067	-0.009
-224.684	716.368	-0.120	-0.316
-223.669	179.377	-0.143	-0.209
-222.655	800.000	-0.075	-0.315
-221.640	27.369	0.157	-0.131
-220.625	131.143	-0.101	-0.129
-219.611	800.000	0.106	-0.360
-218.596	800.000	0.082	-0.282
-217.582	-103.487	0.242	-0.057
-216.567	-35.930	0.218	0.117
-215.552	163.992	-0.084	0.117
-214.538	-200.000	0.041	-0.320
-213.523	660.690	0.152	0.389
-212.509	-118.661	-0.251	0.044
-211.494	-124.804	-0.296	0.046
-210.479	343.213	-0.041	0.080
-209.465	-147.741	-0.134	-0.011
-208.450	-122.131	-0.482	-0.079
-207.436	800.000	0.036	0.119
-206.421	354.489	0.051	-0.102
-205.406	140.173	0.122	0.160
-204.392	-186.128	0.265	-0.004
-203.377	-64.443	-0.301	0.122
-202.363	-200.000	0.039	0.250
-201.348	-131.911	0.192	-0.025
-200.333	131.930	0.234	0.299
-199.319	-153.155	-0.197	-0.014
-198.304	720.173	0.124	0.329
-197.290	28.220	-0.119	0.100
-196.275	82.702	0.119	-0.129
-195.260	800.000	-0.074	-0.279
-194.246	107.937	-0.103	-0.122
-193.231	-83.826	0.175	0.056
-192.217	-50.025	0.348	0.164
-191.202	524.190	-0.108	-0.252
-190.187	-136.501	-0.239	-0.028
-189.173	15.271	-0.244	-0.190
-188.158	49.515	-0.235	-0.220
-187.144	-47.039	-0.183	0.089
-186.129	-90.243	0.188	-0.054
-185.114	4.093	0.289	-0.210
-184.100	-181.800	0.202	0.004
-183.085	-200.000	0.055	-0.241
-182.071	-111.195	0.212	-0.043
-181.056	-133.100	0.309	-0.039
-180.042	96.219	-0.274	0.312
-179.027	-200.000	0.013	-0.152
-178.012	-90.728	-0.332	-0.095
-176.998	58.403	-0.230	0.224
-175.983	-35.425	0.221	-0.119
-174.969	-147.747	0.168	0.014
-173.954	293.966	0.108	0.196
-172.939	43.463	0.214	0.194
-171.925	-162.017	0.343	0.017
-170.910	800.000	0.072	0.222
-169.896	-7.956	0.342	-0.229
-168.881	-22.931	0.215	0.129
-167.866	-11.938	0.177	0.116
-166.852	-200.000	0.032	0.252
-165.837	219.323	-0.136	-0.216
-164.823	109.953	-0.077	-0.092
-163.808	-49.911	0.193	-0.091
-162.793	19.198	0.101	0.080
-161.779	-200.000	0.133	0.000
-160.764	-200.000	0.083	-0.462
-159.750	800.000	0.124	0.365
-158.735	-132.082	0.214	-0.028
-157.720	-200.000	0.031	0.349
-156.706	800.000	0.034	0.104
-155.691	-45.999	0.398	0.195
-154.677	-109.309	0.284	-0.060
-153.662	0.509	-0.095	-0.067
-152.647	-200.000	-0.011	-0.071
-151.633	-200.000	0.028	-0.163
-150.618	14.795	0.044	-0.034
-149.604	800.000	0.083	0.349
-148.589	-200.000	-0.000	0.268
-147.574	558.410	0.066	0.159
-146.560	-200.000	-0.016	-0.149
-145.545	800.000	-0.063	0.181
-144.531	86.274	0.017	-0.019
-143.516	-14.936	0.153	-0.098
-142.502	800.000	0.122	-0.493
-141.487	37.427	0.020	0.017
-140.472	82.983	-0.148	-0.160
-139.458	800.000	0.095	0.316
-138.443	-59.010	-0.096	-0.041
-137.429	136.065	-0.082	-0.106
-136.414	-35.812	-0.329	0.177
-135.399	-200.000	0.041	-0.343
-134.385	-137.915	-0.096	0.011
-133.370	-21.006	-0.262	0.159
-132.356	800.000	0.074	0.269
-131.341	-36.569	0.280	-0.149
-130.326	-6.508	-0.010	-0.007
-129.312	-122.238	0.312	-0.051
-128.297	49.268	-0.124	0.116
-127.283	-99.437	-0.112	-0.028
-126.268	511.969	-0.063	0.145
-125.253	-200.000	0.405	0.002
-124.239	-48.808	0.183	0.087
-123.224	151.504	0.076	-0.103
-122.210	-85.392	0.323	0.100
-121.195	-54.387	-0.202	-0.091
-120.180	-200.000	0.041	0.242
-119.166	183.022	-0.159	0.233
-118.151	800.000	-0.023	0.078
-117.137	176.137	0.190	-0.274
-116.122	-28.545	-0.212	0.121
-115.107	131.275	-0.098	-0.124
-114.093	126.049	0.058	-0.073
-113.078	-12.723	-0.169	-0.109
-112.064	20.016	0.138	-0.110
-111.049	107.929	0.157	0.186
-110.034	-200.000	0.017	0.154
-109.020	-200.000	0.021	0.152
-108.005	69.583	-0.179	0.183
-106.991	-2.264	-0.099	0.069
-105.976	209.213	0.077	0.120
-104.962	800.000	-0.015	-0.065
-103.947	91.217	0.036	-0.041
-102.932	-101.526	-0.177	-0.043
-101.918	236.092	-0.267	0.438
-100.903	-200.000	-0.011	0.114
-99.889	50.674	0.104	-0.098
-98.874	64.304	0.163	0.163
-97.859	225.487	-0.212	-0.340
-96.845	-106.707	-0.313	-0.069
-95.830	345.641	-0.086	0.168
-94.816	-81.987	0.369	0.120
-93.801	-114.821	0.276	0.052
-92.786	25.596	0.215	-0.177
-91.772	-114.974	0.262	0.049
-90.757	-92.513	-0.276	-0.077
-89.743	142.057	-0.073	0.096
-88.728	89.383	-0.137	0.151
-87.713	800.000	0.021	0.067
-86.699	800.000	-0.049	0.154
-85.684	45.834	-0.156	0.143
-84.670	307.264	-0.158	-0.292
-83.655	-200.000	0.048	-0.327
-82.640	94.101	0.231	0.259
-81.626	37.617	0.368	-0.324
-80.611	125.673	-0.091	-0.114
-79.597	-41.449	-0.438	0.223
-78.582	206.271	-0.085	0.131
-77.567	19.339	-0.208	0.166
-76.553	35.990	-0.216	0.188
-75.538	227.669	0.045	0.073
-74.524	-200.000	-0.064	-0.292
-73.509	-11.286	0.350	-0.229
-72.494	800.000	0.074	0.223
-71.480	-171.834	-0.107	0.003
-70.465	71.159	0.310	-0.318
-69.451	288.686	0.213	-0.383
-68.436	141.570	-0.155	-0.203
-67.422	-85.383	0.454	0.140
-66.407	92.374	0.058	-0.065
-65.392	-45.227	-0.167	0.082
-64.378	449.525	0.089	-0.194
-63.363	-79.375	-0.252	0.085
-62.349	43.066	0.157	0.142
-61.334	6.763	-0.974	-0.718
-60.319	601.075	0.217	0.533
-59.305	-200.000	-0.086	-0.821
-58.290	483.294	0.272	0.613
-57.276	337.863	0.587	1.130
-56.261	-200.000	96.858	568.628
-55.246	623.842	1400.662	3493.645
-54.232	185.324	2611.971	3837.964
-53.217	119.291	2207.809	2703.863
-52.203	44.605	1739.122	1582.210
-51.188	37.273	1549.741	1358.805
-50.173	34.922	1521.960	1318.214
-49.159	53.069	1572.681	1489.775
-48.144	56.450	1592.160	1531.881
-47.130	37.512	1548.091	1358.812
-46.115	34.389	1531.334	1322.429
-45.100	34.214	1528.511	1318.727
-44.086	34.238	1526.654	1317.238
-43.071	34.131	1524.854	1314.893
-42.057	34.027	1523.238	1312.728
-41.042	34.111	1521.648	1311.883
-40.027	34.241	1519.614	1310.977
-39.013	34.256	1518.092	1309.712
-37.998	34.169	1517.646	1308.679
-36.984	34.189	1516.574	1307.840
-35.969	34.202	1514.754	1306.307
-34.954	34.114	1513.488	1304.561
-33.940	34.193	1512.130	1303.879
-32.925	34.234	1510.555	1302.751
-31.911	34.218	1509.625	1301.786
-30.896	34.216	1508.499	1300.750
-29.881	34.295	1506.607	1299.609
-28.867	34.261	1505.119	1298.037
-27.852	34.230	1504.194	1296.978
-26.838	34.324	1502.453	1296.063
-25.823	34.213	1501.009	1294.017
-24.809	34.158	1499.357	1292.164
-23.794	34.250	1498.066	1291.625
-22.779	34.179	1497.376	1290.501
-21.765	34.315	1495.661	1289.890
-20.750	34.281	1494.293	1288.429
-19.736	34.214	1493.510	1287.251
-18.721	34.263	1492.284	1286.476
-17.706	34.188	1491.470	1285.214
-16.692	34.189	1490.492	1284.328
-15.677	34.120	1489.384	1282.858
-14.663	34.225	1488.353	1282.628
-13.648	34.137	1487.783	1281.492
-12.633	34.046	1487.018	1280.166
-11.619	34.140	1485.866	1279.754
-10.604	34.136	1484.652	1278.637
-9.590	34.177	1483.482	1277.847
-8.575	34.175	1482.813	1277.211
-7.560	34.026	1482.766	1276.121
-6.546	34.143	1481.334	1275.622
-5.531	34.126	1480.206	1274.487
-4.517	34.191	1479.252	1274.045
-3.502	34.154	1478.319	1272.943
-2.487	34.051	1477.483	1271.490
-1.473	34.099	1476.535	1270.944
-0.458	34.125	1475.488	1270.166
0.556	33.057	1465.600	1259.408
1.571	30.156	1439.318	1217.690
2.586	26.553	1376.723	1141.947
3.600	24.704	1293.214	1061.622
4.615	23.190	1246.095	1014.180
5.629	20.169	1189.618	951.572
6.644	12.428	1104.252	843.625
7.659	6.082	1063.046	780.629
8.673	5.171	1057.656	772.100
9.688	5.061	1054.335	769.063
10.702	4.848	1053.224	767.135
11.717	5.000	1051.714	766.718
12.731	7.518	1054.048	780.745
13.746	15.086	1064.885	826.177
14.761	19.621	1070.052	852.547
15.775	18.701	1067.692	846.059
16.790	17.462	1065.143	837.868
17.804	16.473	1062.530	830.880
18.819	15.576	1060.848	825.089
19.834	15.059	1059.859	821.712
20.848	14.857	1058.371	819.493
21.863	14.539	1057.788	817.412
22.877	14.198	1057.323	815.311
23.892	14.053	1056.003	813.511
24.907	14.030	1055.552	812.980
25.921	14.033	1054.586	812.175
26.936	14.168	1053.379	811.834
27.950	14.129	1052.727	811.067
28.965	14.118	1051.406	809.924
29.980	14.138	1050.831	809.509
30.994	14.392	1048.911	809.194
32.009	14.320	1048.478	808.437
33.023	14.339	1047.931	808.035
34.038	14.399	1046.945	807.494
35.053	14.227	1046.040	805.890
36.067	14.287	1044.810	805.163
37.082	14.182	1044.105	804.039
38.096	14.178	1043.493	803.478
39.111	14.253	1042.694	803.153
40.126	14.370	1041.747	802.920
41.140	14.062	1040.709	800.565
42.155	14.120	1038.850	799.343
43.169	13.952	1038.605	798.274
44.184	13.990	1037.225	797.327
45.199	13.844	1036.607	796.082
46.213	14.058	1035.088	795.869
47.228	13.967	1034.482	794.896
48.242	14.023	1033.168	794.086
49.257	14.142	1032.530	794.093
50.271	14.106	1031.792	793.284
51.286	14.178	1030.333	792.436
52.301	14.256	1029.457	792.063
53.315	14.291	1029.135	791.909
54.330	14.170	1028.449	790.738
55.344	14.066	1027.161	789.185
56.359	14.079	1026.092	788.354
57.374	14.166	1025.324	788.108
58.388	14.171	1024.260	787.243
59.403	14.048	1023.478	785.989
60.417	14.027	1022.413	785.002
61.432	13.992	1022.256	784.648
62.447	14.070	1021.024	783.999
63.461	13.772	1020.553	782.167
64.476	13.845	1019.869	781.917
65.490	13.926	1018.440	781.132
66.505	13.857	1018.078	780.463
67.520	13.831	1017.215	779.607
68.534	13.908	1016.714	779.518
69.549	14.105	1015.308	779.295
70.563	13.923	1014.988	778.124
71.578	14.010	1014.048	777.743
72.593	13.862	1013.362	776.455
73.607	13.844	1012.189	775.403
74.622	13.822	1011.299	774.549
75.636	13.768	1010.566	773.670
76.651	13.770	1010.043	773.212
77.666	13.779	1009.589	772.838
78.680	13.759	1008.800	772.070
79.695	13.746	1008.181	771.467
80.709	13.893	1007.412	771.492
81.724	13.936	1006.255	770.739
82.739	13.817	1005.887	769.840
83.753	13.970	1005.283	770.017
84.768	13.994	1004.380	769.366
85.782	14.134	1003.601	769.352
86.797	14.290	1003.069	769.596
87.812	14.261	1002.197	768.726
88.826	14.169	1001.189	767.461
89.841	14.070	1000.573	766.463
90.855	14.140	999.968	766.255
91.870	14.320	998.584	765.954
92.884	14.245	998.269	765.299
93.899	14.223	997.547	764.575
94.914	14.224	996.795	763.938
95.928	14.313	995.882	763.579
96.943	14.381	995.045	763.181
97.957	14.285	994.720	762.424
98.972	14.333	993.571	761.695
99.987	14.282	993.028	760.981
101.001	14.265	992.188	760.191
102.016	14.272	991.303	759.475
103.030	14.229	990.387	758.514
104.045	14.323	988.957	757.777
105.060	14.314	988.502	757.323
106.074	14.094	987.637	755.594
107.089	14.080	986.361	754.487
108.103	14.019	985.709	753.645
109.118	13.955	984.506	752.368
110.133	14.033	983.725	752.057
111.147	14.015	982.783	751.187
112.162	13.949	982.050	750.262
113.176	13.971	981.170	749.622
114.191	13.970	980.300	748.888
115.206	14.172	979.648	749.232
116.220	14.206	978.775	748.653
117.235	14.073	978.016	747.407
118.249	13.925	977.336	746.156
119.264	13.934	976.254	745.303
120.279	13.822	975.739	744.343
121.293	13.989	974.362	743.974
122.308	13.904	973.917	743.188
123.322	13.927	972.996	742.524
124.337	13.951	971.714	741.589
125.352	13.808	970.656	740.078
126.366	13.805	970.168	739.626
127.381	13.923	968.883	739.105
128.395	13.918	967.617	738.052
129.410	14.032	966.577	737.700
130.424	14.059	965.946	737.274
131.439	14.088	964.727	736.406
132.454	14.041	964.415	735.894
133.468	14.045	963.633	735.251
134.483	14.062	962.991	734.772
135.497	14.204	961.879	734.482
136.512	14.053	961.477	733.445
137.527	14.146	960.724	733.214
138.541	14.165	959.833	732.554
139.556	14.157	959.337	732.077
140.570	14.070	958.462	730.961
141.585	14.162	957.677	730.701
142.600	14.331	957.444	731.203
143.614	14.316	956.471	730.326
144.629	14.270	955.769	729.527
145.643	14.321	954.947	729.056
146.658	14.343	954.456	728.712
147.673	14.227	953.526	727.431
148.687	14.138	952.521	726.213
149.702	14.284	950.978	725.610
150.716	14.038	950.789	724.326
151.731	14.159	949.660	723.929
152.746	14.051	948.874	722.800
153.760	14.264	948.268	723.199
154.775	14.222	947.770	722.573
155.789	14.175	946.983	721.706
156.804	14.281	945.880	721.259
157.819	14.168	945.401	720.342
158.833	14.329	944.625	720.380
159.848	14.248	944.684	720.013
160.862	14.301	943.346	719.160
161.877	14.359	942.369	718.599
162.892	14.397	941.451	718.002
163.906	14.254	940.663	716.720
164.921	14.195	939.943	715.855
165.935	14.255	938.901	715.256
166.950	14.195	938.307	714.483
167.964	14.263	937.485	714.085
168.979	14.309	936.331	713.338
169.994	14.323	935.127	712.418
171.008	14.107	934.799	711.180
172.023	14.287	934.478	711.644
173.037	14.491	933.095	711.401
174.052	14.469	932.322	710.654
175.067	14.464	931.695	710.089
176.081	14.534	930.955	709.760
177.096	14.434	929.820	708.410
178.110	14.285	929.317	707.329
179.125	14.256	928.727	706.695
180.140	14.449	927.566	706.569
181.154	14.304	927.266	705.663
182.169	14.380	926.632	705.439
183.183	14.657	925.602	705.763
184.198	14.554	925.340	705.064
185.213	14.346	924.895	703.788
186.227	14.535	924.012	703.847
187.242	14.608	923.525	703.722
188.256	14.628	923.039	703.374
189.271	14.686	921.976	702.748
190.286	14.606	921.369	701.887
191.300	14.649	920.289	701.182
192.315	14.364	919.501	699.322
193.329	14.346	918.989	698.798
194.344	14.376	918.513	698.500
195.359	14.467	917.724	698.216
196.373	14.500	917.716	698.288
197.388	14.552	916.833	697.771
198.402	14.636	916.270	697.633
199.417	14.766	916.237	698.091
200.432	14.882	915.474	697.930
201.446	14.830	915.353	697.561
202.461	14.809	914.725	696.932
203.475	14.923	914.152	696.909
204.490	15.074	913.314	696.837
205.504	14.795	912.678	695.128
206.519	14.753	911.377	693.902
207.534	14.818	911.015	693.836
208.548	14.807	909.982	692.943
209.563	14.848	909.652	692.801
210.577	14.860	908.847	692.175
211.592	14.756	908.246	691.224
212.607	14.963	907.679	691.588
213.621	15.028	907.382	691.570
214.636	14.945	906.463	690.464
215.650	14.944	906.172	690.179
216.665	14.930	905.601	689.622
217.680	15.008	904.726	689.218
218.694	15.117	904.307	689.285
219.709	15.218	903.987	689.399
220.723	15.175	902.996	688.402
221.738	15.044	902.419	687.365
222.753	14.987	901.882	686.661
223.767	15.023	901.064	686.124
224.782	15.079	900.668	685.993
225.796	15.144	899.544	685.344
226.811	15.252	898.934	685.259
227.826	15.290	898.267	684.844
228.840	15.038	897.872	683.452
229.855	15.063	897.056	682.872
230.869	15.180	896.030	682.510
231.884	15.203	895.275	681.968
232.899	14.934	895.072	680.660
233.913	14.992	894.174	680.149
234.928	14.946	893.521	679.404
235.942	15.120	892.722	679.445
236.957	14.984	892.285	678.503
237.972	15.006	891.610	678.016
238.986	15.021	890.898	677.474
240.001	15.054	890.225	677.038
241.015	15.163	889.533	676.891
242.030	15.068	889.116	676.131
243.045	15.197	888.290	675.962
244.059	15.180	887.540	675.265
245.074	15.318	886.781	675.184
246.088	15.400	886.269	675.065
247.103	15.362	885.967	674.621
248.117	15.456	885.189	674.345
249.132	15.293	884.973	673.467
250.147	15.455	884.571	673.751
251.161	15.519	883.655	673.250
252.176	15.597	882.897	672.929
253.190	15.776	882.055	672.942
254.205	15.734	881.717	672.456
255.220	15.824	881.299	672.439
256.234	15.685	880.700	671.366
257.249	15.732	879.826	670.827
258.263	15.691	879.068	670.028
259.278	15.684	878.864	669.784
260.293	15.774	878.001	669.427
261.307	15.833	877.461	669.190
262.322	15.789	876.760	668.422
263.336	15.892	876.514	668.582
264.351	15.777	875.958	667.643
265.366	15.821	875.541	667.440
266.380	16.000	874.538	667.325
267.395	15.938	873.951	666.575
268.409	15.873	873.198	665.683
269.424	15.825	872.064	664.569
270.439	15.854	871.742	664.381
271.453	15.969	870.606	663.909
272.468	15.808	870.242	662.941
273.482	15.899	869.565	662.724
274.497	15.796	869.096	661.900
275.512	15.887	868.349	661.632
276.526	15.788	867.736	660.718
277.541	15.942	866.942	660.659
278.555	15.882	866.430	659.976
279.570	16.079	865.642	660.088
280.585	16.022	865.229	659.492
281.599	16.172	864.763	659.663
282.614	16.050	864.296	658.772
283.628	15.973	863.497	657.804
284.643	16.045	862.695	657.417
285.657	15.947	862.318	656.689
286.672	16.047	861.800	656.624
287.687	16.170	861.161	656.559
288.701	16.029	860.837	655.704
289.716	16.140	860.003	655.446
290.730	16.142	859.552	655.051
291.745	16.168	859.102	654.752
292.760	16.086	858.560	653.960
293.774	16.201	857.908	653.853
294.789	16.339	857.417	653.953
295.803	16.210	856.796	652.924
296.818	16.117	856.216	652.065
297.833	16.143	855.183	651.320
298.847	16.201	854.404	650.893
299.862	16.470	853.452	651.147
300.876	16.218	853.371	650.057
301.891	16.132	852.922	649.325
302.906	16.339	852.269	649.567
303.920	16.487	851.158	649.233
304.935	16.496	850.519	648.721
305.949	16.651	850.061	648.908
306.964	16.614	849.381	648.192
307.979	16.476	848.918	647.252
308.993	16.483	848.135	646.624
310.008	16.409	848.279	646.396
311.022	16.595	847.136	646.178
312.037	16.608	846.740	645.866
313.052	16.609	846.512	645.639
314.066	16.446	845.329	644.060
315.081	16.297	845.132	643.285
316.095	16.540	844.585	643.737
317.110	16.572	844.101	643.431
318.125	16.486	843.192	642.356
319.139	16.308	842.945	641.436
320.154	16.465	842.176	641.389
321.168	16.536	841.371	640.988
322.183	16.591	841.295	641.080
323.197	16.502	840.726	640.254
324.212	16.358	840.424	639.420
325.227	16.468	839.959	639.426
326.241	16.395	839.344	638.626
327.256	16.511	838.442	638.321
328.270	16.610	837.896	638.223
329.285	16.493	837.338	637.302
330.300	16.550	836.765	637.022
331.314	16.506	836.371	636.500
332.329	16.576	835.612	636.132
333.343	16.688	835.034	636.056
334.358	16.673	834.675	635.668
335.373	16.633	834.038	634.979
336.387	16.656	833.643	634.709
337.402	16.721	833.160	634.528
338.416	16.839	832.178	634.165
339.431	16.707	831.850	633.365
340.446	17.060	831.021	633.995
341.460	16.900	830.636	633.050
342.475	17.094	829.856	633.121
343.489	16.931	829.142	631.915
344.504	17.012	829.271	632.259
345.519	17.121	828.664	632.144
346.533	17.099	828.279	631.713
347.548	17.077	827.893	631.280
348.562	17.040	827.378	630.697
349.577	16.905	826.843	629.732
350.592	16.853	826.243	629.023
351.606	16.799	825.613	628.289
352.621	16.803	825.290	628.004
353.635	16.764	824.571	627.255
354.650	16.865	824.107	627.222
355.665	16.986	823.887	627.447
356.679	16.977	823.187	626.822
357.694	16.934	823.141	626.576
358.708	17.106	822.394	626.585
359.723	17.143	821.238	625.784
360.738	17.101	821.062	625.439
361.752	17.095	820.679	625.071
362.767	17.112	820.246	624.749
363.781	17.086	820.148	624.523
364.796	17.276	819.208	624.451
365.810	17.375	818.815	624.459
366.825	17.324	818.382	623.889
367.840	17.484	818.030	624.150
368.854	17.415	817.898	623.743
369.869	17.290	817.285	622.760
370.883	17.308	816.727	622.347
371.898	17.362	816.123	622.027
372.913	17.397	815.650	621.742
373.927	17.348	814.819	620.874
374.942	17.430	814.034	620.521
375.956	17.525	813.325	620.269
376.971	17.501	813.078	619.938
377.986	17.501	812.649	619.558
379.000	17.545	812.288	619.389
380.015	17.654	811.476	619.109
381.029	17.652	811.247	618.874
382.044	17.692	810.587	618.458
383.059	17.695	809.708	617.744
384.073	17.701	809.548	617.592
385.088	17.593	808.854	616.616
386.102	17.462	808.583	615.880
387.117	17.504	807.907	615.461
388.132	17.485	807.331	614.900
389.146	17.450	806.881	614.376
390.161	17.517	806.404	614.201
391.175	17.566	806.060	614.061
392.190	17.588	805.867	613.939
393.205	17.736	805.285	613.975
394.219	17.581	804.992	613.138
395.234	17.687	804.106	612.792
396.248	17.648	803.632	612.236
397.263	17.405	803.573	611.263
398.278	17.476	802.982	611.016
399.292	17.446	802.663	610.612
400.307	17.523	802.344	610.588
401.321	17.391	801.859	609.694
402.336	17.562	801.420	609.919
403.350	17.653	800.879	609.780
404.365	17.653	800.391	609.352
405.380	17.645	799.919	608.910
406.394	17.871	799.730	609.519
407.409	18.002	799.119	609.467
408.423	17.807	798.579	608.308
409.438	17.974	798.286	608.624
410.453	17.845	798.052	607.933
411.467	18.026	797.552	608.143
412.482	18.115	796.765	607.804
413.496	18.205	796.378	607.776
414.511	18.098	796.023	607.071
415.526	18.012	795.940	606.649
416.540	17.964	795.652	606.206
417.555	18.146	794.983	606.286
418.569	18.125	794.372	605.692
419.584	18.165	794.036	605.526
420.599	18.107	793.384	604.769
421.613	153.142	1369.366	1790.472
422.628	132.460	1453.304	1790.562
