DTS Sentinel unit serial number:	SN413079Multiplexer serial number:	ORYXHardware model number:	OX4-SRSoftware version number:	ORYX F/W v4.00 Oryx Data Collector v3.7.2.0data status	okinstallation	princeton_trtdifferential loss correction	single-endedforward channel	channel 3reverse channel	N/Adate	2019/09/18time	23:28:35forward acquisition time	60.00reverse acquisition time	0.00gamma	496.2192k internal	0.2345k external	0.2345temperature offset calibration	0.9992default loss term (dB/km)	0.3790temperature slope calibration	1.0000multiplexer offset coefficient	1.0000multiplexer slope coefficient	1.0000fibre end	0.00T internal ref (°C)	23.72T ext. ref 1 (°C)	0.77T ext. ref 2 (°C)	16.70length (m)	temperature (°C)	Stokes	anti-Stokes-747.200	-81.424	0.169	0.056
-746.185	800.000	-0.137	-0.401
-745.171	205.236	0.051	-0.080
-744.156	622.055	-0.123	-0.311
-743.142	-48.562	0.227	0.109
-742.127	-53.817	-0.317	0.144
-741.112	-145.993	-0.170	0.015
-740.098	-62.155	-0.357	-0.149
-739.083	304.813	0.170	-0.316
-738.069	297.657	-0.167	0.308
-737.054	567.438	0.044	-0.107
-736.039	227.123	-0.240	0.389
-735.025	-200.000	0.014	0.183
-734.010	-72.382	0.239	0.088
-732.996	314.890	-0.106	-0.201
-731.981	-64.712	-0.407	0.165
-730.966	-8.055	-0.282	-0.190
-729.952	800.000	0.014	0.054
-728.937	526.692	-0.024	0.056
-727.923	-106.967	-0.072	-0.016
-726.908	-117.594	-0.226	-0.041
-725.894	-105.742	-0.306	0.069
-724.879	-59.864	-0.174	-0.074
-723.864	-200.000	-0.017	0.140
-722.850	368.326	0.189	0.382
-721.835	-56.248	-0.242	-0.108
-720.821	68.618	-0.297	-0.305
-719.806	800.000	-0.055	0.198
-718.791	64.451	-0.012	-0.013
-717.777	800.000	0.146	0.473
-716.762	-139.937	-0.351	0.037
-715.748	625.228	0.152	0.383
-714.733	-125.190	0.350	-0.054
-713.718	397.543	0.042	-0.087
-712.704	85.124	0.128	0.140
-711.689	76.273	-0.279	0.295
-710.675	-70.617	0.246	-0.093
-709.660	-17.034	-0.181	0.114
-708.645	-200.000	-0.030	-0.175
-707.631	77.698	-0.156	0.166
-706.616	-43.380	0.278	-0.140
-705.602	-200.000	-0.229	-0.001
-704.587	226.182	-0.192	0.310
-703.572	82.677	-0.195	0.212
-702.558	-83.880	-0.241	0.077
-701.543	205.414	-0.151	-0.234
-700.529	183.085	0.048	0.071
-699.514	-142.057	-0.173	-0.017
-698.499	703.409	0.100	0.264
-697.485	-54.260	-0.032	-0.015
-696.470	385.700	0.084	0.174
-695.456	457.868	-0.163	0.362
-694.441	-99.046	0.063	-0.016
-693.426	-200.000	-0.030	0.178
-692.412	653.496	-0.022	-0.056
-691.397	18.739	-0.236	0.189
-690.383	39.721	0.229	0.205
-689.368	152.980	0.032	-0.044
-688.354	800.000	0.021	0.083
-687.339	-200.000	-0.058	-0.373
-686.324	35.615	-0.155	0.136
-685.310	563.896	0.063	0.151
-684.295	-159.173	0.120	-0.007
-683.281	-34.994	0.263	0.143
-682.266	-74.087	-0.034	-0.012
-681.251	523.541	0.028	-0.065
-680.237	-46.060	0.336	-0.165
-679.222	-70.844	-0.236	-0.089
-678.208	-9.769	0.055	0.036
-677.193	-173.884	-0.141	0.004
-676.178	-102.613	-0.148	0.035
-675.164	75.150	0.164	0.172
-674.149	-200.000	-0.054	0.249
-673.135	-139.164	0.353	0.038
-672.120	37.062	0.240	0.212
-671.105	800.000	-0.038	0.155
-670.091	-32.422	-0.232	-0.129
-669.076	-200.000	-0.039	-0.330
-668.062	-30.547	-0.158	-0.089
-667.047	-200.000	-0.007	0.116
-666.032	-131.262	0.297	0.039
-665.018	-153.501	-0.341	-0.024
-664.003	-102.787	0.102	0.024
-662.989	-11.093	-0.299	-0.197
-661.974	800.000	0.079	-0.230
-660.959	800.000	0.041	-0.160
-659.945	-200.000	0.023	0.104
-658.930	31.431	-0.179	0.153
-657.916	295.134	0.130	-0.237
-656.901	800.000	-0.054	-0.218
-655.886	550.143	0.086	-0.207
-654.872	-162.195	-0.294	-0.015
-653.857	23.883	-0.136	0.111
-652.843	-70.728	0.242	0.091
-651.828	-38.018	0.092	-0.049
-650.814	400.557	0.096	-0.201
-649.799	14.480	-0.208	0.162
-648.784	-72.815	-0.186	0.068
-647.770	-101.817	0.319	-0.077
-646.755	-146.989	-0.222	0.019
-645.741	-55.676	0.097	-0.043
-644.726	-200.000	0.005	-0.112
-643.711	75.878	-0.196	-0.206
-642.697	187.271	-0.074	-0.111
-641.682	313.800	0.169	-0.317
-640.668	-36.410	-0.192	-0.103
-639.653	-76.331	-0.046	0.016
-638.638	53.214	0.146	0.139
-637.624	-147.772	0.364	0.030
-636.609	83.900	0.134	0.146
-635.595	-78.826	0.085	-0.029
-634.580	800.000	0.102	-0.444
-633.565	55.037	-0.249	-0.239
-632.551	800.000	0.080	0.261
-631.536	-200.000	-0.080	0.405
-630.522	-84.143	-0.283	-0.089
-629.507	-97.274	0.386	-0.100
-628.492	103.886	0.132	-0.155
-627.478	18.053	-0.185	-0.147
-626.463	338.726	0.124	-0.241
-625.449	-200.000	-0.052	-0.358
-624.434	-48.981	-0.185	0.088
-623.419	-99.383	0.449	-0.113
-622.405	-200.000	-0.003	-0.124
-621.390	-200.000	-0.014	0.260
-620.376	-107.144	-0.541	0.119
-619.361	-92.027	0.185	0.052
-618.346	-112.863	-0.147	-0.029
-617.332	797.968	-0.013	-0.035
-616.317	-92.125	0.064	0.018
-615.303	-158.795	-0.199	-0.011
-614.288	-200.000	0.012	0.374
-613.273	800.000	-0.025	0.070
-612.259	-91.535	-0.253	-0.072
-611.244	405.272	0.107	0.225
-610.230	800.000	0.027	0.097
-609.215	34.534	-0.244	-0.212
-608.201	-200.000	0.041	0.242
-607.186	306.001	-0.083	0.154
-606.171	292.079	0.137	-0.249
-605.157	133.970	0.063	-0.081
-604.142	104.170	0.045	0.053
-603.128	-120.087	-0.254	-0.043
-602.113	-85.428	0.444	0.138
-601.098	445.961	-0.072	-0.157
-600.084	101.374	-0.087	0.101
-599.069	179.562	0.076	0.110
-598.055	-100.584	-0.255	-0.063
-597.040	800.000	-0.006	-0.019
-596.025	-200.000	0.060	-0.321
-595.011	-200.000	0.024	0.267
-593.996	800.000	-0.157	0.515
-592.982	256.598	0.082	-0.140
-591.967	800.000	0.100	0.421
-590.952	294.585	-0.089	-0.162
-589.938	-129.858	0.145	-0.020
-588.923	-200.000	0.002	0.164
-587.909	-200.000	-0.102	-0.457
-586.894	113.120	-0.161	-0.194
-585.879	201.753	0.283	-0.434
-584.865	686.082	-0.097	-0.253
-583.850	-113.509	0.075	0.015
-582.836	293.084	-0.060	-0.110
-581.821	-16.709	-0.165	0.104
-580.806	-97.406	-0.191	-0.049
-579.792	555.899	-0.155	0.370
-578.777	-61.281	0.209	0.087
-577.763	234.952	-0.107	0.175
-576.748	-200.000	0.001	-0.070
-575.733	800.000	0.080	-0.221
-574.719	-126.369	-0.476	0.071
-573.704	-2.211	-0.195	0.136
-572.690	-200.000	0.028	-0.156
-571.675	-200.000	-0.000	0.144
-570.661	0.052	-0.272	0.193
-569.646	207.161	-0.152	-0.235
-568.631	217.492	-0.114	-0.181
-567.617	227.808	0.058	0.094
-566.602	118.835	-0.069	0.085
-565.588	15.121	-0.139	0.108
-564.573	-200.000	0.084	0.398
-563.558	-160.373	0.247	0.013
-562.544	-200.000	0.012	0.159
-561.529	242.153	-0.054	0.089
-560.515	-200.000	-0.020	-0.211
-559.500	-59.786	0.142	-0.060
-558.485	202.417	-0.155	-0.237
-557.471	162.130	0.192	-0.267
-556.456	23.006	-0.111	-0.091
-555.442	82.317	0.257	-0.277
-554.427	-200.000	-0.035	-0.155
-553.412	8.519	-0.282	-0.210
-552.398	38.973	0.238	0.211
-551.383	687.179	-0.036	-0.093
-550.369	-200.000	0.017	0.125
-549.354	-16.078	0.429	-0.271
-548.339	128.773	0.125	0.159
-547.325	58.947	0.131	-0.128
-546.310	800.000	0.057	-0.228
-545.296	-200.000	0.010	-0.298
-544.281	-47.779	-0.419	0.202
-543.266	-119.431	-0.241	0.042
-542.252	40.370	0.261	-0.233
-541.237	150.532	-0.148	-0.199
-540.223	-200.000	-0.075	0.354
-539.208	198.848	-0.128	-0.195
-538.193	-116.639	0.222	0.041
-537.179	7.895	-0.172	0.128
-536.164	40.563	0.148	-0.132
-535.150	-61.695	-0.307	0.128
-534.135	-200.000	-0.067	0.425
-533.121	-15.294	-0.020	-0.013
-532.106	-200.000	-0.034	0.178
-531.091	-200.000	-0.001	-0.151
-530.077	-42.373	0.125	-0.063
-529.062	138.740	-0.119	-0.155
-528.048	246.484	0.107	0.179
-527.033	600.883	-0.045	-0.110
-526.018	275.954	0.078	0.138
-525.004	-8.193	-0.278	-0.186
-523.989	-200.000	-0.009	-0.252
-522.975	-113.142	0.315	0.062
-521.960	-200.000	0.008	0.047
-520.945	580.754	-0.081	0.198
-519.931	-58.905	0.324	0.139
-518.916	-56.424	0.052	-0.023
-517.902	-200.000	0.003	0.130
-516.887	37.982	0.105	-0.093
-515.872	-88.424	-0.196	-0.058
-514.858	-7.840	0.099	0.066
-513.843	-112.028	0.144	-0.029
-512.829	618.081	0.130	-0.324
-511.814	222.134	0.019	-0.030
-510.799	165.480	0.165	-0.231
-509.785	800.000	-0.034	0.131
-508.770	-133.549	0.081	-0.010
-507.756	-200.000	0.026	-0.129
-506.741	-180.998	-0.126	-0.003
-505.726	-200.000	0.007	0.173
-504.712	53.102	-0.388	0.368
-503.697	94.418	-0.225	0.254
-502.683	63.399	0.144	0.143
-501.668	800.000	0.079	-0.224
-500.653	-47.360	-0.341	-0.165
-499.639	761.314	0.003	-0.007
-498.624	10.218	0.060	-0.045
-497.610	110.634	0.135	0.161
-496.595	-62.096	-0.406	-0.168
-495.581	106.143	0.205	0.240
-494.566	-200.000	0.016	0.548
-493.551	-108.413	-0.293	-0.062
-492.537	-75.362	0.158	0.056
-491.522	-12.362	-0.310	-0.201
-490.508	800.000	-0.084	-0.269
-489.493	24.740	0.262	-0.215
-488.478	-41.390	-0.258	-0.132
-487.464	32.579	0.078	0.067
-486.449	-200.000	0.003	-0.083
-485.435	21.322	-0.201	-0.161
-484.420	-112.229	0.098	-0.020
-483.405	709.521	0.060	-0.158
-482.391	-76.195	0.294	-0.103
-481.376	-21.944	-0.125	-0.075
-480.362	512.586	0.125	0.288
-479.347	141.971	-0.136	0.179
-478.332	-19.981	-0.277	-0.169
-477.318	-50.033	0.180	0.085
-476.303	96.989	-0.279	0.317
-475.289	216.302	0.123	0.194
-474.274	-33.562	-0.291	0.159
-473.259	188.232	0.234	-0.346
-472.245	10.839	-0.061	0.046
-471.230	-72.271	-0.388	-0.142
-470.216	42.702	-0.120	0.108
-469.201	-92.661	0.260	-0.072
-468.186	-85.255	0.199	-0.061
-467.172	303.664	-0.072	0.133
-466.157	-67.792	0.290	0.112
-465.143	146.693	-0.134	0.179
-464.128	62.082	0.221	0.218
-463.113	-140.761	0.537	0.055
-462.099	-200.000	0.029	-0.187
-461.084	36.210	0.130	0.113
-460.070	0.218	-0.080	0.057
-459.055	800.000	-0.091	-0.297
-458.040	-200.000	-0.034	-0.308
-457.026	190.865	-0.124	0.185
-456.011	64.860	0.194	-0.193
-454.997	136.702	0.113	-0.146
-453.982	64.941	-0.121	-0.121
-452.968	-109.232	-0.249	0.052
-451.953	-200.000	0.004	0.124
-450.938	194.556	-0.187	-0.281
-449.924	-87.973	0.229	-0.068
-448.909	571.144	0.069	-0.166
-447.895	86.985	0.222	0.242
-446.880	-111.228	0.390	0.079
-445.865	-200.000	-0.041	-0.223
-444.851	331.753	0.141	-0.269
-443.836	-179.215	-0.215	-0.005
-442.822	302.384	0.214	-0.392
-441.807	800.000	0.076	-0.304
-440.792	-128.138	0.200	0.028
-439.778	145.284	0.059	-0.078
-438.763	-33.238	-0.180	-0.098
-437.749	-200.000	-0.029	0.290
-436.734	-33.982	0.506	-0.275
-435.719	-168.685	0.103	0.004
-434.705	132.943	-0.142	-0.181
-433.690	245.648	0.021	-0.035
-432.676	800.000	-0.086	0.353
-431.661	800.000	0.043	0.154
-430.646	-176.136	0.277	0.007
-429.632	41.649	0.181	0.162
-428.617	-102.579	0.419	-0.099
-427.603	157.383	0.016	-0.021
-426.588	-50.785	-0.199	0.092
-425.573	800.000	0.103	-0.282
-424.559	417.721	-0.255	0.538
-423.544	-200.000	-0.039	0.235
-422.530	236.087	-0.025	0.041
-421.515	-35.669	-0.377	-0.202
-420.500	-200.000	-0.003	-0.037
-419.486	-200.000	0.025	-0.322
-418.471	-107.335	-0.212	-0.046
-417.457	-55.895	0.212	0.093
-416.442	800.000	-0.036	0.130
-415.428	-200.000	-0.017	0.105
-414.413	-101.865	-0.054	-0.013
-413.398	-89.236	-0.326	-0.095
-412.384	-112.374	-0.050	-0.010
-411.369	-200.000	0.027	0.170
-410.355	73.090	0.206	0.212
-409.340	800.000	0.080	-0.273
-408.325	-57.962	0.224	0.096
-407.311	-73.992	-0.114	0.041
-406.296	537.128	0.102	0.239
-405.282	-200.000	0.037	-0.272
-404.267	-200.000	-0.027	0.235
-403.252	-44.032	0.220	-0.109
-402.238	-177.096	0.230	-0.006
-401.223	-148.846	-0.070	-0.006
-400.209	149.009	0.128	-0.170
-399.194	221.857	-0.035	-0.055
-398.179	-125.500	-0.091	0.014
-397.165	800.000	0.060	0.175
-396.150	-200.000	-0.064	-0.368
-395.136	84.616	0.089	-0.096
-394.121	800.000	-0.008	-0.036
-393.106	-107.812	0.353	0.076
-392.092	-77.607	0.098	0.034
-391.077	-155.085	-0.030	-0.002
-390.063	366.563	-0.103	0.205
-389.048	-29.174	0.238	0.135
-388.033	87.878	-0.260	0.284
-387.019	5.303	-0.308	0.224
-386.004	-98.108	-0.171	-0.043
-384.990	-200.000	0.018	-0.109
-383.975	-200.000	-0.033	-0.176
-382.960	29.372	0.254	-0.213
-381.946	-28.212	-0.197	0.112
-380.931	-137.701	0.234	0.026
-379.917	35.813	-0.182	-0.158
-378.902	124.479	-0.287	0.357
-377.888	178.092	-0.149	0.214
-376.873	-200.000	-0.066	-0.363
-375.858	159.497	-0.125	0.171
-374.844	535.258	0.076	-0.177
-373.829	9.773	-0.115	-0.086
-372.815	194.570	0.060	0.090
-371.800	-85.928	-0.150	-0.046
-370.785	-200.000	0.088	0.476
-369.771	-159.782	0.313	0.017
-368.756	-200.000	0.009	0.211
-367.742	-200.000	-0.001	0.229
-366.727	100.443	-0.115	0.132
-365.712	-23.102	-0.225	-0.134
-364.698	-4.323	0.201	-0.137
-363.683	-99.133	0.241	-0.060
-362.669	800.000	0.093	-0.369
-361.654	800.000	0.074	0.251
-360.639	800.000	0.088	-0.298
-359.625	449.438	-0.046	0.099
-358.610	-34.208	-0.038	0.021
-357.596	-29.510	0.079	-0.045
-356.581	358.324	-0.169	-0.333
-355.566	-200.000	0.011	-0.165
-354.552	-165.786	-0.273	0.012
-353.537	-148.557	-0.148	-0.012
-352.523	581.303	0.130	0.313
-351.508	-104.453	0.300	0.068
-350.493	220.096	-0.104	-0.164
-349.479	-114.860	-0.224	0.042
-348.464	-200.000	0.062	0.502
-347.450	724.510	-0.092	-0.242
-346.435	-200.000	0.011	0.109
-345.420	89.531	0.358	-0.394
-344.406	-200.000	0.040	0.340
-343.391	-113.643	0.257	0.049
-342.377	45.263	-0.195	0.177
-341.362	-28.078	-0.054	-0.031
-340.348	11.783	0.375	-0.284
-339.333	-200.000	0.007	0.234
-338.318	-45.714	0.315	-0.153
-337.304	86.290	-0.148	-0.161
-336.289	-40.460	-0.237	0.121
-335.275	450.533	-0.092	0.200
-334.260	-200.000	-0.005	0.067
-333.245	211.424	-0.201	0.312
-332.231	-13.141	-0.086	0.055
-331.216	-82.675	0.119	-0.038
-330.202	90.773	0.153	0.168
-329.187	-13.663	-0.205	-0.131
-328.172	800.000	-0.088	0.286
-327.158	79.234	0.169	0.178
-326.143	-143.600	0.100	0.009
-325.129	-200.000	-0.035	-0.149
-324.114	-110.753	0.055	-0.011
-323.099	-62.341	0.112	-0.046
-322.085	-10.230	-0.264	0.172
-321.070	-200.000	-0.032	-0.366
-320.056	44.716	0.201	-0.182
-319.041	-36.252	-0.350	-0.186
-318.026	-200.000	-0.016	0.231
-317.012	-25.383	-0.196	0.114
-315.997	121.757	-0.165	-0.203
-314.983	349.618	-0.080	0.156
-313.968	66.963	0.236	0.237
-312.953	-18.969	0.161	-0.098
-311.939	168.215	-0.102	0.143
-310.924	-2.922	0.121	-0.083
-309.910	-135.832	-0.441	0.051
-308.895	405.142	0.145	-0.301
-307.880	12.711	-0.192	-0.146
-306.866	8.687	-0.096	-0.071
-305.851	800.000	0.032	-0.104
-304.837	758.958	0.069	-0.184
-303.822	44.750	0.222	0.201
-302.807	-200.000	-0.010	0.123
-301.793	134.774	-0.145	0.186
-300.778	-200.000	0.024	-0.251
-299.764	800.000	0.021	-0.079
-298.749	323.790	0.265	0.497
-297.735	-200.000	0.004	-0.177
-296.720	125.307	0.042	0.052
-295.705	-79.893	0.239	-0.079
-294.691	266.123	0.154	-0.264
-293.676	-105.047	-0.171	0.039
-292.662	-200.000	0.038	0.250
-291.647	-97.636	-0.098	-0.025
-290.632	30.223	0.164	-0.137
-289.618	-8.917	-0.165	0.109
-288.603	30.304	0.231	0.194
-287.589	-47.867	-0.275	0.131
-286.574	161.890	-0.053	0.073
-285.559	-36.182	0.218	0.116
-284.545	-153.679	-0.137	-0.009
-283.530	-87.669	0.510	0.151
-282.516	-92.286	0.140	-0.039
-281.501	-200.000	0.034	-0.246
-280.486	-200.000	-0.007	0.295
-279.472	221.226	-0.019	0.030
-278.457	59.326	-0.138	0.133
-277.443	-200.000	-0.007	-0.177
-276.428	800.000	-0.082	0.251
-275.413	-200.000	-0.005	-0.075
-274.399	-92.686	0.140	0.039
-273.384	-40.904	-0.066	0.034
-272.370	285.021	0.071	0.126
-271.355	800.000	0.139	-0.427
-270.340	-82.767	-0.068	0.022
-269.326	41.805	0.139	0.124
-268.311	65.089	0.054	-0.054
-267.297	22.589	0.157	0.126
-266.282	441.769	0.175	0.377
-265.267	514.208	0.073	-0.167
-264.253	55.688	-0.155	0.148
-263.238	158.084	-0.194	-0.264
-262.224	-54.654	0.206	-0.091
-261.209	800.000	0.085	0.256
-260.195	-200.000	0.052	0.232
-259.180	-17.905	0.105	-0.064
-258.165	754.223	-0.015	0.039
-257.151	-99.791	-0.132	-0.032
-256.136	800.000	0.142	-0.516
-255.122	220.079	-0.132	-0.208
-254.107	-58.259	0.215	-0.092
-253.092	-136.693	-0.157	0.018
-252.078	800.000	-0.022	0.077
-251.063	349.015	0.072	0.140
-250.049	-200.000	-0.001	-0.202
-249.034	-124.524	0.323	0.049
-248.019	-51.718	-0.319	-0.146
-247.005	32.712	0.036	-0.031
-245.990	-112.997	0.382	0.074
-244.976	554.315	-0.033	-0.079
-243.961	198.053	-0.204	-0.306
-242.946	207.240	-0.015	-0.022
-241.932	-44.779	0.094	-0.046
-240.917	773.373	0.026	0.068
-239.903	-15.055	-0.241	-0.151
-238.888	-200.000	0.039	0.177
-237.873	-75.892	-0.281	-0.098
-236.859	-84.521	0.188	0.058
-235.844	83.262	0.080	0.085
-234.830	339.930	-0.158	-0.302
-233.815	456.116	0.063	0.136
-232.800	-110.002	-0.066	-0.014
-231.786	-72.184	-0.075	0.027
-230.771	800.000	0.141	-0.479
-229.757	-107.876	0.125	-0.027
-228.742	148.359	0.176	0.233
-227.727	55.478	-0.055	0.053
-226.713	20.521	-0.155	0.123
-225.698	69.927	-0.252	0.255
-224.684	-64.187	0.335	-0.134
-223.669	-200.000	0.047	0.282
-222.655	-7.255	0.222	-0.147
-221.640	-200.000	-0.039	0.296
-220.625	800.000	-0.154	-0.489
-219.611	-6.445	-0.086	0.058
-218.596	-39.677	-0.341	0.175
-217.582	-139.401	0.365	-0.038
-216.567	136.110	-0.144	-0.184
-215.552	317.232	-0.108	-0.200
-214.538	-99.586	0.064	0.016
-213.523	86.662	0.133	0.143
-212.509	125.724	-0.312	-0.386
-211.494	75.195	-0.210	-0.217
-210.479	-97.883	0.140	0.035
-209.465	-200.000	-0.020	-0.348
-208.450	-129.916	-0.011	0.001
-207.436	71.845	0.219	0.223
-206.421	-176.014	0.023	0.001
-205.406	-46.883	-0.288	-0.138
-204.392	-200.000	-0.067	0.333
-203.377	47.721	0.148	-0.135
-202.363	-6.080	-0.189	0.127
-201.348	-52.281	0.155	0.071
-200.333	800.000	-0.053	0.158
-199.319	-39.337	-0.514	-0.264
-198.304	368.524	-0.059	0.116
-197.290	-120.829	-0.291	0.048
-196.275	-82.337	-0.057	-0.018
-195.260	-127.762	-0.385	0.054
-194.246	-45.426	0.222	0.108
-193.231	-200.000	0.052	-0.299
-192.217	55.183	-0.047	-0.045
-191.202	-54.131	-0.158	0.071
-190.187	280.720	0.209	0.366
-189.173	4.849	-0.265	-0.191
-188.158	-200.000	0.026	0.141
-187.144	129.453	-0.201	0.251
-186.129	-15.436	-0.375	0.234
-185.114	800.000	-0.054	0.192
-184.100	-200.000	-0.015	0.236
-183.085	83.171	-0.136	-0.144
-182.071	391.426	-0.009	-0.018
-181.056	-200.000	-0.006	0.213
-180.042	-55.594	-0.501	-0.220
-179.027	263.792	0.015	0.026
-178.012	800.000	0.028	0.106
-176.998	-38.041	0.376	-0.195
-175.983	58.128	0.268	-0.257
-174.969	-200.000	-0.030	0.245
-173.954	-96.985	-0.284	0.073
-172.939	148.195	0.123	0.162
-171.925	-200.000	-0.017	0.243
-170.910	94.068	-0.150	0.166
-169.896	-58.280	0.185	0.079
-168.881	-122.897	-0.227	-0.036
-167.866	800.000	0.088	-0.303
-166.852	-73.302	0.374	-0.134
-165.837	-200.000	-0.017	0.259
-164.823	-31.588	0.113	-0.062
-163.808	72.151	0.213	0.217
-162.793	192.992	-0.093	0.137
-161.779	749.702	-0.071	0.187
-160.764	16.564	-0.270	-0.208
-159.750	-149.201	0.250	0.020
-158.735	-171.044	0.122	-0.004
-157.720	225.799	0.137	0.217
-156.706	-200.000	-0.005	-0.206
-155.691	-52.665	0.184	-0.083
-154.677	274.119	0.034	-0.058
-153.662	295.454	0.101	0.180
-152.647	-200.000	0.011	-0.049
-151.633	-32.968	0.192	0.104
-150.618	33.220	0.048	-0.040
-149.604	-46.175	-0.118	-0.057
-148.589	-72.629	0.278	-0.100
-147.574	86.846	0.096	-0.103
-146.560	332.536	-0.037	-0.070
-145.545	417.230	0.108	0.225
-144.531	392.630	0.047	0.096
-143.516	800.000	-0.087	0.248
-142.502	-142.346	-0.207	-0.020
-141.487	-85.261	-0.145	0.044
-140.472	36.034	-0.237	0.204
-139.458	-11.350	0.365	-0.234
-138.443	800.000	0.058	-0.157
-137.429	-134.875	-0.051	-0.006
-136.414	738.394	0.193	0.506
-135.399	46.328	-0.223	-0.202
-134.385	800.000	0.034	-0.114
-133.370	-1.191	-0.195	-0.134
-132.356	-24.664	0.462	0.268
-131.341	-23.882	-0.174	0.102
-130.326	800.000	0.051	0.187
-129.312	-177.132	0.206	-0.005
-128.297	-9.650	0.207	-0.135
-127.283	-99.037	0.395	0.098
-126.268	800.000	-0.033	-0.110
-125.253	-200.000	-0.042	-0.269
-124.239	-97.722	0.252	-0.064
-123.224	-40.656	0.290	0.147
-122.210	800.000	0.078	-0.319
-121.195	383.040	-0.057	0.114
-120.180	-17.721	-0.263	-0.161
-119.166	800.000	-0.048	0.166
-118.151	-137.155	0.153	0.017
-117.137	-116.508	0.254	-0.046
-116.122	-138.026	0.234	-0.025
-115.107	-200.000	0.026	0.396
-114.093	-113.953	0.268	0.051
-113.078	562.014	0.031	0.074
-112.064	800.000	-0.011	-0.030
-111.049	-200.000	-0.012	-0.067
-110.034	40.505	0.166	0.146
-109.020	117.990	0.073	-0.087
-108.005	44.302	-0.126	-0.112
-106.991	-85.503	0.222	0.067
-105.976	-10.513	-0.069	-0.045
-104.962	800.000	-0.020	-0.087
-103.947	-47.132	0.165	0.079
-102.932	348.026	0.106	0.203
-101.918	-21.730	-0.291	0.173
-100.903	-120.616	0.043	0.007
-99.889	-113.013	0.337	0.065
-98.874	-11.715	0.309	0.198
-97.859	60.653	-0.214	-0.207
-96.845	-185.205	-0.079	0.001
-95.830	21.610	-0.191	0.151
-94.816	-18.513	-0.212	0.129
-93.801	468.008	-0.043	0.094
-92.786	-35.304	-0.283	0.150
-91.772	320.587	-0.157	-0.291
-90.757	-200.000	0.057	0.421
-89.743	-200.000	-0.023	0.414
-88.728	-173.353	-0.180	-0.005
-87.713	160.852	0.206	0.281
-86.699	-200.000	0.020	0.194
-85.684	10.765	0.184	0.137
-84.670	191.206	0.106	0.155
-83.655	-35.867	0.303	0.160
-82.640	1.633	0.267	0.187
-81.626	-51.037	0.062	0.029
-80.611	-41.562	-0.122	-0.061
-79.597	229.065	0.134	0.213
-78.582	-200.000	-0.001	0.121
-77.567	-181.598	0.285	-0.005
-76.553	655.732	0.163	0.409
-75.538	800.000	0.100	0.274
-74.524	-89.185	0.336	0.097
-73.509	600.706	-0.037	-0.090
-72.494	-119.534	-0.119	0.020
-71.480	116.465	-0.094	0.113
-70.465	-200.000	0.049	-0.250
-69.451	18.605	0.232	0.181
-68.436	373.044	0.167	0.332
-67.422	-200.000	0.049	-0.342
-66.407	515.957	0.174	-0.396
-65.392	-200.000	0.021	-0.112
-64.378	800.000	-0.017	-0.056
-63.363	-80.395	-0.297	-0.097
-62.349	49.253	0.104	0.095
-61.334	90.373	-1.010	-1.101
-60.319	87.128	0.664	0.714
-59.305	-200.000	-0.251	-1.108
-58.290	636.234	0.580	1.433
-57.276	800.000	0.666	1.873
-56.261	-200.000	124.268	673.607
-55.246	437.935	1561.548	3315.560
-54.232	145.301	2714.155	3537.347
-53.217	97.282	2170.074	2425.159
-52.203	34.270	1690.724	1435.737
-51.188	26.804	1508.883	1230.817
-50.173	24.789	1485.128	1197.908
-49.159	50.129	1556.281	1430.307
-48.144	46.682	1568.651	1417.966
-47.130	26.908	1517.835	1238.630
-46.115	24.004	1501.564	1205.656
-45.100	23.799	1498.480	1201.749
-44.086	23.781	1496.642	1200.102
-43.071	23.708	1494.886	1198.157
-42.057	23.599	1493.202	1196.026
-41.042	23.710	1491.534	1195.388
-40.027	23.817	1489.710	1194.600
-39.013	23.671	1488.619	1192.694
-37.998	23.626	1487.686	1191.599
-36.984	23.664	1486.472	1190.835
-35.969	23.761	1484.686	1190.007
-34.954	23.649	1483.167	1187.993
-33.940	23.634	1481.794	1186.748
-32.925	23.705	1480.389	1186.045
-31.911	23.739	1479.141	1185.224
-30.896	23.762	1478.198	1184.578
-29.881	23.730	1476.978	1183.337
-28.867	23.840	1475.012	1182.451
-27.852	23.765	1474.397	1181.410
-26.838	23.782	1472.290	1179.786
-25.823	23.780	1471.119	1178.790
-24.809	23.837	1469.269	1177.642
-23.794	23.850	1467.734	1176.450
-22.779	23.785	1466.969	1175.361
-21.765	23.728	1466.049	1174.196
-20.750	23.765	1464.844	1173.432
-19.736	23.742	1463.941	1172.511
-18.721	23.732	1462.704	1171.406
-17.706	23.733	1461.748	1170.598
-16.692	23.725	1460.164	1169.230
-15.677	23.743	1459.308	1168.620
-14.663	23.669	1458.306	1167.284
-13.648	23.754	1457.707	1167.313
-12.633	23.759	1456.940	1166.691
-11.619	23.650	1456.298	1165.414
-10.604	23.728	1455.454	1165.201
-9.590	23.698	1453.977	1163.777
-8.575	23.684	1453.111	1162.947
-7.560	23.692	1452.256	1162.268
-6.546	23.685	1451.656	1161.696
-5.531	23.596	1451.133	1160.646
-4.517	23.586	1450.084	1159.700
-3.502	23.617	1448.619	1158.685
-2.487	23.642	1447.997	1158.302
-1.473	23.721	1446.933	1157.923
-0.458	23.629	1445.829	1156.390
0.556	22.621	1435.722	1144.378
1.571	19.247	1411.022	1103.029
2.586	15.540	1349.736	1032.283
3.600	13.989	1266.388	959.503
4.615	12.774	1223.224	919.938
5.629	11.211	1167.620	869.708
6.644	5.894	1087.849	783.718
7.659	1.582	1052.026	736.988
8.673	0.910	1046.669	729.928
9.688	0.707	1043.638	726.773
10.702	0.751	1042.321	726.002
11.717	0.703	1040.319	724.313
12.731	2.557	1041.064	733.656
13.746	8.639	1048.484	768.083
14.761	14.818	1056.442	803.643
15.775	17.215	1059.544	817.479
16.790	17.178	1057.822	815.902
17.804	16.008	1056.632	809.293
18.819	15.221	1054.297	803.662
19.834	14.838	1053.129	800.863
20.848	14.509	1052.601	798.817
21.863	14.200	1051.766	796.635
22.877	14.011	1050.390	794.618
23.892	13.841	1049.558	793.105
24.907	13.765	1048.671	792.001
25.921	13.622	1048.379	791.029
26.936	13.841	1047.730	791.512
27.950	13.867	1046.869	790.917
28.965	13.857	1046.044	790.174
29.980	13.894	1045.319	789.735
30.994	14.004	1043.833	789.064
32.009	14.006	1043.401	788.679
33.023	14.027	1042.638	788.132
34.038	14.008	1041.841	787.369
35.053	13.881	1040.998	786.060
36.067	13.950	1039.956	785.529
37.082	13.909	1039.700	785.072
38.096	13.874	1038.698	784.081
39.111	13.942	1037.962	783.778
40.126	13.924	1037.168	783.023
41.140	13.977	1036.152	782.437
42.155	13.889	1035.239	781.267
43.169	13.829	1034.401	780.280
44.184	13.813	1033.359	779.353
45.199	13.810	1032.386	778.536
46.213	13.804	1031.294	777.615
47.228	13.812	1030.323	776.852
48.242	13.923	1029.183	776.442
49.257	13.862	1028.524	775.589
50.271	13.810	1027.491	774.500
51.286	13.993	1026.357	774.427
52.301	13.886	1025.446	773.174
53.315	13.825	1024.756	772.303
54.330	13.890	1023.776	771.797
55.344	13.945	1022.959	771.370
56.359	13.886	1021.869	770.207
57.374	13.894	1021.114	769.606
58.388	13.899	1020.496	769.093
59.403	13.806	1019.956	768.191
60.417	13.817	1019.469	767.805
61.432	13.777	1018.341	766.701
62.447	13.868	1017.582	766.483
63.461	13.858	1016.315	765.416
64.476	13.710	1015.815	764.289
65.490	13.704	1015.459	763.925
66.505	13.775	1014.190	763.230
67.520	13.840	1013.657	763.061
68.534	13.886	1012.807	762.565
69.549	13.725	1012.429	761.473
70.563	13.843	1011.417	761.186
71.578	13.785	1010.562	760.208
72.593	13.924	1009.503	759.984
73.607	13.725	1008.865	758.523
74.622	13.727	1008.212	757.977
75.636	13.697	1007.346	757.120
76.651	13.717	1006.410	756.443
77.666	13.841	1005.522	756.270
78.680	13.656	1005.150	755.081
79.695	13.637	1004.854	754.708
80.709	13.746	1003.766	754.319
81.724	13.829	1002.707	753.834
82.739	13.905	1001.898	753.502
83.753	13.789	1001.347	752.498
84.768	13.852	1000.440	752.034
85.782	13.886	1000.280	752.002
86.797	13.856	999.253	751.025
87.812	14.016	998.224	750.907
88.826	13.940	997.219	749.743
89.841	13.928	996.310	748.941
90.855	14.000	995.519	748.605
91.870	14.018	994.925	748.169
92.884	13.994	994.426	747.620
93.899	14.140	993.425	747.457
94.914	13.914	993.015	746.069
95.928	14.000	992.292	745.845
96.943	14.121	991.467	745.702
97.957	13.973	990.723	744.416
98.972	14.019	989.611	743.718
99.987	14.039	988.870	743.185
101.001	14.117	988.435	743.143
102.016	13.946	987.903	741.910
103.030	13.979	986.801	741.166
104.045	14.029	985.737	740.522
105.060	14.061	984.659	739.792
106.074	14.126	983.642	739.251
107.089	14.088	982.557	738.201
108.103	13.944	982.387	737.369
109.118	13.860	981.369	736.166
110.133	13.903	980.800	735.866
111.147	13.991	979.610	735.296
112.162	13.936	978.746	734.340
113.176	13.983	978.066	733.974
114.191	13.954	977.203	733.133
115.206	13.985	976.540	732.706
116.220	14.062	975.606	732.281
117.235	13.945	974.607	730.949
118.249	14.107	973.713	730.927
119.264	14.002	972.987	729.856
120.279	13.952	972.044	728.868
121.293	13.929	971.632	728.390
122.308	13.965	970.565	727.684
123.322	13.842	970.187	726.799
124.337	13.852	968.962	725.862
125.352	13.912	967.718	725.126
126.366	13.928	966.887	724.509
127.381	13.843	965.583	723.098
128.395	13.973	964.273	722.617
129.410	13.779	963.662	721.253
130.424	13.979	962.411	721.120
131.439	13.849	961.681	719.946
132.454	13.877	961.033	719.518
133.468	14.043	959.953	719.364
134.483	13.995	959.454	718.720
135.497	13.909	958.934	717.897
136.512	14.017	958.118	717.689
137.527	13.926	957.450	716.729
138.541	13.950	956.622	716.150
139.556	14.021	955.880	715.837
140.570	13.967	955.336	715.134
141.585	13.997	954.331	714.448
142.600	14.080	953.508	714.124
143.614	14.120	952.759	713.672
144.629	14.058	952.188	712.916
145.643	14.074	951.479	712.390
146.658	14.012	950.841	711.584
147.673	14.105	949.278	710.750
148.687	14.124	948.561	710.229
149.702	14.002	947.714	709.012
150.716	14.025	947.163	708.638
151.731	13.968	946.381	707.745
152.746	14.208	945.285	707.884
153.760	14.107	944.740	706.986
154.775	14.080	944.146	706.361
155.789	14.152	943.622	706.212
156.804	14.213	942.857	705.838
157.819	14.127	941.905	704.698
158.833	14.226	940.815	704.241
159.848	14.209	940.580	703.929
160.862	14.424	939.718	704.132
161.877	14.328	938.829	702.996
162.892	14.191	938.189	701.875
163.906	14.241	937.051	701.174
164.921	14.181	936.754	700.635
165.935	14.169	935.735	699.764
166.950	14.278	934.715	699.396
167.964	14.349	933.542	698.754
168.979	14.347	932.454	697.871
169.994	14.228	931.886	696.884
171.008	14.194	930.914	695.953
172.023	14.241	930.305	695.634
173.037	14.432	929.293	695.614
174.052	14.476	928.552	695.181
175.067	14.433	927.931	694.474
176.081	14.266	927.339	693.275
177.096	14.243	926.698	692.638
178.110	14.228	926.008	692.000
179.125	14.361	925.029	691.759
180.140	14.308	924.435	691.033
181.154	14.476	923.455	690.937
182.169	14.349	923.022	690.026
183.183	14.504	922.247	690.027
184.198	14.513	921.396	689.365
185.213	14.351	920.973	688.317
186.227	14.497	920.313	688.366
187.242	14.517	920.016	688.166
188.256	14.594	919.137	687.765
189.271	14.346	918.961	686.551
190.286	14.530	917.577	686.214
191.300	14.590	916.581	685.654
192.315	14.470	916.252	684.853
193.329	14.410	915.500	683.983
194.344	14.400	915.202	683.660
195.359	14.417	914.087	682.839
196.373	14.474	913.926	682.892
197.388	14.518	913.774	682.896
198.402	14.612	913.118	682.730
199.417	14.712	912.332	682.492
200.432	14.695	912.027	682.133
201.446	14.672	911.186	681.349
202.461	14.735	910.850	681.295
203.475	14.749	910.257	680.851
204.490	14.905	909.846	681.115
205.504	14.880	908.629	680.042
206.519	14.725	908.264	679.080
207.534	14.752	907.436	678.512
208.548	14.721	906.588	677.689
209.563	14.736	906.242	677.433
210.577	14.859	905.348	677.202
211.592	14.912	904.724	676.891
212.607	14.823	904.310	676.162
213.621	15.016	903.450	676.238
214.636	14.933	902.670	675.259
215.650	14.854	902.400	674.679
216.665	14.904	901.878	674.430
217.680	14.983	901.297	674.256
218.694	15.035	900.936	674.134
219.709	15.020	900.295	673.534
220.723	15.039	899.402	672.882
221.738	14.924	899.004	672.064
222.753	14.996	898.050	671.582
223.767	15.201	896.726	671.354
224.782	14.942	896.851	670.349
225.796	15.122	895.690	670.140
226.811	15.154	895.409	670.000
227.826	15.203	894.293	669.301
228.840	15.154	893.974	668.807
229.855	15.112	893.045	667.884
230.869	15.052	892.898	667.477
231.884	15.084	892.067	666.926
232.899	15.150	891.327	666.574
233.913	15.124	890.412	665.731
234.928	15.138	889.910	665.350
235.942	15.017	889.426	664.450
236.957	15.084	888.378	663.872
237.972	15.085	887.928	663.482
238.986	15.034	887.530	662.923
240.001	15.154	886.526	662.588
241.015	15.209	885.674	662.110
242.030	15.246	885.286	661.910
243.045	15.231	884.353	661.095
244.059	15.317	884.132	661.211
245.074	15.393	882.877	660.512
246.088	15.215	882.818	659.707
247.103	15.369	882.134	659.744
248.117	15.451	881.279	659.369
249.132	15.359	881.320	658.981
250.147	15.328	880.403	658.116
251.161	15.544	879.312	658.087
252.176	15.422	878.817	657.182
253.190	15.461	878.136	656.768
254.205	15.559	877.806	656.845
255.220	15.713	876.946	656.744
256.234	15.517	876.327	655.458
257.249	15.514	876.034	655.167
258.263	15.591	875.034	654.661
259.278	15.635	874.536	654.403
260.293	15.730	874.242	654.497
261.307	15.622	874.087	653.900
262.322	15.670	873.205	653.369
263.336	15.699	872.303	652.750
264.351	15.939	871.737	653.198
265.366	15.790	871.325	652.257
266.380	15.807	870.684	651.783
267.395	15.724	870.327	651.138
268.409	15.770	869.183	650.400
269.424	15.827	868.257	649.873
270.439	15.848	867.823	649.570
271.453	15.852	867.004	648.913
272.468	15.819	866.505	648.358
273.482	15.894	865.562	647.881
274.497	15.790	865.179	647.137
275.512	15.885	864.375	646.845
276.526	15.868	863.626	646.163
277.541	15.734	863.305	645.351
278.555	15.896	862.578	645.370
279.570	15.972	861.908	645.103
280.585	16.000	861.611	644.931
281.599	16.110	860.477	644.446
282.614	16.086	860.385	644.228
283.628	16.029	859.462	643.262
284.643	16.077	859.041	643.074
285.657	15.973	858.516	642.230
286.672	16.077	857.848	642.067
287.687	15.928	857.818	641.418
288.701	16.163	857.183	641.784
289.716	16.118	856.188	640.809
290.730	16.185	855.707	640.648
291.745	16.147	855.329	640.162
292.760	16.118	854.258	639.195
293.774	16.143	853.943	639.000
294.789	16.308	853.146	638.971
295.803	16.266	852.850	638.533
296.818	16.088	852.295	637.387
297.833	16.197	851.286	636.989
298.847	16.320	850.348	636.693
299.862	16.229	849.936	635.988
300.876	16.228	849.165	635.349
301.891	16.417	848.576	635.562
302.906	16.420	847.832	634.960
303.920	16.304	847.564	634.267
304.935	16.264	846.745	633.449
305.949	16.526	845.929	633.767
306.964	16.486	845.463	633.211
307.979	16.391	845.006	632.455
308.993	16.411	844.566	632.144
310.008	16.451	843.678	631.575
311.022	16.432	843.397	631.237
312.037	16.572	842.851	631.296
313.052	16.470	842.477	630.578
314.066	16.409	841.898	629.861
315.081	16.551	841.103	629.743
316.095	16.498	840.733	629.209
317.110	16.456	840.470	628.802
318.125	16.486	839.567	628.181
319.139	16.515	838.760	627.629
320.154	16.552	838.234	627.317
321.168	16.502	837.985	626.892
322.183	16.474	837.489	626.361
323.197	16.606	837.065	626.478
324.212	16.592	836.448	625.907
325.227	16.693	835.992	625.885
326.241	16.602	835.274	624.955
327.256	16.565	834.852	624.448
328.270	16.702	834.066	624.310
329.285	16.605	833.449	623.438
330.300	16.654	832.837	623.103
331.314	16.696	832.266	622.777
332.329	16.680	831.918	622.401
333.343	16.691	831.164	621.823
334.358	16.755	830.732	621.678
335.373	16.640	830.159	620.774
336.387	16.837	829.428	620.892
337.402	16.745	829.464	620.528
338.416	16.786	828.773	620.107
339.431	16.881	827.788	619.661
340.446	17.010	827.138	619.591
341.460	16.903	826.598	618.743
342.475	16.897	826.233	618.391
343.489	16.871	825.671	617.822
344.504	16.881	825.169	617.428
345.519	17.125	824.105	617.464
346.533	16.968	824.291	616.979
347.548	17.046	823.749	616.801
348.562	17.169	822.845	616.518
349.577	17.062	822.687	615.956
350.592	17.036	822.338	615.544
351.606	16.916	821.942	614.759
352.621	16.923	821.281	614.236
353.635	17.013	820.870	614.202
354.650	17.064	820.286	613.894
355.665	17.013	819.998	613.439
356.679	17.044	819.485	613.112
357.694	17.154	818.653	612.832
358.708	17.186	818.312	612.638
359.723	17.157	817.575	611.929
360.738	17.031	817.353	611.254
361.752	17.025	816.909	610.848
362.767	17.248	816.558	611.333
363.781	17.127	816.223	610.594
364.796	17.269	815.586	610.573
365.810	17.340	814.959	610.306
366.825	17.231	814.953	609.854
367.840	17.259	814.665	609.686
368.854	17.373	813.879	609.451
369.869	17.363	813.450	609.041
370.883	17.420	812.745	608.663
371.898	17.451	811.972	608.141
372.913	17.390	811.725	607.682
373.927	17.544	810.353	607.153
374.942	17.477	810.180	606.728
375.956	17.464	809.731	606.292
376.971	17.576	809.058	606.136
377.986	17.527	808.826	605.733
379.000	17.722	807.985	605.743
380.015	17.573	807.724	604.964
381.029	17.725	806.986	604.895
382.044	17.707	806.560	604.462
383.059	17.515	806.228	603.479
384.073	17.663	805.747	603.590
385.088	17.654	805.222	603.111
386.102	17.657	804.489	602.516
387.117	17.537	804.042	601.705
388.132	17.718	803.020	601.527
389.146	17.605	803.590	601.502
390.161	17.671	802.864	601.136
391.175	17.673	802.533	600.845
392.190	17.667	802.187	600.512
393.205	17.583	801.958	599.990
394.219	17.618	801.286	599.557
395.234	17.664	800.676	599.208
396.248	17.733	800.128	598.988
397.263	17.637	799.877	598.411
398.278	17.563	799.392	597.735
399.292	17.798	798.567	597.890
400.307	17.755	798.476	597.619
401.321	17.824	797.688	597.215
402.336	17.805	797.446	596.915
403.350	17.878	796.942	596.742
404.365	17.682	796.910	595.979
405.380	17.753	796.452	595.832
406.394	17.942	795.578	595.786
407.409	18.015	795.265	595.752
408.423	18.073	794.863	595.599
409.438	18.027	794.471	595.094
410.453	18.088	793.803	594.754
411.467	18.107	793.619	594.629
412.482	18.015	792.856	593.684
413.496	18.207	792.429	593.978
414.511	18.138	792.338	593.618
415.526	18.119	791.874	593.152
416.540	17.988	791.744	592.550
417.555	18.148	791.188	592.636
418.569	18.265	790.575	592.528
419.584	18.247	789.956	591.950
420.599	18.261	789.562	591.649
421.613	115.897	1297.049	1490.006
422.628	99.748	1370.922	1490.108
