DTS Sentinel unit serial number:	SN413079Multiplexer serial number:	ORYXHardware model number:	OX4-SRSoftware version number:	ORYX F/W v4.00 Oryx Data Collector v3.7.2.0data status	okinstallation	princeton_trtdifferential loss correction	single-endedforward channel	channel 3reverse channel	N/Adate	2019/09/14time	18:52:35forward acquisition time	60.00reverse acquisition time	0.00gamma	496.2192k internal	0.2306k external	0.2306temperature offset calibration	1.0015default loss term (dB/km)	0.3790temperature slope calibration	1.0000multiplexer offset coefficient	1.0000multiplexer slope coefficient	1.0000fibre end	0.00T internal ref (°C)	35.87T ext. ref 1 (°C)	4.90T ext. ref 2 (°C)	29.65length (m)	temperature (°C)	Stokes	anti-Stokes-747.200	-42.045	0.379	-0.197
-746.185	63.402	-0.210	0.215
-745.171	8.315	0.254	-0.194
-744.156	736.720	-0.068	0.186
-743.142	585.342	-0.059	0.147
-742.127	-37.451	0.220	0.119
-741.112	419.900	0.110	0.239
-740.098	-6.122	0.112	-0.078
-739.083	-50.305	0.449	0.216
-738.069	-200.000	0.055	0.380
-737.054	400.865	0.110	-0.235
-736.039	94.247	0.151	-0.174
-735.025	-36.154	0.303	-0.166
-734.010	-123.976	0.176	-0.028
-732.996	-200.000	-0.027	0.234
-731.981	-200.000	0.000	-0.132
-730.966	-116.025	-0.279	-0.053
-729.952	4.606	-0.248	-0.185
-728.937	172.013	0.163	-0.238
-727.923	800.000	-0.036	0.142
-726.908	-154.599	0.178	0.012
-725.894	80.061	-0.042	0.046
-724.879	40.049	-0.291	-0.266
-723.864	15.060	-0.270	-0.215
-722.850	5.712	0.058	0.044
-721.835	-27.052	0.166	-0.098
-720.821	-200.000	0.001	0.155
-719.806	-190.570	-0.226	0.002
-718.791	122.513	-0.205	-0.260
-717.777	240.617	0.138	-0.235
-716.762	800.000	-0.087	0.301
-715.748	-200.000	0.014	0.296
-714.733	-200.000	0.020	0.245
-713.718	-67.868	0.100	0.040
-712.704	-200.000	0.386	0.001
-711.689	-101.363	0.384	-0.095
-710.675	161.652	0.043	0.061
-709.660	-183.296	0.244	-0.004
-708.645	292.180	0.043	0.079
-707.631	168.696	-0.207	0.300
-706.616	0.132	-0.202	0.147
-705.602	-25.278	-0.340	-0.205
-704.587	51.912	0.200	-0.193
-703.572	800.000	0.100	-0.325
-702.558	-85.835	0.315	-0.099
-701.543	331.362	-0.055	-0.108
-700.529	-20.682	-0.359	-0.224
-699.514	-74.676	0.169	-0.062
-698.499	-112.076	0.440	-0.090
-697.485	-66.207	0.059	0.024
-696.470	-146.709	0.329	-0.029
-695.456	800.000	0.063	0.208
-694.441	6.533	0.059	-0.045
-693.426	46.664	-0.129	0.122
-692.412	-109.495	0.103	-0.022
-691.397	-101.526	0.290	0.072
-690.383	-200.000	0.059	-0.263
-689.368	-8.389	-0.102	0.070
-688.354	39.588	0.115	0.105
-687.339	508.338	0.095	0.223
-686.324	-200.000	0.008	-0.386
-685.310	11.401	-0.171	0.133
-684.295	252.005	0.114	0.197
-683.281	-93.414	-0.262	-0.074
-682.266	-157.678	-0.159	-0.010
-681.251	-200.000	-0.062	-0.349
-680.237	4.735	0.326	-0.243
-679.222	92.592	-0.177	-0.202
-678.208	66.944	0.162	-0.168
-677.193	55.849	-0.202	0.198
-676.178	800.000	-0.037	0.114
-675.164	54.900	-0.117	-0.115
-674.149	-66.808	0.224	0.090
-673.135	177.327	0.081	-0.120
-672.120	-81.542	0.114	-0.038
-671.105	89.849	0.179	-0.203
-670.091	178.441	0.220	0.326
-669.076	270.345	-0.196	0.350
-668.062	140.727	0.054	0.072
-667.047	800.000	0.016	0.049
-666.032	-200.000	0.005	-0.177
-665.018	-55.656	0.201	-0.091
-664.003	-115.519	0.264	0.050
-662.989	-26.740	-0.103	0.061
-661.974	800.000	-0.107	-0.329
-660.959	-124.350	0.298	-0.047
-659.945	227.893	-0.042	-0.070
-658.930	145.241	-0.189	-0.256
-657.916	-124.820	-0.158	0.025
-656.901	51.714	0.117	0.113
-655.886	11.228	0.293	-0.227
-654.872	158.167	-0.193	0.271
-653.857	800.000	-0.076	-0.214
-652.843	-103.501	0.422	0.101
-651.828	-200.000	0.008	0.131
-650.814	-136.367	-0.282	0.033
-649.799	392.957	0.060	0.127
-648.784	-200.000	-0.015	0.139
-647.770	-153.198	0.060	-0.004
-646.755	-5.342	-0.366	-0.255
-645.741	-102.846	-0.127	-0.031
-644.726	-143.538	-0.109	-0.011
-643.711	-200.000	-0.011	0.117
-642.697	-27.852	-0.338	-0.198
-641.682	44.677	0.082	0.077
-640.668	56.689	-0.220	-0.217
-639.653	800.000	0.060	0.175
-638.638	-200.000	-0.039	0.322
-637.624	-32.690	-0.317	0.179
-636.609	-132.351	-0.140	0.018
-635.595	-200.000	-0.021	-0.153
-634.580	53.108	0.148	0.144
-633.565	-200.000	0.017	-0.374
-632.551	40.133	0.094	-0.085
-631.536	-49.670	-0.311	0.150
-630.522	-200.000	-0.018	-0.245
-629.507	63.290	-0.275	-0.279
-628.492	-2.814	0.215	-0.152
-627.478	537.375	-0.156	-0.376
-626.463	287.462	-0.099	0.180
-625.449	653.757	-0.057	-0.148
-624.434	-200.000	-0.015	0.100
-623.419	-200.000	0.006	0.213
-622.405	-17.205	-0.108	-0.069
-621.390	13.812	-0.160	-0.126
-620.376	-50.902	0.126	0.060
-619.361	-13.774	-0.083	0.055
-618.346	-200.000	-0.042	0.476
-617.332	12.829	0.155	-0.121
-616.317	709.295	-0.062	-0.166
-615.303	-82.577	-0.314	-0.103
-614.288	800.000	-0.113	-0.317
-613.273	46.335	0.367	-0.344
-612.259	737.507	-0.119	-0.324
-611.244	75.277	0.039	-0.042
-610.230	-44.146	-0.123	-0.062
-609.215	553.342	0.108	-0.262
-608.201	170.929	0.085	0.124
-607.186	-68.674	-0.280	0.110
-606.171	-200.000	-0.043	0.232
-605.157	-113.682	0.456	0.090
-604.142	800.000	-0.133	0.442
-603.128	-200.000	0.025	-0.262
-602.113	100.661	-0.085	0.100
-601.098	352.372	-0.106	0.213
-600.084	261.050	0.100	0.175
-599.069	98.622	0.126	-0.147
-598.055	-200.000	-0.048	0.213
-597.040	-114.319	-0.155	0.030
-596.025	181.904	-0.061	-0.091
-595.011	-57.200	0.055	-0.024
-593.996	-70.073	0.140	-0.054
-592.982	-129.073	-0.131	0.019
-591.967	389.412	0.024	0.050
-590.952	457.372	-0.158	-0.356
-589.938	61.122	-0.081	0.081
-588.923	468.907	-0.135	0.306
-587.909	-86.546	-0.020	-0.006
-586.894	61.894	0.115	-0.116
-585.879	-200.000	0.058	0.382
-584.865	800.000	0.062	0.179
-583.850	317.736	-0.066	-0.126
-582.836	16.600	-0.116	-0.093
-581.821	-200.000	-0.011	0.318
-580.806	598.445	0.089	0.223
-579.792	-177.297	-0.518	-0.013
-578.777	-126.861	-0.103	-0.015
-577.763	-18.320	-0.167	0.106
-576.748	-20.445	0.194	-0.120
-575.733	-200.000	-0.020	0.403
-574.719	-42.501	-0.247	-0.127
-573.704	800.000	-0.061	0.186
-572.690	72.933	-0.040	0.042
-571.675	800.000	0.060	0.176
-570.661	-200.000	0.011	-0.091
-569.646	54.167	-0.111	0.108
-568.631	-109.921	0.125	0.026
-567.617	-200.000	0.020	0.194
-566.602	254.957	-0.120	-0.208
-565.588	171.526	0.351	-0.510
-564.573	681.755	-0.062	-0.162
-563.558	800.000	-0.009	-0.034
-562.544	-96.703	-0.399	-0.106
-561.529	800.000	0.083	-0.232
-560.515	-116.708	-0.112	0.021
-559.500	-112.837	0.071	-0.014
-558.485	-114.874	0.263	0.051
-557.471	-200.000	-0.002	-0.129
-556.456	-67.438	0.259	0.103
-555.442	-44.802	0.270	0.136
-554.427	506.740	0.043	0.100
-553.412	-200.000	-0.024	-0.130
-552.398	135.988	0.193	-0.254
-551.383	-79.864	0.301	-0.102
-550.369	88.022	-0.232	0.260
-549.354	45.572	-0.159	-0.148
-548.339	229.381	-0.166	-0.273
-547.325	-109.184	-0.045	-0.010
-546.310	25.574	0.246	0.207
-545.296	-118.198	0.201	0.036
-544.281	290.538	0.125	0.230
-543.266	54.418	0.288	-0.280
-542.252	12.202	-0.251	-0.195
-541.237	468.790	0.113	-0.256
-540.223	-0.400	0.267	0.191
-539.208	89.520	0.180	0.203
-538.193	-174.019	0.186	0.006
-537.179	184.237	-0.143	-0.213
-536.164	-61.361	-0.111	-0.047
-535.150	240.135	-0.088	-0.148
-534.135	-200.000	-0.044	0.196
-533.121	335.079	0.156	0.305
-532.106	-200.000	0.009	-0.105
-531.091	34.732	0.139	-0.123
-530.077	22.569	0.336	0.277
-529.062	-121.510	-0.200	0.033
-528.048	88.072	0.153	0.171
-527.033	-12.020	-0.251	0.166
-526.018	-99.968	-0.090	0.023
-525.004	244.646	0.020	-0.034
-523.989	102.242	-0.242	0.286
-522.975	302.181	0.102	-0.190
-521.960	-48.187	0.075	-0.036
-520.945	78.919	-0.112	-0.120
-519.931	596.429	0.102	-0.255
-518.916	-55.374	0.323	0.146
-517.902	-88.836	0.282	-0.085
-516.887	800.000	0.065	0.189
-515.872	149.402	0.162	0.221
-514.858	-200.000	0.011	0.118
-513.843	-72.985	0.429	0.159
-512.829	103.347	0.119	-0.141
-511.814	-200.000	-0.021	0.269
-510.799	240.294	-0.177	0.297
-509.785	-140.311	-0.177	-0.019
-508.770	287.211	-0.096	-0.175
-507.756	54.998	-0.221	-0.216
-506.741	-65.712	0.245	0.099
-505.726	-200.000	-0.006	0.332
-504.712	800.000	0.056	-0.203
-503.697	-22.216	0.125	0.076
-502.683	331.715	-0.069	0.135
-501.668	-78.370	-0.226	-0.078
-500.653	320.350	0.130	0.250
-499.639	800.000	-0.078	0.256
-498.624	-66.058	0.387	0.156
-497.610	37.083	0.098	-0.087
-496.595	800.000	0.052	0.147
-495.581	-200.000	-0.009	-0.206
-494.566	51.283	-0.149	0.142
-493.551	-132.130	0.162	-0.021
-492.537	-70.089	-0.334	-0.128
-491.522	800.000	0.019	0.073
-490.508	800.000	0.002	0.009
-489.493	14.802	0.191	0.151
-488.478	-60.668	-0.171	0.073
-487.464	-123.339	0.117	-0.019
-486.449	-200.000	0.003	-0.473
-485.435	16.941	-0.080	-0.064
-484.420	800.000	-0.080	0.253
-483.405	98.023	0.145	0.169
-482.391	-100.212	0.302	0.076
-481.376	71.088	0.104	-0.109
-480.362	-26.484	-0.230	0.136
-479.347	-163.981	-0.149	0.007
-478.332	-200.000	-0.017	-0.152
-477.318	-200.000	-0.008	0.137
-476.303	-58.047	0.406	0.178
-475.289	-200.000	-0.021	0.183
-474.274	3.401	0.271	0.199
-473.259	-200.000	-0.000	-0.164
-472.245	-122.073	-0.375	-0.062
-471.230	103.881	-0.205	0.243
-470.216	-43.470	0.280	-0.142
-469.201	-200.000	0.009	0.073
-468.186	472.716	-0.137	-0.310
-467.172	-21.007	-0.126	0.078
-466.157	-107.969	0.139	0.031
-465.143	-108.404	-0.323	-0.070
-464.128	-200.000	-0.077	-0.513
-463.113	127.399	-0.176	-0.225
-462.099	800.000	-0.024	0.081
-461.084	-108.394	-0.326	-0.071
-460.070	-140.248	-0.112	-0.012
-459.055	-135.198	0.200	-0.024
-458.040	800.000	0.074	0.211
-457.026	-200.000	-0.004	0.131
-456.011	-126.389	0.112	-0.017
-454.997	-200.000	0.003	0.141
-453.982	-97.793	-0.271	0.070
-452.968	-163.443	-0.233	0.011
-451.953	-102.734	-0.241	-0.058
-450.938	-2.020	0.062	-0.044
-449.924	-127.509	-0.077	0.011
-448.909	-76.300	0.185	0.065
-447.895	-50.259	0.125	-0.060
-446.880	-112.668	-0.147	0.029
-445.865	-67.607	0.349	-0.138
-444.851	-200.000	0.034	-0.250
-443.836	85.373	0.101	-0.111
-442.822	-200.000	0.010	0.103
-441.807	200.989	-0.065	-0.101
-440.792	427.404	0.148	-0.322
-439.778	-23.191	-0.152	0.092
-438.763	-119.916	-0.211	0.036
-437.749	-91.460	-0.122	-0.035
-436.734	-49.348	0.210	-0.101
-435.719	800.000	-0.022	-0.070
-434.705	205.383	-0.049	0.077
-433.690	10.598	-0.029	0.022
-432.676	-163.199	-0.076	-0.004
-431.661	-98.702	-0.033	0.008
-430.646	-74.971	-0.167	-0.060
-429.632	-36.125	-0.353	0.192
-428.617	356.617	-0.212	0.425
-427.603	-50.012	0.227	-0.108
-426.588	-200.000	0.007	-0.404
-425.573	800.000	0.104	-0.308
-424.559	-113.452	0.334	-0.066
-423.544	-200.000	-0.001	-0.348
-422.530	-56.927	-0.240	-0.106
-421.515	481.900	-0.086	-0.196
-420.500	-97.184	0.396	0.104
-419.486	-200.000	0.018	0.412
-418.471	499.185	-0.158	0.365
-417.457	466.475	0.022	-0.051
-416.442	800.000	0.028	0.105
-415.428	272.162	-0.044	-0.078
-414.413	116.273	0.035	-0.043
-413.398	-200.000	-0.020	-0.126
-412.384	-54.630	0.241	-0.109
-411.369	21.198	-0.192	-0.157
-410.355	-122.683	0.297	0.048
-409.340	55.868	-0.171	-0.166
-408.325	-200.000	0.001	-0.304
-407.311	-15.601	0.148	-0.095
-406.296	337.687	-0.182	0.356
-405.282	41.522	0.079	-0.072
-404.267	-200.000	0.039	-0.278
-403.252	800.000	0.037	0.126
-402.238	109.776	-0.174	-0.209
-401.223	800.000	-0.073	-0.294
-400.209	213.714	0.235	-0.374
-399.194	-156.697	-0.323	-0.020
-398.179	62.949	0.089	-0.089
-397.165	-140.798	-0.179	-0.019
-396.150	329.805	0.190	-0.367
-395.136	261.639	-0.045	-0.077
-394.121	800.000	-0.046	0.148
-393.106	236.413	-0.099	-0.165
-392.092	-31.758	0.204	0.115
-391.077	31.467	0.148	-0.128
-390.063	-130.862	0.194	-0.026
-389.048	-200.000	0.063	0.302
-388.033	125.431	0.193	0.244
-387.019	-97.075	0.146	-0.038
-386.004	492.023	0.060	0.138
-384.990	-89.118	0.179	0.053
-383.975	38.232	-0.253	-0.226
-382.960	-0.987	0.173	0.123
-381.946	-128.738	-0.139	-0.020
-380.931	-200.000	-0.004	-0.061
-379.917	-200.000	-0.062	-0.377
-378.902	-97.778	0.298	-0.077
-377.888	75.545	0.063	0.067
-376.873	248.978	-0.031	-0.052
-375.858	-49.105	-0.170	-0.082
-374.844	-200.000	-0.001	-0.054
-373.829	-200.000	0.040	0.216
-372.815	-200.000	-0.005	0.286
-371.800	-99.063	0.369	-0.094
-370.785	54.683	0.207	0.201
-369.771	17.232	0.124	-0.099
-368.756	800.000	-0.046	-0.157
-367.742	100.018	0.083	0.097
-366.727	-35.026	0.078	-0.042
-365.712	68.807	-0.091	0.094
-364.698	460.725	-0.072	-0.161
-363.683	-169.680	-0.138	-0.005
-362.669	-200.000	-0.053	0.427
-361.654	27.681	-0.131	0.111
-360.639	290.002	-0.134	-0.245
-359.625	-138.705	-0.075	0.008
-358.610	-55.100	-0.155	0.070
-357.596	258.039	0.153	0.265
-356.581	-38.653	0.035	0.018
-355.566	-122.347	0.401	0.066
-354.552	133.906	-0.122	0.159
-353.537	0.752	0.137	0.098
-352.523	-22.677	0.265	0.160
-351.508	-47.349	-0.179	0.087
-350.493	76.186	0.229	-0.243
-349.479	-200.000	-0.028	-0.203
-348.464	-200.000	-0.008	-0.060
-347.450	-200.000	0.013	-0.259
-346.435	-200.000	-0.063	0.313
-345.420	23.561	-0.282	0.232
-344.406	-89.589	-0.161	0.047
-343.391	-40.561	0.188	0.098
-342.377	155.325	-0.182	-0.251
-341.362	800.000	-0.160	-0.486
-340.348	-1.407	-0.191	-0.135
-339.333	-69.400	-0.246	0.094
-338.318	-17.971	-0.214	-0.135
-337.304	-54.150	-0.297	-0.135
-336.289	138.053	-0.073	0.095
-335.275	-36.184	-0.160	-0.087
-334.260	-33.529	0.227	-0.126
-333.245	268.245	0.171	0.300
-332.231	800.000	0.015	0.057
-331.216	-200.000	-0.065	0.311
-330.202	-22.187	-0.267	-0.162
-329.187	-48.640	-0.203	0.098
-328.172	-200.000	-0.017	-0.157
-327.158	-80.412	-0.264	-0.088
-326.143	800.000	-0.111	0.478
-325.129	-27.533	0.416	0.242
-324.114	-185.311	-0.180	0.003
-323.099	-187.563	-0.333	-0.004
-322.085	409.794	0.183	-0.388
-321.070	-200.000	-0.086	-0.463
-320.056	-200.000	0.004	0.031
-319.041	461.992	0.154	-0.344
-318.026	238.856	0.168	-0.280
-317.012	-108.881	0.315	0.067
-315.997	62.575	0.256	0.256
-314.983	-200.000	0.086	0.457
-313.968	-100.813	0.316	0.078
-312.953	-67.366	-0.117	-0.046
-311.939	-200.000	-0.011	-0.340
-310.924	-169.509	-0.227	-0.008
-309.910	-152.877	0.148	0.010
-308.895	-48.259	0.207	0.100
-307.880	800.000	-0.119	-0.337
-306.866	-81.828	-0.101	0.033
-305.851	215.831	-0.056	0.088
-304.837	-65.814	0.324	0.130
-303.822	-63.874	-0.292	-0.120
-302.807	168.639	0.041	-0.058
-301.793	21.594	-0.101	-0.082
-300.778	-52.282	0.399	-0.185
-299.764	-200.000	0.025	0.182
-298.749	-93.793	0.244	-0.067
-297.735	641.973	-0.098	0.249
-296.720	-165.097	0.123	-0.005
-295.705	74.110	0.152	-0.159
-294.691	-15.254	0.180	0.115
-293.676	-200.000	-0.048	-0.229
-292.662	-61.874	0.334	-0.140
-291.647	-122.839	0.039	0.006
-290.632	232.551	0.108	0.178
-289.618	-103.084	0.050	0.012
-288.603	126.439	-0.040	0.050
-287.589	-191.542	0.093	-0.001
-286.574	6.713	0.020	0.015
-285.559	49.062	-0.171	0.161
-284.545	159.790	0.099	0.138
-283.530	8.498	0.072	0.054
-282.516	475.873	0.059	-0.133
-281.501	65.701	-0.148	0.150
-280.486	-83.825	0.258	0.082
-279.472	-74.288	-0.178	0.064
-278.457	-200.000	0.053	-0.287
-277.443	-46.786	0.450	0.220
-276.428	-146.610	0.202	0.018
-275.413	219.224	-0.328	-0.524
-274.399	-34.366	-0.167	-0.091
-273.384	18.682	0.144	0.115
-272.370	800.000	0.082	-0.259
-271.355	-187.610	0.071	-0.001
-270.340	135.292	0.118	0.153
-269.326	800.000	-0.111	-0.353
-268.311	-47.145	0.118	0.058
-267.297	261.210	-0.102	0.176
-266.282	800.000	-0.050	0.217
-265.267	800.000	0.085	0.297
-264.253	3.634	-0.151	0.110
-263.238	-139.009	-0.437	-0.047
-262.224	-98.056	-0.199	0.051
-261.209	800.000	0.057	-0.201
-260.195	-200.000	-0.044	0.235
-259.180	-7.623	-0.089	-0.060
-258.165	194.445	-0.084	-0.127
-257.151	394.760	0.052	0.108
-256.136	252.189	0.091	-0.154
-255.122	-51.872	-0.031	0.014
-254.107	-72.255	0.051	-0.019
-253.092	-85.950	-0.280	0.087
-252.078	132.891	-0.056	0.072
-251.063	-200.000	0.032	0.211
-250.049	800.000	0.087	0.279
-249.034	-38.675	-0.028	0.015
-248.019	165.734	-0.013	0.019
-247.005	489.140	0.076	0.174
-245.990	25.013	-0.113	-0.094
-244.976	-7.996	-0.136	-0.092
-243.961	-200.000	0.002	-0.043
-242.946	517.277	-0.072	-0.168
-241.932	422.606	-0.040	-0.086
-240.917	167.716	0.077	0.109
-239.903	800.000	-0.091	-0.301
-238.888	-24.712	-0.150	0.089
-237.873	800.000	-0.052	-0.200
-236.859	-63.927	0.188	-0.077
-235.844	65.305	0.154	0.155
-234.830	-121.623	0.045	0.007
-233.815	-134.061	-0.269	0.033
-232.800	97.296	0.278	0.319
-231.786	70.900	-0.040	-0.041
-230.771	-200.000	-0.023	0.121
-229.757	-153.778	0.113	0.008
-228.742	-200.000	0.045	0.266
-227.727	92.668	-0.109	-0.122
-226.713	-200.000	-0.005	-0.261
-225.698	371.179	0.093	0.188
-224.684	-10.154	-0.074	-0.049
-223.669	-200.000	-0.020	-0.148
-222.655	800.000	-0.094	0.279
-221.640	-132.675	-0.267	-0.034
-220.625	520.434	-0.128	0.300
-219.611	100.616	-0.173	0.200
-218.596	-148.381	-0.124	0.010
-217.582	523.384	0.020	0.047
-216.567	-95.544	-0.372	0.099
-215.552	-200.000	0.000	-0.272
-214.538	800.000	-0.029	0.106
-213.523	-200.000	-0.012	0.445
-212.509	597.281	-0.121	-0.299
-211.494	120.885	0.134	-0.167
-210.479	-200.000	-0.043	-0.193
-209.465	355.751	0.079	0.157
-208.450	-126.285	0.051	0.008
-207.436	189.587	-0.167	-0.249
-206.421	-58.760	0.333	-0.144
-205.406	130.392	-0.201	0.256
-204.392	29.869	-0.148	-0.126
-203.377	800.000	0.049	-0.215
-202.363	-64.095	0.100	-0.041
-201.348	-183.013	0.024	-0.000
-200.333	-137.968	0.121	-0.013
-199.319	284.734	0.039	0.070
-198.304	250.880	0.026	0.044
-197.290	-200.000	0.035	-0.251
-196.275	-105.645	0.280	-0.063
-195.260	107.434	-0.151	0.179
-194.246	-200.000	-0.052	0.317
-193.231	-61.081	-0.058	0.024
-192.217	-90.651	-0.288	0.083
-191.202	246.794	0.039	0.066
-190.187	610.143	-0.061	-0.152
-189.173	-1.541	-0.194	0.136
-188.158	216.560	0.061	0.097
-187.144	-90.919	-0.208	0.059
-186.129	-140.169	0.254	-0.027
-185.114	112.299	0.068	0.082
-184.100	189.935	-0.054	-0.080
-183.085	112.605	0.323	0.389
-182.071	212.833	0.083	0.130
-181.056	254.659	-0.060	-0.102
-180.042	143.065	-0.117	-0.155
-179.027	114.066	-0.055	-0.067
-178.012	-121.140	0.289	-0.048
-176.998	-160.038	-0.177	-0.010
-175.983	233.836	0.069	-0.114
-174.969	110.027	0.109	0.131
-173.954	-73.906	-0.249	0.090
-172.939	-200.000	-0.014	-0.352
-171.925	88.289	0.359	0.396
-170.910	121.632	-0.131	0.162
-169.896	-53.431	0.247	-0.113
-168.881	299.577	0.159	0.291
-167.866	-200.000	0.310	-0.002
-166.852	257.419	-0.054	0.092
-165.837	-93.374	0.341	-0.094
-164.823	-149.386	-0.086	-0.007
-163.808	-126.508	0.228	-0.034
-162.793	800.000	-0.070	-0.278
-161.779	2.568	-0.196	0.141
-160.764	-56.284	-0.281	-0.124
-159.750	-50.160	-0.221	0.104
-158.735	800.000	-0.071	0.208
-157.720	-117.055	0.179	0.032
-156.706	638.060	-0.085	-0.214
-155.691	-77.077	0.320	-0.111
-154.677	212.015	-0.070	-0.109
-153.662	-66.586	0.141	0.055
-152.647	28.091	0.057	0.048
-151.633	-200.000	0.008	-0.116
-150.618	-40.348	0.210	-0.108
-149.604	-23.218	-0.157	-0.094
-148.589	-200.000	-0.008	-0.176
-147.574	138.494	0.172	0.225
-146.560	163.846	0.166	-0.232
-145.545	-200.000	0.055	-0.322
-144.531	191.429	-0.200	0.300
-143.516	-9.362	0.123	0.082
-142.502	33.431	-0.139	-0.120
-141.487	-161.454	0.399	0.020
-140.472	95.747	0.104	0.118
-139.458	33.624	-0.227	0.196
-138.443	800.000	-0.124	-0.360
-137.429	183.422	-0.015	-0.022
-136.414	-92.837	-0.030	0.008
-135.399	800.000	0.088	0.281
-134.385	281.818	-0.151	-0.270
-133.370	-110.345	-0.176	-0.036
-132.356	-22.056	0.184	-0.111
-131.341	800.000	-0.091	-0.339
-130.326	800.000	-0.059	-0.203
-129.312	175.205	0.206	-0.297
-128.297	-159.905	0.186	0.010
-127.283	-200.000	-0.008	0.156
-126.268	800.000	0.118	-0.332
-125.253	-75.287	0.130	0.046
-124.239	-30.688	-0.114	-0.064
-123.224	360.850	-0.154	0.307
-122.210	599.728	0.141	0.348
-121.195	52.838	0.232	0.220
-120.180	22.273	0.212	0.172
-119.166	75.496	-0.164	0.172
-118.151	-200.000	0.034	-0.291
-117.137	-161.303	0.414	0.021
-116.122	60.651	-0.139	-0.137
-115.107	-60.531	-0.241	-0.102
-114.093	-200.000	-0.006	0.035
-113.078	-73.748	-0.245	0.088
-112.064	-95.127	-0.107	-0.029
-111.049	-117.493	-0.196	-0.035
-110.034	-200.000	-0.043	-0.266
-109.020	3.239	0.356	0.257
-108.005	-200.000	-0.076	0.362
-106.991	243.825	-0.100	0.167
-105.976	-134.832	0.285	-0.034
-104.962	-95.301	0.200	0.053
-103.947	-69.312	0.155	0.059
-102.932	-153.399	0.612	0.042
-101.918	22.433	0.177	-0.144
-100.903	800.000	-0.049	0.142
-99.889	-200.000	0.008	-0.126
-98.874	-11.877	0.177	0.115
-97.859	-200.000	-0.001	-0.318
-96.845	-2.981	0.380	0.263
-95.830	228.512	-0.107	-0.173
-94.816	583.460	0.070	0.170
-93.801	800.000	0.037	0.117
-92.786	-47.880	0.150	-0.072
-91.772	-111.042	0.404	0.082
-90.757	-175.159	-0.214	0.006
-89.743	-152.260	0.282	0.020
-88.728	-200.000	-0.073	0.351
-87.713	-69.809	-0.015	0.006
-86.699	-73.942	-0.215	-0.077
-85.684	-200.000	0.051	0.251
-84.670	419.563	-0.179	0.380
-83.655	-89.955	0.176	-0.051
-82.640	-85.677	0.114	-0.035
-81.626	17.226	0.129	0.102
-80.611	800.000	-0.061	-0.222
-79.597	41.653	-0.219	-0.196
-78.582	49.966	0.126	0.118
-77.567	76.534	-0.096	0.101
-76.553	800.000	-0.059	0.166
-75.538	733.310	0.107	-0.284
-74.524	235.494	-0.050	0.082
-73.509	410.998	-0.114	-0.239
-72.494	-108.326	-0.058	-0.012
-71.480	124.224	0.090	0.112
-70.465	-115.847	0.157	-0.029
-69.451	230.204	-0.156	-0.253
-68.436	246.291	-0.057	0.095
-67.422	302.097	-0.112	-0.205
-66.407	800.000	-0.115	-0.386
-65.392	397.448	-0.051	-0.106
-64.378	-14.112	-0.075	0.048
-63.363	210.378	-0.131	0.203
-62.349	339.470	-0.078	0.150
-61.334	30.636	-0.836	-0.709
-60.319	17.544	0.277	0.218
-59.305	800.000	-0.146	-0.628
-58.290	562.547	0.379	0.907
-57.276	759.864	0.712	1.912
-56.261	-200.000	94.544	570.402
-55.246	651.891	1374.800	3489.489
-54.232	189.685	2582.046	3835.461
-53.217	124.635	2193.278	2733.925
-52.203	46.533	1729.901	1589.782
-51.188	38.896	1540.034	1362.486
-50.173	36.588	1512.517	1322.322
-49.159	55.325	1562.240	1496.432
-48.144	59.318	1580.894	1541.962
-47.130	39.396	1536.874	1362.933
-46.115	36.057	1521.791	1326.569
-45.100	35.944	1517.919	1322.361
-44.086	35.901	1516.364	1320.660
-43.071	35.852	1514.310	1318.487
-42.057	35.790	1513.147	1316.996
-41.042	35.845	1511.821	1316.163
-40.027	35.912	1509.868	1314.870
-39.013	35.814	1508.432	1312.898
-37.998	35.895	1507.082	1312.221
-36.984	35.847	1506.333	1311.195
-35.969	35.763	1505.449	1309.801
-34.954	35.691	1504.215	1308.184
-33.940	35.820	1501.920	1307.008
-32.925	35.881	1500.486	1306.128
-31.911	35.989	1499.179	1305.668
-30.896	35.999	1497.931	1304.598
-29.881	35.933	1496.888	1303.187
-28.867	35.986	1495.086	1301.925
-27.852	36.044	1493.633	1301.002
-26.838	35.877	1492.307	1298.670
-25.823	35.996	1490.135	1297.529
-24.809	35.851	1489.712	1296.130
-23.794	35.858	1487.727	1294.400
-22.779	35.908	1486.507	1293.622
-21.765	35.891	1485.648	1292.711
-20.750	35.935	1484.167	1291.669
-19.736	35.872	1483.258	1290.403
-18.721	35.901	1482.689	1290.050
-17.706	36.038	1480.535	1289.040
-16.692	35.850	1479.911	1287.190
-15.677	35.826	1479.675	1286.772
-14.663	35.880	1478.498	1286.062
-13.648	35.862	1477.090	1284.667
-12.633	35.735	1476.754	1283.470
-11.619	35.835	1475.461	1282.963
-10.604	35.829	1474.535	1282.065
-9.590	35.879	1473.666	1281.596
-8.575	35.959	1472.970	1281.472
-7.560	35.858	1472.051	1279.952
-6.546	35.876	1471.047	1279.146
-5.531	35.827	1470.091	1277.935
-4.517	35.849	1468.935	1277.027
-3.502	35.738	1468.481	1275.847
-2.487	35.767	1467.447	1275.089
-1.473	35.849	1466.112	1274.421
-0.458	35.856	1464.595	1273.100
0.556	35.321	1455.146	1261.386
1.571	31.919	1428.063	1215.794
2.586	27.728	1365.800	1136.633
3.600	25.645	1282.244	1054.808
4.615	23.950	1235.506	1006.685
5.629	20.577	1178.219	941.686
6.644	12.203	1093.426	831.575
7.659	5.789	1051.857	768.534
8.673	4.889	1046.339	760.048
9.688	4.924	1042.952	757.691
10.702	4.921	1041.791	756.763
11.717	4.866	1040.091	755.196
12.731	7.013	1041.986	766.926
13.746	14.450	1052.811	811.137
14.761	19.790	1058.138	841.215
15.775	19.304	1057.164	838.003
16.790	18.165	1054.873	830.582
17.804	17.273	1052.702	824.474
18.819	16.240	1050.817	817.921
19.834	15.880	1049.422	815.021
20.848	15.472	1048.660	812.387
21.863	15.435	1048.036	811.651
22.877	15.085	1046.955	809.049
23.892	14.877	1046.376	807.526
24.907	14.869	1045.342	806.620
25.921	14.861	1045.298	806.474
26.936	14.917	1043.517	805.302
27.950	15.038	1042.654	805.142
28.965	15.046	1041.531	804.242
29.980	14.939	1040.820	803.112
30.994	15.200	1039.595	803.347
32.009	15.324	1038.196	802.785
33.023	15.273	1037.871	802.222
34.038	15.198	1037.210	801.281
35.053	15.228	1036.191	800.565
36.067	15.039	1035.415	798.992
37.082	14.878	1035.050	797.873
38.096	14.923	1034.283	797.424
39.111	15.083	1032.951	797.090
40.126	15.078	1032.365	796.542
41.140	15.166	1031.206	795.998
42.155	15.044	1029.599	794.109
43.169	14.694	1029.113	792.000
44.184	14.751	1028.169	791.474
45.199	14.766	1026.835	790.451
46.213	14.808	1026.229	790.114
47.228	14.855	1024.919	789.254
48.242	14.892	1024.533	789.064
49.257	15.049	1023.323	788.800
50.271	15.144	1022.182	788.299
51.286	15.058	1021.265	787.116
52.301	15.067	1020.788	786.720
53.315	15.050	1020.113	786.053
54.330	15.064	1018.865	785.086
55.344	14.923	1018.321	783.939
56.359	14.870	1017.313	782.846
57.374	14.805	1016.395	781.765
58.388	14.766	1015.996	781.208
59.403	14.836	1014.843	780.580
60.417	14.735	1014.167	779.519
61.432	14.699	1013.775	778.977
62.447	14.854	1012.678	778.788
63.461	14.750	1011.548	777.369
64.476	14.662	1011.270	776.674
65.490	14.715	1009.822	775.739
66.505	14.584	1009.271	774.639
67.520	14.601	1008.589	774.127
68.534	14.670	1008.105	774.007
69.549	14.772	1006.935	773.513
70.563	14.781	1006.045	772.801
71.578	14.696	1005.341	771.802
72.593	14.636	1004.669	770.939
73.607	14.548	1003.830	769.819
74.622	14.617	1002.621	769.142
75.636	14.570	1001.942	768.337
76.651	14.613	1000.823	767.609
77.666	14.557	1000.517	767.048
78.680	14.524	999.904	766.362
79.695	14.618	999.049	766.069
80.709	14.605	998.753	765.715
81.724	14.706	997.725	765.323
82.739	14.828	997.003	765.259
83.753	14.869	996.384	764.902
84.768	14.901	995.531	764.326
85.782	15.125	994.883	764.784
86.797	15.235	994.334	764.798
87.812	15.072	993.254	763.158
88.826	15.108	992.270	762.496
89.841	15.076	991.618	761.784
90.855	15.015	990.808	760.816
91.870	15.023	990.718	760.714
92.884	15.183	989.248	760.245
93.899	15.072	989.173	759.619
94.914	15.098	988.240	758.953
95.928	15.209	987.468	758.793
96.943	15.145	986.559	757.739
97.957	15.164	985.878	757.234
98.972	15.060	985.069	756.076
99.987	15.081	984.589	755.737
101.001	15.217	983.221	755.233
102.016	15.104	982.730	754.281
103.030	15.119	981.983	753.705
104.045	15.142	980.791	752.830
105.060	15.156	980.012	752.228
106.074	14.990	979.456	750.990
107.089	14.940	978.182	749.719
108.103	14.891	976.931	748.477
109.118	14.735	976.175	747.134
110.133	14.731	975.665	746.660
111.147	14.846	974.366	746.111
112.162	14.663	973.805	744.799
113.176	14.696	972.683	744.022
114.191	14.771	971.929	743.713
115.206	14.876	970.958	743.374
116.220	14.968	970.019	742.994
117.235	14.750	969.583	741.628
118.249	14.810	968.862	741.276
119.264	14.736	968.069	740.277
120.279	14.727	967.206	739.510
121.293	14.716	966.001	738.478
122.308	14.839	964.996	738.184
123.322	14.761	964.772	737.606
124.337	14.696	963.733	736.459
125.352	14.594	962.781	735.217
126.366	14.744	961.433	734.784
127.381	14.597	960.713	733.521
128.395	14.563	959.726	732.552
129.410	14.596	958.930	732.025
130.424	14.713	957.900	731.686
131.439	14.834	957.129	731.562
132.454	14.873	956.689	731.331
133.468	14.863	955.921	730.639
134.483	14.907	955.258	730.258
135.497	14.939	954.668	729.883
136.512	14.927	953.767	729.078
137.527	14.951	952.942	728.486
138.541	14.798	952.360	727.312
139.556	14.907	951.464	727.036
140.570	14.920	950.630	726.391
141.585	14.930	950.441	726.224
142.600	15.022	949.482	725.830
143.614	15.233	948.680	726.063
144.629	15.118	948.297	725.211
145.643	15.132	947.562	724.645
146.658	15.254	946.413	724.226
147.673	15.210	944.998	722.893
148.687	15.071	944.547	721.885
149.702	14.883	943.662	720.331
150.716	14.937	942.534	719.641
151.731	14.827	941.890	718.612
152.746	14.879	941.271	718.298
153.760	14.939	940.481	717.890
154.775	15.057	939.322	717.450
155.789	15.014	939.113	717.040
156.804	15.103	937.896	716.429
157.819	15.055	937.251	715.668
158.833	15.162	936.581	715.551
159.848	15.195	936.216	715.348
160.862	15.309	935.165	714.968
161.877	15.244	934.775	714.330
162.892	14.990	934.368	712.873
163.906	14.990	933.008	711.774
164.921	14.994	932.049	710.994
165.935	14.931	931.334	710.121
166.950	14.879	930.172	708.952
167.964	15.175	929.044	709.282
168.979	15.136	928.064	708.306
169.994	15.109	927.241	707.502
171.008	15.075	926.617	706.819
172.023	15.026	926.366	706.359
173.037	15.141	925.405	706.047
174.052	15.260	924.643	705.904
175.067	15.240	923.774	705.094
176.081	15.105	922.737	703.672
177.096	15.175	921.639	703.066
178.110	14.922	921.385	701.750
179.125	15.189	920.326	702.001
180.140	15.042	919.927	701.017
181.154	15.149	918.940	700.650
182.169	15.217	918.268	700.363
183.183	15.303	917.423	700.015
184.198	15.225	917.222	699.474
185.213	15.412	916.463	699.612
186.227	15.368	915.666	698.760
187.242	15.453	915.221	698.710
188.256	15.482	914.460	698.187
189.271	15.386	913.744	697.180
190.286	15.674	912.760	697.563
191.300	15.340	911.992	695.532
192.315	15.067	911.555	694.004
193.329	14.969	910.652	692.849
194.344	15.044	910.040	692.632
195.359	15.050	909.398	692.106
196.373	15.261	909.023	692.632
197.388	15.365	908.411	692.536
198.402	15.359	908.192	692.283
199.417	15.463	907.690	692.268
200.432	15.539	907.292	692.214
201.446	15.641	906.670	692.099
202.461	15.643	906.513	691.926
203.475	15.822	905.655	691.947
204.490	15.809	905.052	691.372
205.504	15.644	903.920	689.766
206.519	15.531	903.280	688.754
207.534	15.490	902.827	688.183
208.548	15.555	902.208	687.915
209.563	15.408	901.670	686.843
210.577	15.584	900.516	686.623
211.592	15.534	899.759	685.778
212.607	15.722	899.398	686.212
213.621	15.743	898.917	685.870
214.636	15.859	898.052	685.622
215.650	15.804	896.992	684.528
216.665	15.743	896.603	683.920
217.680	15.605	896.449	683.183
218.694	15.821	895.792	683.500
219.709	15.860	895.467	683.351
220.723	15.877	894.677	682.755
221.738	15.864	894.003	682.126
222.753	15.938	893.103	681.678
223.767	15.882	892.377	680.838
224.782	15.791	891.972	680.103
225.796	15.908	891.259	679.970
226.811	15.912	890.988	679.721
227.826	15.928	890.198	679.121
228.840	15.888	889.127	678.083
229.855	15.887	888.600	677.618
230.869	15.910	888.096	677.265
231.884	15.814	887.415	676.300
232.899	15.916	886.167	675.699
233.913	15.763	885.979	674.883
234.928	15.679	885.206	673.896
235.942	15.743	884.243	673.358
236.957	15.670	883.694	672.590
237.972	15.806	882.883	672.457
238.986	15.848	882.377	672.180
240.001	15.791	881.676	671.358
241.015	15.865	881.246	671.268
242.030	15.934	880.450	670.877
243.045	15.991	879.935	670.651
244.059	15.888	879.526	669.870
245.074	15.993	878.692	669.595
246.088	15.929	878.234	668.931
247.103	16.003	877.617	668.695
248.117	16.081	877.264	668.678
249.132	16.119	876.950	668.529
250.147	16.294	876.019	668.452
251.161	16.324	875.660	668.240
252.176	16.385	874.848	667.799
253.190	16.441	874.201	667.469
254.205	16.583	873.788	667.654
255.220	16.567	873.135	667.035
256.234	16.583	872.299	666.400
257.249	16.520	871.725	665.654
258.263	16.586	871.195	665.449
259.278	16.521	870.536	664.630
260.293	16.564	870.306	664.567
261.307	16.641	870.070	664.630
262.322	16.611	869.313	663.874
263.336	16.646	868.496	663.329
264.351	16.628	868.092	662.891
265.366	16.489	867.684	661.977
266.380	16.687	867.054	662.212
267.395	16.797	866.005	661.782
268.409	16.594	865.354	660.435
269.424	16.645	864.435	659.874
270.439	16.654	863.713	659.300
271.453	16.694	862.864	658.749
272.468	16.542	862.299	657.669
273.482	16.595	861.593	657.276
274.497	16.604	861.028	656.824
275.512	16.712	860.313	656.640
276.526	16.600	859.913	655.839
277.541	16.677	859.108	655.467
278.555	16.820	858.627	655.594
279.570	16.750	858.177	654.923
280.585	16.766	858.039	654.820
281.599	16.934	857.389	654.916
282.614	16.715	856.326	653.201
283.628	16.681	856.158	652.885
284.643	16.597	855.406	651.931
285.657	16.860	854.610	652.277
286.672	16.794	854.450	651.842
287.687	16.717	853.898	651.069
288.701	16.799	853.144	650.752
289.716	16.856	852.463	650.393
290.730	16.906	852.046	650.208
291.745	16.895	851.244	649.496
292.760	16.843	850.694	648.822
293.774	16.962	850.201	648.843
294.789	17.102	849.605	648.865
295.803	17.072	848.949	648.192
296.818	16.932	848.625	647.354
297.833	16.977	847.783	646.825
298.847	16.971	847.202	646.301
299.862	16.915	846.618	645.586
300.876	17.102	845.781	645.603
301.891	17.005	845.173	644.712
302.906	17.093	844.549	644.515
303.920	17.152	843.996	644.257
304.935	17.166	843.215	643.660
305.949	17.182	842.751	643.307
306.964	17.310	842.336	643.419
307.979	17.171	841.506	642.200
308.993	17.211	841.107	641.992
310.008	17.255	840.598	641.713
311.022	17.335	840.222	641.671
312.037	17.325	839.364	640.922
313.052	17.276	838.877	640.310
314.066	17.122	838.072	639.056
315.081	17.151	837.644	638.784
316.095	17.106	837.331	638.318
317.110	17.157	836.559	637.864
318.125	17.157	835.972	637.364
319.139	17.095	835.847	636.978
320.154	17.110	834.764	636.153
321.168	17.216	834.250	636.101
322.183	17.267	833.908	635.973
323.197	17.254	833.503	635.560
324.212	17.346	832.773	635.292
325.227	17.432	831.848	634.849
326.241	17.372	831.801	634.535
327.256	17.331	831.121	633.807
328.270	17.274	830.575	633.122
329.285	17.195	830.283	632.550
330.300	17.095	829.591	631.595
331.314	17.370	828.792	631.953
332.329	17.365	828.182	631.411
333.343	17.424	827.574	631.113
334.358	17.455	827.383	631.023
335.373	17.380	826.761	630.216
336.387	17.349	826.396	629.769
337.402	17.534	825.733	629.893
338.416	17.437	825.175	629.053
339.431	17.425	824.757	628.634
340.446	17.505	824.517	628.690
341.460	17.677	823.711	628.655
342.475	17.612	823.125	627.910
343.489	17.781	822.346	627.883
344.504	17.787	821.973	627.565
345.519	17.778	821.524	627.135
346.533	17.872	821.034	627.049
347.548	17.835	820.559	626.496
348.562	17.957	819.862	626.355
349.577	17.672	819.189	624.741
350.592	17.546	818.578	623.761
351.606	17.719	817.729	623.692
352.621	17.477	817.875	622.859
353.635	17.640	817.290	622.956
354.650	17.689	817.141	622.965
355.665	17.665	816.570	622.390
356.679	17.706	816.242	622.233
357.694	17.711	815.457	621.597
358.708	17.749	814.749	621.142
359.723	17.802	814.311	620.945
360.738	17.687	813.825	620.103
361.752	17.807	813.297	620.080
362.767	17.816	813.043	619.864
363.781	17.928	813.004	620.187
364.796	17.942	812.399	619.722
365.810	18.120	811.707	619.786
366.825	18.076	811.633	619.514
367.840	18.168	811.043	619.343
368.854	18.162	810.984	619.220
369.869	18.059	810.043	618.075
370.883	18.085	809.800	617.929
371.898	17.921	809.317	616.914
372.913	18.094	808.613	616.945
373.927	18.133	808.498	616.943
374.942	18.130	807.484	616.103
375.956	18.216	806.539	615.638
376.971	18.115	806.029	614.833
377.986	18.273	805.407	614.870
379.000	18.417	805.080	615.085
380.015	18.266	804.646	614.156
381.029	18.408	804.163	614.241
382.044	18.378	803.352	613.460
383.059	18.416	802.926	613.219
384.073	18.418	802.385	612.756
385.088	18.317	802.213	612.210
386.102	18.339	801.533	611.716
387.117	18.290	800.869	610.979
388.132	18.248	800.562	610.541
389.146	18.224	799.681	609.730
390.161	18.356	799.329	609.878
391.175	18.360	799.185	609.727
392.190	18.342	799.077	609.527
393.205	18.525	798.351	609.573
394.219	18.347	797.831	608.486
395.234	18.254	797.285	607.687
396.248	18.339	796.862	607.612
397.263	18.332	796.064	606.924
398.278	18.211	795.825	606.259
399.292	18.205	795.337	605.815
400.307	18.323	794.865	605.816
401.321	18.271	794.456	605.270
402.336	18.294	794.295	605.175
403.350	18.413	793.632	605.038
404.365	18.391	793.267	604.627
405.380	18.407	793.207	604.583
406.394	18.567	792.508	604.560
407.409	18.554	792.197	604.226
408.423	18.685	791.614	604.187
409.438	18.668	791.332	603.860
410.453	18.694	790.916	603.581
411.467	18.907	790.007	603.582
412.482	18.853	790.002	603.334
413.496	18.827	789.425	602.750
414.511	18.915	789.162	602.805
415.526	18.819	789.150	602.404
416.540	18.923	788.821	602.464
417.555	18.909	787.857	601.626
418.569	18.956	787.162	601.208
419.584	18.958	786.869	600.937
420.599	18.853	786.847	600.499
421.613	154.219	1367.597	1787.743
422.628	133.267	1452.196	1787.876
