DTS Sentinel unit serial number:	SN413079Multiplexer serial number:	ORYXHardware model number:	OX4-SRSoftware version number:	ORYX F/W v4.00 Oryx Data Collector v3.7.2.0data status	okinstallation	princeton_trtdifferential loss correction	single-endedforward channel	channel 3reverse channel	N/Adate	2019/09/10time	22:10:11forward acquisition time	60.00reverse acquisition time	0.00gamma	496.2192k internal	0.2330k external	0.2330temperature offset calibration	0.9922default loss term (dB/km)	0.3790temperature slope calibration	1.0000multiplexer offset coefficient	1.0000multiplexer slope coefficient	1.0000fibre end	0.00T internal ref (°C)	30.56T ext. ref 1 (°C)	-0.32T ext. ref 2 (°C)	23.93length (m)	temperature (°C)	Stokes	anti-Stokes-747.200	-71.289	0.294	0.111
-746.185	781.069	-0.061	0.168
-745.171	703.769	0.105	0.279
-744.156	3.546	0.262	0.192
-743.142	-73.328	0.302	-0.111
-742.127	-163.706	-0.269	0.013
-741.112	78.943	0.212	0.229
-740.098	447.125	-0.164	0.362
-739.083	-103.279	0.438	0.104
-738.069	479.414	-0.111	0.254
-737.054	124.555	-0.056	-0.071
-736.039	-200.000	0.007	-0.141
-735.025	7.126	0.229	-0.172
-734.010	164.604	-0.097	-0.138
-732.996	475.778	0.077	-0.176
-731.981	-56.620	-0.086	0.039
-730.966	-107.442	0.473	-0.105
-729.952	-200.000	-0.027	-0.317
-728.937	-200.000	0.040	0.180
-727.923	-38.980	-0.203	-0.108
-726.908	-92.786	-0.124	-0.035
-725.894	-16.287	0.254	0.162
-724.879	426.456	0.022	-0.047
-723.864	-200.000	-0.083	-0.427
-722.850	84.072	-0.053	-0.059
-721.835	15.005	0.141	0.111
-720.821	37.750	-0.189	-0.169
-719.806	-99.711	-0.179	0.045
-718.791	-34.695	-0.231	0.127
-717.777	218.599	0.112	0.180
-716.762	800.000	0.037	0.123
-715.748	800.000	0.076	-0.241
-714.733	-92.337	-0.375	0.106
-713.718	-72.270	-0.214	0.080
-712.704	625.491	0.034	-0.085
-711.689	-94.123	-0.182	-0.050
-710.675	-200.000	0.000	-0.012
-709.660	117.086	0.220	0.272
-708.645	-111.448	-0.589	0.121
-707.631	109.724	0.073	0.087
-706.616	-200.000	0.040	0.248
-705.602	356.345	-0.115	0.230
-704.587	-200.000	-0.079	-0.432
-703.572	-200.000	0.034	-0.289
-702.558	372.090	0.049	-0.101
-701.543	237.912	0.158	-0.264
-700.529	-45.264	0.234	-0.117
-699.514	70.538	0.123	-0.128
-698.499	-69.469	0.270	-0.104
-697.485	-34.960	-0.193	0.106
-696.470	-200.000	-0.034	0.193
-695.456	446.820	0.151	0.334
-694.441	346.445	0.048	0.096
-693.426	0.174	-0.124	-0.089
-692.412	-71.812	-0.211	-0.079
-691.397	346.742	-0.097	0.192
-690.383	84.131	-0.016	-0.018
-689.368	-111.869	0.212	-0.043
-688.354	800.000	-0.080	-0.277
-687.339	251.651	-0.150	0.257
-686.324	41.171	-0.201	-0.182
-685.310	163.625	-0.045	-0.064
-684.295	-81.148	-0.323	0.107
-683.281	89.785	0.122	-0.137
-682.266	-118.020	0.339	0.061
-681.251	607.420	-0.049	-0.123
-680.237	800.000	0.036	-0.119
-679.222	-177.165	0.159	0.004
-678.208	-73.932	0.139	-0.051
-677.193	-29.929	0.126	-0.072
-676.178	268.135	-0.123	0.217
-675.164	-81.225	0.166	-0.055
-674.149	800.000	0.022	-0.090
-673.135	105.250	-0.214	-0.254
-672.120	-94.463	0.036	-0.010
-671.105	109.600	0.138	0.166
-670.091	-200.000	0.030	-0.179
-669.076	105.048	-0.196	-0.233
-668.062	281.216	0.226	-0.407
-667.047	167.999	-0.059	-0.084
-666.032	718.085	0.068	-0.180
-665.018	-200.000	-0.042	-0.191
-664.003	-195.951	-0.174	0.001
-662.989	-24.470	-0.463	0.277
-661.974	220.616	-0.076	0.123
-660.959	30.369	-0.146	-0.126
-659.945	534.424	-0.193	0.459
-658.930	486.674	0.084	-0.191
-657.916	430.380	-0.116	-0.252
-656.901	115.874	-0.129	0.159
-655.886	-24.886	-0.284	0.169
-654.872	-200.000	-0.005	-0.239
-653.857	-200.000	0.007	-0.168
-652.843	195.884	-0.144	-0.219
-651.828	151.021	-0.135	-0.184
-650.814	288.203	-0.079	0.143
-649.799	565.294	0.097	0.235
-648.784	53.809	-0.126	0.122
-647.770	-200.000	0.040	-0.407
-646.755	-144.695	0.129	-0.012
-645.741	800.000	0.073	0.240
-644.726	-110.009	-0.312	-0.065
-643.711	-200.000	0.061	0.460
-642.697	128.122	0.344	-0.439
-641.682	-69.935	0.022	0.009
-640.668	-113.932	-0.436	0.085
-639.653	-141.414	-0.338	0.034
-638.638	800.000	-0.079	-0.280
-637.624	-200.000	0.005	-0.051
-636.609	1.483	-0.055	-0.040
-635.595	-126.496	-0.194	-0.029
-634.580	-200.000	-0.025	-0.314
-633.565	35.455	-0.088	-0.078
-632.551	-200.000	0.028	0.219
-631.536	-101.802	0.135	0.033
-630.522	-103.130	-0.155	-0.037
-629.507	-127.764	-0.198	0.029
-628.492	-20.481	0.113	-0.070
-627.478	-99.880	-0.296	-0.074
-626.463	168.016	0.060	0.086
-625.449	800.000	0.074	-0.252
-624.434	-62.664	0.460	0.191
-623.419	790.983	0.058	-0.160
-622.405	-200.000	-0.024	-0.113
-621.390	487.957	0.031	-0.071
-620.376	-36.597	-0.082	0.044
-619.361	39.709	0.127	0.114
-618.346	-25.037	-0.234	-0.139
-617.332	-200.000	0.006	-0.056
-616.317	-200.000	0.031	-0.205
-615.303	-33.525	-0.052	-0.029
-614.288	-200.000	0.008	-0.174
-613.273	-91.179	-0.358	0.103
-612.259	-135.713	-0.195	-0.023
-611.244	-200.000	-0.036	-0.168
-610.230	-115.624	0.344	0.065
-609.215	3.317	-0.254	0.185
-608.201	181.904	0.178	0.263
-607.186	-129.774	-0.320	-0.044
-606.171	-12.382	-0.155	0.101
-605.157	-9.843	-0.165	0.110
-604.142	-73.805	0.081	-0.029
-603.128	14.646	-0.296	-0.232
-602.113	281.440	-0.079	0.143
-601.098	6.004	0.204	0.151
-600.084	-200.000	-0.009	-0.186
-599.069	-200.000	-0.002	-0.240
-598.055	-190.771	-0.100	-0.001
-597.040	71.384	-0.067	-0.069
-596.025	408.447	0.105	-0.222
-595.011	43.335	-0.240	-0.220
-593.996	119.871	-0.142	-0.176
-592.982	450.574	-0.178	-0.393
-591.967	9.123	-0.176	-0.133
-590.952	-67.860	0.215	0.084
-589.938	-78.983	0.201	0.068
-588.923	-18.379	-0.318	0.199
-587.909	800.000	0.067	-0.220
-586.894	-64.664	-0.155	0.063
-585.879	-86.173	-0.089	-0.027
-584.865	77.591	0.228	-0.243
-583.850	-91.608	-0.286	-0.081
-582.836	391.198	-0.117	0.243
-581.821	269.826	-0.106	0.187
-580.806	-43.561	0.341	0.172
-579.792	118.583	0.079	-0.098
-578.777	-200.000	-0.012	0.101
-577.763	-13.834	-0.227	-0.147
-576.748	-200.000	0.086	0.379
-575.733	25.739	0.150	-0.125
-574.719	-82.877	0.205	0.066
-573.704	61.579	0.130	-0.129
-572.690	800.000	0.095	0.367
-571.675	36.022	-0.136	-0.120
-570.661	-6.217	0.186	0.127
-569.646	-150.381	-0.242	0.019
-568.631	173.188	-0.277	0.399
-567.617	-94.868	-0.137	0.037
-566.602	-157.729	-0.353	-0.021
-565.588	800.000	0.086	0.334
-564.573	128.611	-0.328	0.418
-563.558	800.000	-0.036	-0.100
-562.544	-73.663	-0.232	-0.085
-561.529	-14.887	0.102	-0.065
-560.515	50.009	0.248	0.234
-559.500	800.000	-0.058	0.173
-558.485	-97.106	-0.193	-0.051
-557.471	-19.237	-0.343	-0.213
-556.456	-30.396	0.303	0.172
-555.442	33.966	0.220	-0.192
-554.427	-110.994	-0.146	-0.030
-553.412	-96.879	-0.047	0.012
-552.398	707.671	0.080	-0.211
-551.383	116.544	0.037	0.045
-550.369	-159.222	-0.432	-0.024
-549.354	259.231	-0.161	0.277
-548.339	73.574	-0.094	-0.098
-547.325	-79.466	-0.163	0.055
-546.310	-86.092	0.161	-0.050
-545.296	-139.780	0.074	0.008
-544.281	-56.866	-0.139	-0.061
-543.266	71.230	0.155	-0.161
-542.252	800.000	-0.098	0.310
-541.237	-200.000	0.005	-0.153
-540.223	-71.552	0.313	0.117
-539.208	232.181	-0.068	-0.112
-538.193	-76.497	0.140	0.049
-537.179	-195.133	-0.212	0.002
-536.164	800.000	-0.028	-0.098
-535.150	211.079	-0.122	0.192
-534.135	-42.666	0.201	-0.102
-533.121	-200.000	-0.038	0.368
-532.106	105.504	-0.112	0.132
-531.091	-168.875	0.383	0.014
-530.077	-6.088	-0.287	0.196
-529.062	-200.000	0.007	-0.135
-528.048	-166.924	-0.142	0.006
-527.033	-87.414	0.158	0.048
-526.018	-87.640	-0.048	0.015
-525.004	22.814	-0.365	-0.299
-523.989	405.540	-0.098	0.207
-522.975	-200.000	-0.125	0.000
-521.960	153.486	-0.036	0.049
-520.945	-92.242	-0.179	0.050
-519.931	-71.860	0.201	0.075
-518.916	-67.337	-0.209	0.082
-517.902	800.000	-0.041	-0.133
-516.887	110.815	-0.266	-0.319
-515.872	-46.855	0.053	-0.026
-514.858	487.539	-0.100	0.228
-513.843	44.165	0.061	0.056
-512.829	-64.906	-0.213	-0.086
-511.814	137.424	0.164	-0.214
-510.799	-200.000	0.002	0.330
-509.785	236.610	-0.078	0.129
-508.770	44.831	0.073	0.067
-507.756	-1.864	-0.175	0.123
-506.741	14.753	0.057	-0.044
-505.726	-87.654	-0.143	-0.043
-504.712	800.000	-0.093	0.301
-503.697	-29.636	-0.182	0.103
-502.683	45.927	0.101	0.093
-501.668	-118.289	-0.322	-0.057
-500.653	64.514	0.164	-0.165
-499.639	-144.705	0.180	-0.017
-498.624	-78.561	0.265	-0.091
-497.610	-40.714	-0.257	-0.133
-496.595	-114.737	0.378	0.072
-495.581	-200.000	-0.006	0.155
-494.566	-21.847	0.074	0.045
-493.551	164.931	-0.093	0.131
-492.537	427.497	-0.102	0.219
-491.522	64.962	0.222	0.224
-490.508	58.150	-0.268	-0.262
-489.493	99.214	-0.147	-0.169
-488.478	27.890	-0.170	-0.143
-487.464	4.204	0.120	-0.088
-486.449	-184.214	-0.397	-0.007
-485.435	-150.761	0.454	-0.034
-484.420	-121.156	-0.141	0.024
-483.405	-1.138	-0.191	-0.135
-482.391	172.329	-0.044	-0.062
-481.376	-86.650	0.287	-0.088
-480.362	-200.000	0.027	-0.369
-479.347	-80.362	-0.379	0.126
-478.332	800.000	0.072	-0.216
-477.318	181.257	-0.079	-0.115
-476.303	336.394	-0.071	-0.137
-475.289	-200.000	0.026	-0.381
-474.274	-183.720	0.487	0.008
-473.259	-97.175	0.340	0.089
-472.245	247.381	0.187	0.315
-471.230	439.634	-0.062	-0.135
-470.216	149.991	0.101	-0.136
-469.201	48.615	0.066	0.062
-468.186	392.682	0.157	-0.324
-467.172	-200.000	-0.021	-0.202
-466.157	23.291	0.105	0.086
-465.143	-39.638	-0.315	-0.164
-464.128	-186.801	0.243	0.003
-463.113	91.118	-0.129	0.144
-462.099	-200.000	-0.331	-0.001
-461.084	-90.452	0.220	-0.063
-460.070	-200.000	0.007	-0.204
-459.055	800.000	-0.030	0.119
-458.040	800.000	-0.083	0.340
-457.026	540.378	0.114	0.271
-456.011	575.583	-0.168	0.408
-454.997	-140.187	0.126	-0.013
-453.982	51.945	0.187	0.177
-452.968	-6.596	-0.104	-0.070
-451.953	800.000	0.013	0.051
-450.938	221.247	-0.187	-0.299
-449.924	-6.507	0.182	-0.123
-448.909	157.788	-0.149	0.205
-447.895	800.000	-0.024	-0.076
-446.880	-200.000	0.006	-0.227
-445.865	-98.096	0.145	0.037
-444.851	235.508	0.154	-0.254
-443.836	800.000	-0.036	-0.158
-442.822	-95.410	0.254	-0.068
-441.807	-103.590	-0.058	0.013
-440.792	800.000	-0.040	0.142
-439.778	440.714	-0.117	0.254
-438.763	19.786	-0.248	0.199
-437.749	800.000	-0.081	0.324
-436.734	-2.289	0.030	0.021
-435.719	30.521	-0.042	0.035
-434.705	127.128	-0.229	0.290
-433.690	800.000	0.018	-0.053
-432.676	-95.695	-0.293	-0.078
-431.661	-4.896	0.302	-0.207
-430.646	-102.723	-0.259	-0.061
-429.632	312.012	0.076	-0.142
-428.617	-43.066	-0.182	0.092
-427.603	18.090	0.094	0.075
-426.588	-200.000	0.000	-0.146
-425.573	-200.000	-0.039	-0.345
-424.559	190.948	-0.138	0.206
-423.544	-81.896	0.373	0.121
-422.530	-200.000	0.025	0.206
-421.515	53.156	-0.288	-0.274
-420.500	-200.000	0.016	-0.129
-419.486	590.606	0.028	0.068
-418.471	192.126	0.240	-0.360
-417.457	-29.781	0.178	-0.101
-416.442	800.000	0.024	0.077
-415.428	-112.186	-0.077	-0.015
-414.413	543.491	0.105	-0.248
-413.398	302.460	0.030	-0.055
-412.384	152.015	-0.143	-0.194
-411.369	-92.216	0.105	0.029
-410.355	-76.321	0.329	0.115
-409.340	800.000	0.067	0.228
-408.325	-68.852	-0.278	-0.107
-407.311	800.000	-0.175	-0.533
-406.296	296.966	-0.128	0.233
-405.282	173.934	-0.162	0.232
-404.267	456.251	-0.060	0.132
-403.252	-200.000	0.000	0.157
-402.238	-140.516	0.245	0.025
-401.223	202.957	0.067	0.103
-400.209	30.555	-0.198	-0.168
-399.194	-200.000	0.021	0.118
-398.179	-86.757	0.025	0.008
-397.165	-92.127	-0.109	0.031
-396.150	11.240	0.194	-0.148
-395.136	155.623	0.072	-0.098
-394.121	-49.106	0.237	0.112
-393.106	-112.534	0.118	-0.023
-392.092	65.793	0.165	0.166
-391.077	800.000	0.057	-0.205
-390.063	800.000	0.042	0.158
-389.048	-84.599	0.068	-0.021
-388.033	-200.000	0.011	-0.102
-387.019	18.260	0.133	0.105
-386.004	-117.804	-0.198	-0.035
-384.990	-145.868	0.383	0.034
-383.975	108.553	-0.081	-0.096
-382.960	-60.090	-0.118	-0.050
-381.946	-13.584	-0.344	-0.221
-380.931	494.660	0.048	0.109
-379.917	-200.000	0.042	-0.245
-378.902	-12.709	0.302	0.195
-377.888	-41.088	0.216	0.111
-376.873	800.000	0.044	-0.136
-375.858	364.385	-0.026	-0.051
-374.844	264.215	0.111	-0.192
-373.829	31.243	0.458	-0.390
-372.815	150.251	-0.085	0.114
-371.800	695.705	0.088	0.229
-370.785	439.419	-0.055	0.120
-369.771	800.000	0.122	0.403
-368.756	-62.499	-0.165	0.068
-367.742	-129.259	0.161	-0.022
-366.727	-200.000	0.003	0.075
-365.712	239.543	0.090	-0.149
-364.698	-200.000	-0.001	-0.025
-363.683	240.652	-0.149	-0.247
-362.669	-186.696	-0.348	0.005
-361.654	-200.000	-0.015	-0.210
-360.639	83.080	0.243	-0.262
-359.625	800.000	-0.046	0.152
-358.610	-92.799	-0.099	0.028
-357.596	800.000	-0.046	0.151
-356.581	61.089	-0.048	0.047
-355.566	85.636	0.095	0.103
-354.552	-102.674	0.145	-0.034
-353.537	-182.770	0.102	0.002
-352.523	800.000	-0.013	0.046
-351.508	72.534	0.228	0.235
-350.493	153.654	-0.127	0.172
-349.479	-200.000	-0.015	0.203
-348.464	216.944	-0.044	0.069
-347.450	287.245	0.029	-0.053
-346.435	152.270	-0.098	-0.133
-345.420	291.492	-0.124	0.224
-344.406	161.302	0.101	-0.140
-343.391	-26.035	0.080	-0.047
-342.377	800.000	0.072	-0.244
-341.362	-129.694	0.174	-0.024
-340.348	-132.889	0.265	0.033
-339.333	800.000	-0.053	0.217
-338.318	262.119	0.029	0.050
-337.304	-200.000	-0.010	0.228
-336.289	-17.628	0.143	-0.089
-335.275	319.903	0.038	0.071
-334.260	-193.816	0.104	0.001
-333.245	38.589	0.295	0.260
-332.231	396.653	0.037	0.076
-331.216	800.000	0.048	-0.188
-330.202	-102.321	-0.249	0.059
-329.187	444.703	0.101	0.219
-328.172	-200.000	0.026	0.130
-327.158	-80.375	-0.224	-0.074
-326.143	-68.769	0.481	-0.184
-325.129	-3.795	0.166	-0.114
-324.114	553.236	0.011	-0.027
-323.099	-136.846	0.429	-0.049
-322.085	-34.099	0.152	-0.083
-321.070	214.896	0.035	-0.054
-320.056	-163.277	0.066	-0.003
-319.041	-200.000	0.055	-0.531
-318.026	800.000	-0.054	0.160
-317.012	458.848	-0.055	0.121
-315.997	-125.615	-0.180	-0.027
-314.983	99.547	-0.107	0.123
-313.968	-22.787	0.137	-0.082
-312.953	-200.000	0.002	0.099
-311.939	-146.196	-0.163	0.014
-310.924	-106.493	0.288	0.064
-309.910	107.146	0.016	0.018
-308.895	-200.000	-0.006	0.094
-307.880	-28.623	0.173	-0.098
-306.866	-26.185	-0.032	-0.019
-305.851	21.026	0.104	0.084
-304.837	-62.275	0.257	0.106
-303.822	108.767	0.167	-0.198
-302.807	18.034	-0.108	-0.085
-301.793	-200.000	-0.042	0.322
-300.778	-56.065	-0.150	0.066
-299.764	35.511	0.129	0.112
-298.749	800.000	0.054	-0.180
-297.735	-110.889	0.238	-0.049
-296.720	-101.949	-0.077	0.018
-295.705	251.099	-0.024	-0.040
-294.691	170.105	-0.077	-0.109
-293.676	-118.620	-0.169	0.029
-292.662	-177.728	-0.114	0.003
-291.647	188.995	0.109	-0.162
-290.632	-8.277	0.342	0.228
-289.618	-62.411	-0.161	-0.066
-288.603	-3.359	0.134	0.092
-287.589	-95.352	0.122	-0.032
-286.574	634.864	0.022	-0.056
-285.559	415.383	-0.059	0.125
-284.545	130.720	-0.103	-0.131
-283.530	-148.455	-0.293	0.024
-282.516	-114.701	-0.329	-0.062
-281.501	77.256	0.273	0.287
-280.486	-133.912	0.284	0.035
-279.472	-142.260	-0.337	-0.033
-278.457	-200.000	0.051	0.259
-277.443	-32.489	0.224	0.123
-276.428	-47.395	-0.252	-0.121
-275.413	-165.951	-0.313	-0.013
-274.399	800.000	-0.004	-0.017
-273.384	492.540	-0.096	-0.217
-272.370	-91.212	0.292	-0.083
-271.355	-200.000	0.007	0.088
-270.340	69.516	-0.030	-0.030
-269.326	-24.451	-0.162	-0.096
-268.311	-6.225	0.140	-0.094
-267.297	24.460	-0.211	0.173
-266.282	44.401	0.089	-0.080
-265.267	-38.793	-0.101	0.053
-264.253	800.000	0.049	-0.200
-263.238	63.851	0.118	0.117
-262.224	58.276	0.134	-0.130
-261.209	-200.000	-0.084	0.438
-260.195	800.000	0.040	0.110
-259.180	-200.000	0.033	0.230
-258.165	-160.296	0.127	-0.007
-257.151	800.000	-0.045	0.191
-256.136	416.910	-0.021	-0.044
-255.122	-74.507	-0.137	-0.049
-254.107	194.302	-0.082	-0.124
-253.092	-72.945	0.060	0.022
-252.078	-46.961	0.151	-0.073
-251.063	-200.000	0.074	0.325
-250.049	90.890	-0.132	-0.146
-249.034	732.041	0.135	0.357
-248.019	-11.907	0.083	0.054
-247.005	167.851	-0.160	0.225
-245.990	261.307	0.158	-0.270
-244.976	-76.092	-0.117	-0.041
-243.961	-92.836	-0.623	-0.172
-242.946	-200.000	-0.041	-0.191
-241.932	22.144	-0.237	-0.191
-240.917	572.088	0.027	-0.066
-239.903	211.424	0.044	0.068
-238.888	-122.090	0.059	0.010
-237.873	-200.000	0.036	-0.323
-236.859	-200.000	0.007	-0.067
-235.844	-20.207	0.158	-0.096
-234.830	234.344	0.061	0.099
-233.815	-200.000	0.039	-0.231
-232.800	-156.528	0.155	-0.010
-231.786	54.873	0.278	0.265
-230.771	-103.785	-0.036	0.008
-229.757	159.478	0.195	-0.268
-228.742	22.997	-0.184	0.149
-227.727	383.809	-0.159	0.324
-226.713	77.480	-0.105	-0.110
-225.698	-8.136	-0.267	-0.177
-224.684	-68.802	0.053	0.020
-223.669	-77.607	-0.234	-0.080
-222.655	-140.900	-0.250	0.025
-221.640	-33.164	0.143	-0.078
-220.625	-200.000	0.003	-0.173
-219.611	46.148	-0.192	0.176
-218.596	800.000	0.019	0.072
-217.582	-200.000	0.016	-0.216
-216.567	800.000	0.054	-0.197
-215.552	-200.000	-0.019	-0.227
-214.538	-77.575	0.293	-0.100
-213.523	-200.000	-0.004	0.117
-212.509	-0.563	0.287	0.201
-211.494	800.000	0.061	-0.185
-210.479	-46.702	0.129	0.062
-209.465	-87.433	0.088	-0.026
-208.450	-20.840	-0.101	-0.061
-207.436	133.246	-0.180	-0.230
-206.421	-139.498	0.169	0.018
-205.406	12.534	0.101	-0.077
-204.392	800.000	0.093	-0.360
-203.377	-25.574	0.037	0.021
-202.363	1.560	-0.197	0.140
-201.348	-131.636	0.478	-0.062
-200.333	-115.039	-0.368	-0.069
-199.319	595.381	0.060	0.146
-198.304	-141.689	-0.338	0.033
-197.290	-200.000	-0.019	0.096
-196.275	-38.683	0.265	0.138
-195.260	-75.854	0.216	-0.075
-194.246	414.046	0.174	-0.365
-193.231	-51.524	0.239	0.110
-192.217	31.116	-0.234	-0.197
-191.202	-78.255	0.077	0.026
-190.187	-130.741	0.120	-0.016
-189.173	-139.248	0.092	-0.010
-188.158	-200.000	0.015	0.070
-187.144	116.557	0.085	0.103
-186.129	137.149	0.137	0.177
-185.114	-200.000	0.005	-0.151
-184.100	-200.000	0.016	-0.192
-183.085	319.147	-0.194	-0.363
-182.071	356.934	-0.087	-0.172
-181.056	78.137	0.187	0.197
-180.042	399.494	0.119	0.246
-179.027	-94.505	0.354	0.095
-178.012	-22.110	0.106	0.063
-176.998	-83.445	-0.228	-0.072
-175.983	-54.024	-0.247	-0.111
-174.969	18.607	0.104	0.082
-173.954	134.404	-0.142	0.181
-172.939	800.000	0.089	0.269
-171.925	-71.255	0.195	-0.072
-170.910	149.111	-0.019	0.025
-169.896	633.678	0.018	-0.044
-168.881	80.276	-0.111	-0.118
-167.866	-199.986	0.207	0.001
-166.852	59.185	-0.166	-0.161
-165.837	-200.000	-0.010	-0.093
-164.823	195.961	0.069	0.104
-163.808	-130.870	0.271	0.036
-162.793	-25.984	-0.044	-0.026
-161.779	-83.439	-0.587	0.185
-160.764	800.000	0.069	0.244
-159.750	-200.000	0.007	0.108
-158.735	-109.140	-0.218	-0.046
-157.720	-200.000	-0.004	0.025
-156.706	133.656	0.255	0.325
-155.691	-200.000	-0.044	0.349
-154.677	-156.483	0.301	0.018
-153.662	7.865	0.016	0.012
-152.647	-83.555	-0.162	-0.051
-151.633	-1.294	0.191	0.133
-150.618	44.440	-0.204	-0.184
-149.604	800.000	0.055	0.157
-148.589	235.453	0.111	-0.180
-147.574	709.012	-0.046	0.120
-146.560	-99.162	0.178	0.044
-145.545	-83.750	-0.302	-0.095
-144.531	-10.314	0.086	-0.056
-143.516	758.331	0.104	0.277
-142.502	164.823	0.092	-0.127
-141.487	11.496	-0.070	-0.053
-140.472	461.364	0.090	0.196
-139.458	800.000	-0.158	0.500
-138.443	-200.000	-0.007	-0.239
-137.429	52.393	0.184	0.173
-136.414	86.043	0.099	-0.107
-135.399	537.989	0.065	0.152
-134.385	212.620	0.275	0.426
-133.370	259.932	0.106	-0.181
-132.356	-200.000	0.107	-0.497
-131.341	-200.000	-0.047	-0.212
-130.326	253.842	-0.054	-0.091
-129.312	611.162	-0.125	-0.308
-128.297	378.485	-0.015	0.030
-127.283	-127.423	0.081	0.012
-126.268	-113.414	-0.372	-0.072
-125.253	-6.937	0.088	-0.059
-124.239	-136.791	0.154	-0.017
-123.224	199.301	0.305	0.459
-122.210	361.970	-0.091	-0.180
-121.195	-116.576	-0.028	-0.005
-120.180	56.640	-0.135	0.129
-119.166	86.557	-0.060	0.065
-118.151	188.921	-0.081	0.120
-117.137	-200.000	0.018	0.227
-116.122	-200.000	0.050	0.230
-115.107	473.329	-0.047	0.103
-114.093	-5.303	0.176	0.119
-113.078	-63.850	-0.090	-0.036
-112.064	619.907	0.041	0.102
-111.049	606.957	0.067	0.164
-110.034	-38.320	-0.100	-0.052
-109.020	-112.989	-0.185	-0.036
-108.005	-200.000	-0.051	-0.273
-106.991	800.000	-0.155	-0.425
-105.976	800.000	-0.047	0.149
-104.962	5.114	0.238	-0.172
-103.947	-200.000	-0.011	-0.127
-102.932	1.004	-0.162	0.114
-101.918	-200.000	-0.008	0.063
-100.903	9.966	-0.171	0.128
-99.889	196.474	0.122	0.182
-98.874	800.000	0.064	0.174
-97.859	800.000	-0.125	0.392
-96.845	149.923	-0.138	-0.184
-95.830	-45.605	-0.108	0.052
-94.816	178.270	0.289	-0.415
-93.801	7.529	0.231	0.170
-92.786	-66.375	0.213	-0.083
-91.772	800.000	-0.049	0.154
-90.757	-104.350	0.208	-0.047
-89.743	172.233	-0.064	-0.090
-88.728	99.793	0.180	0.204
-87.713	-200.000	-0.001	0.329
-86.699	34.678	0.194	-0.167
-85.684	20.124	0.089	-0.070
-84.670	-104.194	0.176	-0.040
-83.655	-9.790	-0.272	0.178
-82.640	800.000	0.063	-0.200
-81.626	-75.002	0.148	-0.052
-80.611	75.383	0.082	0.085
-79.597	-113.786	0.365	-0.070
-78.582	68.237	-0.247	0.248
-77.567	-105.891	-0.206	-0.045
-76.553	155.826	0.076	0.102
-75.538	47.906	0.165	-0.152
-74.524	135.716	0.008	0.011
-73.509	-53.891	-0.152	0.068
-72.494	-35.175	-0.205	-0.110
-71.480	-200.000	0.078	0.374
-70.465	177.701	0.084	0.121
-69.451	64.295	0.301	-0.298
-68.436	-184.412	-0.350	0.006
-67.422	-152.678	0.146	-0.010
-66.407	-115.782	0.222	-0.041
-65.392	216.529	0.119	0.186
-64.378	34.755	-0.172	-0.148
-63.363	-200.000	-0.053	-0.239
-62.349	-200.000	-0.020	0.203
-61.334	-25.493	-1.152	-0.667
-60.319	37.784	0.629	0.548
-59.305	479.190	-0.329	-0.730
-58.290	253.829	0.727	1.219
-57.276	800.000	0.425	1.386
-56.261	-200.000	101.701	614.619
-55.246	530.381	1455.311	3370.776
-54.232	184.328	2648.824	3845.343
-53.217	113.681	2168.037	2581.662
-52.203	41.274	1694.324	1501.480
-51.188	33.732	1504.508	1282.495
-50.173	31.296	1478.126	1243.763
-49.159	51.830	1531.700	1428.589
-48.144	52.698	1549.126	1450.678
-47.130	33.882	1506.613	1285.099
-46.115	30.786	1491.404	1251.306
-45.100	30.613	1488.178	1247.394
-44.086	30.546	1486.360	1245.372
-43.071	30.542	1484.301	1243.570
-42.057	30.607	1482.200	1242.192
-41.042	30.548	1481.152	1240.872
-40.027	30.542	1479.765	1239.618
-39.013	30.568	1477.956	1238.226
-37.998	30.456	1477.330	1236.910
-36.984	30.499	1475.592	1235.689
-35.969	30.484	1473.859	1234.093
-34.954	30.519	1472.693	1233.300
-33.940	30.518	1471.509	1232.248
-32.925	30.591	1470.381	1231.737
-31.911	30.639	1468.681	1230.582
-30.896	30.644	1467.629	1229.689
-29.881	30.641	1466.545	1228.708
-28.867	30.629	1464.584	1226.941
-27.852	30.670	1463.173	1225.983
-26.838	30.530	1462.386	1224.347
-25.823	30.616	1460.286	1223.111
-24.809	30.660	1458.953	1222.229
-23.794	30.552	1457.878	1220.575
-22.779	30.610	1456.189	1219.492
-21.765	30.591	1455.587	1218.816
-20.750	30.635	1454.460	1218.112
-19.736	30.673	1452.874	1216.980
-18.721	30.635	1452.036	1215.985
-17.706	30.557	1451.343	1214.847
-16.692	30.611	1450.149	1214.148
-15.677	30.629	1448.711	1213.018
-14.663	30.635	1447.730	1212.183
-13.648	30.493	1447.224	1210.789
-12.633	30.542	1446.564	1210.505
-11.619	30.588	1445.965	1210.256
-10.604	30.432	1445.158	1208.516
-9.590	30.469	1444.233	1207.939
-8.575	30.482	1443.562	1207.411
-7.560	30.561	1442.087	1206.643
-6.546	30.501	1441.323	1205.565
-5.531	30.493	1440.845	1205.070
-4.517	30.506	1439.323	1203.832
-3.502	30.482	1438.668	1203.079
-2.487	30.514	1437.546	1202.300
-1.473	30.579	1436.366	1201.685
-0.458	30.508	1435.438	1200.401
0.556	28.264	1425.853	1189.061
1.571	25.278	1399.218	1147.686
2.586	21.688	1339.099	1076.263
3.600	20.103	1257.158	1001.167
4.615	19.013	1212.768	959.656
5.629	16.470	1158.544	903.096
6.644	7.994	1075.110	795.800
7.659	0.959	1035.079	732.171
8.673	-0.134	1029.547	722.934
9.688	-0.426	1026.643	719.432
10.702	-0.392	1024.883	718.297
11.717	-0.338	1022.623	716.907
12.731	2.711	1025.766	733.648
13.746	11.448	1038.368	784.756
14.761	18.151	1046.828	823.463
15.775	19.464	1047.584	830.310
16.790	19.559	1046.621	829.931
17.804	19.283	1045.696	827.797
18.819	19.038	1045.137	826.106
19.834	19.106	1044.756	826.057
20.848	19.099	1044.872	826.040
21.863	19.150	1044.401	825.839
22.877	19.201	1043.406	825.228
23.892	19.231	1042.444	824.535
24.907	19.146	1041.636	823.415
25.921	19.213	1041.029	823.183
26.936	19.290	1040.166	822.799
27.950	19.144	1039.482	821.485
28.965	19.193	1037.917	820.409
29.980	19.070	1036.678	818.775
30.994	19.093	1035.163	817.615
32.009	19.182	1034.469	817.413
33.023	19.310	1033.311	817.034
34.038	19.108	1032.112	815.056
35.053	18.963	1031.580	813.880
36.067	19.180	1031.230	814.556
37.082	19.200	1030.239	813.799
38.096	19.181	1030.018	813.463
39.111	19.472	1028.159	813.295
40.126	19.488	1027.662	812.903
41.140	19.429	1026.308	811.483
42.155	19.197	1024.822	809.146
43.169	18.893	1023.794	806.836
44.184	18.982	1022.634	806.269
45.199	19.065	1021.623	805.788
46.213	18.976	1020.382	804.323
47.228	18.882	1019.368	803.011
48.242	18.997	1018.722	802.970
49.257	19.012	1017.802	802.245
50.271	19.067	1017.049	801.833
51.286	19.282	1015.901	801.861
52.301	19.246	1015.528	801.327
53.315	19.204	1014.717	800.422
54.330	19.211	1014.065	799.868
55.344	19.239	1012.682	798.837
56.359	19.209	1011.715	797.863
57.374	19.159	1010.920	796.933
58.388	19.047	1010.007	795.629
59.403	19.081	1009.078	794.983
60.417	19.131	1008.144	794.406
61.432	18.829	1007.950	792.789
62.447	18.918	1006.793	792.222
63.461	19.069	1006.330	792.479
64.476	19.090	1005.660	791.979
65.490	19.124	1004.560	791.198
66.505	19.003	1003.580	789.802
67.520	19.130	1002.572	789.521
68.534	19.204	1001.783	789.171
69.549	19.062	1000.890	787.745
70.563	18.770	999.485	785.234
71.578	18.617	998.470	783.669
72.593	18.805	997.599	783.776
73.607	18.650	996.431	782.080
74.622	18.554	996.076	781.295
75.636	18.888	995.565	782.347
76.651	19.110	994.294	782.286
77.666	18.841	993.711	780.538
78.680	18.785	992.834	779.525
79.695	18.782	992.494	779.176
80.709	18.879	991.837	779.029
81.724	19.063	990.768	778.956
82.739	18.950	989.879	777.679
83.753	18.966	989.097	777.065
84.768	19.065	988.648	777.092
85.782	19.500	987.394	778.000
86.797	19.583	987.135	778.098
87.812	19.356	986.320	776.368
88.826	19.317	984.891	774.996
89.841	19.343	984.134	774.449
90.855	19.425	983.351	774.134
91.870	19.465	982.735	773.761
92.884	19.439	981.873	772.896
93.899	19.272	981.050	771.430
94.914	19.355	979.832	770.775
95.928	19.310	979.263	770.062
96.943	19.360	978.216	769.391
97.957	19.175	977.189	767.689
98.972	18.880	976.373	765.670
99.987	18.765	975.122	764.109
101.001	18.775	974.369	763.493
102.016	19.222	973.848	765.004
103.030	19.230	973.506	764.702
104.045	19.099	971.914	762.806
105.060	19.004	970.395	761.124
106.074	18.852	969.554	759.725
107.089	18.884	968.532	758.998
108.103	19.151	969.024	760.498
109.118	19.351	967.848	760.387
110.133	19.182	966.117	758.217
111.147	19.160	965.478	757.552
112.162	19.101	964.275	756.285
113.176	18.887	962.966	754.249
114.191	19.008	962.100	754.036
115.206	18.993	961.485	753.420
116.220	18.695	960.255	751.086
117.235	18.598	959.369	749.903
118.249	18.851	958.371	750.163
119.264	18.747	957.770	749.173
120.279	18.726	956.759	748.224
121.293	18.668	955.961	747.279
122.308	18.906	955.072	747.554
123.322	18.924	953.968	746.703
124.337	18.872	953.059	745.697
125.352	18.795	951.718	744.250
126.366	18.493	950.165	741.663
127.381	18.140	948.349	738.657
128.395	18.616	948.452	740.725
129.410	19.213	947.861	742.775
130.424	19.306	947.074	742.493
131.439	19.303	945.957	741.539
132.454	19.212	944.645	740.054
133.468	19.160	944.173	739.396
134.483	19.095	943.886	738.824
135.497	19.335	942.380	738.610
136.512	19.375	942.155	738.541
137.527	19.417	941.580	738.205
138.541	19.423	940.724	737.492
139.556	19.398	939.480	736.344
140.570	19.389	938.977	735.848
141.585	19.346	937.736	734.625
142.600	19.383	937.208	734.307
143.614	19.431	936.094	733.572
144.629	19.484	935.565	733.318
145.643	19.710	934.733	733.558
146.658	19.607	933.578	732.151
147.673	19.521	932.094	730.557
148.687	19.442	931.286	729.528
149.702	19.370	930.726	728.718
150.716	19.400	929.409	727.752
151.731	19.326	928.677	726.799
152.746	19.278	928.250	726.202
153.760	19.556	927.200	726.485
154.775	19.683	926.423	726.346
155.789	19.697	925.806	725.857
156.804	19.505	924.796	724.194
157.819	19.618	923.427	723.533
158.833	19.647	923.107	723.340
159.848	19.789	921.970	722.977
160.862	19.803	921.306	722.452
161.877	19.512	920.258	720.350
162.892	19.616	919.368	720.024
163.906	19.800	918.152	719.772
164.921	19.686	917.986	719.107
165.935	19.703	916.865	718.234
166.950	19.743	915.847	717.539
167.964	19.723	914.875	716.633
168.979	19.704	914.015	715.816
169.994	19.551	913.139	714.433
171.008	19.456	912.070	713.143
172.023	19.652	911.317	713.300
173.037	19.793	910.657	713.301
174.052	19.451	909.420	710.858
175.067	19.274	908.471	709.327
176.081	19.306	907.500	708.638
177.096	19.459	906.929	708.757
178.110	19.540	905.959	708.271
179.125	19.250	904.907	706.194
180.140	19.089	903.702	704.535
181.154	19.189	902.921	704.270
182.169	19.124	902.516	703.628
183.183	19.453	902.034	704.535
184.198	19.670	901.734	705.123
185.213	19.665	901.059	704.513
186.227	19.572	900.495	703.628
187.242	19.491	900.219	703.020
188.256	19.634	898.981	702.574
189.271	19.728	898.064	702.177
190.286	19.636	897.467	701.274
191.300	19.662	896.745	700.753
192.315	19.094	895.924	697.747
193.329	18.582	893.928	694.062
194.344	18.015	893.201	691.141
195.359	18.701	893.334	693.957
196.373	19.454	893.439	697.021
197.388	19.615	893.174	697.402
198.402	19.598	892.136	696.462
199.417	19.490	891.457	695.436
200.432	19.460	891.597	695.362
201.446	19.381	890.715	694.297
202.461	18.998	890.055	692.177
203.475	19.017	889.454	691.726
204.490	18.550	887.669	688.402
205.504	17.519	886.040	682.945
206.519	18.052	885.991	684.984
207.534	19.055	885.961	688.916
208.548	19.106	885.345	688.582
209.563	19.479	885.363	690.025
210.577	19.561	884.335	689.490
211.592	19.336	883.482	687.868
212.607	19.706	883.249	689.100
213.621	19.764	882.386	688.598
214.636	19.707	882.248	688.203
215.650	19.660	881.885	687.670
216.665	19.679	881.221	687.168
217.680	19.768	880.309	686.748
218.694	19.673	880.299	686.302
219.709	19.419	878.889	684.137
220.723	18.958	877.941	681.510
221.738	19.361	877.405	682.629
222.753	19.576	876.964	683.078
223.767	19.405	876.549	682.020
224.782	19.477	875.617	681.516
225.796	19.730	875.102	682.055
226.811	19.860	874.218	681.816
227.826	19.421	873.285	679.302
228.840	18.606	871.650	674.763
229.855	18.647	871.165	674.490
230.869	18.852	870.985	675.098
231.884	18.667	869.464	673.135
232.899	18.660	869.259	672.885
233.913	19.451	869.354	676.003
234.928	19.758	868.601	676.558
235.942	19.465	868.159	675.009
236.957	19.469	867.820	674.698
237.972	19.296	866.566	672.990
238.986	19.188	865.776	671.894
240.001	19.268	865.060	671.591
241.015	19.400	864.033	671.247
242.030	19.440	863.776	671.145
243.045	19.416	863.493	670.774
244.059	19.680	862.884	671.268
245.074	19.728	862.471	671.071
246.088	19.651	861.383	669.869
247.103	19.110	860.992	667.408
248.117	19.291	860.068	667.332
249.132	19.805	859.621	668.915
250.147	20.095	859.615	669.974
251.161	19.969	858.980	668.933
252.176	20.205	857.902	668.945
253.190	20.282	857.392	668.783
254.205	20.145	857.348	668.163
255.220	20.441	856.709	668.745
256.234	20.511	855.953	668.365
257.249	20.395	855.246	667.308
258.263	20.094	854.995	665.896
259.278	20.162	854.067	665.374
260.293	20.360	853.496	665.629
261.307	20.467	852.839	665.470
262.322	20.412	851.598	664.233
263.336	20.025	851.257	662.428
264.351	19.596	850.062	659.799
265.366	18.619	847.839	654.291
266.380	18.176	847.014	651.910
267.395	18.965	847.811	655.475
268.409	19.910	847.553	658.817
269.424	19.696	846.862	657.405
270.439	19.967	846.427	658.041
271.453	20.134	845.569	657.948
272.468	20.078	845.105	657.319
273.482	20.213	844.976	657.670
274.497	20.357	844.378	657.693
275.512	20.116	843.295	655.877
276.526	19.678	841.629	652.872
277.541	19.867	841.237	653.221
278.555	20.341	840.733	654.560
279.570	19.965	840.138	652.623
280.585	19.741	839.382	651.133
281.599	19.806	838.823	650.889
282.614	20.043	838.196	651.236
283.628	19.692	837.074	648.987
284.643	19.442	836.462	647.517
285.657	19.828	836.514	648.949
286.672	19.687	835.436	647.528
287.687	19.178	834.699	644.992
288.701	19.434	835.033	646.154
289.716	19.945	834.341	647.473
290.730	19.601	833.191	645.237
291.745	19.609	832.318	644.533
292.760	19.354	831.425	642.834
293.774	19.349	830.720	642.213
294.789	20.102	831.310	645.420
295.803	20.649	831.392	647.461
296.818	20.709	830.835	647.195
297.833	20.772	830.738	647.295
298.847	20.546	829.390	645.351
299.862	20.222	828.361	643.289
300.876	20.366	827.771	643.307
301.891	20.639	827.726	644.228
302.906	20.662	826.820	643.552
303.920	20.429	825.552	641.647
304.935	20.010	825.222	639.784
305.949	20.335	825.103	640.836
306.964	20.618	824.471	641.331
307.979	20.449	823.485	639.889
308.993	20.388	823.351	639.502
310.008	20.703	823.131	640.433
311.022	20.813	822.099	639.978
312.037	20.559	822.081	638.973
313.052	20.368	821.330	637.632
314.066	20.405	820.620	637.159
315.081	19.738	819.448	633.749
316.095	19.117	818.299	630.532
317.110	19.745	818.695	633.081
318.125	20.511	818.411	635.609
319.139	20.008	817.506	633.013
320.154	19.093	815.452	628.027
321.168	18.489	815.098	625.497
322.183	19.229	815.125	628.161
323.197	20.130	815.236	631.473
324.212	20.199	814.988	631.475
325.227	20.381	815.011	632.103
326.241	20.632	814.069	632.230
327.256	20.323	813.602	630.686
328.270	20.458	812.643	630.379
329.285	20.451	812.340	630.061
330.300	20.092	811.470	628.030
331.314	19.983	810.842	627.095
332.329	20.151	809.875	626.897
333.343	20.421	809.632	627.631
334.358	20.722	809.234	628.352
335.373	20.633	808.515	627.417
336.387	20.699	808.324	627.450
337.402	20.821	808.006	627.589
338.416	21.079	807.433	628.019
339.431	20.997	806.870	627.230
340.446	21.048	806.406	626.995
341.460	21.283	805.726	627.258
342.475	21.242	804.780	626.318
343.489	20.854	804.350	624.535
344.504	20.872	803.968	624.249
345.519	21.121	803.936	625.062
346.533	21.316	803.244	625.164
347.548	21.376	802.910	625.063
348.562	21.403	802.908	625.105
349.577	21.442	802.195	624.633
350.592	21.268	801.599	623.493
351.606	21.349	800.992	623.252
352.621	21.214	800.491	622.327
353.635	21.267	799.899	622.000
354.650	21.223	799.499	621.480
355.665	20.864	798.255	619.183
356.679	19.914	796.728	614.572
357.694	19.659	796.282	613.268
358.708	20.273	796.387	615.473
359.723	20.331	795.536	614.967
360.738	20.409	795.823	615.410
361.752	20.894	795.673	616.955
362.767	21.147	794.916	617.210
363.781	21.369	794.907	617.932
364.796	21.531	794.537	618.162
365.810	21.616	794.076	618.051
366.825	21.619	794.005	617.952
367.840	21.681	793.560	617.768
368.854	21.485	792.639	616.305
369.869	21.108	791.722	614.212
370.883	21.021	791.239	613.478
371.898	21.130	790.890	613.534
372.913	21.179	789.755	612.771
373.927	21.028	788.978	611.586
374.942	21.203	788.630	611.874
375.956	21.228	788.452	611.771
376.971	21.413	787.679	611.764
377.986	21.275	787.733	611.270
379.000	21.411	787.134	611.226
380.015	21.654	786.719	611.696
381.029	21.481	785.478	610.076
382.044	21.396	785.496	609.738
383.059	21.554	785.310	610.092
384.073	21.669	784.118	609.511
385.088	21.589	783.753	608.894
386.102	21.788	783.151	609.066
387.117	21.580	782.801	608.017
388.132	21.494	782.487	607.423
389.146	21.483	781.293	606.404
390.161	20.974	780.805	604.208
391.175	20.664	780.659	602.965
392.190	21.199	780.657	604.765
393.205	21.295	779.839	604.411
394.219	20.351	778.503	600.060
395.234	19.034	776.123	593.630
396.248	18.369	775.092	590.497
397.263	19.410	776.036	594.754
398.278	21.057	777.334	601.382
399.292	21.475	777.064	602.559
400.307	21.195	776.320	600.966
401.321	21.234	775.950	600.758
402.336	21.071	776.082	600.246
403.350	21.419	775.744	601.128
404.365	21.822	775.412	602.203
405.380	21.901	775.324	602.354
406.394	22.284	774.963	603.334
407.409	22.312	774.480	603.001
408.423	22.277	773.723	602.238
409.438	22.270	773.559	602.032
410.453	22.220	773.072	601.427
411.467	22.337	772.393	601.246
412.482	22.282	772.105	600.782
413.496	22.253	771.440	600.113
414.511	22.455	771.154	600.525
415.526	22.309	771.023	599.875
416.540	22.362	770.592	599.666
417.555	22.279	769.707	598.642
418.569	21.916	769.060	596.851
419.584	21.930	768.673	596.546
420.599	22.081	768.119	596.576
421.613	158.702	1360.989	1798.796
422.628	136.801	1447.377	1798.918
