DTS Sentinel unit serial number:	SN413079Multiplexer serial number:	ORYXHardware model number:	OX4-SRSoftware version number:	ORYX F/W v4.00 Oryx Data Collector v3.7.2.0data status	okinstallation	princeton_trtdifferential loss correction	single-endedforward channel	channel 3reverse channel	N/Adate	2019/09/12time	12:54:11forward acquisition time	60.00reverse acquisition time	0.00gamma	496.2192k internal	0.2291k external	0.2291temperature offset calibration	1.0040default loss term (dB/km)	0.3790temperature slope calibration	1.0000multiplexer offset coefficient	1.0000multiplexer slope coefficient	1.0000fibre end	0.00T internal ref (°C)	40.78T ext. ref 1 (°C)	2.07T ext. ref 2 (°C)	37.71length (m)	temperature (°C)	Stokes	anti-Stokes-747.200	800.000	-0.043	0.151
-746.185	165.659	0.025	0.036
-745.171	394.119	-0.099	-0.211
-744.156	181.242	0.107	0.162
-743.142	-15.250	-0.110	-0.072
-742.127	182.818	-0.218	0.329
-741.112	-116.820	-0.427	0.080
-740.098	800.000	0.073	0.207
-739.083	258.522	0.072	0.127
-738.069	777.208	-0.045	0.127
-737.054	800.000	0.098	-0.300
-736.039	-141.460	-0.226	0.023
-735.025	-131.816	-0.240	-0.032
-734.010	107.640	0.127	-0.155
-732.996	800.000	-0.049	-0.210
-731.981	800.000	0.062	0.275
-730.966	-128.410	-0.202	-0.029
-729.952	-156.712	0.180	-0.011
-728.937	-118.449	-0.273	-0.050
-727.923	76.640	-0.129	0.140
-726.908	-151.147	-0.210	0.016
-725.894	-154.536	0.267	0.018
-724.879	277.286	0.114	0.208
-723.864	-46.809	-0.254	-0.127
-722.850	77.519	0.120	-0.131
-721.835	-108.681	-0.168	-0.037
-720.821	-200.000	0.008	0.091
-719.806	-94.322	-0.356	-0.100
-718.791	236.370	-0.026	-0.044
-717.777	189.899	0.215	0.330
-716.762	603.167	-0.036	0.092
-715.748	443.558	-0.041	-0.093
-714.733	-52.021	-0.284	0.135
-713.718	-155.394	-0.291	0.019
-712.704	-200.000	-0.047	-0.267
-711.689	-19.406	0.169	-0.107
-710.675	-30.556	0.279	0.161
-709.660	800.000	-0.028	0.100
-708.645	74.118	-0.147	-0.157
-707.631	107.274	-0.210	-0.255
-706.616	228.869	0.093	-0.155
-705.602	-69.849	0.070	0.027
-704.587	-200.000	-0.018	-0.145
-703.572	397.820	0.093	-0.198
-702.558	37.912	-0.329	-0.299
-701.543	16.317	0.126	0.101
-700.529	800.000	-0.044	0.136
-699.514	51.573	0.327	0.318
-698.499	118.569	-0.257	-0.324
-697.485	-200.000	0.022	0.107
-696.470	-200.000	0.003	-0.350
-695.456	-39.337	-0.321	-0.172
-694.441	151.978	0.093	0.130
-693.426	-98.818	-0.520	0.135
-692.412	57.562	-0.104	0.104
-691.397	153.830	0.098	0.137
-690.383	800.000	-0.043	-0.126
-689.368	38.961	-0.196	-0.179
-688.354	-35.928	-0.287	0.158
-687.339	-168.926	-0.182	-0.007
-686.324	195.686	-0.130	0.201
-685.310	6.377	0.181	-0.137
-684.295	800.000	0.060	-0.266
-683.281	699.120	0.067	-0.180
-682.266	-93.709	-0.106	-0.030
-681.251	800.000	0.079	-0.348
-680.237	-200.000	0.003	0.117
-679.222	223.982	0.091	0.150
-678.208	-90.163	0.096	-0.029
-677.193	-175.134	-0.341	0.010
-676.178	-200.000	-0.043	-0.277
-675.164	800.000	-0.017	0.055
-674.149	28.758	-0.203	0.175
-673.135	304.038	-0.137	0.259
-672.120	27.158	-0.143	-0.122
-671.105	-200.000	0.062	0.289
-670.091	-200.000	0.006	0.190
-669.076	-67.688	-0.177	0.071
-668.062	-56.455	-0.279	0.127
-667.047	299.948	-0.054	-0.102
-666.032	-192.774	-0.354	-0.003
-665.018	-101.251	0.247	-0.062
-664.003	72.768	-0.098	-0.105
-662.989	312.173	-0.074	0.142
-661.974	2.754	0.143	-0.106
-660.959	392.668	0.055	-0.116
-659.945	-23.471	-0.279	0.171
-658.930	-114.436	0.204	0.040
-657.916	-181.044	-0.190	-0.004
-656.901	60.494	-0.126	-0.127
-655.886	-191.944	-0.056	0.001
-654.872	-128.756	-0.288	-0.041
-653.857	232.646	0.167	0.280
-652.843	26.834	-0.146	0.125
-651.828	-90.852	-0.208	-0.061
-650.814	-6.197	-0.049	0.034
-649.799	-200.000	0.005	-0.093
-648.784	462.667	-0.048	0.109
-647.770	101.733	-0.175	-0.208
-646.755	368.898	0.061	-0.127
-645.741	476.547	-0.081	-0.188
-644.726	25.652	0.107	-0.091
-643.711	-146.198	-0.090	-0.008
-642.697	-200.000	-0.016	0.076
-641.682	-105.498	0.105	0.024
-640.668	-200.000	-0.187	0.001
-639.653	728.477	0.174	-0.474
-638.638	-79.197	-0.303	0.105
-637.624	-30.568	0.040	-0.023
-636.609	-45.869	-0.156	0.079
-635.595	412.172	0.061	0.133
-634.580	294.743	0.057	-0.106
-633.565	800.000	0.042	-0.126
-632.551	-70.985	0.153	-0.059
-631.536	12.388	0.175	0.138
-630.522	-200.000	0.019	0.094
-629.507	-200.000	-0.044	0.299
-628.492	800.000	-0.086	0.318
-627.478	216.255	0.044	-0.071
-626.463	410.396	0.181	-0.391
-625.449	800.000	-0.049	0.207
-624.434	-73.866	-0.371	-0.137
-623.419	387.873	-0.165	-0.347
-622.405	-73.003	-0.112	-0.042
-621.390	310.380	-0.118	0.226
-620.376	-54.291	0.144	0.066
-619.361	-133.510	-0.294	-0.038
-618.346	-200.000	-0.039	-0.198
-617.332	-200.000	-0.011	-0.068
-616.317	-18.324	0.333	0.212
-615.303	16.088	0.330	0.265
-614.288	-145.711	-0.132	-0.012
-613.273	-182.488	0.311	-0.006
-612.259	-200.000	0.019	-0.150
-611.244	-200.000	0.017	-0.295
-610.230	723.385	0.053	-0.144
-609.215	20.183	0.163	-0.134
-608.201	-136.573	-0.301	0.035
-607.186	-119.125	-0.348	-0.062
-606.171	-84.932	-0.190	0.061
-605.157	-126.796	0.205	0.031
-604.142	147.394	0.200	0.275
-603.128	-119.769	-0.216	0.038
-602.113	350.658	0.132	-0.266
-601.098	800.000	-0.049	0.209
-600.084	-58.280	0.276	-0.122
-599.069	25.297	0.090	0.076
-598.055	-142.724	-0.317	0.031
-597.040	490.884	-0.083	-0.193
-596.025	65.759	0.179	-0.185
-595.011	-95.629	0.123	0.034
-593.996	-25.554	-0.116	-0.070
-592.982	-85.112	-0.136	0.043
-591.967	-151.428	-0.163	-0.012
-590.952	-200.000	0.008	-0.109
-589.938	-71.215	-0.172	-0.066
-588.923	-135.628	-0.363	0.044
-587.909	-200.000	0.040	0.394
-586.894	-120.722	0.353	0.061
-585.879	382.472	-0.111	0.233
-584.865	85.175	-0.214	-0.238
-583.850	800.000	0.103	0.351
-582.836	66.499	-0.214	-0.221
-581.821	58.816	-0.207	-0.207
-580.806	36.099	0.179	-0.161
-579.792	-200.000	0.001	-0.059
-578.777	-200.000	0.026	-0.215
-577.763	-111.291	-0.233	0.048
-576.748	2.979	-0.135	0.099
-575.733	216.037	-0.111	-0.180
-574.719	34.944	-0.089	0.079
-573.704	-31.752	0.222	-0.127
-572.690	-169.096	-0.089	0.003
-571.675	-141.168	-0.177	-0.018
-570.661	26.163	0.159	0.135
-569.646	54.014	-0.088	-0.086
-568.631	-86.010	-0.064	0.020
-567.617	-74.101	-0.152	-0.056
-566.602	-67.193	0.134	-0.054
-565.588	-200.000	-0.006	0.041
-564.573	-61.349	-0.119	-0.051
-563.558	800.000	0.062	-0.218
-562.544	-132.378	-0.250	0.033
-561.529	-172.441	0.193	-0.006
-560.515	19.257	-0.123	0.100
-559.500	-136.797	-0.055	0.006
-558.485	43.632	-0.177	-0.164
-557.471	-0.772	-0.141	-0.101
-556.456	-200.000	0.019	-0.171
-555.442	142.469	-0.157	-0.212
-554.427	24.628	0.154	-0.130
-553.412	-146.928	-0.236	0.021
-552.398	-40.349	-0.245	-0.129
-551.383	-21.965	0.108	0.067
-550.369	800.000	-0.098	0.407
-549.354	-200.000	-0.026	0.173
-548.339	-200.000	-0.036	-0.400
-547.325	-200.000	-0.024	0.158
-546.310	361.081	0.051	0.105
-545.296	228.468	0.258	-0.428
-544.281	215.523	0.076	-0.122
-543.266	-200.000	-0.021	-0.309
-542.252	-47.902	0.166	0.082
-541.237	-87.218	-0.160	0.049
-540.223	-139.968	-0.347	0.037
-539.208	70.560	0.112	-0.117
-538.193	-78.036	-0.376	0.131
-537.179	395.330	-0.071	-0.150
-536.164	-71.513	0.298	-0.113
-535.150	-200.000	-0.025	-0.207
-534.135	4.702	-0.103	0.077
-533.121	174.805	0.236	-0.347
-532.106	-161.649	-0.309	-0.016
-531.091	-200.000	0.009	0.246
-530.077	-200.000	-0.069	0.341
-529.062	176.037	0.127	-0.187
-528.048	-101.533	0.309	0.076
-527.033	265.829	0.172	-0.304
-526.018	2.632	-0.170	0.125
-525.004	-118.773	0.194	-0.035
-523.989	-200.000	0.052	-0.430
-522.975	800.000	0.074	-0.310
-521.960	800.000	0.040	-0.150
-520.945	29.092	-0.287	0.247
-519.931	140.327	-0.188	-0.251
-518.916	800.000	0.093	-0.294
-517.902	-0.866	-0.151	-0.109
-516.887	-149.813	-0.263	0.021
-515.872	-116.820	-0.025	0.005
-514.858	106.563	-0.082	0.099
-513.843	43.257	-0.077	0.071
-512.829	-110.384	-0.210	-0.044
-511.814	-200.000	0.013	0.270
-510.799	39.720	0.211	0.192
-509.785	-200.000	-0.058	0.354
-508.770	-106.854	0.214	-0.048
-507.756	383.586	-0.139	-0.291
-506.741	-109.518	0.189	0.040
-505.726	42.565	0.075	-0.069
-504.712	-60.117	-0.215	-0.093
-503.697	-139.048	-0.230	-0.025
-502.683	-129.465	-0.211	-0.030
-501.668	-79.270	-0.480	-0.165
-500.653	-164.471	0.283	0.013
-499.639	28.036	0.259	0.221
-498.624	-200.000	-0.019	0.147
-497.610	72.186	0.037	-0.039
-496.595	99.963	-0.201	0.236
-495.581	800.000	-0.054	0.177
-494.566	206.706	0.267	0.422
-493.551	800.000	0.042	0.136
-492.537	45.838	0.303	0.285
-491.522	800.000	-0.043	-0.178
-490.508	-200.000	-0.066	-0.304
-489.493	-158.753	-0.352	0.020
-488.478	199.204	-0.118	0.183
-487.464	-90.152	0.116	0.034
-486.449	-200.000	0.039	0.246
-485.435	-70.432	-0.124	0.048
-484.420	-39.401	0.144	0.077
-483.405	-19.234	-0.236	0.148
-482.391	-101.514	0.034	-0.008
-481.376	214.154	0.059	-0.095
-480.362	247.529	-0.139	-0.237
-479.347	-82.720	-0.091	-0.030
-478.332	-200.000	-0.025	-0.343
-477.318	108.945	0.226	0.274
-476.303	190.197	-0.044	0.067
-475.289	-200.000	-0.008	0.179
-474.274	-68.627	-0.486	-0.191
-473.259	-109.382	-0.411	-0.088
-472.245	800.000	0.050	-0.204
-471.230	-181.972	0.245	0.005
-470.216	-30.251	-0.195	-0.112
-469.201	-109.087	-0.221	0.048
-468.186	-98.710	-0.282	-0.073
-467.172	70.593	0.106	-0.111
-466.157	-40.549	0.119	-0.062
-465.143	-147.522	0.345	0.029
-464.128	-39.007	0.385	0.205
-463.113	-120.726	0.092	0.016
-462.099	-11.500	-0.071	0.048
-461.084	-85.866	0.116	-0.037
-460.070	-99.253	-0.234	0.060
-459.055	316.322	-0.037	0.070
-458.040	-33.744	-0.010	-0.005
-457.026	65.632	0.161	0.165
-456.011	-200.000	-0.038	-0.264
-454.997	40.642	0.031	0.028
-453.982	-65.818	0.263	-0.107
-452.968	237.448	-0.048	0.080
-451.953	-52.695	0.256	-0.120
-450.938	-95.069	0.341	-0.093
-449.924	-29.508	0.122	-0.070
-448.909	49.313	0.178	-0.170
-447.895	201.473	-0.284	-0.443
-446.880	-101.108	0.364	0.090
-445.865	-200.000	0.007	0.152
-444.851	30.229	0.244	0.211
-443.836	-58.127	0.161	0.071
-442.822	-28.461	0.364	0.212
-441.807	96.080	-0.125	-0.145
-440.792	800.000	0.034	-0.101
-439.778	-161.799	-0.181	-0.009
-438.763	-200.000	0.020	0.167
-437.749	59.812	-0.024	-0.024
-436.734	-200.000	-0.058	-0.280
-435.719	-36.389	-0.265	-0.144
-434.705	-18.297	-0.154	-0.098
-433.690	-200.000	-0.005	0.044
-432.676	800.000	-0.031	-0.088
-431.661	215.933	0.109	0.175
-430.646	3.172	-0.305	0.224
-429.632	78.195	0.109	0.117
-428.617	160.057	0.065	0.091
-427.603	-200.000	-0.078	0.469
-426.588	-11.167	0.069	0.046
-425.573	800.000	-0.053	0.158
-424.559	-34.647	0.172	-0.095
-423.544	-60.649	-0.093	0.040
-422.530	800.000	-0.128	0.477
-421.515	-128.715	0.270	-0.039
-420.500	240.930	0.127	-0.214
-419.486	-200.000	0.030	0.000
-418.471	43.594	0.147	-0.136
-417.457	800.000	0.030	-0.120
-416.442	-138.699	-0.495	-0.055
-415.428	-154.339	-0.210	0.014
-414.413	169.931	0.178	-0.258
-413.398	-26.946	0.084	-0.050
-412.384	-126.253	0.351	0.053
-411.369	-69.593	0.261	-0.101
-410.355	800.000	0.044	-0.176
-409.340	800.000	0.040	-0.157
-408.325	281.071	0.172	0.310
-407.311	467.237	0.027	-0.061
-406.296	-28.826	0.143	-0.083
-405.282	-48.217	-0.317	-0.155
-404.267	800.000	-0.062	-0.274
-403.252	57.769	-0.141	-0.139
-402.238	260.473	-0.086	-0.151
-401.223	-200.000	0.032	-0.321
-400.209	-116.354	-0.185	0.035
-399.194	-35.383	-0.057	-0.031
-398.179	-155.635	-0.301	0.020
-397.165	-200.000	0.018	-0.286
-396.150	-138.188	-0.155	-0.017
-395.136	-77.758	-0.280	-0.098
-394.121	-69.059	0.103	-0.040
-393.106	-120.460	-0.172	0.030
-392.092	-63.762	0.044	0.018
-391.077	-200.000	-0.037	0.281
-390.063	53.735	0.173	0.167
-389.048	65.274	-0.139	-0.142
-388.033	800.000	-0.045	-0.194
-387.019	464.255	-0.146	0.330
-386.004	99.291	0.059	0.069
-384.990	-200.000	-0.012	-0.226
-383.975	78.666	-0.193	-0.208
-382.960	-117.416	0.156	0.028
-381.946	191.164	0.222	0.337
-380.931	-49.052	-0.211	0.102
-379.917	27.122	-0.144	0.122
-378.902	-152.835	0.129	0.009
-377.888	800.000	0.139	0.408
-376.873	800.000	-0.087	-0.349
-375.858	800.000	0.076	0.226
-374.844	-24.420	0.064	-0.038
-373.829	-168.197	-0.099	-0.004
-372.815	748.390	0.108	0.295
-371.800	336.654	-0.152	-0.297
-370.785	-14.044	-0.166	-0.108
-369.771	-200.000	0.011	0.073
-368.756	164.826	0.164	-0.234
-367.742	212.543	0.160	0.254
-366.727	205.751	0.139	0.219
-365.712	-81.570	-0.309	-0.102
-364.698	-200.000	-0.012	0.115
-363.683	-200.000	-0.023	-0.202
-362.669	37.560	0.107	-0.096
-361.654	101.890	0.160	0.188
-360.639	-200.000	-0.030	0.337
-359.625	-49.068	-0.313	0.151
-358.610	-200.000	0.000	-0.091
-357.596	201.171	0.142	0.220
-356.581	-66.846	-0.372	0.148
-355.566	-80.563	-0.320	-0.107
-354.552	-60.190	-0.288	0.124
-353.537	-61.614	-0.125	0.053
-352.523	-118.670	0.230	0.041
-351.508	-154.744	-0.138	-0.009
-350.493	-182.080	-0.539	0.010
-349.479	162.453	-0.026	0.036
-348.464	215.943	0.054	-0.087
-347.450	275.141	0.069	0.124
-346.435	590.365	0.019	-0.046
-345.420	-200.000	0.041	0.306
-344.406	-72.405	0.305	-0.114
-343.391	-170.960	-0.115	0.004
-342.377	204.712	0.108	-0.169
-341.362	44.455	-0.176	0.163
-340.348	-182.903	0.303	-0.005
-339.333	-50.211	0.050	0.024
-338.318	-200.000	0.049	-0.532
-337.304	800.000	0.078	-0.237
-336.289	-35.577	0.271	-0.148
-335.275	70.476	0.121	-0.126
-334.260	-200.000	0.036	-0.188
-333.245	72.622	-0.043	0.046
-332.231	484.807	-0.120	0.274
-331.216	800.000	0.118	0.434
-330.202	-200.000	-0.039	-0.201
-329.187	28.452	0.220	0.188
-328.172	70.927	0.099	-0.103
-327.158	-48.257	-0.311	0.151
-326.143	-200.000	0.056	0.263
-325.129	409.968	-0.180	0.384
-324.114	-159.972	0.165	0.009
-323.099	122.410	0.022	0.028
-322.085	-200.000	-0.034	0.350
-321.070	-200.000	-0.001	0.139
-320.056	36.254	-0.062	0.055
-319.041	-51.497	-0.420	-0.198
-318.026	-200.000	-0.003	0.192
-317.012	-123.722	0.385	-0.061
-315.997	-12.231	0.197	-0.130
-314.983	-200.000	0.008	0.041
-313.968	-200.000	0.013	0.285
-312.953	-86.732	0.256	-0.079
-311.939	32.741	0.123	-0.107
-310.924	22.114	-0.073	-0.060
-309.910	800.000	-0.074	-0.233
-308.895	-105.378	0.245	-0.056
-307.880	10.381	-0.128	-0.098
-306.866	392.469	0.219	-0.459
-305.851	66.725	0.106	0.108
-304.837	-200.000	0.019	-0.321
-303.822	215.292	0.156	-0.249
-302.807	-120.069	-0.296	0.051
-301.793	-115.555	0.333	0.063
-300.778	252.303	-0.071	0.122
-299.764	-56.891	-0.237	-0.105
-298.749	-11.895	-0.038	0.025
-297.735	-44.656	0.247	0.124
-296.720	22.276	0.180	-0.148
-295.705	-95.399	0.064	-0.017
-294.691	-23.293	0.250	-0.151
-293.676	-141.228	-0.114	-0.012
-292.662	37.073	-0.245	0.218
-291.647	261.079	-0.125	0.218
-290.632	581.106	0.042	-0.103
-289.618	-58.310	-0.036	0.016
-288.603	-89.474	0.211	-0.062
-287.589	-200.000	0.057	-0.257
-286.574	-200.000	0.059	-0.397
-285.559	409.211	-0.128	0.273
-284.545	800.000	-0.073	0.203
-283.530	-200.000	0.007	0.081
-282.516	-2.897	0.195	-0.137
-281.501	43.056	-0.188	0.173
-280.486	268.214	-0.100	0.176
-279.472	5.072	0.274	-0.203
-278.457	-125.366	-0.201	-0.031
-277.443	-200.000	0.029	0.156
-276.428	-84.138	-0.114	-0.036
-275.413	-33.336	0.081	0.045
-274.399	770.149	0.166	0.455
-273.384	-190.002	-0.223	-0.003
-272.370	-11.302	0.049	-0.033
-271.355	-114.546	-0.147	0.028
-270.340	156.370	-0.115	-0.160
-269.326	-200.000	-0.019	-0.138
-268.311	-200.000	-0.156	0.000
-267.297	59.165	0.216	0.214
-266.282	-131.021	0.304	-0.041
-265.267	660.808	-0.153	0.397
-264.253	51.981	-0.207	0.198
-263.238	-49.658	0.256	-0.122
-262.224	206.326	0.072	-0.112
-261.209	157.280	0.087	0.121
-260.195	800.000	0.074	0.286
-259.180	-80.092	-0.238	-0.080
-258.165	37.334	-0.187	-0.167
-257.151	18.719	0.157	0.126
-256.136	166.398	-0.051	0.073
-255.122	-43.786	0.183	0.092
-254.107	232.491	-0.193	-0.319
-253.092	250.549	-0.138	0.236
-252.078	69.241	0.066	0.068
-251.063	-200.000	0.023	0.156
-250.049	-31.051	0.058	-0.033
-249.034	800.000	0.048	0.201
-248.019	-132.779	0.558	0.072
-247.005	800.000	-0.125	0.400
-245.990	-97.413	0.118	0.031
-244.976	378.900	-0.136	0.280
-243.961	-200.000	0.033	-0.175
-242.946	250.780	-0.076	-0.130
-241.932	24.637	-0.360	-0.299
-240.917	-200.000	0.038	-0.449
-239.903	111.882	-0.175	-0.212
-238.888	327.995	0.082	-0.159
-237.873	-200.000	-0.008	-0.357
-236.859	142.716	0.052	-0.069
-235.844	-94.203	0.266	0.073
-234.830	-56.033	0.223	0.100
-233.815	-200.000	-0.003	0.243
-232.800	798.886	0.079	-0.219
-231.786	-7.663	-0.241	0.163
-230.771	379.704	-0.137	0.281
-229.757	-135.031	0.628	0.076
-228.742	-104.561	-0.086	-0.020
-227.727	-149.834	-0.156	0.012
-226.713	-192.438	0.143	0.001
-225.698	-64.483	0.289	0.118
-224.684	800.000	0.099	-0.336
-223.669	786.669	-0.133	-0.366
-222.655	-2.509	-0.157	0.110
-221.640	-200.000	-0.025	-0.242
-220.625	-55.060	0.429	0.194
-219.611	800.000	0.022	-0.097
-218.596	264.454	0.131	0.229
-217.582	146.358	0.088	0.119
-216.567	20.999	0.254	-0.207
-215.552	-145.884	0.206	0.018
-214.538	98.480	-0.108	0.125
-213.523	-200.000	-0.045	-0.217
-212.509	-200.000	-0.002	-0.181
-211.494	-115.498	-0.212	-0.040
-210.479	800.000	0.061	0.203
-209.465	-44.045	-0.217	0.109
-208.450	102.188	0.297	0.347
-207.436	310.322	0.145	0.272
-206.421	306.973	0.013	0.024
-205.406	-48.126	0.181	0.088
-204.392	28.767	0.126	0.107
-203.377	-137.075	-0.077	0.009
-202.363	124.459	-0.047	0.059
-201.348	-200.000	-0.053	-0.256
-200.333	41.295	0.038	0.034
-199.319	216.483	0.125	0.200
-198.304	8.812	-0.271	0.205
-197.290	115.085	0.246	-0.301
-196.275	-98.558	-0.319	-0.082
-195.260	18.828	0.178	0.143
-194.246	-44.909	0.201	-0.100
-193.231	800.000	0.093	-0.297
-192.217	800.000	0.037	-0.154
-191.202	-40.592	-0.254	0.132
-190.187	-26.505	0.145	-0.085
-189.173	55.289	0.047	-0.046
-188.158	-200.000	0.030	0.255
-187.144	-106.384	-0.482	-0.108
-186.129	-200.000	-0.019	0.092
-185.114	-79.626	0.250	0.085
-184.100	188.075	0.060	-0.089
-183.085	800.000	0.093	-0.303
-182.071	-52.315	-0.163	-0.076
-181.056	-200.000	0.015	0.143
-180.042	800.000	-0.045	0.172
-179.027	18.840	0.102	0.082
-178.012	310.211	-0.110	0.206
-176.998	57.543	0.124	-0.121
-175.983	-127.600	0.265	0.038
-174.969	125.288	0.250	0.316
-173.954	800.000	0.081	0.337
-172.939	-131.632	-0.134	-0.018
-171.925	800.000	-0.008	0.032
-170.910	-97.157	0.265	0.069
-169.896	30.794	0.142	0.122
-168.881	-140.280	0.470	0.049
-167.866	28.107	-0.149	0.126
-166.852	800.000	0.029	0.121
-165.837	800.000	-0.020	0.065
-164.823	112.879	-0.184	0.223
-163.808	-200.000	-0.041	0.283
-162.793	124.457	-0.208	-0.262
-161.779	-200.000	-0.015	-0.255
-160.764	800.000	0.066	-0.272
-159.750	150.063	-0.118	0.160
-158.735	195.348	0.106	0.161
-157.720	-145.650	0.137	-0.012
-156.706	174.219	-0.088	0.127
-155.691	97.620	0.054	0.062
-154.677	207.573	0.149	0.233
-153.662	80.813	0.169	-0.183
-152.647	-95.859	-0.172	-0.046
-151.633	-200.000	0.006	0.156
-150.618	-69.342	0.100	0.038
-149.604	99.798	0.087	0.101
-148.589	-52.540	-0.191	0.088
-147.574	-200.000	0.080	-0.404
-146.560	-100.096	-0.368	0.092
-145.545	-36.677	-0.198	0.106
-144.531	-200.000	0.072	0.602
-143.516	258.695	-0.058	-0.100
-142.502	-200.000	-0.002	0.260
-141.487	562.706	-0.068	0.165
-140.472	-28.701	-0.118	-0.068
-139.458	-200.000	-0.010	-0.062
-138.443	-164.062	-0.354	0.016
-137.429	-154.413	-0.290	0.019
-136.414	47.386	-0.301	0.281
-135.399	-137.728	0.094	-0.011
-134.385	126.370	0.131	0.166
-133.370	-138.072	-0.239	-0.027
-132.356	169.110	-0.068	-0.097
-131.341	800.000	-0.095	0.314
-130.326	-67.905	-0.233	0.091
-129.312	-73.808	-0.277	0.101
-128.297	-200.000	0.019	-0.393
-127.283	-200.000	-0.026	-0.152
-126.268	-200.000	-0.328	0.000
-125.253	-16.588	-0.146	-0.092
-124.239	-200.000	-0.049	0.434
-123.224	-56.591	0.288	-0.127
-122.210	-57.128	-0.565	-0.249
-121.195	-200.000	-0.061	0.372
-120.180	-68.749	0.155	0.060
-119.166	171.762	-0.085	-0.122
-118.151	278.608	-0.109	-0.195
-117.137	30.893	-0.107	-0.092
-116.122	-8.417	-0.244	0.164
-115.107	-20.752	0.219	0.134
-114.093	611.529	0.081	0.203
-113.078	66.821	-0.324	-0.329
-112.064	154.440	-0.124	0.170
-111.049	34.341	-0.324	-0.283
-110.034	244.363	0.081	-0.136
-109.020	117.235	0.095	-0.117
-108.005	-102.137	0.059	-0.014
-106.991	-39.286	-0.257	0.135
-105.976	256.258	0.024	-0.041
-104.962	-136.683	-0.097	0.011
-103.947	-180.347	-0.372	-0.008
-102.932	-8.879	-0.252	-0.169
-101.918	47.618	-0.199	0.185
-100.903	-118.243	-0.222	0.039
-99.889	132.720	0.104	0.134
-98.874	-53.921	0.200	-0.091
-97.859	188.424	-0.113	-0.168
-96.845	1.815	0.270	0.194
-95.830	-142.380	-0.251	-0.025
-94.816	29.337	-0.183	0.156
-93.801	203.733	-0.114	-0.176
-92.786	186.585	-0.113	0.168
-91.772	12.200	-0.155	0.119
-90.757	-200.000	-0.007	0.130
-89.743	-80.811	0.198	0.066
-88.728	-200.000	0.120	-0.000
-87.713	116.297	-0.144	0.177
-86.699	-140.172	-0.174	0.018
-85.684	126.875	-0.119	-0.151
-84.670	100.458	0.097	-0.112
-83.655	-40.321	-0.191	-0.099
-82.640	-81.091	-0.170	-0.056
-81.626	-200.000	-0.062	-0.287
-80.611	800.000	0.052	-0.146
-79.597	99.770	-0.062	-0.071
-78.582	-200.000	0.022	-0.309
-77.567	428.886	-0.098	0.212
-76.553	-4.946	-0.217	-0.149
-75.538	-72.332	-0.132	-0.049
-74.524	-200.000	-0.012	0.287
-73.509	-141.060	0.029	-0.003
-72.494	227.836	-0.065	-0.106
-71.480	-161.721	-0.536	0.027
-70.465	376.073	0.095	-0.194
-69.451	550.199	-0.035	0.083
-68.436	75.523	0.301	-0.317
-67.422	77.584	-0.341	-0.362
-66.407	-8.276	0.182	-0.122
-65.392	113.968	-0.129	0.157
-64.378	-200.000	-0.052	0.302
-63.363	-50.042	-0.206	-0.097
-62.349	69.227	0.258	-0.265
-61.334	69.431	-0.695	-0.713
-60.319	-85.516	0.230	0.071
-59.305	-200.000	0.088	-0.939
-58.290	52.404	0.628	0.597
-57.276	338.887	0.744	1.444
-56.261	-200.000	76.017	507.822
-55.246	518.363	1329.214	3100.882
-54.232	145.679	2562.955	3422.486
-53.217	116.316	2247.625	2744.824
-52.203	51.378	1768.980	1674.069
-51.188	44.124	1566.900	1431.836
-50.173	41.430	1536.780	1385.575
-49.159	57.532	1572.992	1531.382
-48.144	63.336	1593.004	1591.468
-47.130	44.711	1556.462	1426.180
-46.115	41.059	1542.166	1387.618
-45.100	40.973	1538.197	1383.398
-44.086	40.756	1537.210	1380.941
-43.071	40.769	1534.828	1378.839
-42.057	40.767	1533.096	1377.218
-41.042	40.831	1531.290	1375.982
-40.027	40.777	1530.143	1374.522
-39.013	40.779	1528.262	1372.793
-37.998	40.772	1526.808	1371.384
-36.984	40.736	1526.172	1370.507
-35.969	40.794	1524.667	1369.503
-34.954	40.770	1523.304	1368.061
-33.940	40.779	1521.505	1366.451
-32.925	40.900	1520.005	1365.877
-31.911	40.778	1518.478	1363.620
-30.896	40.757	1517.276	1362.339
-29.881	40.871	1515.777	1361.723
-28.867	40.899	1514.704	1360.895
-27.852	40.835	1513.122	1358.980
-26.838	40.882	1511.930	1358.175
-25.823	40.851	1510.070	1356.244
-24.809	40.799	1508.736	1354.638
-23.794	40.812	1506.990	1353.102
-22.779	40.750	1506.406	1352.104
-21.765	40.795	1504.998	1351.090
-20.750	40.936	1503.615	1350.755
-19.736	40.759	1502.961	1348.908
-18.721	40.800	1501.949	1348.227
-17.706	40.792	1500.566	1346.876
-16.692	40.834	1499.584	1346.224
-15.677	40.768	1498.663	1344.903
-14.663	40.733	1497.499	1343.565
-13.648	40.816	1496.244	1342.946
-12.633	40.692	1495.473	1341.365
-11.619	40.723	1494.933	1341.039
-10.604	40.752	1493.702	1340.071
-9.590	40.758	1492.805	1339.257
-8.575	40.774	1491.829	1338.435
-7.560	40.769	1490.859	1337.479
-6.546	40.703	1490.431	1336.598
-5.531	40.642	1489.361	1335.176
-4.517	40.670	1488.274	1334.333
-3.502	40.727	1487.444	1333.920
-2.487	40.734	1486.131	1332.736
-1.473	40.703	1485.584	1331.983
-0.458	40.799	1483.885	1331.055
0.556	41.070	1474.536	1321.174
1.571	38.353	1447.332	1278.945
2.586	34.714	1385.479	1201.347
3.600	32.623	1302.198	1116.657
4.615	30.539	1253.852	1063.195
5.629	25.399	1194.871	984.993
6.644	13.295	1101.682	846.498
7.659	3.784	1054.162	763.135
8.673	2.371	1048.337	751.911
9.688	2.127	1045.378	748.522
10.702	1.907	1043.218	745.834
11.717	1.857	1042.103	744.726
12.731	5.361	1046.637	765.074
13.746	16.498	1062.239	831.465
14.761	24.523	1072.821	879.362
15.775	25.574	1072.533	884.220
16.790	25.643	1072.130	884.148
17.804	25.387	1071.324	882.149
18.819	25.189	1070.531	880.446
19.834	25.223	1070.000	880.096
20.848	25.387	1069.829	880.682
21.863	25.474	1069.169	880.487
22.877	25.393	1069.046	879.911
23.892	25.312	1068.326	878.847
24.907	25.340	1067.525	878.248
25.921	25.359	1066.533	877.443
26.936	25.470	1065.264	876.866
27.950	25.415	1064.476	875.872
28.965	25.353	1063.070	874.337
29.980	25.234	1062.182	872.947
30.994	25.104	1060.976	871.249
32.009	25.377	1059.913	871.622
33.023	25.439	1059.800	871.754
34.038	25.264	1058.304	869.599
35.053	25.134	1058.043	868.677
36.067	25.448	1056.721	869.031
37.082	25.408	1055.983	868.157
38.096	25.412	1055.322	867.558
39.111	25.526	1054.854	867.642
40.126	25.676	1054.053	867.630
41.140	25.580	1052.744	866.015
42.155	25.231	1051.506	863.239
43.169	25.001	1049.751	860.619
44.184	24.922	1048.816	859.400
45.199	25.049	1048.281	859.491
46.213	24.963	1046.740	857.743
47.228	24.939	1046.178	857.091
48.242	25.090	1045.290	857.009
49.257	24.986	1045.529	856.634
50.271	25.128	1044.544	856.426
51.286	25.362	1043.594	856.688
52.301	25.376	1042.692	855.940
53.315	25.387	1042.079	855.414
54.330	25.435	1041.461	855.056
55.344	25.398	1039.898	853.523
56.359	25.271	1039.269	852.330
57.374	25.250	1039.156	852.059
58.388	25.205	1037.988	850.815
59.403	25.110	1037.537	849.920
60.417	25.116	1036.776	849.249
61.432	24.904	1035.829	847.396
62.447	24.969	1034.995	846.946
63.461	25.046	1034.673	846.970
64.476	25.106	1033.554	846.263
65.490	25.169	1032.452	845.581
66.505	25.031	1031.447	844.034
67.520	24.961	1030.874	843.159
68.534	25.147	1030.160	843.378
69.549	24.910	1029.540	841.679
70.563	24.599	1028.091	838.962
71.578	24.470	1027.155	837.518
72.593	24.540	1026.913	837.575
73.607	24.670	1025.278	836.776
74.622	24.457	1024.484	835.057
75.636	24.735	1023.782	835.712
76.651	24.924	1023.184	836.031
77.666	24.755	1022.337	834.479
78.680	24.621	1021.686	833.248
79.695	24.608	1020.899	832.473
80.709	24.783	1020.639	833.002
81.724	24.926	1019.663	832.795
82.739	24.890	1018.533	831.630
83.753	24.900	1017.793	831.001
84.768	25.219	1016.723	831.533
85.782	25.345	1016.850	832.145
86.797	25.630	1016.153	832.821
87.812	25.582	1015.403	831.912
88.826	25.392	1014.374	830.116
89.841	25.411	1013.444	829.371
90.855	25.588	1012.771	829.564
91.870	25.476	1011.872	828.238
92.884	25.568	1010.885	827.781
93.899	25.506	1010.265	826.914
94.914	25.380	1008.840	825.093
95.928	25.533	1008.479	825.428
96.943	25.570	1007.683	824.875
97.957	25.157	1006.359	821.823
98.972	24.989	1005.223	820.057
99.987	24.771	1004.313	818.242
101.001	25.025	1003.377	818.569
102.016	25.177	1003.170	819.021
103.030	25.361	1001.872	818.730
104.045	25.267	1001.002	817.518
105.060	25.252	999.538	816.183
106.074	24.973	998.844	814.272
107.089	24.982	998.210	813.726
108.103	25.278	997.938	814.777
109.118	25.377	997.308	814.639
110.133	25.108	996.200	812.444
111.147	25.102	995.049	811.405
112.162	24.877	993.677	809.198
113.176	24.604	992.661	807.066
114.191	24.743	992.165	807.220
115.206	24.847	991.764	807.290
116.220	24.562	990.442	804.859
117.235	24.500	989.343	803.614
118.249	24.712	988.709	803.983
119.264	24.650	988.166	803.189
120.279	24.531	987.276	801.862
121.293	24.553	986.517	801.276
122.308	24.798	985.867	801.774
123.322	24.602	985.200	800.283
124.337	24.696	984.075	799.716
125.352	24.482	982.392	797.325
126.366	24.112	981.246	794.671
127.381	23.753	979.854	791.874
128.395	24.263	979.624	793.892
129.410	25.106	979.039	797.097
130.424	25.210	978.780	797.277
131.439	25.167	977.841	796.251
132.454	25.174	976.616	795.216
133.468	25.181	975.961	794.642
134.483	25.133	975.065	793.627
135.497	25.163	974.542	793.267
136.512	25.396	974.134	793.892
137.527	25.632	973.170	794.079
138.541	25.424	972.455	792.509
139.556	25.542	971.974	792.565
140.570	25.542	970.924	791.642
141.585	25.552	970.218	791.039
142.600	25.596	969.661	790.706
143.614	25.540	968.445	789.402
144.629	25.487	968.451	789.103
145.643	25.598	967.788	788.978
146.658	25.626	966.586	788.055
147.673	25.541	964.945	786.273
148.687	25.325	964.224	784.671
149.702	25.346	963.235	783.888
150.716	25.172	962.291	782.293
151.731	25.285	960.558	781.310
152.746	25.248	960.478	781.011
153.760	25.525	959.710	781.524
154.775	25.517	959.236	781.032
155.789	25.573	958.406	780.531
156.804	25.610	957.195	779.634
157.819	25.451	956.326	778.173
158.833	25.552	955.901	778.193
159.848	25.728	955.120	778.251
160.862	25.670	953.964	776.991
161.877	25.559	953.293	775.895
162.892	25.508	952.511	774.969
163.906	25.429	951.954	774.109
164.921	25.627	950.641	773.824
165.935	25.524	949.376	772.281
166.950	25.674	948.719	772.321
167.964	25.682	947.849	771.581
168.979	25.755	946.474	770.707
169.994	25.569	945.478	769.031
171.008	25.454	944.712	767.850
172.023	25.404	944.050	767.030
173.037	25.627	943.484	767.455
174.052	25.480	942.503	765.960
175.067	25.338	941.314	764.321
176.081	25.107	940.893	762.930
177.096	25.300	940.026	762.981
178.110	25.391	938.949	762.424
179.125	25.058	938.317	760.432
180.140	24.853	937.200	758.590
181.154	24.995	936.321	758.411
182.169	24.999	936.264	758.317
183.183	25.266	935.886	759.073
184.198	25.497	935.561	759.718
185.213	25.576	934.659	759.251
186.227	25.511	933.936	758.322
187.242	25.439	933.539	757.629
188.256	25.582	932.955	757.691
189.271	25.583	932.022	756.871
190.286	25.712	931.679	757.068
191.300	25.440	930.546	754.937
192.315	24.984	928.995	751.698
193.329	24.223	927.531	747.259
194.344	23.767	926.409	744.380
195.359	24.382	926.665	747.096
196.373	25.274	927.259	751.241
197.388	25.524	927.122	752.111
198.402	25.388	926.403	750.895
199.417	25.430	925.921	750.612
200.432	25.555	925.174	750.462
201.446	25.245	924.746	748.754
202.461	24.927	924.073	746.816
203.475	25.211	923.213	747.240
204.490	24.776	921.884	744.289
205.504	23.558	919.931	737.587
206.519	24.016	919.603	739.162
207.534	24.905	919.964	743.077
208.548	24.997	919.536	743.046
209.563	25.370	919.380	744.400
210.577	25.569	918.584	744.514
211.592	25.065	918.111	741.980
212.607	25.544	917.864	743.697
213.621	25.779	917.064	743.954
214.636	25.625	916.364	742.683
215.650	25.684	916.020	742.584
216.665	25.616	915.711	741.986
217.680	25.502	915.447	741.238
218.694	25.789	914.550	741.627
219.709	25.408	914.013	739.557
220.723	25.015	912.848	736.934
221.738	25.218	912.124	737.117
222.753	25.496	911.615	737.783
223.767	25.331	911.246	736.742
224.782	25.294	910.784	736.150
225.796	25.683	909.970	737.022
226.811	25.851	909.048	736.898
227.826	25.545	907.809	734.576
228.840	24.613	906.326	729.508
229.855	24.370	905.969	728.165
230.869	24.886	905.175	729.564
231.884	24.362	904.580	726.886
232.899	24.368	904.217	726.555
233.913	25.157	904.268	729.744
234.928	25.418	903.901	730.444
235.942	25.330	903.113	729.388
236.957	25.290	902.688	728.817
237.972	24.990	901.245	726.369
238.986	24.948	900.761	725.745
240.001	25.166	900.304	726.197
241.015	24.889	899.902	724.688
242.030	25.163	899.128	725.107
243.045	25.262	898.602	725.021
244.059	25.412	897.984	725.061
245.074	25.412	897.948	724.968
246.088	25.587	896.661	724.572
247.103	25.292	895.717	722.557
248.117	25.164	895.501	721.803
249.132	25.747	895.513	724.092
250.147	26.101	895.326	725.300
251.161	26.080	894.905	724.813
252.176	26.360	894.275	725.361
253.190	26.313	893.540	724.514
254.205	26.411	893.262	724.616
255.220	26.435	893.153	724.560
256.234	26.610	892.044	724.296
257.249	26.534	891.392	723.400
258.263	26.349	890.671	722.009
259.278	26.333	890.015	721.352
260.293	26.315	889.984	721.189
261.307	26.404	889.372	720.984
262.322	26.345	888.436	719.927
263.336	26.208	887.923	718.904
264.351	25.684	887.076	716.071
265.366	24.763	884.419	710.205
266.380	24.185	883.654	707.234
267.395	25.082	884.280	711.234
268.409	25.937	884.294	714.572
269.424	25.857	883.404	713.475
270.439	26.168	883.115	714.410
271.453	26.251	882.430	714.119
272.468	26.244	881.522	713.293
273.482	26.317	881.244	713.293
274.497	26.463	881.004	713.612
275.512	26.256	880.066	711.974
276.526	25.605	878.937	708.436
277.541	25.827	878.131	708.595
278.555	26.249	878.033	710.114
279.570	26.003	877.618	708.749
280.585	25.933	876.997	707.909
281.599	26.159	875.629	707.628
282.614	26.011	876.115	707.376
283.628	25.652	874.878	704.910
284.643	25.278	873.842	702.550
285.657	25.643	874.206	704.208
286.672	25.553	872.987	702.812
287.687	25.219	871.854	700.534
288.701	25.284	872.183	700.991
289.716	25.811	871.772	702.655
290.730	25.539	870.718	700.682
291.745	25.274	870.102	699.095
292.760	25.122	869.153	697.678
293.774	25.163	868.643	697.368
294.789	26.110	869.076	701.333
295.803	26.557	869.476	703.333
296.818	26.764	868.704	703.447
297.833	26.749	868.408	703.089
298.847	26.529	867.296	701.274
299.862	26.191	866.366	699.150
300.876	26.262	865.947	699.025
301.891	26.599	865.445	699.861
302.906	26.675	865.347	700.015
303.920	26.341	864.124	697.675
304.935	26.153	863.390	696.295
305.949	26.629	862.939	697.705
306.964	26.687	862.836	697.783
307.979	26.464	862.081	696.250
308.993	26.298	861.636	695.192
310.008	26.757	861.131	696.486
311.022	26.809	860.807	696.363
312.037	26.832	860.239	695.929
313.052	26.469	859.404	693.803
314.066	26.253	858.975	692.566
315.081	25.599	857.478	688.793
316.095	24.802	856.175	684.638
317.110	25.214	856.264	686.226
318.125	26.258	856.512	690.354
319.139	25.916	855.391	688.086
320.154	24.776	853.690	682.308
321.168	24.125	852.908	679.141
322.183	24.794	853.187	681.856
323.197	25.927	853.026	685.983
324.212	26.215	852.812	686.845
325.227	26.324	852.510	686.956
326.241	26.351	852.558	687.034
327.256	26.398	851.445	686.256
328.270	26.172	851.061	685.026
329.285	26.191	850.242	684.380
330.300	26.031	849.506	683.122
331.314	25.774	848.819	681.536
332.329	25.770	848.302	681.045
333.343	26.345	847.987	682.905
334.358	26.609	847.401	683.369
335.373	26.596	846.984	682.923
336.387	26.612	846.463	682.504
337.402	26.701	846.173	682.543
338.416	26.975	846.090	683.450
339.431	26.930	845.238	682.529
340.446	26.973	844.835	682.305
341.460	27.185	844.399	682.690
342.475	27.144	843.706	681.914
343.489	26.922	843.233	680.642
344.504	26.833	842.692	679.810
345.519	27.093	842.675	680.709
346.533	27.312	842.145	681.043
347.548	27.437	841.377	680.829
348.562	27.449	841.004	680.509
349.577	27.264	840.813	679.604
350.592	27.274	839.862	678.813
351.606	27.276	839.329	678.328
352.621	27.176	839.006	677.636
353.635	27.130	838.357	676.882
354.650	27.094	837.686	676.146
355.665	26.733	836.907	674.113
356.679	25.968	834.801	669.520
357.694	25.633	834.161	667.702
358.708	26.326	834.693	670.643
359.723	26.266	833.975	669.782
360.738	26.365	833.893	670.027
361.752	26.982	833.538	671.967
362.767	26.858	833.542	671.452
363.781	27.251	833.220	672.586
364.796	27.466	833.130	673.247
365.810	27.678	832.807	673.711
366.825	27.765	832.242	673.516
367.840	27.720	832.148	673.213
368.854	27.583	831.133	671.828
369.869	27.168	830.370	669.621
370.883	27.003	829.542	668.290
371.898	27.088	829.270	668.324
372.913	27.090	828.465	667.624
373.927	26.874	827.988	666.385
374.942	27.242	827.142	666.997
375.956	27.290	826.601	666.675
376.971	27.416	826.167	666.728
377.986	27.314	826.330	666.427
379.000	27.498	825.522	666.389
380.015	27.841	824.822	667.021
381.029	27.374	824.604	665.080
382.044	27.479	823.628	664.617
383.059	27.631	823.156	664.730
384.073	27.619	822.606	664.184
385.088	27.690	822.227	664.076
386.102	27.594	821.771	663.302
387.117	27.320	820.991	661.616
388.132	27.308	820.209	660.886
389.146	27.173	819.532	659.789
390.161	26.652	818.770	657.227
391.175	26.863	818.141	657.430
392.190	27.204	818.418	658.829
393.205	27.363	817.814	658.863
394.219	26.347	816.440	654.022
395.234	24.665	814.102	646.018
396.248	23.788	812.750	641.724
397.263	24.783	813.754	646.053
398.278	26.673	815.076	653.875
399.292	27.242	815.103	655.893
400.307	26.996	814.250	654.262
401.321	26.760	813.859	653.041
402.336	26.888	813.667	653.290
403.350	27.160	813.565	654.130
404.365	27.635	813.730	655.911
405.380	28.191	812.894	657.177
406.394	28.255	812.777	657.255
407.409	28.402	812.666	657.634
408.423	28.338	812.160	656.938
409.438	28.299	811.440	656.159
410.453	28.317	811.155	655.933
411.467	28.502	810.672	656.147
412.482	28.361	809.971	655.016
413.496	28.310	809.563	654.447
414.511	28.401	809.453	654.625
415.526	28.450	808.909	654.303
416.540	28.336	808.693	653.661
417.555	28.361	808.025	653.155
418.569	27.921	807.242	650.895
419.584	27.972	806.482	650.406
420.599	28.112	806.094	650.534
421.613	94.969	1262.827	1374.388
422.628	81.502	1329.413	1374.536
