DTS Sentinel unit serial number:	SN413079Multiplexer serial number:	ORYXHardware model number:	OX4-SRSoftware version number:	ORYX F/W v4.00 Oryx Data Collector v3.7.2.0data status	okinstallation	princeton_trtdifferential loss correction	single-endedforward channel	channel 3reverse channel	N/Adate	2019/09/12time	18:29:04forward acquisition time	15.00reverse acquisition time	0.00gamma	496.2192k internal	0.2317k external	0.2317temperature offset calibration	1.0097default loss term (dB/km)	0.3790temperature slope calibration	1.0000multiplexer offset coefficient	1.0000multiplexer slope coefficient	1.0000fibre end	0.00T internal ref (°C)	33.25T ext. ref 1 (°C)	2.94T ext. ref 2 (°C)	27.91length (m)	temperature (°C)	Stokes	anti-Stokes-747.200	494.383	0.214	-0.497
-746.185	56.813	-0.441	0.435
-745.171	800.000	0.265	-0.744
-744.156	-78.019	-0.622	-0.217
-743.142	389.714	-0.385	0.808
-742.127	200.763	-0.185	0.288
-741.112	-200.000	0.117	0.906
-740.098	-200.000	-0.088	0.940
-739.083	-157.748	-0.821	-0.049
-738.069	236.662	-0.058	-0.097
-737.054	-4.568	0.120	-0.084
-736.039	385.711	-0.134	-0.281
-735.025	-179.510	-0.719	-0.016
-734.010	-112.222	-0.415	-0.084
-732.996	-107.797	0.318	-0.070
-731.981	-62.141	-0.240	-0.101
-730.966	118.752	0.314	-0.393
-729.952	-131.280	-0.296	0.040
-728.937	-7.645	-0.503	0.344
-727.923	91.320	-0.504	0.573
-726.908	8.754	-0.112	-0.085
-725.894	20.603	0.534	0.437
-724.879	-14.311	-0.373	0.243
-723.864	152.333	-0.338	-0.467
-722.850	626.245	0.184	-0.470
-721.835	95.614	0.455	-0.526
-720.821	297.433	0.082	0.153
-719.806	44.251	-1.026	-0.953
-718.791	800.000	0.122	0.530
-717.777	-83.413	-0.187	0.061
-716.762	658.270	-0.622	-1.619
-715.748	196.656	-0.482	-0.743
-714.733	19.545	-0.252	-0.205
-713.718	800.000	-0.151	-0.429
-712.704	-118.029	0.164	0.030
-711.689	-42.610	-0.595	-0.306
-710.675	-119.697	-1.155	0.202
-709.660	-200.000	0.022	0.578
-708.645	409.654	0.149	-0.319
-707.631	662.514	0.064	-0.168
-706.616	111.064	-0.153	0.186
-705.602	-200.000	-0.012	-0.413
-704.587	554.502	0.163	0.396
-703.572	-200.000	0.011	0.195
-702.558	-156.423	1.067	-0.067
-701.543	431.420	-0.293	0.641
-700.529	-200.000	-0.098	1.559
-699.514	27.395	0.252	0.214
-698.499	800.000	-0.214	-0.607
-697.485	347.888	0.245	-0.488
-696.470	-200.000	-0.017	-0.249
-695.456	-49.966	0.658	-0.316
-694.441	3.822	0.617	-0.456
-693.426	-119.343	0.729	-0.128
-692.412	-136.282	0.796	-0.094
-691.397	-155.003	-0.155	-0.010
-690.383	294.980	0.296	-0.548
-689.368	-78.490	0.112	-0.039
-688.354	-27.639	-0.387	-0.227
-687.339	105.373	0.396	-0.472
-686.324	22.464	-0.586	0.484
-685.310	255.307	0.397	-0.688
-684.295	-23.688	0.512	-0.310
-683.281	-8.395	-0.177	0.121
-682.266	17.207	0.400	0.320
-681.251	-51.686	0.379	-0.178
-680.237	190.964	-0.274	-0.416
-679.222	106.372	-0.445	-0.532
-678.208	-154.987	-0.807	0.054
-677.193	388.451	0.355	-0.741
-676.178	123.549	0.093	0.118
-675.164	-18.528	-0.267	0.168
-674.149	-200.000	0.168	0.804
-673.135	151.583	-0.239	0.329
-672.120	161.622	0.409	-0.578
-671.105	402.891	-0.524	-1.112
-670.091	-4.607	0.618	-0.431
-669.076	800.000	0.087	-0.340
-668.062	-100.206	-1.110	0.279
-667.047	302.075	-0.192	0.358
-666.032	-83.110	0.416	-0.135
-665.018	369.178	-0.367	-0.750
-664.003	-200.000	0.104	-0.511
-662.989	-168.856	0.758	-0.029
-661.974	-68.128	-0.284	0.111
-660.959	-200.000	-0.225	-1.147
-659.945	286.082	0.370	-0.674
-658.930	276.384	0.172	-0.309
-657.916	125.913	0.337	-0.430
-656.901	-32.687	-0.280	-0.157
-655.886	558.792	-0.243	-0.593
-654.872	-24.121	-0.168	-0.101
-653.857	227.003	0.207	-0.340
-652.843	106.751	0.123	0.147
-651.828	5.983	0.339	-0.253
-650.814	800.000	0.108	0.414
-649.799	764.316	-0.056	-0.154
-648.784	-48.855	-0.625	0.302
-647.770	48.784	-0.597	0.565
-646.755	15.074	0.929	-0.734
-645.741	193.767	0.363	-0.554
-644.726	-122.383	0.391	-0.064
-643.711	-200.000	-0.071	0.585
-642.697	695.833	0.124	-0.327
-641.682	800.000	-0.322	-0.921
-640.668	372.628	-0.133	-0.272
-639.653	-29.443	-0.067	-0.038
-638.638	623.960	0.366	0.929
-637.624	-75.092	-0.434	-0.157
-636.609	185.558	-0.183	0.274
-635.595	104.161	0.104	0.123
-634.580	343.166	-0.305	-0.601
-633.565	69.664	-0.308	-0.320
-632.551	-200.000	0.001	-0.217
-631.536	-40.386	0.552	0.289
-630.522	38.871	0.547	0.493
-629.507	125.321	-0.305	-0.387
-628.492	-71.715	-0.218	0.082
-627.478	19.910	0.297	0.241
-626.463	389.219	0.076	0.158
-625.449	11.245	0.669	0.516
-624.434	301.103	-0.134	0.249
-623.419	-105.914	-0.375	0.085
-622.405	-71.113	1.144	-0.433
-621.390	-38.930	0.855	-0.454
-620.376	11.787	0.311	-0.241
-619.361	380.514	-0.228	0.470
-618.346	111.819	-0.362	0.440
-617.332	-161.757	-0.511	0.026
-616.317	-63.173	-0.451	0.187
-615.303	152.172	0.088	-0.121
-614.288	13.887	-0.240	0.188
-613.273	75.137	0.213	0.226
-612.259	-109.068	-0.313	0.067
-611.244	-58.882	-0.351	0.153
-610.230	-19.665	0.656	0.409
-609.215	-109.390	0.848	-0.181
-608.201	-160.247	0.839	0.046
-607.186	800.000	0.066	-0.203
-606.171	-37.791	-0.110	-0.059
-605.157	558.666	-0.271	0.659
-604.142	45.710	-0.529	-0.492
-603.128	800.000	-0.107	0.355
-602.113	-103.731	-0.350	-0.083
-601.098	-105.551	-0.525	-0.120
-600.084	-169.366	-0.333	-0.012
-599.069	-53.455	0.502	-0.231
-598.055	-173.458	0.402	-0.012
-597.040	341.974	-0.454	0.894
-596.025	224.180	0.454	-0.739
-595.011	800.000	-0.091	0.356
-593.996	800.000	0.126	0.433
-592.982	800.000	-0.044	0.185
-591.967	75.237	0.190	-0.201
-590.952	800.000	0.179	0.652
-589.938	-85.527	0.120	-0.038
-588.923	-130.340	0.500	-0.068
-587.909	-84.485	0.245	-0.078
-586.894	167.283	0.142	0.204
-585.879	-114.489	0.178	0.034
-584.865	337.903	-0.271	0.531
-583.850	-200.000	0.168	0.814
-582.836	160.410	-0.159	-0.223
-581.821	55.378	0.420	-0.409
-580.806	-144.781	-0.689	-0.064
-579.792	-98.477	-0.136	0.035
-578.777	179.550	0.378	-0.558
-577.763	-109.246	-0.408	-0.087
-576.748	623.543	0.346	-0.876
-575.733	-43.483	0.358	0.182
-574.719	43.100	0.378	0.347
-573.704	-200.000	0.018	0.497
-572.690	-200.000	0.035	-0.783
-571.675	139.349	-0.577	0.764
-570.661	-21.913	0.307	-0.187
-569.646	713.354	-0.082	-0.220
-568.631	800.000	0.157	-0.467
-567.617	800.000	0.164	0.495
-566.602	431.769	-0.191	0.416
-565.588	-200.000	0.010	0.815
-564.573	56.436	-0.399	-0.390
-563.558	227.035	-0.200	0.327
-562.544	-52.694	-0.417	-0.194
-561.529	28.467	-0.416	0.354
-560.515	-27.465	-0.722	-0.422
-559.500	786.985	-0.280	0.772
-558.485	132.001	0.489	-0.633
-557.471	-166.642	-0.636	-0.027
-556.456	-200.000	-0.062	0.341
-555.442	79.896	-0.283	-0.305
-554.427	-200.000	-0.088	-0.522
-553.412	800.000	-0.267	-0.746
-552.398	13.406	-0.130	-0.101
-551.383	223.389	0.180	-0.292
-550.369	800.000	-0.207	-0.688
-549.354	-106.633	0.410	-0.092
-548.339	284.842	0.145	-0.262
-547.325	9.779	0.618	-0.471
-546.310	70.512	0.714	0.741
-545.296	-91.791	-0.704	0.201
-544.281	800.000	-0.218	0.854
-543.266	-74.634	-0.337	-0.122
-542.252	648.128	-0.165	-0.423
-541.237	-29.885	0.257	0.147
-540.223	-33.613	-0.100	-0.055
-539.208	-200.000	0.097	0.626
-538.193	-200.000	-0.040	0.346
-537.179	27.795	-0.449	-0.380
-536.164	2.122	0.349	0.253
-535.150	56.951	0.591	0.578
-534.135	-106.605	-0.267	-0.060
-533.121	800.000	0.030	-0.088
-532.106	-162.526	0.373	0.019
-531.091	-101.892	-0.499	0.121
-530.077	-43.420	-0.434	-0.220
-529.062	200.256	0.093	-0.143
-528.048	800.000	0.149	-0.478
-527.033	132.874	0.124	-0.161
-526.018	-200.000	-0.110	-0.705
-525.004	84.824	0.615	-0.676
-523.989	137.541	-0.164	-0.216
-522.975	691.791	-0.185	-0.486
-521.960	-200.000	0.212	1.472
-520.945	-166.294	0.146	-0.006
-519.931	-56.863	0.463	0.205
-518.916	-158.009	-0.553	-0.033
-517.902	60.895	0.129	-0.128
-516.887	-51.017	-0.893	-0.421
-515.872	22.767	0.683	0.562
-514.858	-100.416	0.442	-0.110
-513.843	-200.000	0.010	0.556
-512.829	800.000	-0.105	-0.414
-511.814	-200.000	0.147	-0.667
-510.799	-200.000	-0.067	-0.472
-509.785	46.293	-0.413	0.384
-508.770	800.000	0.071	-0.221
-507.756	82.858	0.271	0.296
-506.741	183.830	0.290	0.431
-505.726	-200.000	-0.667	-0.002
-504.712	-125.097	0.810	-0.125
-503.697	52.200	-0.087	-0.083
-502.683	-200.000	-0.023	-0.103
-501.668	800.000	0.219	0.659
-500.653	800.000	0.213	0.686
-499.639	105.430	0.329	-0.390
-498.624	-173.955	-0.351	0.010
-497.610	-110.730	0.374	-0.078
-496.595	800.000	-0.098	0.292
-495.581	97.051	0.121	0.140
-494.566	-200.000	-0.151	0.738
-493.551	800.000	0.075	0.310
-492.537	-146.585	0.374	0.033
-491.522	-152.325	0.129	0.009
-490.508	-157.427	-0.596	0.036
-489.493	31.618	-0.390	-0.336
-488.478	501.588	0.414	0.958
-487.464	-116.341	0.214	0.040
-486.449	-200.000	-0.013	0.678
-485.435	-100.466	-0.565	-0.140
-484.420	-200.000	-0.124	0.874
-483.405	-127.775	0.275	0.040
-482.391	245.282	0.425	0.716
-481.376	800.000	-0.052	0.162
-480.362	128.299	-0.435	0.555
-479.347	288.951	-0.199	0.362
-478.332	82.347	0.718	-0.780
-477.318	-14.204	0.177	-0.114
-476.303	-7.535	-0.422	-0.286
-475.289	-75.117	0.607	0.218
-474.274	-96.426	-0.460	0.122
-473.259	-200.000	0.016	-0.612
-472.245	800.000	0.181	-0.761
-471.230	-33.994	0.476	-0.262
-470.216	128.007	-0.133	-0.170
-469.201	-155.195	-0.283	0.019
-468.186	67.112	-0.371	0.379
-467.172	380.992	0.503	-1.033
-466.157	-97.667	-0.311	0.081
-465.143	75.949	-0.289	-0.306
-464.128	-200.000	-0.014	0.283
-463.113	135.011	0.217	-0.282
-462.099	134.063	-0.132	0.172
-461.084	-97.432	0.856	-0.223
-460.070	83.546	0.350	-0.383
-459.055	800.000	0.061	0.253
-458.040	154.515	0.199	0.274
-457.026	55.202	0.366	0.355
-456.011	171.290	-0.424	-0.610
-454.997	-200.000	-0.006	-0.066
-453.982	-133.083	-0.696	-0.088
-452.968	-83.391	-0.271	-0.087
-451.953	214.509	-0.252	0.400
-450.938	-200.000	0.081	0.742
-449.924	-130.647	0.671	0.090
-448.909	721.633	-0.276	-0.734
-447.895	12.587	-0.251	-0.194
-446.880	-166.029	0.297	0.013
-445.865	-200.000	0.048	0.306
-444.851	173.433	-0.479	-0.692
-443.836	-200.000	-0.091	-0.689
-442.822	33.312	-0.685	-0.595
-441.807	-200.000	0.016	-0.180
-440.792	-84.815	-0.043	0.014
-439.778	-117.908	-0.519	-0.093
-438.763	34.384	-0.310	-0.271
-437.749	59.877	-0.256	-0.253
-436.734	800.000	-0.348	1.118
-435.719	-126.772	0.841	-0.124
-434.705	132.724	-0.212	0.273
-433.690	21.147	-0.323	0.263
-432.676	-135.463	-0.464	-0.055
-431.661	54.537	0.717	-0.691
-430.646	488.906	-0.246	0.563
-429.632	-109.479	0.873	-0.185
-428.617	136.554	0.235	-0.306
-427.603	-104.317	0.308	-0.071
-426.588	657.665	0.130	-0.335
-425.573	-200.000	-0.029	-0.186
-424.559	-55.906	0.145	0.065
-423.544	80.689	0.431	0.465
-422.530	-200.000	0.121	-0.746
-421.515	800.000	-0.039	0.109
-420.500	-200.000	-0.061	0.543
-419.486	800.000	-0.360	-1.066
-418.471	547.564	-0.207	0.496
-417.457	66.061	0.316	0.320
-416.442	-17.887	-0.305	0.191
-415.428	-118.799	0.431	0.076
-414.413	25.470	0.334	0.278
-413.398	-125.055	0.251	-0.039
-412.384	-1.716	-0.062	0.044
-411.369	-114.751	0.792	-0.151
-410.355	-98.706	0.934	0.238
-409.340	131.882	-0.278	0.357
-408.325	-25.214	0.134	-0.079
-407.311	161.412	0.288	0.403
-406.296	-200.000	-0.059	-0.418
-405.282	-61.014	0.710	-0.300
-404.267	357.015	0.361	-0.719
-403.252	-7.898	0.334	0.225
-402.238	50.538	0.336	0.317
-401.223	-200.000	-0.038	-0.207
-400.209	171.954	-0.113	0.162
-399.194	-200.000	0.035	-0.244
-398.179	48.553	-0.559	-0.523
-397.165	-57.755	0.368	0.161
-396.150	-67.708	0.704	-0.275
-395.136	800.000	-0.131	0.565
-394.121	-103.525	-0.230	0.054
-393.106	438.270	0.160	-0.348
-392.092	-200.000	-0.015	-0.340
-391.077	54.714	0.132	0.127
-390.063	139.153	-0.214	0.281
-389.048	800.000	-0.021	-0.076
-388.033	165.744	-0.313	-0.442
-387.019	-200.000	0.041	-0.449
-386.004	437.332	0.055	-0.121
-384.990	239.055	-0.027	-0.046
-383.975	-127.647	0.798	-0.115
-382.960	-23.374	-0.034	-0.020
-381.946	-200.000	-0.105	-0.523
-380.931	-36.432	-0.329	-0.177
-379.917	-200.000	-0.029	-0.159
-378.902	344.163	-0.329	-0.645
-377.888	800.000	-0.180	0.625
-376.873	-15.739	0.294	-0.187
-375.858	-116.740	0.419	0.077
-374.844	-200.000	-0.423	0.002
-373.829	437.780	-0.314	-0.684
-372.815	-200.000	0.127	-1.040
-371.800	69.850	0.400	0.412
-370.785	281.223	0.108	0.192
-369.771	147.157	0.333	0.448
-368.756	49.840	0.336	0.316
-367.742	800.000	0.118	0.384
-366.727	-80.088	-0.383	0.128
-365.712	-168.964	0.292	0.011
-364.698	-200.000	-0.064	-0.874
-363.683	157.379	0.572	0.790
-362.669	13.984	0.474	0.368
-361.654	-35.168	-0.347	-0.188
-360.639	151.183	-0.406	-0.551
-359.625	-200.000	-0.051	-1.148
-358.610	-164.178	-0.339	0.016
-357.596	151.326	-0.237	0.322
-356.581	-102.640	0.414	-0.098
-355.566	89.775	-0.417	-0.464
-354.552	323.845	-0.380	0.722
-353.537	89.049	-0.518	-0.575
-352.523	-81.888	0.670	-0.219
-351.508	-200.000	0.049	-0.325
-350.493	-114.644	0.397	0.076
-349.479	-122.052	-0.721	0.118
-348.464	81.490	0.228	-0.246
-347.450	62.132	0.062	-0.061
-346.435	63.451	-0.542	0.542
-345.420	248.968	-0.405	-0.685
-344.406	-0.074	-0.456	-0.324
-343.391	-11.039	-0.624	0.410
-342.377	-200.000	0.055	-0.363
-341.362	91.150	0.083	-0.093
-340.348	-200.000	0.004	0.538
-339.333	-103.490	0.848	0.199
-338.318	7.898	0.217	0.162
-337.304	155.404	-0.717	-0.983
-336.289	-124.508	-0.681	0.106
-335.275	227.322	0.497	-0.804
-334.260	-200.000	0.020	-0.302
-333.245	-165.858	0.745	-0.032
-332.231	-200.000	0.007	-0.218
-331.216	450.614	-0.424	-0.932
-330.202	-200.000	-0.128	-1.329
-329.187	-91.825	-0.930	-0.263
-328.172	685.922	-0.137	-0.355
-327.158	58.112	0.316	0.308
-326.143	-200.000	0.032	-0.342
-325.129	800.000	-0.018	0.074
-324.114	66.923	0.694	0.704
-323.099	-137.175	-0.164	-0.019
-322.085	-122.782	-0.394	-0.063
-321.070	-112.961	-0.356	-0.070
-320.056	127.495	-0.149	0.188
-319.041	197.223	-0.727	1.104
-318.026	-23.414	0.237	-0.142
-317.012	-200.000	-0.065	0.331
-315.997	-200.000	-0.079	0.811
-314.983	91.391	0.617	-0.690
-313.968	33.389	-0.693	-0.599
-312.953	-0.419	0.065	-0.046
-311.939	-162.104	-0.833	0.042
-310.924	57.957	0.216	0.210
-309.910	-200.000	0.043	0.458
-308.895	-200.000	-0.174	0.805
-307.880	113.050	-0.180	0.217
-306.866	-200.000	-0.045	0.237
-305.851	-145.425	-0.546	0.049
-304.837	186.222	-0.421	0.623
-303.822	-200.000	0.036	-0.419
-302.807	-60.285	-0.132	0.056
-301.793	608.643	0.044	-0.110
-300.778	-200.000	-0.015	-0.289
-299.764	351.628	0.427	-0.842
-298.749	94.162	-0.157	-0.177
-297.735	128.216	-0.364	-0.461
-296.720	-99.445	-0.074	-0.019
-295.705	19.054	-0.390	0.312
-294.691	163.871	-0.341	0.477
-293.676	-71.192	0.632	-0.236
-292.662	-200.000	0.042	-0.402
-291.647	-200.000	0.013	0.173
-290.632	-123.297	-0.292	0.046
-289.618	-200.000	0.103	-1.477
-288.603	-29.882	-0.286	-0.162
-287.589	12.512	0.412	-0.316
-286.574	185.334	-0.391	0.578
-285.559	734.683	-0.097	0.259
-284.545	735.960	0.086	-0.230
-283.530	12.949	0.401	0.309
-282.516	800.000	0.111	0.411
-281.501	308.258	-0.300	-0.557
-280.486	-200.000	-0.060	-0.506
-279.472	87.790	-0.351	0.387
-278.457	-200.000	-0.244	1.068
-277.443	-74.378	-0.130	-0.047
-276.428	338.545	-0.164	0.317
-275.413	-200.000	-0.057	-0.496
-274.399	54.443	0.024	0.023
-273.384	-200.000	-0.095	-0.887
-272.370	-84.454	0.546	-0.172
-271.355	-22.660	0.673	-0.404
-270.340	800.000	-0.137	0.510
-269.326	-200.000	-0.045	0.349
-268.311	2.894	-0.590	0.426
-267.297	-121.922	0.327	-0.054
-266.282	129.336	0.275	0.349
-265.267	-97.379	-0.817	0.211
-264.253	-65.099	0.469	0.188
-263.238	530.360	-0.229	-0.537
-262.224	84.479	-0.508	0.552
-261.209	-146.834	-0.688	0.059
-260.195	800.000	-0.166	-0.554
-259.180	52.564	-0.187	-0.177
-258.165	337.875	-0.302	-0.583
-257.151	-200.000	-0.056	-0.420
-256.136	-200.000	-0.129	-0.589
-255.122	-98.818	-0.288	0.073
-254.107	-27.898	0.430	-0.248
-253.092	-88.666	-0.642	0.190
-252.078	-11.111	0.214	-0.140
-251.063	-140.373	0.477	0.049
-250.049	-57.896	-0.395	0.171
-249.034	-35.220	-0.882	0.477
-248.019	290.864	0.208	0.376
-247.005	-110.998	0.493	-0.101
-245.990	33.935	-0.409	-0.354
-244.976	238.297	-0.277	0.457
-243.961	197.970	-0.302	-0.458
-242.946	-32.193	0.533	0.296
-241.932	-50.990	0.113	0.053
-240.917	29.141	-0.095	0.080
-239.903	-26.396	0.797	0.464
-238.888	63.280	-0.333	0.331
-237.873	442.778	0.197	0.429
-236.859	-200.000	0.085	-0.552
-235.844	-127.215	0.705	-0.102
-234.830	-56.834	-0.276	0.121
-233.815	-200.000	-0.067	-0.586
-232.800	231.113	0.391	-0.636
-231.786	-117.953	-0.534	-0.095
-230.771	-193.859	0.747	0.006
-229.757	71.191	-0.207	0.214
-228.742	800.000	-0.217	-0.680
-227.727	585.983	0.114	0.278
-226.713	82.934	0.220	0.237
-225.698	-4.785	-0.639	0.437
-224.684	373.935	-0.136	-0.275
-223.669	679.713	0.194	0.501
-222.655	-111.662	-0.541	-0.109
-221.640	-22.439	0.609	0.366
-220.625	-150.195	0.594	-0.046
-219.611	30.583	0.472	-0.400
-218.596	-146.093	-0.718	-0.063
-217.582	-7.678	0.702	-0.471
-216.567	-200.000	-0.014	-0.079
-215.552	108.890	0.316	-0.375
-214.538	-51.098	0.534	-0.248
-213.523	-102.700	-0.429	0.101
-212.509	426.331	-0.261	0.559
-211.494	-52.883	0.034	-0.016
-210.479	-30.701	-0.503	0.282
-209.465	64.401	-0.620	0.620
-208.450	753.995	-0.074	-0.198
-207.436	-147.835	0.563	0.047
-206.421	800.000	-0.294	0.958
-205.406	-5.119	0.612	-0.418
-204.392	74.501	-0.160	0.167
-203.377	-155.739	-0.595	0.038
-202.363	-200.000	0.006	0.273
-201.348	18.346	1.032	-0.817
-200.333	136.935	-0.262	0.339
-199.319	-71.878	-0.488	-0.180
-198.304	-80.337	-0.330	-0.109
-197.290	800.000	0.228	0.632
-196.275	23.175	-0.455	-0.370
-195.260	800.000	0.267	0.882
-194.246	149.041	0.382	0.512
-193.231	-200.000	-0.153	0.701
-192.217	171.005	-0.148	0.211
-191.202	69.901	-0.117	-0.119
-190.187	53.858	0.180	0.172
-189.173	-84.790	0.997	-0.311
-188.158	-200.000	-0.087	0.513
-187.144	-200.000	-0.031	-0.551
-186.129	-200.000	-0.065	1.238
-185.114	84.773	0.137	0.148
-184.100	133.750	-0.242	-0.310
-183.085	-59.145	0.159	0.068
-182.071	158.696	0.178	-0.245
-181.056	-200.000	0.058	-0.724
-180.042	-96.639	0.928	0.242
-179.027	317.928	0.362	0.678
-178.012	-200.000	-0.042	-0.334
-176.998	-200.000	0.114	1.051
-175.983	-146.843	-0.263	0.022
-174.969	137.429	-0.397	0.515
-173.954	800.000	0.182	0.549
-172.939	62.169	-0.805	0.795
-171.925	800.000	-0.188	0.664
-170.910	-77.212	-0.426	0.147
-169.896	800.000	0.248	-0.750
-168.881	-200.000	-0.090	-0.443
-167.866	6.540	-0.862	-0.634
-166.852	61.329	-0.402	0.395
-165.837	72.575	0.487	0.503
-164.823	280.177	0.453	-0.801
-163.808	-32.054	0.670	0.371
-162.793	286.811	-0.137	0.244
-161.779	111.051	-0.275	0.327
-160.764	58.485	0.451	-0.438
-159.750	-16.771	0.164	-0.103
-158.735	89.855	-0.434	-0.480
-157.720	606.165	0.360	0.887
-156.706	-1.596	0.293	0.204
-155.691	-92.733	-0.547	0.152
-154.677	-127.263	-0.544	-0.079
-153.662	-200.000	-0.042	0.232
-152.647	-29.812	-0.241	0.136
-151.633	-109.643	0.632	-0.132
-150.618	800.000	0.016	0.047
-149.604	81.787	0.132	0.141
-148.589	136.205	-0.404	-0.521
-147.574	-148.800	-0.263	0.021
-146.560	-10.853	0.431	0.282
-145.545	-200.000	-0.022	-0.284
-144.531	2.579	-0.416	-0.298
-143.516	-36.816	0.606	-0.322
-142.502	-71.617	0.445	-0.164
-141.487	-108.238	0.140	-0.030
-140.472	-200.000	-0.031	0.384
-139.458	-116.969	-0.349	0.063
-138.443	497.451	-0.070	-0.160
-137.429	800.000	0.057	-0.162
-136.414	800.000	-0.065	-0.222
-135.399	225.848	0.397	-0.636
-134.385	521.791	-0.047	-0.108
-133.370	448.178	-0.365	0.796
-132.356	76.751	-0.534	0.560
-131.341	32.384	0.320	0.273
-130.326	28.680	0.256	-0.214
-129.312	-87.550	0.284	-0.085
-128.297	124.413	0.445	-0.554
-127.283	16.808	0.447	0.350
-126.268	-200.000	-0.048	0.939
-125.253	-200.000	-0.016	0.680
-124.239	239.355	0.387	0.636
-123.224	212.480	0.431	0.672
-122.210	-122.466	-0.264	0.043
-121.195	783.965	0.142	0.384
-120.180	-178.661	0.313	0.007
-119.166	310.149	0.190	-0.351
-118.151	-42.218	0.776	-0.392
-117.137	-200.000	0.063	0.377
-116.122	-200.000	-0.150	1.086
-115.107	69.754	-0.995	-1.013
-114.093	138.913	0.563	-0.731
-113.078	78.428	0.363	0.383
-112.064	149.745	0.469	-0.628
-111.049	800.000	0.058	0.182
-110.034	48.231	0.368	-0.340
-109.020	-26.326	0.571	0.331
-108.005	-80.117	0.499	-0.165
-106.991	-56.672	0.880	-0.385
-105.976	-200.000	-0.099	-0.928
-104.962	-154.344	-0.616	-0.041
-103.947	-81.305	-0.714	0.233
-102.932	800.000	-0.340	1.336
-101.918	206.652	-0.295	-0.454
-100.903	-31.713	0.304	-0.168
-99.889	-96.916	0.340	-0.088
-98.874	132.534	0.308	-0.392
-97.859	-118.013	-0.540	-0.095
-96.845	379.480	-0.148	-0.299
-95.830	-123.220	-0.375	0.059
-94.816	800.000	0.339	-1.114
-93.801	188.784	0.448	-0.662
-92.786	-200.000	-0.013	0.138
-91.772	-54.765	0.937	-0.418
-90.757	-76.440	0.635	0.220
-89.743	-96.699	-0.127	-0.033
-88.728	-200.000	0.094	0.499
-87.713	101.344	0.512	-0.588
-86.699	-200.000	0.108	0.761
-85.684	373.819	0.299	0.600
-84.670	-200.000	-0.173	0.961
-83.655	364.281	0.228	-0.452
-82.640	-200.000	-0.047	-0.750
-81.626	392.476	-0.112	-0.230
-80.611	-200.000	0.043	-0.351
-79.597	294.023	0.233	0.419
-78.582	-200.000	-0.008	0.434
-77.567	-77.896	-0.425	-0.145
-76.553	19.177	0.290	0.230
-75.538	-55.036	-0.607	0.270
-74.524	238.096	-0.519	0.849
-73.509	-101.898	0.304	0.072
-72.494	-72.994	0.885	-0.321
-71.480	-92.444	0.784	-0.218
-70.465	-79.476	-0.083	0.028
-69.451	-200.000	-0.034	0.410
-68.436	154.324	-0.347	0.469
-67.422	-13.724	-0.472	0.301
-66.407	41.413	0.785	-0.701
-65.392	800.000	-0.046	0.173
-64.378	-200.000	-0.015	-0.404
-63.363	800.000	0.205	-0.736
-62.349	53.783	-0.240	0.228
-61.334	-75.337	-0.745	-0.262
-60.319	180.187	0.563	0.814
-59.305	-73.075	-0.179	0.065
-58.290	246.307	0.582	0.967
-57.276	193.417	1.414	2.109
-56.261	-200.000	94.158	566.443
-55.246	652.560	1363.979	3446.366
-54.232	200.385	2535.273	3839.395
-53.217	118.442	2151.497	2616.552
-52.203	43.571	1700.428	1532.622
-51.188	36.453	1513.099	1315.475
-50.173	34.105	1486.818	1276.837
-49.159	54.197	1538.842	1459.167
-48.144	55.341	1555.696	1482.902
-47.130	36.530	1514.208	1316.756
-46.115	33.337	1499.601	1282.410
-45.100	33.266	1495.511	1278.385
-44.086	33.240	1494.748	1277.508
-43.071	33.066	1492.829	1274.642
-42.057	32.967	1490.956	1272.326
-41.042	33.265	1489.996	1273.461
-40.027	33.266	1487.791	1271.535
-39.013	32.990	1487.608	1269.472
-37.998	33.301	1485.623	1269.811
-36.984	33.157	1485.478	1268.674
-35.969	33.111	1484.475	1267.457
-34.954	33.111	1482.138	1265.414
-33.940	33.513	1480.234	1266.423
-32.925	33.168	1479.572	1263.503
-31.911	33.318	1477.599	1262.768
-30.896	33.390	1475.707	1261.583
-29.881	33.356	1475.022	1260.720
-28.867	33.245	1473.757	1258.849
-27.852	33.361	1472.041	1258.106
-26.838	33.169	1471.430	1256.253
-25.823	33.682	1467.923	1256.609
-24.809	33.292	1467.215	1253.373
-23.794	33.174	1466.945	1252.308
-22.779	33.401	1464.102	1251.337
-21.765	33.218	1464.650	1250.544
-20.750	33.190	1463.100	1248.984
-19.736	33.496	1460.942	1249.112
-18.721	33.311	1460.815	1247.736
-17.706	33.088	1460.246	1245.727
-16.692	33.221	1458.986	1245.477
-15.677	33.434	1456.026	1244.300
-14.663	33.105	1457.342	1243.215
-13.648	33.156	1455.827	1242.206
-12.633	33.223	1454.842	1241.758
-11.619	33.368	1453.498	1241.513
-10.604	33.107	1453.334	1239.614
-9.590	33.404	1451.760	1240.166
-8.575	33.394	1450.527	1238.999
-7.560	33.292	1449.474	1237.386
-6.546	33.183	1449.723	1236.834
-5.531	32.821	1449.434	1234.170
-4.517	32.925	1447.981	1233.560
-3.502	33.011	1447.578	1233.729
-2.487	33.011	1445.826	1232.191
-1.473	32.964	1444.990	1231.120
-0.458	33.189	1442.547	1230.454
0.556	34.280	1433.597	1219.922
1.571	31.072	1408.544	1178.272
2.586	27.360	1348.578	1105.508
3.600	25.606	1267.343	1028.800
4.615	24.137	1221.601	983.474
5.629	20.661	1164.670	919.227
6.644	11.661	1078.549	806.942
7.659	4.317	1038.229	741.705
8.673	3.097	1032.407	731.676
9.688	2.826	1029.438	728.220
10.702	2.989	1027.271	727.399
11.717	2.848	1025.313	725.282
12.731	5.931	1028.915	742.364
13.746	15.154	1042.705	796.275
14.761	23.182	1051.925	841.586
15.775	25.511	1053.150	853.564
16.790	25.538	1052.294	852.923
17.804	24.941	1053.422	850.926
18.819	24.900	1051.789	849.338
19.834	25.178	1050.467	849.509
20.848	25.042	1050.415	848.747
21.863	25.363	1050.992	850.663
22.877	25.224	1049.235	848.509
23.892	25.118	1049.062	847.790
24.907	25.050	1048.409	846.866
25.921	25.174	1047.569	846.700
26.936	25.099	1047.063	845.859
27.950	25.214	1044.981	844.647
28.965	25.112	1044.926	844.045
29.980	24.713	1044.082	841.412
30.994	24.944	1043.080	841.618
32.009	25.145	1042.064	841.664
33.023	25.230	1040.938	841.079
34.038	25.113	1040.321	839.960
35.053	25.001	1039.331	838.563
36.067	25.337	1037.772	838.798
37.082	25.045	1037.401	837.060
38.096	25.033	1037.649	837.131
39.111	24.986	1036.998	836.311
40.126	25.454	1035.267	837.023
41.140	25.072	1034.414	834.481
42.155	24.843	1033.626	832.704
43.169	24.669	1031.770	830.329
44.184	24.472	1032.100	829.605
45.199	24.736	1029.946	829.024
46.213	24.741	1029.398	828.536
47.228	24.525	1028.382	826.645
48.242	25.211	1027.476	829.013
49.257	25.217	1027.577	829.051
50.271	25.097	1027.295	828.195
51.286	25.225	1025.836	827.535
52.301	25.309	1024.823	827.033
53.315	25.386	1024.771	827.270
54.330	25.375	1023.599	826.203
55.344	24.922	1023.096	823.639
56.359	25.030	1022.328	823.441
57.374	24.808	1022.237	822.277
58.388	24.951	1020.915	821.797
59.403	25.088	1019.143	820.928
60.417	24.747	1018.441	818.729
61.432	24.825	1018.745	819.255
62.447	24.696	1018.408	818.323
63.461	25.144	1016.738	818.956
64.476	25.069	1016.547	818.385
65.490	24.842	1015.408	816.362
66.505	24.918	1014.004	815.506
67.520	25.173	1013.461	816.160
68.534	24.686	1013.188	813.648
69.549	25.023	1011.773	813.971
70.563	24.684	1011.195	811.899
71.578	24.481	1010.124	810.042
72.593	24.057	1009.361	807.436
73.607	24.151	1008.437	807.051
74.622	24.294	1006.948	806.437
75.636	24.788	1006.361	808.125
76.651	24.723	1005.856	807.357
77.666	24.742	1005.321	806.942
78.680	24.630	1004.350	805.587
79.695	24.372	1004.666	804.603
80.709	24.547	1003.709	804.557
81.724	24.784	1002.499	804.581
82.739	24.685	1001.885	803.569
83.753	25.000	1000.168	803.537
84.768	25.299	1000.164	804.802
85.782	25.474	999.562	805.033
86.797	25.589	999.078	805.086
87.812	25.536	998.796	804.550
88.826	25.423	997.473	802.906
89.841	25.626	996.982	803.348
90.855	25.343	996.784	801.856
91.870	25.659	994.298	801.189
92.884	25.667	994.922	801.656
93.899	25.387	994.509	800.006
94.914	25.286	993.177	798.414
95.928	25.602	992.152	798.924
96.943	25.295	991.593	797.040
97.957	25.191	990.379	795.533
98.972	25.145	989.835	794.822
99.987	25.104	988.274	793.318
101.001	25.260	987.160	793.043
102.016	25.451	987.663	794.219
103.030	25.150	987.897	793.007
104.045	25.367	985.893	792.285
105.060	25.241	984.664	790.672
106.074	25.214	984.019	789.967
107.089	25.190	982.979	788.957
108.103	25.253	980.955	787.537
109.118	25.194	981.110	787.335
110.133	25.038	980.405	786.015
111.147	25.099	979.114	785.175
112.162	25.134	977.805	784.213
113.176	24.916	976.162	781.870
114.191	24.806	976.515	781.604
115.206	24.818	975.245	780.572
116.220	24.900	973.983	779.850
117.235	24.801	973.412	778.893
118.249	24.664	973.682	778.444
119.264	24.488	972.110	776.352
120.279	24.461	970.813	775.131
121.293	24.439	970.351	774.598
122.308	24.765	969.035	774.891
123.322	24.475	969.380	773.843
124.337	24.614	967.710	773.039
125.352	24.286	967.937	771.733
126.366	24.472	965.904	770.848
127.381	24.136	964.077	767.873
128.395	24.410	964.713	769.495
129.410	25.025	964.470	771.883
130.424	25.155	962.759	771.006
131.439	25.161	962.109	770.442
132.454	25.196	961.271	769.854
133.468	24.967	961.105	768.667
134.483	25.301	959.261	768.557
135.497	25.218	958.603	767.606
136.512	25.130	958.305	766.922
137.527	25.240	958.093	767.155
138.541	25.480	957.201	767.398
139.556	25.167	956.923	765.773
140.570	25.524	955.574	766.146
141.585	25.481	955.550	765.876
142.600	25.521	954.626	765.239
143.614	25.326	953.929	763.781
144.629	25.423	953.204	763.546
145.643	25.798	952.568	764.562
146.658	25.867	951.414	763.860
147.673	25.405	950.226	760.881
148.687	25.289	948.576	759.005
149.702	25.150	947.731	757.673
150.716	25.087	946.767	756.569
151.731	25.199	945.377	755.861
152.746	25.142	944.814	755.105
153.760	25.567	944.387	756.486
154.775	25.401	943.782	755.236
155.789	25.757	942.408	755.567
156.804	25.672	942.065	754.866
157.819	25.523	941.059	753.370
158.833	25.678	940.580	753.569
159.848	25.809	940.542	754.021
160.862	25.685	940.122	753.098
161.877	25.804	938.183	751.973
162.892	25.557	937.420	750.264
163.906	25.755	936.907	750.616
164.921	25.393	936.574	748.772
165.935	25.261	936.130	747.801
166.950	25.168	934.568	746.102
167.964	25.372	933.477	746.013
168.979	25.284	933.014	745.209
169.994	25.541	930.568	744.255
171.008	25.458	929.460	742.958
172.023	25.541	929.523	743.287
173.037	25.493	929.293	742.841
174.052	25.726	928.281	742.927
175.067	25.527	927.100	741.097
176.081	25.395	925.987	739.595
177.096	25.374	925.347	738.933
178.110	25.270	924.681	737.908
179.125	25.133	923.195	736.093
180.140	24.893	923.296	735.124
181.154	24.867	922.380	734.223
182.169	25.108	921.574	734.504
183.183	25.333	921.407	735.228
184.198	25.380	921.596	735.506
185.213	25.477	920.421	734.901
186.227	25.508	919.945	734.580
187.242	25.602	919.298	734.385
188.256	25.659	918.808	734.160
189.271	25.878	917.554	733.984
190.286	25.572	916.758	732.037
191.300	25.567	916.575	731.806
192.315	25.411	915.958	730.615
193.329	24.512	913.870	725.236
194.344	24.299	912.270	723.037
195.359	24.963	911.501	725.052
196.373	25.501	912.988	728.353
197.388	25.545	912.973	728.456
198.402	25.637	912.596	728.461
199.417	26.122	911.585	729.552
200.432	26.137	911.731	729.666
201.446	26.002	910.502	728.073
202.461	25.742	910.180	726.701
203.475	25.896	909.778	726.937
204.490	25.264	908.591	723.375
205.504	24.581	906.369	718.796
206.519	24.673	905.967	718.784
207.534	25.429	906.656	722.309
208.548	25.499	906.380	722.304
209.563	25.860	905.406	722.916
210.577	25.458	905.791	721.542
211.592	25.147	906.157	720.520
212.607	26.007	903.635	721.896
213.621	25.842	903.843	721.337
214.636	25.979	902.334	720.617
215.650	25.664	902.517	719.441
216.665	25.816	902.132	719.677
217.680	25.806	901.996	719.465
218.694	26.148	899.998	719.170
219.709	26.023	900.262	718.819
220.723	25.525	899.009	715.776
221.738	25.769	898.471	716.255
222.753	25.508	898.612	715.263
223.767	25.602	897.279	714.513
224.782	25.863	896.760	715.073
225.796	26.052	895.551	714.795
226.811	25.996	895.314	714.319
227.826	26.072	895.157	714.432
228.840	25.117	894.021	709.685
229.855	25.072	892.915	708.565
230.869	25.497	892.572	709.912
231.884	25.333	891.123	708.048
232.899	25.051	891.184	706.921
233.913	25.629	890.498	708.592
234.928	25.863	889.386	708.564
235.942	25.505	889.122	706.884
236.957	25.412	889.176	706.497
237.972	25.311	887.400	704.631
238.986	25.351	887.601	704.883
240.001	25.535	886.958	705.033
241.015	25.368	885.843	703.430
242.030	25.284	885.438	702.718
243.045	25.434	885.549	703.330
244.059	25.640	884.284	703.067
245.074	25.589	884.134	702.687
246.088	25.685	883.241	702.287
247.103	25.515	882.560	701.024
248.117	25.938	882.698	702.722
249.132	25.864	883.047	702.648
250.147	26.571	882.377	704.805
251.161	26.720	881.135	704.331
252.176	26.684	880.770	703.837
253.190	26.464	880.684	702.850
254.205	26.887	880.132	703.991
255.220	26.885	879.900	703.735
256.234	26.850	878.268	702.233
257.249	26.478	878.049	700.552
258.263	26.766	877.084	700.836
259.278	26.305	877.565	699.374
260.293	26.265	876.944	698.663
261.307	26.657	875.707	699.127
262.322	26.611	875.065	698.375
263.336	26.880	873.547	698.138
264.351	26.409	873.938	696.577
265.366	25.548	872.260	691.866
266.380	25.425	870.892	690.246
267.395	25.686	871.491	691.663
268.409	26.541	871.889	695.203
269.424	26.259	871.024	693.369
270.439	26.845	869.414	694.270
271.453	26.571	868.775	692.650
272.468	26.542	869.238	692.848
273.482	26.388	868.705	691.772
274.497	26.820	867.283	692.229
275.512	26.802	866.927	691.816
276.526	26.415	866.027	689.561
277.541	26.589	866.261	690.349
278.555	27.122	863.800	690.353
279.570	26.829	864.231	689.523
280.585	26.473	864.533	688.347
281.599	26.714	863.171	688.118
282.614	26.510	862.906	687.070
283.628	26.038	862.639	685.007
284.643	25.614	861.314	682.284
285.657	26.126	861.167	684.048
286.672	26.125	860.318	683.310
287.687	26.131	859.752	682.823
288.701	26.117	859.120	682.208
289.716	26.979	857.816	684.364
290.730	26.025	859.222	681.819
291.745	25.704	858.852	680.254
292.760	26.196	856.036	679.816
293.774	26.137	855.593	679.183
294.789	26.856	855.683	681.899
295.803	26.918	857.260	683.329
296.818	27.333	856.111	683.911
297.833	26.835	855.667	681.624
298.847	26.775	854.408	680.338
299.862	26.432	853.588	678.337
300.876	26.907	852.865	679.480
301.891	26.770	853.843	679.686
302.906	26.825	853.135	679.271
303.920	26.849	850.754	677.402
304.935	26.734	850.696	676.868
305.949	27.307	850.507	678.795
306.964	27.051	850.608	677.859
307.979	27.021	848.828	676.271
308.993	26.619	849.224	675.027
310.008	27.036	848.506	675.951
311.022	27.309	848.055	676.546
312.037	27.120	847.837	675.611
313.052	26.948	846.943	674.198
314.066	26.637	846.389	672.543
315.081	25.924	846.028	669.551
316.095	25.789	843.262	666.800
317.110	26.323	843.715	669.078
318.125	26.624	843.748	670.159
319.139	26.128	843.409	667.998
320.154	25.548	841.429	664.226
321.168	25.266	841.192	662.940
322.183	25.660	841.010	664.192
323.197	26.334	840.116	665.910
324.212	26.375	840.497	666.304
325.227	26.742	839.373	666.707
326.241	26.675	839.081	666.169
327.256	26.552	838.611	665.286
328.270	26.561	838.446	665.127
329.285	26.307	837.761	663.591
330.300	26.242	836.734	662.482
331.314	26.069	835.867	661.102
332.329	25.843	836.293	660.553
333.343	26.311	836.437	662.323
334.358	26.740	834.748	662.498
335.373	26.621	834.408	661.732
336.387	26.600	833.997	661.271
337.402	26.965	833.408	662.080
338.416	27.100	833.188	662.336
339.431	27.038	832.866	661.795
340.446	27.076	833.358	662.268
341.460	27.829	831.762	663.678
342.475	27.538	830.117	661.254
343.489	27.536	830.695	661.649
344.504	27.119	830.864	660.208
345.519	27.601	829.920	661.150
346.533	27.430	830.147	660.649
347.548	27.630	829.344	660.678
348.562	27.565	828.122	659.409
349.577	27.661	827.491	659.199
350.592	27.627	827.275	658.843
351.606	27.374	826.746	657.451
352.621	27.232	826.198	656.443
353.635	27.252	825.320	655.761
354.650	27.128	824.752	654.804
355.665	26.988	824.831	654.304
356.679	25.946	823.955	649.799
357.694	26.217	823.147	650.078
358.708	26.949	822.470	652.117
359.723	26.501	821.779	649.903
360.738	26.685	821.128	649.993
361.752	26.957	821.248	651.006
362.767	26.955	820.055	649.994
363.781	27.134	820.656	651.054
364.796	27.640	819.995	652.285
365.810	27.640	820.173	652.366
366.825	27.543	819.819	651.680
367.840	27.886	819.582	652.661
368.854	27.733	818.688	651.345
369.869	27.310	817.873	649.129
370.883	27.327	817.394	648.754
371.898	27.430	816.203	648.117
372.913	27.485	815.866	647.988
373.927	27.587	815.642	648.117
374.942	26.919	815.383	645.476
375.956	26.857	814.740	644.691
376.971	27.322	813.834	645.567
377.986	27.529	813.202	645.743
379.000	27.738	813.241	646.457
380.015	27.815	812.655	646.207
381.029	27.764	812.207	645.613
382.044	27.355	811.470	643.524
383.059	27.817	810.852	644.607
384.073	27.900	809.776	643.987
385.088	27.785	809.997	643.700
386.102	27.291	809.593	641.580
387.117	27.443	809.027	641.611
388.132	27.243	807.904	639.961
389.146	27.171	806.912	638.865
390.161	26.845	806.697	637.492
391.175	26.674	806.756	636.883
392.190	26.994	806.650	637.868
393.205	27.863	805.957	640.310
394.219	27.107	803.986	636.045
395.234	25.721	802.338	629.839
396.248	25.216	801.543	627.394
397.263	25.954	801.701	630.040
398.278	26.830	802.230	633.460
399.292	26.910	802.450	633.860
400.307	26.831	800.662	632.116
401.321	26.427	801.028	630.937
402.336	26.645	800.311	631.077
403.350	26.677	800.662	631.411
404.365	27.213	800.591	633.165
405.380	27.422	800.516	633.776
406.394	27.835	799.819	634.606
407.409	28.133	799.037	634.964
408.423	28.353	799.016	635.654
409.438	28.365	798.132	634.937
410.453	28.329	798.612	635.137
411.467	28.463	797.378	634.566
412.482	27.879	796.754	631.990
413.496	27.564	796.416	630.579
414.511	27.791	796.827	631.631
415.526	27.719	795.934	630.619
416.540	27.578	796.076	630.189
417.555	27.494	795.180	629.133
418.569	27.738	794.994	629.772
419.584	27.577	794.190	628.525
420.599	27.706	793.979	628.748
421.613	159.372	1370.609	1793.067
422.628	138.108	1454.576	1793.160
