DTS Sentinel unit serial number:	SN413079Multiplexer serial number:	ORYXHardware model number:	OX4-SRSoftware version number:	ORYX F/W v4.00 Oryx Data Collector v3.7.2.0data status	okinstallation	princeton_trtdifferential loss correction	single-endedforward channel	channel 3reverse channel	N/Adate	2019/09/12time	23:00:34forward acquisition time	60.00reverse acquisition time	0.00gamma	496.2192k internal	0.2327k external	0.2327temperature offset calibration	1.0131default loss term (dB/km)	0.3790temperature slope calibration	1.0000multiplexer offset coefficient	1.0000multiplexer slope coefficient	1.0000fibre end	0.00T internal ref (°C)	29.31T ext. ref 1 (°C)	3.74T ext. ref 2 (°C)	23.95length (m)	temperature (°C)	Stokes	anti-Stokes-747.200	89.232	-0.303	0.340
-746.185	223.269	0.280	0.456
-745.171	17.678	-0.297	0.238
-744.156	660.903	-0.084	0.219
-743.142	-172.109	0.198	-0.006
-742.127	-200.000	0.087	0.391
-741.112	34.407	-0.078	0.068
-740.098	-200.000	-0.011	0.157
-739.083	183.956	-0.179	0.266
-738.069	77.339	0.260	0.278
-737.054	46.193	0.243	-0.227
-736.039	800.000	-0.126	-0.373
-735.025	-66.694	0.300	-0.120
-734.010	-37.865	-0.252	-0.135
-732.996	73.104	0.039	-0.041
-731.981	-103.555	-0.584	0.138
-730.966	747.863	0.080	0.218
-729.952	-200.000	-0.046	-0.373
-728.937	181.723	-0.207	0.306
-727.923	-36.065	-0.125	-0.068
-726.908	27.573	-0.049	0.041
-725.894	-160.483	-0.142	-0.008
-724.879	-17.106	-0.037	-0.023
-723.864	-169.504	-0.378	-0.014
-722.850	6.441	0.046	-0.035
-721.835	73.283	0.011	0.011
-720.821	-110.684	0.101	-0.021
-719.806	-108.649	0.343	-0.074
-718.791	-200.000	-0.007	0.037
-717.777	-200.000	0.006	-0.090
-716.762	-59.505	-0.140	-0.061
-715.748	-108.373	0.242	-0.053
-714.733	-200.000	-0.041	0.241
-713.718	-190.708	-0.101	0.001
-712.704	-141.581	0.306	-0.031
-711.689	-200.000	-0.060	-0.302
-710.675	67.089	-0.239	0.245
-709.660	800.000	0.049	0.178
-708.645	-82.805	-0.188	-0.061
-707.631	148.512	0.173	0.235
-706.616	-93.683	0.202	-0.056
-705.602	56.796	-0.047	0.046
-704.587	-88.813	-0.308	0.092
-703.572	-159.425	-0.439	0.025
-702.558	-139.089	0.300	0.033
-701.543	333.254	-0.015	-0.028
-700.529	-200.000	-0.041	0.240
-699.514	-47.529	-0.326	0.160
-698.499	-86.448	0.382	0.118
-697.485	-3.563	-0.291	0.204
-696.470	111.918	0.191	0.232
-695.456	-97.875	0.118	-0.031
-694.441	-200.000	-0.023	0.132
-693.426	-200.000	-0.045	-0.217
-692.412	-43.862	-0.196	0.099
-691.397	-131.651	0.257	0.034
-690.383	-100.603	-0.385	-0.096
-689.368	-124.513	0.330	0.052
-688.354	-142.650	-0.204	-0.020
-687.339	-200.000	0.036	0.181
-686.324	65.453	-0.107	0.109
-685.310	-19.986	0.073	0.045
-684.295	-170.177	-0.181	-0.006
-683.281	-130.465	0.166	-0.023
-682.266	8.103	-0.159	-0.120
-681.251	800.000	-0.101	-0.306
-680.237	55.844	-0.208	0.203
-679.222	97.360	0.240	-0.277
-678.208	352.180	-0.077	-0.154
-677.193	469.844	-0.062	0.140
-676.178	123.532	0.037	0.046
-675.164	5.606	0.134	0.100
-674.149	-200.000	-0.004	-0.024
-673.135	121.347	-0.020	-0.025
-672.120	-200.000	-0.012	0.281
-671.105	-200.000	-0.037	0.234
-670.091	140.892	-0.123	0.163
-669.076	-33.575	-0.133	-0.074
-668.062	-200.000	-0.024	0.188
-667.047	-123.840	-0.568	0.090
-666.032	-158.331	-0.085	0.005
-665.018	-200.000	-0.048	-0.261
-664.003	656.756	0.062	-0.161
-662.989	-20.829	-0.164	0.101
-661.974	197.151	-0.073	0.111
-660.959	-69.493	-0.219	-0.084
-659.945	-200.000	-0.010	0.056
-658.930	169.387	-0.099	-0.142
-657.916	-126.658	-0.238	0.035
-656.901	-200.000	-0.027	0.129
-655.886	-46.861	-0.286	-0.140
-654.872	150.342	-0.259	-0.353
-653.857	-6.154	0.056	0.038
-652.843	800.000	-0.115	0.332
-651.828	595.697	-0.046	-0.114
-650.814	228.860	0.046	-0.076
-649.799	108.442	0.307	-0.368
-648.784	84.823	-0.048	0.053
-647.770	-140.995	0.103	-0.011
-646.755	-38.395	0.146	-0.078
-645.741	13.699	0.177	0.138
-644.726	92.362	0.151	-0.171
-643.711	-138.460	0.156	-0.017
-642.697	79.876	-0.109	0.117
-641.682	800.000	0.009	-0.038
-640.668	86.755	0.049	0.054
-639.653	800.000	-0.052	0.205
-638.638	800.000	-0.096	0.354
-637.624	-200.000	-0.020	0.145
-636.609	119.322	0.188	-0.233
-635.595	-101.411	-0.199	-0.049
-634.580	27.945	-0.131	0.111
-633.565	-136.966	-0.088	-0.010
-632.551	-200.000	-0.017	-0.107
-631.536	110.862	-0.030	0.036
-630.522	800.000	-0.148	0.496
-629.507	114.549	-0.068	0.083
-628.492	-8.310	-0.162	-0.110
-627.478	-44.293	0.268	-0.135
-626.463	-200.000	-0.047	-0.293
-625.449	-200.000	-0.049	-0.324
-624.434	-101.540	0.537	-0.131
-623.419	-157.214	-0.174	0.011
-622.405	590.917	-0.103	0.255
-621.390	130.552	0.205	-0.264
-620.376	800.000	-0.053	0.226
-619.361	211.875	-0.041	0.065
-618.346	-143.180	-0.153	-0.015
-617.332	-200.000	0.034	-0.223
-616.317	-200.000	-0.030	-0.362
-615.303	540.546	0.141	-0.337
-614.288	800.000	0.048	0.155
-613.273	-50.705	-0.229	-0.108
-612.259	-200.000	-0.035	-0.170
-611.244	800.000	0.098	0.368
-610.230	-200.000	0.018	-0.228
-609.215	156.523	0.279	-0.386
-608.201	157.974	-0.059	0.082
-607.186	800.000	0.045	-0.153
-606.171	-22.961	0.120	-0.072
-605.157	227.088	-0.173	-0.281
-604.142	-200.000	0.010	0.055
-603.128	-200.000	0.019	-0.196
-602.113	66.785	-0.173	0.177
-601.098	800.000	0.153	0.453
-600.084	86.507	0.057	-0.063
-599.069	174.311	-0.213	0.309
-598.055	-148.112	0.420	0.035
-597.040	-161.754	0.082	-0.004
-596.025	-173.248	-0.239	0.007
-595.011	-0.599	-0.034	0.024
-593.996	331.485	-0.029	-0.057
-592.982	-95.870	-0.304	0.081
-591.967	176.675	-0.097	0.141
-590.952	134.194	0.262	-0.340
-589.938	644.400	-0.056	0.144
-588.923	-7.188	0.212	0.144
-587.909	-8.781	-0.067	-0.045
-586.894	-200.000	0.028	-0.127
-585.879	444.363	0.095	0.209
-584.865	-200.000	-0.028	-0.157
-583.850	-93.213	-0.178	-0.049
-582.836	-200.000	0.028	-0.203
-581.821	800.000	-0.134	-0.387
-580.806	-200.000	-0.026	0.155
-579.792	18.780	0.150	0.120
-578.777	-159.268	-0.271	0.015
-577.763	-129.792	0.068	0.009
-576.748	357.028	-0.086	-0.173
-575.733	-200.000	0.017	0.169
-574.719	126.546	0.232	0.294
-573.704	-112.033	0.498	-0.100
-572.690	68.045	-0.113	-0.115
-571.675	-70.057	-0.413	0.157
-570.661	-87.334	-0.085	0.026
-569.646	-119.263	0.408	-0.071
-568.631	142.211	0.113	0.150
-567.617	632.187	0.009	0.023
-566.602	7.708	-0.132	0.099
-565.588	-140.017	0.277	0.029
-564.573	162.230	-0.127	0.178
-563.558	-76.126	-0.363	0.128
-562.544	-134.507	-0.116	-0.014
-561.529	381.505	-0.159	0.327
-560.515	-146.680	-0.151	-0.013
-559.500	-52.869	-0.545	0.251
-558.485	17.868	0.091	0.073
-557.471	-186.271	-0.253	-0.004
-556.456	-200.000	0.029	0.235
-555.442	-153.103	0.123	0.009
-554.427	230.785	0.104	0.170
-553.412	-80.151	0.333	0.112
-552.398	529.127	-0.134	-0.318
-551.383	-133.804	-0.232	-0.029
-550.369	119.080	-0.166	-0.205
-549.354	-127.980	-0.281	-0.040
-548.339	112.104	0.014	-0.016
-547.325	800.000	0.042	0.121
-546.310	315.240	-0.112	-0.210
-545.296	-17.340	0.034	0.021
-544.281	-84.823	0.104	-0.033
-543.266	470.192	0.114	-0.255
-542.252	-200.000	-0.015	-0.105
-541.237	-170.582	-0.121	0.004
-540.223	448.388	-0.173	0.382
-539.208	-200.000	-0.012	0.165
-538.193	-22.413	-0.134	0.081
-537.179	-20.310	0.277	0.170
-536.164	800.000	0.004	0.012
-535.150	800.000	0.016	0.045
-534.135	-97.584	0.323	-0.084
-533.121	-135.585	-0.203	0.024
-532.106	110.322	-0.090	-0.108
-531.091	36.235	-0.076	0.067
-530.077	147.420	0.130	0.175
-529.062	282.524	-0.050	-0.089
-528.048	-120.704	0.055	-0.009
-527.033	44.241	-0.137	0.125
-526.018	800.000	0.122	0.426
-525.004	800.000	0.061	0.194
-523.989	744.934	0.104	-0.281
-522.975	-164.165	0.054	-0.002
-521.960	33.312	0.239	-0.207
-520.945	-9.475	-0.326	-0.217
-519.931	383.399	0.078	-0.161
-518.916	15.671	-0.181	-0.142
-517.902	-113.714	0.230	0.045
-516.887	122.011	0.183	-0.228
-515.872	-120.640	0.194	0.033
-514.858	-200.000	0.025	-0.389
-513.843	-72.098	-0.105	-0.039
-512.829	-200.000	-0.021	0.237
-511.814	-200.000	0.013	-0.057
-510.799	9.618	0.165	-0.125
-509.785	-130.586	0.241	-0.033
-508.770	800.000	0.068	0.268
-507.756	107.099	-0.175	0.207
-506.741	236.891	0.112	0.185
-505.726	630.287	-0.122	0.309
-504.712	-162.861	-0.258	-0.013
-503.697	-135.116	-0.036	-0.004
-502.683	24.550	0.330	0.273
-501.668	204.611	0.204	-0.317
-500.653	-200.000	0.001	-0.159
-499.639	26.585	-0.078	-0.065
-498.624	-104.829	-0.177	0.041
-497.610	800.000	0.031	-0.128
-496.595	800.000	-0.065	-0.252
-495.581	-118.236	-0.270	0.048
-494.566	800.000	-0.070	-0.252
-493.551	-121.694	-0.168	0.028
-492.537	19.576	0.267	-0.214
-491.522	-56.144	0.354	-0.157
-490.508	-200.000	-0.004	-0.025
-489.493	-200.000	-0.007	0.149
-488.478	800.000	0.032	0.129
-487.464	133.318	0.202	0.261
-486.449	800.000	-0.066	0.201
-485.435	-200.000	-0.081	-0.532
-484.420	-95.282	-0.336	-0.090
-483.405	-200.000	-0.019	0.089
-482.391	-181.457	-0.321	0.006
-481.376	1.671	-0.078	0.056
-480.362	-33.680	0.344	-0.189
-479.347	-200.000	-0.011	-0.261
-478.332	-113.730	-0.309	-0.060
-477.318	-134.024	-0.218	0.027
-476.303	-106.165	0.226	0.051
-475.289	-11.432	0.239	0.157
-474.274	-34.818	0.235	-0.128
-473.259	437.844	0.111	0.242
-472.245	370.841	0.078	-0.158
-471.230	66.770	0.050	-0.051
-470.216	164.840	0.057	0.080
-469.201	503.537	0.140	0.322
-468.186	77.518	0.118	0.125
-467.172	-104.920	-0.290	-0.066
-466.157	-67.089	0.092	-0.036
-465.143	-76.007	-0.183	0.064
-464.128	-84.555	-0.322	-0.101
-463.113	189.548	0.154	0.230
-462.099	-200.000	0.028	-0.337
-461.084	-140.114	-0.328	0.034
-460.070	-38.485	-0.327	-0.173
-459.055	410.545	-0.076	0.160
-458.040	-12.050	-0.176	-0.115
-457.026	36.687	-0.055	0.048
-456.011	680.459	0.131	0.339
-454.997	576.317	0.141	-0.344
-453.982	-62.096	0.110	0.046
-452.968	225.263	0.082	0.132
-451.953	800.000	-0.076	-0.220
-450.938	-4.469	-0.210	-0.145
-449.924	-200.000	-0.003	-0.036
-448.909	-17.002	0.416	-0.262
-447.895	-39.048	0.389	-0.204
-446.880	-20.687	0.335	0.205
-445.865	-63.364	-0.330	-0.136
-444.851	800.000	-0.070	-0.226
-443.836	-145.876	-0.356	0.031
-442.822	271.247	-0.055	0.097
-441.807	-87.729	0.333	0.100
-440.792	686.298	-0.147	-0.382
-439.778	-97.148	0.329	0.086
-438.763	-10.636	0.039	0.025
-437.749	-67.680	-0.281	-0.109
-436.734	323.152	-0.051	0.097
-435.719	-200.000	0.029	0.392
-434.705	28.439	-0.201	0.169
-433.690	492.508	0.145	-0.332
-432.676	-200.000	0.028	0.423
-431.661	302.985	-0.155	0.285
-430.646	18.367	0.185	0.147
-429.632	43.940	0.158	0.144
-428.617	-187.064	-0.297	-0.004
-427.603	50.572	0.085	0.080
-426.588	-122.400	-0.236	-0.038
-425.573	44.554	-0.267	0.244
-424.559	-135.710	-0.101	-0.012
-423.544	-200.000	0.046	-0.207
-422.530	-163.724	0.128	-0.006
-421.515	239.312	-0.273	0.452
-420.500	-200.000	0.022	0.163
-419.486	147.708	-0.142	-0.190
-418.471	11.577	0.088	0.067
-417.457	-142.493	0.247	-0.024
-416.442	-94.477	-0.217	0.059
-415.428	21.514	0.122	0.098
-414.413	-200.000	-0.025	0.138
-413.398	27.338	-0.409	-0.342
-412.384	54.257	0.111	0.107
-411.369	-33.846	0.260	0.143
-410.355	45.498	0.225	0.207
-409.340	-200.000	-0.011	-0.110
-408.325	152.405	-0.103	0.140
-407.311	89.210	0.130	-0.145
-406.296	630.133	-0.083	-0.208
-405.282	173.034	-0.169	-0.243
-404.267	390.456	-0.185	-0.381
-403.252	259.472	-0.080	-0.138
-402.238	22.775	-0.087	0.071
-401.223	218.808	0.090	-0.142
-400.209	336.057	-0.076	-0.147
-399.194	-200.000	-0.030	-0.285
-398.179	800.000	0.068	0.207
-397.165	-200.000	-0.026	-0.304
-396.150	150.872	-0.067	0.090
-395.136	-200.000	-0.012	-0.154
-394.121	-123.655	-0.134	0.021
-393.106	-131.809	-0.069	-0.009
-392.092	-200.000	0.066	-0.406
-391.077	8.291	0.058	-0.043
-390.063	800.000	-0.056	-0.180
-389.048	-200.000	0.039	-0.226
-388.033	545.430	0.052	-0.124
-387.019	-177.739	-0.236	0.006
-386.004	31.064	0.039	0.033
-384.990	-200.000	0.027	-0.193
-383.975	-49.357	0.098	0.047
-382.960	7.122	-0.318	0.236
-381.946	10.988	-0.245	-0.186
-380.931	-105.468	0.200	-0.045
-379.917	-19.799	-0.223	-0.137
-378.902	183.675	-0.095	0.140
-377.888	658.689	0.139	0.355
-376.873	-39.428	-0.187	-0.097
-375.858	-68.123	-0.220	-0.085
-374.844	-0.409	0.096	0.068
-373.829	-200.000	0.045	0.468
-372.815	24.988	0.181	0.149
-371.800	154.394	-0.137	-0.187
-370.785	10.966	0.207	-0.157
-369.771	-6.238	-0.149	-0.101
-368.756	-200.000	0.021	-0.103
-367.742	314.690	0.193	-0.360
-366.727	800.000	-0.065	-0.243
-365.712	-200.000	0.003	0.085
-364.698	800.000	-0.032	0.120
-363.683	-102.795	-0.156	0.037
-362.669	445.909	0.097	-0.211
-361.654	49.744	0.163	0.153
-360.639	-200.000	-0.030	0.212
-359.625	-200.000	-0.072	0.316
-358.610	800.000	-0.076	0.243
-357.596	800.000	-0.102	0.286
-356.581	-62.271	0.206	0.085
-355.566	396.255	-0.086	-0.177
-354.552	-47.475	0.225	0.109
-353.537	-71.094	0.242	-0.090
-352.523	-162.973	-0.278	0.013
-351.508	-95.506	-0.291	0.077
-350.493	-134.723	0.067	-0.008
-349.479	23.552	-0.265	0.216
-348.464	-200.000	-0.007	0.038
-347.450	45.541	-0.032	0.029
-346.435	6.462	0.258	-0.190
-345.420	-57.200	0.107	0.047
-344.406	155.098	-0.020	0.027
-343.391	-50.361	-0.525	-0.246
-342.377	307.228	-0.218	-0.402
-341.362	335.346	-0.072	-0.138
-340.348	-84.446	-0.417	-0.131
-339.333	-200.000	0.001	-0.156
-338.318	-164.631	0.239	0.011
-337.304	-168.865	-0.276	-0.010
-336.289	-200.000	0.017	0.133
-335.275	168.415	-0.108	-0.153
-334.260	93.904	-0.248	-0.278
-333.245	485.907	0.072	0.162
-332.231	-200.000	0.042	-0.200
-331.216	-67.494	0.060	0.023
-330.202	159.054	-0.031	0.043
-329.187	568.103	0.089	0.216
-328.172	-200.000	-0.004	-0.046
-327.158	30.145	-0.202	0.171
-326.143	-87.770	0.122	-0.037
-325.129	-94.737	0.263	0.071
-324.114	-69.609	-0.166	-0.063
-323.099	-200.000	0.034	-0.252
-322.085	25.398	-0.349	0.288
-321.070	-150.433	0.252	0.019
-320.056	167.529	0.247	0.348
-319.041	48.595	0.008	-0.008
-318.026	50.937	0.053	-0.050
-317.012	-200.000	0.017	0.211
-315.997	-25.391	0.268	-0.157
-314.983	162.020	0.074	-0.103
-313.968	-200.000	-0.067	-0.325
-312.953	197.563	0.150	0.227
-311.939	-0.583	-0.190	0.134
-310.924	-90.430	0.324	-0.093
-309.910	-87.190	-0.007	-0.002
-308.895	13.333	-0.267	0.205
-307.880	-55.410	0.284	-0.126
-306.866	-13.110	0.143	-0.092
-305.851	-138.677	0.336	0.036
-304.837	73.505	-0.315	-0.327
-303.822	-200.000	-0.015	-0.140
-302.807	-200.000	0.045	-0.281
-301.793	800.000	-0.031	0.112
-300.778	-41.211	-0.098	0.050
-299.764	798.043	-0.162	-0.442
-298.749	-145.068	-0.378	0.034
-297.735	-188.843	0.193	-0.002
-296.720	572.544	0.177	0.428
-295.705	-4.623	0.087	-0.060
-294.691	-92.719	0.167	0.046
-293.676	129.716	0.047	-0.059
-292.662	-98.898	0.048	0.012
-291.647	-54.804	0.022	-0.010
-290.632	77.594	0.140	0.147
-289.618	512.596	-0.158	0.365
-288.603	-76.985	0.109	0.038
-287.589	800.000	0.139	0.543
-286.574	800.000	0.023	-0.092
-285.559	31.955	-0.075	-0.064
-284.545	-130.227	0.342	0.046
-283.530	-130.792	0.222	-0.029
-282.516	-200.000	-0.041	0.254
-281.501	-15.058	0.225	-0.143
-280.486	-200.000	0.012	-0.132
-279.472	-75.974	-0.321	0.112
-278.457	44.566	0.240	-0.218
-277.443	-134.239	-0.339	-0.041
-276.428	-154.241	-0.307	-0.021
-275.413	231.532	0.126	-0.205
-274.399	-149.046	-0.189	-0.015
-273.384	77.978	0.138	-0.145
-272.370	-200.000	-0.014	0.422
-271.355	800.000	0.052	-0.219
-270.340	184.109	-0.109	0.160
-269.326	175.729	0.077	0.110
-268.311	-66.349	-0.184	0.072
-267.297	-200.000	0.047	-0.217
-266.282	800.000	0.040	0.165
-265.267	-63.905	-0.112	-0.045
-264.253	343.347	-0.086	0.166
-263.238	580.285	-0.034	-0.083
-262.224	459.371	0.047	-0.103
-261.209	800.000	-0.084	0.278
-260.195	329.386	-0.128	0.244
-259.180	800.000	0.049	0.173
-258.165	800.000	0.087	-0.308
-257.151	-200.000	-0.003	0.144
-256.136	-64.962	-0.115	0.046
-255.122	9.537	0.295	0.221
-254.107	21.032	0.094	0.076
-253.092	427.255	-0.118	0.252
-252.078	-181.010	0.332	-0.007
-251.063	63.282	0.121	0.120
-250.049	800.000	-0.104	0.317
-249.034	-9.067	-0.102	0.067
-248.019	27.761	-0.328	0.273
-247.005	200.086	0.231	-0.350
-245.990	-49.853	-0.218	-0.102
-244.976	-108.305	0.249	0.053
-243.961	-61.638	0.055	-0.023
-242.946	194.769	-0.036	0.054
-241.932	-183.869	0.103	0.002
-240.917	58.382	0.045	0.043
-239.903	-62.290	-0.353	-0.145
-238.888	-83.620	-0.174	-0.055
-237.873	-71.445	-0.234	0.087
-236.859	24.745	0.098	0.080
-235.844	-43.888	-0.049	-0.024
-234.830	-12.594	-0.183	0.118
-233.815	-3.253	-0.084	0.058
-232.800	-200.000	0.043	0.242
-231.786	800.000	-0.086	-0.300
-230.771	-161.918	0.183	-0.009
-229.757	-85.704	0.264	0.081
-228.742	252.625	0.030	-0.051
-227.727	800.000	-0.063	-0.230
-226.713	15.412	0.222	0.172
-225.698	-89.550	-0.278	-0.081
-224.684	-137.543	0.049	-0.005
-223.669	-180.518	0.310	0.006
-222.655	-105.905	-0.191	-0.043
-221.640	678.158	0.096	0.246
-220.625	-169.475	0.223	0.008
-219.611	32.426	-0.207	-0.177
-218.596	800.000	0.064	0.194
-217.582	330.781	-0.059	0.112
-216.567	524.853	0.129	0.300
-215.552	75.834	0.156	-0.163
-214.538	311.126	-0.250	-0.463
-213.523	-200.000	-0.016	-0.165
-212.509	232.500	0.137	0.222
-211.494	800.000	0.027	-0.105
-210.479	439.187	-0.025	0.054
-209.465	286.431	0.125	0.223
-208.450	-51.014	-0.259	-0.120
-207.436	-200.000	-0.085	-0.425
-206.421	38.362	0.047	0.041
-205.406	164.041	-0.080	-0.111
-204.392	-140.529	-0.091	-0.009
-203.377	-33.730	-0.189	-0.103
-202.363	-200.000	-0.002	-0.058
-201.348	-166.310	0.308	-0.013
-200.333	-31.062	0.233	0.130
-199.319	-106.106	0.164	0.036
-198.304	-9.302	0.232	-0.153
-197.290	11.906	-0.177	0.134
-196.275	-32.614	-0.150	-0.082
-195.260	-200.000	-0.054	0.264
-194.246	800.000	0.044	0.176
-193.231	8.099	0.095	-0.070
-192.217	800.000	0.012	-0.034
-191.202	-200.000	-0.021	-0.110
-190.187	-17.387	-0.203	0.126
-189.173	-131.667	0.296	-0.038
-188.158	111.927	-0.054	-0.064
-187.144	-73.704	0.213	-0.077
-186.129	-25.785	-0.318	-0.185
-185.114	-137.945	0.286	0.032
-184.100	662.182	-0.038	-0.097
-183.085	-200.000	0.023	-0.238
-182.071	-41.662	0.181	-0.092
-181.056	-200.000	-0.059	0.270
-180.042	-200.000	-0.003	0.263
-179.027	-83.113	0.063	0.020
-178.012	800.000	0.078	0.245
-176.998	17.297	-0.256	-0.200
-175.983	-200.000	0.067	0.495
-174.969	800.000	0.057	-0.214
-173.954	-200.000	-0.014	-0.092
-172.939	-8.767	0.343	-0.227
-171.925	439.503	0.013	-0.029
-170.910	-54.455	0.188	0.084
-169.896	-200.000	-0.046	0.357
-168.881	54.953	0.076	0.072
-167.866	-99.470	-0.159	0.039
-166.852	46.842	0.183	-0.168
-165.837	-73.108	0.245	0.089
-164.823	226.718	-0.157	0.251
-163.808	36.820	0.134	0.116
-162.793	-200.000	-0.011	0.186
-161.779	471.243	0.065	-0.144
-160.764	93.215	-0.036	-0.040
-159.750	99.821	-0.111	0.127
-158.735	-12.705	0.258	-0.166
-157.720	-47.103	-0.279	-0.134
-156.706	-121.102	0.203	0.033
-155.691	-63.759	0.164	-0.066
-154.677	32.222	0.182	0.154
-153.662	-64.187	0.257	-0.103
-152.647	800.000	-0.065	-0.256
-151.633	312.065	-0.046	-0.086
-150.618	-200.000	0.006	-0.041
-149.604	-200.000	0.033	0.368
-148.589	381.992	-0.083	-0.168
-147.574	-200.000	-0.031	0.285
-146.560	47.908	0.068	0.063
-145.545	193.152	0.188	0.280
-144.531	-19.218	0.289	-0.177
-143.516	11.295	-0.130	0.098
-142.502	-200.000	-0.025	0.286
-141.487	61.375	-0.187	-0.183
-140.472	131.283	0.196	0.247
-139.458	-167.235	-0.221	0.009
-138.443	68.525	-0.030	0.030
-137.429	-172.917	0.280	-0.009
-136.414	-58.057	0.072	-0.031
-135.399	17.179	0.220	-0.172
-134.385	576.068	0.077	0.185
-133.370	-158.996	0.313	-0.017
-132.356	1.084	0.123	0.087
-131.341	-78.711	-0.153	0.051
-130.326	-200.000	-0.006	0.144
-129.312	800.000	0.070	-0.239
-128.297	-200.000	0.057	0.486
-127.283	6.128	0.091	0.066
-126.268	164.636	-0.068	0.094
-125.253	665.549	-0.084	0.215
-124.239	409.216	0.094	0.196
-123.224	79.904	-0.112	-0.118
-122.210	38.676	0.141	-0.124
-121.195	-200.000	-0.031	-0.141
-120.180	-200.000	-0.039	0.255
-119.166	-172.621	0.214	-0.007
-118.151	102.734	0.084	-0.097
-117.137	3.459	0.084	-0.060
-116.122	-66.682	0.065	-0.025
-115.107	11.549	0.174	-0.131
-114.093	-87.818	0.047	-0.014
-113.078	-200.000	-0.029	0.202
-112.064	788.532	0.030	-0.082
-111.049	-23.814	-0.148	0.087
-110.034	-152.465	0.232	-0.016
-109.020	4.886	0.322	0.233
-108.005	-200.000	0.005	0.083
-106.991	494.421	-0.065	0.146
-105.976	-93.706	0.147	-0.040
-104.962	51.976	0.282	0.264
-103.947	230.422	-0.036	-0.057
-102.932	260.841	-0.067	0.114
-101.918	12.072	-0.092	0.069
-100.903	-127.259	-0.165	0.024
-99.889	-60.037	0.332	0.139
-98.874	-115.839	0.316	0.058
-97.859	800.000	0.040	0.164
-96.845	800.000	-0.108	0.298
-95.830	-200.000	-0.030	0.165
-94.816	-28.258	0.044	0.025
-93.801	-67.345	0.129	0.050
-92.786	-88.609	-0.354	0.104
-91.772	-180.345	0.214	0.004
-90.757	-101.667	-0.168	0.040
-89.743	321.121	0.102	0.191
-88.728	69.403	0.143	0.144
-87.713	348.359	0.116	0.225
-86.699	-200.000	0.001	-0.055
-85.684	138.219	0.246	0.317
-84.670	549.738	0.069	0.164
-83.655	-61.920	-0.147	-0.060
-82.640	258.520	-0.077	0.130
-81.626	80.055	-0.192	-0.203
-80.611	428.535	0.029	-0.062
-79.597	-200.000	-0.025	-0.129
-78.582	-200.000	-0.037	-0.194
-77.567	-155.146	-0.179	0.012
-76.553	399.587	0.084	-0.173
-75.538	-79.747	-0.332	-0.110
-74.524	769.923	-0.081	-0.218
-73.509	223.460	0.105	0.167
-72.494	-148.470	0.181	0.015
-71.480	90.628	0.128	-0.141
-70.465	-200.000	-0.012	0.072
-69.451	325.252	-0.246	0.462
-68.436	-140.233	-0.210	-0.022
-67.422	-43.185	-0.336	-0.167
-66.407	-44.719	0.140	0.069
-65.392	-131.672	0.304	0.039
-64.378	26.227	0.058	0.047
-63.363	98.478	0.191	0.216
-62.349	5.448	-0.182	-0.132
-61.334	87.641	-0.842	-0.915
-60.319	303.883	0.598	1.088
-59.305	475.380	-0.479	-1.060
-58.290	224.279	0.737	1.169
-57.276	800.000	0.572	1.566
-56.261	-200.000	109.999	605.625
-55.246	503.936	1503.451	3413.302
-54.232	178.305	2683.007	3842.891
-53.217	108.272	2171.876	2542.181
-52.203	39.337	1703.989	1496.852
-51.188	32.439	1520.132	1288.281
-50.173	30.074	1494.269	1250.372
-49.159	50.231	1552.010	1438.098
-48.144	50.444	1568.047	1454.370
-47.130	32.532	1523.446	1291.521
-46.115	29.628	1508.692	1259.204
-45.100	29.452	1505.105	1254.964
-44.086	29.357	1503.037	1252.545
-43.071	29.353	1500.973	1250.749
-42.057	29.277	1499.157	1248.667
-41.042	29.216	1497.704	1246.994
-40.027	29.283	1496.955	1246.774
-39.013	29.331	1494.647	1245.127
-37.998	29.185	1493.896	1243.465
-36.984	29.218	1492.844	1242.768
-35.969	29.297	1491.093	1241.793
-34.954	29.269	1490.029	1240.665
-33.940	29.281	1488.230	1239.200
-32.925	29.176	1487.544	1237.874
-31.911	29.350	1485.917	1237.637
-30.896	29.326	1484.658	1236.382
-29.881	29.317	1483.376	1235.204
-28.867	29.415	1481.669	1234.389
-27.852	29.421	1480.759	1233.625
-26.838	29.296	1479.569	1231.744
-25.823	29.381	1477.709	1230.715
-24.809	29.276	1476.726	1229.147
-23.794	29.458	1474.346	1228.330
-22.779	29.266	1473.980	1226.698
-21.765	29.303	1473.242	1226.280
-20.750	29.451	1471.148	1225.476
-19.736	29.454	1470.065	1224.544
-18.721	29.304	1469.206	1222.781
-17.706	29.412	1467.497	1222.026
-16.692	29.239	1466.892	1220.330
-15.677	29.309	1466.101	1220.090
-14.663	29.378	1464.785	1219.401
-13.648	29.308	1463.939	1218.188
-12.633	29.246	1463.373	1217.258
-11.619	29.283	1462.291	1216.551
-10.604	29.296	1461.654	1216.061
-9.590	29.334	1460.583	1215.371
-8.575	29.293	1459.865	1214.455
-7.560	29.379	1458.550	1213.877
-6.546	29.304	1458.088	1212.949
-5.531	29.296	1457.097	1212.030
-4.517	29.274	1456.302	1211.174
-3.502	29.168	1455.531	1209.790
-2.487	29.302	1453.677	1209.078
-1.473	29.233	1453.454	1208.391
-0.458	29.321	1451.561	1207.344
0.556	30.869	1441.433	1195.193
1.571	27.592	1416.876	1154.023
2.586	23.928	1357.985	1083.681
3.600	22.181	1276.610	1008.636
4.615	20.927	1230.475	965.157
5.629	18.365	1174.155	907.345
6.644	10.862	1091.117	806.029
7.659	4.859	1052.641	748.748
8.673	3.916	1047.140	740.257
9.688	3.703	1043.680	736.733
10.702	3.570	1042.048	734.882
11.717	3.762	1040.066	734.330
12.731	6.482	1042.536	748.953
13.746	14.308	1053.572	794.275
14.761	21.311	1062.605	834.580
15.775	23.282	1064.353	845.298
16.790	23.040	1063.333	843.260
17.804	22.297	1061.629	838.297
18.819	21.583	1060.056	833.579
19.834	21.424	1058.412	831.457
20.848	21.385	1058.231	831.058
21.863	21.540	1057.680	831.288
22.877	21.404	1057.585	830.490
23.892	21.267	1056.496	828.913
24.907	21.177	1055.564	827.681
25.921	20.987	1054.958	826.236
26.936	20.969	1053.951	825.285
27.950	20.929	1052.793	824.116
28.965	20.790	1052.084	822.834
29.980	21.002	1051.122	823.007
30.994	21.226	1049.395	822.640
32.009	21.358	1048.957	822.843
33.023	21.327	1048.332	822.138
34.038	21.278	1047.303	821.026
35.053	21.294	1046.192	820.157
36.067	21.067	1045.490	818.469
37.082	21.010	1044.634	817.458
38.096	21.049	1043.885	816.986
39.111	21.207	1043.136	817.065
40.126	21.259	1042.484	816.723
41.140	21.115	1041.178	814.957
42.155	20.813	1039.390	812.075
43.169	20.503	1038.933	810.205
44.184	20.489	1037.105	808.643
45.199	20.407	1036.660	807.840
46.213	20.466	1035.459	807.107
47.228	20.544	1035.202	807.196
48.242	20.915	1034.440	808.256
49.257	21.153	1034.007	808.946
50.271	21.033	1033.286	807.756
51.286	21.092	1032.458	807.309
52.301	21.299	1031.526	807.467
53.315	21.348	1030.471	806.796
54.330	20.978	1030.295	804.876
55.344	20.903	1028.934	803.397
56.359	20.762	1028.123	802.043
57.374	20.793	1026.977	801.222
58.388	20.588	1026.765	800.042
59.403	20.489	1025.407	798.461
60.417	20.424	1024.600	797.462
61.432	20.359	1024.243	796.815
62.447	20.397	1023.398	796.263
63.461	20.405	1022.348	795.412
64.476	20.293	1021.134	793.885
65.490	20.301	1020.424	793.298
66.505	20.169	1019.703	792.065
67.520	20.178	1018.865	791.384
68.534	20.319	1018.526	791.693
69.549	20.178	1017.396	790.100
70.563	20.155	1016.351	789.115
71.578	20.041	1016.283	788.475
72.593	19.898	1014.714	786.538
73.607	19.747	1013.451	784.803
74.622	19.698	1012.759	783.978
75.636	19.898	1011.656	783.959
76.651	19.912	1011.514	783.843
77.666	19.889	1010.617	782.975
78.680	19.867	1010.290	782.555
79.695	19.954	1009.749	782.460
80.709	19.934	1008.796	781.562
81.724	20.171	1008.270	782.153
82.739	20.372	1007.223	782.179
83.753	20.448	1006.689	782.036
84.768	20.814	1006.492	783.460
85.782	21.295	1006.427	785.504
86.797	21.594	1005.707	786.212
87.812	21.467	1005.543	785.448
88.826	21.331	1003.965	783.534
89.841	21.234	1002.918	782.215
90.855	21.416	1002.475	782.613
91.870	21.520	1001.455	782.211
92.884	21.393	1001.126	781.317
93.899	21.543	999.887	780.952
94.914	21.316	999.346	779.448
95.928	21.337	999.024	779.224
96.943	21.361	997.889	778.375
97.957	21.394	996.588	777.437
98.972	21.221	995.827	776.007
99.987	21.254	994.868	775.339
101.001	21.242	994.817	775.177
102.016	21.371	993.431	774.601
103.030	21.339	992.146	773.386
104.045	21.208	991.566	772.287
105.060	21.255	991.061	772.032
106.074	21.269	989.791	771.035
107.089	20.909	988.709	768.540
108.103	20.658	987.632	766.528
109.118	20.413	986.777	764.717
110.133	20.195	985.872	762.988
111.147	20.139	984.684	761.757
112.162	19.948	983.815	760.176
113.176	20.110	982.846	760.074
114.191	20.391	981.779	760.412
115.206	20.487	981.417	760.483
116.220	20.484	981.028	760.101
117.235	20.357	980.007	758.689
118.249	20.276	979.118	757.580
119.264	20.202	977.916	756.262
120.279	20.109	977.014	755.092
121.293	19.996	976.378	754.040
122.308	19.940	975.376	752.954
123.322	19.872	974.298	751.762
124.337	19.727	973.468	750.424
125.352	19.577	972.394	748.880
126.366	19.719	971.433	748.688
127.381	19.752	970.328	747.913
128.395	19.816	969.393	747.405
129.410	19.928	968.924	747.460
130.424	20.027	967.691	746.869
131.439	20.080	966.740	746.297
132.454	20.338	966.712	747.319
133.468	20.383	965.887	746.810
134.483	20.366	965.440	746.324
135.497	20.407	964.327	745.574
136.512	20.444	964.065	745.464
137.527	20.408	963.314	744.667
138.541	20.400	962.631	744.036
139.556	20.319	962.259	743.335
140.570	20.475	961.204	743.121
141.585	20.708	960.721	743.679
142.600	20.877	960.063	743.824
143.614	21.158	959.364	744.416
144.629	21.165	959.071	744.156
145.643	21.367	958.725	744.682
146.658	21.239	957.314	742.974
147.673	21.038	955.919	740.971
148.687	20.774	954.869	738.971
149.702	20.583	953.673	737.169
150.716	20.551	952.818	736.309
151.731	20.483	951.742	735.125
152.746	20.501	951.053	734.603
153.760	20.665	950.590	734.873
154.775	20.589	950.007	734.037
155.789	20.605	949.509	733.656
156.804	20.806	948.595	733.732
157.819	20.706	948.147	732.900
158.833	20.843	947.052	732.562
159.848	21.153	946.390	733.291
160.862	21.364	945.947	733.769
161.877	21.206	945.154	732.423
162.892	20.767	944.016	729.640
163.906	20.510	942.430	727.271
164.921	20.307	941.878	725.932
165.935	20.206	940.891	724.684
166.950	20.412	939.800	724.642
167.964	20.515	939.345	724.657
168.979	20.646	937.959	724.068
169.994	20.595	936.755	722.861
171.008	20.487	935.786	721.600
172.023	20.608	935.491	721.813
173.037	20.891	934.754	722.355
174.052	21.084	934.249	722.699
175.067	21.052	933.367	721.822
176.081	20.601	932.328	719.091
177.096	20.237	931.555	716.926
178.110	20.367	929.997	716.200
179.125	20.325	929.129	715.292
180.140	20.354	928.885	715.162
181.154	20.533	928.260	715.356
182.169	20.818	928.232	716.444
183.183	20.988	927.832	716.769
184.198	21.047	927.410	716.624
185.213	20.967	926.454	715.492
186.227	20.909	925.905	714.767
187.242	21.035	925.168	714.650
188.256	21.170	924.830	714.881
189.271	21.259	924.187	714.684
190.286	21.307	923.569	714.339
191.300	21.156	922.219	712.615
192.315	20.502	920.855	708.829
193.329	20.082	920.198	706.551
194.344	20.131	919.936	706.488
195.359	20.479	918.834	706.993
196.373	20.588	918.665	707.244
197.388	20.652	918.401	707.238
198.402	20.897	918.438	708.201
199.417	21.138	918.223	708.952
200.432	21.481	917.740	709.908
201.446	21.458	918.037	709.982
202.461	21.648	917.439	710.228
203.475	21.719	917.068	710.164
204.490	21.699	916.128	709.294
205.504	21.275	914.108	705.952
206.519	20.966	913.740	704.359
207.534	20.935	913.346	703.866
208.548	20.943	912.080	702.863
209.563	20.936	911.130	702.038
210.577	21.014	910.903	702.114
211.592	21.004	910.478	701.685
212.607	21.242	909.905	702.138
213.621	21.494	909.726	702.952
214.636	21.551	908.489	702.162
215.650	21.334	907.976	700.834
216.665	21.289	907.735	700.404
217.680	21.361	907.140	700.170
218.694	21.475	907.046	700.496
219.709	21.596	906.710	700.656
220.723	21.631	905.366	699.696
221.738	21.326	904.903	698.060
222.753	21.300	904.012	697.208
223.767	21.289	903.293	696.547
224.782	21.312	902.984	696.337
225.796	21.552	902.142	696.581
226.811	21.781	901.632	697.036
227.826	21.541	900.745	695.336
228.840	21.246	900.133	693.632
229.855	21.133	899.347	692.514
230.869	21.067	898.904	691.851
231.884	21.218	897.983	691.678
232.899	21.089	897.072	690.406
233.913	20.980	896.230	689.264
234.928	20.988	895.492	688.668
235.942	20.884	894.249	687.242
236.957	20.639	894.167	686.151
237.972	20.683	893.537	685.782
238.986	20.736	893.089	685.588
240.001	20.776	892.101	684.924
241.015	20.733	891.866	684.513
242.030	20.774	890.684	683.707
243.045	21.039	890.224	684.332
244.059	21.055	890.091	684.233
245.074	21.102	889.860	684.178
246.088	21.198	889.139	683.939
247.103	21.359	888.665	684.145
248.117	21.607	888.171	684.673
249.132	21.753	888.117	685.142
250.147	22.061	887.662	685.933
251.161	22.446	887.600	687.329
252.176	22.545	886.927	687.132
253.190	22.534	886.468	686.675
254.205	22.641	885.592	686.350
255.220	22.679	885.479	686.351
256.234	22.559	884.386	684.975
257.249	22.476	883.590	683.978
258.263	22.515	883.162	683.736
259.278	22.347	882.858	682.787
260.293	22.402	881.786	682.112
261.307	22.474	881.514	682.120
262.322	22.535	881.009	681.907
263.336	22.538	880.858	681.739
264.351	22.466	880.565	681.174
265.366	22.508	879.428	680.399
266.380	22.564	878.572	679.891
267.395	22.558	877.865	679.258
268.409	22.511	877.337	678.610
269.424	22.331	876.624	677.307
270.439	22.401	875.771	676.857
271.453	22.171	875.259	675.516
272.468	22.039	874.433	674.312
273.482	22.015	873.710	673.605
274.497	22.153	873.198	673.676
275.512	22.116	872.475	672.919
276.526	22.053	871.461	671.837
277.541	21.958	871.032	671.083
278.555	21.937	871.162	671.045
279.570	22.356	869.988	671.679
280.585	22.596	869.920	672.483
281.599	22.685	869.314	672.295
282.614	22.500	868.616	670.991
283.628	22.040	867.847	668.584
284.643	21.927	867.412	667.762
285.657	22.031	866.840	667.656
286.672	22.066	866.311	667.325
287.687	22.152	865.474	666.946
288.701	22.262	864.767	666.760
289.716	22.156	864.598	666.170
290.730	22.257	863.726	665.820
291.745	22.294	863.457	665.694
292.760	22.335	862.384	664.964
293.774	22.350	862.001	664.668
294.789	22.689	862.010	665.894
295.803	22.713	861.184	665.286
296.818	22.263	860.727	663.179
297.833	22.141	859.945	662.060
298.847	22.139	859.161	661.388
299.862	22.313	858.016	661.104
300.876	22.315	857.921	660.980
301.891	22.398	857.694	661.056
302.906	22.763	856.889	661.748
303.920	22.778	856.538	661.473
304.935	22.960	856.310	661.919
305.949	23.108	855.638	661.898
306.964	22.988	854.964	660.868
307.979	22.766	854.233	659.415
308.993	22.491	853.674	657.898
310.008	22.826	852.715	658.349
311.022	22.836	852.470	658.142
312.037	22.674	852.330	657.370
313.052	22.404	851.527	655.688
314.066	22.328	850.780	654.771
315.081	22.026	849.518	652.620
316.095	22.034	848.963	652.165
317.110	22.060	848.680	651.988
318.125	22.260	847.753	651.960
319.139	22.150	847.399	651.221
320.154	21.957	847.175	650.276
321.168	21.951	846.561	649.724
322.183	21.937	846.293	649.412
323.197	22.216	845.546	649.810
324.212	22.307	844.787	649.506
325.227	22.300	844.231	648.995
326.241	22.145	843.993	648.184
327.256	22.161	843.276	647.636
328.270	22.091	842.684	646.863
329.285	22.113	841.984	646.350
330.300	22.025	841.475	645.580
331.314	22.025	840.676	644.910
332.329	21.989	840.417	644.522
333.343	22.326	839.751	645.191
334.358	22.721	839.200	646.155
335.373	22.541	838.915	645.219
336.387	22.664	838.243	645.098
337.402	22.561	838.171	644.609
338.416	22.732	837.655	644.777
339.431	22.893	837.438	645.142
340.446	23.206	836.912	645.822
341.460	23.240	836.615	645.658
342.475	23.339	835.677	645.241
343.489	23.359	835.795	645.347
344.504	23.454	834.906	644.947
345.519	23.561	834.378	644.873
346.533	23.735	833.825	645.021
347.548	23.536	833.196	643.753
348.562	23.221	832.801	642.250
349.577	22.870	831.638	640.023
350.592	22.913	830.819	639.492
351.606	22.728	830.476	638.502
352.621	22.441	829.940	636.994
353.635	22.530	829.367	636.819
354.650	22.554	829.296	636.797
355.665	22.881	828.874	637.597
356.679	22.759	828.664	636.938
357.694	22.858	827.907	636.657
358.708	22.936	827.179	636.322
359.723	22.923	826.516	635.711
360.738	22.837	826.158	635.070
361.752	22.819	825.613	634.531
362.767	22.946	824.888	634.372
363.781	23.169	825.181	635.341
364.796	23.372	824.831	635.744
365.810	23.615	824.268	636.125
366.825	23.634	824.151	636.046
367.840	23.847	823.927	636.582
368.854	23.684	823.583	635.674
369.869	23.544	822.753	634.475
370.883	23.432	822.062	633.487
371.898	23.317	821.561	632.634
372.913	23.442	820.748	632.400
373.927	23.595	820.342	632.576
374.942	23.503	819.407	631.470
375.956	23.430	818.755	630.651
376.971	23.561	818.408	630.797
377.986	23.607	818.242	630.774
379.000	23.843	817.416	630.921
380.015	23.953	817.425	631.264
381.029	23.849	816.752	630.318
382.044	23.581	816.417	629.055
383.059	23.836	815.498	629.193
384.073	23.918	814.835	628.917
385.088	23.717	814.413	627.822
386.102	23.373	813.400	625.772
387.117	23.303	812.470	624.755
388.132	23.167	812.200	624.013
389.146	23.092	811.865	623.434
390.161	23.161	811.268	623.164
391.175	23.391	811.215	623.878
392.190	23.697	811.030	624.759
393.205	23.572	810.321	623.717
394.219	23.403	809.466	622.409
395.234	23.192	808.961	621.228
396.248	22.815	808.414	619.427
397.263	22.963	807.558	619.239
398.278	22.996	807.009	618.877
399.292	22.838	806.675	618.012
400.307	22.764	806.374	617.469
401.321	22.728	805.974	616.981
402.336	22.828	805.801	617.145
403.350	23.067	805.422	617.633
404.365	23.148	804.927	617.484
405.380	23.513	804.753	618.568
406.394	23.663	804.663	618.969
407.409	23.926	804.329	619.570
408.423	24.027	803.831	619.483
409.438	23.985	803.703	619.184
410.453	24.202	803.144	619.456
411.467	24.145	802.647	618.819
412.482	24.194	802.189	618.579
413.496	24.220	801.798	618.314
414.511	24.280	801.256	618.049
415.526	24.425	800.857	618.188
416.540	24.156	800.704	617.086
417.555	24.129	799.567	616.062
418.569	24.188	799.157	615.893
419.584	24.090	798.989	615.372
420.599	24.101	798.237	614.777
421.613	163.116	1370.973	1797.185
422.628	141.625	1454.417	1797.298
