DTS Sentinel unit serial number:	SN413079Multiplexer serial number:	ORYXHardware model number:	OX4-SRSoftware version number:	ORYX F/W v4.00 Oryx Data Collector v3.7.2.0data status	okinstallation	princeton_trtdifferential loss correction	single-endedforward channel	channel 3reverse channel	N/Adate	2019/09/17time	04:00:35forward acquisition time	60.00reverse acquisition time	0.00gamma	496.2192k internal	0.2323k external	0.2323temperature offset calibration	0.9945default loss term (dB/km)	0.3790temperature slope calibration	1.0000multiplexer offset coefficient	1.0000multiplexer slope coefficient	1.0000fibre end	0.00T internal ref (°C)	29.91T ext. ref 1 (°C)	0.13T ext. ref 2 (°C)	24.40length (m)	temperature (°C)	Stokes	anti-Stokes-747.200	-35.293	-0.626	-0.344
-746.185	-200.000	0.000	-0.384
-745.171	522.425	-0.122	-0.288
-744.156	-197.265	-0.390	-0.002
-743.142	177.337	-0.360	-0.529
-742.127	-200.000	0.035	0.158
-741.112	-200.000	-0.055	0.348
-740.098	483.160	0.110	0.253
-739.083	-82.044	-0.049	-0.016
-738.069	697.076	-0.066	0.175
-737.054	-34.885	-0.232	0.128
-736.039	-66.692	-0.405	-0.162
-735.025	-60.815	-0.064	0.027
-734.010	800.000	-0.062	-0.195
-732.996	-101.768	-0.180	0.044
-731.981	-51.005	0.119	-0.056
-730.966	-200.000	-0.032	0.147
-729.952	-115.110	0.331	0.063
-728.937	-148.138	0.195	-0.016
-727.923	-15.953	-0.167	-0.107
-726.908	-200.000	0.011	-0.250
-725.894	755.446	-0.066	-0.179
-724.879	202.397	-0.099	-0.153
-723.864	-47.995	0.112	0.055
-722.850	800.000	-0.014	-0.042
-721.835	590.385	-0.037	0.093
-720.821	-134.198	-0.377	-0.047
-719.806	-38.082	-0.050	0.027
-718.791	135.371	-0.117	0.153
-717.777	-31.141	0.055	0.031
-716.762	-200.000	0.017	-0.125
-715.748	-44.722	-0.407	0.205
-714.733	256.456	-0.139	-0.240
-713.718	-200.000	-0.029	-0.137
-712.704	145.607	-0.058	-0.079
-711.689	-57.653	0.456	0.201
-710.675	157.547	0.156	0.218
-709.660	-67.636	0.272	-0.107
-708.645	381.991	0.122	0.253
-707.631	782.453	-0.044	-0.123
-706.616	-200.000	-0.007	-0.194
-705.602	38.500	0.124	-0.112
-704.587	-200.000	-0.003	0.196
-703.572	232.977	-0.104	-0.172
-702.558	-3.844	0.051	-0.035
-701.543	800.000	-0.056	0.241
-700.529	-200.000	0.022	0.342
-699.514	-200.000	-0.012	0.188
-698.499	182.306	-0.171	0.254
-697.485	173.867	0.034	0.049
-696.470	-79.253	-0.100	0.034
-695.456	-6.963	0.095	-0.065
-694.441	-134.672	0.106	0.013
-693.426	198.607	-0.170	-0.263
-692.412	-167.003	-0.228	0.009
-691.397	737.021	-0.028	-0.076
-690.383	100.049	0.069	0.081
-689.368	-15.632	-0.277	0.178
-688.354	-200.000	-0.000	-0.428
-687.339	800.000	0.017	-0.058
-686.324	-56.195	-0.316	0.142
-685.310	-46.199	-0.142	0.070
-684.295	-101.334	-0.246	-0.060
-683.281	35.397	-0.093	-0.082
-682.266	135.474	0.096	-0.126
-681.251	71.673	-0.050	0.052
-680.237	213.637	-0.052	0.083
-679.222	677.770	-0.052	-0.136
-678.208	339.221	0.106	-0.208
-677.193	391.032	-0.117	0.244
-676.178	94.187	-0.109	-0.125
-675.164	352.280	-0.131	0.262
-674.149	800.000	-0.063	0.226
-673.135	-70.875	0.322	0.122
-672.120	-94.382	-0.278	0.076
-671.105	-137.338	0.248	0.028
-670.091	-10.188	-0.305	0.204
-669.076	-200.000	0.005	-0.256
-668.062	-200.000	-0.009	0.214
-667.047	295.638	0.086	0.159
-666.032	90.994	0.037	-0.042
-665.018	-200.000	-0.039	0.215
-664.003	-162.321	-0.196	0.010
-662.989	243.006	-0.141	-0.237
-661.974	3.333	0.049	0.036
-660.959	253.413	0.090	0.155
-659.945	154.221	-0.118	-0.164
-658.930	-200.000	0.001	0.142
-657.916	97.502	0.056	-0.064
-656.901	800.000	0.039	0.165
-655.886	-15.352	0.042	0.027
-654.872	378.859	0.173	-0.356
-653.857	759.057	0.031	-0.085
-652.843	-200.000	-0.071	-0.401
-651.828	290.793	0.128	0.235
-650.814	507.716	0.125	-0.292
-649.799	-97.513	0.172	0.045
-648.784	11.850	-0.228	0.176
-647.770	-60.109	0.389	-0.167
-646.755	-172.683	-0.225	-0.007
-645.741	-105.940	0.314	-0.071
-644.726	503.745	0.090	-0.209
-643.711	124.173	0.053	0.067
-642.697	-52.715	-0.219	0.101
-641.682	-112.895	-0.197	-0.039
-640.668	-200.000	-0.006	-0.122
-639.653	151.500	-0.225	-0.308
-638.638	-99.539	-0.262	-0.066
-637.624	204.513	-0.093	-0.145
-636.609	515.186	0.111	0.261
-635.595	800.000	-0.169	-0.473
-634.580	-42.330	0.196	-0.100
-633.565	-200.000	0.055	0.312
-632.551	-91.109	0.300	-0.087
-631.536	-59.943	-0.155	0.066
-630.522	23.597	-0.509	0.421
-629.507	-200.000	-0.058	-0.256
-628.492	-70.906	-0.085	-0.032
-627.478	649.827	-0.098	0.253
-626.463	-17.807	-0.104	0.066
-625.449	2.695	0.199	0.145
-624.434	209.611	0.042	0.066
-623.419	-200.000	-0.024	-0.157
-622.405	-200.000	-0.020	0.096
-621.390	-200.000	-0.012	0.135
-620.376	-200.000	0.010	-0.116
-619.361	1.014	-0.160	0.115
-618.346	249.476	-0.084	0.142
-617.332	67.666	-0.131	0.134
-616.317	-123.357	-0.095	0.015
-615.303	90.929	0.109	-0.122
-614.288	-17.963	0.414	0.260
-613.273	-65.753	0.172	-0.069
-612.259	-90.507	0.227	0.066
-611.244	-200.000	0.003	0.143
-610.230	-200.000	0.063	-0.338
-609.215	114.456	-0.158	-0.193
-608.201	7.744	-0.258	0.194
-607.186	-200.000	-0.020	0.113
-606.171	292.718	-0.074	-0.135
-605.157	-44.851	0.256	-0.128
-604.142	-81.779	-0.187	0.061
-603.128	689.190	-0.106	0.278
-602.113	-23.470	0.121	0.073
-601.098	190.143	0.087	-0.132
-600.084	52.148	0.120	-0.115
-599.069	800.000	-0.073	-0.216
-598.055	-74.250	-0.139	0.050
-597.040	-134.338	0.206	0.025
-596.025	373.900	0.093	0.190
-595.011	71.853	-0.265	0.276
-593.996	156.468	-0.073	-0.102
-592.982	-200.000	0.071	0.541
-591.967	-200.000	0.045	0.327
-590.952	-200.000	-0.038	0.255
-589.938	-122.151	0.233	-0.038
-588.923	-200.000	-0.011	-0.326
-587.909	-27.208	-0.090	0.053
-586.894	37.307	-0.155	0.138
-585.879	800.000	-0.020	-0.070
-584.865	-148.255	-0.284	0.023
-583.850	385.313	-0.125	0.258
-582.836	475.633	0.021	0.048
-581.821	-108.673	-0.524	-0.113
-580.806	274.073	0.137	-0.244
-579.792	105.570	-0.146	-0.174
-578.777	177.965	0.039	-0.057
-577.763	-200.000	0.006	-0.072
-576.748	800.000	0.090	-0.249
-575.733	-94.881	0.201	-0.055
-574.719	-163.151	0.196	-0.009
-573.704	-137.885	-0.253	-0.028
-572.690	-200.000	-0.005	0.149
-571.675	-200.000	-0.006	0.050
-570.661	-108.384	0.161	0.035
-569.646	-116.067	0.159	-0.030
-568.631	-40.644	0.320	-0.167
-567.617	-1.628	-0.038	0.027
-566.602	168.399	0.038	-0.055
-565.588	304.100	0.054	-0.101
-564.573	31.874	0.132	-0.114
-563.558	-121.444	-0.372	-0.062
-562.544	-79.282	-0.153	0.052
-561.529	-14.979	-0.144	-0.092
-560.515	-23.947	-0.140	0.084
-559.500	67.325	-0.361	-0.369
-558.485	-129.938	0.106	0.015
-557.471	279.508	-0.088	-0.158
-556.456	-200.000	0.005	0.219
-555.442	139.774	-0.048	-0.063
-554.427	4.243	0.256	0.188
-553.412	800.000	-0.062	0.190
-552.398	800.000	0.075	0.262
-551.383	-155.486	-0.237	0.015
-550.369	-42.495	0.133	0.068
-549.354	96.698	-0.167	-0.192
-548.339	-60.112	-0.166	-0.071
-547.325	425.070	0.082	-0.177
-546.310	-160.028	-0.431	-0.024
-545.296	135.678	-0.033	0.042
-544.281	-140.523	-0.351	0.037
-543.266	-102.998	0.184	-0.044
-542.252	-17.331	0.028	-0.018
-541.237	-160.885	0.109	-0.006
-540.223	384.071	0.048	-0.099
-539.208	150.635	-0.094	0.129
-538.193	338.378	-0.088	-0.172
-537.179	-36.041	-0.054	0.029
-536.164	-200.000	0.019	0.279
-535.150	441.551	-0.046	0.101
-534.135	-69.667	-0.249	0.095
-533.121	-41.480	0.120	0.062
-532.106	259.829	0.097	0.167
-531.091	-162.073	0.132	-0.007
-530.077	-200.000	-0.041	0.252
-529.062	-100.070	0.180	-0.045
-528.048	-29.050	0.115	0.066
-527.033	-145.455	-0.232	-0.021
-526.018	80.773	-0.081	0.087
-525.004	82.410	-0.161	0.175
-523.989	-40.556	0.328	-0.171
-522.975	132.849	0.061	-0.079
-521.960	694.038	0.041	0.108
-520.945	164.376	-0.167	-0.236
-519.931	-200.000	-0.004	-0.115
-518.916	-35.858	0.097	0.053
-517.902	13.525	-0.103	0.080
-516.887	313.186	0.038	-0.071
-515.872	94.559	0.314	0.358
-514.858	-16.159	0.218	-0.139
-513.843	75.992	0.203	0.215
-512.829	189.634	0.206	0.310
-511.814	800.000	0.014	-0.045
-510.799	-200.000	0.012	-0.217
-509.785	710.727	-0.086	-0.228
-508.770	401.394	-0.124	0.261
-507.756	-105.753	-0.053	0.012
-506.741	-104.444	0.237	0.055
-505.726	-117.917	-0.162	-0.029
-504.712	-200.000	0.020	-0.104
-503.697	-112.591	-0.180	-0.036
-502.683	25.850	-0.265	0.221
-501.668	155.476	0.052	0.072
-500.653	800.000	0.081	0.250
-499.639	445.735	0.119	0.262
-498.624	-189.655	0.325	0.004
-497.610	-82.549	-0.088	0.029
-496.595	-132.629	0.131	-0.017
-495.581	-38.346	0.094	0.050
-494.566	10.136	0.174	-0.132
-493.551	-200.000	-0.016	0.079
-492.537	359.567	-0.059	-0.118
-491.522	-39.332	0.211	0.111
-490.508	-186.580	-0.176	-0.002
-489.493	170.089	-0.032	-0.045
-488.478	-72.641	0.256	0.094
-487.464	-143.982	-0.181	-0.017
-486.449	34.521	0.054	-0.047
-485.435	-134.725	0.155	0.019
-484.420	-200.000	-0.006	0.106
-483.405	-137.011	0.275	0.032
-482.391	97.219	0.160	-0.183
-481.376	118.541	0.098	0.121
-480.362	-200.000	-0.013	-0.226
-479.347	481.208	-0.048	-0.109
-478.332	-200.000	-0.027	-0.163
-477.318	-13.363	0.126	0.082
-476.303	49.030	0.093	0.087
-475.289	228.363	-0.110	-0.180
-474.274	-56.085	-0.234	-0.104
-473.259	-101.471	0.149	-0.036
-472.245	168.200	-0.213	-0.302
-471.230	688.640	-0.042	0.110
-470.216	-200.000	-0.008	0.266
-469.201	800.000	-0.031	-0.120
-468.186	23.837	-0.160	0.132
-467.172	201.542	0.180	-0.277
-466.157	160.524	0.188	-0.262
-465.143	-55.954	0.293	-0.130
-464.128	-200.000	-0.011	-0.066
-463.113	-200.000	-0.011	0.252
-462.099	210.680	-0.115	0.180
-461.084	-200.000	0.019	-0.205
-460.070	51.802	0.167	-0.158
-459.055	-3.472	0.176	0.122
-458.040	-134.087	-0.209	-0.026
-457.026	-149.306	0.407	0.032
-456.011	800.000	0.034	0.112
-454.997	-200.000	0.010	-0.278
-453.982	108.696	0.080	0.095
-452.968	-43.202	-0.077	-0.039
-451.953	115.451	0.166	-0.203
-450.938	800.000	-0.035	0.123
-449.924	147.143	0.203	-0.272
-448.909	-200.000	0.040	0.369
-447.895	-56.963	0.074	0.033
-446.880	216.195	0.173	-0.274
-445.865	38.636	-0.199	-0.177
-444.851	-89.895	-0.173	0.051
-443.836	-192.134	-0.323	-0.003
-442.822	293.310	0.156	-0.283
-441.807	67.232	0.103	-0.105
-440.792	-200.000	-0.013	0.060
-439.778	-109.243	0.288	0.061
-438.763	800.000	0.034	-0.140
-437.749	72.743	-0.238	-0.248
-436.734	193.828	-0.098	-0.148
-435.719	-25.819	-0.104	0.061
-434.705	-200.000	-0.023	-0.152
-433.690	61.821	0.041	-0.041
-432.676	-200.000	0.031	0.165
-431.661	-37.914	0.084	-0.044
-430.646	-200.000	0.030	0.230
-429.632	29.467	0.245	0.208
-428.617	-79.173	-0.125	0.042
-427.603	-12.011	-0.171	-0.112
-426.588	-162.391	0.295	0.015
-425.573	-163.118	-0.271	-0.013
-424.559	535.870	-0.071	0.168
-423.544	-9.434	0.323	-0.215
-422.530	110.966	0.124	0.149
-421.515	552.972	0.030	0.071
-420.500	-11.643	-0.168	-0.110
-419.486	48.640	-0.135	-0.127
-418.471	180.254	-0.297	-0.434
-417.457	226.188	0.183	-0.296
-416.442	-91.596	0.204	0.058
-415.428	615.726	0.054	0.135
-414.413	-200.000	-0.080	-0.398
-413.398	-199.734	0.170	-0.001
-412.384	123.158	-0.114	-0.142
-411.369	-80.801	-0.124	0.041
-410.355	800.000	-0.015	-0.043
-409.340	-63.976	0.195	0.079
-408.325	-62.284	-0.294	0.122
-407.311	109.446	0.142	-0.170
-406.296	90.016	0.152	-0.170
-405.282	164.342	-0.172	-0.241
-404.267	-181.651	0.225	0.004
-403.252	-200.000	-0.025	0.117
-402.238	451.558	-0.051	0.113
-401.223	800.000	-0.027	0.077
-400.209	10.259	-0.350	-0.265
-399.194	-48.734	0.250	-0.119
-398.179	-5.874	-0.082	0.056
-397.165	-111.279	-0.332	-0.068
-396.150	281.333	0.071	0.127
-395.136	-72.122	-0.045	0.017
-394.121	338.879	-0.018	0.035
-393.106	137.734	-0.149	-0.195
-392.092	-200.000	-0.019	0.120
-391.077	268.752	-0.042	-0.073
-390.063	199.283	-0.126	-0.193
-389.048	800.000	-0.033	0.119
-388.033	-128.411	0.152	0.022
-387.019	-101.358	-0.450	0.109
-386.004	-92.350	-0.337	0.094
-384.990	-92.694	-0.148	-0.041
-383.975	-200.000	-0.060	-0.263
-382.960	-139.950	0.281	-0.030
-381.946	588.556	0.151	-0.370
-380.931	203.599	0.117	-0.180
-379.917	319.700	-0.057	0.107
-378.902	800.000	-0.073	-0.208
-377.888	-200.000	-0.004	-0.112
-376.873	-200.000	0.021	0.267
-375.858	143.613	0.084	-0.111
-374.844	88.842	0.142	0.157
-373.829	82.851	-0.144	0.156
-372.815	800.000	0.027	-0.100
-371.800	-200.000	-0.020	-0.214
-370.785	-200.000	0.004	-0.098
-369.771	361.760	0.141	0.281
-368.756	-43.542	0.134	-0.067
-367.742	-200.000	0.065	-0.303
-366.727	163.802	0.148	-0.208
-365.712	751.998	0.073	-0.197
-364.698	-79.475	0.084	0.028
-363.683	-200.000	-0.037	0.301
-362.669	9.695	0.067	-0.050
-361.654	-10.964	-0.089	0.059
-360.639	800.000	-0.041	0.122
-359.625	-181.622	0.214	-0.004
-358.610	-91.494	0.532	-0.151
-357.596	218.086	0.113	0.180
-356.581	233.679	-0.113	0.185
-355.566	40.160	-0.043	0.038
-354.552	117.562	-0.226	-0.276
-353.537	102.743	0.160	-0.186
-352.523	517.214	-0.074	0.172
-351.508	139.815	0.312	-0.409
-350.493	-154.056	0.295	0.020
-349.479	-200.000	0.001	0.279
-348.464	108.256	0.210	-0.249
-347.450	-64.647	0.146	0.059
-346.435	800.000	-0.080	-0.259
-345.420	76.787	-0.177	0.186
-344.406	158.170	0.085	0.117
-343.391	800.000	0.087	0.333
-342.377	-184.636	-0.299	0.005
-341.362	-156.680	0.201	0.012
-340.348	-60.163	0.166	-0.070
-339.333	-152.938	-0.199	0.014
-338.318	800.000	-0.063	-0.178
-337.304	81.913	-0.378	-0.407
-336.289	-2.218	0.152	-0.106
-335.275	-156.957	-0.077	-0.005
-334.260	-126.124	0.152	0.023
-333.245	-78.540	0.015	-0.005
-332.231	-200.000	0.021	-0.100
-331.216	356.317	0.144	0.284
-330.202	22.147	0.058	0.047
-329.187	-146.950	0.153	-0.013
-328.172	800.000	-0.111	0.335
-327.158	-200.000	0.010	0.185
-326.143	62.790	0.316	0.314
-325.129	-56.237	-0.476	0.210
-324.114	-80.179	-0.269	0.089
-323.099	398.345	-0.085	-0.177
-322.085	33.586	0.067	-0.058
-321.070	800.000	0.020	0.082
-320.056	-24.019	-0.040	-0.024
-319.041	-76.628	0.120	0.042
-318.026	-84.457	-0.176	0.055
-317.012	333.906	-0.167	0.321
-315.997	-200.000	0.036	0.338
-314.983	-106.808	-0.115	0.025
-313.968	-95.118	0.265	0.071
-312.953	-21.024	0.105	0.064
-311.939	-200.000	0.003	-0.111
-310.924	-98.669	-0.061	0.015
-309.910	-27.871	0.133	0.076
-308.895	800.000	-0.144	0.448
-307.880	82.090	0.212	0.228
-306.866	800.000	0.036	0.144
-305.851	70.621	-0.043	0.044
-304.837	396.176	-0.138	-0.286
-303.822	-200.000	0.018	-0.186
-302.807	21.829	-0.160	0.130
-301.793	375.323	-0.070	-0.142
-300.778	190.439	-0.139	-0.208
-299.764	-200.000	-0.012	-0.125
-298.749	-65.451	0.123	0.049
-297.735	20.313	0.243	0.195
-296.720	800.000	0.083	0.277
-295.705	622.806	-0.103	0.258
-294.691	-53.067	-0.629	-0.287
-293.676	-90.011	0.077	0.022
-292.662	800.000	-0.070	-0.203
-291.647	-64.005	0.067	-0.027
-290.632	683.563	-0.020	0.051
-289.618	592.983	0.058	-0.142
-288.603	73.983	-0.076	-0.080
-287.589	-7.265	-0.224	0.151
-286.574	162.002	-0.032	0.045
-285.559	173.898	-0.278	0.398
-284.545	-71.616	0.190	0.070
-283.530	230.943	-0.078	0.127
-282.516	800.000	0.202	-0.617
-281.501	8.037	0.273	0.203
-280.486	-22.518	-0.374	0.224
-279.472	-145.739	-0.069	-0.006
-278.457	43.120	-0.044	-0.040
-277.443	487.866	0.052	0.117
-276.428	-25.943	-0.163	-0.095
-275.413	-97.782	-0.232	0.059
-274.399	-200.000	-0.029	-0.179
-273.384	-146.440	0.023	0.002
-272.370	182.858	0.151	-0.221
-271.355	2.029	-0.193	0.138
-270.340	-200.000	0.018	0.150
-269.326	800.000	-0.164	0.475
-268.311	183.306	0.056	-0.083
-267.297	1.447	-0.039	0.028
-266.282	231.864	-0.165	-0.268
-265.267	554.518	0.064	0.152
-264.253	91.156	0.235	-0.261
-263.238	-126.285	-0.136	-0.020
-262.224	-200.000	0.033	0.176
-261.209	-79.136	-0.147	0.049
-260.195	85.681	0.158	-0.172
-259.180	-23.540	-0.362	-0.216
-258.165	708.675	0.097	0.254
-257.151	-84.396	-0.261	-0.082
-256.136	-200.000	0.017	0.097
-255.122	137.950	-0.171	-0.222
-254.107	800.000	-0.071	0.227
-253.092	800.000	-0.038	0.108
-252.078	-43.448	0.059	0.029
-251.063	23.781	0.227	0.185
-250.049	-76.388	-0.427	0.149
-249.034	-159.455	-0.256	0.014
-248.019	-200.000	-0.021	-0.110
-247.005	179.847	0.073	0.106
-245.990	29.088	-0.121	-0.102
-244.976	546.307	-0.059	-0.139
-243.961	800.000	-0.066	-0.203
-242.946	-200.000	0.293	0.000
-241.932	-94.703	0.158	-0.043
-240.917	17.026	-0.028	0.022
-239.903	-17.981	-0.103	-0.064
-238.888	483.547	0.050	-0.113
-237.873	-117.260	0.089	-0.016
-236.859	-89.849	0.213	-0.062
-235.844	-54.896	0.360	-0.161
-234.830	-91.371	-0.132	-0.037
-233.815	463.851	-0.166	0.368
-232.800	-156.368	0.251	-0.016
-231.786	-35.220	-0.237	0.128
-230.771	800.000	0.063	-0.201
-229.757	-47.096	-0.144	0.070
-228.742	160.915	-0.042	0.058
-227.727	-47.509	-0.129	0.062
-226.713	800.000	0.085	-0.234
-225.698	800.000	0.091	-0.276
-224.684	766.767	0.042	0.113
-223.669	-183.086	-0.332	0.006
-222.655	492.922	-0.057	0.128
-221.640	323.928	-0.038	0.071
-220.625	-3.150	0.065	0.045
-219.611	-200.000	0.014	-0.260
-218.596	-78.276	-0.087	0.030
-217.582	3.154	0.221	-0.159
-216.567	123.751	0.116	-0.144
-215.552	483.691	-0.050	0.113
-214.538	-103.276	-0.098	0.023
-213.523	70.669	0.197	0.202
-212.509	-146.614	0.365	-0.031
-211.494	-199.754	0.170	-0.001
-210.479	800.000	-0.141	0.491
-209.465	-151.581	0.245	-0.018
-208.450	-200.000	-0.005	-0.033
-207.436	-188.343	0.366	-0.005
-206.421	-200.000	0.019	0.144
-205.406	282.806	-0.108	-0.191
-204.392	-36.317	-0.180	0.096
-203.377	-57.133	0.107	0.047
-202.363	92.259	0.235	-0.261
-201.348	-200.000	0.118	0.000
-200.333	-200.000	0.017	-0.176
-199.319	-200.000	0.006	-0.064
-198.304	-171.097	-0.240	0.008
-197.290	373.741	0.092	0.185
-196.275	-200.000	0.011	0.200
-195.260	800.000	0.006	-0.024
-194.246	28.896	-0.241	-0.202
-193.231	-200.000	-0.019	-0.359
-192.217	116.651	0.244	-0.296
-191.202	-154.942	0.198	-0.013
-190.187	-182.046	0.232	0.004
-189.173	-130.770	-0.345	-0.046
-188.158	-200.000	-0.013	-0.222
-187.144	-200.000	-0.102	0.557
-186.129	-128.179	0.269	-0.038
-185.114	146.753	0.144	0.191
-184.100	62.477	0.106	0.104
-183.085	161.736	-0.139	-0.192
-182.071	341.060	-0.155	0.299
-181.056	-146.483	0.094	0.008
-180.042	-200.000	-0.299	0.001
-179.027	800.000	-0.103	-0.310
-178.012	365.666	0.120	0.239
-176.998	-200.000	0.037	0.257
-175.983	-200.000	-0.036	0.333
-174.969	-79.450	-0.210	-0.070
-173.954	43.631	0.117	0.106
-172.939	-24.261	0.202	0.119
-171.925	-83.003	-0.296	-0.094
-170.910	-39.536	-0.124	-0.064
-169.896	-64.023	0.180	0.072
-168.881	800.000	0.036	0.134
-167.866	-200.000	-0.068	-0.341
-166.852	800.000	-0.101	0.348
-165.837	1.279	0.118	0.084
-164.823	-129.474	0.199	-0.027
-163.808	800.000	-0.067	0.230
-162.793	406.061	0.036	-0.076
-161.779	-63.001	0.181	0.074
-160.764	223.184	-0.225	-0.358
-159.750	-65.556	0.200	-0.079
-158.735	-200.000	-0.049	-0.388
-157.720	800.000	0.100	-0.377
-156.706	65.630	-0.153	0.153
-155.691	-86.266	0.276	0.084
-154.677	-64.889	-0.239	0.096
-153.662	28.690	-0.119	-0.099
-152.647	68.221	0.036	-0.037
-151.633	132.771	0.094	0.120
-150.618	-120.720	-0.333	-0.055
-149.604	250.586	-0.165	-0.276
-148.589	232.785	0.185	-0.300
-147.574	100.682	-0.146	0.167
-146.560	55.890	0.068	0.065
-145.545	800.000	0.056	0.182
-144.531	-19.640	-0.549	0.335
-143.516	83.622	0.012	-0.013
-142.502	-105.846	0.101	-0.022
-141.487	2.483	-0.227	0.162
-140.472	-200.000	-0.000	0.093
-139.458	-156.736	-0.265	-0.016
-138.443	91.237	-0.092	0.102
-137.429	-1.432	-0.313	0.218
-136.414	71.398	-0.091	0.094
-135.399	800.000	-0.065	0.257
-134.385	-36.079	0.119	0.063
-133.370	273.153	0.128	0.223
-132.356	-62.243	0.382	-0.157
-131.341	-21.169	-0.132	-0.080
-130.326	-200.000	0.070	0.429
-129.312	-23.070	0.317	0.188
-128.297	73.847	-0.267	0.276
-127.283	267.720	0.048	-0.083
-126.268	77.033	-0.200	0.210
-125.253	-123.986	-0.179	-0.028
-124.239	12.270	-0.166	-0.126
-123.224	-200.000	0.024	0.195
-122.210	-24.182	0.181	0.106
-121.195	800.000	-0.009	-0.033
-120.180	-85.971	0.178	-0.054
-119.166	540.274	0.135	-0.318
-118.151	28.564	0.049	-0.040
-117.137	21.254	0.375	0.300
-116.122	10.047	0.297	0.222
-115.107	-112.360	0.334	0.066
-114.093	-100.408	-0.283	0.069
-113.078	374.076	0.226	0.454
-112.064	-99.797	0.154	0.038
-111.049	49.432	-0.119	-0.110
-110.034	117.859	-0.232	0.282
-109.020	647.643	0.049	-0.123
-108.005	-80.454	-0.231	0.076
-106.991	35.878	-0.358	0.310
-105.976	-30.639	0.259	0.144
-104.962	174.567	0.084	-0.119
-103.947	444.285	0.105	-0.226
-102.932	-41.861	0.300	0.151
-101.918	-151.198	0.301	-0.022
-100.903	-170.053	0.088	-0.003
-99.889	-42.996	-0.049	0.024
-98.874	-35.918	-0.213	0.114
-97.859	-200.000	-0.046	0.241
-96.845	-135.403	-0.230	0.027
-95.830	335.852	0.073	0.139
-94.816	-142.531	-0.111	0.011
-93.801	-53.005	0.121	-0.055
-92.786	110.724	-0.123	-0.145
-91.772	-45.686	0.178	-0.087
-90.757	311.249	-0.343	-0.633
-89.743	-200.000	-0.015	0.112
-88.728	27.422	0.394	0.326
-87.713	21.991	-0.084	-0.067
-86.699	-200.000	0.054	0.407
-85.684	-200.000	-0.017	-0.236
-84.670	-126.683	-0.077	-0.011
-83.655	83.835	-0.289	-0.311
-82.640	800.000	-0.083	0.234
-81.626	-200.000	-0.014	0.378
-80.611	-83.645	-0.190	-0.060
-79.597	-48.203	-0.390	-0.185
-78.582	-71.510	0.137	0.051
-77.567	460.636	-0.126	0.276
-76.553	-200.000	0.019	0.195
-75.538	-77.849	-0.191	-0.065
-74.524	-139.221	0.115	-0.012
-73.509	46.617	0.067	0.061
-72.494	33.884	-0.066	-0.056
-71.480	341.277	0.184	0.354
-70.465	-7.851	0.261	0.173
-69.451	-168.622	0.104	0.004
-68.436	-200.000	-0.018	0.246
-67.422	800.000	0.095	-0.331
-66.407	-98.042	0.148	0.038
-65.392	41.492	-0.197	0.175
-64.378	-75.973	0.154	0.053
-63.363	238.777	0.093	-0.152
-62.349	-167.609	-0.111	0.004
-61.334	-23.698	-1.053	-0.620
-60.319	41.848	0.400	0.356
-59.305	602.113	-0.404	-0.987
-58.290	266.654	0.641	1.101
-57.276	385.780	0.759	1.539
-56.261	-200.000	106.741	585.688
-55.246	455.658	1465.354	3194.542
-54.232	148.547	2648.420	3516.322
-53.217	106.001	2179.777	2536.004
-52.203	40.258	1709.457	1511.294
-51.188	33.008	1522.309	1296.266
-50.173	30.612	1495.809	1257.467
-49.159	50.976	1549.771	1443.595
-48.144	51.513	1566.808	1463.104
-47.130	33.133	1523.620	1298.033
-46.115	30.230	1508.571	1265.391
-45.100	29.946	1505.439	1260.779
-44.086	30.025	1503.049	1259.263
-43.071	29.931	1501.444	1257.229
-42.057	29.886	1499.617	1255.346
-41.042	29.922	1498.104	1254.275
-40.027	29.877	1496.681	1252.731
-39.013	29.820	1495.226	1251.076
-37.998	29.751	1494.197	1249.699
-36.984	29.832	1492.612	1248.873
-35.969	29.779	1491.666	1247.669
-34.954	29.899	1489.959	1247.002
-33.940	29.815	1489.092	1245.665
-32.925	29.895	1487.342	1244.688
-31.911	29.898	1486.154	1243.663
-30.896	30.006	1484.832	1243.229
-29.881	29.988	1483.337	1241.809
-28.867	30.035	1481.740	1240.740
-27.852	29.998	1480.881	1239.720
-26.838	29.955	1479.478	1238.214
-25.823	30.084	1477.501	1237.372
-24.809	30.011	1476.277	1235.808
-23.794	29.936	1474.851	1234.068
-22.779	29.916	1473.651	1232.883
-21.765	29.936	1472.632	1232.108
-20.750	29.910	1471.634	1231.055
-19.736	30.011	1470.315	1230.572
-18.721	29.937	1469.353	1229.228
-17.706	29.962	1467.684	1227.948
-16.692	29.947	1466.635	1226.926
-15.677	29.866	1466.168	1225.947
-14.663	29.963	1464.942	1225.516
-13.648	29.972	1463.783	1224.559
-12.633	29.934	1463.039	1223.636
-11.619	29.833	1462.434	1222.415
-10.604	29.867	1461.101	1221.473
-9.590	29.815	1460.816	1220.846
-8.575	29.868	1459.606	1220.131
-7.560	29.870	1458.499	1219.171
-6.546	29.821	1457.838	1218.250
-5.531	29.919	1456.550	1217.767
-4.517	29.884	1456.003	1217.036
-3.502	29.961	1454.753	1216.444
-2.487	29.919	1453.610	1215.166
-1.473	29.770	1453.511	1214.055
-0.458	29.785	1451.955	1212.811
0.556	28.149	1441.217	1201.544
1.571	25.129	1415.924	1160.830
2.586	21.623	1354.651	1088.741
3.600	19.907	1271.991	1012.192
4.615	18.833	1226.902	970.161
5.629	16.464	1171.103	913.177
6.644	8.258	1086.295	805.696
7.659	1.397	1045.686	742.074
8.673	0.181	1039.977	732.049
9.688	0.139	1037.023	729.701
10.702	0.097	1035.120	728.093
11.717	0.102	1033.290	726.766
12.731	2.717	1035.684	741.029
13.746	10.892	1047.206	789.018
14.761	16.990	1054.352	824.041
15.775	17.677	1053.720	826.804
16.790	16.565	1051.859	819.884
17.804	15.566	1049.160	812.877
18.819	14.634	1047.705	807.174
19.834	14.160	1046.503	803.884
20.848	14.009	1045.545	802.351
21.863	13.727	1044.484	800.105
22.877	13.365	1044.168	798.044
23.892	13.152	1043.034	796.081
24.907	12.958	1042.520	794.685
25.921	13.153	1041.886	795.068
26.936	13.204	1041.043	794.600
27.950	13.252	1040.282	794.180
28.965	13.303	1039.315	793.615
29.980	13.291	1038.654	792.983
30.994	13.331	1037.358	792.118
32.009	13.513	1036.756	792.456
33.023	13.367	1036.557	791.534
34.038	13.312	1035.666	790.524
35.053	13.369	1034.520	789.850
36.067	13.257	1033.912	788.783
37.082	13.304	1032.644	787.969
38.096	13.323	1031.844	787.379
39.111	13.305	1031.314	786.822
40.126	13.468	1030.375	786.807
41.140	13.296	1029.536	785.282
42.155	13.179	1028.158	783.606
43.169	13.162	1027.661	783.079
44.184	13.233	1026.257	782.272
45.199	13.118	1025.343	780.964
46.213	13.175	1024.421	780.463
47.228	13.080	1023.502	779.243
48.242	13.343	1022.146	779.383
49.257	13.152	1022.242	778.486
50.271	13.243	1020.639	777.624
51.286	13.185	1020.002	776.797
52.301	13.273	1019.605	776.843
53.315	13.252	1018.361	775.729
54.330	13.246	1017.327	774.839
55.344	13.168	1016.455	773.744
56.359	13.246	1015.293	773.154
57.374	13.269	1014.626	772.686
58.388	13.309	1013.652	772.064
59.403	13.234	1013.011	771.159
60.417	13.108	1012.202	769.888
61.432	13.042	1011.558	769.019
62.447	13.140	1010.526	768.623
63.461	13.109	1009.958	767.981
64.476	13.026	1009.338	767.053
65.490	13.043	1008.445	766.389
66.505	13.048	1007.604	765.702
67.520	12.982	1006.802	764.719
68.534	13.086	1006.388	764.818
69.549	13.052	1005.643	764.030
70.563	13.120	1004.939	763.740
71.578	13.102	1004.224	763.045
72.593	13.038	1003.067	761.803
73.607	13.030	1002.148	761.004
74.622	13.063	1001.199	760.367
75.636	12.993	1000.479	759.432
76.651	13.038	999.574	758.881
77.666	13.075	998.750	758.358
78.680	12.930	997.999	757.057
79.695	13.104	997.648	757.521
80.709	13.039	997.059	756.708
81.724	13.170	996.130	756.540
82.739	13.228	995.110	755.960
83.753	13.206	994.465	755.303
84.768	13.163	993.876	754.594
85.782	13.279	993.393	754.687
86.797	13.314	992.401	754.031
87.812	13.295	991.557	753.233
88.826	13.372	990.839	752.973
89.841	13.232	990.126	751.729
90.855	13.155	989.397	750.757
91.870	13.347	988.183	750.642
92.884	13.394	987.747	750.455
93.899	13.322	986.869	749.395
94.914	13.489	986.220	749.593
95.928	13.509	985.482	749.055
96.943	13.507	984.665	748.360
97.957	13.383	984.295	747.456
98.972	13.297	983.437	746.348
99.987	13.458	982.400	746.222
101.001	13.337	981.938	745.259
102.016	13.463	980.883	744.958
103.030	13.385	980.132	743.970
104.045	13.387	979.121	743.148
105.060	13.365	978.220	742.301
106.074	13.257	977.435	741.155
107.089	13.221	976.304	740.071
108.103	13.286	975.471	739.663
109.118	13.197	974.254	738.276
110.133	13.192	973.654	737.736
111.147	13.117	972.579	736.522
112.162	13.138	971.782	735.946
113.176	13.195	971.110	735.626
114.191	13.325	970.190	735.443
115.206	13.170	970.035	734.568
116.220	13.344	968.748	734.301
117.235	13.314	967.884	733.449
118.249	13.382	966.437	732.588
119.264	13.218	966.083	731.530
120.279	13.286	965.288	731.165
121.293	13.311	964.754	730.808
122.308	13.164	963.990	729.515
123.322	13.273	963.191	729.327
124.337	13.192	962.131	728.103
125.352	13.278	960.869	727.460
126.366	13.253	959.358	726.144
127.381	13.252	958.409	725.354
128.395	13.137	958.152	724.594
129.410	13.250	956.899	724.077
130.424	13.206	956.117	723.229
131.439	13.253	955.306	722.754
132.454	13.214	954.608	721.991
133.468	13.322	953.711	721.720
134.483	13.354	952.997	721.258
135.497	13.266	952.285	720.271
136.512	13.247	951.684	719.671
137.527	13.231	950.843	718.899
138.541	13.213	950.053	718.162
139.556	13.348	949.288	718.105
140.570	13.335	948.741	717.572
141.585	13.410	947.723	717.061
142.600	13.396	947.111	716.478
143.614	13.401	946.092	715.662
144.629	13.351	945.753	715.127
145.643	13.500	945.154	715.254
146.658	13.343	944.384	713.932
147.673	13.472	942.922	713.318
148.687	13.425	942.437	712.688
149.702	13.419	941.651	712.004
150.716	13.408	940.496	711.020
151.731	13.333	939.807	710.112
152.746	13.322	939.023	709.414
153.760	13.358	938.203	708.884
154.775	13.274	937.648	708.041
155.789	13.394	936.492	707.622
156.804	13.548	935.704	707.621
157.819	13.450	935.242	706.788
158.833	13.487	934.450	706.286
159.848	13.587	933.737	706.111
160.862	13.603	932.983	705.547
161.877	13.589	932.604	705.136
162.892	13.450	931.569	703.702
163.906	13.449	931.212	703.364
164.921	13.456	930.090	702.485
165.935	13.551	929.328	702.251
166.950	13.435	928.485	701.061
167.964	13.566	927.512	700.820
168.979	13.554	926.319	699.803
169.994	13.520	925.833	699.233
171.008	13.557	924.393	698.240
172.023	13.560	923.812	697.749
173.037	13.485	923.156	696.879
174.052	13.500	922.670	696.513
175.067	13.447	921.997	695.719
176.081	13.659	920.676	695.549
177.096	13.581	920.113	694.735
178.110	13.578	919.248	694.011
179.125	13.558	919.024	693.696
180.140	13.568	917.890	692.819
181.154	13.530	917.155	692.044
182.169	13.722	916.176	692.047
183.183	13.570	916.154	691.334
184.198	13.697	915.169	691.059
185.213	13.762	914.290	690.606
186.227	13.815	913.696	690.315
187.242	13.708	913.629	689.760
188.256	13.816	912.554	689.335
189.271	13.716	912.260	688.638
190.286	13.843	911.053	688.191
191.300	13.706	910.708	687.301
192.315	13.668	909.690	686.313
193.329	13.579	908.877	685.273
194.344	13.610	908.483	685.044
195.359	13.500	908.246	684.351
196.373	13.726	907.412	684.595
197.388	13.806	906.698	684.325
198.402	13.767	906.431	683.902
199.417	13.805	906.267	683.873
200.432	13.949	905.745	684.010
201.446	14.008	905.109	683.715
202.461	14.126	904.476	683.659
203.475	13.985	904.073	682.716
204.490	14.014	903.598	682.417
205.504	14.121	902.292	681.807
206.519	13.913	901.774	680.505
207.534	13.955	901.005	680.038
208.548	14.065	900.054	679.706
209.563	13.926	899.976	679.022
210.577	13.975	899.044	678.457
211.592	14.079	898.152	678.147
212.607	14.169	897.691	678.105
213.621	14.189	897.351	677.871
214.636	14.106	896.568	676.882
215.650	14.177	896.001	676.683
216.665	14.143	895.785	676.320
217.680	14.177	894.950	675.768
218.694	14.283	893.910	675.354
219.709	14.170	894.277	675.114
220.723	14.227	893.434	674.650
221.738	14.422	892.288	674.513
222.753	14.305	891.678	673.520
223.767	14.299	891.005	672.926
224.782	14.269	890.155	672.105
225.796	14.171	889.590	671.222
226.811	14.320	888.962	671.290
227.826	14.379	888.376	671.024
228.840	14.300	887.773	670.194
229.855	14.143	887.560	669.341
230.869	14.385	886.343	669.336
231.884	14.365	885.850	668.824
232.899	14.209	885.362	667.771
233.913	14.241	884.509	667.198
234.928	14.424	883.717	667.275
235.942	14.310	883.418	666.533
236.957	14.283	882.178	665.429
237.972	14.259	881.893	665.058
238.986	14.316	881.226	664.726
240.001	14.383	880.293	664.229
241.015	14.318	879.662	663.438
242.030	14.409	879.181	663.378
243.045	14.353	878.696	662.728
244.059	14.479	877.903	662.573
245.074	14.454	877.256	661.929
246.088	14.530	876.493	661.597
247.103	14.644	876.140	661.720
248.117	14.483	875.943	660.875
249.132	14.637	875.058	660.760
250.147	14.700	874.746	660.716
251.161	14.682	873.939	659.977
252.176	14.760	873.211	659.675
253.190	14.674	872.795	658.965
254.205	14.775	872.516	659.091
255.220	14.823	871.735	658.633
256.234	14.857	870.856	658.044
257.249	14.887	870.313	657.696
258.263	14.813	869.778	656.943
259.278	14.881	869.208	656.720
260.293	14.927	868.450	656.270
261.307	14.926	868.058	655.912
262.322	14.954	867.060	655.209
263.336	15.078	866.824	655.458
264.351	15.008	866.311	654.739
265.366	15.074	865.524	654.343
266.380	15.005	864.951	653.584
267.395	15.071	864.233	653.242
268.409	14.970	863.543	652.268
269.424	14.930	862.768	651.469
270.439	15.024	862.049	651.232
271.453	14.975	861.439	650.524
272.468	15.147	860.759	650.621
273.482	15.040	860.153	649.692
274.497	15.098	859.582	649.427
275.512	15.011	858.971	648.571
276.526	15.036	857.913	647.812
277.541	15.170	857.297	647.806
278.555	15.146	856.859	647.326
279.570	15.137	856.510	646.971
280.585	15.165	855.845	646.520
281.599	15.258	855.290	646.402
282.614	15.335	854.386	645.957
283.628	15.249	853.907	645.207
284.643	15.217	853.525	644.738
285.657	15.366	853.095	644.931
286.672	15.177	852.849	643.961
287.687	15.232	852.067	643.522
288.701	15.358	851.215	643.305
289.716	15.284	850.893	642.720
290.730	15.340	850.345	642.467
291.745	15.380	849.298	641.769
292.760	15.342	848.849	641.229
293.774	15.245	848.617	640.625
294.789	15.589	847.905	641.344
295.803	15.522	847.184	640.489
296.818	15.358	846.712	639.450
297.833	15.426	845.969	639.090
298.847	15.460	845.443	638.765
299.862	15.494	844.772	638.333
300.876	15.516	843.880	637.686
301.891	15.573	843.178	637.313
302.906	15.523	842.685	636.697
303.920	15.593	842.180	636.522
304.935	15.499	842.088	636.040
305.949	15.595	841.079	635.587
306.964	15.741	840.374	635.550
307.979	15.568	839.783	634.391
308.993	15.727	839.686	634.865
310.008	15.776	838.641	634.203
311.022	15.832	838.674	634.382
312.037	15.844	837.888	633.775
313.052	15.663	837.381	632.656
314.066	15.628	836.577	631.862
315.081	15.579	836.310	631.418
316.095	15.633	835.548	630.990
317.110	15.547	835.384	630.487
318.125	15.764	834.369	630.478
319.139	15.655	834.072	629.791
320.154	15.714	833.306	629.378
321.168	15.713	832.572	628.765
322.183	15.681	832.370	628.435
323.197	15.814	831.522	628.238
324.212	15.659	831.368	627.485
325.227	15.771	830.914	627.508
326.241	15.704	830.531	626.913
327.256	15.831	829.211	626.334
328.270	15.907	829.213	626.562
329.285	15.630	828.848	625.201
330.300	15.812	827.690	624.945
331.314	15.808	827.591	624.800
332.329	15.794	826.847	624.134
333.343	15.793	826.214	623.595
334.358	15.954	825.700	623.749
335.373	16.007	824.908	623.291
336.387	15.817	824.900	622.526
337.402	16.061	823.711	622.477
338.416	16.082	823.502	622.340
339.431	16.147	822.723	621.938
340.446	15.999	822.631	621.268
341.460	16.117	821.949	621.133
342.475	16.174	821.149	620.681
343.489	16.135	820.983	620.360
344.504	16.212	820.281	620.057
345.519	16.305	819.341	619.633
346.533	16.185	819.154	618.994
347.548	16.251	818.608	618.771
348.562	16.213	818.096	618.190
349.577	16.145	817.754	617.628
350.592	16.005	817.442	616.825
351.606	16.193	816.766	616.946
352.621	16.162	816.306	616.430
353.635	16.038	815.942	615.649
354.650	16.207	815.610	615.962
355.665	16.316	815.019	615.857
356.679	16.361	814.097	615.272
357.694	16.291	814.001	614.888
358.708	16.388	813.306	614.661
359.723	16.454	812.841	614.496
360.738	16.447	811.909	613.712
361.752	16.490	811.274	613.334
362.767	16.343	811.349	612.801
363.781	16.395	810.967	612.648
364.796	16.457	810.464	612.440
365.810	16.380	810.226	611.924
366.825	16.693	809.520	612.472
367.840	16.648	809.240	612.044
368.854	16.591	808.665	611.346
369.869	16.494	808.628	610.915
370.883	16.473	808.279	610.522
371.898	16.548	807.346	610.034
372.913	16.592	806.516	609.512
373.927	16.536	806.322	609.109
374.942	16.669	805.323	608.777
375.956	16.647	804.886	608.314
376.971	16.775	804.408	608.359
377.986	16.790	803.831	607.923
379.000	16.739	803.420	607.375
380.015	16.815	803.183	607.416
381.029	16.772	802.374	606.595
382.044	16.821	801.817	606.295
383.059	16.878	801.507	606.211
384.073	16.891	800.915	605.755
385.088	16.885	800.118	605.078
386.102	16.776	799.692	604.312
387.117	16.742	799.355	603.886
388.132	16.911	798.842	604.045
389.146	16.752	798.573	603.225
390.161	16.706	798.489	602.942
391.175	16.902	797.611	602.923
392.190	16.923	797.244	602.668
393.205	17.013	796.546	602.407
394.219	16.897	796.007	601.533
395.234	16.831	795.600	600.937
396.248	16.797	795.379	600.596
397.263	17.050	794.236	600.576
398.278	16.931	794.218	600.088
399.292	16.880	793.662	599.435
400.307	16.817	793.455	599.001
401.321	16.759	793.038	598.432
402.336	16.821	792.709	598.350
403.350	16.955	792.311	598.467
404.365	16.902	792.224	598.163
405.380	16.945	791.735	597.892
406.394	17.126	790.875	597.827
407.409	17.185	790.386	597.612
408.423	17.091	790.208	597.094
409.438	17.259	789.215	596.882
410.453	17.259	789.071	596.719
411.467	17.263	788.925	596.570
412.482	17.228	788.364	595.971
413.496	17.361	787.353	595.617
414.511	17.265	787.669	595.468
415.526	17.375	786.826	595.163
416.540	17.496	786.584	595.351
417.555	17.280	786.479	594.463
418.569	17.308	785.593	593.838
419.584	17.454	784.884	593.759
420.599	17.382	784.397	593.089
421.613	108.989	1289.748	1468.474
422.628	93.364	1363.352	1468.553
