DTS Sentinel unit serial number:	SN413079Multiplexer serial number:	ORYXHardware model number:	OX4-SRSoftware version number:	ORYX F/W v4.00 Oryx Data Collector v3.7.2.0data status	okinstallation	princeton_trtdifferential loss correction	single-endedforward channel	channel 3reverse channel	N/Adate	2019/09/14time	15:00:35forward acquisition time	60.00reverse acquisition time	0.00gamma	496.2192k internal	0.2293k external	0.2293temperature offset calibration	1.0055default loss term (dB/km)	0.3790temperature slope calibration	1.0000multiplexer offset coefficient	1.0000multiplexer slope coefficient	1.0000fibre end	0.00T internal ref (°C)	39.06T ext. ref 1 (°C)	5.05T ext. ref 2 (°C)	34.96length (m)	temperature (°C)	Stokes	anti-Stokes-747.200	-152.205	0.259	-0.019
-746.185	218.454	-0.341	0.558
-745.171	-90.093	-0.127	0.038
-744.156	215.766	-0.128	0.208
-743.142	-115.247	0.074	-0.014
-742.127	-200.000	-0.032	0.231
-741.112	-200.000	0.076	0.366
-740.098	800.000	0.121	0.411
-739.083	-185.419	-0.326	-0.005
-738.069	-200.000	0.082	0.642
-737.054	-48.201	0.306	0.151
-736.039	-21.513	0.154	0.096
-735.025	-200.000	-0.016	0.335
-734.010	-78.132	-0.202	-0.071
-732.996	677.551	0.010	-0.026
-731.981	-116.100	-0.275	-0.052
-730.966	-36.461	-0.441	0.243
-729.952	800.000	0.077	0.237
-728.937	121.488	-0.127	-0.162
-727.923	414.127	-0.071	0.154
-726.908	-200.000	0.018	-0.137
-725.894	-94.385	-0.114	0.032
-724.879	-109.062	0.345	0.075
-723.864	-200.000	-0.015	0.163
-722.850	271.014	-0.121	0.217
-721.835	36.855	0.211	-0.191
-720.821	-54.386	-0.104	0.048
-719.806	-6.714	-0.365	0.254
-718.791	800.000	0.107	-0.438
-717.777	-200.000	-0.067	0.000
-716.762	77.327	0.248	-0.270
-715.748	-95.402	0.148	-0.041
-714.733	59.258	0.174	0.175
-713.718	-82.725	-0.249	-0.082
-712.704	124.471	-0.229	-0.294
-711.689	-173.759	0.094	-0.003
-710.675	112.365	-0.181	-0.224
-709.660	119.271	-0.105	0.133
-708.645	33.254	-0.183	-0.162
-707.631	87.615	0.128	-0.145
-706.616	-200.000	-0.007	0.216
-705.602	-200.000	-0.054	0.315
-704.587	800.000	0.010	-0.041
-703.572	434.753	-0.075	-0.166
-702.558	7.006	0.150	0.114
-701.543	34.648	0.181	-0.162
-700.529	-184.244	0.180	-0.003
-699.514	-94.817	-0.353	0.098
-698.499	1.129	0.128	0.094
-697.485	-99.751	-0.074	0.019
-696.470	82.211	-0.085	0.094
-695.456	-98.723	-0.109	-0.028
-694.441	800.000	-0.112	-0.386
-693.426	-103.076	-0.041	-0.010
-692.412	-200.000	0.125	-0.000
-691.397	-98.856	0.284	-0.074
-690.383	-28.286	-0.173	0.102
-689.368	58.501	0.104	-0.105
-688.354	286.990	0.103	-0.190
-687.339	-16.785	0.278	0.180
-686.324	47.261	-0.131	0.125
-685.310	-126.990	-0.109	0.016
-684.295	90.473	0.092	0.105
-683.281	384.218	-0.144	0.302
-682.266	63.087	-0.255	0.261
-681.251	-200.000	-0.017	0.093
-680.237	2.002	0.192	0.142
-679.222	743.534	0.039	0.108
-678.208	565.820	-0.157	0.389
-677.193	-121.482	-0.223	0.038
-676.178	-185.446	-0.215	0.003
-675.164	-0.389	-0.223	-0.161
-674.149	-59.450	-0.097	-0.043
-673.135	-29.303	-0.188	-0.110
-672.120	112.378	0.096	0.118
-671.105	508.205	-0.054	0.127
-670.091	16.720	0.068	0.055
-669.076	-131.372	0.094	0.013
-668.062	286.171	0.126	-0.231
-667.047	5.228	-0.139	0.104
-666.032	-109.607	-0.101	0.022
-665.018	17.574	-0.048	-0.039
-664.003	527.329	-0.060	0.144
-662.989	800.000	0.083	-0.252
-661.974	-43.269	0.332	0.172
-660.959	-142.020	0.049	0.005
-659.945	-200.000	-0.017	-0.189
-658.930	356.991	0.161	0.327
-657.916	449.901	-0.115	-0.259
-656.901	800.000	-0.100	0.287
-655.886	52.843	-0.118	-0.115
-654.872	-100.070	-0.133	0.034
-653.857	-64.347	0.248	-0.103
-652.843	-52.185	0.020	0.010
-651.828	-200.000	0.037	-0.430
-650.814	-44.961	0.353	-0.179
-649.799	-21.287	-0.036	-0.022
-648.784	800.000	-0.039	0.122
-647.770	796.043	0.070	-0.197
-646.755	254.665	0.051	-0.090
-645.741	212.786	-0.012	-0.019
-644.726	85.280	-0.259	-0.290
-643.711	-29.469	-0.380	-0.221
-642.697	-79.976	-0.316	-0.108
-641.682	237.809	0.161	0.273
-640.668	-200.000	0.053	0.240
-639.653	29.714	0.172	0.149
-638.638	-17.280	-0.078	-0.050
-637.624	-100.070	-0.392	-0.100
-636.609	55.152	0.035	-0.034
-635.595	103.982	0.261	-0.313
-634.580	295.915	0.125	-0.234
-633.565	55.882	0.094	-0.093
-632.551	-40.253	-0.346	-0.183
-631.536	-6.282	-0.176	0.122
-630.522	-200.000	0.023	-0.113
-629.507	-128.577	-0.288	-0.042
-628.492	294.935	-0.049	0.091
-627.478	-70.400	0.279	-0.108
-626.463	271.669	0.163	-0.292
-625.449	-200.000	0.057	0.275
-624.434	-89.576	0.496	-0.148
-623.419	-200.000	0.019	0.094
-622.405	-200.000	-0.062	0.300
-621.390	775.756	0.133	0.371
-620.376	-200.000	0.038	0.260
-619.361	800.000	0.062	-0.241
-618.346	-89.912	0.241	-0.072
-617.332	-80.551	-0.190	0.064
-616.317	-51.202	-0.296	0.141
-615.303	319.271	0.037	0.071
-614.288	-92.661	-0.019	-0.005
-613.273	150.855	0.210	-0.291
-612.259	-123.184	-0.092	-0.015
-611.244	800.000	0.039	0.150
-610.230	-200.000	-0.073	-0.341
-609.215	-200.000	-0.054	-0.298
-608.201	150.082	0.168	0.232
-607.186	800.000	0.022	0.080
-606.171	-47.272	-0.269	-0.133
-605.157	-19.356	-0.213	-0.135
-604.142	104.527	0.212	0.254
-603.128	-81.688	-0.172	-0.058
-602.113	-67.369	-0.336	-0.134
-601.098	148.622	0.184	-0.253
-600.084	-166.026	0.316	-0.014
-599.069	-200.000	0.054	-0.337
-598.055	-153.397	0.282	-0.020
-597.040	-15.518	-0.372	0.242
-596.025	-75.116	-0.243	-0.088
-595.011	-64.870	-0.154	0.064
-593.996	-176.166	-0.302	-0.008
-592.982	-28.545	0.129	0.075
-591.967	-21.695	-0.526	-0.326
-590.952	163.609	-0.119	-0.170
-589.938	-14.864	0.294	0.192
-588.923	-200.000	0.002	-0.080
-587.909	17.839	-0.084	0.068
-586.894	-88.277	-0.245	-0.075
-585.879	130.554	-0.069	0.090
-584.865	793.664	0.107	-0.300
-583.850	-107.371	0.356	-0.080
-582.836	-200.000	0.035	0.159
-581.821	13.874	-0.326	0.258
-580.806	-3.538	-0.078	0.055
-579.792	104.155	-0.069	-0.083
-578.777	-36.187	-0.143	-0.078
-577.763	-200.000	-0.044	-0.290
-576.748	-118.308	-0.147	-0.027
-575.733	22.903	0.273	-0.228
-574.719	-164.536	0.268	-0.012
-573.704	631.136	-0.022	0.056
-572.690	58.533	-0.221	0.220
-571.675	-67.127	0.253	0.101
-570.661	5.735	0.159	0.119
-569.646	-12.176	0.145	0.097
-568.631	-200.000	0.018	0.296
-567.617	329.822	-0.154	-0.300
-566.602	-200.000	0.084	-0.378
-565.588	-200.000	-0.001	0.023
-564.573	-63.819	0.206	-0.086
-563.558	177.118	-0.198	-0.292
-562.544	800.000	0.028	-0.090
-561.529	416.490	0.032	0.069
-560.515	-200.000	-0.034	0.152
-559.500	-9.186	-0.112	0.076
-558.485	-72.581	-0.073	-0.027
-557.471	-129.429	-0.256	0.036
-556.456	-139.063	0.251	0.028
-555.442	-200.000	-0.032	-0.364
-554.427	-200.000	-0.013	-0.105
-553.412	389.051	-0.041	-0.087
-552.398	32.784	-0.186	0.163
-551.383	237.733	0.077	0.129
-550.369	-200.000	-0.021	0.115
-549.354	-76.822	0.182	-0.065
-548.339	-200.000	-0.008	0.303
-547.325	506.775	-0.024	-0.057
-546.310	188.734	0.042	-0.063
-545.296	-40.437	0.164	-0.087
-544.281	115.612	-0.034	0.042
-543.266	127.509	-0.138	0.178
-542.252	-78.832	0.124	0.043
-541.237	800.000	-0.037	0.147
-540.223	53.094	-0.103	0.100
-539.208	-121.698	0.284	-0.048
-538.193	-26.973	-0.420	-0.249
-537.179	94.030	0.212	-0.244
-536.164	413.808	-0.211	-0.457
-535.150	-89.160	-0.036	0.011
-534.135	-8.782	-0.063	0.043
-533.121	10.119	-0.201	-0.155
-532.106	17.982	-0.132	-0.107
-531.091	-22.537	-0.122	-0.075
-530.077	-200.000	-0.066	0.360
-529.062	-139.709	-0.259	-0.028
-528.048	303.236	-0.097	-0.183
-527.033	-200.000	-0.025	-0.148
-526.018	620.145	0.114	-0.291
-525.004	218.365	-0.054	-0.087
-523.989	-49.677	0.265	-0.128
-522.975	20.974	-0.034	0.028
-521.960	-114.216	-0.251	-0.049
-520.945	-53.156	0.405	-0.189
-519.931	-11.721	0.058	-0.039
-518.916	-54.790	0.016	-0.007
-517.902	-111.619	0.131	-0.027
-516.887	-81.581	-0.105	0.035
-515.872	-134.892	0.140	-0.017
-514.858	800.000	-0.024	0.086
-513.843	-89.186	0.280	-0.084
-512.829	800.000	0.027	0.106
-511.814	-158.879	0.104	-0.006
-510.799	-78.319	0.187	0.065
-509.785	800.000	0.043	0.140
-508.770	-155.326	0.102	-0.007
-507.756	-46.683	-0.248	-0.123
-506.741	800.000	-0.060	0.219
-505.726	-70.312	-0.319	-0.123
-504.712	296.253	-0.033	-0.061
-503.697	-62.669	-0.096	0.040
-502.683	-36.274	0.176	-0.096
-501.668	286.285	0.030	0.055
-500.653	-163.202	0.231	0.011
-499.639	-200.000	0.023	0.129
-498.624	-165.982	-0.263	0.011
-497.610	141.683	0.235	0.315
-496.595	185.750	-0.147	0.221
-495.581	228.125	-0.070	0.115
-494.566	-200.000	0.026	0.345
-493.551	500.929	-0.099	-0.232
-492.537	-148.892	-0.190	0.016
-491.522	-14.369	-0.211	0.137
-490.508	-200.000	-0.003	-0.255
-489.493	800.000	0.056	-0.194
-488.478	-102.030	-0.295	0.072
-487.464	-17.028	0.071	-0.045
-486.449	315.301	-0.056	0.106
-485.435	-75.423	-0.313	0.113
-484.420	-77.063	0.156	-0.055
-483.405	-131.866	0.218	0.029
-482.391	-15.294	-0.012	-0.008
-481.376	-53.038	0.223	-0.104
-480.362	-158.257	0.245	-0.014
-479.347	-178.703	-0.195	-0.005
-478.332	-85.146	-0.115	-0.036
-477.318	-27.293	0.025	0.015
-476.303	-57.549	0.279	0.124
-475.289	93.765	0.163	-0.187
-474.274	800.000	0.020	0.065
-473.259	-137.608	-0.278	-0.032
-472.245	45.340	0.194	0.181
-471.230	-200.000	-0.017	0.098
-470.216	271.111	-0.044	-0.079
-469.201	-136.280	0.219	-0.026
-468.186	521.617	0.101	-0.239
-467.172	-200.000	0.081	0.390
-466.157	800.000	-0.027	0.079
-465.143	-200.000	-0.017	0.187
-464.128	132.312	0.209	-0.272
-463.113	-169.415	-0.282	-0.010
-462.099	-200.000	0.009	0.318
-461.084	284.173	0.139	-0.254
-460.070	-200.000	-0.010	0.304
-459.055	800.000	-0.061	0.197
-458.040	233.644	0.083	0.139
-457.026	-40.216	0.231	0.122
-456.011	-155.425	-0.359	-0.024
-454.997	81.599	0.144	-0.157
-453.982	-95.854	-0.226	-0.061
-452.968	-194.580	0.285	-0.002
-451.953	60.366	-0.140	-0.140
-450.938	632.715	-0.087	-0.222
-449.924	31.682	-0.090	0.078
-448.909	-96.444	-0.290	-0.078
-447.895	-171.885	0.084	0.003
-446.880	-79.404	0.161	0.055
-445.865	81.400	-0.107	-0.117
-444.851	-200.000	0.028	-0.267
-443.836	55.811	0.209	-0.205
-442.822	-81.333	0.090	-0.030
-441.807	-64.636	-0.129	0.053
-440.792	199.353	0.061	0.095
-439.778	69.130	0.133	-0.139
-438.763	-95.531	-0.200	-0.054
-437.749	-200.000	-0.010	-0.096
-436.734	-200.000	-0.073	0.327
-435.719	-87.865	-0.313	-0.095
-434.705	765.171	0.116	-0.318
-433.690	586.988	0.131	-0.326
-432.676	-200.000	0.019	0.190
-431.661	148.994	0.251	-0.343
-430.646	-200.000	0.008	-0.150
-429.632	800.000	0.026	0.095
-428.617	257.460	0.201	0.350
-427.603	-200.000	-0.012	-0.065
-426.588	17.533	-0.106	-0.085
-425.573	-200.000	-0.008	-0.251
-424.559	80.039	0.164	-0.178
-423.544	-142.054	0.281	-0.028
-422.530	-55.592	0.036	-0.016
-421.515	14.346	-0.297	0.234
-420.500	513.383	-0.116	-0.274
-419.486	57.070	0.121	0.120
-418.471	-200.000	-0.033	-0.209
-417.457	-91.731	-0.206	0.059
-416.442	181.591	-0.011	0.016
-415.428	558.756	-0.054	0.133
-414.413	128.831	0.080	0.103
-413.398	-137.647	0.120	0.014
-412.384	-27.953	-0.237	-0.139
-411.369	-83.202	-0.162	-0.052
-410.355	-52.191	-0.061	0.028
-409.340	549.801	0.072	0.173
-408.325	-33.283	-0.187	-0.105
-407.311	800.000	-0.032	0.131
-406.296	2.211	-0.260	-0.190
-405.282	1.999	0.370	-0.269
-404.267	-123.570	0.265	0.042
-403.252	-17.600	0.139	-0.088
-402.238	1.919	0.031	-0.023
-401.223	800.000	0.027	-0.115
-400.209	10.316	0.044	-0.034
-399.194	-73.135	-0.231	0.086
-398.179	-15.426	-0.068	-0.044
-397.165	-43.484	0.294	-0.150
-396.150	-97.510	-0.261	0.069
-395.136	22.812	0.136	-0.113
-394.121	-27.728	-0.627	0.367
-393.106	162.850	-0.070	-0.099
-392.092	109.608	0.259	0.314
-391.077	27.264	-0.121	0.102
-390.063	-174.746	0.090	-0.003
-389.048	-112.416	0.230	-0.046
-388.033	-7.313	0.124	0.085
-387.019	-155.836	0.160	-0.010
-386.004	-112.807	0.144	0.029
-384.990	-13.782	0.090	0.059
-383.975	-37.797	-0.286	-0.153
-382.960	-71.534	-0.322	-0.122
-381.946	33.235	-0.151	0.132
-380.931	-137.807	0.033	-0.004
-379.917	-52.548	0.050	0.023
-378.902	-200.000	0.019	-0.140
-377.888	77.907	-0.377	-0.406
-376.873	-109.751	0.339	-0.072
-375.858	-10.195	0.217	0.145
-374.844	-4.868	0.248	0.172
-373.829	85.054	0.283	-0.312
-372.815	-46.925	-0.276	-0.136
-371.800	-123.219	0.121	-0.020
-370.785	-154.231	-0.023	0.002
-369.771	-38.598	-0.072	-0.038
-368.756	-63.611	-0.313	0.129
-367.742	221.264	-0.022	0.036
-366.727	161.689	-0.132	0.186
-365.712	-77.219	0.406	0.143
-364.698	35.637	0.290	0.257
-363.683	44.480	0.186	-0.173
-362.669	-41.205	0.288	-0.150
-361.654	-200.000	-0.035	-0.170
-360.639	-127.449	0.178	0.026
-359.625	-83.684	-0.151	-0.048
-358.610	-16.126	0.213	-0.136
-357.596	16.004	-0.118	0.094
-356.581	-200.000	0.005	0.195
-355.566	-85.346	0.251	-0.079
-354.552	-65.808	0.214	0.086
-353.537	370.778	-0.040	0.081
-352.523	-200.000	0.070	0.364
-351.508	152.102	-0.146	0.200
-350.493	12.521	0.075	0.059
-349.479	-28.654	0.276	-0.160
-348.464	-157.879	0.399	-0.024
-347.450	-15.688	0.176	-0.113
-346.435	394.114	-0.080	-0.167
-345.420	-200.000	-0.006	0.048
-344.406	18.159	0.353	0.283
-343.391	166.093	-0.081	-0.115
-342.377	-136.634	0.086	-0.010
-341.362	-200.000	-0.016	0.110
-340.348	3.572	-0.272	-0.200
-339.333	-67.710	-0.201	0.079
-338.318	-42.868	-0.399	0.204
-337.304	230.444	0.133	0.220
-336.289	-143.221	-0.156	0.015
-335.275	-39.026	0.017	-0.009
-334.260	800.000	0.047	0.135
-333.245	91.538	-0.190	0.215
-332.231	-200.000	-0.003	0.172
-331.216	-74.872	-0.171	-0.062
-330.202	33.270	0.185	0.161
-329.187	-200.000	-0.026	-0.132
-328.172	-19.503	-0.280	0.175
-327.158	-129.832	-0.174	-0.024
-326.143	-104.138	-0.110	-0.026
-325.129	-200.000	-0.032	0.220
-324.114	-20.633	-0.223	-0.138
-323.099	47.773	0.222	0.209
-322.085	-139.223	-0.078	-0.009
-321.070	-98.904	-0.292	-0.075
-320.056	-103.986	-0.127	0.030
-319.041	-121.617	-0.203	-0.034
-318.026	-0.556	-0.241	-0.172
-317.012	-92.308	-0.028	0.008
-315.997	718.153	-0.027	-0.073
-314.983	-200.000	0.023	-0.144
-313.968	185.750	-0.096	0.144
-312.953	-134.470	-0.237	-0.029
-311.939	800.000	-0.055	0.210
-310.924	-65.425	-0.369	-0.149
-309.910	41.286	-0.226	0.206
-308.895	-200.000	0.002	0.101
-307.880	-12.765	0.194	-0.127
-306.866	-139.122	0.162	-0.018
-305.851	-200.000	-0.040	0.222
-304.837	-200.000	0.009	0.246
-303.822	66.258	-0.195	-0.199
-302.807	60.623	-0.240	-0.239
-301.793	15.817	-0.162	-0.128
-300.778	-57.074	0.080	0.035
-299.764	555.779	-0.123	-0.297
-298.749	-14.838	0.269	0.174
-297.735	269.229	0.025	0.045
-296.720	-142.395	0.175	-0.017
-295.705	66.183	-0.194	-0.198
-294.691	-169.244	-0.122	0.005
-293.676	312.551	0.171	0.323
-292.662	448.997	-0.108	0.239
-291.647	-69.313	0.131	0.050
-290.632	-159.114	0.428	0.024
-289.618	-200.000	0.072	0.320
-288.603	-200.000	-0.007	0.244
-287.589	-200.000	0.054	0.260
-286.574	-170.215	-0.056	-0.002
-285.559	-200.000	0.002	-0.072
-284.545	250.743	0.093	-0.159
-283.530	536.870	0.084	0.201
-282.516	-80.111	-0.370	-0.125
-281.501	-19.364	-0.190	-0.118
-280.486	457.552	-0.116	-0.258
-279.472	-164.461	-0.196	-0.009
-278.457	178.060	-0.123	-0.180
-277.443	-145.040	0.275	-0.025
-276.428	168.263	-0.144	0.206
-275.413	-200.000	0.013	0.251
-274.399	800.000	-0.035	-0.127
-273.384	-116.905	0.184	0.034
-272.370	-8.164	0.200	-0.135
-271.355	-100.545	0.112	0.028
-270.340	-40.801	0.389	0.202
-269.326	-134.000	0.413	0.051
-268.311	-92.798	0.235	0.066
-267.297	20.984	-0.133	0.109
-266.282	-118.189	0.413	-0.074
-265.267	-200.000	0.068	0.000
-264.253	-200.000	0.057	-0.350
-263.238	-56.457	-0.398	-0.177
-262.224	-18.786	0.197	0.123
-261.209	-100.474	-0.290	0.072
-260.195	800.000	-0.023	-0.089
-259.180	-46.225	0.178	0.088
-258.165	176.716	0.224	0.327
-257.151	55.942	0.137	0.134
-256.136	-200.000	0.009	0.179
-255.122	-27.660	-0.201	-0.117
-254.107	181.314	0.045	0.067
-253.092	-51.867	-0.096	-0.045
-252.078	-103.582	0.165	-0.039
-251.063	162.223	0.124	-0.174
-250.049	-200.000	0.006	0.398
-249.034	-54.025	-0.008	-0.004
-248.019	-39.476	-0.297	-0.156
-247.005	800.000	-0.042	-0.144
-245.990	-29.903	0.216	0.123
-244.976	-163.155	0.109	-0.005
-243.961	130.586	0.156	0.201
-242.946	352.377	-0.129	0.257
-241.932	31.401	0.220	-0.190
-240.917	8.633	-0.214	0.161
-239.903	258.651	-0.146	-0.252
-238.888	135.109	-0.257	0.335
-237.873	362.190	0.042	0.086
-236.859	287.745	0.079	0.144
-235.844	-82.184	-0.217	-0.071
-234.830	-141.872	-0.129	-0.013
-233.815	-42.217	-0.119	0.061
-232.800	2.080	0.175	0.127
-231.786	125.482	0.267	0.338
-230.771	-200.000	0.034	-0.222
-229.757	40.811	0.074	-0.067
-228.742	-39.570	-0.146	-0.077
-227.727	-20.917	-0.113	0.069
-226.713	95.578	-0.072	-0.083
-225.698	-200.000	-0.028	-0.138
-224.684	-136.750	0.188	-0.022
-223.669	78.473	-0.389	0.417
-222.655	81.444	-0.078	-0.085
-221.640	-200.000	0.075	0.464
-220.625	800.000	-0.150	-0.429
-219.611	121.292	0.199	0.248
-218.596	-18.671	0.293	0.183
-217.582	-96.810	-0.154	0.041
-216.567	-20.196	0.135	-0.083
-215.552	24.109	-0.192	0.159
-214.538	-17.041	-0.117	-0.074
-213.523	-196.622	0.146	0.001
-212.509	-122.684	0.327	0.053
-211.494	-200.000	0.038	-0.359
-210.479	800.000	0.025	-0.077
-209.465	-200.000	-0.033	-0.153
-208.450	800.000	0.067	-0.209
-207.436	-98.915	0.062	0.016
-206.421	-200.000	-0.008	-0.140
-205.406	590.930	0.052	0.129
-204.392	-87.963	-0.099	0.030
-203.377	-169.886	0.222	0.008
-202.363	-59.346	-0.101	-0.043
-201.348	-40.490	-0.126	0.065
-200.333	-152.837	0.137	-0.010
-199.319	617.331	-0.063	0.160
-198.304	-122.411	0.086	-0.014
-197.290	-200.000	0.093	0.436
-196.275	141.577	-0.084	0.111
-195.260	-142.898	-0.178	-0.017
-194.246	71.926	0.184	0.192
-193.231	94.282	0.157	0.178
-192.217	-200.000	0.008	0.176
-191.202	220.691	0.062	0.100
-190.187	166.748	0.003	-0.004
-189.173	-200.000	0.007	0.212
-188.158	-200.000	0.010	0.223
-187.144	800.000	0.055	0.191
-186.129	-167.115	-0.176	-0.007
-185.114	10.735	-0.052	-0.040
-184.100	-200.000	0.048	0.000
-183.085	195.599	-0.041	0.063
-182.071	-78.984	-0.301	0.103
-181.056	800.000	-0.078	-0.220
-180.042	-81.841	0.060	0.020
-179.027	156.795	0.034	-0.047
-178.012	-200.000	0.003	0.014
-176.998	201.927	0.137	0.211
-175.983	591.865	0.088	0.218
-174.969	24.340	-0.083	-0.069
-173.954	-22.974	0.307	0.185
-172.939	-200.000	0.025	0.176
-171.925	-200.000	0.041	-0.212
-170.910	-200.000	-0.015	-0.131
-169.896	-60.376	-0.215	0.091
-168.881	-200.000	-0.011	-0.472
-167.866	-200.000	0.003	0.049
-166.852	-200.000	0.011	-0.321
-165.837	291.077	0.257	-0.467
-164.823	800.000	0.111	-0.415
-163.808	177.357	-0.028	0.041
-162.793	-51.101	0.241	-0.113
-161.779	-128.575	0.116	-0.016
-160.764	-60.336	-0.179	-0.076
-159.750	74.075	-0.257	-0.270
-158.735	800.000	-0.067	0.238
-157.720	126.619	0.207	0.262
-156.706	83.765	0.269	0.293
-155.691	-83.815	-0.238	0.076
-154.677	26.628	0.073	0.061
-153.662	388.955	-0.019	-0.039
-152.647	338.856	0.202	-0.393
-151.633	501.555	0.038	0.087
-150.618	800.000	0.094	-0.397
-149.604	-58.790	0.337	-0.146
-148.589	800.000	-0.116	-0.321
-147.574	-135.562	-0.060	-0.007
-146.560	-200.000	0.038	-0.193
-145.545	256.231	-0.067	0.115
-144.531	-200.000	0.012	0.086
-143.516	-47.114	-0.184	0.090
-142.502	-200.000	-0.034	0.157
-141.487	-83.343	0.160	-0.051
-140.472	73.246	0.064	-0.067
-139.458	-200.000	0.032	0.301
-138.443	-200.000	0.018	0.359
-137.429	-73.568	-0.156	-0.057
-136.414	-127.267	-0.227	-0.033
-135.399	310.295	0.104	-0.194
-134.385	799.505	-0.057	-0.156
-133.370	-96.728	0.098	0.026
-132.356	-200.000	0.011	-0.269
-131.341	-80.042	0.357	-0.119
-130.326	-84.044	0.131	0.042
-129.312	-99.490	-0.169	-0.042
-128.297	-98.408	-0.227	0.058
-127.283	159.601	-0.246	-0.342
-126.268	-200.000	0.021	0.205
-125.253	-200.000	0.022	-0.111
-124.239	388.659	-0.064	-0.133
-123.224	-93.369	0.407	-0.113
-122.210	800.000	0.015	-0.057
-121.195	104.534	0.085	0.100
-120.180	-162.597	0.065	-0.003
-119.166	254.085	0.196	0.334
-118.151	-115.080	0.020	-0.004
-117.137	-108.181	-0.185	-0.040
-116.122	55.520	0.118	-0.114
-115.107	-79.346	0.192	0.065
-114.093	-2.008	0.163	-0.114
-113.078	191.550	-0.041	-0.061
-112.064	66.398	0.025	-0.025
-111.049	-200.000	-0.022	-0.189
-110.034	-51.720	-0.247	0.115
-109.020	248.320	-0.076	-0.128
-108.005	54.685	-0.050	-0.048
-106.991	-200.000	-0.002	-0.099
-105.976	-68.443	0.112	0.043
-104.962	800.000	0.024	0.084
-103.947	800.000	0.069	-0.250
-102.932	62.223	-0.172	-0.171
-101.918	-4.279	0.181	-0.125
-100.903	-28.475	-0.300	-0.173
-99.889	-200.000	-0.054	0.330
-98.874	-105.366	0.201	0.046
-97.859	383.937	0.023	-0.048
-96.845	-200.000	-0.007	0.079
-95.830	96.492	-0.057	-0.065
-94.816	-30.506	-0.114	-0.064
-93.801	98.668	0.246	0.283
-92.786	-120.194	0.133	0.023
-91.772	-200.000	0.005	0.210
-90.757	-60.359	-0.212	0.090
-89.743	21.823	-0.058	0.047
-88.728	-200.000	-0.025	-0.223
-87.713	226.698	-0.098	0.158
-86.699	-164.935	-0.492	0.022
-85.684	11.777	-0.015	0.011
-84.670	238.329	0.100	-0.165
-83.655	276.911	-0.056	-0.099
-82.640	800.000	-0.103	-0.411
-81.626	-200.000	0.007	0.143
-80.611	553.647	0.068	-0.162
-79.597	-113.458	0.064	-0.013
-78.582	266.258	0.072	-0.126
-77.567	800.000	0.036	0.114
-76.553	130.458	-0.179	-0.229
-75.538	-200.000	0.027	-0.236
-74.524	-93.762	-0.146	-0.040
-73.509	-135.473	0.226	-0.027
-72.494	800.000	-0.077	-0.281
-71.480	-46.590	-0.176	0.086
-70.465	27.249	0.109	-0.091
-69.451	800.000	0.041	0.173
-68.436	9.999	0.222	0.168
-67.422	6.490	0.312	0.231
-66.407	15.940	0.241	-0.189
-65.392	251.432	0.080	-0.135
-64.378	79.798	-0.111	0.119
-63.363	800.000	0.079	-0.271
-62.349	-200.000	0.022	-0.230
-61.334	-40.494	-1.037	-0.537
-60.319	178.909	0.259	0.378
-59.305	-200.000	-0.153	-0.738
-58.290	256.283	0.486	0.831
-57.276	158.271	1.148	1.586
-56.261	-200.000	81.270	496.881
-55.246	553.848	1361.529	3261.149
-54.232	183.744	2587.696	3811.999
-53.217	119.211	2256.800	2780.595
-52.203	48.885	1787.026	1670.365
-51.188	42.169	1592.201	1440.155
-50.173	39.694	1563.650	1396.774
-49.159	55.172	1604.972	1544.942
-48.144	59.807	1624.384	1596.809
-47.130	42.758	1586.207	1438.716
-46.115	39.369	1571.729	1401.454
-45.100	39.182	1568.506	1397.193
-44.086	39.183	1566.314	1395.191
-43.071	39.093	1564.147	1392.570
-42.057	39.018	1562.252	1390.299
-41.042	39.062	1560.857	1389.310
-40.027	39.072	1559.728	1388.321
-39.013	39.111	1557.493	1386.556
-37.998	39.076	1556.352	1385.235
-36.984	39.049	1554.868	1383.672
-35.969	38.943	1553.857	1381.972
-34.954	39.053	1552.621	1381.592
-33.940	39.081	1551.148	1380.423
-32.925	39.134	1549.969	1379.689
-31.911	39.109	1548.378	1378.041
-30.896	39.078	1547.105	1376.633
-29.881	39.095	1545.491	1375.266
-28.867	39.155	1544.201	1374.480
-27.852	39.064	1543.158	1372.862
-26.838	39.233	1541.279	1372.318
-25.823	39.087	1540.076	1370.175
-24.809	39.162	1537.786	1368.601
-23.794	39.243	1536.054	1367.574
-22.779	39.106	1535.169	1365.776
-21.765	39.097	1534.364	1364.944
-20.750	39.138	1533.064	1364.019
-19.736	39.102	1531.855	1362.642
-18.721	39.079	1530.905	1361.581
-17.706	39.012	1529.738	1360.022
-16.692	38.978	1528.874	1358.966
-15.677	39.135	1527.526	1358.798
-14.663	39.046	1526.675	1357.372
-13.648	38.991	1525.446	1355.847
-12.633	39.064	1524.398	1355.366
-11.619	38.961	1523.865	1354.131
-10.604	39.075	1522.439	1353.595
-9.590	38.962	1522.308	1352.646
-8.575	38.981	1521.047	1351.604
-7.560	39.037	1519.755	1350.781
-6.546	38.954	1519.170	1349.637
-5.531	38.970	1517.933	1348.596
-4.517	38.917	1517.350	1347.665
-3.502	39.035	1515.781	1347.021
-2.487	38.883	1515.227	1345.433
-1.473	38.999	1513.643	1344.769
-0.458	39.013	1512.390	1343.699
0.556	39.433	1502.987	1332.894
1.571	36.460	1475.150	1288.297
2.586	32.437	1409.293	1204.982
3.600	30.311	1322.574	1117.944
4.615	28.083	1272.198	1062.343
5.629	23.567	1212.946	987.696
6.644	13.908	1122.373	863.857
7.659	6.114	1077.850	790.447
8.673	5.134	1071.588	780.882
9.688	5.054	1069.105	778.608
10.702	4.994	1067.850	777.324
11.717	5.007	1066.357	776.234
12.731	7.703	1069.059	791.572
13.746	16.455	1081.447	844.586
14.761	21.683	1087.381	875.337
15.775	20.441	1084.826	867.013
16.790	19.014	1082.415	857.894
17.804	18.100	1079.848	851.238
18.819	17.002	1078.335	844.504
19.834	16.616	1076.754	841.274
20.848	16.377	1075.553	839.075
21.863	16.174	1074.650	837.290
22.877	15.798	1074.372	835.132
23.892	15.683	1073.333	833.681
24.907	15.582	1073.007	832.854
25.921	15.708	1072.181	832.759
26.936	15.628	1071.031	831.397
27.950	15.727	1070.006	831.019
28.965	15.770	1068.622	830.085
29.980	15.858	1067.544	829.607
30.994	15.887	1066.575	828.923
32.009	15.967	1065.614	828.494
33.023	16.050	1064.607	828.048
34.038	15.965	1064.132	827.187
35.053	15.912	1062.951	825.936
36.067	15.850	1061.881	824.726
37.082	15.987	1060.941	824.595
38.096	15.874	1060.687	823.773
39.111	15.880	1059.959	823.163
40.126	16.076	1058.310	822.765
41.140	15.937	1057.695	821.537
42.155	15.714	1056.237	819.245
43.169	15.466	1055.369	817.294
44.184	15.548	1054.430	816.892
45.199	15.377	1053.939	815.610
46.213	15.564	1052.461	815.302
47.228	15.643	1051.232	814.656
48.242	15.731	1050.486	814.435
49.257	15.844	1049.668	814.274
50.271	15.784	1048.313	812.860
51.286	15.748	1047.692	812.136
52.301	15.806	1046.924	811.748
53.315	15.868	1046.279	811.475
54.330	15.807	1044.956	810.082
55.344	15.689	1044.261	808.907
56.359	15.704	1043.231	808.107
57.374	15.689	1042.271	807.219
58.388	15.559	1041.845	806.195
59.403	15.490	1041.019	805.155
60.417	15.567	1040.037	804.690
61.432	15.470	1039.420	803.680
62.447	15.523	1038.578	803.209
63.461	15.428	1037.610	801.935
64.476	15.394	1036.676	800.980
65.490	15.445	1036.038	800.663
66.505	15.385	1034.873	799.403
67.520	15.442	1034.020	798.944
68.534	15.362	1033.365	797.989
69.549	15.462	1032.760	797.924
70.563	15.443	1031.876	797.083
71.578	15.463	1031.074	796.488
72.593	15.392	1030.388	795.549
73.607	15.317	1029.196	794.205
74.622	15.351	1027.928	793.317
75.636	15.330	1027.251	792.622
76.651	15.278	1026.567	791.781
77.666	15.418	1025.470	791.525
78.680	15.439	1024.735	790.985
79.695	15.295	1024.927	790.386
80.709	15.359	1023.828	789.772
81.724	15.552	1022.980	789.953
82.739	15.644	1022.164	789.685
83.753	15.525	1021.774	788.755
84.768	15.613	1020.691	788.261
85.782	15.829	1019.726	788.462
86.797	16.038	1019.012	788.814
87.812	15.870	1019.007	787.958
88.826	15.791	1017.591	786.422
89.841	15.838	1016.693	785.878
90.855	15.797	1016.020	785.099
91.870	15.792	1015.529	784.624
92.884	16.038	1014.537	784.934
93.899	15.895	1014.015	783.798
94.914	15.910	1013.141	783.121
95.928	15.985	1012.183	782.660
96.943	15.984	1011.977	782.428
97.957	15.991	1010.519	781.260
98.972	15.828	1009.944	779.993
99.987	15.807	1009.262	779.302
101.001	15.873	1008.193	778.711
102.016	15.795	1007.872	778.035
103.030	15.924	1006.198	777.270
104.045	15.880	1005.121	776.166
105.060	15.933	1004.602	775.940
106.074	15.894	1003.534	774.866
107.089	15.672	1002.858	773.256
108.103	15.570	1001.723	771.843
109.118	15.448	1000.815	770.514
110.133	15.477	1000.029	769.976
111.147	15.464	999.164	769.179
112.162	15.492	998.343	768.610
113.176	15.423	997.668	767.707
114.191	15.632	996.908	768.008
115.206	15.697	995.785	767.373
116.220	15.657	995.007	766.520
117.235	15.494	994.519	765.333
118.249	15.578	993.800	765.099
119.264	15.504	992.722	763.863
120.279	15.510	991.566	762.934
121.293	15.508	990.796	762.265
122.308	15.438	990.321	761.514
123.322	15.499	989.147	760.820
124.337	15.348	988.084	759.249
125.352	15.366	987.106	758.513
126.366	15.299	985.790	757.134
127.381	15.184	985.227	756.116
128.395	15.291	983.851	755.473
129.410	15.449	982.798	755.309
130.424	15.489	981.645	754.537
131.439	15.461	981.247	754.038
132.454	15.511	980.569	753.673
133.468	15.734	979.546	753.823
134.483	15.699	978.956	753.144
135.497	15.641	978.343	752.344
136.512	15.709	977.686	752.078
137.527	15.767	976.515	751.370
138.541	15.636	976.006	750.327
139.556	15.585	975.488	749.636
140.570	15.756	974.181	749.327
141.585	15.716	973.953	748.906
142.600	15.883	972.951	748.811
143.614	15.906	972.402	748.428
144.629	16.028	971.561	748.252
145.643	16.099	970.829	747.939
146.658	15.934	969.908	746.433
147.673	15.847	969.403	745.590
148.687	15.826	968.146	744.466
149.702	15.616	967.576	743.033
150.716	15.597	966.282	741.888
151.731	15.528	965.445	740.876
152.746	15.772	964.130	740.880
153.760	15.681	963.553	739.968
154.775	15.773	962.993	739.878
155.789	15.852	962.269	739.603
156.804	15.808	962.010	739.145
157.819	15.867	960.520	738.193
158.833	15.762	960.257	737.466
159.848	16.028	959.484	737.971
160.862	15.936	959.088	737.198
161.877	16.002	957.964	736.561
162.892	15.830	957.182	735.143
163.906	15.773	955.847	733.800
164.921	15.695	955.720	733.299
165.935	15.808	954.494	732.788
166.950	15.777	953.457	731.790
167.964	15.704	953.080	731.120
168.979	15.872	951.468	730.546
169.994	15.852	950.292	729.492
171.008	15.796	949.668	728.706
172.023	15.825	949.004	728.260
173.037	16.024	948.098	728.359
174.052	16.044	947.582	727.982
175.067	16.000	946.778	727.112
176.081	15.894	945.868	725.894
177.096	15.743	944.752	724.320
178.110	15.720	944.348	723.846
179.125	15.806	943.864	723.781
180.140	15.835	942.998	723.178
181.154	15.866	942.235	722.664
182.169	15.886	941.696	722.271
183.183	16.118	941.077	722.728
184.198	15.957	940.430	721.479
185.213	16.143	939.630	721.595
186.227	16.071	939.148	720.855
187.242	16.141	938.794	720.818
188.256	16.195	938.358	720.648
189.271	16.236	937.097	719.792
190.286	16.289	936.820	719.743
191.300	16.114	935.429	717.863
192.315	15.815	934.841	716.079
193.329	15.724	933.707	714.760
194.344	15.723	933.336	714.407
195.359	15.776	932.780	714.145
196.373	15.990	932.258	714.587
197.388	16.030	931.674	714.247
198.402	16.162	931.053	714.267
199.417	16.175	930.868	714.116
200.432	16.297	930.811	714.527
201.446	16.423	929.918	714.309
202.461	16.401	929.780	714.049
203.475	16.506	929.013	713.838
204.490	16.470	928.110	712.929
205.504	16.368	927.205	711.742
206.519	16.346	926.596	711.118
207.534	16.177	925.963	709.862
208.548	16.121	925.592	709.278
209.563	16.371	924.243	709.230
210.577	16.385	923.323	708.521
211.592	16.286	922.918	707.732
212.607	16.367	922.437	707.640
213.621	16.584	922.205	708.307
214.636	16.636	921.261	707.739
215.650	16.426	920.749	706.404
216.665	16.426	919.989	705.757
217.680	16.587	919.314	705.851
218.694	16.429	919.403	705.197
219.709	16.679	918.389	705.396
220.723	16.582	917.751	704.442
221.738	16.642	917.019	704.068
222.753	16.568	916.535	703.324
223.767	16.534	915.907	702.639
224.782	16.547	914.954	701.900
225.796	16.616	914.426	701.721
226.811	16.782	913.569	701.687
227.826	16.668	912.929	700.661
228.840	16.579	912.212	699.681
229.855	16.591	911.528	699.145
230.869	16.619	910.978	698.778
231.884	16.660	910.200	698.287
232.899	16.607	909.725	697.641
233.913	16.507	908.676	696.366
234.928	16.494	908.088	695.797
235.942	16.517	907.270	695.205
236.957	16.458	906.945	694.652
237.972	16.529	906.104	694.239
238.986	16.390	905.745	693.331
240.001	16.522	904.502	692.858
241.015	16.706	903.849	693.052
242.030	16.520	903.444	691.916
243.045	16.747	902.476	692.045
244.059	16.619	902.735	691.657
245.074	16.802	901.402	691.321
246.088	16.786	900.554	690.543
247.103	16.827	900.146	690.336
248.117	16.809	899.837	689.967
249.132	16.896	899.442	689.958
250.147	17.112	898.812	690.290
251.161	17.178	898.193	690.020
252.176	17.353	897.275	689.964
253.190	17.289	896.640	689.157
254.205	17.269	896.418	688.843
255.220	17.319	895.603	688.361
256.234	17.244	894.730	687.326
257.249	17.336	894.288	687.297
258.263	17.253	893.758	686.494
259.278	17.325	892.884	686.053
260.293	17.359	892.271	685.657
261.307	17.319	892.242	685.411
262.322	17.347	891.644	685.004
263.336	17.463	890.635	684.636
264.351	17.447	890.204	684.178
265.366	17.495	889.596	683.843
266.380	17.442	889.106	683.194
267.395	17.461	888.537	682.773
268.409	17.415	887.606	681.812
269.424	17.254	887.148	680.756
270.439	17.328	886.169	680.241
271.453	17.363	884.979	679.405
272.468	17.395	884.743	679.293
273.482	17.355	884.082	678.567
274.497	17.382	883.712	678.329
275.512	17.259	882.866	677.131
276.526	17.404	881.606	676.680
277.541	17.366	881.090	676.076
278.555	17.447	880.257	675.696
279.570	17.536	880.488	676.168
280.585	17.595	879.677	675.718
281.599	17.676	879.354	675.732
282.614	17.651	878.241	674.719
283.628	17.603	877.685	674.041
284.643	17.559	877.680	673.804
285.657	17.455	877.026	672.831
286.672	17.454	876.294	672.207
287.687	17.650	875.718	672.480
288.701	17.631	875.446	672.134
289.716	17.657	874.563	671.500
290.730	17.626	874.225	671.057
291.745	17.730	873.149	670.582
292.760	17.598	872.705	669.661
293.774	17.714	872.144	669.629
294.789	17.683	871.702	669.109
295.803	17.653	871.083	668.458
296.818	17.626	870.520	667.858
297.833	17.764	869.612	667.645
298.847	17.658	868.925	666.642
299.862	17.766	868.125	666.392
300.876	17.705	867.736	665.796
301.891	17.925	866.752	665.841
302.906	17.768	866.552	665.016
303.920	17.870	865.907	664.860
304.935	18.018	865.118	664.770
305.949	18.039	864.741	664.505
306.964	18.085	864.099	664.130
307.979	17.933	863.337	662.898
308.993	17.842	863.002	662.228
310.008	18.036	862.203	662.309
311.022	18.031	861.874	661.979
312.037	18.058	861.378	661.642
313.052	17.940	860.631	660.553
314.066	17.772	860.240	659.545
315.081	17.744	859.252	658.621
316.095	17.840	858.520	658.372
317.110	17.912	858.302	658.426
318.125	17.803	857.721	657.499
319.139	17.828	857.422	657.308
320.154	17.892	856.918	657.110
321.168	17.857	856.107	656.298
322.183	18.036	855.589	656.530
323.197	17.865	855.195	655.513
324.212	17.854	854.788	655.100
325.227	17.909	854.060	654.694
326.241	18.051	853.428	654.696
327.256	17.990	852.698	653.845
328.270	17.935	852.262	653.241
329.285	17.998	851.785	653.061
330.300	18.119	850.831	652.734
331.314	17.844	850.304	651.220
332.329	17.989	849.693	651.249
333.343	18.104	849.070	651.150
334.358	18.282	848.733	651.512
335.373	18.225	848.044	650.708
336.387	18.179	847.775	650.272
337.402	18.207	847.203	649.882
338.416	18.316	846.529	649.722
339.431	18.347	845.886	649.287
340.446	18.351	845.582	649.011
341.460	18.463	844.896	648.853
342.475	18.520	844.364	648.602
343.489	18.504	843.721	647.988
344.504	18.582	843.427	648.000
345.519	18.643	843.025	647.865
346.533	18.606	842.544	647.299
347.548	18.594	841.961	646.747
348.562	18.529	841.381	645.999
349.577	18.408	840.601	644.890
350.592	18.245	840.618	644.232
351.606	18.235	839.853	643.550
352.621	18.285	839.353	643.299
353.635	18.276	838.833	642.807
354.650	18.452	838.376	643.063
355.665	18.425	837.969	642.591
356.679	18.376	837.906	642.305
357.694	18.509	837.059	642.097
358.708	18.584	836.118	641.595
359.723	18.645	835.691	641.440
360.738	18.576	835.294	640.821
361.752	18.607	834.735	640.451
362.767	18.637	834.241	640.126
363.781	18.729	833.506	639.850
364.796	18.727	833.336	639.657
365.810	18.817	832.898	639.598
366.825	18.784	832.865	639.393
367.840	19.003	832.210	639.648
368.854	18.928	831.899	639.071
369.869	18.775	831.393	638.058
370.883	18.795	830.918	637.712
371.898	18.836	830.380	637.395
372.913	18.945	829.559	637.112
373.927	18.950	829.023	636.662
374.942	19.003	828.483	636.390
375.956	18.922	827.641	635.387
376.971	19.023	827.349	635.479
377.986	18.985	826.897	634.934
379.000	19.102	826.096	634.695
380.015	19.135	825.587	634.371
381.029	19.293	824.704	634.217
382.044	19.157	824.527	633.524
383.059	19.035	824.313	632.857
384.073	19.181	823.386	632.623
385.088	19.166	822.811	632.071
386.102	18.929	822.526	630.927
387.117	18.987	821.701	630.452
388.132	19.062	821.517	630.528
389.146	19.066	820.942	630.048
390.161	19.078	820.601	629.772
391.175	19.090	820.049	629.337
392.190	19.123	820.009	629.370
393.205	19.021	819.625	628.648
394.219	19.071	819.109	628.380
395.234	19.240	818.191	628.235
396.248	18.980	817.788	626.921
397.263	18.949	817.144	626.260
398.278	18.928	816.415	625.572
399.292	18.898	816.339	625.346
400.307	18.938	816.083	625.241
401.321	19.039	815.489	625.098
402.336	18.831	815.610	624.379
403.350	18.935	814.823	624.097
404.365	19.008	814.196	623.828
405.380	19.237	813.663	624.197
406.394	19.132	813.470	623.613
407.409	19.322	812.659	623.623
408.423	19.514	812.198	623.906
409.438	19.449	811.799	623.312
410.453	19.547	811.334	623.253
411.467	19.568	811.260	623.215
412.482	19.634	810.466	622.787
413.496	19.530	810.038	622.028
414.511	19.644	809.825	622.220
415.526	19.610	809.719	621.963
416.540	19.784	809.182	622.122
417.555	19.542	808.686	620.816
418.569	19.774	807.773	620.891
419.584	19.646	807.197	619.935
420.599	19.669	807.118	619.902
421.613	150.224	1362.500	1764.545
422.628	130.404	1443.440	1764.647
