DTS Sentinel unit serial number:	SN413079Multiplexer serial number:	ORYXHardware model number:	OX4-SRSoftware version number:	ORYX F/W v4.00 Oryx Data Collector v3.7.2.0data status	okinstallation	princeton_trtdifferential loss correction	single-endedforward channel	channel 3reverse channel	N/Adate	2019/09/15time	12:32:35forward acquisition time	60.00reverse acquisition time	0.00gamma	496.2192k internal	0.2299k external	0.2299temperature offset calibration	0.9972default loss term (dB/km)	0.3790temperature slope calibration	1.0000multiplexer offset coefficient	1.0000multiplexer slope coefficient	1.0000fibre end	0.00T internal ref (°C)	35.22T ext. ref 1 (°C)	5.05T ext. ref 2 (°C)	33.06length (m)	temperature (°C)	Stokes	anti-Stokes-747.200	-148.313	0.204	-0.017
-746.185	-61.070	0.565	0.244
-745.171	800.000	-0.054	-0.192
-744.156	118.952	-0.084	0.106
-743.142	485.581	-0.040	0.093
-742.127	109.720	0.078	-0.096
-741.112	-116.357	0.207	0.039
-740.098	-200.000	-0.019	0.142
-739.083	266.162	0.071	-0.127
-738.069	8.594	0.057	0.044
-737.054	19.145	0.117	0.096
-736.039	64.116	-0.061	0.062
-735.025	-86.040	0.207	-0.065
-734.010	-8.361	0.046	-0.032
-732.996	197.682	-0.152	-0.236
-731.981	150.483	0.169	0.234
-730.966	600.168	-0.016	0.042
-729.952	-200.000	-0.003	0.086
-728.937	-143.348	0.174	0.017
-727.923	41.946	-0.113	0.105
-726.908	369.177	-0.058	-0.119
-725.894	-138.483	-0.297	-0.033
-724.879	-108.594	-0.131	0.029
-723.864	130.212	-0.096	0.126
-722.850	-62.670	-0.093	0.039
-721.835	72.160	0.113	-0.120
-720.821	-200.000	-0.105	-0.535
-719.806	308.474	-0.131	-0.250
-718.791	191.147	0.156	-0.240
-717.777	800.000	-0.017	-0.052
-716.762	-200.000	-0.019	-0.157
-715.748	-111.055	-0.318	-0.067
-714.733	-200.000	0.017	-0.150
-713.718	-11.402	-0.180	-0.121
-712.704	-200.000	-0.003	-0.034
-711.689	-104.243	0.439	0.104
-710.675	500.449	-0.071	-0.167
-709.660	-53.030	-0.332	0.155
-708.645	-34.639	0.143	-0.080
-707.631	-85.531	0.264	0.084
-706.616	800.000	0.092	-0.260
-705.602	-157.488	-0.043	-0.003
-704.587	-25.478	-0.274	0.165
-703.572	-118.959	0.221	0.039
-702.558	77.042	0.204	-0.221
-701.543	-41.393	-0.116	-0.061
-700.529	165.469	-0.223	-0.322
-699.514	800.000	-0.076	0.248
-698.499	-200.000	-0.005	-0.089
-697.485	800.000	-0.136	0.440
-696.470	-62.595	0.174	-0.074
-695.456	-200.000	0.004	-0.229
-694.441	129.921	-0.103	0.134
-693.426	83.574	0.034	-0.038
-692.412	-20.407	-0.087	-0.054
-691.397	-200.000	-0.002	0.059
-690.383	-102.379	-0.158	-0.039
-689.368	-129.041	0.100	-0.014
-688.354	-102.804	-0.228	-0.055
-687.339	-33.754	-0.260	-0.146
-686.324	-36.684	0.253	-0.138
-685.310	-200.000	0.005	-0.225
-684.295	-200.000	-0.031	0.255
-683.281	-111.414	-0.123	0.026
-682.266	169.417	-0.185	-0.268
-681.251	-127.278	-0.244	0.036
-680.237	-200.000	-0.028	0.234
-679.222	-200.000	0.015	-0.181
-678.208	-94.590	-0.196	0.054
-677.193	430.649	-0.151	0.333
-676.178	-118.353	-0.314	-0.057
-675.164	3.187	0.079	-0.059
-674.149	695.415	0.085	-0.228
-673.135	66.615	-0.366	-0.379
-672.120	-102.915	0.222	-0.054
-671.105	394.727	-0.128	-0.271
-670.091	-198.066	-0.289	0.002
-669.076	148.471	-0.078	-0.108
-668.062	74.572	-0.130	0.139
-667.047	-165.739	-0.118	-0.005
-666.032	-184.462	-0.311	0.005
-665.018	524.936	0.072	-0.172
-664.003	545.139	-0.088	0.214
-662.989	-138.107	-0.147	0.017
-661.974	-109.447	-0.052	0.011
-660.959	469.345	0.064	0.147
-659.945	-152.844	-0.066	-0.005
-658.930	334.587	0.175	-0.346
-657.916	351.465	0.041	-0.082
-656.901	345.232	-0.094	-0.187
-655.886	143.988	-0.264	-0.359
-654.872	48.296	0.209	-0.199
-653.857	-110.545	-0.140	-0.029
-652.843	-7.933	-0.088	0.061
-651.828	8.398	-0.127	-0.097
-650.814	-117.826	0.368	-0.067
-649.799	-200.000	-0.006	-0.156
-648.784	-200.000	0.053	0.381
-647.770	270.490	0.046	-0.083
-646.755	68.861	-0.312	-0.326
-645.741	70.463	-0.254	0.267
-644.726	23.094	0.233	0.194
-643.711	74.253	0.164	0.175
-642.697	-200.000	-0.016	-0.143
-641.682	244.647	-0.147	-0.251
-640.668	-106.462	0.333	0.076
-639.653	141.759	0.055	-0.073
-638.638	211.116	0.065	-0.104
-637.624	-96.819	-0.222	-0.059
-636.609	-200.000	0.129	0.000
-635.595	800.000	-0.047	-0.160
-634.580	190.766	0.134	-0.205
-633.565	218.326	0.056	0.092
-632.551	-200.000	0.022	-0.125
-631.536	800.000	0.112	0.374
-630.522	26.711	-0.206	-0.175
-629.507	-43.020	0.101	-0.052
-628.492	39.181	-0.263	-0.239
-627.478	-200.000	-0.066	-0.298
-626.463	-200.000	0.067	-0.402
-625.449	800.000	0.008	0.037
-624.434	-126.341	0.024	0.004
-623.419	-60.281	-0.138	0.060
-622.405	-162.471	-0.357	0.018
-621.390	75.227	-0.150	-0.161
-620.376	-200.000	-0.049	0.252
-619.361	-62.637	0.430	0.181
-618.346	21.572	0.019	0.016
-617.332	-200.000	0.000	-0.186
-616.317	-86.332	-0.317	0.099
-615.303	-200.000	-0.007	-0.411
-614.288	-128.200	-0.447	-0.065
-613.273	497.775	0.057	-0.132
-612.259	469.706	0.091	-0.209
-611.244	-38.289	0.423	0.227
-610.230	669.185	0.087	0.228
-609.215	33.991	-0.078	-0.069
-608.201	98.586	-0.121	0.141
-607.186	-53.093	0.273	-0.127
-606.171	120.438	0.242	-0.306
-605.157	-123.229	0.367	-0.060
-604.142	-132.304	-0.087	0.011
-603.128	-59.100	-0.063	-0.027
-602.113	-125.186	0.309	-0.048
-601.098	-200.000	-0.015	0.138
-600.084	-29.531	0.184	-0.106
-599.069	800.000	0.212	0.597
-598.055	800.000	0.028	-0.082
-597.040	-104.519	-0.377	0.088
-596.025	501.442	-0.055	0.128
-595.011	166.321	-0.085	-0.123
-593.996	-12.803	0.136	-0.090
-592.982	-173.755	0.067	0.002
-591.967	-40.462	-0.046	-0.024
-590.952	-50.636	-0.141	0.067
-589.938	-97.646	0.194	-0.051
-588.923	-26.732	-0.219	0.130
-587.909	23.393	0.327	0.273
-586.894	49.796	-0.164	0.157
-585.879	224.293	0.178	0.292
-584.865	239.865	0.280	0.473
-583.850	381.183	-0.010	-0.021
-582.836	-83.298	-0.339	-0.110
-581.821	-76.868	-0.039	0.014
-580.806	-65.917	-0.307	-0.124
-579.792	169.483	-0.236	0.341
-578.777	-61.858	-0.169	-0.072
-577.763	460.967	-0.127	0.287
-576.748	-69.986	-0.102	0.039
-575.733	-25.417	0.200	0.120
-574.719	-200.000	0.041	0.211
-573.704	-2.166	0.136	-0.097
-572.690	243.787	-0.046	-0.078
-571.675	-200.000	0.155	0.001
-570.661	225.746	-0.124	0.204
-569.646	-166.896	0.314	0.013
-568.631	-92.507	-0.379	0.108
-567.617	-81.530	-0.074	0.025
-566.602	800.000	0.058	0.168
-565.588	15.874	-0.212	0.169
-564.573	31.386	-0.113	0.098
-563.558	202.801	0.109	-0.171
-562.544	456.828	-0.101	-0.228
-561.529	-200.000	-0.019	0.178
-560.515	297.290	-0.099	0.183
-559.500	32.299	0.094	0.082
-558.485	-200.000	-0.002	-0.113
-557.471	252.949	0.051	0.087
-556.456	-200.000	0.062	-0.371
-555.442	-122.586	0.203	0.033
-554.427	-40.823	-0.222	0.117
-553.412	-72.842	-0.286	0.107
-552.398	800.000	0.011	-0.043
-551.383	-143.281	-0.148	0.014
-550.369	182.304	0.195	-0.291
-549.354	-200.000	-0.000	-0.030
-548.339	800.000	0.046	-0.147
-547.325	-200.000	0.003	-0.173
-546.310	800.000	-0.020	0.074
-545.296	191.979	0.102	0.155
-544.281	-23.658	-0.168	0.102
-543.266	-200.000	-0.008	-0.230
-542.252	-174.685	-0.193	-0.006
-541.237	-84.009	0.084	0.027
-540.223	-0.034	-0.181	0.130
-539.208	-200.000	-0.015	0.249
-538.193	8.051	0.086	0.066
-537.179	-200.000	0.017	-0.075
-536.164	39.922	0.229	-0.208
-535.150	-97.960	-0.089	-0.023
-534.135	-16.116	0.103	-0.066
-533.121	-128.354	-0.024	-0.003
-532.106	145.136	-0.247	0.334
-531.091	-119.553	0.191	-0.034
-530.077	-30.585	0.123	-0.071
-529.062	-200.000	0.029	0.163
-528.048	183.370	-0.183	0.274
-527.033	73.511	0.135	-0.143
-526.018	800.000	-0.109	-0.400
-525.004	-48.644	0.124	-0.060
-523.989	-115.298	-0.100	-0.019
-522.975	-64.564	-0.182	0.075
-521.960	69.787	0.153	-0.160
-520.945	800.000	-0.011	-0.036
-519.931	279.287	0.075	-0.135
-518.916	-89.842	-0.606	0.179
-517.902	227.459	-0.053	-0.087
-516.887	78.415	0.028	0.030
-515.872	-103.893	0.258	-0.061
-514.858	-86.207	-0.619	-0.193
-513.843	-125.823	0.123	0.019
-512.829	106.044	0.084	0.100
-511.814	-60.780	-0.251	0.108
-510.799	94.681	0.004	-0.005
-509.785	2.643	-0.154	-0.113
-508.770	101.820	0.017	-0.021
-507.756	148.810	0.110	-0.151
-506.741	228.404	0.164	-0.270
-505.726	129.094	0.177	0.228
-504.712	-200.000	0.008	0.183
-503.697	6.263	0.170	0.128
-502.683	382.795	0.091	-0.189
-501.668	-138.058	0.107	-0.012
-500.653	38.197	0.195	-0.176
-499.639	-200.000	0.059	0.330
-498.624	-128.436	-0.096	-0.014
-497.610	1.468	0.210	-0.153
-496.595	800.000	-0.035	0.154
-495.581	31.009	-0.119	0.103
-494.566	800.000	-0.048	-0.202
-493.551	264.371	0.270	-0.476
-492.537	-70.223	-0.362	0.139
-491.522	445.193	-0.031	0.068
-490.508	442.416	-0.124	0.273
-489.493	92.382	-0.215	0.245
-488.478	-200.000	0.006	-0.067
-487.464	74.911	-0.211	-0.224
-486.449	164.085	-0.134	-0.190
-485.435	-40.121	0.350	0.184
-484.420	153.449	-0.036	0.050
-483.405	-200.000	0.019	-0.296
-482.391	-137.527	-0.103	-0.012
-481.376	140.975	-0.094	0.126
-480.362	51.516	0.229	-0.220
-479.347	-152.101	-0.140	-0.010
-478.332	-117.782	-0.302	0.055
-477.318	-67.051	0.130	0.052
-476.303	800.000	0.017	0.075
-475.289	-200.000	-0.042	-0.375
-474.274	554.058	0.043	-0.104
-473.259	0.781	0.095	-0.069
-472.245	-29.637	-0.182	0.105
-471.230	484.423	0.076	-0.176
-470.216	800.000	0.028	-0.081
-469.201	97.135	0.158	-0.183
-468.186	-24.657	0.426	0.256
-467.172	312.111	-0.119	-0.225
-466.157	-192.402	0.251	0.002
-465.143	-141.506	0.185	-0.019
-464.128	-59.235	-0.312	-0.136
-463.113	279.606	-0.154	0.278
-462.099	-157.516	0.164	-0.010
-461.084	-143.535	-0.349	-0.034
-460.070	-82.276	-0.228	0.075
-459.055	171.311	0.206	-0.299
-458.040	-200.000	0.005	-0.181
-457.026	-11.828	-0.126	-0.083
-456.011	66.083	-0.128	-0.131
-454.997	-29.099	-0.299	-0.173
-453.982	69.751	0.063	-0.066
-452.968	-200.000	0.016	0.153
-451.953	-22.665	0.159	-0.097
-450.938	-39.013	0.100	0.053
-449.924	-74.787	0.210	-0.076
-448.909	-200.000	-0.009	-0.167
-447.895	168.873	-0.154	0.221
-446.880	133.114	-0.175	0.228
-445.865	44.443	0.391	-0.363
-444.851	23.228	0.064	0.053
-443.836	170.216	0.113	-0.163
-442.822	13.602	-0.194	-0.152
-441.807	-200.000	-0.060	-0.338
-440.792	-79.234	0.132	-0.045
-439.778	351.216	0.204	0.406
-438.763	670.940	0.157	0.411
-437.749	-96.196	0.020	0.005
-436.734	151.843	-0.108	0.148
-435.719	800.000	-0.046	-0.138
-434.705	-154.389	0.218	-0.015
-433.690	136.254	0.095	0.125
-432.676	-128.563	0.208	-0.030
-431.661	-46.240	0.067	0.033
-430.646	80.531	0.167	0.181
-429.632	477.883	0.166	-0.379
-428.617	-145.472	-0.219	0.020
-427.603	87.564	-0.028	0.031
-426.588	696.274	-0.010	-0.027
-425.573	54.798	-0.136	0.133
-424.559	298.551	0.145	-0.270
-423.544	158.602	-0.051	0.072
-422.530	377.073	0.232	-0.477
-421.515	61.223	-0.092	-0.092
-420.500	78.194	0.045	0.048
-419.486	67.804	0.114	-0.117
-418.471	800.000	-0.019	-0.069
-417.457	672.301	0.089	-0.233
-416.442	-27.562	0.161	-0.095
-415.428	186.308	-0.146	0.219
-414.413	138.369	-0.242	0.320
-413.398	800.000	0.044	0.157
-412.384	-200.000	-0.022	0.129
-411.369	220.906	-0.102	0.165
-410.355	-200.000	0.083	0.436
-409.340	-200.000	0.016	0.152
-408.325	181.260	0.229	0.339
-407.311	800.000	-0.018	0.078
-406.296	-78.291	-0.110	-0.038
-405.282	-200.000	0.038	0.216
-404.267	-124.845	-0.267	0.041
-403.252	82.877	-0.179	-0.196
-402.238	-90.753	-0.262	0.076
-401.223	-200.000	0.042	-0.214
-400.209	1.918	0.137	-0.099
-399.194	-9.368	-0.126	0.085
-398.179	-129.823	0.234	-0.032
-397.165	41.416	-0.010	0.009
-396.150	12.898	0.095	-0.074
-395.136	87.181	0.078	0.087
-394.121	800.000	0.094	0.310
-393.106	-200.000	0.045	0.441
-392.092	293.086	0.083	-0.152
-391.077	800.000	0.051	0.222
-390.063	59.500	0.028	-0.028
-389.048	598.421	-0.091	-0.227
-388.033	-116.224	0.420	0.078
-387.019	-27.523	-0.114	0.067
-386.004	56.236	-0.096	0.094
-384.990	-200.000	-0.007	0.169
-383.975	73.438	-0.095	-0.100
-382.960	-200.000	0.025	0.134
-381.946	71.957	0.109	-0.115
-380.931	-107.649	0.204	0.045
-379.917	-53.150	-0.072	-0.033
-378.902	800.000	0.064	0.264
-377.888	-107.016	0.079	0.018
-376.873	-200.000	-0.028	0.332
-375.858	-82.149	0.137	0.045
-374.844	-96.461	0.159	0.042
-373.829	344.607	-0.241	-0.475
-372.815	-200.000	-0.030	-0.224
-371.800	18.283	0.135	-0.108
-370.785	86.373	-0.105	-0.116
-369.771	173.383	0.128	-0.186
-368.756	647.012	0.086	-0.221
-367.742	246.621	-0.099	0.167
-366.727	-24.205	0.169	0.102
-365.712	-54.565	0.154	0.070
-364.698	-200.000	0.037	-0.368
-363.683	-94.549	-0.111	-0.030
-362.669	195.126	-0.068	0.103
-361.654	-25.951	0.123	-0.073
-360.639	-200.000	-0.025	-0.244
-359.625	-200.000	-0.029	-0.176
-358.610	-200.000	0.032	-0.180
-357.596	-81.678	0.244	-0.080
-356.581	35.681	-0.244	0.216
-355.566	87.613	0.039	0.044
-354.552	39.976	-0.132	0.119
-353.537	-89.314	0.157	-0.046
-352.523	-200.000	-0.010	-0.126
-351.508	-200.000	0.002	0.068
-350.493	-200.000	-0.057	0.441
-349.479	-154.681	0.055	0.004
-348.464	398.079	-0.067	-0.142
-347.450	177.840	0.083	0.121
-346.435	-200.000	-0.003	0.018
-345.420	43.772	-0.092	0.084
-344.406	-71.966	0.352	0.132
-343.391	101.948	0.095	0.112
-342.377	800.000	0.065	-0.250
-341.362	-6.770	-0.230	0.157
-340.348	31.242	0.111	0.095
-339.333	-87.773	-0.217	0.066
-338.318	-60.527	0.214	-0.091
-337.304	-200.000	0.000	-0.125
-336.289	-97.415	-0.078	0.020
-335.275	800.000	0.066	0.191
-334.260	-119.491	-0.263	0.046
-333.245	158.048	0.145	-0.202
-332.231	-44.772	0.170	0.085
-331.216	-200.000	-0.032	-0.184
-330.202	85.549	-0.139	0.154
-329.187	30.621	0.139	0.119
-328.172	401.142	0.144	-0.303
-327.158	346.205	0.083	-0.163
-326.143	-200.000	0.006	0.176
-325.129	-92.639	0.145	0.041
-324.114	-110.299	-0.166	0.035
-323.099	-178.560	0.328	-0.008
-322.085	-171.980	0.300	-0.010
-321.070	203.633	-0.033	0.051
-320.056	172.949	-0.146	-0.210
-319.041	800.000	0.043	0.160
-318.026	7.506	0.192	0.144
-317.012	54.694	0.127	-0.123
-315.997	-141.942	0.508	0.051
-314.983	80.392	0.036	-0.039
-313.968	-153.307	0.269	0.019
-312.953	4.181	0.171	0.125
-311.939	-149.301	0.178	0.014
-310.924	92.706	0.101	-0.115
-309.910	-79.688	0.157	0.053
-308.895	449.993	0.106	0.234
-307.880	800.000	-0.043	0.190
-306.866	601.302	-0.057	0.141
-305.851	-129.722	0.192	-0.027
-304.837	36.651	0.063	-0.056
-303.822	-200.000	-0.056	-0.316
-302.807	-17.276	0.181	0.114
-301.793	629.247	-0.121	0.308
-300.778	163.939	0.085	0.120
-299.764	-79.541	0.086	0.029
-298.749	-110.263	0.056	0.012
-297.735	800.000	0.048	0.199
-296.720	110.910	-0.125	-0.150
-295.705	-36.253	0.225	0.122
-294.691	-167.673	0.113	-0.004
-293.676	-51.431	-0.022	0.010
-292.662	631.794	0.020	0.051
-291.647	140.096	-0.168	0.222
-290.632	-95.427	-0.324	0.087
-289.618	-200.000	0.011	0.373
-288.603	-108.620	0.293	0.063
-287.589	-114.035	-0.193	-0.038
-286.574	327.768	0.115	-0.221
-285.559	761.728	-0.031	-0.084
-284.545	709.243	-0.073	0.192
-283.530	-75.205	-0.221	-0.079
-282.516	41.297	-0.142	0.129
-281.501	-200.000	-0.025	0.165
-280.486	-73.516	-0.241	0.088
-279.472	-174.044	-0.045	-0.001
-278.457	-125.779	0.411	-0.062
-277.443	126.213	0.078	-0.099
-276.428	-200.000	-0.045	-0.457
-275.413	-142.561	-0.089	0.009
-274.399	-200.000	-0.007	-0.116
-273.384	-200.000	-0.043	0.380
-272.370	-200.000	-0.020	0.146
-271.355	-200.000	0.001	0.086
-270.340	-200.000	0.047	-0.276
-269.326	-10.869	0.192	-0.127
-268.311	178.825	0.029	0.042
-267.297	72.343	0.112	-0.117
-266.282	800.000	-0.109	0.460
-265.267	-108.798	-0.412	0.088
-264.253	-124.954	-0.136	-0.021
-263.238	-65.071	-0.174	0.070
-262.224	53.569	-0.268	0.257
-261.209	63.796	0.242	-0.243
-260.195	-84.183	-0.135	0.043
-259.180	-92.167	-0.219	0.062
-258.165	314.131	-0.120	-0.226
-257.151	144.497	0.085	-0.113
-256.136	-131.209	-0.225	0.030
-255.122	800.000	0.140	-0.398
-254.107	-200.000	-0.038	-0.277
-253.092	800.000	-0.120	0.439
-252.078	28.035	-0.234	-0.197
-251.063	-200.000	0.058	-0.259
-250.049	800.000	-0.040	0.131
-249.034	186.315	-0.117	0.174
-248.019	-200.000	-0.000	-0.094
-247.005	188.571	-0.015	0.022
-245.990	-200.000	0.011	0.059
-244.976	105.332	0.205	0.242
-243.961	29.904	0.086	-0.073
-242.946	135.845	-0.150	0.195
-241.932	-22.001	0.120	0.073
-240.917	20.851	0.100	-0.081
-239.903	-12.924	-0.429	0.279
-238.888	642.135	0.112	-0.287
-237.873	-138.871	-0.282	0.031
-236.859	-40.359	-0.147	0.076
-235.844	-8.311	-0.156	0.105
-234.830	434.303	0.064	0.138
-233.815	-108.676	-0.098	-0.021
-232.800	-200.000	0.006	0.143
-231.786	-145.364	0.382	-0.034
-230.771	-27.900	-0.162	-0.094
-229.757	336.778	0.093	0.180
-228.742	-200.000	-0.006	-0.057
-227.727	-71.033	-0.146	0.055
-226.713	800.000	0.041	0.127
-225.698	-200.000	0.112	0.540
-224.684	-200.000	0.050	0.264
-223.669	-200.000	0.032	-0.192
-222.655	237.426	-0.067	0.111
-221.640	116.597	-0.163	0.200
-220.625	569.217	-0.090	-0.220
-219.611	112.326	0.202	0.244
-218.596	-200.000	-0.004	0.241
-217.582	-57.430	-0.154	-0.068
-216.567	176.185	0.115	-0.166
-215.552	-34.416	-0.104	-0.057
-214.538	-200.000	-0.012	-0.242
-213.523	31.569	-0.311	-0.268
-212.509	-200.000	0.046	-0.384
-211.494	800.000	-0.033	-0.136
-210.479	71.917	-0.040	-0.042
-209.465	36.659	0.245	-0.216
-208.450	-49.078	-0.348	-0.167
-207.436	800.000	0.041	0.144
-206.421	800.000	0.101	-0.307
-205.406	356.379	-0.131	-0.260
-204.392	-130.423	-0.196	-0.027
-203.377	-47.660	-0.135	-0.065
-202.363	576.178	-0.066	0.162
-201.348	-20.990	0.164	0.100
-200.333	-28.878	0.215	-0.124
-199.319	36.151	0.023	-0.020
-198.304	69.593	0.119	0.122
-197.290	111.853	0.137	-0.165
-196.275	135.849	0.110	-0.144
-195.260	-200.000	-0.007	0.187
-194.246	325.273	-0.187	0.357
-193.231	321.887	-0.122	0.233
-192.217	-86.406	-0.248	-0.076
-191.202	800.000	-0.038	-0.143
-190.187	-200.000	-0.010	-0.287
-189.173	-18.904	0.033	-0.021
-188.158	34.065	-0.012	0.010
-187.144	88.779	0.165	0.183
-186.129	-152.780	-0.142	-0.010
-185.114	-200.000	-0.005	0.071
-184.100	-54.214	-0.254	0.115
-183.085	360.084	0.017	-0.033
-182.071	176.273	-0.071	0.103
-181.056	142.554	-0.185	0.246
-180.042	800.000	0.025	0.105
-179.027	60.365	-0.240	0.237
-178.012	-116.292	-0.221	-0.041
-176.998	-164.697	0.459	-0.021
-175.983	-183.179	0.076	0.001
-174.969	17.027	-0.080	-0.063
-173.954	-139.365	-0.264	0.028
-172.939	400.489	-0.046	-0.096
-171.925	126.665	0.111	-0.140
-170.910	156.604	0.066	-0.091
-169.896	-200.000	0.050	-0.353
-168.881	-90.380	-0.302	-0.088
-167.866	-200.000	-0.017	-0.192
-166.852	-142.099	-0.502	-0.050
-165.837	-200.000	0.024	-0.146
-164.823	-120.521	0.107	0.018
-163.808	-64.042	-0.171	0.070
-162.793	412.218	0.065	0.138
-161.779	-65.037	0.449	-0.181
-160.764	-31.224	0.210	-0.118
-159.750	292.356	0.044	-0.079
-158.735	51.103	-0.159	-0.151
-157.720	78.938	-0.304	-0.324
-156.706	-21.019	-0.307	-0.187
-155.691	-176.890	-0.241	0.006
-154.677	-14.573	0.151	-0.097
-153.662	-200.000	0.003	-0.234
-152.647	-28.256	0.245	-0.141
-151.633	-200.000	-0.008	0.053
-150.618	-112.290	-0.343	0.068
-149.604	-200.000	-0.004	-0.263
-148.589	94.320	-0.218	-0.247
-147.574	161.751	0.097	-0.136
-146.560	-103.874	-0.143	-0.033
-145.545	162.248	-0.230	0.321
-144.531	-200.000	0.001	0.176
-143.516	511.590	0.200	0.465
-142.502	-135.214	0.150	0.018
-141.487	572.595	0.148	-0.361
-140.472	201.311	0.067	-0.103
-139.458	3.981	0.183	-0.133
-138.443	-12.960	-0.198	-0.128
-137.429	197.642	0.151	0.229
-136.414	386.621	0.072	0.147
-135.399	-200.000	0.001	-0.086
-134.385	-131.536	-0.074	0.010
-133.370	-200.000	-0.003	-0.021
-132.356	0.460	-0.046	-0.033
-131.341	487.886	-0.124	0.282
-130.326	800.000	-0.110	0.335
-129.312	-200.000	0.027	0.138
-128.297	-116.032	-0.407	0.076
-127.283	800.000	-0.061	0.233
-126.268	-171.703	0.107	0.004
-125.253	639.467	0.043	-0.110
-124.239	-175.120	0.238	-0.007
-123.224	-29.665	0.126	-0.072
-122.210	-75.786	-0.061	-0.022
-121.195	-200.000	0.022	0.120
-120.180	59.592	0.159	0.156
-119.166	-200.000	0.041	-0.364
-118.151	-200.000	0.010	-0.229
-117.137	-200.000	-0.004	0.156
-116.122	-89.238	0.254	-0.074
-115.107	-200.000	0.025	0.305
-114.093	308.040	0.047	-0.088
-113.078	68.363	-0.363	-0.370
-112.064	789.431	0.087	0.238
-111.049	194.366	-0.051	0.078
-110.034	512.797	0.073	-0.169
-109.020	800.000	0.039	-0.138
-108.005	-105.666	-0.227	0.051
-106.991	-200.000	0.019	-0.173
-105.976	-200.000	-0.003	0.110
-104.962	-4.038	0.137	0.095
-103.947	634.557	0.039	-0.098
-102.932	-182.717	0.254	-0.005
-101.918	800.000	-0.035	-0.144
-100.903	141.696	-0.019	0.025
-99.889	-89.168	-0.138	0.041
-98.874	561.479	0.103	-0.249
-97.859	229.301	0.144	-0.233
-96.845	-117.393	-0.139	-0.025
-95.830	450.816	-0.096	0.211
-94.816	-200.000	0.016	-0.287
-93.801	15.268	0.186	0.145
-92.786	107.028	0.072	-0.085
-91.772	19.970	0.138	0.111
-90.757	800.000	0.056	-0.200
-89.743	59.064	0.196	0.192
-88.728	182.981	0.168	-0.247
-87.713	305.224	-0.205	0.379
-86.699	7.224	-0.308	0.228
-85.684	-200.000	0.039	-0.305
-84.670	-200.000	0.019	0.195
-83.655	109.330	-0.083	-0.099
-82.640	-200.000	-0.023	-0.186
-81.626	-40.874	0.105	0.054
-80.611	-63.358	-0.279	0.114
-79.597	-4.494	0.226	0.155
-78.582	-200.000	0.001	-0.352
-77.567	400.731	0.093	-0.193
-76.553	-89.262	-0.198	-0.058
-75.538	7.397	-0.247	0.184
-74.524	74.153	-0.094	0.098
-73.509	-56.690	0.159	-0.070
-72.494	800.000	-0.031	-0.114
-71.480	-8.188	0.153	0.102
-70.465	167.860	-0.077	0.109
-69.451	-200.000	0.011	0.306
-68.436	-118.999	0.032	0.005
-67.422	-200.000	0.034	0.210
-66.407	122.401	-0.093	0.116
-65.392	-100.131	0.299	0.074
-64.378	-138.611	0.380	-0.041
-63.363	-36.872	-0.265	-0.141
-62.349	-116.047	-0.302	0.056
-61.334	92.362	-0.699	-0.783
-60.319	119.883	0.248	0.306
-59.305	-200.000	-0.205	-0.962
-58.290	541.079	0.310	0.734
-57.276	473.649	0.603	1.351
-56.261	-200.000	92.371	539.249
-55.246	584.122	1385.927	3381.717
-54.232	186.287	2594.897	3835.490
-53.217	119.399	2217.136	2726.154
-52.203	45.443	1745.934	1600.776
-51.188	38.230	1554.498	1374.695
-50.173	35.752	1526.118	1332.397
-49.159	53.494	1575.297	1500.671
-48.144	56.962	1594.159	1543.010
-47.130	38.716	1550.820	1374.629
-46.115	35.411	1535.520	1338.020
-45.100	35.270	1532.364	1334.232
-44.086	35.298	1529.939	1332.264
-43.071	35.228	1528.195	1330.206
-42.057	35.138	1527.090	1328.570
-41.042	35.228	1524.859	1327.200
-40.027	35.286	1523.412	1326.286
-39.013	35.167	1522.111	1324.278
-37.998	35.243	1520.557	1323.402
-36.984	35.187	1519.628	1322.149
-35.969	35.213	1518.664	1321.442
-34.954	35.171	1516.856	1319.526
-33.940	35.099	1515.391	1317.703
-32.925	35.235	1513.714	1317.126
-31.911	35.343	1512.231	1316.523
-30.896	35.271	1511.463	1315.308
-29.881	35.292	1510.076	1314.194
-28.867	35.326	1508.529	1313.029
-27.852	35.337	1506.852	1311.594
-26.838	35.312	1505.181	1309.916
-25.823	35.340	1503.643	1308.715
-24.809	35.214	1502.815	1307.084
-23.794	35.318	1501.265	1306.396
-22.779	35.287	1499.968	1304.999
-21.765	35.261	1499.119	1304.036
-20.750	35.361	1497.827	1303.535
-19.736	35.244	1497.026	1301.997
-18.721	35.270	1495.584	1300.865
-17.706	35.215	1494.773	1299.734
-16.692	35.266	1493.656	1299.060
-15.677	35.223	1493.031	1298.168
-14.663	35.286	1491.356	1297.091
-13.648	35.098	1491.025	1295.477
-12.633	35.125	1489.461	1294.252
-11.619	35.125	1488.933	1293.740
-10.604	35.137	1487.663	1292.665
-9.590	35.186	1486.782	1292.178
-8.575	35.203	1485.688	1291.295
-7.560	35.120	1485.456	1290.481
-6.546	35.148	1484.674	1289.941
-5.531	35.054	1483.634	1288.351
-4.517	35.201	1482.355	1288.177
-3.502	35.161	1481.522	1287.134
-2.487	35.229	1480.451	1286.608
-1.473	35.180	1479.406	1285.324
-0.458	35.276	1477.385	1284.159
0.556	34.320	1468.913	1275.960
1.571	32.187	1444.159	1240.285
2.586	29.071	1381.530	1166.683
3.600	27.210	1297.231	1084.308
4.615	25.222	1249.598	1032.969
5.629	21.696	1192.445	966.229
6.644	13.050	1106.049	851.718
7.659	6.291	1063.541	785.281
8.673	5.346	1057.456	776.028
9.688	5.044	1054.541	772.323
10.702	4.936	1053.157	770.707
11.717	4.866	1051.637	769.181
12.731	7.747	1054.384	785.368
13.746	15.483	1065.249	831.861
14.761	19.821	1070.250	857.237
15.775	18.735	1067.439	849.544
16.790	17.393	1064.845	840.775
17.804	16.248	1062.643	833.312
18.819	15.404	1061.007	827.792
19.834	14.960	1059.609	824.440
20.848	14.521	1058.543	821.378
21.863	14.432	1057.338	819.933
22.877	14.132	1056.492	817.728
23.892	14.077	1056.076	817.065
24.907	13.920	1055.086	815.454
25.921	13.894	1054.524	814.821
26.936	13.784	1053.688	813.561
27.950	13.900	1052.451	813.105
28.965	13.973	1051.434	812.603
29.980	14.134	1050.028	812.230
30.994	14.072	1049.251	811.256
32.009	14.259	1048.163	811.256
33.023	14.328	1047.305	810.855
34.038	14.226	1046.833	809.920
35.053	14.148	1045.607	808.522
36.067	13.998	1044.852	807.136
37.082	13.979	1043.714	806.094
38.096	13.981	1043.591	805.940
39.111	14.076	1042.360	805.375
40.126	14.148	1041.504	804.994
41.140	14.077	1040.510	803.811
42.155	13.950	1039.412	802.275
43.169	13.840	1038.719	801.139
44.184	13.837	1037.559	800.160
45.199	13.911	1036.308	799.482
46.213	13.852	1035.290	798.342
47.228	13.853	1034.321	797.527
48.242	13.949	1033.455	797.248
49.257	14.053	1032.445	796.900
50.271	14.026	1031.396	795.889
51.286	14.014	1030.768	795.279
52.301	14.028	1029.892	794.596
53.315	14.107	1028.960	794.185
54.330	14.006	1028.242	793.081
55.344	13.989	1026.974	791.948
56.359	13.807	1026.118	790.355
57.374	13.878	1025.615	790.233
58.388	13.911	1024.586	789.530
59.403	13.765	1023.988	788.302
60.417	13.783	1023.167	787.686
61.432	13.750	1022.411	786.876
62.447	13.770	1021.471	786.181
63.461	13.686	1020.758	785.165
64.476	13.711	1019.859	784.524
65.490	13.776	1018.429	783.658
66.505	13.681	1018.166	782.941
67.520	13.725	1017.316	782.424
68.534	13.728	1016.609	781.824
69.549	13.694	1015.695	780.891
70.563	13.761	1015.067	780.654
71.578	13.683	1014.508	779.792
72.593	13.620	1013.686	778.791
73.607	13.597	1012.626	777.803
74.622	13.562	1011.452	776.669
75.636	13.706	1010.233	776.336
76.651	13.625	1009.650	775.443
77.666	13.619	1009.191	774.993
78.680	13.673	1008.287	774.480
79.695	13.713	1007.694	774.144
80.709	13.781	1006.947	773.820
81.724	13.743	1006.151	772.961
82.739	13.780	1005.749	772.756
83.753	13.845	1005.150	772.531
84.768	13.828	1004.182	771.638
85.782	14.036	1003.368	771.911
86.797	14.050	1002.809	771.477
87.812	14.086	1002.139	771.063
88.826	13.885	1001.218	769.355
89.841	13.824	1000.435	768.401
90.855	14.083	999.482	768.799
91.870	13.999	998.739	767.770
92.884	14.086	998.248	767.729
93.899	14.128	997.005	766.899
94.914	14.013	996.625	766.010
95.928	14.150	995.591	765.778
96.943	14.257	994.870	765.647
97.957	14.153	994.444	764.770
98.972	14.085	993.258	763.480
99.987	14.024	992.674	762.683
101.001	14.054	991.733	762.032
102.016	14.201	990.418	761.624
103.030	13.969	990.144	760.286
104.045	13.987	989.400	759.730
105.060	14.042	988.066	758.888
106.074	14.035	987.395	758.274
107.089	13.825	986.789	756.784
108.103	13.900	985.127	755.785
109.118	13.794	984.609	754.837
110.133	13.834	983.656	754.221
111.147	13.827	982.813	753.478
112.162	13.695	982.234	752.366
113.176	13.852	981.116	752.158
114.191	13.904	979.938	751.422
115.206	13.806	979.583	750.641
116.220	13.993	978.441	750.545
117.235	13.808	977.885	749.214
118.249	13.794	977.226	748.579
119.264	13.822	976.260	747.902
120.279	13.819	975.507	747.246
121.293	13.717	974.636	746.054
122.308	13.784	973.786	745.637
123.322	13.808	972.699	744.848
124.337	13.773	971.577	743.766
125.352	13.608	970.715	742.298
126.366	13.783	969.430	742.035
127.381	13.782	968.399	741.178
128.395	13.771	967.472	740.352
129.410	13.807	966.781	739.916
130.424	13.757	966.410	739.346
131.439	13.752	965.193	738.324
132.454	13.984	964.082	738.443
133.468	13.890	963.801	737.742
134.483	13.961	962.862	737.276
135.497	13.979	962.876	737.301
136.512	13.940	961.604	736.087
137.527	14.013	960.727	735.677
138.541	13.859	960.260	734.570
139.556	13.868	959.320	733.826
140.570	14.014	958.556	733.823
141.585	13.959	957.439	732.660
142.600	14.040	957.013	732.625
143.614	14.020	956.419	732.017
144.629	14.161	955.514	731.883
145.643	14.236	954.526	731.388
146.658	14.096	954.106	730.390
147.673	14.125	952.932	729.550
148.687	14.065	951.916	728.448
149.702	13.906	951.207	727.142
150.716	13.840	950.391	726.167
151.731	14.028	949.076	725.918
152.746	13.908	949.042	725.305
153.760	13.945	948.165	724.731
154.775	14.030	947.287	724.367
155.789	14.008	946.536	723.632
156.804	14.039	946.227	723.466
157.819	14.182	945.103	723.167
158.833	14.112	944.420	722.274
159.848	14.198	944.066	722.315
160.862	14.174	943.424	721.654
161.877	14.239	942.092	720.853
162.892	14.073	941.901	719.926
163.906	14.100	940.329	718.774
164.921	14.015	939.638	717.819
165.935	14.058	938.698	717.221
166.950	14.064	937.644	716.376
167.964	14.140	936.895	716.069
168.979	13.980	935.751	714.446
169.994	14.045	934.796	713.930
171.008	14.005	934.097	713.164
172.023	14.104	933.195	712.836
173.037	14.265	932.504	712.933
174.052	14.221	931.668	712.041
175.067	14.110	931.181	711.134
176.081	14.209	930.232	710.768
177.096	13.978	929.652	709.277
178.110	14.108	928.540	708.921
179.125	14.012	928.134	708.139
180.140	14.177	927.114	708.001
181.154	14.197	926.777	707.764
182.169	14.155	925.969	706.908
183.183	14.219	925.439	706.709
184.198	14.328	924.421	706.332
185.213	14.263	924.183	705.814
186.227	14.405	923.537	705.859
187.242	14.220	923.026	704.621
188.256	14.350	922.493	704.703
189.271	14.588	921.499	704.888
190.286	14.490	920.766	703.849
191.300	14.233	919.955	702.084
192.315	14.117	919.172	700.936
193.329	14.154	918.177	700.272
194.344	14.083	917.582	699.456
195.359	14.028	917.647	699.214
196.373	14.235	916.460	699.117
197.388	14.265	916.177	698.964
198.402	14.423	915.803	699.280
199.417	14.505	915.487	699.320
200.432	14.510	914.972	698.887
201.446	14.531	914.452	698.515
202.461	14.709	913.981	698.837
203.475	14.799	913.430	698.731
204.490	14.687	912.923	697.813
205.504	14.610	911.822	696.588
206.519	14.692	910.777	696.070
207.534	14.519	910.145	694.807
208.548	14.571	909.611	694.553
209.563	14.539	909.200	694.046
210.577	14.607	908.064	693.401
211.592	14.581	907.755	692.992
212.607	14.613	907.293	692.715
213.621	14.622	906.817	692.323
214.636	14.771	905.721	692.046
215.650	14.618	905.313	691.039
216.665	14.730	904.748	691.008
217.680	14.704	903.911	690.200
218.694	14.830	903.282	690.181
219.709	14.911	902.995	690.235
220.723	14.786	902.502	689.282
221.738	14.799	901.515	688.521
222.753	14.829	900.684	687.949
223.767	14.652	900.282	686.853
224.782	14.777	899.480	686.694
225.796	14.992	898.681	686.902
226.811	15.003	897.973	686.346
227.826	14.921	897.432	685.535
228.840	14.792	897.020	684.635
229.855	14.833	896.474	684.324
230.869	14.746	895.899	683.470
231.884	14.982	894.885	683.600
232.899	14.843	893.935	682.243
233.913	14.754	893.266	681.311
234.928	14.811	892.624	680.992
235.942	14.715	892.183	680.207
236.957	14.846	891.653	680.276
237.972	14.740	891.044	679.320
238.986	14.807	890.075	678.794
240.001	14.763	889.738	678.298
241.015	14.767	888.918	677.627
242.030	14.879	888.138	677.426
243.045	14.940	887.216	676.911
244.059	14.953	886.926	676.681
245.074	15.015	886.221	676.333
246.088	15.070	885.263	675.766
247.103	15.196	884.783	675.849
248.117	15.155	884.398	675.328
249.132	15.273	883.710	675.220
250.147	15.261	883.495	674.945
251.161	15.388	882.864	674.916
252.176	15.493	881.867	674.517
253.190	15.363	881.491	673.644
254.205	15.359	881.334	673.451
255.220	15.535	880.375	673.366
256.234	15.462	879.403	672.267
257.249	15.399	878.714	671.431
258.263	15.627	878.309	671.974
259.278	15.460	877.959	670.980
260.293	15.250	877.749	669.922
261.307	15.585	876.905	670.555
262.322	15.443	876.407	669.547
263.336	15.601	875.684	669.564
264.351	15.589	875.130	669.036
265.366	15.584	874.622	668.568
266.380	15.782	873.730	668.613
267.395	15.635	873.538	667.822
268.409	15.655	872.395	666.971
269.424	15.596	871.741	666.175
270.439	15.672	870.937	665.803
271.453	15.686	870.268	665.290
272.468	15.595	869.313	664.139
273.482	15.545	868.906	663.572
274.497	15.742	868.182	663.738
275.512	15.680	867.664	663.039
276.526	15.622	866.871	662.148
277.541	15.681	866.378	661.942
278.555	15.645	865.948	661.417
279.570	15.784	865.202	661.334
280.585	15.801	864.738	660.985
281.599	15.845	864.298	660.765
282.614	15.759	863.780	659.973
283.628	15.757	863.058	659.355
284.643	15.833	862.000	658.784
285.657	15.747	861.580	658.071
286.672	15.764	861.227	657.807
287.687	15.966	860.511	657.995
288.701	15.813	860.367	657.227
289.716	15.822	860.145	657.034
290.730	15.764	859.318	656.118
291.745	15.962	858.257	656.022
292.760	15.994	857.593	655.581
293.774	15.842	856.776	654.309
294.789	16.062	856.667	655.022
295.803	16.163	855.632	654.563
296.818	15.886	855.518	653.344
297.833	16.003	854.767	653.167
298.847	15.937	854.168	652.395
299.862	15.935	853.299	651.666
300.876	15.934	852.813	651.231
301.891	15.983	852.342	651.004
302.906	16.091	851.454	650.687
303.920	16.179	850.587	650.305
304.935	16.188	850.287	650.052
305.949	16.371	849.717	650.264
306.964	16.357	848.997	649.600
307.979	16.238	848.408	648.636
308.993	16.188	848.003	648.075
310.008	16.164	847.563	647.590
311.022	16.237	846.883	647.294
312.037	16.231	846.602	646.998
313.052	16.298	845.729	646.532
314.066	16.222	845.224	645.796
315.081	16.137	844.617	644.952
316.095	16.113	844.206	644.489
317.110	16.282	843.443	644.494
318.125	16.214	842.854	643.727
319.139	16.088	842.742	643.105
320.154	16.112	842.189	642.718
321.168	16.116	841.530	642.173
322.183	16.203	840.952	642.007
323.197	16.235	840.458	641.694
324.212	16.274	839.958	641.402
325.227	16.156	839.416	640.483
326.241	16.231	838.947	640.354
327.256	16.402	838.188	640.365
328.270	16.367	837.158	639.392
329.285	16.262	836.768	638.639
330.300	16.199	836.427	638.084
331.314	16.288	835.758	637.855
332.329	16.353	835.348	637.730
333.343	16.408	834.602	637.313
334.358	16.362	834.231	636.799
335.373	16.237	833.768	635.918
336.387	16.448	833.384	636.364
337.402	16.526	832.406	635.854
338.416	16.548	831.869	635.469
339.431	16.617	831.349	635.276
340.446	16.594	830.938	634.816
341.460	16.729	830.357	634.822
342.475	16.731	829.820	634.365
343.489	16.676	829.240	633.659
344.504	16.776	828.769	633.618
345.519	16.827	827.848	633.047
346.533	16.815	827.386	632.595
347.548	16.836	827.088	632.388
348.562	16.616	826.724	631.234
349.577	16.690	825.946	630.857
350.592	16.713	825.504	630.554
351.606	16.725	825.062	630.202
352.621	16.677	824.498	629.539
353.635	16.741	824.024	629.356
354.650	16.901	823.693	629.645
355.665	16.756	823.316	628.760
356.679	16.853	822.789	628.663
357.694	16.826	822.475	628.266
358.708	16.651	821.978	627.186
359.723	16.969	820.996	627.556
360.738	16.963	820.478	627.081
361.752	16.816	820.110	626.201
362.767	16.819	820.003	626.077
363.781	17.000	819.401	626.231
364.796	16.978	819.115	625.874
365.810	17.074	818.511	625.712
366.825	17.126	818.156	625.576
367.840	17.158	817.908	625.449
368.854	17.042	817.680	624.792
369.869	17.011	816.714	623.885
370.883	17.001	816.347	623.513
371.898	16.954	816.122	623.112
372.913	17.016	815.604	622.890
373.927	17.098	814.857	622.564
374.942	17.138	814.132	622.102
375.956	17.073	813.220	621.114
376.971	17.227	812.927	621.396
377.986	17.244	812.441	621.033
379.000	17.320	811.812	620.773
380.015	17.246	811.453	620.174
381.029	17.309	810.957	619.972
382.044	17.315	810.263	619.406
383.059	17.332	809.341	618.709
384.073	17.396	809.155	618.744
385.088	17.299	809.045	618.253
386.102	17.327	807.886	617.414
387.117	17.220	807.091	616.364
388.132	17.167	807.216	616.213
389.146	17.318	806.610	616.242
390.161	17.261	806.217	615.683
391.175	17.288	805.886	615.474
392.190	17.429	805.378	615.539
393.205	17.566	805.005	615.697
394.219	17.219	804.891	614.300
395.234	17.216	804.518	613.951
396.248	17.354	803.621	613.709
397.263	17.233	802.929	612.690
398.278	17.190	802.184	611.915
399.292	17.232	801.946	611.827
400.307	17.135	801.861	611.361
401.321	17.365	801.284	611.693
402.336	17.323	800.937	611.222
403.350	17.493	800.278	611.276
404.365	17.468	800.273	611.128
405.380	17.502	799.535	610.633
406.394	17.521	799.017	610.251
407.409	17.665	798.424	610.260
408.423	17.651	798.182	609.973
409.438	17.738	797.782	609.923
410.453	17.774	797.421	609.722
411.467	17.776	796.910	609.286
412.482	17.773	796.564	608.954
413.496	17.808	796.073	608.652
414.511	17.842	795.761	608.479
415.526	17.868	795.096	608.010
416.540	17.792	795.048	607.648
417.555	17.847	794.459	607.342
418.569	17.752	794.034	606.625
419.584	17.832	793.284	606.282
420.599	17.816	793.225	606.125
421.613	151.436	1368.217	1788.015
422.628	130.940	1451.996	1788.130
