DTS Sentinel unit serial number:	SN413079Multiplexer serial number:	ORYXHardware model number:	OX4-SRSoftware version number:	ORYX F/W v4.00 Oryx Data Collector v3.7.2.0data status	okinstallation	princeton_trtdifferential loss correction	single-endedforward channel	channel 3reverse channel	N/Adate	2019/09/12time	18:31:04forward acquisition time	15.00reverse acquisition time	0.00gamma	496.2192k internal	0.2318k external	0.2318temperature offset calibration	1.0098default loss term (dB/km)	0.3790temperature slope calibration	1.0000multiplexer offset coefficient	1.0000multiplexer slope coefficient	1.0000fibre end	0.00T internal ref (°C)	33.25T ext. ref 1 (°C)	2.95T ext. ref 2 (°C)	27.86length (m)	temperature (°C)	Stokes	anti-Stokes-747.200	204.453	-0.122	0.192
-746.185	800.000	0.279	0.823
-745.171	-30.725	0.433	0.248
-744.156	-7.663	-0.240	-0.164
-743.142	-29.046	0.751	0.436
-742.127	-200.000	0.045	0.587
-741.112	212.848	0.206	0.330
-740.098	67.559	-0.074	-0.077
-739.083	-75.048	0.544	0.197
-738.069	-200.000	0.061	0.303
-737.054	617.460	0.142	0.361
-736.039	207.296	-0.046	0.073
-735.025	322.455	-0.089	0.171
-734.010	35.222	-0.384	-0.341
-732.996	-200.000	0.191	-0.942
-731.981	93.009	0.250	0.286
-730.966	-80.006	0.881	-0.299
-729.952	171.235	-0.392	-0.569
-728.937	-76.513	-0.298	-0.106
-727.923	106.615	-0.553	-0.663
-726.908	-84.913	-0.518	0.165
-725.894	-157.800	-0.320	0.019
-724.879	-34.997	0.514	0.284
-723.864	246.564	-0.066	0.113
-722.850	-171.709	-0.255	0.008
-721.835	8.372	0.530	0.403
-720.821	-123.977	0.256	0.041
-719.806	-43.470	0.302	-0.154
-718.791	278.979	-0.340	-0.613
-717.777	-114.291	0.176	0.034
-716.762	40.598	-0.462	0.421
-715.748	-81.826	0.547	-0.181
-714.733	800.000	0.140	-0.581
-713.718	183.359	0.273	-0.408
-712.704	-81.438	-0.149	-0.050
-711.689	213.950	-0.292	0.468
-710.675	-87.804	-0.363	-0.111
-709.660	-140.585	0.591	0.062
-708.645	800.000	-0.145	-0.538
-707.631	-151.375	0.548	-0.041
-706.616	800.000	-0.181	-0.646
-705.602	19.275	0.467	-0.379
-704.587	-200.000	0.111	0.582
-703.572	23.772	-0.714	0.594
-702.558	800.000	0.146	-0.413
-701.543	108.374	0.257	0.309
-700.529	103.623	-0.475	0.564
-699.514	-114.560	-0.152	0.029
-698.499	-178.043	-0.789	0.019
-697.485	98.904	-0.365	0.425
-696.470	-200.000	0.110	-0.525
-695.456	5.675	-0.548	-0.409
-694.441	89.871	-0.105	0.118
-693.426	-158.395	0.145	-0.009
-692.412	-17.752	-0.526	0.334
-691.397	-96.689	-0.392	0.104
-690.383	800.000	0.347	-1.020
-689.368	-99.381	-0.372	0.095
-688.354	-200.000	0.011	0.425
-687.339	-84.001	0.357	0.115
-686.324	-8.795	0.483	0.327
-685.310	800.000	-0.213	0.607
-684.295	-150.206	0.671	0.052
-683.281	-187.348	0.159	-0.002
-682.266	-24.312	-0.420	0.253
-681.251	394.984	-0.387	0.814
-680.237	-152.768	-0.742	0.053
-679.222	-25.955	0.364	-0.217
-678.208	-54.508	0.728	0.333
-677.193	270.238	-0.313	-0.556
-676.178	-47.205	-0.661	0.325
-675.164	-9.287	-0.900	-0.607
-674.149	-8.806	-0.489	-0.331
-673.135	-88.142	-0.545	-0.165
-672.120	-137.163	0.795	0.092
-671.105	285.332	-0.282	0.514
-670.091	16.221	-0.958	0.763
-669.076	-50.800	0.749	-0.355
-668.062	-129.422	0.491	0.069
-667.047	-12.482	-0.177	0.116
-666.032	800.000	-0.227	0.992
-665.018	-26.123	0.792	0.470
-664.003	-26.421	-0.337	0.200
-662.989	100.810	-0.760	-0.891
-661.974	33.208	-0.485	-0.425
-660.959	47.899	0.640	-0.603
-659.945	8.395	0.409	0.310
-658.930	-200.000	-0.116	-1.242
-657.916	-143.430	-0.091	0.009
-656.901	-35.088	-0.573	0.315
-655.886	146.666	0.251	0.340
-654.872	-78.333	0.130	-0.045
-653.857	550.243	-0.265	-0.640
-652.843	-200.000	-0.012	0.380
-651.828	-93.243	1.319	-0.370
-650.814	107.379	-0.633	0.759
-649.799	800.000	0.181	0.757
-648.784	800.000	0.155	-0.446
-647.770	800.000	-0.129	-0.364
-646.755	-200.000	-0.021	0.707
-645.741	-63.188	-0.523	0.217
-644.726	92.751	0.454	0.517
-643.711	264.062	0.083	0.146
-642.697	-56.809	0.105	0.047
-641.682	-76.201	-0.615	0.219
-640.668	151.252	-0.080	-0.110
-639.653	-33.162	0.559	-0.313
-638.638	44.278	0.299	-0.277
-637.624	685.144	0.098	-0.258
-636.609	800.000	0.142	-0.477
-635.595	-30.097	-0.394	0.226
-634.580	-65.997	-0.702	0.283
-633.565	-25.598	0.135	-0.080
-632.551	-200.000	-0.007	-0.183
-631.536	731.917	0.192	-0.518
-630.522	332.848	-0.182	-0.355
-629.507	394.947	0.336	-0.706
-628.492	236.008	-0.652	-1.086
-627.478	-106.919	-0.566	-0.126
-626.463	-53.158	0.586	0.271
-625.449	233.358	0.085	0.141
-624.434	-139.537	-0.176	0.019
-623.419	365.738	0.256	-0.519
-622.405	240.239	0.050	-0.084
-621.390	131.124	-0.361	-0.467
-620.376	-200.000	0.003	-0.341
-619.361	17.919	0.424	0.340
-618.346	-143.198	-0.282	0.027
-617.332	-200.000	0.092	0.479
-616.317	800.000	0.149	0.471
-615.303	-27.617	0.217	0.127
-614.288	-78.342	-0.382	-0.132
-613.273	-32.535	-0.684	-0.384
-612.259	425.852	-0.266	0.577
-611.244	-19.017	-0.374	0.234
-610.230	-93.934	-0.448	0.124
-609.215	233.974	0.204	0.338
-608.201	170.738	-0.195	-0.281
-607.186	-100.670	0.288	-0.071
-606.171	-31.718	0.412	-0.233
-605.157	408.060	-0.139	-0.295
-604.142	-101.554	-0.237	-0.058
-603.128	-101.120	-0.459	0.113
-602.113	-80.645	0.200	0.067
-601.098	-200.000	-0.052	-0.236
-600.084	800.000	-0.159	0.541
-599.069	10.211	-0.930	-0.712
-598.055	800.000	-0.193	0.553
-597.040	-96.170	0.587	-0.157
-596.025	-174.088	0.974	-0.029
-595.011	-200.000	0.014	-0.208
-593.996	-5.855	0.537	0.370
-592.982	271.400	-0.344	0.610
-591.967	-115.493	-0.510	-0.097
-590.952	392.157	-0.324	-0.677
-589.938	665.160	0.278	-0.722
-588.923	800.000	-0.099	-0.391
-587.909	-0.887	-0.945	-0.673
-586.894	350.378	-0.190	0.378
-585.879	416.259	0.253	-0.544
-584.865	-89.710	0.283	0.083
-583.850	800.000	-0.150	-0.467
-582.836	-200.000	0.004	-0.386
-581.821	198.555	0.287	-0.442
-580.806	800.000	0.207	-0.629
-579.792	388.177	0.150	-0.312
-578.777	258.764	-0.577	-0.999
-577.763	148.790	-0.424	0.577
-576.748	-200.000	-0.033	0.328
-575.733	800.000	-0.126	-0.386
-574.719	697.068	-0.082	-0.217
-573.704	-200.000	-0.020	0.428
-572.690	-136.580	-0.456	0.053
-571.675	75.626	-0.470	-0.499
-570.661	800.000	0.045	-0.158
-569.646	-200.000	-0.230	1.501
-568.631	-200.000	0.004	0.133
-567.617	66.243	1.223	1.248
-566.602	-100.083	-0.599	0.150
-565.588	-122.460	-0.284	-0.046
-564.573	39.245	-0.327	-0.295
-563.558	-116.740	-0.650	0.120
-562.544	201.998	0.405	-0.628
-561.529	-60.453	0.488	0.208
-560.515	11.544	0.341	-0.263
-559.500	-73.090	0.413	-0.152
-558.485	286.121	0.329	-0.597
-557.471	-101.979	1.034	-0.251
-556.456	111.581	0.426	0.517
-555.442	-200.000	-0.176	-0.912
-554.427	-200.000	0.024	0.160
-553.412	-200.000	0.044	0.426
-552.398	-200.000	-0.036	0.309
-551.383	-104.183	0.490	-0.114
-550.369	721.210	0.185	0.494
-549.354	-200.000	-0.180	1.172
-548.339	112.743	-0.361	-0.439
-547.325	200.993	0.227	0.350
-546.310	57.560	-0.287	-0.281
-545.296	458.385	-0.178	-0.398
-544.281	65.425	0.397	0.403
-543.266	-200.000	0.041	1.080
-542.252	-15.195	0.526	0.338
-541.237	-163.597	0.691	0.033
-540.223	421.321	-0.296	0.638
-539.208	-200.000	0.092	-0.714
-538.193	92.112	-0.136	-0.153
-537.179	-190.062	-1.147	0.013
-536.164	334.863	0.331	-0.644
-535.150	33.475	-0.454	-0.396
-534.135	164.436	-0.324	-0.459
-533.121	136.115	-0.209	-0.273
-532.106	42.360	-0.616	0.563
-531.091	-127.597	0.238	-0.035
-530.077	326.538	-0.107	-0.206
-529.062	305.492	0.166	0.310
-528.048	-200.000	0.007	-0.314
-527.033	-140.565	-0.799	0.083
-526.018	-8.809	0.597	0.402
-525.004	-84.250	-0.430	0.137
-523.989	405.040	-0.197	0.416
-522.975	-83.555	0.334	0.107
-521.960	55.923	-0.423	-0.412
-520.945	-200.000	0.109	-0.673
-519.931	115.056	0.243	0.298
-518.916	356.780	0.012	0.024
-517.902	-66.028	0.081	-0.033
-516.887	343.085	-0.028	-0.056
-515.872	241.386	-0.595	0.996
-514.858	-71.699	-0.434	-0.162
-513.843	223.183	0.197	-0.318
-512.829	47.658	0.207	-0.194
-511.814	29.615	0.683	0.583
-510.799	80.291	-0.170	-0.183
-509.785	-60.086	0.176	0.075
-508.770	403.325	0.169	0.356
-507.756	11.155	0.167	-0.128
-506.741	-79.867	0.709	0.239
-505.726	-200.000	0.122	-0.607
-504.712	464.414	-0.264	-0.591
-503.697	261.512	-0.092	-0.160
-502.683	-151.460	-0.529	-0.039
-501.668	252.969	0.208	-0.357
-500.653	417.834	0.206	-0.441
-499.639	-200.000	-0.038	0.168
-498.624	281.873	-0.246	-0.442
-497.610	-139.293	1.011	-0.109
-496.595	18.062	0.456	-0.364
-495.581	300.687	-0.341	-0.631
-494.566	357.819	0.343	-0.686
-493.551	-200.000	0.660	0.001
-492.537	129.140	0.471	0.603
-491.522	-15.630	-0.284	0.181
-490.508	-53.566	-0.435	0.200
-489.493	800.000	0.352	1.101
-488.478	215.692	-0.427	-0.680
-487.464	-130.376	-0.207	0.028
-486.449	26.287	-0.218	-0.182
-485.435	-117.577	-0.305	0.055
-484.420	-79.836	-0.463	-0.156
-483.405	-200.000	0.026	-0.274
-482.391	-200.000	-0.108	-0.605
-481.376	-200.000	-0.079	-0.392
-480.362	800.000	0.068	-0.218
-479.347	86.629	0.233	0.257
-478.332	-61.088	0.792	0.335
-477.318	-55.168	-0.152	-0.068
-476.303	37.335	-0.422	-0.374
-475.289	800.000	0.141	0.436
-474.274	-31.700	-0.070	0.039
-473.259	800.000	0.079	0.231
-472.245	293.838	0.481	-0.880
-471.230	248.969	0.031	-0.053
-470.216	800.000	-0.094	0.307
-469.201	69.066	-0.146	-0.150
-468.186	122.974	-0.486	-0.609
-467.172	395.143	0.308	0.644
-466.157	-164.516	-0.150	-0.007
-465.143	532.913	-0.218	-0.516
-464.128	-15.881	-0.576	0.367
-463.113	-200.000	-0.092	0.416
-462.099	-145.318	0.707	-0.064
-461.084	216.032	-0.720	-1.145
-460.070	545.077	0.196	0.470
-459.055	186.740	0.261	0.389
-458.040	-200.000	-0.036	0.299
-457.026	-200.000	0.010	0.247
-456.011	50.435	-0.498	0.471
-454.997	76.639	0.137	-0.145
-453.982	33.906	-0.520	-0.453
-452.968	-117.466	-0.542	-0.098
-451.953	53.981	-0.175	-0.168
-450.938	-68.905	0.457	0.177
-449.924	328.135	0.430	0.826
-448.909	-155.183	-0.198	0.013
-447.895	-200.000	-0.108	0.477
-446.880	324.350	-0.222	-0.424
-445.865	-73.346	-0.496	0.182
-444.851	-120.266	0.434	-0.074
-443.836	-117.860	0.222	-0.040
-442.822	7.144	0.560	0.418
-441.807	481.524	0.192	-0.437
-440.792	-200.000	0.050	-0.349
-439.778	800.000	0.299	-0.883
-438.763	139.777	0.208	-0.274
-437.749	-110.628	-0.212	-0.044
-436.734	409.200	-0.281	-0.595
-435.719	-70.060	-0.774	0.294
-434.705	-200.000	-0.100	0.698
-433.690	136.116	-0.287	-0.374
-432.676	-40.360	-0.718	0.373
-431.661	385.954	0.252	0.521
-430.646	-139.099	0.602	-0.065
-429.632	-27.861	0.467	0.271
-428.617	-191.766	0.756	-0.007
-427.603	-200.000	-0.059	0.390
-426.588	75.582	-0.551	0.582
-425.573	800.000	-0.217	-0.829
-424.559	-78.239	-0.405	0.139
-423.544	21.710	0.385	-0.314
-422.530	-200.000	-0.036	0.731
-421.515	800.000	0.027	0.114
-420.500	430.254	0.219	0.474
-419.486	-162.254	0.425	-0.021
-418.471	318.595	-0.333	-0.631
-417.457	-50.096	-0.750	-0.355
-416.442	61.737	0.605	-0.602
-415.428	-131.533	0.749	0.099
-414.413	217.485	-0.384	-0.611
-413.398	-200.000	0.051	-0.333
-412.384	41.459	0.429	0.388
-411.369	-200.000	-0.168	-0.845
-410.355	-3.259	0.863	0.601
-409.340	66.803	0.117	-0.119
-408.325	-200.000	-0.041	0.254
-407.311	75.851	-0.259	0.273
-406.296	800.000	-0.275	-0.766
-405.282	-14.342	0.301	0.193
-404.267	350.408	-0.274	-0.542
-403.252	258.296	-0.292	0.502
-402.238	-56.927	0.526	0.232
-401.223	253.946	-0.226	0.385
-400.209	800.000	-0.022	-0.083
-399.194	-30.429	-0.383	-0.217
-398.179	-184.691	-0.404	0.006
-397.165	78.995	0.323	-0.346
-396.150	-104.563	0.650	-0.150
-395.136	-35.656	0.442	0.239
-394.121	-116.339	0.449	-0.083
-393.106	-145.620	-0.809	-0.072
-392.092	-134.921	-0.711	-0.086
-391.077	-30.992	-0.607	0.342
-390.063	21.620	-0.142	-0.115
-389.048	-137.909	0.326	0.036
-388.033	-55.819	0.457	0.204
-387.019	-82.529	0.689	0.223
-386.004	25.118	-0.346	-0.287
-384.990	800.000	0.092	0.293
-383.975	280.584	-0.108	0.193
-382.960	410.342	0.111	-0.234
-381.946	81.047	-0.210	0.226
-380.931	-200.000	-0.087	0.791
-379.917	61.303	-0.432	0.428
-378.902	-200.000	0.055	0.588
-377.888	-200.000	-0.013	0.719
-376.873	333.375	0.326	0.629
-375.858	-139.003	0.318	-0.034
-374.844	125.281	-0.329	0.414
-373.829	800.000	0.129	0.409
-372.815	-108.729	0.322	0.069
-371.800	36.259	0.177	-0.156
-370.785	-200.000	-0.717	-0.001
-369.771	259.544	0.156	-0.268
-368.756	-200.000	0.045	-0.393
-367.742	800.000	0.142	-0.604
-366.727	-132.706	0.574	0.073
-365.712	-29.933	0.630	0.358
-364.698	-90.209	-0.037	0.011
-363.683	-127.836	0.882	0.127
-362.669	192.351	0.222	0.334
-361.654	-80.362	0.104	-0.035
-360.639	-73.198	-0.528	0.193
-359.625	-200.000	-0.019	-1.030
-358.610	-100.965	1.130	0.277
-357.596	800.000	0.118	0.389
-356.581	-200.000	0.031	-0.171
-355.566	50.766	-0.553	0.522
-354.552	163.025	0.252	-0.353
-353.537	118.166	0.280	-0.344
-352.523	-88.783	-0.400	0.118
-351.508	-65.724	-0.388	-0.155
-350.493	-46.342	-0.302	-0.148
-349.479	612.850	-0.052	-0.130
-348.464	800.000	-0.105	-0.344
-347.450	-200.000	-0.091	0.831
-346.435	722.932	0.049	0.129
-345.420	-75.053	-0.454	-0.162
-344.406	-98.182	-1.295	0.332
-343.391	800.000	0.213	0.849
-342.377	800.000	-0.090	-0.387
-341.362	-200.000	-0.008	-0.719
-340.348	-55.828	-0.592	0.264
-339.333	96.938	0.595	0.680
-338.318	-200.000	0.193	-0.910
-337.304	-115.643	0.732	-0.137
-336.289	-106.719	0.499	0.110
-335.275	800.000	-0.118	0.336
-334.260	-200.000	-0.072	-0.331
-333.245	-200.000	-0.080	0.407
-332.231	-130.110	0.143	-0.019
-331.216	-200.000	-0.016	-0.242
-330.202	-50.238	0.782	0.368
-329.187	157.070	0.554	0.763
-328.172	-98.508	0.621	0.158
-327.158	-120.658	0.217	0.037
-326.143	4.851	-0.811	-0.593
-325.129	110.375	-0.197	-0.236
-324.114	800.000	-0.122	0.398
-323.099	-80.713	-0.978	-0.324
-322.085	-34.062	0.231	-0.127
-321.070	-71.704	0.157	-0.058
-320.056	220.292	-0.319	-0.509
-319.041	-194.702	-0.654	-0.005
-318.026	-119.711	0.248	-0.043
-317.012	654.410	0.208	0.532
-315.997	800.000	0.229	0.728
-314.983	-4.450	-0.642	0.441
-313.968	-200.000	0.011	0.590
-312.953	-52.336	-0.665	0.307
-311.939	398.021	0.345	0.719
-310.924	6.919	-0.299	0.222
-309.910	-200.000	-0.008	-0.235
-308.895	-199.650	0.260	-0.001
-307.880	297.248	-0.561	1.025
-306.866	-21.695	0.340	0.206
-305.851	0.564	-0.217	-0.154
-304.837	73.426	0.411	0.428
-303.822	176.924	0.159	0.230
-302.807	-103.644	0.343	0.080
-301.793	-166.924	-0.285	-0.012
-300.778	-92.755	-0.706	0.197
-299.764	-200.000	-0.068	-0.358
-298.749	570.519	-0.129	0.313
-297.735	-104.456	0.290	0.067
-296.720	225.745	0.276	-0.445
-295.705	-86.949	0.319	0.097
-294.691	-96.943	0.386	0.101
-293.676	584.661	-0.126	0.308
-292.662	158.505	0.618	-0.853
-291.647	9.694	0.434	-0.327
-290.632	-200.000	0.070	0.691
-289.618	55.458	0.666	0.641
-288.603	-65.543	-0.624	-0.249
-287.589	-200.000	0.073	0.322
-286.574	206.299	0.118	-0.183
-285.559	-200.000	0.081	-0.691
-284.545	13.848	-0.203	0.157
-283.530	-117.750	-0.340	0.061
-282.516	-130.643	-0.733	0.098
-281.501	-57.636	0.160	0.070
-280.486	-78.964	0.742	0.251
-279.472	516.229	0.166	-0.386
-278.457	494.151	-0.044	0.100
-277.443	-116.799	-0.223	-0.041
-276.428	-200.000	0.034	0.505
-275.413	340.265	0.223	-0.432
-274.399	-17.632	-0.226	-0.141
-273.384	116.503	-0.259	0.316
-272.370	190.186	0.609	-0.909
-271.355	150.495	-0.278	0.375
-270.340	-94.264	0.276	-0.075
-269.326	-200.000	0.210	-1.055
-268.311	189.362	0.126	-0.188
-267.297	227.448	0.411	0.663
-266.282	246.364	0.648	1.085
-265.267	-118.392	0.249	-0.044
-264.253	-69.605	0.204	0.078
-263.238	-88.154	-0.561	0.167
-262.224	-200.000	0.021	-0.314
-261.209	-33.863	0.426	0.233
-260.195	-200.000	0.053	-0.263
-259.180	180.337	0.339	-0.493
-258.165	-200.000	-0.098	0.928
-257.151	-15.453	-0.106	0.067
-256.136	-16.630	-0.670	0.421
-255.122	-60.611	0.680	0.286
-254.107	800.000	0.315	0.949
-253.092	-162.771	-0.474	0.023
-252.078	-16.074	0.126	0.080
-251.063	67.122	-0.579	0.586
-250.049	-81.368	1.018	-0.333
-249.034	-78.215	-0.505	0.172
-248.019	279.315	0.082	0.146
-247.005	47.178	-0.757	0.699
-245.990	-200.000	-0.067	0.530
-244.976	-85.870	-0.829	0.255
-243.961	-111.476	0.121	-0.024
-242.946	296.585	0.260	-0.473
-241.932	800.000	-0.033	0.095
-240.917	-32.984	1.031	-0.568
-239.903	-103.697	-0.275	-0.064
-238.888	-28.344	0.015	-0.009
-237.873	-92.671	-0.167	-0.047
-236.859	-200.000	-0.594	0.003
-235.844	45.418	-0.443	-0.406
-234.830	-124.947	0.507	-0.077
-233.815	-67.351	-0.960	-0.374
-232.800	246.210	-0.189	0.316
-231.786	800.000	0.209	-0.764
-230.771	-73.997	-1.016	0.365
-229.757	97.562	0.160	0.182
-228.742	4.224	0.509	-0.369
-227.727	-178.135	-0.727	0.017
-226.713	-76.975	-0.231	0.080
-225.698	800.000	0.228	-0.804
-224.684	34.332	0.143	-0.124
-223.669	-81.368	0.172	0.056
-222.655	166.682	-0.111	-0.156
-221.640	122.666	0.376	-0.466
-220.625	613.499	0.245	-0.607
-219.611	-44.194	-0.417	0.207
-218.596	-52.131	-0.250	0.115
-217.582	155.269	-0.112	-0.152
-216.567	359.148	-0.234	0.463
-215.552	20.932	-0.343	0.276
-214.538	-36.703	0.846	0.450
-213.523	102.290	0.591	-0.684
-212.509	-164.227	0.465	-0.021
-211.494	95.483	0.372	-0.420
-210.479	-200.000	-0.010	-0.435
-209.465	139.150	-0.299	-0.390
-208.450	204.641	-0.348	0.534
-207.436	-65.535	0.266	-0.106
-206.421	-200.000	0.144	-0.656
-205.406	-174.861	-0.730	-0.020
-204.392	-62.955	-0.405	0.166
-203.377	800.000	0.076	-0.304
-202.363	-20.684	0.581	-0.353
-201.348	20.177	-0.770	0.616
-200.333	-70.860	0.087	0.032
-199.319	362.141	-0.084	0.168
-198.304	-79.222	0.260	-0.087
-197.290	162.617	-0.420	0.584
-196.275	-78.065	-0.798	-0.272
-195.260	759.427	-0.302	0.810
-194.246	-76.549	-0.553	0.192
-193.231	-10.633	0.525	0.344
-192.217	-126.310	1.056	0.156
-191.202	-105.936	-0.390	-0.087
-190.187	-176.407	0.587	0.015
-189.173	-200.000	-0.175	0.996
-188.158	390.469	0.337	0.693
-187.144	-61.936	-0.334	-0.138
-186.129	192.035	0.357	-0.533
-185.114	327.163	0.107	-0.204
-184.100	521.509	0.280	0.650
-183.085	-92.877	0.509	-0.141
-182.071	-88.421	-0.373	-0.110
-181.056	95.968	0.317	0.359
-180.042	-55.496	-0.173	0.077
-179.027	800.000	-0.287	-0.868
-178.012	264.766	-0.146	-0.252
-176.998	38.998	-0.055	0.048
-175.983	-110.170	0.935	-0.193
-174.969	-32.154	-0.384	-0.213
-173.954	325.405	0.408	0.772
-172.939	544.843	0.136	-0.322
-171.925	800.000	0.208	0.666
-170.910	-164.587	0.521	-0.023
-169.896	800.000	-0.082	0.268
-168.881	-86.640	0.312	0.095
-167.866	-42.879	-0.188	-0.095
-166.852	800.000	-0.126	-0.541
-165.837	-127.119	0.523	0.076
-164.823	-44.453	-0.599	0.297
-163.808	-200.000	0.116	-0.581
-162.793	-16.936	0.064	0.040
-161.779	-148.574	0.274	0.022
-160.764	800.000	-0.088	-0.358
-159.750	-200.000	-0.144	-0.981
-158.735	-18.500	-0.458	-0.283
-157.720	-36.511	-0.543	-0.289
-156.706	22.939	0.364	-0.295
-155.691	104.200	0.150	0.175
-154.677	-90.226	0.081	-0.023
-153.662	-200.000	-0.154	-0.899
-152.647	163.235	0.294	-0.408
-151.633	-154.413	-0.976	-0.065
-150.618	800.000	0.140	-0.515
-149.604	586.104	0.133	-0.325
-148.589	-200.000	0.098	0.437
-147.574	354.537	0.160	0.315
-146.560	48.837	-0.756	-0.701
-145.545	-56.386	-0.271	0.119
-144.531	-200.000	-0.061	-0.481
-143.516	151.153	-0.196	-0.264
-142.502	-39.618	0.621	-0.321
-141.487	263.930	0.121	-0.207
-140.472	37.952	-0.252	0.222
-139.458	-11.506	-0.149	0.097
-138.443	-70.741	-0.482	0.180
-137.429	-16.210	-0.231	-0.145
-136.414	-93.556	0.818	0.224
-135.399	134.436	-0.659	-0.845
-134.385	-200.000	0.168	-0.808
-133.370	28.186	0.561	-0.468
-132.356	-17.843	0.990	-0.614
-131.341	-74.640	-0.671	0.239
-130.326	518.211	0.201	0.464
-129.312	-119.312	0.659	-0.113
-128.297	164.571	0.112	0.156
-127.283	33.263	0.830	0.712
-126.268	200.101	-0.588	0.891
-125.253	-200.000	0.083	0.475
-124.239	632.705	0.199	0.498
-123.224	-200.000	0.078	0.717
-122.210	-98.852	0.299	0.075
-121.195	-168.400	0.236	0.009
-120.180	-65.507	-1.277	-0.506
-119.166	16.563	-0.396	-0.309
-118.151	-200.000	0.159	0.693
-117.137	800.000	-0.073	-0.261
-116.122	-116.572	0.106	-0.019
-115.107	100.276	-0.263	0.301
-114.093	402.254	0.281	0.583
-113.078	-200.000	0.054	0.589
-112.064	537.220	0.312	-0.733
-111.049	-121.574	0.715	-0.117
-110.034	-1.469	0.709	0.494
-109.020	-41.917	-0.157	-0.079
-108.005	-70.899	0.214	0.080
-106.991	55.988	0.365	-0.350
-105.976	-51.476	-0.522	-0.241
-104.962	-13.234	0.526	-0.337
-103.947	302.117	-0.577	1.053
-102.932	425.640	-0.151	-0.321
-101.918	-200.000	0.110	0.614
-100.903	223.860	0.347	-0.554
-99.889	-71.088	-0.182	0.067
-98.874	-151.993	0.587	0.042
-97.859	147.803	-0.354	-0.471
-96.845	-124.858	0.665	0.101
-95.830	-10.398	-0.159	-0.104
-94.816	-110.409	0.657	0.135
-93.801	800.000	0.184	0.597
-92.786	-75.295	-0.262	0.092
-91.772	-124.039	0.699	-0.108
-90.757	800.000	0.413	-1.250
-89.743	-152.940	-0.280	0.019
-88.728	800.000	-0.199	0.690
-87.713	-32.052	0.737	0.407
-86.699	235.281	-0.251	-0.409
-85.684	800.000	0.117	-0.448
-84.670	575.686	0.212	-0.510
-83.655	290.484	0.164	-0.294
-82.640	-200.000	-0.005	0.040
-81.626	-73.649	-0.393	0.141
-80.611	104.226	-0.229	-0.266
-79.597	-119.718	0.344	-0.059
-78.582	-108.437	1.100	-0.234
-77.567	-4.964	0.012	-0.008
-76.553	162.297	-0.264	-0.365
-75.538	-200.000	-0.130	0.612
-74.524	800.000	-0.011	0.037
-73.509	-94.186	-0.511	0.138
-72.494	-200.000	-0.214	1.114
-71.480	800.000	0.223	0.809
-70.465	-200.000	0.223	1.051
-69.451	-76.082	-0.454	-0.158
-68.436	-200.000	-0.047	-0.854
-67.422	1.521	-0.476	0.338
-66.407	364.559	-0.215	-0.427
-65.392	800.000	-0.009	0.030
-64.378	93.140	0.650	0.724
-63.363	27.306	-0.115	-0.095
-62.349	-186.575	0.426	0.006
-61.334	-10.053	-1.464	-0.958
-60.319	63.471	0.229	0.226
-59.305	281.010	0.383	-0.676
-58.290	533.534	0.424	0.990
-57.276	800.000	0.549	1.817
-56.261	-200.000	96.090	574.750
-55.246	647.695	1368.429	3446.405
-54.232	200.862	2533.751	3839.544
-53.217	118.200	2148.652	2609.961
-52.203	43.735	1697.869	1530.919
-51.188	36.451	1512.825	1314.680
-50.173	34.065	1485.766	1275.144
-49.159	54.500	1536.745	1458.622
-48.144	55.223	1555.145	1480.955
-47.130	36.626	1513.882	1316.582
-46.115	33.607	1498.730	1282.965
-45.100	33.315	1495.917	1278.533
-44.086	33.434	1494.574	1278.136
-43.071	33.166	1492.565	1274.562
-42.057	33.501	1490.077	1274.641
-41.042	33.327	1487.874	1271.539
-40.027	33.359	1487.025	1270.979
-39.013	33.334	1486.034	1269.912
-37.998	33.283	1483.912	1267.704
-36.984	33.031	1483.879	1265.941
-35.969	33.123	1482.643	1265.453
-34.954	33.436	1480.857	1265.966
-33.940	33.355	1479.213	1263.970
-32.925	33.402	1477.511	1262.784
-31.911	33.335	1476.703	1261.595
-30.896	33.183	1475.592	1259.585
-29.881	33.566	1474.160	1260.856
-28.867	33.310	1472.516	1257.700
-27.852	33.176	1471.306	1255.727
-26.838	33.281	1470.734	1255.883
-25.823	33.281	1468.683	1254.087
-24.809	33.320	1467.027	1252.879
-23.794	33.136	1465.902	1250.651
-22.779	33.462	1462.553	1249.895
-21.765	33.261	1462.874	1248.794
-20.750	33.235	1462.298	1248.084
-19.736	33.266	1461.550	1247.597
-18.721	33.322	1459.156	1245.876
-17.706	33.212	1459.526	1245.419
-16.692	33.283	1457.025	1243.702
-15.677	33.142	1457.069	1242.759
-14.663	33.318	1455.593	1242.608
-13.648	33.259	1455.118	1241.763
-12.633	33.305	1453.169	1240.352
-11.619	33.124	1454.015	1239.837
-10.604	33.198	1452.224	1238.747
-9.590	33.196	1451.029	1237.669
-8.575	33.092	1452.405	1238.110
-7.560	33.179	1450.155	1236.711
-6.546	33.211	1449.001	1235.888
-5.531	33.126	1447.850	1234.304
-4.517	32.954	1448.083	1233.328
-3.502	33.129	1446.704	1233.246
-2.487	33.143	1444.565	1231.463
-1.473	33.321	1442.874	1231.133
-0.458	33.105	1443.135	1229.903
0.556	34.284	1433.698	1219.320
1.571	31.094	1407.206	1176.601
2.586	27.360	1347.231	1103.754
3.600	25.806	1265.777	1028.067
4.615	24.063	1220.545	981.642
5.629	20.837	1162.845	918.178
6.644	11.560	1077.995	805.557
7.659	4.503	1036.565	740.970
8.673	3.061	1031.954	730.756
9.688	2.995	1028.715	728.086
10.702	2.570	1027.415	725.088
11.717	3.176	1024.480	725.812
12.731	6.455	1027.435	743.333
13.746	15.641	1040.923	796.759
14.761	23.210	1051.064	840.535
15.775	25.057	1054.087	851.664
16.790	25.139	1052.178	850.436
17.804	25.148	1051.550	849.896
18.819	25.026	1050.821	848.656
19.834	25.475	1049.760	849.846
20.848	25.207	1050.476	849.083
21.863	25.477	1049.068	849.146
22.877	25.508	1049.492	849.562
23.892	25.077	1048.488	846.639
24.907	24.924	1047.440	844.993
25.921	25.442	1046.403	846.523
26.936	25.227	1046.941	845.870
27.950	24.851	1044.981	842.443
28.965	24.904	1044.788	842.462
29.980	24.965	1043.309	841.481
30.994	24.793	1042.293	839.778
32.009	25.224	1040.607	840.364
33.023	25.280	1040.938	840.820
34.038	25.235	1039.219	839.146
35.053	25.293	1039.195	839.325
36.067	25.216	1037.540	837.556
37.082	25.425	1036.126	837.312
38.096	24.992	1037.049	835.966
39.111	25.210	1036.041	836.096
40.126	25.392	1034.738	835.816
41.140	25.396	1032.989	834.347
42.155	25.140	1031.751	832.087
43.169	24.713	1031.690	829.981
44.184	24.907	1029.628	829.150
45.199	25.017	1029.541	829.515
46.213	24.901	1028.950	828.427
47.228	24.686	1027.640	826.306
48.242	25.297	1027.093	828.614
49.257	25.268	1027.159	828.461
50.271	25.215	1025.874	827.110
51.286	25.266	1025.743	827.162
52.301	25.377	1023.416	825.724
53.315	25.313	1023.400	825.344
54.330	25.168	1022.685	824.029
55.344	25.241	1022.025	823.758
56.359	25.142	1021.122	822.506
57.374	25.275	1020.233	822.325
58.388	25.249	1018.706	820.902
59.403	25.537	1018.081	821.643
60.417	25.140	1018.154	819.816
61.432	24.881	1017.003	817.632
62.447	24.799	1016.918	817.117
63.461	25.050	1016.363	817.744
64.476	25.021	1015.738	817.035
65.490	25.177	1014.377	816.579
66.505	24.796	1013.363	813.958
67.520	24.833	1013.446	814.121
68.534	25.340	1012.010	815.199
69.549	24.926	1011.419	812.771
70.563	24.671	1010.625	810.903
71.578	24.842	1008.974	810.284
72.593	24.655	1008.165	808.716
73.607	24.241	1008.098	806.716
74.622	24.333	1007.912	806.913
75.636	24.467	1006.492	806.307
76.651	24.623	1004.742	805.539
77.666	24.913	1004.268	806.397
78.680	24.813	1002.414	804.383
79.695	24.723	1003.194	804.536
80.709	24.794	1002.325	804.087
81.724	24.961	1001.822	804.361
82.739	25.000	1000.130	803.107
83.753	24.801	1000.129	802.144
84.768	25.323	999.387	803.814
85.782	25.347	998.953	803.501
86.797	25.570	999.405	804.793
87.812	25.829	997.716	804.518
88.826	25.459	996.590	801.888
89.841	25.594	997.158	802.874
90.855	25.636	995.774	801.879
91.870	25.753	994.650	801.423
92.884	25.448	994.237	799.663
93.899	25.564	993.159	799.240
94.914	25.196	991.628	796.304
95.928	25.451	991.708	797.430
96.943	25.498	990.659	796.725
97.957	25.116	990.166	794.566
98.972	24.991	988.287	792.435
99.987	25.181	988.730	793.558
101.001	25.099	987.285	791.968
102.016	25.512	986.835	793.359
103.030	25.207	986.335	791.543
104.045	25.381	985.358	791.452
105.060	25.334	983.839	789.956
106.074	25.217	982.761	788.508
107.089	25.507	981.153	788.421
108.103	25.305	981.452	787.705
109.118	25.298	980.890	787.154
110.133	25.265	979.661	785.953
111.147	24.990	978.892	784.064
112.162	25.127	977.574	783.537
113.176	24.927	976.977	782.114
114.191	25.253	976.037	782.714
115.206	25.148	975.239	781.549
116.220	24.852	974.018	779.214
117.235	24.829	973.724	778.806
118.249	25.209	971.905	778.935
119.264	24.761	971.626	776.697
120.279	24.968	970.469	776.600
121.293	24.678	970.248	775.100
122.308	24.607	970.298	774.762
123.322	24.755	968.821	774.156
124.337	24.932	967.701	773.957
125.352	24.630	966.028	771.247
126.366	24.581	965.173	770.283
127.381	24.212	963.771	767.508
128.395	24.955	962.770	769.840
129.410	25.038	962.776	770.132
130.424	25.184	962.969	770.846
131.439	25.395	961.286	770.337
132.454	25.338	961.142	769.907
133.468	25.021	959.968	767.540
134.483	25.145	958.928	767.170
135.497	25.579	958.854	768.901
136.512	25.295	958.229	767.116
137.527	25.528	957.360	767.348
138.541	25.392	957.035	766.440
139.556	25.446	956.269	765.989
140.570	25.355	954.988	764.508
141.585	25.753	954.413	765.674
142.600	25.769	953.722	765.121
143.614	25.530	952.751	763.259
144.629	25.440	952.199	762.367
145.643	25.884	952.155	764.146
146.658	26.026	949.839	762.820
147.673	26.036	948.587	761.791
148.687	25.632	947.930	759.493
149.702	25.094	947.727	756.992
150.716	25.126	946.873	756.377
151.731	25.375	945.638	756.370
152.746	25.404	944.740	755.709
153.760	25.281	944.281	754.756
154.775	25.657	943.429	755.586
155.789	25.629	942.758	754.864
156.804	25.909	941.472	754.944
157.819	25.706	940.363	753.139
158.833	25.713	939.414	752.341
159.848	25.950	939.203	753.093
160.862	26.232	938.136	753.348
161.877	25.727	938.561	751.517
162.892	25.850	936.438	750.260
163.906	25.795	935.665	749.349
164.921	25.852	935.151	749.107
165.935	25.755	934.213	747.887
166.950	25.616	933.414	746.604
167.964	25.975	930.825	745.953
168.979	25.751	930.696	744.855
169.994	26.060	929.573	745.166
171.008	25.545	929.481	742.902
172.023	25.839	928.240	743.055
173.037	25.838	928.055	742.838
174.052	25.858	926.746	741.808
175.067	25.691	926.028	740.479
176.081	25.544	925.209	739.154
177.096	25.690	924.137	738.832
178.110	25.483	923.987	737.796
179.125	25.372	922.711	736.258
180.140	25.217	921.625	734.691
181.154	25.107	921.410	734.005
182.169	25.294	921.523	734.797
183.183	25.284	921.166	734.407
184.198	25.746	920.281	735.522
185.213	25.863	919.372	735.208
186.227	25.492	919.347	733.609
187.242	25.775	918.598	734.099
188.256	26.139	917.819	734.893
189.271	25.739	917.394	732.863
190.286	25.922	916.731	733.012
191.300	26.155	914.188	731.858
192.315	25.085	915.193	728.254
193.329	24.435	914.109	724.689
194.344	24.271	911.619	721.984
195.359	24.882	911.681	724.443
196.373	25.425	912.064	726.884
197.388	25.778	911.818	728.051
198.402	26.043	911.086	728.472
199.417	25.876	911.016	727.674
200.432	25.942	911.091	727.937
201.446	25.594	910.440	725.951
202.461	25.687	909.309	725.356
203.475	25.719	909.383	725.481
204.490	25.594	907.563	723.463
205.504	24.548	906.007	717.957
206.519	24.787	905.392	718.364
207.534	25.336	905.905	720.915
208.548	25.537	905.082	721.000
209.563	25.815	905.601	722.467
210.577	25.377	905.072	720.222
211.592	25.594	903.901	720.096
212.607	26.163	903.087	721.660
213.621	26.368	902.847	722.223
214.636	26.025	902.397	720.430
215.650	25.711	902.033	718.821
216.665	25.805	901.322	718.565
217.680	26.276	899.434	718.872
218.694	26.079	900.049	718.515
219.709	25.935	898.562	716.694
220.723	25.204	898.858	713.958
221.738	25.547	898.100	714.656
222.753	25.793	897.911	715.421
223.767	25.968	895.833	714.396
224.782	25.966	895.274	713.877
225.796	26.006	895.224	713.931
226.811	26.241	895.095	714.695
227.826	26.005	893.476	712.407
228.840	25.250	892.837	708.857
229.855	25.266	892.363	708.479
230.869	25.689	891.289	709.231
231.884	25.294	890.750	707.182
232.899	24.916	890.890	705.742
233.913	25.636	890.738	708.396
234.928	25.558	890.263	707.647
235.942	25.652	889.086	707.021
236.957	25.722	887.827	706.230
237.972	25.243	887.709	704.196
238.986	25.546	886.338	704.230
240.001	25.403	885.823	703.200
241.015	25.369	885.155	702.474
242.030	25.761	884.512	703.434
243.045	25.229	885.674	702.216
244.059	25.899	883.562	703.092
245.074	25.801	883.518	702.611
246.088	25.794	882.848	701.992
247.103	25.734	881.379	700.527
248.117	25.885	880.907	700.679
249.132	26.293	881.430	702.619
250.147	27.034	880.195	704.448
251.161	26.789	881.324	704.335
252.176	26.931	880.018	703.780
253.190	26.843	879.603	703.046
254.205	26.908	879.534	703.180
255.220	26.807	879.232	702.486
256.234	26.796	878.212	701.568
257.249	26.749	876.904	700.276
258.263	26.853	877.268	700.908
259.278	26.518	876.362	698.828
260.293	26.693	875.617	698.849
261.307	27.222	875.308	700.577
262.322	26.624	874.486	697.557
263.336	26.522	874.823	697.371
264.351	26.160	873.384	694.770
265.366	25.771	871.070	691.373
266.380	25.281	871.677	689.910
267.395	25.774	871.442	691.556
268.409	26.617	870.776	694.200
269.424	26.476	870.050	693.022
270.439	26.521	869.889	693.003
271.453	26.648	868.942	692.672
272.468	26.722	867.987	692.135
273.482	26.671	867.599	691.570
274.497	26.936	867.695	692.596
275.512	26.646	866.801	690.714
276.526	26.621	864.482	688.711
277.541	26.278	864.839	687.630
278.555	27.078	863.799	689.782
279.570	26.492	864.411	687.982
280.585	26.607	863.631	687.736
281.599	26.712	863.206	687.734
282.614	26.852	862.226	687.424
283.628	26.559	860.606	684.961
284.643	26.135	860.239	683.007
285.657	26.430	860.461	684.239
286.672	25.960	859.499	681.637
287.687	25.721	859.013	680.288
288.701	26.203	858.814	681.891
289.716	26.557	858.893	683.231
290.730	26.641	857.408	682.303
291.745	26.097	857.333	680.135
292.760	26.397	856.337	680.413
293.774	26.331	855.163	679.171
294.789	26.435	856.293	680.401
295.803	27.026	855.901	682.249
296.818	27.026	854.907	681.399
297.833	26.838	854.928	680.649
298.847	26.793	854.266	679.892
299.862	26.774	852.762	678.564
300.876	26.775	852.561	678.349
301.891	27.170	851.041	678.554
302.906	27.131	851.987	679.100
303.920	27.050	850.480	677.538
304.935	26.727	850.177	676.033
305.949	27.422	849.253	677.825
306.964	26.740	849.690	675.575
307.979	26.778	849.215	675.280
308.993	27.012	847.668	674.859
310.008	26.658	848.366	674.038
311.022	26.896	847.354	674.059
312.037	27.056	846.890	674.222
313.052	26.927	846.049	673.015
314.066	26.682	845.370	671.508
315.081	25.921	844.623	668.035
316.095	25.532	842.885	665.161
317.110	25.866	843.931	667.166
318.125	26.509	843.192	668.901
319.139	26.389	842.749	668.047
320.154	25.444	840.479	662.705
321.168	25.293	839.420	661.256
322.183	25.868	839.757	663.581
323.197	26.424	840.465	666.129
324.212	26.709	839.298	666.195
325.227	26.602	839.515	665.913
326.241	26.483	838.798	664.849
327.256	26.662	838.423	665.149
328.270	26.428	837.397	663.417
329.285	26.391	836.807	662.757
330.300	26.545	835.836	662.494
331.314	26.258	835.702	661.277
332.329	26.172	835.663	660.873
333.343	26.680	834.107	661.440
334.358	26.961	833.779	662.146
335.373	26.569	833.882	660.741
336.387	27.227	832.888	662.292
337.402	27.001	833.144	661.612
338.416	26.828	833.033	660.835
339.431	27.322	831.552	661.399
340.446	27.267	831.264	660.912
341.460	27.116	831.824	660.749
342.475	27.413	831.319	661.370
343.489	27.343	830.446	660.361
344.504	27.101	829.327	658.534
345.519	27.051	830.110	658.917
346.533	27.497	828.594	659.270
347.548	27.757	828.247	659.876
348.562	27.483	827.823	658.490
349.577	27.408	827.226	657.688
350.592	27.785	826.150	658.133
351.606	27.488	825.822	656.742
352.621	27.372	825.771	656.227
353.635	27.093	824.733	654.339
354.650	27.171	824.440	654.326
355.665	27.384	823.183	654.039
356.679	26.274	822.488	649.440
357.694	26.374	822.417	649.687
358.708	26.973	821.784	651.278
359.723	26.908	821.419	650.699
360.738	26.384	821.264	648.640
361.752	26.897	820.027	649.441
362.767	26.936	820.619	649.992
363.781	27.292	819.839	650.590
364.796	27.123	820.592	650.526
365.810	27.296	820.661	651.143
366.825	27.821	818.716	651.417
367.840	27.503	819.543	650.880
368.854	27.654	818.302	650.375
369.869	27.386	817.581	648.791
370.883	26.735	817.089	646.022
371.898	27.433	815.034	646.820
372.913	27.423	815.046	646.736
373.927	26.783	815.655	644.887
374.942	27.464	814.530	646.358
375.956	27.365	813.633	645.240
376.971	27.522	813.487	645.621
377.986	27.381	812.496	644.280
379.000	27.733	811.204	644.443
380.015	27.521	812.239	644.458
381.029	27.575	810.988	643.597
382.044	27.284	810.647	642.242
383.059	27.521	810.633	643.012
384.073	27.745	809.677	642.988
385.088	27.785	808.681	642.280
386.102	27.641	808.152	641.297
387.117	27.796	806.333	640.341
388.132	26.986	807.160	638.096
389.146	27.028	806.537	637.693
390.161	26.801	806.075	636.473
391.175	26.791	806.779	636.938
392.190	27.643	806.507	639.659
393.205	27.527	804.975	637.981
394.219	27.060	802.781	634.555
395.234	25.884	801.890	629.686
396.248	25.311	800.845	626.813
397.263	25.548	801.517	628.109
398.278	26.945	802.058	633.357
399.292	27.201	801.366	633.645
400.307	26.853	800.769	631.907
401.321	26.875	800.969	632.084
402.336	26.524	800.756	630.637
403.350	26.938	800.115	631.518
404.365	27.203	800.269	632.504
405.380	27.773	800.172	634.354
406.394	28.184	799.111	634.885
407.409	28.061	798.811	634.165
408.423	28.198	798.288	634.166
409.438	27.657	798.193	632.158
410.453	28.125	797.049	632.817
411.467	28.072	796.516	632.155
412.482	28.089	796.601	632.225
413.496	27.768	796.623	631.076
414.511	27.968	795.551	630.862
415.526	27.832	795.602	630.377
416.540	27.837	794.831	629.728
417.555	27.628	795.090	629.157
418.569	27.669	794.045	628.414
419.584	27.547	792.973	627.091
420.599	27.598	793.690	627.777
421.613	159.921	1369.514	1793.195
422.628	138.600	1453.400	1793.244
