DTS Sentinel unit serial number:	SN413079Multiplexer serial number:	ORYXHardware model number:	OX4-SRSoftware version number:	ORYX F/W v4.00 Oryx Data Collector v3.7.2.0data status	okinstallation	princeton_trtdifferential loss correction	single-endedforward channel	channel 3reverse channel	N/Adate	2019/09/17time	08:36:34forward acquisition time	60.00reverse acquisition time	0.00gamma	496.2192k internal	0.2331k external	0.2331temperature offset calibration	0.9940default loss term (dB/km)	0.3790temperature slope calibration	1.0000multiplexer offset coefficient	1.0000multiplexer slope coefficient	1.0000fibre end	0.00T internal ref (°C)	27.62T ext. ref 1 (°C)	0.13T ext. ref 2 (°C)	23.21length (m)	temperature (°C)	Stokes	anti-Stokes-747.200	-33.285	-0.174	-0.097
-746.185	29.903	-0.334	0.286
-745.171	-200.000	0.002	-0.016
-744.156	-84.795	-0.203	0.064
-743.142	-200.000	-0.049	-0.267
-742.127	302.088	0.136	0.252
-741.112	-200.000	0.018	0.082
-740.098	89.893	-0.276	0.310
-739.083	16.382	-0.114	0.091
-738.069	-200.000	-0.014	-0.146
-737.054	-103.258	0.115	-0.027
-736.039	24.982	-0.149	-0.124
-735.025	28.270	-0.096	-0.081
-734.010	548.723	0.050	-0.119
-732.996	-23.601	-0.151	0.091
-731.981	42.868	0.114	0.104
-730.966	800.000	-0.039	0.156
-729.952	-200.000	0.023	0.139
-728.937	217.448	-0.087	-0.139
-727.923	-132.232	0.018	0.002
-726.908	-21.703	-0.307	0.188
-725.894	-141.266	-0.205	0.021
-724.879	800.000	-0.130	-0.434
-723.864	169.950	-0.049	0.071
-722.850	-200.000	0.008	0.264
-721.835	-10.406	0.461	0.307
-720.821	291.264	0.073	-0.133
-719.806	100.011	-0.191	0.222
-718.791	757.415	0.040	-0.110
-717.777	241.161	-0.090	0.150
-716.762	-137.100	-0.126	0.014
-715.748	179.362	-0.052	-0.076
-714.733	91.585	-0.066	-0.075
-713.718	-45.023	0.142	0.071
-712.704	160.160	0.072	-0.100
-711.689	800.000	0.131	0.406
-710.675	539.725	0.159	-0.379
-709.660	137.814	-0.200	-0.264
-708.645	171.636	-0.225	-0.325
-707.631	800.000	-0.059	0.237
-706.616	-200.000	0.040	-0.251
-705.602	-200.000	-0.009	0.165
-704.587	-200.000	0.013	0.264
-703.572	-12.035	-0.080	-0.053
-702.558	-4.454	-0.227	0.157
-701.543	129.685	-0.309	0.397
-700.529	-37.374	-0.410	-0.220
-699.514	-146.852	0.052	0.005
-698.499	4.847	-0.493	0.364
-697.485	-13.392	0.162	0.105
-696.470	271.052	-0.037	0.065
-695.456	-200.000	0.058	0.359
-694.441	-118.910	-0.046	-0.008
-693.426	-157.334	0.104	0.006
-692.412	-23.755	0.178	-0.107
-691.397	-36.937	0.366	-0.197
-690.383	800.000	-0.029	0.123
-689.368	-200.000	-0.021	-0.139
-688.354	800.000	-0.025	0.078
-687.339	119.224	-0.059	-0.073
-686.324	-155.986	-0.154	-0.010
-685.310	-32.890	0.345	-0.193
-684.295	-146.089	-0.216	-0.019
-683.281	-144.987	-0.211	0.019
-682.266	50.863	-0.064	-0.061
-681.251	-39.972	-0.306	0.160
-680.237	-72.847	-0.155	0.057
-679.222	46.030	0.341	-0.317
-678.208	-61.938	-0.369	-0.155
-677.193	-200.000	-0.042	-0.257
-676.178	800.000	-0.027	0.101
-675.164	446.038	-0.111	0.245
-674.149	-141.401	0.100	0.010
-673.135	-200.000	0.023	0.380
-672.120	-36.475	-0.204	0.110
-671.105	325.541	0.123	-0.237
-670.091	97.763	-0.148	-0.171
-669.076	-200.000	-0.001	-0.135
-668.062	-165.339	-0.374	-0.017
-667.047	-200.000	-0.074	-0.520
-666.032	-10.072	0.099	0.066
-665.018	-200.000	0.010	-0.094
-664.003	-149.566	-0.144	-0.011
-662.989	-97.196	-0.340	0.089
-661.974	800.000	-0.045	-0.145
-660.959	207.972	0.053	0.083
-659.945	-152.817	-0.311	-0.022
-658.930	-88.627	-0.355	0.106
-657.916	205.947	0.040	-0.063
-656.901	-89.792	0.020	0.006
-655.886	800.000	-0.036	0.123
-654.872	15.970	0.032	-0.025
-653.857	-93.610	-0.115	-0.032
-652.843	81.948	0.188	-0.204
-651.828	-47.086	-0.303	0.148
-650.814	-144.139	-0.303	-0.028
-649.799	800.000	0.041	0.127
-648.784	800.000	0.064	0.265
-647.770	24.591	0.060	0.050
-646.755	67.055	-0.294	-0.300
-645.741	800.000	-0.109	0.425
-644.726	800.000	0.046	0.172
-643.711	800.000	0.036	-0.127
-642.697	-149.226	-0.095	0.008
-641.682	-15.408	0.294	-0.188
-640.668	-63.226	-0.234	-0.097
-639.653	-164.118	0.196	-0.009
-638.638	-162.874	-0.287	0.014
-637.624	262.047	0.173	0.301
-636.609	-189.222	-0.043	0.001
-635.595	125.429	-0.106	-0.134
-634.580	-143.015	0.244	0.024
-633.565	589.811	-0.034	0.084
-632.551	-127.854	-0.060	0.009
-631.536	242.089	-0.145	-0.243
-630.522	-83.178	-0.325	0.105
-629.507	62.526	0.302	0.303
-628.492	23.832	-0.231	-0.191
-627.478	54.077	0.229	-0.220
-626.463	-19.005	0.185	-0.115
-625.449	-71.642	-0.084	0.031
-624.434	2.348	-0.156	-0.113
-623.419	-70.607	0.293	-0.111
-622.405	29.846	0.262	0.223
-621.390	800.000	0.151	0.485
-620.376	800.000	0.046	-0.202
-619.361	-107.055	-0.137	-0.030
-618.346	-200.000	0.011	0.175
-617.332	134.782	-0.138	-0.179
-616.317	800.000	-0.080	-0.328
-615.303	-118.319	-0.293	0.052
-614.288	104.789	-0.255	0.301
-613.273	800.000	0.091	0.301
-612.259	-9.122	0.272	-0.182
-611.244	-86.152	0.174	0.054
-610.230	356.255	0.277	0.552
-609.215	-44.625	-0.076	-0.038
-608.201	800.000	0.059	-0.195
-607.186	35.319	0.152	-0.134
-606.171	-137.482	0.077	0.009
-605.157	337.471	0.101	-0.197
-604.142	-200.000	-0.014	0.269
-603.128	-136.505	-0.138	-0.016
-602.113	-200.000	0.010	-0.434
-601.098	800.000	-0.058	-0.207
-600.084	257.567	-0.063	-0.109
-599.069	89.560	-0.176	0.197
-598.055	338.580	-0.077	-0.150
-597.040	-200.000	0.013	-0.380
-596.025	9.234	-0.341	0.258
-595.011	-54.396	-0.269	0.122
-593.996	132.306	0.122	0.157
-592.982	-23.680	-0.110	-0.066
-591.967	-26.956	-0.112	0.065
-590.952	705.075	0.052	0.137
-589.938	-200.000	-0.006	-0.077
-588.923	-200.000	-0.025	-0.128
-587.909	-200.000	0.007	-0.231
-586.894	-156.534	-0.187	-0.012
-585.879	800.000	0.070	-0.259
-584.865	60.138	0.183	0.181
-583.850	-200.000	-0.009	0.044
-582.836	187.538	0.091	0.135
-581.821	59.939	-0.101	0.100
-580.806	91.228	0.154	0.173
-579.792	321.649	-0.076	0.145
-578.777	-98.669	-0.117	-0.030
-577.763	-32.104	0.183	-0.102
-576.748	800.000	-0.094	0.358
-575.733	39.899	-0.101	0.090
-574.719	-200.000	-0.001	0.156
-573.704	-23.255	0.158	-0.095
-572.690	334.096	0.041	-0.079
-571.675	-200.000	0.043	-0.207
-570.661	167.603	-0.203	-0.288
-569.646	219.876	-0.194	-0.311
-568.631	217.135	0.155	0.247
-567.617	264.227	-0.134	-0.233
-566.602	-119.955	0.258	-0.044
-565.588	251.096	-0.012	-0.021
-564.573	138.535	0.204	-0.267
-563.558	48.174	0.201	-0.188
-562.544	79.377	0.068	-0.073
-561.529	-14.913	-0.109	-0.070
-560.515	-200.000	0.199	-0.001
-559.500	-165.576	0.377	0.016
-558.485	763.684	-0.035	-0.095
-557.471	-200.000	0.003	0.059
-556.456	-159.246	0.201	-0.011
-555.442	-200.000	-0.010	-0.095
-554.427	312.233	-0.242	0.454
-553.412	-84.686	-0.136	0.043
-552.398	-200.000	0.018	0.132
-551.383	-75.337	-0.101	0.036
-550.369	32.926	-0.269	0.232
-549.354	-142.240	0.143	-0.014
-548.339	-200.000	0.081	0.490
-547.325	-59.339	-0.307	-0.132
-546.310	-115.986	-0.285	-0.053
-545.296	291.163	0.186	0.337
-544.281	267.905	-0.074	-0.130
-543.266	-200.000	0.012	0.236
-542.252	33.447	-0.105	-0.091
-541.237	419.735	-0.100	-0.215
-540.223	800.000	-0.048	-0.147
-539.208	-64.125	0.270	0.110
-538.193	-20.276	-0.114	0.070
-537.179	487.197	-0.125	-0.285
-536.164	-200.000	-0.016	0.069
-535.150	-82.078	0.112	0.037
-534.135	-200.000	0.017	-0.080
-533.121	170.577	0.057	0.081
-532.106	-125.623	-0.253	0.038
-531.091	-200.000	-0.033	0.182
-530.077	387.183	-0.030	-0.061
-529.062	2.946	-0.164	0.119
-528.048	-105.008	0.143	-0.033
-527.033	5.598	-0.208	-0.154
-526.018	-200.000	-0.021	-0.379
-525.004	-19.579	0.278	0.172
-523.989	33.525	-0.197	-0.171
-522.975	-93.862	-0.172	-0.047
-521.960	-148.853	0.130	0.010
-520.945	224.403	0.109	0.177
-519.931	-174.467	-0.291	-0.008
-518.916	297.246	0.079	0.145
-517.902	-115.063	-0.189	0.036
-516.887	-88.814	0.243	0.072
-515.872	-200.000	-0.061	-0.459
-514.858	-81.342	0.121	0.040
-513.843	497.381	-0.096	0.221
-512.829	800.000	0.126	-0.424
-511.814	166.033	0.071	-0.100
-510.799	-3.385	0.167	0.116
-509.785	-23.960	-0.142	-0.085
-508.770	81.914	0.139	0.150
-507.756	-200.000	0.018	0.087
-506.741	23.742	0.178	-0.146
-505.726	-67.967	-0.188	0.073
-504.712	-169.621	-0.473	0.017
-503.697	-200.000	-0.024	-0.396
-502.683	-87.049	0.228	0.069
-501.668	-47.571	-0.079	0.038
-500.653	144.486	0.208	0.277
-499.639	57.857	0.186	0.182
-498.624	-200.000	0.006	0.175
-497.610	-144.263	0.308	-0.029
-496.595	492.285	-0.150	0.344
-495.581	429.616	0.034	0.073
-494.566	123.022	-0.239	-0.298
-493.551	-200.000	0.005	-0.027
-492.537	708.810	-0.115	0.304
-491.522	-200.000	0.036	0.275
-490.508	-135.211	0.198	-0.024
-489.493	-82.443	-0.077	0.025
-488.478	-124.579	0.107	-0.017
-487.464	-61.483	-0.220	-0.092
-486.449	69.271	-0.172	-0.176
-485.435	44.006	0.047	-0.043
-484.420	328.970	-0.096	0.183
-483.405	800.000	-0.100	0.438
-482.391	86.096	0.111	0.121
-481.376	-79.571	0.044	0.015
-480.362	800.000	-0.024	0.074
-479.347	-200.000	-0.018	-0.194
-478.332	800.000	-0.016	0.066
-477.318	-200.000	0.013	0.270
-476.303	-83.162	-0.185	-0.059
-475.289	36.134	0.200	0.176
-474.274	800.000	-0.027	-0.113
-473.259	-64.920	0.235	0.094
-472.245	28.291	0.117	0.099
-471.230	-200.000	0.024	0.189
-470.216	800.000	0.029	0.111
-469.201	-200.000	-0.017	-0.142
-468.186	361.337	0.198	-0.395
-467.172	-62.976	-0.299	-0.123
-466.157	-200.000	0.021	0.159
-465.143	-145.084	0.140	-0.013
-464.128	-62.759	-0.254	-0.105
-463.113	392.332	0.242	-0.502
-462.099	36.667	0.107	0.094
-461.084	430.437	-0.069	0.149
-460.070	-13.325	0.206	-0.133
-459.055	-107.295	0.226	-0.049
-458.040	-109.598	0.334	0.070
-457.026	-101.731	0.074	0.018
-456.011	178.440	0.137	-0.199
-454.997	800.000	0.095	-0.388
-453.982	800.000	-0.040	-0.160
-452.968	-110.789	-0.116	0.024
-451.953	800.000	-0.040	0.115
-450.938	30.680	0.211	0.180
-449.924	-60.893	0.097	-0.041
-448.909	-185.886	0.093	-0.001
-447.895	800.000	-0.108	0.321
-446.880	610.840	-0.068	0.169
-445.865	-111.011	-0.356	-0.073
-444.851	253.893	-0.153	-0.260
-443.836	-147.738	-0.259	-0.022
-442.822	48.465	-0.349	-0.325
-441.807	-174.903	0.199	0.006
-440.792	100.895	0.038	-0.043
-439.778	-20.492	0.246	-0.151
-438.763	57.954	0.083	0.081
-437.749	380.127	0.023	-0.048
-436.734	29.515	-0.134	0.113
-435.719	800.000	-0.035	0.147
-434.705	-200.000	0.009	0.457
-433.690	-48.499	0.224	-0.107
-432.676	-101.042	-0.145	0.035
-431.661	-76.010	-0.167	0.059
-430.646	14.339	-0.385	0.299
-429.632	-118.921	0.355	0.062
-428.617	-104.802	-0.161	-0.037
-427.603	695.293	-0.021	0.055
-426.588	507.666	0.085	-0.195
-425.573	88.656	-0.083	-0.092
-424.559	800.000	0.033	-0.110
-423.544	399.429	-0.096	-0.199
-422.530	-200.000	-0.079	0.423
-421.515	-38.628	0.130	0.068
-420.500	41.651	-0.068	0.061
-419.486	-98.808	0.296	0.075
-418.471	-125.273	0.086	0.013
-417.457	146.223	-0.124	0.166
-416.442	-88.442	-0.145	0.043
-415.428	-53.737	0.268	-0.122
-414.413	-42.270	-0.150	0.076
-413.398	388.819	0.083	0.171
-412.384	600.119	-0.092	-0.228
-411.369	309.252	0.053	-0.098
-410.355	-200.000	-0.036	-0.177
-409.340	34.405	0.115	0.099
-408.325	-83.815	0.273	0.086
-407.311	-133.492	-0.267	0.033
-406.296	507.673	-0.085	-0.197
-405.282	-200.000	-0.027	-0.196
-404.267	28.746	-0.127	0.107
-403.252	-8.238	0.327	-0.219
-402.238	172.401	-0.155	0.222
-401.223	800.000	-0.092	-0.376
-400.209	6.893	0.228	-0.169
-399.194	104.108	-0.034	0.040
-398.179	86.619	0.276	0.302
-397.165	800.000	-0.042	0.141
-396.150	173.552	0.077	-0.110
-395.136	-115.141	0.063	0.012
-394.121	213.629	0.103	-0.162
-393.106	354.548	-0.043	-0.085
-392.092	62.722	-0.134	0.133
-391.077	52.704	-0.156	-0.148
-390.063	-182.618	0.121	0.002
-389.048	216.584	-0.158	0.249
-388.033	-149.648	0.103	-0.008
-387.019	17.090	-0.183	0.144
-386.004	-139.213	0.412	-0.044
-384.990	-0.427	0.223	-0.157
-383.975	-117.164	-0.043	-0.008
-382.960	800.000	-0.063	-0.254
-381.946	29.769	0.075	0.064
-380.931	-200.000	0.002	0.073
-379.917	-33.026	0.063	0.035
-378.902	-31.038	-0.113	-0.063
-377.888	800.000	-0.014	0.046
-376.873	-137.517	0.183	-0.021
-375.858	-116.460	-0.105	0.019
-374.844	-200.000	-0.044	0.405
-373.829	150.302	0.120	0.161
-372.815	-44.617	0.108	0.053
-371.800	-200.000	0.056	-0.273
-370.785	-200.000	0.012	0.062
-369.771	-200.000	0.015	-0.076
-368.756	-200.000	-0.038	-0.303
-367.742	412.916	0.005	0.010
-366.727	-131.817	-0.229	-0.030
-365.712	-200.000	-0.048	-0.242
-364.698	43.855	0.304	-0.277
-363.683	446.030	-0.088	-0.192
-362.669	-45.959	-0.112	-0.055
-361.654	134.353	0.219	-0.281
-360.639	-56.722	-0.215	0.094
-359.625	-200.000	0.010	-0.101
-358.610	255.858	-0.090	0.152
-357.596	-58.388	-0.246	0.106
-356.581	-11.654	-0.047	-0.030
-355.566	89.108	-0.193	0.213
-354.552	-77.563	0.216	-0.074
-353.537	-153.184	-0.100	0.007
-352.523	-86.436	-0.215	0.065
-351.508	43.868	-0.272	-0.247
-350.493	-173.340	-0.096	0.003
-349.479	-29.942	0.120	-0.068
-348.464	800.000	-0.043	0.142
-347.450	88.948	-0.170	-0.187
-346.435	307.435	0.153	0.283
-345.420	-62.931	0.080	-0.033
-344.406	23.922	0.170	0.139
-343.391	232.828	-0.143	0.233
-342.377	231.677	-0.067	0.109
-341.362	32.985	-0.107	-0.092
-340.348	65.046	-0.135	0.135
-339.333	-200.000	0.053	0.263
-338.318	-101.769	-0.078	0.019
-337.304	34.541	0.300	0.260
-336.289	50.261	0.048	0.045
-335.275	-171.200	-0.219	-0.007
-334.260	-200.000	-0.012	0.097
-333.245	-117.902	0.161	-0.029
-332.231	-88.657	-0.056	-0.017
-331.216	800.000	0.012	0.046
-330.202	-200.000	0.003	-0.203
-329.187	-200.000	-0.020	-0.090
-328.172	-200.000	0.032	-0.189
-327.158	13.774	-0.169	-0.130
-326.143	197.327	-0.113	0.170
-325.129	335.512	0.088	-0.170
-324.114	-74.543	0.137	-0.049
-323.099	800.000	-0.059	-0.177
-322.085	720.739	0.100	0.264
-321.070	800.000	-0.039	-0.111
-320.056	-200.000	-0.028	0.142
-319.041	-131.215	0.150	-0.020
-318.026	84.479	0.169	0.182
-317.012	-121.745	-0.209	0.034
-315.997	-200.000	-0.001	-0.168
-314.983	460.645	0.029	0.065
-313.968	713.836	-0.117	-0.307
-312.953	-200.000	0.004	0.063
-311.939	176.813	-0.135	-0.195
-310.924	-66.131	0.150	-0.059
-309.910	177.731	0.045	0.065
-308.895	-10.618	-0.186	0.122
-307.880	113.179	-0.222	-0.267
-306.866	-200.000	-0.010	-0.134
-305.851	78.372	0.027	0.028
-304.837	-82.287	0.185	0.059
-303.822	-200.000	-0.051	0.241
-302.807	147.014	0.226	0.300
-301.793	91.168	-0.027	0.029
-300.778	-112.685	-0.070	0.014
-299.764	-65.373	0.021	-0.008
-298.749	800.000	0.006	-0.019
-297.735	206.813	-0.238	0.366
-296.720	-200.000	-0.011	-0.049
-295.705	137.601	-0.176	0.227
-294.691	514.103	0.146	0.336
-293.676	800.000	-0.072	-0.281
-292.662	-38.980	0.191	-0.100
-291.647	-2.072	-0.134	0.093
-290.632	-200.000	-0.003	-0.112
-289.618	-112.357	-0.151	-0.030
-288.603	-0.430	-0.227	0.160
-287.589	-200.000	0.023	-0.160
-286.574	-14.690	0.181	-0.115
-285.559	-200.000	-0.022	0.111
-284.545	-75.741	-0.150	0.053
-283.530	-200.000	-0.057	-0.277
-282.516	-165.537	-0.125	-0.005
-281.501	-91.179	0.296	0.084
-280.486	66.230	-0.079	-0.079
-279.472	-14.711	0.244	0.155
-278.457	263.189	-0.091	-0.156
-277.443	39.747	-0.146	0.129
-276.428	99.964	-0.144	-0.165
-275.413	376.874	0.065	0.131
-274.399	194.070	0.170	-0.255
-273.384	648.359	0.071	0.179
-272.370	-128.280	-0.272	-0.038
-271.355	34.101	-0.142	0.122
-270.340	41.352	0.049	0.043
-269.326	295.323	0.082	-0.148
-268.311	62.642	0.217	-0.215
-267.297	-200.000	0.004	-0.037
-266.282	0.265	0.114	0.080
-265.267	431.643	0.068	-0.145
-264.253	-11.293	-0.373	-0.243
-263.238	21.891	0.118	-0.095
-262.224	-55.893	-0.256	0.113
-261.209	400.993	-0.031	0.063
-260.195	648.807	0.096	-0.241
-259.180	-91.981	-0.370	0.103
-258.165	339.673	-0.189	0.363
-257.151	103.681	0.107	0.124
-256.136	135.984	0.177	0.228
-255.122	374.822	-0.118	-0.238
-254.107	189.575	0.046	-0.068
-253.092	541.245	-0.039	-0.091
-252.078	356.572	-0.209	-0.412
-251.063	-8.918	-0.220	-0.146
-250.049	-200.000	0.008	0.098
-249.034	87.386	0.142	-0.155
-248.019	-200.000	0.003	-0.149
-247.005	188.921	-0.063	-0.093
-245.990	800.000	0.039	-0.154
-244.976	-73.551	-0.351	-0.126
-243.961	5.932	-0.207	0.152
-242.946	17.488	0.058	-0.046
-241.932	-108.767	0.283	-0.060
-240.917	313.999	0.053	-0.098
-239.903	-200.000	-0.001	0.152
-238.888	-200.000	0.021	0.313
-237.873	242.738	-0.025	-0.041
-236.859	-200.000	-0.009	0.099
-235.844	190.542	-0.075	-0.111
-234.830	159.000	0.238	-0.326
-233.815	-86.433	-0.292	-0.088
-232.800	96.495	0.153	-0.173
-231.786	-200.000	-0.003	-0.046
-230.771	-200.000	-0.004	-0.207
-229.757	201.386	0.077	0.117
-228.742	800.000	-0.045	-0.126
-227.727	-56.003	-0.060	-0.026
-226.713	-77.446	-0.091	0.031
-225.698	397.046	0.195	-0.402
-224.684	164.964	0.045	0.062
-223.669	-50.932	0.268	0.124
-222.655	-72.858	0.142	-0.052
-221.640	17.395	-0.214	-0.168
-220.625	85.520	-0.080	0.086
-219.611	-50.626	0.071	-0.033
-218.596	-110.392	0.164	-0.034
-217.582	-149.870	0.041	-0.003
-216.567	800.000	-0.098	0.281
-215.552	-200.000	0.023	-0.122
-214.538	-7.984	-0.044	-0.029
-213.523	72.901	-0.057	0.059
-212.509	-132.509	-0.422	0.053
-211.494	107.367	0.197	0.231
-210.479	800.000	-0.108	0.348
-209.465	-29.162	0.212	0.120
-208.450	-96.711	-0.181	-0.047
-207.436	195.486	-0.184	0.276
-206.421	140.169	0.095	-0.123
-205.406	-49.842	-0.111	0.052
-204.392	-135.668	-0.220	0.026
-203.377	52.694	-0.102	-0.096
-202.363	-80.696	0.187	-0.061
-201.348	24.334	0.135	-0.110
-200.333	203.748	-0.077	-0.118
-199.319	32.410	-0.022	-0.019
-198.304	-43.529	-0.179	-0.089
-197.290	-200.000	0.024	-0.252
-196.275	-200.000	-0.008	0.188
-195.260	21.492	-0.144	0.115
-194.246	6.919	0.122	-0.090
-193.231	-200.000	-0.057	-0.354
-192.217	3.452	0.188	-0.135
-191.202	91.844	0.145	-0.161
-190.187	-200.000	0.004	-0.106
-189.173	800.000	-0.084	-0.284
-188.158	-200.000	0.076	-0.465
-187.144	-77.652	0.076	0.026
-186.129	231.842	-0.147	0.237
-185.114	42.457	0.027	0.024
-184.100	146.006	0.073	0.096
-183.085	800.000	0.067	0.283
-182.071	-56.027	-0.280	0.123
-181.056	142.128	-0.143	0.186
-180.042	-200.000	0.021	0.119
-179.027	-118.916	-0.089	-0.015
-178.012	-200.000	0.007	0.130
-176.998	101.936	0.297	0.341
-175.983	273.378	-0.056	-0.097
-174.969	800.000	0.034	-0.111
-173.954	-60.135	-0.077	-0.032
-172.939	800.000	-0.058	-0.164
-171.925	-61.992	0.131	0.054
-170.910	120.961	0.142	0.174
-169.896	-134.817	0.353	0.042
-168.881	24.682	-0.122	-0.099
-167.866	-72.986	0.398	0.144
-166.852	378.268	0.147	0.296
-165.837	452.829	0.133	0.289
-164.823	-186.166	0.178	-0.003
-163.808	800.000	0.078	-0.221
-162.793	-107.149	0.167	0.036
-161.779	-45.260	0.151	0.074
-160.764	800.000	0.138	0.381
-159.750	-25.208	0.366	-0.213
-158.735	-200.000	-0.023	-0.232
-157.720	-107.210	0.112	0.024
-156.706	-200.000	0.010	0.145
-155.691	-17.746	-0.283	-0.175
-154.677	143.889	0.161	-0.212
-153.662	704.972	-0.029	0.076
-152.647	138.170	0.150	0.194
-151.633	-200.000	-0.006	0.105
-150.618	-200.000	0.012	0.245
-149.604	800.000	-0.051	-0.153
-148.589	-200.000	-0.003	-0.098
-147.574	251.070	-0.152	0.254
-146.560	224.611	-0.074	-0.117
-145.545	-143.581	-0.091	0.009
-144.531	98.683	-0.153	-0.173
-143.516	624.761	0.029	0.073
-142.502	800.000	-0.102	0.278
-141.487	243.546	-0.115	0.190
-140.472	-8.079	0.303	0.200
-139.458	-200.000	0.012	0.129
-138.443	543.216	-0.087	0.205
-137.429	18.837	-0.140	-0.110
-136.414	-155.093	0.389	0.025
-135.399	-41.863	-0.183	-0.092
-134.385	-40.084	0.421	-0.216
-133.370	800.000	-0.055	-0.161
-132.356	-200.000	0.004	-0.032
-131.341	91.483	-0.078	0.086
-130.326	-67.678	0.046	-0.018
-129.312	-131.112	0.256	-0.033
-128.297	-135.247	0.117	-0.014
-127.283	-51.423	0.277	0.127
-126.268	-179.426	-0.396	0.009
-125.253	622.194	0.070	0.172
-124.239	-4.425	0.202	-0.137
-123.224	90.780	-0.156	-0.172
-122.210	251.425	-0.064	-0.107
-121.195	800.000	-0.102	-0.351
-120.180	-140.939	-0.512	-0.052
-119.166	-200.000	0.051	-0.227
-118.151	23.484	0.086	0.069
-117.137	30.339	-0.317	-0.266
-116.122	716.581	0.043	0.112
-115.107	-200.000	-0.021	-0.090
-114.093	-56.196	0.174	0.076
-113.078	-200.000	-0.002	0.465
-112.064	-130.396	0.219	0.029
-111.049	95.063	-0.052	0.059
-110.034	-114.764	0.190	0.036
-109.020	800.000	-0.057	0.186
-108.005	-200.000	-0.036	0.229
-106.991	-130.855	-0.367	0.048
-105.976	282.354	-0.122	-0.215
-104.962	-200.000	0.012	-0.156
-103.947	-200.000	-0.010	0.114
-102.932	-102.416	-0.341	0.080
-101.918	68.695	-0.123	-0.124
-100.903	-156.627	-0.216	0.013
-99.889	377.277	-0.043	-0.087
-98.874	-8.306	0.266	0.175
-97.859	-200.000	0.034	-0.265
-96.845	-3.041	0.138	0.095
-95.830	121.223	0.251	-0.306
-94.816	-12.095	0.138	-0.089
-93.801	536.091	-0.094	0.220
-92.786	800.000	0.006	-0.018
-91.772	364.260	-0.142	-0.281
-90.757	167.170	-0.184	0.256
-89.743	-158.911	-0.238	0.013
-88.728	-15.121	0.158	0.099
-87.713	-107.791	-0.245	-0.052
-86.699	-88.880	0.273	-0.079
-85.684	-200.000	0.018	0.100
-84.670	63.222	-0.107	0.105
-83.655	-200.000	-0.020	0.172
-82.640	-200.000	-0.090	-0.548
-81.626	-65.581	-0.365	-0.144
-80.611	27.980	0.170	0.140
-79.597	230.091	0.122	-0.196
-78.582	425.410	0.108	0.227
-77.567	88.054	-0.203	-0.221
-76.553	543.057	-0.137	-0.321
-75.538	761.641	-0.030	-0.079
-74.524	51.029	0.317	-0.295
-73.509	65.889	0.120	0.119
-72.494	62.410	-0.100	-0.098
-71.480	800.000	0.081	0.279
-70.465	-84.662	-0.325	0.100
-69.451	-200.000	-0.033	0.289
-68.436	-200.000	0.014	0.167
-67.422	-200.000	0.025	0.304
-66.407	-43.032	0.202	-0.100
-65.392	229.869	-0.253	-0.405
-64.378	-24.328	-0.141	0.083
-63.363	-151.325	0.134	-0.010
-62.349	150.462	-0.032	0.043
-61.334	-15.685	-0.925	-0.578
-60.319	-0.378	0.971	0.676
-59.305	-200.000	-0.228	-1.260
-58.290	237.353	0.579	0.941
-57.276	494.216	0.750	1.686
-56.261	-200.000	111.695	634.689
-55.246	473.751	1501.686	3316.966
-54.232	148.090	2667.340	3524.995
-53.217	104.458	2176.357	2510.029
-52.203	38.080	1706.867	1487.342
-51.188	30.667	1524.904	1278.031
-50.173	28.450	1500.360	1242.405
-49.159	51.620	1557.036	1449.860
-48.144	50.870	1573.015	1459.513
-47.130	31.014	1529.609	1284.165
-46.115	27.949	1514.609	1250.576
-45.100	27.719	1511.376	1246.291
-44.086	27.643	1509.831	1244.443
-43.071	27.632	1507.675	1242.541
-42.057	27.712	1505.830	1241.521
-41.042	27.632	1504.453	1239.788
-40.027	27.637	1503.153	1238.702
-39.013	27.555	1501.700	1236.903
-37.998	27.532	1500.247	1235.498
-36.984	27.639	1499.043	1235.181
-35.969	27.628	1497.720	1233.968
-34.954	27.594	1496.395	1232.597
-33.940	27.629	1494.954	1231.599
-32.925	27.525	1493.997	1230.059
-31.911	27.584	1491.988	1228.753
-30.896	27.655	1490.939	1228.318
-29.881	27.664	1489.996	1227.553
-28.867	27.666	1488.067	1225.934
-27.852	27.614	1487.436	1225.016
-26.838	27.722	1485.710	1224.266
-25.823	27.599	1484.662	1222.534
-24.809	27.653	1482.498	1221.065
-23.794	27.615	1481.338	1219.805
-22.779	27.668	1480.021	1219.023
-21.765	27.668	1479.244	1218.334
-20.750	27.702	1477.863	1217.380
-19.736	27.691	1477.034	1216.575
-18.721	27.590	1475.896	1214.915
-17.706	27.617	1474.683	1214.046
-16.692	27.639	1473.654	1213.301
-15.677	27.742	1472.307	1212.829
-14.663	27.678	1471.459	1211.653
-13.648	27.593	1470.529	1210.277
-12.633	27.509	1470.174	1209.376
-11.619	27.611	1469.231	1209.232
-10.604	27.673	1468.138	1208.692
-9.590	27.610	1467.385	1207.610
-8.575	27.592	1466.494	1206.707
-7.560	27.652	1465.478	1206.223
-6.546	27.725	1464.710	1206.025
-5.531	27.659	1463.946	1204.914
-4.517	27.632	1462.676	1203.638
-3.502	27.623	1461.805	1202.813
-2.487	27.591	1461.015	1201.906
-1.473	27.533	1459.962	1200.609
-0.458	27.556	1458.658	1199.642
0.556	25.900	1448.465	1189.304
1.571	23.039	1423.579	1150.179
2.586	19.712	1361.389	1079.106
3.600	18.195	1277.090	1003.304
4.615	16.942	1232.817	961.339
5.629	14.753	1176.735	905.668
6.644	7.357	1092.539	803.437
7.659	1.267	1053.125	744.573
8.673	0.232	1047.661	735.592
9.688	0.113	1044.927	733.027
10.702	0.000	1042.660	730.824
11.717	0.165	1040.554	730.084
12.731	2.445	1043.153	742.917
13.746	10.194	1053.408	788.018
14.761	16.165	1060.731	822.625
15.775	17.110	1061.235	827.556
16.790	16.465	1059.803	823.225
17.804	15.425	1057.323	816.171
18.819	14.618	1055.174	810.522
19.834	14.203	1053.703	807.307
20.848	13.853	1053.435	805.332
21.863	13.629	1052.712	803.621
22.877	13.423	1051.361	801.522
23.892	13.174	1050.490	799.581
24.907	12.974	1049.889	798.087
25.921	13.103	1049.019	797.979
26.936	13.079	1048.862	797.673
27.950	13.186	1047.865	797.357
28.965	13.242	1047.085	796.964
29.980	13.285	1045.895	796.196
30.994	13.410	1045.090	796.114
32.009	13.391	1044.199	795.273
33.023	13.371	1043.886	794.868
34.038	13.347	1043.130	794.109
35.053	13.386	1041.743	793.170
36.067	13.245	1041.355	792.128
37.082	13.123	1040.561	790.870
38.096	13.264	1039.534	790.691
39.111	13.326	1038.745	790.317
40.126	13.453	1037.872	790.191
41.140	13.316	1037.033	788.828
42.155	13.130	1036.388	787.380
43.169	13.053	1035.183	786.028
44.184	13.133	1034.092	785.512
45.199	13.121	1032.975	784.536
46.213	13.143	1032.238	784.012
47.228	13.184	1031.187	783.340
48.242	13.169	1030.248	782.486
49.257	13.278	1029.079	782.043
50.271	13.347	1027.736	781.282
51.286	13.311	1026.831	780.355
52.301	13.318	1026.462	780.039
53.315	13.217	1025.804	778.993
54.330	13.209	1024.816	778.134
55.344	13.115	1024.183	777.145
56.359	13.098	1023.109	776.179
57.374	13.034	1022.313	775.206
58.388	13.231	1020.982	775.052
59.403	13.175	1020.667	774.481
60.417	13.120	1019.961	773.620
61.432	13.058	1019.322	772.777
62.447	13.234	1018.255	772.724
63.461	13.139	1017.396	771.558
64.476	13.049	1016.996	770.767
65.490	13.047	1015.965	769.907
66.505	13.026	1015.120	769.102
67.520	13.228	1014.274	769.334
68.534	13.131	1013.562	768.274
69.549	13.045	1012.950	767.342
70.563	13.092	1011.863	766.667
71.578	13.143	1011.170	766.314
72.593	13.152	1009.706	765.177
73.607	13.034	1009.502	764.410
74.622	12.941	1008.529	763.172
75.636	13.080	1007.341	762.852
76.651	12.869	1006.784	761.387
77.666	13.009	1005.812	761.227
78.680	12.952	1005.374	760.570
79.695	13.067	1004.709	760.526
80.709	12.971	1004.712	760.018
81.724	13.122	1003.154	759.471
82.739	13.155	1002.426	759.003
83.753	13.106	1002.023	758.403
84.768	13.246	1001.158	758.327
85.782	13.161	1000.530	757.395
86.797	13.322	999.512	757.294
87.812	13.303	998.680	756.510
88.826	13.153	997.980	755.227
89.841	13.243	997.141	754.935
90.855	13.318	996.387	754.639
91.870	13.193	995.477	753.311
92.884	13.216	995.066	753.039
93.899	13.386	993.939	752.895
94.914	13.474	993.040	752.549
95.928	13.401	992.660	751.860
96.943	13.382	991.720	750.997
97.957	13.399	990.731	750.256
98.972	13.222	990.194	748.983
99.987	13.319	989.485	748.820
101.001	13.335	988.640	748.188
102.016	13.386	987.517	747.502
103.030	13.289	986.905	746.534
104.045	13.349	986.098	746.126
105.060	13.216	985.313	744.869
106.074	13.332	983.968	744.307
107.089	13.315	983.091	743.501
108.103	13.293	982.755	743.084
109.118	13.211	981.604	741.779
110.133	13.157	980.581	740.699
111.147	13.212	979.889	740.357
112.162	13.135	979.350	739.538
113.176	13.157	978.096	738.624
114.191	13.252	977.652	738.650
115.206	13.215	976.579	737.607
116.220	13.249	975.635	736.982
117.235	13.188	975.097	736.239
118.249	13.227	973.802	735.370
119.264	13.273	972.785	734.739
120.279	13.122	972.305	733.639
121.293	13.272	971.407	733.562
122.308	13.166	970.900	732.645
123.322	13.321	969.805	732.442
124.337	13.090	969.472	731.102
125.352	13.062	967.735	729.604
126.366	13.046	967.055	728.957
127.381	13.062	965.652	727.906
128.395	13.124	964.623	727.339
129.410	13.181	963.337	726.555
130.424	13.209	962.551	726.021
131.439	13.178	961.918	725.342
132.454	13.278	960.991	725.019
133.468	13.131	960.287	723.778
134.483	13.224	959.938	723.858
135.497	13.320	958.759	723.324
136.512	13.285	958.120	722.627
137.527	13.215	957.559	721.834
138.541	13.240	956.890	721.376
139.556	13.209	955.985	720.492
140.570	13.141	955.440	719.721
141.585	13.289	954.592	719.665
142.600	13.308	953.956	719.205
143.614	13.354	953.140	718.724
144.629	13.358	952.014	717.828
145.643	13.564	951.402	718.200
146.658	13.343	950.715	716.658
147.673	13.441	949.496	716.099
148.687	13.321	948.931	715.093
149.702	13.384	947.770	714.425
150.716	13.177	947.467	713.239
151.731	13.260	945.969	712.409
152.746	13.298	945.721	712.322
153.760	13.346	944.989	711.912
154.775	13.326	944.214	711.182
155.789	13.396	943.220	710.672
156.804	13.364	942.445	709.887
157.819	13.422	941.912	709.669
158.833	13.446	941.237	709.203
159.848	13.433	940.949	708.866
160.862	13.574	939.342	708.194
161.877	13.485	938.767	707.320
162.892	13.492	938.190	706.851
163.906	13.539	937.191	706.237
164.921	13.435	936.438	705.165
165.935	13.424	935.591	704.415
166.950	13.364	934.990	703.647
167.964	13.535	934.008	703.574
168.979	13.365	933.066	702.077
169.994	13.493	932.305	701.987
171.008	13.504	930.947	700.948
172.023	13.434	930.548	700.291
173.037	13.558	929.914	700.277
174.052	13.602	928.948	699.671
175.067	13.562	928.308	698.959
176.081	13.610	927.617	698.579
177.096	13.478	926.804	697.349
178.110	13.458	926.254	696.790
179.125	13.494	925.226	696.106
180.140	13.488	924.391	695.390
181.154	13.527	923.742	695.006
182.169	13.528	923.372	694.669
183.183	13.519	922.570	693.967
184.198	13.767	921.968	694.491
185.213	13.767	921.197	693.850
186.227	13.710	920.438	692.978
187.242	13.701	920.209	692.706
188.256	13.943	918.903	692.671
189.271	13.838	918.616	691.955
190.286	13.878	917.968	691.574
191.300	13.623	917.129	689.819
192.315	13.619	916.436	689.219
193.329	13.435	915.923	688.008
194.344	13.594	914.849	687.799
195.359	13.519	914.705	687.321
196.373	13.797	913.917	687.821
197.388	13.709	913.815	687.318
198.402	13.737	912.969	686.736
199.417	13.894	912.594	687.041
200.432	13.900	912.057	686.604
201.446	13.915	911.671	686.313
202.461	14.074	911.124	686.498
203.475	14.009	910.822	685.941
204.490	14.095	909.939	685.571
205.504	13.934	909.177	684.271
206.519	13.912	908.391	683.529
207.534	14.026	907.487	683.257
208.548	14.056	906.719	682.740
209.563	13.937	906.172	681.780
210.577	13.976	905.511	681.382
211.592	13.930	904.985	680.739
212.607	14.028	904.532	680.737
213.621	14.150	903.843	680.658
214.636	14.186	903.039	680.141
215.650	14.103	902.435	679.287
216.665	14.161	901.727	678.932
217.680	14.137	901.369	678.504
218.694	14.214	900.972	678.457
219.709	14.258	900.313	678.080
220.723	14.318	899.418	677.592
221.738	14.312	898.685	676.953
222.753	14.332	897.993	676.454
223.767	14.293	897.675	675.995
224.782	14.225	896.647	674.886
225.796	14.322	896.160	674.853
226.811	14.457	895.184	674.605
227.826	14.392	894.696	673.914
228.840	14.347	894.112	673.232
229.855	14.328	893.412	672.571
230.869	14.293	892.730	671.858
231.884	14.316	892.126	671.437
232.899	14.308	891.317	670.734
233.913	14.385	890.302	670.221
234.928	14.353	889.674	669.559
235.942	14.199	889.144	668.485
236.957	14.228	888.591	668.124
237.972	14.388	888.017	668.275
238.986	14.315	887.313	667.394
240.001	14.318	887.103	667.190
241.015	14.356	886.050	666.491
242.030	14.451	885.288	666.240
243.045	14.431	884.472	665.485
244.059	14.555	883.901	665.491
245.074	14.567	883.545	665.212
246.088	14.502	882.689	664.253
247.103	14.617	882.393	664.426
248.117	14.481	881.765	663.354
249.132	14.651	881.174	663.526
250.147	14.619	880.522	662.848
251.161	14.641	880.087	662.553
252.176	14.760	879.408	662.454
253.190	14.618	878.782	661.360
254.205	14.940	877.719	661.774
255.220	14.895	877.306	661.228
256.234	14.970	876.431	660.809
257.249	14.786	876.368	659.974
258.263	14.969	875.556	660.025
259.278	14.948	875.214	659.629
260.293	14.890	874.878	659.088
261.307	14.909	873.899	658.367
262.322	15.010	873.152	658.143
263.336	15.178	872.130	657.972
264.351	14.978	872.366	657.306
265.366	15.066	871.497	656.940
266.380	14.984	871.098	656.260
267.395	14.976	870.445	655.680
268.409	15.006	869.457	654.993
269.424	15.120	868.277	654.492
270.439	14.978	867.743	653.476
271.453	15.010	867.111	653.068
272.468	15.016	866.285	652.411
273.482	15.056	865.804	652.147
274.497	15.131	865.472	652.132
275.512	15.206	864.369	651.534
276.526	15.119	863.913	650.795
277.541	14.966	863.750	650.019
278.555	15.002	862.740	649.340
279.570	15.068	862.064	649.031
280.585	15.136	861.696	648.959
281.599	15.239	861.016	648.792
282.614	15.294	860.313	648.416
283.628	15.275	859.661	647.795
284.643	15.063	859.368	646.698
285.657	15.186	859.016	646.849
286.672	15.134	858.265	646.024
287.687	15.320	858.009	646.493
288.701	15.246	857.511	645.777
289.716	15.285	856.675	645.238
290.730	15.441	856.359	645.543
291.745	15.314	855.186	644.117
292.760	15.319	854.725	643.729
293.774	15.262	854.293	643.129
294.789	15.424	853.729	643.268
295.803	15.501	852.823	642.823
296.818	15.506	852.055	642.207
297.833	15.339	852.020	641.484
298.847	15.411	850.909	640.865
299.862	15.408	850.234	640.289
300.876	15.454	849.222	639.647
301.891	15.540	848.807	639.606
302.906	15.541	848.406	639.250
303.920	15.555	847.400	638.488
304.935	15.462	847.342	638.035
305.949	15.505	846.713	637.667
306.964	15.598	845.920	637.369
307.979	15.674	844.976	636.887
308.993	15.707	844.765	636.796
310.008	15.753	844.009	636.346
311.022	15.722	843.781	635.999
312.037	15.826	842.780	635.582
313.052	15.715	842.802	635.123
314.066	15.702	841.858	634.305
315.081	15.630	841.631	633.809
316.095	15.676	840.717	633.238
317.110	15.512	840.663	632.521
318.125	15.734	839.901	632.728
319.139	15.583	839.702	631.955
320.154	15.694	839.019	631.803
321.168	15.717	838.118	631.152
322.183	15.766	837.655	630.931
323.197	15.805	837.609	630.991
324.212	15.706	836.539	629.757
325.227	15.742	835.862	629.325
326.241	15.754	835.448	629.002
327.256	15.815	834.958	628.804
328.270	15.757	834.706	628.343
329.285	15.885	833.449	627.818
330.300	15.849	833.268	627.495
331.314	15.801	832.712	626.842
332.329	15.797	831.957	626.203
333.343	15.854	831.118	625.728
334.358	16.010	830.657	625.903
335.373	16.008	830.358	625.617
336.387	15.932	830.043	625.041
337.402	15.996	829.222	624.604
338.416	16.090	828.806	624.584
339.431	16.059	828.272	624.012
340.446	16.169	827.560	623.828
341.460	16.128	827.077	623.258
342.475	16.140	826.130	622.531
343.489	16.181	825.641	622.259
344.504	16.176	825.373	621.984
345.519	16.279	824.711	621.811
346.533	16.369	824.137	621.652
347.548	16.276	823.937	621.107
348.562	16.244	823.455	620.567
349.577	16.255	822.616	619.921
350.592	16.238	821.959	619.311
351.606	16.202	821.423	618.719
352.621	16.241	821.444	618.822
353.635	15.994	821.334	617.779
354.650	16.278	820.649	618.252
355.665	16.240	820.186	617.708
356.679	16.316	819.447	617.373
357.694	16.371	818.813	617.044
358.708	16.438	818.015	616.631
359.723	16.315	817.968	616.093
360.738	16.307	817.438	615.611
361.752	16.410	816.675	615.357
362.767	16.586	816.354	615.702
363.781	16.511	815.682	614.867
364.796	16.468	815.573	614.574
365.810	16.443	815.078	614.054
366.825	16.651	814.886	614.613
367.840	16.555	814.556	613.961
368.854	16.750	813.835	614.069
369.869	16.621	813.573	613.348
370.883	16.626	812.690	612.648
371.898	16.667	812.264	612.422
372.913	16.529	811.950	611.630
373.927	16.557	811.406	611.269
374.942	16.479	810.691	610.393
375.956	16.692	809.954	610.551
376.971	16.564	809.822	609.939
377.986	16.740	808.800	609.748
379.000	16.700	808.576	609.381
380.015	16.795	808.008	609.241
381.029	16.764	807.732	608.868
382.044	16.880	806.703	608.454
383.059	16.929	806.047	608.079
384.073	16.850	805.876	607.614
385.088	16.878	805.179	607.135
386.102	16.809	804.754	606.515
387.117	16.830	804.006	605.972
388.132	16.789	803.749	605.579
389.146	16.837	803.403	605.437
390.161	16.873	802.946	605.166
391.175	17.031	802.470	605.317
392.190	16.773	802.535	604.392
393.205	16.841	801.855	604.072
394.219	16.930	801.633	604.166
395.234	16.944	800.752	603.497
396.248	16.856	800.149	602.676
397.263	16.824	799.724	602.192
398.278	16.875	799.248	601.960
399.292	16.824	798.969	601.515
400.307	16.715	798.384	600.635
401.321	16.785	798.078	600.601
402.336	17.059	797.811	601.316
403.350	16.899	797.494	600.458
404.365	16.926	797.006	600.132
405.380	17.023	796.521	600.058
406.394	16.999	796.314	599.764
407.409	17.065	795.580	599.390
408.423	17.239	794.629	599.237
409.438	17.284	794.313	599.102
410.453	17.225	794.201	598.759
411.467	17.369	793.654	598.798
412.482	17.231	793.312	598.003
413.496	17.307	792.878	597.888
414.511	17.320	792.603	597.675
415.526	17.368	791.875	597.241
416.540	17.308	791.857	596.965
417.555	17.439	791.180	596.862
418.569	17.295	790.982	596.155
419.584	17.188	790.405	595.290
420.599	17.386	789.843	595.509
421.613	110.843	1292.974	1477.158
422.628	95.172	1366.272	1477.264
