DTS Sentinel unit serial number:	SN413079Multiplexer serial number:	ORYXHardware model number:	OX4-SRSoftware version number:	ORYX F/W v4.00 Oryx Data Collector v3.7.2.0data status	okinstallation	princeton_trtdifferential loss correction	single-endedforward channel	channel 3reverse channel	N/Adate	2019/09/19time	01:00:35forward acquisition time	60.00reverse acquisition time	0.00gamma	496.2192k internal	0.2347k external	0.2347temperature offset calibration	0.9995default loss term (dB/km)	0.3790temperature slope calibration	1.0000multiplexer offset coefficient	1.0000multiplexer slope coefficient	1.0000fibre end	0.00T internal ref (°C)	21.94T ext. ref 1 (°C)	0.73T ext. ref 2 (°C)	15.37length (m)	temperature (°C)	Stokes	anti-Stokes-747.200	-160.726	-0.337	0.018
-746.185	-200.000	-0.021	0.383
-745.171	-147.193	0.182	0.015
-744.156	717.495	0.046	-0.123
-743.142	-114.011	-0.036	0.007
-742.127	-200.000	0.003	0.333
-741.112	96.964	-0.302	-0.346
-740.098	-5.216	0.213	-0.147
-739.083	-130.964	-0.287	-0.038
-738.069	-139.738	-0.161	0.017
-737.054	17.443	-0.135	-0.107
-736.039	800.000	-0.124	-0.367
-735.025	59.222	0.297	0.292
-734.010	39.067	-0.187	-0.167
-732.996	681.401	-0.030	-0.078
-731.981	-103.479	-0.125	-0.029
-730.966	-200.000	-0.043	-0.259
-729.952	247.359	-0.147	0.248
-728.937	278.841	-0.110	-0.196
-727.923	-50.832	-0.090	-0.042
-726.908	800.000	-0.027	-0.103
-725.894	800.000	-0.053	-0.220
-724.879	-200.000	0.102	0.483
-723.864	657.865	0.066	0.170
-722.850	82.882	-0.094	-0.102
-721.835	-200.000	-0.014	0.286
-720.821	762.739	-0.088	-0.238
-719.806	800.000	-0.083	-0.321
-718.791	467.426	-0.054	-0.121
-717.777	0.652	-0.299	-0.214
-716.762	133.281	0.072	0.093
-715.748	750.813	0.099	-0.267
-714.733	-200.000	-0.010	-0.310
-713.718	159.537	0.257	-0.357
-712.704	-200.000	-0.041	0.424
-711.689	-111.475	-0.334	0.068
-710.675	800.000	-0.095	-0.310
-709.660	230.721	0.101	-0.165
-708.645	60.094	0.156	-0.154
-707.631	-200.000	-0.021	-0.291
-706.616	656.697	-0.071	-0.181
-705.602	-200.000	0.006	0.032
-704.587	-116.348	-0.101	-0.019
-703.572	230.343	-0.038	0.063
-702.558	-101.297	0.246	-0.060
-701.543	-33.269	-0.313	-0.173
-700.529	800.000	0.075	-0.274
-699.514	460.809	-0.138	0.307
-698.499	96.133	0.074	-0.084
-697.485	-200.000	0.031	-0.149
-696.470	-200.000	-0.019	-0.167
-695.456	-200.000	-0.095	-0.550
-694.441	10.419	0.197	0.149
-693.426	-128.694	0.322	0.045
-692.412	800.000	-0.062	0.176
-691.397	59.372	-0.140	-0.137
-690.383	-48.581	-0.190	-0.091
-689.368	-200.000	0.002	-0.104
-688.354	-160.647	-0.253	0.013
-687.339	800.000	-0.085	0.273
-686.324	-51.604	-0.216	-0.101
-685.310	10.872	-0.190	0.145
-684.295	561.612	0.035	0.084
-683.281	-94.515	-0.160	-0.044
-682.266	-157.670	-0.294	-0.017
-681.251	-100.294	0.358	0.089
-680.237	800.000	-0.089	-0.334
-679.222	-74.821	0.306	-0.109
-678.208	-165.135	0.331	-0.015
-677.193	-152.350	-0.408	0.029
-676.178	-138.741	0.414	-0.045
-675.164	-120.211	-0.523	0.089
-674.149	800.000	0.066	-0.260
-673.135	-97.314	0.092	0.024
-672.120	-107.381	-0.222	-0.048
-671.105	-200.000	0.320	-0.001
-670.091	-51.267	-0.097	0.045
-669.076	-106.723	-0.195	0.043
-668.062	308.603	-0.144	0.269
-667.047	-200.000	0.002	0.121
-666.032	-200.000	-0.038	-0.235
-665.018	-0.892	0.065	-0.046
-664.003	197.007	-0.274	-0.417
-662.989	-200.000	0.012	-0.098
-661.974	28.896	-0.326	0.276
-660.959	74.701	0.204	-0.214
-659.945	-15.159	-0.128	0.082
-658.930	-36.456	0.064	0.034
-657.916	420.009	-0.116	-0.247
-656.901	-124.983	-0.335	0.051
-655.886	-68.001	-0.334	-0.130
-654.872	-19.739	-0.057	0.035
-653.857	142.297	-0.070	0.092
-652.843	205.183	-0.073	-0.113
-651.828	800.000	0.069	-0.255
-650.814	-160.601	-0.110	0.006
-649.799	-140.686	-0.320	0.033
-648.784	224.533	-0.148	-0.238
-647.770	-124.923	-0.319	-0.049
-646.755	420.745	0.080	-0.171
-645.741	-70.603	-0.060	0.023
-644.726	-159.367	0.234	-0.013
-643.711	93.288	0.229	0.258
-642.697	-55.762	-0.175	-0.078
-641.682	-57.290	-0.240	-0.105
-640.668	-65.187	-0.268	-0.108
-639.653	800.000	0.034	0.108
-638.638	-137.271	0.237	-0.027
-637.624	40.367	0.100	0.090
-636.609	-103.749	0.122	0.028
-635.595	-3.746	-0.346	0.239
-634.580	-115.820	-0.032	-0.006
-633.565	2.836	-0.254	0.183
-632.551	-120.915	-0.108	0.018
-631.536	528.464	0.088	0.207
-630.522	-102.216	0.116	0.028
-629.507	-31.975	-0.277	-0.154
-628.492	800.000	-0.037	-0.128
-627.478	800.000	-0.085	-0.269
-626.463	-100.550	0.438	0.108
-625.449	-106.597	0.145	-0.032
-624.434	-15.895	-0.171	-0.108
-623.419	-147.381	-0.117	-0.010
-622.405	126.359	0.053	0.067
-621.390	-69.973	-0.092	0.035
-620.376	-200.000	-0.060	-0.334
-619.361	312.854	-0.062	-0.116
-618.346	17.666	-0.334	-0.264
-617.332	762.111	0.036	-0.098
-616.317	-200.000	-0.012	0.092
-615.303	-200.000	0.048	-0.243
-614.288	-71.327	-0.281	-0.105
-613.273	81.527	-0.099	-0.106
-612.259	-86.466	-0.311	-0.095
-611.244	-198.211	0.170	-0.001
-610.230	-98.367	-0.175	-0.045
-609.215	59.434	-0.168	-0.164
-608.201	-200.000	-0.011	0.277
-607.186	-200.000	0.045	0.386
-606.171	6.760	-0.129	0.095
-605.157	-174.823	0.072	-0.002
-604.142	57.015	-0.151	0.146
-603.128	-161.205	-0.145	-0.008
-602.113	93.025	0.078	-0.087
-601.098	-200.000	-0.011	-0.157
-600.084	3.016	-0.267	0.193
-599.069	-31.446	-0.144	0.081
-598.055	327.514	-0.171	-0.326
-597.040	-200.000	0.013	0.288
-596.025	115.009	-0.073	0.089
-595.011	-103.984	-0.310	-0.072
-593.996	-136.870	-0.058	0.007
-592.982	-200.000	-0.033	0.267
-591.967	-59.557	-0.099	0.042
-590.952	24.649	-0.156	-0.129
-589.938	151.886	-0.107	0.145
-588.923	-125.829	-0.048	-0.007
-587.909	-200.000	-0.012	-0.093
-586.894	-199.191	0.325	-0.002
-585.879	800.000	-0.053	-0.183
-584.865	184.640	0.093	-0.137
-583.850	-88.951	0.134	0.040
-582.836	21.921	-0.321	0.260
-581.821	-107.125	0.307	-0.067
-580.806	108.084	-0.123	-0.145
-579.792	17.004	-0.128	0.101
-578.777	122.234	0.031	0.039
-577.763	-200.000	0.023	0.163
-576.748	-17.408	-0.303	-0.190
-575.733	-30.067	-0.188	-0.106
-574.719	377.753	0.173	0.352
-573.704	-56.304	-0.056	-0.025
-572.690	-200.000	-0.017	-0.162
-571.675	125.313	0.074	-0.092
-570.661	-104.156	0.339	0.078
-569.646	-133.566	0.169	0.021
-568.631	-200.000	0.034	-0.306
-567.617	-200.000	0.014	0.000
-566.602	-85.441	0.230	0.071
-565.588	-82.388	-0.174	0.056
-564.573	270.994	0.060	0.105
-563.558	-5.167	0.108	0.073
-562.544	84.683	-0.173	0.188
-561.529	-200.000	-0.121	0.733
-560.515	-74.460	-0.243	-0.087
-559.500	-200.000	0.074	0.349
-558.485	-200.000	-0.036	0.164
-557.471	-61.109	-0.348	-0.146
-556.456	-44.988	-0.268	0.132
-555.442	-75.881	-0.319	0.112
-554.427	-128.240	-0.370	-0.052
-553.412	25.864	-0.330	0.273
-552.398	-82.538	0.166	0.053
-551.383	-200.000	0.001	0.017
-550.369	99.308	0.179	-0.205
-549.354	-77.756	-0.294	-0.101
-548.339	-47.912	-0.189	0.091
-547.325	-79.450	0.257	-0.086
-546.310	243.316	-0.005	0.009
-545.296	142.943	0.196	-0.259
-544.281	-97.910	-0.272	-0.070
-543.266	30.029	-0.049	-0.042
-542.252	-122.445	0.241	-0.039
-541.237	212.956	-0.106	0.165
-540.223	-102.372	0.349	0.083
-539.208	-43.558	-0.075	-0.038
-538.193	73.470	0.061	0.063
-537.179	-182.451	-0.135	-0.002
-536.164	-44.502	-0.301	0.149
-535.150	170.790	0.083	0.118
-534.135	425.828	0.185	-0.395
-533.121	-200.000	0.041	0.181
-532.106	74.695	0.237	0.247
-531.091	-5.006	-0.204	0.139
-530.077	-152.391	-0.043	-0.003
-529.062	208.685	-0.020	0.030
-528.048	800.000	-0.017	0.071
-527.033	-149.747	0.178	0.014
-526.018	-200.000	-0.007	0.039
-525.004	800.000	0.040	-0.117
-523.989	-84.148	-0.100	-0.032
-522.975	-200.000	-0.007	-0.074
-521.960	56.829	-0.123	0.119
-520.945	-11.540	0.102	0.066
-519.931	800.000	-0.042	-0.151
-518.916	800.000	0.113	-0.345
-517.902	800.000	-0.136	-0.400
-516.887	-128.107	0.165	-0.023
-515.872	-200.000	-0.013	0.339
-514.858	-200.000	-0.001	-0.166
-513.843	-145.466	0.482	0.043
-512.829	-200.000	0.036	0.212
-511.814	13.273	0.324	-0.249
-510.799	-109.659	0.299	-0.062
-509.785	-200.000	-0.007	0.099
-508.770	-52.016	-0.148	-0.068
-507.756	193.757	0.138	0.207
-506.741	221.188	-0.169	-0.269
-505.726	-200.000	-0.009	0.054
-504.712	70.162	0.219	0.224
-503.697	23.476	-0.082	0.066
-502.683	16.898	0.276	0.216
-501.668	-123.466	-0.167	0.026
-500.653	-106.342	0.228	-0.050
-499.639	-105.540	0.289	0.065
-498.624	3.355	0.087	-0.063
-497.610	-59.969	-0.193	-0.082
-496.595	-11.752	0.072	-0.047
-495.581	800.000	0.119	-0.327
-494.566	-84.982	0.072	-0.022
-493.551	223.479	-0.194	0.309
-492.537	69.818	0.218	0.223
-491.522	-80.736	-0.116	0.038
-490.508	359.358	0.042	0.084
-489.493	84.621	0.158	0.171
-488.478	800.000	-0.039	-0.131
-487.464	-27.749	-0.381	0.218
-486.449	-114.939	0.212	-0.040
-485.435	220.077	-0.090	-0.142
-484.420	749.851	-0.073	0.195
-483.405	146.210	0.078	0.103
-482.391	-18.362	0.100	-0.062
-481.376	22.930	0.252	0.204
-480.362	124.424	-0.094	0.117
-479.347	137.031	0.101	0.131
-478.332	-133.110	0.276	0.035
-477.318	592.351	-0.121	0.295
-476.303	455.206	-0.020	-0.044
-475.289	79.338	-0.065	-0.069
-474.274	-200.000	-0.003	-0.423
-473.259	310.837	-0.178	-0.331
-472.245	-200.000	0.028	0.180
-471.230	-132.972	-0.142	0.018
-470.216	-141.713	0.464	-0.046
-469.201	-140.274	0.259	0.027
-468.186	118.721	0.231	0.282
-467.172	262.231	0.047	0.080
-466.157	592.125	-0.093	0.227
-465.143	-108.848	0.402	0.085
-464.128	-177.494	-0.317	-0.008
-463.113	-61.510	-0.105	0.044
-462.099	-200.000	-0.007	-0.117
-461.084	159.789	-0.172	-0.236
-460.070	-200.000	0.023	-0.207
-459.055	-200.000	0.031	0.134
-458.040	-40.490	0.230	-0.118
-457.026	658.161	0.069	-0.174
-456.011	-153.420	-0.215	0.015
-454.997	227.907	-0.046	0.075
-453.982	800.000	-0.007	0.024
-452.968	28.868	0.237	-0.198
-451.953	255.350	0.080	0.136
-450.938	-126.770	-0.179	0.026
-449.924	-121.634	-0.122	0.020
-448.909	63.701	0.221	0.219
-447.895	48.609	0.124	-0.115
-446.880	-39.213	0.228	-0.119
-445.865	-200.000	-0.007	0.174
-444.851	800.000	-0.047	-0.154
-443.836	-19.926	-0.237	-0.145
-442.822	-93.163	0.111	-0.030
-441.807	183.364	-0.148	-0.215
-440.792	133.452	-0.076	-0.097
-439.778	115.271	-0.217	0.262
-438.763	-20.609	-0.432	-0.262
-437.749	57.870	-0.055	0.053
-436.734	-37.218	-0.070	0.037
-435.719	129.423	-0.156	-0.197
-434.705	-148.410	0.038	-0.003
-433.690	-115.740	-0.223	-0.041
-432.676	-61.636	-0.073	0.030
-431.661	-200.000	-0.037	-0.393
-430.646	76.638	0.264	-0.277
-429.632	-120.089	0.096	-0.016
-428.617	-91.002	0.194	0.055
-427.603	-14.916	-0.149	-0.094
-426.588	-184.238	0.331	0.005
-425.573	-51.164	0.249	0.115
-424.559	370.250	0.164	-0.329
-423.544	-102.835	0.226	0.053
-422.530	-47.758	0.272	0.130
-421.515	207.319	-0.099	-0.152
-420.500	-103.889	-0.183	-0.042
-419.486	134.334	0.284	0.364
-418.471	-200.000	0.025	0.164
-417.457	-146.882	-0.073	-0.006
-416.442	-85.515	0.275	0.085
-415.428	23.617	0.165	0.134
-414.413	800.000	0.074	-0.210
-413.398	800.000	-0.022	-0.084
-412.384	-200.000	0.013	0.146
-411.369	-96.800	-0.218	-0.057
-410.355	-117.719	0.165	0.029
-409.340	21.237	-0.252	-0.202
-408.325	-99.654	0.423	0.105
-407.311	-128.329	0.049	0.007
-406.296	800.000	-0.050	-0.188
-405.282	800.000	-0.059	-0.230
-404.267	800.000	0.085	-0.274
-403.252	-200.000	-0.063	0.000
-402.238	-137.862	-0.395	-0.044
-401.223	689.028	0.104	0.269
-400.209	800.000	-0.106	-0.361
-399.194	423.808	0.041	-0.087
-398.179	421.522	-0.038	0.081
-397.165	-76.834	-0.204	-0.070
-396.150	68.931	0.227	0.230
-395.136	62.701	-0.129	-0.127
-394.121	68.520	-0.108	0.110
-393.106	-200.000	0.001	0.236
-392.092	-18.000	0.192	-0.119
-391.077	134.751	0.089	0.114
-390.063	-103.570	0.463	-0.107
-389.048	-25.257	0.133	0.078
-388.033	463.932	-0.024	0.053
-387.019	-125.598	-0.159	-0.024
-386.004	281.312	-0.059	-0.104
-384.990	126.358	0.189	0.236
-383.975	-23.755	-0.351	0.207
-382.960	443.585	0.060	-0.130
-381.946	-200.000	-0.051	0.249
-380.931	288.201	-0.200	0.357
-379.917	-26.715	-0.127	-0.073
-378.902	35.890	0.190	0.165
-377.888	-120.717	0.313	-0.052
-376.873	-170.244	0.190	0.007
-375.858	-62.844	0.108	0.044
-374.844	-200.000	-0.005	0.085
-373.829	72.609	0.052	0.053
-372.815	-91.106	-0.320	-0.090
-371.800	-156.861	0.469	0.028
-370.785	-200.000	-0.006	-0.027
-369.771	-62.227	-0.366	0.150
-368.756	194.304	-0.256	-0.383
-367.742	525.621	-0.222	-0.515
-366.727	-200.000	0.034	0.300
-365.712	179.328	-0.238	0.343
-364.698	-60.773	-0.124	0.052
-363.683	-46.875	-0.108	-0.052
-362.669	800.000	-0.079	0.231
-361.654	74.485	0.181	-0.187
-360.639	24.342	0.295	-0.240
-359.625	-198.414	-0.201	-0.001
-358.610	-16.381	0.183	0.114
-357.596	649.444	-0.075	-0.190
-356.581	-200.000	0.008	0.185
-355.566	150.548	-0.059	-0.078
-354.552	-173.166	-0.116	-0.004
-353.537	-81.562	-0.185	-0.060
-352.523	-200.000	-0.004	0.132
-351.508	-200.000	0.003	0.207
-350.493	-200.000	-0.032	0.227
-349.479	-101.834	0.501	0.119
-348.464	-200.000	-0.019	-0.459
-347.450	800.000	-0.057	-0.164
-346.435	800.000	0.078	-0.238
-345.420	119.495	-0.158	-0.192
-344.406	-200.000	-0.034	-0.153
-343.391	-129.123	0.216	-0.030
-342.377	462.199	0.069	-0.152
-341.362	800.000	-0.018	-0.063
-340.348	-154.833	0.243	-0.016
-339.333	99.092	0.079	0.090
-338.318	800.000	0.075	0.269
-337.304	-49.522	-0.165	0.077
-336.289	388.045	0.139	0.284
-335.275	614.417	0.061	-0.150
-334.260	800.000	-0.046	-0.197
-333.245	26.024	-0.057	0.047
-332.231	-56.411	0.024	0.010
-331.216	-19.158	-0.262	-0.160
-330.202	-84.448	-0.308	0.096
-329.187	-160.319	-0.035	-0.002
-328.172	-149.039	0.170	0.013
-327.158	-200.000	-0.010	0.072
-326.143	800.000	0.056	0.220
-325.129	-160.516	0.180	-0.009
-324.114	198.036	0.041	-0.061
-323.099	-52.588	-0.092	0.042
-322.085	27.043	-0.168	-0.139
-321.070	-74.242	-0.259	0.092
-320.056	435.729	0.090	-0.192
-319.041	-63.082	-0.186	-0.076
-318.026	30.120	0.279	-0.234
-317.012	-159.828	0.081	0.004
-315.997	800.000	-0.076	0.206
-314.983	270.226	0.065	-0.112
-313.968	-74.597	0.196	0.069
-312.953	83.507	0.078	0.084
-311.939	-48.061	0.261	-0.124
-310.924	-120.267	0.256	0.043
-309.910	59.009	0.088	0.085
-308.895	-200.000	0.021	0.190
-307.880	-200.000	0.005	0.031
-306.866	44.574	0.287	0.259
-305.851	13.689	0.226	-0.172
-304.837	-73.643	-0.126	-0.045
-303.822	-123.025	0.217	-0.034
-302.807	800.000	-0.067	0.220
-301.793	-67.485	-0.195	0.075
-300.778	54.657	-0.437	0.414
-299.764	-132.967	-0.336	0.042
-298.749	-126.569	0.173	-0.025
-297.735	-115.283	-0.161	-0.030
-296.720	37.070	0.126	-0.110
-295.705	199.552	0.153	0.231
-294.691	800.000	0.061	0.222
-293.676	-70.942	0.234	-0.086
-292.662	172.021	-0.162	-0.229
-291.647	15.998	-0.166	-0.128
-290.632	-23.388	-0.089	-0.052
-289.618	-99.706	0.296	0.073
-288.603	-38.759	-0.188	0.097
-287.589	-42.449	-0.214	0.107
-286.574	-58.371	0.107	0.045
-285.559	-200.000	0.045	-0.220
-284.545	800.000	-0.109	-0.391
-283.530	-174.488	0.203	0.006
-282.516	70.533	-0.049	0.050
-281.501	-2.260	0.053	0.037
-280.486	800.000	-0.031	-0.112
-279.472	800.000	-0.106	-0.320
-278.457	-101.525	0.240	-0.057
-277.443	133.564	0.158	-0.201
-276.428	38.248	0.065	0.057
-275.413	-117.867	-0.231	0.041
-274.399	37.750	0.069	-0.061
-273.384	315.736	0.068	-0.125
-272.370	51.320	-0.219	-0.204
-271.355	-122.279	0.234	0.037
-270.340	-61.256	0.099	0.041
-269.326	-126.551	-0.309	0.045
-268.311	635.052	0.096	0.238
-267.297	147.756	-0.144	0.191
-266.282	-200.000	-0.014	0.294
-265.267	-176.440	-0.172	0.004
-264.253	-200.000	-0.078	-0.350
-263.238	-200.000	-0.007	0.114
-262.224	-200.000	0.017	0.256
-261.209	800.000	-0.088	0.240
-260.195	-103.348	0.208	0.048
-259.180	-141.891	0.078	0.008
-258.165	-50.082	-0.289	0.134
-257.151	106.675	0.118	-0.138
-256.136	411.887	0.094	-0.196
-255.122	211.665	0.073	0.113
-254.107	121.967	-0.130	-0.159
-253.092	-127.207	0.186	0.027
-252.078	-101.854	-0.386	-0.092
-251.063	294.466	0.011	-0.019
-250.049	226.026	-0.040	0.063
-249.034	-200.000	-0.008	0.078
-248.019	-112.778	0.110	0.021
-247.005	-200.000	0.011	0.220
-245.990	-200.000	0.067	0.291
-244.976	-200.000	0.059	0.295
-243.961	-150.607	0.142	-0.011
-242.946	72.872	-0.369	0.377
-241.932	230.634	-0.081	0.131
-240.917	-69.911	0.167	0.062
-239.903	283.520	0.087	-0.153
-238.888	-135.655	-0.570	-0.066
-237.873	-200.000	0.003	-0.155
-236.859	-56.818	0.328	0.142
-235.844	-42.596	-0.042	0.021
-234.830	63.550	-0.100	-0.099
-233.815	-200.000	-0.060	0.263
-232.800	147.288	0.191	-0.252
-231.786	800.000	0.095	-0.261
-230.771	-200.000	0.048	0.245
-229.757	-200.000	-0.063	0.000
-228.742	-200.000	0.058	0.281
-227.727	618.122	-0.188	0.461
-226.713	-43.716	-0.204	-0.101
-225.698	-100.589	0.066	0.016
-224.684	-38.802	0.302	-0.156
-223.669	-200.000	-0.011	-0.076
-222.655	-42.871	-0.279	-0.139
-221.640	-14.210	0.210	-0.133
-220.625	398.628	-0.089	-0.183
-219.611	70.130	0.265	0.268
-218.596	69.635	-0.060	0.061
-217.582	128.180	0.047	0.058
-216.567	800.000	-0.015	-0.045
-215.552	-64.539	-0.484	-0.192
-214.538	97.259	0.099	-0.111
-213.523	800.000	-0.070	-0.240
-212.509	-110.557	0.030	0.006
-211.494	-49.205	0.014	0.006
-210.479	-200.000	0.057	-0.408
-209.465	181.783	-0.175	0.252
-208.450	-51.225	0.306	0.140
-207.436	5.443	0.199	0.143
-206.421	-28.290	-0.134	0.076
-205.406	128.084	-0.076	0.094
-204.392	-109.307	-0.120	0.025
-203.377	154.702	0.084	-0.114
-202.363	-122.855	-0.106	0.017
-201.348	-57.718	0.423	-0.181
-200.333	-47.799	-0.210	0.099
-199.319	154.196	0.152	-0.204
-198.304	-53.490	0.376	0.168
-197.290	-200.000	0.010	-0.094
-196.275	-21.932	0.178	0.106
-195.260	-18.471	0.002	0.001
-194.246	-129.689	-0.344	-0.046
-193.231	-86.948	0.087	-0.026
-192.217	-8.724	-0.140	0.092
-191.202	591.372	-0.114	-0.274
-190.187	69.440	0.068	0.069
-189.173	-119.797	-0.117	0.020
-188.158	-15.472	-0.131	-0.082
-187.144	800.000	0.148	-0.479
-186.129	720.922	0.082	-0.214
-185.114	-200.000	0.011	0.443
-184.100	125.591	0.130	0.160
-183.085	-40.542	0.174	-0.088
-182.071	119.255	-0.043	0.052
-181.056	345.115	0.052	0.100
-180.042	-2.483	-0.093	0.064
-179.027	-102.302	0.071	-0.017
-178.012	141.029	0.075	0.097
-176.998	125.625	0.106	-0.131
-175.983	20.400	0.179	-0.141
-174.969	-200.000	0.032	0.446
-173.954	-32.507	-0.111	0.060
-172.939	149.866	0.214	-0.283
-171.925	-97.644	-0.301	-0.076
-170.910	-147.970	-0.116	0.009
-169.896	-200.000	0.018	0.353
-168.881	-200.000	0.034	0.153
-167.866	-92.620	-0.227	-0.062
-166.852	-18.779	-0.164	-0.100
-165.837	57.683	0.409	-0.391
-164.823	-200.000	-0.002	-0.254
-163.808	-21.700	-0.116	0.069
-162.793	-27.568	0.101	0.057
-161.779	415.186	-0.089	-0.185
-160.764	129.063	0.154	-0.192
-159.750	-10.227	-0.230	-0.149
-158.735	122.344	0.047	0.057
-157.720	213.779	0.146	-0.226
-156.706	-105.518	-0.227	0.050
-155.691	700.019	0.157	-0.404
-154.677	800.000	-0.022	-0.085
-153.662	-17.293	0.409	-0.251
-152.647	800.000	0.063	-0.172
-151.633	-148.769	0.229	0.018
-150.618	189.200	0.057	0.083
-149.604	800.000	0.022	0.086
-148.589	-200.000	-0.056	0.379
-147.574	-81.991	-0.302	0.096
-146.560	207.547	0.017	0.027
-145.545	-200.000	0.028	-0.181
-144.531	-90.699	-0.128	0.036
-143.516	-65.476	0.330	-0.129
-142.502	-60.156	0.363	-0.151
-141.487	-200.000	0.035	-0.186
-140.472	-200.000	-0.014	-0.340
-139.458	-26.787	0.519	0.296
-138.443	-59.013	0.100	0.042
-137.429	-200.000	-0.053	0.250
-136.414	28.012	-0.263	-0.216
-135.399	-128.783	-0.117	-0.016
-134.385	294.498	-0.088	0.157
-133.370	-135.932	-0.299	0.034
-132.356	24.187	0.162	0.130
-131.341	-22.187	-0.314	0.186
-130.326	-28.261	0.055	-0.031
-129.312	-104.082	-0.160	-0.036
-128.297	-67.589	-0.521	-0.199
-127.283	6.446	0.069	-0.050
-126.268	28.115	-0.313	0.257
-125.253	-200.000	-0.024	0.114
-124.239	-118.284	0.355	0.062
-123.224	-25.329	0.192	0.111
-122.210	507.932	0.103	-0.233
-121.195	-77.777	-0.160	0.054
-120.180	800.000	0.047	-0.169
-119.166	800.000	-0.091	0.250
-118.151	800.000	-0.029	0.104
-117.137	-146.490	-0.041	-0.004
-116.122	75.037	0.052	0.053
-115.107	19.247	0.121	-0.095
-114.093	-200.000	-0.050	-0.215
-113.078	-200.000	0.006	0.127
-112.064	298.748	0.142	0.255
-111.049	-135.718	-0.719	-0.083
-110.034	293.684	-0.157	-0.280
-109.020	800.000	-0.175	0.534
-108.005	-200.000	0.013	0.446
-106.991	350.354	0.106	0.205
-105.976	-39.601	-0.089	0.045
-104.962	225.310	-0.048	0.075
-103.947	-123.434	0.129	0.020
-102.932	138.730	-0.107	-0.137
-101.918	-158.237	0.218	-0.012
-100.903	-87.255	0.216	0.064
-99.889	35.112	-0.317	-0.270
-98.874	249.023	0.176	-0.290
-97.859	-91.030	0.219	-0.061
-96.845	-90.574	-0.202	-0.057
-95.830	4.705	-0.000	0.000
-94.816	-200.000	0.020	-0.138
-93.801	179.044	0.104	0.149
-92.786	-31.243	-0.305	-0.168
-91.772	154.522	0.191	-0.256
-90.757	-111.991	-0.212	-0.042
-89.743	-119.743	0.218	0.037
-88.728	-20.409	-0.188	0.113
-87.713	178.069	-0.224	0.318
-86.699	800.000	-0.038	-0.161
-85.684	-106.287	-0.145	-0.032
-84.670	-39.444	0.109	0.055
-83.655	43.443	0.398	0.355
-82.640	50.661	-0.346	-0.319
-81.626	-72.353	0.230	-0.083
-80.611	-66.159	-0.173	0.067
-79.597	-74.523	0.539	0.189
-78.582	-200.000	0.095	-0.449
-77.567	68.666	-0.313	-0.312
-76.553	467.951	0.201	0.440
-75.538	-1.414	-0.240	-0.165
-74.524	14.546	0.226	-0.172
-73.509	26.975	-0.235	0.192
-72.494	800.000	0.080	-0.232
-71.480	-105.565	-0.238	-0.052
-70.465	-67.545	-0.277	0.106
-69.451	85.635	-0.128	-0.137
-68.436	149.896	0.102	0.135
-67.422	56.716	-0.042	0.040
-66.407	-200.000	-0.025	-0.266
-65.392	-200.000	-0.006	-0.251
-64.378	800.000	-0.006	0.022
-63.363	218.107	0.162	-0.252
-62.349	-96.456	0.260	-0.067
-61.334	47.791	-1.318	-1.198
-60.319	238.445	0.612	0.990
-59.305	564.919	-0.663	-1.564
-58.290	800.000	0.558	1.674
-57.276	194.934	0.847	1.251
-56.261	-200.000	134.274	687.728
-55.246	356.406	1663.817	3225.076
-54.232	134.732	2800.522	3536.855
-53.217	90.747	2189.851	2387.327
-52.203	32.201	1703.629	1429.908
-51.188	24.872	1525.931	1230.534
-50.173	23.201	1502.779	1200.497
-49.159	47.322	1578.596	1430.386
-48.144	44.027	1590.092	1417.750
-47.130	25.031	1537.320	1240.623
-46.115	22.247	1520.810	1208.157
-45.100	22.024	1517.266	1203.760
-44.086	21.989	1515.495	1202.071
-43.071	21.983	1513.713	1200.570
-42.057	21.853	1512.604	1198.751
-41.042	21.913	1511.090	1197.911
-40.027	21.916	1509.291	1196.458
-39.013	21.880	1507.613	1194.840
-37.998	21.816	1507.053	1193.912
-36.984	21.933	1505.817	1193.681
-35.969	21.947	1504.475	1192.666
-34.954	21.951	1502.988	1191.463
-33.940	21.814	1502.224	1189.881
-32.925	21.906	1500.133	1188.805
-31.911	21.889	1499.011	1187.753
-30.896	21.920	1497.509	1186.724
-29.881	21.946	1496.812	1186.298
-28.867	21.977	1495.203	1185.186
-27.852	21.975	1493.361	1183.667
-26.838	22.077	1491.988	1183.215
-25.823	21.879	1490.965	1181.028
-24.809	21.955	1489.098	1180.011
-23.794	22.018	1487.592	1179.195
-22.779	22.021	1486.691	1178.456
-21.765	22.058	1485.441	1177.667
-20.750	22.011	1484.748	1176.752
-19.736	21.980	1483.275	1175.331
-18.721	22.020	1482.237	1174.733
-17.706	22.023	1481.311	1173.973
-16.692	21.940	1480.117	1172.419
-15.677	21.951	1479.192	1171.714
-14.663	21.909	1478.420	1170.779
-13.648	21.914	1477.328	1169.899
-12.633	21.969	1476.407	1169.490
-11.619	21.856	1476.117	1168.465
-10.604	21.895	1475.033	1167.819
-9.590	21.859	1473.955	1166.680
-8.575	22.054	1472.494	1166.774
-7.560	21.889	1472.657	1165.756
-6.546	21.911	1471.546	1164.981
-5.531	21.947	1470.541	1164.378
-4.517	21.893	1469.266	1162.961
-3.502	21.903	1468.513	1162.386
-2.487	21.921	1467.080	1161.324
-1.473	21.928	1466.345	1160.745
-0.458	21.944	1464.785	1159.568
0.556	20.901	1455.156	1147.383
1.571	17.660	1430.182	1106.585
2.586	13.981	1367.730	1035.285
3.600	12.410	1283.546	962.285
4.615	11.600	1239.477	924.585
5.629	10.222	1183.180	875.061
6.644	5.469	1102.646	791.429
7.659	1.465	1067.609	746.575
8.673	0.851	1062.854	740.178
9.688	0.680	1059.515	736.954
10.702	0.680	1057.916	735.776
11.717	0.690	1055.525	734.098
12.731	2.342	1056.205	742.533
13.746	8.170	1063.529	776.039
14.761	14.227	1072.160	811.895
15.775	17.088	1074.943	827.903
16.790	17.033	1073.954	826.804
17.804	16.066	1071.579	820.199
18.819	15.402	1069.606	815.387
19.834	14.704	1068.358	810.977
20.848	14.447	1068.132	809.486
21.863	14.223	1067.378	807.755
22.877	14.034	1066.251	805.916
23.892	13.874	1064.824	803.988
24.907	13.773	1063.942	802.766
25.921	13.684	1063.991	802.297
26.936	13.740	1063.223	801.919
27.950	13.772	1062.338	801.334
28.965	13.870	1061.878	801.392
29.980	13.915	1060.229	800.293
30.994	13.805	1059.983	799.508
32.009	13.899	1059.044	799.178
33.023	13.995	1058.321	799.024
34.038	13.972	1057.746	798.408
35.053	13.914	1056.548	797.158
36.067	13.941	1055.720	796.590
37.082	13.890	1055.269	795.938
38.096	13.991	1054.032	795.415
39.111	14.045	1053.398	795.126
40.126	13.859	1052.285	793.325
41.140	13.941	1051.151	792.794
42.155	13.828	1050.221	791.482
43.169	13.842	1049.756	791.127
44.184	13.739	1048.780	789.833
45.199	13.839	1047.427	789.217
46.213	13.662	1046.368	787.508
47.228	13.761	1045.387	787.173
48.242	13.797	1044.477	786.590
49.257	13.831	1043.281	785.778
50.271	13.887	1042.322	785.250
51.286	13.818	1041.823	784.480
52.301	13.880	1040.994	784.080
53.315	13.904	1040.088	783.439
54.330	13.925	1039.360	782.922
55.344	13.862	1038.837	782.159
56.359	13.890	1037.400	781.142
57.374	13.856	1036.736	780.416
58.388	13.871	1035.744	779.668
59.403	13.820	1035.227	778.969
60.417	13.801	1034.317	778.128
61.432	13.744	1034.011	777.561
62.447	13.850	1032.860	777.126
63.461	13.720	1032.398	776.098
64.476	13.705	1031.569	775.335
65.490	13.653	1030.529	774.244
66.505	13.810	1029.036	773.788
67.520	13.727	1028.788	773.143
68.534	13.925	1028.084	773.467
69.549	13.873	1026.971	772.319
70.563	13.778	1026.951	771.797
71.578	13.786	1026.212	771.209
72.593	13.809	1025.059	770.381
73.607	13.747	1023.910	769.165
74.622	13.610	1023.136	767.876
75.636	13.783	1022.114	767.845
76.651	13.742	1021.148	766.863
77.666	13.771	1020.492	766.433
78.680	13.670	1020.014	765.540
79.695	13.786	1019.149	765.357
80.709	13.843	1018.401	764.995
81.724	13.945	1017.572	764.774
82.739	13.918	1016.685	763.913
83.753	13.793	1016.142	762.860
84.768	13.826	1015.507	762.471
85.782	13.819	1014.721	761.781
86.797	13.985	1013.943	761.893
87.812	14.025	1013.147	761.407
88.826	13.874	1012.183	759.923
89.841	13.782	1011.848	759.183
90.855	13.810	1010.805	758.463
91.870	13.986	1010.017	758.611
92.884	14.144	1008.757	758.315
93.899	14.120	1008.244	757.754
94.914	13.916	1007.835	756.449
95.928	14.041	1007.208	756.483
96.943	14.056	1006.376	755.857
97.957	14.016	1005.224	754.742
98.972	14.064	1004.721	754.517
99.987	13.995	1003.933	753.545
101.001	13.990	1003.286	752.970
102.016	14.120	1002.317	752.765
103.030	14.066	1001.207	751.622
104.045	14.096	1000.610	751.241
105.060	14.081	999.011	749.907
106.074	14.065	998.520	749.402
107.089	14.016	997.487	748.340
108.103	13.858	997.131	747.295
109.118	13.894	995.873	746.446
110.133	13.916	995.160	745.947
111.147	13.877	994.264	745.035
112.162	13.893	993.349	744.351
113.176	13.940	992.751	744.049
114.191	13.888	992.207	743.345
115.206	13.905	991.186	742.587
116.220	13.921	990.326	741.951
117.235	13.968	989.325	741.344
118.249	13.840	989.013	740.473
119.264	13.972	987.384	739.777
120.279	13.882	986.862	738.922
121.293	13.935	986.203	738.594
122.308	13.843	985.543	737.627
123.322	13.957	984.318	737.151
124.337	13.948	983.221	736.226
125.352	14.022	982.314	735.808
126.366	13.859	981.395	734.334
127.381	13.908	980.369	733.718
128.395	13.897	978.858	732.473
129.410	13.835	978.171	731.620
130.424	13.802	977.410	730.842
131.439	13.966	976.390	730.734
132.454	14.006	975.835	730.434
133.468	13.860	975.178	729.235
134.483	13.996	974.288	729.101
135.497	13.931	973.593	728.233
136.512	13.899	972.688	727.349
137.527	13.825	972.426	726.767
138.541	13.924	971.354	726.335
139.556	13.946	970.489	725.717
140.570	13.956	970.152	725.447
141.585	13.910	969.237	724.497
142.600	14.162	968.151	724.719
143.614	14.130	967.593	724.098
144.629	14.144	966.880	723.562
145.643	14.187	965.925	722.968
146.658	14.162	965.417	722.418
147.673	14.069	964.733	721.435
148.687	14.152	963.541	720.842
149.702	14.162	963.125	720.510
150.716	14.070	962.158	719.326
151.731	14.044	961.447	718.616
152.746	14.022	960.966	718.100
153.760	13.984	960.046	717.182
154.775	14.099	959.151	716.949
155.789	14.105	958.226	716.221
156.804	14.087	957.805	715.764
157.819	14.233	956.551	715.390
158.833	14.141	956.288	714.735
159.848	14.357	955.263	714.832
160.862	14.285	954.862	714.161
161.877	14.276	954.182	713.551
162.892	14.272	953.181	712.722
163.906	14.300	952.103	711.972
164.921	14.317	951.453	711.497
165.935	14.242	950.846	710.659
166.950	14.246	949.579	709.668
167.964	14.253	949.217	709.360
168.979	14.285	948.061	708.572
169.994	14.144	947.302	707.341
171.008	14.210	946.400	706.886
172.023	14.301	945.816	706.775
173.037	14.333	944.910	706.172
174.052	14.359	944.482	705.897
175.067	14.430	943.425	705.347
176.081	14.388	942.688	704.554
177.096	14.380	941.674	703.700
178.110	14.238	940.976	702.519
179.125	14.152	940.588	701.802
180.140	14.423	939.380	701.979
181.154	14.367	938.919	701.341
182.169	14.399	938.154	700.842
183.183	14.430	937.783	700.633
184.198	14.538	936.490	700.055
185.213	14.432	935.917	699.124
186.227	14.424	935.470	698.694
187.242	14.607	934.716	698.835
188.256	14.665	934.104	698.556
189.271	14.645	933.644	698.068
190.286	14.648	932.649	697.275
191.300	14.502	931.973	696.099
192.315	14.567	931.093	695.649
193.329	14.489	930.676	694.954
194.344	14.531	929.777	694.393
195.359	14.481	929.474	693.899
196.373	14.538	928.934	693.670
197.388	14.579	928.340	693.335
198.402	14.672	927.466	693.007
199.417	14.744	927.057	692.940
200.432	14.623	926.828	692.204
201.446	14.780	926.268	692.377
202.461	14.788	925.725	691.945
203.475	14.931	925.166	692.054
204.490	14.837	924.441	691.065
205.504	14.741	923.503	689.904
206.519	14.781	923.392	689.927
207.534	14.837	922.532	689.452
208.548	14.603	921.522	687.672
209.563	14.705	921.247	687.828
210.577	14.842	920.187	687.538
211.592	14.731	919.611	686.593
212.607	14.814	919.220	686.579
213.621	14.946	918.384	686.435
214.636	14.826	917.703	685.374
215.650	14.953	916.786	685.150
216.665	14.839	916.597	684.482
217.680	14.945	916.215	684.569
218.694	14.909	915.333	683.701
219.709	15.091	914.597	683.836
220.723	15.009	913.970	682.970
221.738	15.036	913.358	682.565
222.753	14.956	912.830	681.780
223.767	15.012	912.055	681.372
224.782	14.992	911.392	680.736
225.796	15.044	910.385	680.132
226.811	14.999	909.736	679.407
227.826	15.088	908.760	678.977
228.840	15.176	907.922	678.646
229.855	15.110	907.321	677.869
230.869	14.978	907.393	677.331
231.884	14.979	906.587	676.672
232.899	15.134	905.315	676.290
233.913	15.135	904.892	675.917
234.928	15.017	904.163	674.839
235.942	15.014	903.429	674.217
236.957	14.981	903.003	673.708
237.972	15.033	902.510	673.488
238.986	15.132	901.580	673.132
240.001	15.147	900.553	672.367
241.015	15.258	900.298	672.562
242.030	15.235	899.412	671.751
243.045	15.301	898.433	671.223
244.059	15.207	898.687	670.977
245.074	15.243	897.665	670.298
246.088	15.179	897.062	669.534
247.103	15.398	896.547	669.965
248.117	15.325	895.845	669.090
249.132	15.406	895.164	668.845
250.147	15.530	894.596	668.854
251.161	15.429	893.953	667.913
252.176	15.517	893.082	667.551
253.190	15.568	892.374	667.167
254.205	15.619	891.558	666.699
255.220	15.580	891.176	666.202
256.234	15.593	890.390	665.607
257.249	15.499	890.325	665.125
258.263	15.700	889.067	664.923
259.278	15.757	888.454	664.632
260.293	15.802	888.076	664.467
261.307	15.742	887.643	663.846
262.322	15.741	886.860	663.200
263.336	15.764	886.488	662.951
264.351	15.919	885.707	662.918
265.366	15.893	885.161	662.348
266.380	15.764	884.723	661.457
267.395	15.901	883.706	661.177
268.409	15.803	883.069	660.255
269.424	15.815	882.373	659.724
270.439	15.848	881.660	659.262
271.453	15.759	881.166	658.485
272.468	15.961	880.186	658.483
273.482	15.833	879.677	657.548
274.497	15.888	879.068	657.248
275.512	15.913	878.620	656.953
276.526	15.897	877.735	656.171
277.541	15.961	876.765	655.635
278.555	15.944	876.449	655.276
279.570	15.912	876.054	654.797
280.585	15.980	875.700	654.739
281.599	15.751	875.295	653.489
282.614	16.010	874.066	653.517
283.628	16.012	874.008	653.425
284.643	16.060	873.239	652.977
285.657	15.933	872.551	651.914
286.672	16.116	871.828	652.025
287.687	16.186	871.429	651.937
288.701	16.102	871.093	651.306
289.716	16.099	870.706	650.946
290.730	16.154	869.848	650.459
291.745	16.195	869.102	650.001
292.760	16.346	867.683	649.464
293.774	16.226	867.757	649.002
294.789	16.351	867.436	649.185
295.803	16.246	866.569	648.072
296.818	16.330	865.579	647.598
297.833	16.239	865.235	646.935
298.847	16.160	864.604	646.102
299.862	16.152	864.250	645.752
300.876	16.343	863.291	645.708
301.891	16.333	862.936	645.348
302.906	16.320	862.290	644.758
303.920	16.380	861.484	644.326
304.935	16.377	860.483	643.510
305.949	16.373	860.310	643.309
306.964	16.630	859.347	643.509
307.979	16.439	859.241	642.644
308.993	16.464	858.677	642.262
310.008	16.559	857.648	641.795
311.022	16.409	857.524	641.076
312.037	16.619	856.898	641.348
313.052	16.591	856.029	640.536
314.066	16.470	855.967	639.975
315.081	16.524	854.907	639.329
316.095	16.528	854.312	638.842
317.110	16.553	853.723	638.438
318.125	16.666	853.364	638.540
319.139	16.439	852.790	637.200
320.154	16.388	852.509	636.743
321.168	16.549	851.664	636.659
322.183	16.632	851.255	636.611
323.197	16.489	850.661	635.573
324.212	16.578	850.236	635.532
325.227	16.644	849.764	635.372
326.241	16.718	849.140	635.126
327.256	16.662	848.524	634.397
328.270	16.639	848.263	634.062
329.285	16.646	847.503	633.465
330.300	16.636	846.711	632.777
331.314	16.710	846.288	632.682
332.329	16.662	845.394	631.779
333.343	16.858	844.791	632.002
334.358	16.862	844.302	631.595
335.373	16.751	843.861	630.797
336.387	16.650	843.362	629.993
337.402	16.824	842.882	630.227
338.416	16.854	842.385	629.911
339.431	17.008	841.498	629.764
340.446	16.871	841.154	628.940
341.460	16.841	840.908	628.589
342.475	16.911	840.336	628.366
343.489	17.109	839.014	628.054
344.504	17.057	838.428	627.368
345.519	17.024	838.587	627.308
346.533	17.054	838.031	626.948
347.548	16.977	837.657	626.329
348.562	17.079	836.571	625.838
349.577	16.904	836.647	625.195
350.592	17.026	835.590	624.799
351.606	17.015	835.089	624.328
352.621	17.041	834.973	624.280
353.635	17.112	834.388	624.049
354.650	16.983	834.183	623.367
355.665	17.086	833.684	623.318
356.679	17.158	833.147	623.124
357.694	17.121	832.684	622.589
358.708	17.060	832.298	622.022
359.723	17.149	831.454	621.659
360.738	17.176	830.889	621.281
361.752	17.254	830.283	621.060
362.767	17.279	830.174	621.013
363.781	17.290	829.817	620.733
364.796	17.230	829.393	620.139
365.810	17.274	828.725	619.749
366.825	17.460	828.144	619.937
367.840	17.382	827.841	619.369
368.854	17.456	827.578	619.389
369.869	17.539	826.699	618.977
370.883	17.511	826.071	618.349
371.898	17.301	825.954	617.443
372.913	17.263	825.528	616.933
373.927	17.484	824.883	617.200
374.942	17.483	823.933	616.429
375.956	17.524	823.251	616.013
376.971	17.619	822.799	615.963
377.986	17.588	822.099	615.271
379.000	17.719	821.634	615.343
380.015	17.657	821.360	614.861
381.029	17.498	820.985	613.952
382.044	17.766	819.820	613.989
383.059	17.627	819.832	613.446
384.073	17.460	819.401	612.470
385.088	17.711	818.452	612.606
386.102	17.744	817.993	612.329
387.117	17.797	817.434	612.045
388.132	17.724	816.988	611.394
389.146	17.636	816.559	610.704
390.161	17.774	816.235	610.903
391.175	17.792	815.995	610.733
392.190	17.822	815.198	610.189
393.205	17.768	815.116	609.881
394.219	17.786	814.476	609.411
395.234	17.887	813.642	609.094
396.248	17.652	813.600	608.173
397.263	17.799	812.836	608.071
398.278	17.786	812.613	607.804
399.292	17.718	812.536	607.450
400.307	17.696	812.085	606.982
401.321	17.539	811.747	606.115
402.336	17.835	811.247	606.742
403.350	17.724	810.663	605.857
404.365	17.774	810.311	605.718
405.380	17.901	809.473	605.488
406.394	17.887	809.143	605.137
407.409	17.925	808.698	604.884
408.423	17.877	808.117	604.227
409.438	17.965	807.756	604.214
410.453	17.941	807.416	603.822
411.467	18.134	806.843	604.022
412.482	18.028	806.494	603.333
413.496	18.111	805.725	602.997
414.511	18.220	805.574	603.216
415.526	18.228	805.210	602.919
416.540	18.201	804.716	602.399
417.555	18.184	804.559	602.170
418.569	18.096	803.856	601.282
419.584	18.222	803.615	601.489
420.599	18.348	802.674	601.174
421.613	115.751	1298.953	1489.980
422.628	99.965	1371.210	1490.074
