DTS Sentinel unit serial number:	SN413079Multiplexer serial number:	ORYXHardware model number:	OX4-SRSoftware version number:	ORYX F/W v4.00 Oryx Data Collector v3.7.2.0data status	okinstallation	princeton_trtdifferential loss correction	single-endedforward channel	channel 3reverse channel	N/Adate	2019/09/11time	17:42:11forward acquisition time	60.00reverse acquisition time	0.00gamma	496.2192k internal	0.2286k external	0.2286temperature offset calibration	0.9995default loss term (dB/km)	0.3790temperature slope calibration	1.0000multiplexer offset coefficient	1.0000multiplexer slope coefficient	1.0000fibre end	0.00T internal ref (°C)	43.86T ext. ref 1 (°C)	1.08T ext. ref 2 (°C)	38.90length (m)	temperature (°C)	Stokes	anti-Stokes-747.200	-26.534	-0.087	-0.052
-746.185	37.827	-0.130	0.119
-745.171	-67.577	0.241	0.097
-744.156	452.039	0.177	0.400
-743.142	38.870	0.205	0.188
-742.127	800.000	0.117	0.476
-741.112	-181.343	-0.114	-0.002
-740.098	-200.000	0.007	0.417
-739.083	-150.051	0.114	0.009
-738.069	-77.914	0.181	0.064
-737.054	-164.207	-0.275	-0.013
-736.039	46.249	-0.098	-0.093
-735.025	-165.666	0.238	0.011
-734.010	11.126	-0.245	-0.192
-732.996	50.047	-0.157	-0.152
-731.981	-112.029	-0.248	-0.051
-730.966	447.382	-0.122	0.276
-729.952	-139.172	-0.321	-0.036
-728.937	800.000	0.045	-0.154
-727.923	-200.000	0.024	-0.315
-726.908	-55.240	0.151	0.070
-725.894	84.090	-0.335	-0.375
-724.879	20.197	-0.289	0.239
-723.864	-54.646	-0.205	-0.095
-722.850	-169.032	-0.491	-0.019
-721.835	800.000	0.075	-0.287
-720.821	95.346	-0.131	0.153
-719.806	800.000	0.066	-0.263
-718.791	-200.000	-0.017	0.237
-717.777	-75.652	-0.139	-0.050
-716.762	111.483	-0.087	0.107
-715.748	-181.971	0.140	-0.003
-714.733	-200.000	0.042	-0.274
-713.718	800.000	-0.028	-0.117
-712.704	-22.829	-0.242	0.150
-711.689	-200.000	0.055	0.429
-710.675	59.612	-0.153	-0.155
-709.660	25.960	-0.046	-0.040
-708.645	101.765	0.099	0.118
-707.631	30.323	-0.011	-0.010
-706.616	126.327	-0.110	-0.142
-705.602	288.554	0.181	0.336
-704.587	-138.959	0.295	0.033
-703.572	3.344	-0.125	0.093
-702.558	-199.361	-0.260	0.001
-701.543	-113.303	-0.110	0.022
-700.529	-53.351	0.055	-0.026
-699.514	-89.471	-0.093	-0.028
-698.499	-63.853	0.140	0.059
-697.485	-132.150	0.090	0.012
-696.470	-0.152	0.113	0.082
-695.456	-10.745	-0.065	0.044
-694.441	138.654	0.107	-0.143
-693.426	-61.647	-0.088	0.038
-692.412	330.325	-0.064	-0.126
-691.397	-86.227	-0.144	-0.045
-690.383	-200.000	-0.016	0.099
-689.368	-200.000	0.013	-0.060
-688.354	25.301	-0.283	-0.241
-687.339	-54.114	-0.179	-0.083
-686.324	-119.356	0.121	0.022
-685.310	-200.000	-0.059	0.312
-684.295	-115.724	-0.175	0.034
-683.281	0.882	-0.293	0.215
-682.266	535.487	0.014	-0.033
-681.251	142.762	-0.070	0.095
-680.237	-20.049	-0.083	-0.052
-679.222	-118.380	0.205	0.037
-678.208	-99.955	-0.297	0.076
-677.193	636.807	0.124	0.322
-676.178	94.803	-0.233	-0.271
-675.164	-87.863	0.485	-0.149
-674.149	-25.636	0.241	0.146
-673.135	3.574	0.126	-0.094
-672.120	-200.000	-0.019	-0.159
-671.105	121.720	0.073	-0.093
-670.091	782.377	-0.015	-0.041
-669.076	800.000	-0.050	0.172
-668.062	-59.330	-0.076	-0.033
-667.047	-80.411	-0.198	0.068
-666.032	800.000	0.092	0.280
-665.018	11.114	0.125	-0.098
-664.003	-160.410	-0.336	0.018
-662.989	-102.844	-0.202	0.049
-661.974	-200.000	-0.074	0.000
-660.959	-56.273	-0.316	-0.144
-659.945	579.712	-0.018	0.044
-658.930	-200.000	-0.024	-0.245
-657.916	-93.032	-0.188	-0.054
-656.901	-9.875	-0.086	0.058
-655.886	-143.901	-0.204	-0.020
-654.872	-98.553	-0.207	-0.054
-653.857	83.578	0.103	-0.115
-652.843	106.402	0.077	0.093
-651.828	800.000	-0.031	0.090
-650.814	-55.060	-0.221	-0.102
-649.799	-200.000	-0.010	-0.237
-648.784	-102.477	0.038	-0.009
-647.770	-13.967	-0.195	-0.129
-646.755	-160.283	-0.077	0.004
-645.741	-200.000	0.052	-0.455
-644.726	-200.000	-0.001	-0.126
-643.711	-200.000	0.038	0.312
-642.697	-95.342	-0.250	-0.069
-641.682	-200.000	-0.010	-0.275
-640.668	-137.724	-0.069	0.008
-639.653	-200.000	-0.009	-0.076
-638.638	63.512	-0.225	0.230
-637.624	-200.000	0.003	-0.070
-636.609	-82.708	0.261	-0.086
-635.595	208.502	-0.187	-0.298
-634.580	11.161	0.129	0.101
-633.565	494.490	-0.156	0.366
-632.551	-102.159	0.087	0.021
-631.536	-58.642	-0.143	-0.063
-630.522	212.488	-0.029	-0.046
-629.507	50.759	0.151	0.146
-628.492	-141.495	0.107	0.011
-627.478	-6.194	0.100	-0.069
-626.463	-111.666	0.244	-0.050
-625.449	18.780	-0.142	-0.116
-624.434	-20.680	-0.179	0.113
-623.419	-200.000	-0.007	0.096
-622.405	51.392	0.058	-0.056
-621.390	-5.159	-0.172	0.121
-620.376	800.000	-0.089	-0.392
-619.361	-200.000	0.010	-0.095
-618.346	-2.597	-0.214	-0.153
-617.332	-73.219	-0.241	-0.090
-616.317	800.000	0.050	-0.197
-615.303	-161.611	0.058	0.003
-614.288	-200.000	0.072	0.356
-613.273	305.855	0.042	-0.080
-612.259	-87.217	-0.369	0.115
-611.244	195.292	-0.073	-0.113
-610.230	166.672	-0.155	0.224
-609.215	-70.803	-0.087	-0.034
-608.201	-99.642	0.106	-0.027
-607.186	-200.000	0.001	0.183
-606.171	297.798	-0.073	0.137
-605.157	226.836	0.137	0.227
-604.142	53.311	-0.090	0.088
-603.128	35.408	-0.288	0.258
-602.113	-40.690	0.239	0.126
-601.098	69.153	-0.094	0.098
-600.084	-200.000	0.012	-0.192
-599.069	-45.373	0.271	-0.137
-598.055	-200.000	-0.032	0.280
-597.040	800.000	0.045	0.187
-596.025	-40.721	-0.090	-0.048
-595.011	-200.000	0.022	0.423
-593.996	-123.049	0.131	0.021
-592.982	-105.938	0.148	-0.034
-591.967	-200.000	0.023	0.194
-590.952	-8.815	0.228	-0.156
-589.938	-0.001	-0.149	-0.108
-588.923	127.931	-0.045	0.058
-587.909	-22.232	-0.252	-0.156
-586.894	151.254	0.159	-0.221
-585.879	-50.745	0.345	-0.166
-584.865	41.387	-0.046	-0.042
-583.850	-127.279	0.063	0.009
-582.836	276.897	-0.063	0.114
-581.821	-59.314	-0.125	0.055
-580.806	72.794	0.060	-0.063
-579.792	44.687	-0.194	-0.182
-578.777	68.752	-0.427	0.447
-577.763	368.266	0.120	-0.247
-576.748	43.283	0.231	0.215
-575.733	-133.224	-0.287	0.037
-574.719	-200.000	0.032	0.220
-573.704	-181.545	-0.303	0.006
-572.690	-133.030	0.088	0.011
-571.675	-85.041	0.453	-0.145
-570.661	352.127	-0.104	0.209
-569.646	230.634	-0.191	0.319
-568.631	112.948	0.184	0.227
-567.617	0.091	0.256	0.186
-566.602	625.091	0.041	0.105
-565.588	-167.563	0.107	-0.004
-564.573	-200.000	0.011	0.123
-563.558	250.347	-0.162	0.281
-562.544	126.657	-0.127	0.164
-561.529	-28.999	0.079	-0.046
-560.515	-200.000	-0.043	-0.364
-559.500	1.153	-0.065	-0.048
-558.485	67.370	0.120	-0.124
-557.471	77.824	0.260	-0.283
-556.456	-86.920	-0.124	-0.039
-555.442	-102.344	-0.368	-0.090
-554.427	800.000	0.029	-0.087
-553.412	356.535	-0.043	-0.088
-552.398	-84.893	-0.079	-0.025
-551.383	-111.698	0.189	-0.039
-550.369	377.873	0.065	0.135
-549.354	-73.190	0.055	0.021
-548.339	440.457	-0.100	0.223
-547.325	422.533	0.100	-0.218
-546.310	-28.800	-0.205	0.120
-545.296	233.061	-0.039	-0.065
-544.281	73.520	-0.170	0.182
-543.266	-200.000	-0.007	-0.092
-542.252	-95.468	0.360	-0.098
-541.237	2.964	0.166	0.123
-540.223	647.068	-0.013	0.033
-539.208	800.000	-0.033	-0.125
-538.193	20.066	-0.124	-0.102
-537.179	-200.000	0.015	-0.145
-536.164	240.877	0.154	-0.261
-535.150	-92.732	0.157	-0.045
-534.135	176.338	-0.087	-0.128
-533.121	-200.000	-0.014	0.164
-532.106	-56.343	-0.230	0.104
-531.091	-200.000	0.009	0.173
-530.077	64.091	0.105	-0.108
-529.062	-200.000	0.010	-0.112
-528.048	51.871	0.076	-0.074
-527.033	-132.338	0.160	0.021
-526.018	147.578	0.172	-0.236
-525.004	49.884	0.046	-0.045
-523.989	610.709	0.092	-0.233
-522.975	-65.352	-0.163	0.067
-521.960	-110.815	-0.136	-0.029
-520.945	186.538	0.198	0.300
-519.931	-200.000	-0.013	0.120
-518.916	59.906	0.171	-0.172
-517.902	127.209	-0.075	-0.096
-516.887	212.036	-0.067	-0.107
-515.872	-160.300	0.366	-0.020
-514.858	72.233	0.196	0.208
-513.843	800.000	-0.011	0.044
-512.829	244.499	0.142	0.242
-511.814	-30.498	0.307	0.177
-510.799	-95.582	0.136	0.037
-509.785	-73.067	-0.413	-0.154
-508.770	-124.877	0.157	-0.025
-507.756	-163.917	0.195	0.009
-506.741	362.369	0.155	0.316
-505.726	-200.000	0.050	0.256
-504.712	-62.631	-0.081	-0.034
-503.697	65.436	-0.182	-0.187
-502.683	-166.442	-0.367	-0.016
-501.668	-21.373	0.151	-0.094
-500.653	-92.725	0.185	-0.053
-499.639	90.903	-0.293	0.334
-498.624	-200.000	-0.063	0.337
-497.610	-10.918	0.335	0.225
-496.595	16.224	-0.048	-0.039
-495.581	211.768	-0.163	0.261
-494.566	4.574	0.105	-0.078
-493.551	22.988	0.057	0.048
-492.537	-148.924	-0.361	-0.030
-491.522	-180.823	0.098	-0.002
-490.508	89.523	0.211	0.239
-489.493	-99.665	-0.352	0.090
-488.478	322.673	-0.171	0.331
-487.464	-200.000	-0.001	0.034
-486.449	138.516	0.202	-0.270
-485.435	-58.575	0.184	0.081
-484.420	14.728	0.212	-0.169
-483.405	317.096	0.104	0.199
-482.391	-33.904	-0.400	-0.224
-481.376	-40.781	-0.178	0.094
-480.362	-85.957	-0.169	-0.053
-479.347	511.830	-0.049	-0.115
-478.332	362.742	-0.166	0.338
-477.318	-96.600	-0.122	0.033
-476.303	-200.000	0.006	0.116
-475.289	-25.778	0.213	-0.128
-474.274	-118.610	-0.296	0.053
-473.259	-170.040	-0.232	-0.008
-472.245	-114.924	0.253	-0.049
-471.230	172.338	0.232	-0.339
-470.216	189.018	0.043	0.066
-469.201	101.199	0.125	0.147
-468.186	-200.000	-0.017	0.138
-467.172	-200.000	0.024	-0.187
-466.157	-27.966	-0.142	-0.083
-465.143	78.441	-0.192	0.208
-464.128	-200.000	-0.045	0.226
-463.113	395.255	-0.076	0.161
-462.099	400.635	-0.173	-0.368
-461.084	-73.198	0.394	-0.146
-460.070	-200.000	-0.008	-0.063
-459.055	311.192	-0.170	-0.323
-458.040	-149.288	0.160	0.013
-457.026	-5.459	-0.235	-0.164
-456.011	-39.451	0.319	0.169
-454.997	224.058	0.110	0.180
-453.982	-111.307	-0.186	-0.039
-452.968	6.655	-0.122	-0.092
-451.953	-200.000	0.098	-0.440
-450.938	-82.898	0.353	-0.116
-449.924	-200.000	-0.224	-0.001
-448.909	280.081	0.115	-0.208
-447.895	800.000	-0.019	-0.065
-446.880	-200.000	-0.015	-0.303
-445.865	-200.000	0.005	0.430
-444.851	-170.451	-0.103	-0.004
-443.836	-60.166	-0.084	0.036
-442.822	276.589	-0.122	0.220
-441.807	-86.761	0.094	0.029
-440.792	60.544	0.065	-0.065
-439.778	-200.000	-0.021	0.098
-438.763	-200.000	-0.042	0.240
-437.749	800.000	0.032	0.108
-436.734	524.263	-0.049	-0.116
-435.719	-190.313	0.112	-0.001
-434.705	-75.831	-0.025	-0.009
-433.690	79.966	-0.189	-0.206
-432.676	-151.761	0.248	-0.018
-431.661	-62.772	0.310	0.130
-430.646	-93.544	-0.132	0.037
-429.632	-200.000	-0.021	0.110
-428.617	27.409	-0.076	0.065
-427.603	125.134	0.076	0.097
-426.588	-200.000	-0.008	0.319
-425.573	10.509	0.040	0.031
-424.559	-71.954	0.173	0.065
-423.544	209.424	0.076	-0.121
-422.530	-31.904	-0.257	0.146
-421.515	-114.662	0.220	-0.043
-420.500	-5.302	0.056	-0.039
-419.486	-152.854	0.127	0.009
-418.471	-90.533	-0.054	0.016
-417.457	-100.405	-0.293	0.074
-416.442	-70.229	-0.078	-0.030
-415.428	6.864	-0.268	0.203
-414.413	-176.724	0.365	-0.009
-413.398	800.000	-0.130	0.461
-412.384	-115.608	0.267	-0.051
-411.369	-153.339	0.100	-0.007
-410.355	-31.257	0.374	0.214
-409.340	800.000	0.065	0.187
-408.325	365.644	0.055	0.112
-407.311	-200.000	-0.004	-0.130
-406.296	412.884	-0.048	-0.104
-405.282	138.717	0.246	-0.328
-404.267	-200.000	-0.045	-0.227
-403.252	-25.525	0.086	0.052
-402.238	72.437	0.107	-0.113
-401.223	-200.000	-0.058	-0.344
-400.209	-200.000	-0.015	-0.198
-399.194	692.483	-0.136	-0.360
-398.179	800.000	-0.133	-0.450
-397.165	77.564	-0.201	-0.217
-396.150	67.996	-0.109	-0.113
-395.136	-80.175	0.333	-0.113
-394.121	-13.165	-0.112	0.074
-393.106	-71.231	-0.316	0.120
-392.092	57.572	0.140	0.138
-391.077	800.000	-0.089	0.323
-390.063	284.814	-0.095	-0.174
-389.048	-116.532	0.190	0.036
-388.033	-0.060	0.285	-0.205
-387.019	-81.891	0.110	-0.037
-386.004	-152.258	-0.153	0.011
-384.990	800.000	0.054	-0.158
-383.975	83.719	0.088	-0.098
-382.960	5.364	-0.045	0.033
-381.946	-151.557	-0.082	0.006
-380.931	-61.859	0.252	-0.107
-379.917	-200.000	0.046	-0.362
-378.902	147.359	0.119	0.163
-377.888	656.645	0.115	0.300
-376.873	145.460	-0.173	-0.235
-375.858	403.405	0.054	0.116
-374.844	241.877	0.112	0.189
-373.829	-49.495	0.076	-0.037
-372.815	-162.708	-0.375	-0.019
-371.800	-34.869	-0.333	0.184
-370.785	-200.000	0.035	0.327
-369.771	-200.000	0.028	0.237
-368.756	51.559	0.193	0.186
-367.742	-62.028	-0.172	0.072
-366.727	-93.410	-0.065	-0.018
-365.712	329.278	0.132	-0.257
-364.698	216.659	-0.159	-0.255
-363.683	-44.513	-0.220	-0.111
-362.669	800.000	-0.081	-0.254
-361.654	313.154	-0.042	0.080
-360.639	-23.830	0.031	0.019
-359.625	800.000	0.077	0.317
-358.610	161.559	-0.078	0.110
-357.596	800.000	0.042	0.143
-356.581	713.946	-0.017	-0.045
-355.566	21.914	0.189	0.156
-354.552	-103.301	-0.179	0.043
-353.537	25.431	0.260	-0.219
-352.523	129.167	-0.146	-0.188
-351.508	-200.000	0.000	-0.169
-350.493	190.907	0.062	-0.094
-349.479	144.593	0.174	-0.235
-348.464	800.000	0.094	0.265
-347.450	-102.705	0.186	0.045
-346.435	638.237	-0.076	0.194
-345.420	46.420	0.163	-0.152
-344.406	-146.196	0.094	-0.008
-343.391	-144.805	0.043	-0.004
-342.377	-56.071	-0.117	-0.053
-341.362	48.862	0.148	-0.141
-340.348	-200.000	0.041	0.522
-339.333	-170.911	-0.032	0.001
-338.318	-40.930	-0.318	-0.166
-337.304	80.405	-0.112	0.122
-336.289	-62.622	-0.151	0.063
-335.275	-92.009	-0.150	0.043
-334.260	-28.638	-0.102	0.059
-333.245	-76.411	-0.230	0.082
-332.231	12.973	0.185	-0.145
-331.216	800.000	-0.127	-0.372
-330.202	149.768	-0.131	-0.180
-329.187	200.330	-0.011	0.018
-328.172	-143.266	0.068	-0.007
-327.158	-200.000	0.011	0.088
-326.143	322.991	-0.153	0.295
-325.129	-86.012	0.233	0.073
-324.114	156.576	0.127	0.177
-323.099	57.571	-0.393	-0.388
-322.085	800.000	0.049	-0.214
-321.070	800.000	-0.071	0.253
-320.056	-93.250	-0.174	-0.049
-319.041	317.598	-0.054	0.104
-318.026	800.000	0.051	0.197
-317.012	-32.582	0.108	0.061
-315.997	-200.000	-0.007	-0.116
-314.983	800.000	-0.045	-0.182
-313.968	43.104	-0.283	0.261
-312.953	-200.000	0.026	-0.277
-311.939	-200.000	0.031	-0.152
-310.924	-67.731	-0.051	-0.020
-309.910	173.936	-0.072	-0.105
-308.895	-200.000	0.050	-0.309
-307.880	-118.795	0.387	0.069
-306.866	19.449	-0.152	-0.123
-305.851	158.195	-0.127	0.177
-304.837	-200.000	0.030	0.233
-303.822	-28.730	0.115	0.067
-302.807	-200.000	0.051	0.257
-301.793	-200.000	-0.010	0.251
-300.778	101.589	-0.235	-0.276
-299.764	-200.000	-0.030	0.308
-298.749	800.000	0.075	0.255
-297.735	-124.226	0.170	0.027
-296.720	-51.003	-0.199	0.094
-295.705	-79.740	0.221	-0.075
-294.691	43.409	0.079	-0.073
-293.676	157.393	0.202	-0.281
-292.662	-200.000	-0.002	0.065
-291.647	227.036	-0.043	0.070
-290.632	-90.593	-0.140	0.041
-289.618	109.037	-0.065	-0.079
-288.603	-91.605	-0.034	-0.010
-287.589	-125.461	0.190	-0.029
-286.574	576.737	-0.013	-0.033
-285.559	-171.612	0.171	-0.006
-284.545	-59.811	0.282	-0.122
-283.530	-46.969	-0.338	-0.167
-282.516	-46.693	-0.157	0.077
-281.501	102.722	-0.057	0.067
-280.486	-96.129	0.275	0.074
-279.472	-200.000	-0.024	-0.138
-278.457	-200.000	0.003	-0.156
-277.443	511.865	0.032	-0.075
-276.428	-200.000	0.009	-0.301
-275.413	-152.357	-0.085	0.006
-274.399	-117.079	-0.141	-0.026
-273.384	150.796	0.237	-0.324
-272.370	276.942	-0.043	0.077
-271.355	-55.812	-0.165	-0.074
-270.340	24.371	0.064	0.053
-269.326	-114.180	-0.120	-0.023
-268.311	295.623	-0.120	0.222
-267.297	88.193	-0.265	-0.296
-266.282	343.771	-0.174	-0.344
-265.267	-145.020	0.206	-0.019
-264.253	-5.667	-0.271	0.187
-263.238	36.846	0.227	-0.202
-262.224	-200.000	0.008	-0.132
-261.209	-35.995	-0.227	0.124
-260.195	-200.000	-0.026	0.192
-259.180	28.688	-0.199	-0.170
-258.165	-200.000	0.006	-0.335
-257.151	235.863	0.171	-0.284
-256.136	43.103	0.254	-0.233
-255.122	96.788	-0.097	-0.112
-254.107	-72.278	-0.199	-0.074
-253.092	228.483	-0.102	-0.167
-252.078	-17.676	0.200	-0.126
-251.063	-115.162	0.616	0.117
-250.049	-146.401	-0.028	-0.002
-249.034	-170.068	-0.308	-0.011
-248.019	-200.000	0.001	0.087
-247.005	112.873	-0.094	-0.115
-245.990	-200.000	-0.051	-0.234
-244.976	39.249	0.041	0.037
-243.961	378.485	0.116	0.239
-242.946	310.466	-0.078	0.148
-241.932	-88.099	-0.086	-0.026
-240.917	174.072	0.136	0.198
-239.903	391.204	-0.046	-0.097
-238.888	86.204	-0.050	-0.056
-237.873	-137.097	0.281	-0.032
-236.859	-53.206	0.131	-0.060
-235.844	-200.000	0.038	-0.227
-234.830	246.257	0.151	0.256
-233.815	10.460	0.324	-0.248
-232.800	-27.388	0.367	-0.215
-231.786	800.000	0.086	0.325
-230.771	79.650	-0.238	0.257
-229.757	-81.641	-0.257	0.085
-228.742	800.000	-0.091	0.259
-227.727	-76.551	-0.107	0.038
-226.713	52.150	0.081	-0.078
-225.698	682.114	0.117	0.306
-224.684	397.995	-0.056	0.117
-223.669	-200.000	-0.017	0.296
-222.655	-200.000	-0.032	0.357
-221.640	-81.103	-0.254	0.084
-220.625	-108.158	0.062	0.013
-219.611	-200.000	0.017	-0.106
-218.596	378.372	-0.070	-0.143
-217.582	-200.000	0.024	0.138
-216.567	86.698	-0.228	0.253
-215.552	-200.000	0.022	-0.253
-214.538	349.493	-0.122	-0.243
-213.523	-200.000	-0.028	-0.200
-212.509	-92.318	-0.151	-0.043
-211.494	-16.731	0.350	-0.222
-210.479	34.460	-0.086	0.076
-209.465	-75.458	-0.357	0.128
-208.450	44.177	-0.265	-0.244
-207.436	573.359	0.076	-0.186
-206.421	-36.686	0.315	-0.170
-205.406	-200.000	-0.028	-0.427
-204.392	-61.085	0.202	-0.085
-203.377	-189.899	-0.149	0.002
-202.363	-110.744	-0.028	0.006
-201.348	752.378	-0.107	0.291
-200.333	-0.219	0.194	0.138
-199.319	-200.000	-0.015	0.186
-198.304	800.000	-0.037	0.115
-197.290	-200.000	0.006	0.300
-196.275	-85.192	-0.136	0.043
-195.260	-77.450	-0.370	-0.129
-194.246	-12.986	0.250	-0.163
-193.231	-117.474	-0.182	-0.033
-192.217	-200.000	-0.005	0.024
-191.202	-8.867	0.116	0.078
-190.187	37.907	0.303	-0.271
-189.173	362.997	0.161	-0.324
-188.158	75.792	0.139	-0.147
-187.144	-181.427	-0.110	-0.002
-186.129	-133.016	0.218	0.028
-185.114	427.438	-0.203	0.439
-184.100	488.090	-0.078	0.178
-183.085	-89.800	-0.188	-0.055
-182.071	-49.535	-0.089	-0.042
-181.056	-45.392	-0.155	0.077
-180.042	-51.709	-0.232	0.109
-179.027	219.122	-0.078	0.126
-178.012	-43.906	-0.197	-0.099
-176.998	800.000	-0.036	-0.149
-175.983	130.954	-0.145	-0.187
-174.969	-200.000	-0.007	0.036
-173.954	38.558	0.094	-0.084
-172.939	-66.812	-0.122	0.048
-171.925	800.000	0.051	-0.176
-170.910	-106.211	0.139	0.031
-169.896	-200.000	0.063	0.338
-168.881	-15.012	0.421	0.271
-167.866	144.010	-0.112	-0.149
-166.852	261.028	-0.034	0.060
-165.837	30.199	0.245	-0.210
-164.823	-200.000	0.007	0.177
-163.808	-43.356	-0.226	-0.114
-162.793	15.693	0.454	0.358
-161.779	-75.986	0.169	-0.060
-160.764	559.550	-0.124	-0.300
-159.750	-32.109	0.158	-0.089
-158.735	-15.641	0.097	-0.062
-157.720	283.388	0.033	0.059
-156.706	-116.273	-0.074	0.014
-155.691	-200.000	0.010	-0.199
-154.677	240.773	0.092	0.155
-153.662	-200.000	0.056	0.281
-152.647	-33.287	0.374	0.208
-151.633	-24.894	-0.167	-0.100
-150.618	-83.558	-0.118	0.038
-149.604	-18.813	-0.173	0.108
-148.589	645.613	0.126	0.323
-147.574	15.561	-0.125	-0.099
-146.560	-6.479	-0.216	0.148
-145.545	48.747	0.317	-0.298
-144.531	-200.000	-0.082	0.382
-143.516	410.984	-0.078	-0.166
-142.502	65.523	-0.213	0.216
-141.487	-140.505	-0.140	0.015
-140.472	-200.000	0.037	0.181
-139.458	54.287	0.159	-0.153
-138.443	437.095	-0.043	0.093
-137.429	-200.000	0.006	-0.181
-136.414	-101.424	-0.158	-0.039
-135.399	-28.565	-0.134	-0.077
-134.385	-40.894	0.227	0.118
-133.370	-200.000	-0.003	-0.357
-132.356	207.986	0.133	0.208
-131.341	-17.768	0.211	-0.133
-130.326	515.095	-0.157	-0.367
-129.312	800.000	0.080	-0.309
-128.297	-46.585	-0.038	0.018
-127.283	172.491	0.162	0.234
-126.268	94.627	0.108	0.123
-125.253	-136.387	0.286	-0.033
-124.239	800.000	0.189	0.622
-123.224	800.000	-0.075	0.216
-122.210	318.787	-0.087	0.166
-121.195	-78.292	0.163	0.056
-120.180	800.000	-0.084	-0.298
-119.166	800.000	-0.142	0.518
-118.151	-33.019	-0.286	-0.159
-117.137	128.780	-0.095	0.121
-116.122	-127.364	-0.138	-0.020
-115.107	-162.483	0.071	0.003
-114.093	-99.094	-0.377	-0.096
-113.078	-60.042	-0.164	0.070
-112.064	-167.235	-0.137	0.006
-111.049	-200.000	0.007	-0.072
-110.034	136.125	-0.050	-0.065
-109.020	97.017	0.046	-0.053
-108.005	-51.729	-0.122	-0.057
-106.991	-161.208	0.434	-0.023
-105.976	128.832	-0.152	-0.194
-104.962	353.081	-0.065	-0.130
-103.947	511.174	0.134	-0.312
-102.932	45.905	-0.191	0.176
-101.918	40.257	0.132	-0.119
-100.903	357.468	-0.131	-0.262
-99.889	-111.192	-0.222	0.045
-98.874	165.546	0.057	0.080
-97.859	432.504	-0.092	0.200
-96.845	47.375	0.389	-0.363
-95.830	537.136	-0.057	-0.135
-94.816	-45.964	-0.042	0.021
-93.801	-110.080	-0.150	0.031
-92.786	-95.773	0.151	0.040
-91.772	23.634	0.090	-0.074
-90.757	-200.000	-0.034	-0.171
-89.743	-141.401	0.145	0.015
-88.728	-200.000	0.057	-0.438
-87.713	800.000	0.050	0.209
-86.699	-200.000	-0.011	-0.222
-85.684	260.600	0.154	-0.267
-84.670	-149.471	0.407	-0.032
-83.655	-150.697	-0.310	0.024
-82.640	800.000	0.066	-0.267
-81.626	-88.464	0.331	0.099
-80.611	318.502	0.029	-0.055
-79.597	-69.292	-0.337	0.129
-78.582	218.825	0.078	-0.125
-77.567	40.135	0.211	-0.190
-76.553	330.650	0.082	-0.157
-75.538	800.000	-0.007	0.029
-74.524	-55.743	-0.223	0.100
-73.509	-83.895	0.265	-0.084
-72.494	67.719	-0.226	0.230
-71.480	233.174	0.131	0.215
-70.465	-33.523	-0.182	0.101
-69.451	-54.955	-0.275	-0.124
-68.436	-78.803	0.199	-0.068
-67.422	-109.793	0.365	0.077
-66.407	-200.000	0.000	-0.135
-65.392	-120.618	0.096	0.016
-64.378	-75.579	0.301	0.107
-63.363	-200.000	0.024	0.135
-62.349	-200.000	-0.031	-0.181
-61.334	-44.999	-0.973	-0.484
-60.319	-200.000	-0.011	-0.177
-59.305	-200.000	0.054	-1.071
-58.290	166.139	0.327	0.462
-57.276	475.851	0.578	1.305
-56.261	-200.000	71.032	524.979
-55.246	601.280	1272.849	3158.582
-54.232	146.631	2493.074	3345.873
-53.217	121.748	2241.826	2792.612
-52.203	55.527	1764.384	1706.212
-51.188	47.563	1557.421	1450.604
-50.173	44.529	1527.520	1401.823
-49.159	59.937	1560.770	1539.606
-48.144	67.501	1581.108	1612.057
-47.130	47.883	1545.328	1441.328
-46.115	44.031	1531.008	1401.365
-45.100	43.928	1527.608	1397.483
-44.086	43.848	1525.922	1395.338
-43.071	43.746	1524.287	1393.085
-42.057	43.820	1522.086	1391.526
-41.042	43.707	1520.907	1389.617
-40.027	43.845	1519.146	1388.895
-39.013	43.817	1517.358	1387.015
-37.998	43.822	1516.145	1385.888
-36.984	43.818	1515.149	1384.896
-35.969	43.821	1513.851	1383.671
-34.954	43.860	1513.054	1383.155
-33.940	43.950	1510.793	1381.647
-32.925	43.824	1509.653	1379.689
-31.911	43.975	1508.061	1379.209
-30.896	43.960	1506.583	1377.702
-29.881	43.942	1505.216	1376.273
-28.867	43.970	1503.562	1374.897
-27.852	43.912	1502.210	1373.215
-26.838	43.922	1500.644	1371.795
-25.823	43.900	1499.643	1370.676
-24.809	43.866	1497.568	1368.494
-23.794	43.871	1495.969	1367.017
-22.779	43.893	1494.914	1366.143
-21.765	43.848	1493.809	1364.779
-20.750	43.928	1492.644	1364.197
-19.736	43.884	1491.476	1362.783
-18.721	43.999	1490.057	1362.205
-17.706	43.968	1488.713	1360.713
-16.692	43.839	1487.944	1359.089
-15.677	43.812	1486.599	1357.627
-14.663	43.849	1485.690	1356.989
-13.648	43.827	1485.011	1356.167
-12.633	43.764	1483.702	1354.498
-11.619	43.792	1482.971	1353.963
-10.604	43.818	1481.920	1353.126
-9.590	43.806	1481.294	1352.416
-8.575	43.773	1480.135	1351.087
-7.560	43.814	1479.724	1350.930
-6.546	43.806	1478.651	1349.845
-5.531	43.826	1477.375	1348.760
-4.517	43.768	1476.531	1347.548
-3.502	43.705	1476.143	1346.724
-2.487	43.788	1474.709	1345.909
-1.473	43.817	1473.404	1344.857
-0.458	43.870	1472.040	1343.911
0.556	43.302	1463.644	1335.192
1.571	40.727	1435.137	1292.340
2.586	36.789	1371.718	1210.557
3.600	34.445	1288.659	1123.369
4.615	32.492	1239.641	1069.460
5.629	26.986	1180.783	988.703
6.644	13.523	1086.427	841.663
7.659	3.078	1037.008	752.411
8.673	1.434	1030.669	739.744
9.688	1.107	1028.116	736.259
10.702	0.998	1026.540	734.539
11.717	0.793	1025.155	732.487
12.731	4.982	1029.944	756.195
13.746	16.413	1045.758	823.761
14.761	23.523	1054.938	865.756
15.775	23.722	1054.399	866.205
16.790	23.775	1053.356	865.534
17.804	23.489	1052.902	863.689
18.819	23.210	1051.752	861.313
19.834	23.496	1051.070	862.071
20.848	23.402	1051.056	861.521
21.863	23.546	1050.052	861.324
22.877	23.483	1050.265	861.116
23.892	23.526	1048.941	860.165
24.907	23.478	1048.313	859.339
25.921	23.448	1047.828	858.719
26.936	23.462	1046.975	858.013
27.950	23.478	1046.195	857.374
28.965	23.403	1044.969	855.931
29.980	23.310	1043.280	854.025
30.994	23.342	1041.980	853.039
32.009	23.420	1041.088	852.608
33.023	23.434	1040.701	852.285
34.038	23.418	1039.069	850.796
35.053	23.387	1038.302	849.943
36.067	23.479	1038.190	850.219
37.082	23.561	1036.672	849.293
38.096	23.535	1036.273	848.767
39.111	23.666	1035.705	848.850
40.126	23.762	1034.564	848.301
41.140	23.775	1033.747	847.618
42.155	23.554	1032.167	845.192
43.169	23.149	1031.484	842.631
44.184	22.945	1030.632	840.888
45.199	23.187	1029.224	840.814
46.213	23.008	1028.440	839.252
47.228	23.164	1027.102	838.827
48.242	23.214	1026.623	838.598
49.257	23.355	1026.232	838.870
50.271	23.447	1025.258	838.434
51.286	23.508	1024.976	838.419
52.301	23.497	1024.324	837.761
53.315	23.648	1023.399	837.641
54.330	23.593	1022.325	836.429
55.344	23.340	1021.868	834.790
56.359	23.483	1020.802	834.515
57.374	23.507	1019.981	833.886
58.388	23.301	1018.878	831.944
59.403	23.269	1018.098	831.080
60.417	23.220	1017.389	830.202
61.432	23.222	1016.334	829.274
62.447	23.094	1016.069	828.385
63.461	23.200	1015.620	828.440
64.476	23.323	1014.529	828.052
65.490	23.370	1013.364	827.251
66.505	23.194	1012.346	825.522
67.520	23.130	1011.974	824.848
68.534	23.237	1011.136	824.590
69.549	23.164	1010.278	823.480
70.563	22.835	1009.028	820.860
71.578	22.740	1008.600	819.997
72.593	22.814	1007.851	819.660
73.607	22.797	1006.520	818.427
74.622	22.528	1006.136	816.794
75.636	22.941	1005.261	817.924
76.651	23.135	1004.053	817.762
77.666	22.877	1003.565	816.103
78.680	22.837	1002.341	814.851
79.695	23.025	1001.718	815.136
80.709	23.003	1001.555	814.833
81.724	23.117	1000.874	814.733
82.739	23.161	999.524	813.761
83.753	23.038	999.202	812.864
84.768	23.205	999.053	813.437
85.782	23.700	998.320	815.041
86.797	23.824	997.482	814.852
87.812	23.861	996.451	814.110
88.826	23.473	996.028	811.913
89.841	23.632	994.712	811.497
90.855	23.685	994.031	811.111
91.870	23.708	993.037	810.336
92.884	23.712	992.507	809.848
93.899	23.550	991.663	808.348
94.914	23.478	990.417	806.935
95.928	23.644	989.742	807.070
96.943	23.878	988.630	807.151
97.957	23.542	987.466	804.608
98.972	23.233	986.526	802.371
99.987	23.032	985.638	800.668
101.001	23.048	985.118	800.245
102.016	23.411	984.525	801.333
103.030	23.453	983.651	800.740
104.045	23.397	982.757	799.690
105.060	23.013	981.656	796.993
106.074	23.162	980.196	796.410
107.089	23.102	979.352	795.380
108.103	23.466	978.960	796.629
109.118	23.704	977.693	796.595
110.133	23.222	977.168	793.937
111.147	23.251	976.289	793.280
112.162	23.230	974.804	791.910
113.176	22.919	973.906	789.719
114.191	23.011	972.976	789.308
115.206	23.204	972.487	789.700
116.220	22.914	971.146	787.249
117.235	22.672	970.524	785.602
118.249	22.847	970.070	785.940
119.264	22.886	968.946	785.134
120.279	22.818	968.069	784.054
121.293	22.704	967.496	783.012
122.308	22.882	966.731	783.113
123.322	22.940	966.038	782.742
124.337	22.959	964.821	781.767
125.352	22.802	963.315	779.788
126.366	22.399	962.050	776.914
127.381	21.987	960.991	774.172
128.395	22.588	960.290	776.187
129.410	23.168	960.244	778.634
130.424	23.438	959.173	778.887
131.439	23.408	958.273	777.953
132.454	23.358	957.175	776.775
133.468	23.440	956.450	776.475
134.483	23.437	955.656	775.748
135.497	23.398	954.827	774.837
136.512	23.674	954.491	775.703
137.527	23.682	954.100	775.349
138.541	23.668	953.145	774.446
139.556	23.751	952.166	773.943
140.570	23.748	951.285	773.146
141.585	23.674	950.591	772.191
142.600	23.887	950.070	772.626
143.614	23.723	948.887	770.882
144.629	23.831	948.357	770.851
145.643	23.920	947.868	770.771
146.658	23.847	946.901	769.601
147.673	23.600	945.541	767.362
148.687	23.631	944.344	766.457
149.702	23.551	943.561	765.409
150.716	23.398	941.985	763.403
151.731	23.320	941.102	762.282
152.746	23.471	940.445	762.332
153.760	23.527	940.047	762.183
154.775	23.710	939.191	762.209
155.789	23.746	938.369	761.628
156.804	23.746	937.157	760.575
157.819	23.717	936.394	759.767
158.833	23.771	935.546	759.242
159.848	23.829	934.885	758.886
160.862	23.807	934.180	758.151
161.877	23.637	933.213	756.577
162.892	23.651	932.224	755.767
163.906	23.789	931.117	755.389
164.921	23.603	930.701	754.194
165.935	23.616	929.572	753.266
166.950	23.763	928.364	752.848
167.964	23.772	927.549	752.156
168.979	23.819	926.622	751.536
169.994	23.623	925.364	749.621
171.008	23.544	924.275	748.342
172.023	23.606	923.906	748.236
173.037	23.838	923.230	748.600
174.052	23.620	922.139	746.732
175.067	23.522	920.928	745.274
176.081	23.286	920.647	743.989
177.096	23.478	919.566	743.854
178.110	23.563	918.195	743.035
179.125	23.355	917.186	741.285
180.140	22.993	916.215	738.919
181.154	23.196	915.839	739.402
182.169	23.244	915.251	739.059
183.183	23.263	915.238	739.063
184.198	23.628	914.827	740.189
185.213	23.700	914.051	739.797
186.227	23.644	913.146	738.766
187.242	23.596	912.927	738.323
188.256	23.748	912.237	738.329
189.271	23.847	911.185	737.825
190.286	23.795	910.444	736.945
191.300	23.720	909.709	735.971
192.315	23.256	908.178	732.749
193.329	22.636	906.834	729.040
194.344	21.968	905.744	725.336
195.359	22.490	906.064	727.689
196.373	23.339	906.644	731.594
197.388	23.717	906.128	732.675
198.402	23.579	905.516	731.546
199.417	23.510	904.725	730.559
200.432	23.693	903.836	730.529
201.446	23.621	903.551	729.939
202.461	23.194	902.978	727.654
203.475	23.296	902.138	727.330
204.490	22.905	900.914	724.679
205.504	21.762	898.895	718.307
206.519	22.065	898.614	719.262
207.534	22.863	899.423	723.116
208.548	23.173	898.863	723.868
209.563	23.459	898.227	724.462
210.577	23.623	897.492	724.473
211.592	23.465	896.565	723.016
212.607	23.572	896.843	723.614
213.621	23.961	895.684	724.200
214.636	23.825	895.479	723.414
215.650	23.772	894.808	722.592
216.665	23.810	894.087	722.103
217.680	23.712	893.812	721.416
218.694	23.820	893.429	721.481
219.709	23.560	892.182	719.357
220.723	23.378	890.852	717.484
221.738	23.431	890.888	717.663
222.753	23.522	890.537	717.685
223.767	23.450	889.660	716.625
224.782	23.717	889.109	717.196
225.796	23.740	888.891	717.051
226.811	23.954	887.867	717.024
227.826	23.501	886.855	714.320
228.840	22.647	885.686	709.878
229.855	22.609	884.779	708.936
230.869	22.911	884.617	709.956
231.884	22.629	883.296	707.701
232.899	22.514	882.861	706.829
233.913	23.353	883.309	710.490
234.928	23.629	883.036	711.314
235.942	23.561	882.144	710.261
236.957	23.571	881.406	709.642
237.972	23.248	880.490	707.555
238.986	23.132	879.376	706.134
240.001	23.303	879.382	706.755
241.015	23.139	878.708	705.499
242.030	23.378	877.840	705.690
243.045	23.415	877.454	705.465
244.059	23.464	877.157	705.360
245.074	23.714	876.458	705.728
246.088	23.787	875.799	705.427
247.103	23.380	874.761	702.914
248.117	23.331	874.245	702.240
249.132	23.947	874.339	704.697
250.147	24.254	874.197	705.734
251.161	24.289	873.835	705.517
252.176	24.381	873.356	705.432
253.190	24.394	872.867	705.029
254.205	24.548	871.993	704.867
255.220	24.628	871.719	704.901
256.234	24.547	871.280	704.161
257.249	24.527	870.429	703.332
258.263	24.357	869.662	701.981
259.278	24.494	869.213	702.098
260.293	24.456	869.006	701.717
261.307	24.666	868.269	701.885
262.322	24.396	867.732	700.331
263.336	24.378	866.783	699.432
264.351	23.907	865.675	696.630
265.366	22.844	863.626	690.766
266.380	22.476	862.447	688.323
267.395	23.250	863.020	691.742
268.409	24.129	863.075	695.160
269.424	24.188	862.301	694.705
270.439	24.213	862.075	694.559
271.453	24.367	861.263	694.445
272.468	24.113	861.039	693.214
273.482	24.500	860.358	694.106
274.497	24.595	859.880	694.028
275.512	24.435	859.108	692.723
276.526	23.775	857.839	689.080
277.541	23.992	857.370	689.483
278.555	24.404	857.114	690.811
279.570	24.261	856.406	689.625
280.585	24.086	855.937	688.510
281.599	24.038	855.436	687.864
282.614	24.280	854.651	688.105
283.628	23.730	853.585	685.065
284.643	23.346	853.413	683.386
285.657	23.809	852.970	684.755
286.672	23.692	852.177	683.607
287.687	23.215	851.146	680.885
288.701	23.606	850.648	681.928
289.716	24.043	850.567	683.482
290.730	23.675	849.946	681.509
291.745	23.505	849.475	680.418
292.760	23.406	848.260	679.007
293.774	23.243	847.462	677.685
294.789	24.068	848.243	681.409
295.803	24.832	848.135	684.183
296.818	24.719	847.833	683.448
297.833	24.949	847.166	683.726
298.847	24.829	845.949	682.227
299.862	24.310	845.041	679.460
300.876	24.403	844.803	679.563
301.891	24.796	844.375	680.653
302.906	24.886	843.899	680.551
303.920	24.556	842.624	678.208
304.935	24.379	841.868	676.868
305.949	24.702	841.905	678.065
306.964	24.908	841.224	678.234
307.979	24.680	840.237	676.518
308.993	24.524	840.022	675.693
310.008	24.813	839.706	676.475
311.022	25.030	839.615	677.162
312.037	24.900	838.850	675.994
313.052	24.573	838.049	674.053
314.066	24.467	837.492	673.147
315.081	23.801	836.266	669.591
316.095	23.172	834.891	666.064
317.110	23.585	834.598	667.327
318.125	24.517	834.816	670.947
319.139	24.152	834.494	669.255
320.154	22.948	832.644	663.198
321.168	22.530	831.398	660.578
322.183	23.104	832.017	663.167
323.197	23.979	832.265	666.585
324.212	24.299	831.978	667.494
325.227	24.519	831.401	667.793
326.241	24.590	831.232	667.866
327.256	24.432	830.547	666.666
328.270	24.377	829.858	665.848
329.285	24.373	829.116	665.178
330.300	24.108	828.493	663.631
331.314	24.008	827.825	662.666
332.329	24.108	826.951	662.280
333.343	24.489	826.846	663.552
334.358	24.762	826.508	664.239
335.373	24.650	826.068	663.410
336.387	24.698	825.530	663.098
337.402	24.876	825.036	663.300
338.416	25.341	824.587	664.602
339.431	25.092	824.175	663.292
340.446	25.093	823.414	662.626
341.460	25.293	823.221	663.150
342.475	25.304	822.476	662.530
343.489	25.059	821.605	660.867
344.504	25.007	821.673	660.673
345.519	25.220	820.953	660.820
346.533	25.414	820.662	661.241
347.548	25.518	820.140	661.145
348.562	25.646	819.622	661.140
349.577	25.515	819.502	660.503
350.592	25.510	818.473	659.594
351.606	25.503	817.714	658.899
352.621	25.631	817.222	658.912
353.635	25.390	817.115	657.886
354.650	25.255	816.625	656.941
355.665	25.025	815.600	655.214
356.679	23.947	814.021	649.953
357.694	23.726	813.348	648.552
358.708	24.443	813.402	651.154
359.723	24.361	813.292	650.708
360.738	24.450	812.715	650.515
361.752	24.925	812.716	652.188
362.767	25.079	812.475	652.497
363.781	25.326	812.594	653.435
364.796	25.539	812.130	653.778
365.810	25.780	811.862	654.382
366.825	25.972	811.024	654.345
367.840	25.897	810.788	653.824
368.854	25.606	810.444	652.432
369.869	25.448	808.966	650.614
370.883	25.088	808.343	648.753
371.898	25.262	808.209	649.217
372.913	25.176	807.301	648.121
373.927	25.055	807.016	647.395
374.942	25.285	806.281	647.579
375.956	25.420	805.691	647.536
376.971	25.535	804.997	647.335
377.986	25.462	805.026	647.037
379.000	25.717	804.689	647.627
380.015	25.770	804.188	647.355
381.029	25.648	803.447	646.264
382.044	25.582	802.563	645.258
383.059	25.779	802.178	645.599
384.073	25.794	801.614	645.143
385.088	25.872	801.210	645.038
386.102	25.848	800.567	644.377
387.117	25.744	799.864	643.383
388.132	25.471	799.477	642.039
389.146	25.365	798.886	641.132
390.161	24.859	797.914	638.489
391.175	24.853	797.268	637.894
392.190	25.433	797.696	640.247
393.205	25.548	796.836	639.911
394.219	24.514	795.223	634.882
395.234	22.885	793.302	627.511
396.248	22.071	792.125	623.637
397.263	23.036	792.721	627.477
398.278	24.839	794.383	635.143
399.292	25.419	794.232	637.022
400.307	25.231	793.382	635.620
401.321	25.035	793.048	634.600
402.336	25.094	792.697	634.473
403.350	25.364	792.765	635.428
404.365	25.719	792.773	636.634
405.380	26.222	792.094	637.807
406.394	26.370	792.150	638.319
407.409	26.589	791.829	638.776
408.423	26.655	791.074	638.344
409.438	26.472	790.798	637.419
410.453	26.372	790.648	636.889
411.467	26.551	790.035	636.968
412.482	26.576	789.375	636.468
413.496	26.490	788.498	635.404
414.511	26.536	788.535	635.538
415.526	26.613	788.182	635.469
416.540	26.464	788.032	634.768
417.555	26.499	787.271	634.220
418.569	26.128	786.637	632.356
419.584	26.089	786.043	631.686
420.599	26.246	785.267	631.555
421.613	83.255	1237.927	1297.735
422.628	70.484	1303.928	1297.878
