DTS Sentinel unit serial number:	SN413079Multiplexer serial number:	ORYXHardware model number:	OX4-SRSoftware version number:	ORYX F/W v4.00 Oryx Data Collector v3.7.2.0data status	okinstallation	princeton_trtdifferential loss correction	single-endedforward channel	channel 3reverse channel	N/Adate	2019/09/15time	12:00:35forward acquisition time	60.00reverse acquisition time	0.00gamma	496.2192k internal	0.2306k external	0.2306temperature offset calibration	0.9980default loss term (dB/km)	0.3790temperature slope calibration	1.0000multiplexer offset coefficient	1.0000multiplexer slope coefficient	1.0000fibre end	0.00T internal ref (°C)	34.44T ext. ref 1 (°C)	5.07T ext. ref 2 (°C)	30.28length (m)	temperature (°C)	Stokes	anti-Stokes-747.200	4.941	-0.255	-0.191
-746.185	-200.000	-0.022	0.193
-745.171	-19.655	0.130	0.082
-744.156	42.008	0.061	-0.056
-743.142	-45.533	-0.066	0.033
-742.127	163.083	-0.195	0.279
-741.112	299.639	-0.136	-0.255
-740.098	-79.940	-0.293	0.100
-739.083	-142.484	-0.182	-0.018
-738.069	-139.382	-0.242	-0.026
-737.054	-6.704	0.133	0.092
-736.039	-119.109	-0.217	0.038
-735.025	-81.837	0.415	0.138
-734.010	-4.012	0.122	-0.086
-732.996	56.252	-0.093	-0.092
-731.981	800.000	-0.064	0.258
-730.966	-69.350	0.359	0.140
-729.952	-200.000	-0.041	0.270
-728.937	-155.148	-0.155	-0.010
-727.923	268.419	-0.122	0.217
-726.908	-42.862	-0.111	0.057
-725.894	618.490	-0.067	-0.171
-724.879	672.274	0.040	0.105
-723.864	800.000	-0.086	0.277
-722.850	-200.000	0.002	0.172
-721.835	800.000	0.075	-0.313
-720.821	-72.773	-0.281	-0.105
-719.806	-200.000	0.030	-0.162
-718.791	-200.000	-0.096	-0.554
-717.777	800.000	-0.064	0.182
-716.762	-147.239	-0.112	-0.010
-715.748	632.501	-0.121	-0.312
-714.733	102.479	0.176	-0.209
-713.718	5.360	0.052	-0.039
-712.704	-200.000	-0.001	-0.348
-711.689	-13.796	0.205	0.135
-710.675	59.854	-0.160	-0.161
-709.660	-15.558	-0.199	0.129
-708.645	-35.648	-0.250	0.138
-707.631	-200.000	0.005	0.034
-706.616	22.917	0.285	-0.238
-705.602	367.505	0.143	-0.294
-704.587	115.763	0.134	-0.166
-703.572	-164.462	-0.041	-0.002
-702.558	-45.511	0.276	0.139
-701.543	-101.930	0.194	0.048
-700.529	542.168	-0.087	-0.210
-699.514	40.787	0.160	0.147
-698.499	-37.161	-0.380	-0.206
-697.485	0.561	0.169	0.123
-696.470	26.055	-0.222	0.188
-695.456	-86.882	-0.150	0.046
-694.441	256.902	0.068	-0.119
-693.426	469.800	0.222	-0.506
-692.412	-25.683	0.291	-0.174
-691.397	458.685	0.041	0.093
-690.383	-156.970	0.266	-0.017
-689.368	-60.197	0.158	0.068
-688.354	-130.172	-0.192	0.027
-687.339	327.394	0.068	-0.132
-686.324	-104.206	-0.165	0.039
-685.310	-26.029	-0.177	0.105
-684.295	140.622	0.080	0.107
-683.281	355.893	0.098	-0.199
-682.266	-65.269	-0.329	-0.135
-681.251	-96.314	-0.265	-0.071
-680.237	62.298	0.144	-0.145
-679.222	-35.430	-0.487	-0.268
-678.208	-129.729	-0.121	-0.017
-677.193	-200.000	-0.035	-0.170
-676.178	362.995	0.065	-0.132
-675.164	-105.514	0.063	0.015
-674.149	-112.338	-0.129	-0.026
-673.135	38.715	-0.140	-0.127
-672.120	468.351	-0.137	-0.311
-671.105	59.692	-0.146	-0.147
-670.091	128.705	-0.050	0.065
-669.076	-80.179	-0.238	0.081
-668.062	328.488	-0.049	0.096
-667.047	-107.124	-0.109	-0.024
-666.032	-79.589	0.162	0.055
-665.018	252.949	-0.063	0.109
-664.003	-128.562	-0.395	-0.057
-662.989	92.820	0.246	-0.282
-661.974	204.415	0.038	-0.060
-660.959	-106.665	-0.060	-0.013
-659.945	198.262	0.254	-0.394
-658.930	800.000	-0.066	-0.212
-657.916	-113.402	0.037	-0.007
-656.901	-115.001	-0.247	-0.048
-655.886	235.272	-0.113	0.188
-654.872	227.173	0.173	-0.285
-653.857	-35.851	0.077	-0.042
-652.843	-111.868	-0.362	-0.074
-651.828	-25.358	0.187	-0.112
-650.814	-115.115	-0.187	0.036
-649.799	-200.000	-0.054	0.319
-648.784	114.379	-0.118	0.146
-647.770	97.629	0.246	0.286
-646.755	176.795	0.144	-0.213
-645.741	25.904	0.154	0.130
-644.726	114.378	-0.233	-0.288
-643.711	430.308	-0.146	0.320
-642.697	-135.985	0.080	0.010
-641.682	-200.000	-0.001	-0.152
-640.668	-144.923	0.182	-0.017
-639.653	407.341	-0.045	-0.095
-638.638	102.174	0.084	-0.099
-637.624	242.428	0.092	-0.156
-636.609	99.677	-0.097	-0.114
-635.595	-42.707	0.503	0.259
-634.580	-8.757	-0.145	-0.099
-633.565	298.133	-0.173	-0.321
-632.551	85.972	0.158	-0.176
-631.536	-64.205	-0.201	0.083
-630.522	-200.000	-0.011	-0.225
-629.507	237.956	0.147	0.248
-628.492	-200.000	-0.029	-0.271
-627.478	62.549	-0.084	0.085
-626.463	74.408	0.066	-0.070
-625.449	-200.000	0.037	0.344
-624.434	470.479	-0.101	0.231
-623.419	-129.054	-0.090	-0.013
-622.405	800.000	-0.044	0.145
-621.390	-200.000	0.065	0.351
-620.376	-200.000	-0.000	-0.032
-619.361	192.791	-0.103	0.158
-618.346	-200.000	0.022	0.102
-617.332	-86.598	-0.189	-0.059
-616.317	0.440	-0.218	0.158
-615.303	-66.352	0.295	-0.119
-614.288	38.058	-0.108	0.097
-613.273	800.000	0.050	-0.149
-612.259	800.000	-0.005	0.023
-611.244	800.000	-0.107	-0.317
-610.230	65.788	-0.148	0.152
-609.215	800.000	-0.024	-0.097
-608.201	-200.000	0.028	-0.169
-607.186	-100.999	-0.122	-0.030
-606.171	-200.000	-0.001	-0.240
-605.157	-180.262	0.124	0.003
-604.142	185.676	-0.172	0.259
-603.128	589.433	0.073	0.182
-602.113	2.108	-0.232	0.170
-601.098	-191.088	0.203	-0.002
-600.084	284.822	-0.032	0.058
-599.069	242.731	-0.086	-0.145
-598.055	-200.000	-0.014	-0.145
-597.040	-44.629	-0.232	0.117
-596.025	41.384	-0.105	-0.096
-595.011	-200.000	-0.011	-0.085
-593.996	49.658	-0.185	-0.177
-592.982	35.764	-0.159	0.142
-591.967	-193.586	-0.263	0.002
-590.952	-124.235	0.222	0.035
-589.938	-64.195	-0.453	-0.187
-588.923	191.504	0.185	0.282
-587.909	800.000	0.035	0.143
-586.894	35.561	0.007	0.006
-585.879	114.329	-0.075	-0.092
-584.865	-7.651	0.039	0.027
-583.850	-200.000	-0.039	-0.191
-582.836	800.000	-0.030	0.124
-581.821	41.208	0.205	-0.187
-580.806	599.118	-0.097	-0.242
-579.792	346.381	-0.100	-0.199
-578.777	200.975	-0.151	0.234
-577.763	-200.000	0.041	-0.268
-576.748	-200.000	0.015	0.098
-575.733	-97.708	0.299	0.078
-574.719	51.012	-0.238	0.228
-573.704	-139.408	0.124	0.013
-572.690	-200.000	0.027	0.249
-571.675	430.111	-0.055	0.121
-570.661	256.272	0.106	0.184
-569.646	800.000	-0.072	0.227
-568.631	44.515	0.085	0.079
-567.617	-47.559	-0.242	-0.119
-566.602	-200.000	0.009	-0.222
-565.588	-29.651	-0.084	-0.048
-564.573	305.884	0.022	-0.040
-563.558	792.950	0.063	-0.175
-562.544	167.513	-0.130	0.187
-561.529	107.439	-0.094	0.113
-560.515	40.214	0.051	-0.047
-559.500	45.846	-0.304	-0.284
-558.485	-111.074	0.277	0.057
-557.471	800.000	0.069	-0.235
-556.456	-200.000	0.037	-0.185
-555.442	106.171	0.078	0.094
-554.427	-121.458	0.252	-0.042
-553.412	-200.000	0.007	-0.343
-552.398	96.423	-0.138	0.160
-551.383	313.765	-0.217	0.412
-550.369	-27.682	0.209	-0.122
-549.354	-33.903	-0.124	-0.069
-548.339	-39.447	-0.182	0.096
-547.325	422.599	-0.116	0.251
-546.310	-200.000	0.025	-0.162
-545.296	149.286	-0.178	-0.244
-544.281	79.981	-0.251	0.273
-543.266	-200.000	-0.007	0.147
-542.252	55.860	0.413	-0.404
-541.237	-123.901	0.277	0.044
-540.223	-151.964	0.277	-0.020
-539.208	152.448	-0.074	-0.102
-538.193	-200.000	-0.005	-0.119
-537.179	-117.830	0.145	-0.026
-536.164	-21.550	0.292	-0.180
-535.150	-137.766	-0.418	-0.047
-534.135	-24.727	-0.191	-0.114
-533.121	538.094	0.150	0.360
-532.106	-200.000	-0.018	0.093
-531.091	800.000	-0.061	-0.172
-530.077	800.000	0.201	0.566
-529.062	-39.201	-0.188	0.100
-528.048	-200.000	0.016	0.270
-527.033	619.833	-0.024	0.060
-526.018	800.000	0.011	-0.032
-525.004	-116.621	0.146	-0.027
-523.989	800.000	0.017	0.048
-522.975	-200.000	0.006	-0.140
-521.960	798.210	-0.068	-0.189
-520.945	161.458	-0.072	0.102
-519.931	89.204	-0.117	-0.132
-518.916	-138.012	-0.275	0.031
-517.902	134.825	0.289	-0.379
-516.887	76.771	-0.102	-0.109
-515.872	173.830	0.082	-0.120
-514.858	345.148	0.070	-0.138
-513.843	80.811	-0.146	0.159
-512.829	-200.000	-0.008	-0.154
-511.814	-118.314	0.435	-0.078
-510.799	-100.058	-0.173	-0.043
-509.785	-24.739	-0.158	0.095
-508.770	30.001	-0.100	0.086
-507.756	630.211	-0.032	0.081
-506.741	-97.288	-0.031	0.008
-505.726	-200.000	0.016	0.172
-504.712	-200.000	-0.007	-0.268
-503.697	-200.000	-0.024	0.475
-502.683	-136.927	-0.189	0.022
-501.668	-77.404	-0.194	-0.068
-500.653	-96.632	-0.325	0.086
-499.639	-56.436	-0.025	0.011
-498.624	-100.744	0.542	0.135
-497.610	-73.268	0.146	0.054
-496.595	211.413	-0.142	-0.226
-495.581	-200.000	0.031	-0.451
-494.566	800.000	0.060	-0.193
-493.551	602.001	0.127	-0.318
-492.537	25.012	-0.152	0.127
-491.522	-40.527	-0.090	-0.047
-490.508	24.340	-0.084	0.070
-489.493	-43.371	0.150	0.076
-488.478	-66.126	-0.259	-0.104
-487.464	-200.000	-0.007	0.064
-486.449	-84.851	0.339	-0.107
-485.435	-55.783	-0.130	-0.058
-484.420	-24.733	0.292	-0.175
-483.405	-133.261	0.390	0.050
-482.391	48.048	-0.173	0.163
-481.376	11.954	-0.204	0.158
-480.362	-10.081	0.260	-0.174
-479.347	286.053	-0.008	0.014
-478.332	-187.394	0.413	-0.006
-477.318	-132.856	-0.301	0.039
-476.303	-122.621	0.096	-0.016
-475.289	-200.000	0.004	0.284
-474.274	3.487	0.151	-0.111
-473.259	-94.575	-0.209	0.057
-472.245	-161.635	-0.083	-0.004
-471.230	-200.000	0.041	0.402
-470.216	505.106	0.052	-0.121
-469.201	-151.206	0.102	0.008
-468.186	-89.722	-0.140	-0.041
-467.172	516.677	0.106	0.249
-466.157	-100.487	0.318	0.079
-465.143	-70.493	0.260	-0.099
-464.128	329.865	-0.070	-0.135
-463.113	57.935	0.260	-0.257
-462.099	800.000	0.054	0.169
-461.084	-43.091	0.267	-0.136
-460.070	792.317	0.048	0.132
-459.055	50.453	0.139	-0.132
-458.040	84.059	-0.207	-0.228
-457.026	325.047	0.080	-0.154
-456.011	143.058	0.155	0.208
-454.997	-123.264	-0.237	-0.038
-453.982	-10.174	0.086	0.057
-452.968	-53.211	-0.229	0.106
-451.953	800.000	0.133	0.402
-450.938	237.253	-0.147	-0.245
-449.924	-28.383	-0.205	0.119
-448.909	72.120	-0.087	-0.091
-447.895	44.214	0.246	-0.227
-446.880	-48.818	-0.191	-0.092
-445.865	144.954	0.191	0.256
-444.851	123.213	-0.046	-0.059
-443.836	122.055	-0.112	0.141
-442.822	-200.000	0.003	-0.320
-441.807	-82.069	-0.132	0.043
-440.792	104.393	-0.269	0.318
-439.778	-200.000	-0.006	0.049
-438.763	438.534	0.119	0.261
-437.749	464.449	-0.090	0.202
-436.734	-64.840	-0.525	0.213
-435.719	525.278	0.052	0.122
-434.705	172.752	-0.149	-0.216
-433.690	186.100	0.130	0.194
-432.676	-200.000	-0.003	0.105
-431.661	-33.676	0.286	0.159
-430.646	231.481	-0.113	-0.186
-429.632	47.087	-0.105	-0.099
-428.617	-200.000	-0.054	-0.558
-427.603	-127.697	-0.024	0.003
-426.588	-31.404	-0.058	-0.033
-425.573	650.360	0.103	0.266
-424.559	292.688	-0.121	0.221
-423.544	355.311	-0.106	-0.211
-422.530	102.124	-0.181	-0.213
-421.515	-200.000	0.005	0.189
-420.500	-60.244	-0.194	0.083
-419.486	32.567	0.021	-0.018
-418.471	-94.115	-0.364	-0.100
-417.457	157.848	-0.129	-0.179
-416.442	-104.255	-0.153	-0.036
-415.428	-200.000	-0.052	-0.234
-414.413	-95.483	0.338	-0.091
-413.398	-200.000	-0.010	0.231
-412.384	-200.000	0.018	0.091
-411.369	377.639	0.134	0.275
-410.355	-188.986	-0.180	0.002
-409.340	-200.000	-0.019	0.133
-408.325	-70.891	0.161	-0.061
-407.311	89.377	0.063	0.070
-406.296	13.935	-0.218	0.170
-405.282	-108.597	0.079	0.017
-404.267	339.292	0.089	0.173
-403.252	-120.103	-0.506	-0.087
-402.238	-200.000	0.024	-0.167
-401.223	800.000	0.110	-0.331
-400.209	-162.569	-0.269	0.013
-399.194	-113.088	-0.210	-0.042
-398.179	-42.219	0.062	-0.032
-397.165	556.837	0.092	0.223
-396.150	-200.000	0.011	-0.192
-395.136	112.904	0.057	0.069
-394.121	194.991	-0.158	0.241
-393.106	405.834	-0.141	0.298
-392.092	593.962	0.092	-0.227
-391.077	-147.097	0.158	0.014
-390.063	348.306	-0.009	0.019
-389.048	-200.000	0.026	0.154
-388.033	-16.369	0.291	-0.185
-387.019	-200.000	-0.009	-0.338
-386.004	800.000	0.139	0.593
-384.990	-200.000	0.003	0.107
-383.975	11.472	0.119	0.091
-382.960	-200.000	0.006	0.147
-381.946	-114.966	0.448	-0.086
-380.931	-5.915	-0.196	0.135
-379.917	-200.000	0.014	0.180
-378.902	-131.653	-0.354	-0.047
-377.888	-200.000	0.025	-0.175
-376.873	-150.147	0.261	-0.020
-375.858	-52.345	0.113	0.053
-374.844	-200.000	0.004	0.276
-373.829	-50.608	0.169	0.080
-372.815	416.669	-0.107	0.229
-371.800	69.544	-0.200	0.206
-370.785	-200.000	0.073	0.370
-369.771	91.280	-0.133	0.150
-368.756	-200.000	-0.085	-0.454
-367.742	105.031	-0.164	-0.194
-366.727	-200.000	-0.019	0.217
-365.712	212.755	0.110	-0.174
-364.698	800.000	0.034	-0.115
-363.683	-98.330	-0.140	-0.036
-362.669	-43.046	0.092	-0.047
-361.654	-132.804	-0.116	-0.015
-360.639	-40.917	0.200	-0.104
-359.625	50.843	-0.139	-0.132
-358.610	-71.846	-0.263	-0.098
-357.596	-91.016	-0.105	0.030
-356.581	-68.863	0.093	0.036
-355.566	170.747	-0.182	-0.261
-354.552	800.000	0.026	0.104
-353.537	321.339	0.127	0.242
-352.523	355.622	-0.050	-0.100
-351.508	-200.000	0.022	0.096
-350.493	97.028	0.076	0.087
-349.479	-16.408	0.101	-0.064
-348.464	-143.817	0.068	-0.006
-347.450	800.000	-0.027	0.097
-346.435	800.000	0.058	-0.173
-345.420	324.835	0.027	-0.051
-344.406	-200.000	-0.001	-0.122
-343.391	-54.189	-0.405	0.184
-342.377	-148.378	0.232	0.019
-341.362	-200.000	-0.018	0.113
-340.348	-200.000	0.041	0.195
-339.333	62.848	-0.359	-0.360
-338.318	800.000	-0.073	-0.258
-337.304	-149.793	-0.246	-0.019
-336.289	105.248	-0.053	-0.062
-335.275	-76.995	-0.196	0.069
-334.260	724.790	0.121	0.323
-333.245	-185.139	0.374	-0.006
-332.231	-158.748	0.382	0.022
-331.216	-175.772	0.031	0.001
-330.202	96.946	0.228	-0.262
-329.187	627.886	0.033	0.084
-328.172	800.000	0.047	0.180
-327.158	85.916	0.339	-0.373
-326.143	-200.000	0.021	-0.125
-325.129	-26.873	0.336	0.197
-324.114	-146.953	-0.103	-0.009
-323.099	-200.000	0.073	-0.321
-322.085	516.460	0.138	0.322
-321.070	295.512	-0.089	-0.163
-320.056	-82.885	-0.167	-0.054
-319.041	83.663	0.004	0.005
-318.026	-97.590	0.335	0.087
-317.012	-200.000	0.006	0.134
-315.997	131.192	0.148	-0.190
-314.983	-116.349	-0.130	0.024
-313.968	-200.000	0.019	0.120
-312.953	440.711	0.097	-0.213
-311.939	-116.140	0.174	-0.032
-310.924	-50.385	0.149	0.070
-309.910	-200.000	0.013	0.114
-308.895	-71.946	-0.358	-0.133
-307.880	800.000	0.077	-0.336
-306.866	-155.256	0.093	0.006
-305.851	625.031	-0.051	-0.129
-304.837	-26.744	-0.252	0.148
-303.822	767.849	-0.045	0.121
-302.807	-106.231	-0.216	-0.048
-301.793	40.551	-0.135	0.122
-300.778	176.605	0.083	-0.121
-299.764	-56.415	-0.227	0.101
-298.749	-200.000	-0.056	0.431
-297.735	187.970	-0.015	-0.023
-296.720	27.612	-0.049	-0.041
-295.705	-6.822	0.098	-0.067
-294.691	-100.563	0.139	0.034
-293.676	-78.611	0.184	0.063
-292.662	-200.000	-0.018	0.263
-291.647	-77.308	-0.049	-0.017
-290.632	800.000	0.063	-0.186
-289.618	17.974	-0.244	0.195
-288.603	273.530	-0.100	-0.176
-287.589	14.642	0.153	0.119
-286.574	192.525	-0.121	-0.183
-285.559	211.029	0.222	0.349
-284.545	23.588	-0.320	0.263
-283.530	-200.000	-0.017	0.107
-282.516	-51.629	-0.180	0.084
-281.501	157.534	-0.059	-0.082
-280.486	80.934	0.074	0.080
-279.472	37.777	0.154	0.136
-278.457	-95.189	-0.301	-0.081
-277.443	544.312	-0.019	-0.045
-276.428	64.106	0.392	0.394
-275.413	-147.461	0.094	0.008
-274.399	379.208	-0.030	-0.062
-273.384	73.923	0.161	-0.169
-272.370	53.259	0.152	0.145
-271.355	-200.000	-0.007	-0.427
-270.340	761.796	-0.058	-0.158
-269.326	-200.000	-0.006	0.299
-268.311	-25.508	0.147	-0.087
-267.297	21.735	0.176	0.143
-266.282	-34.880	0.042	0.023
-265.267	-137.780	0.114	-0.013
-264.253	-200.000	0.006	-0.047
-263.238	197.595	-0.226	0.345
-262.224	-174.368	0.192	-0.006
-261.209	-134.825	-0.158	-0.019
-260.195	647.276	0.029	-0.074
-259.180	800.000	-0.030	-0.122
-258.165	98.854	-0.004	0.004
-257.151	558.300	-0.061	-0.147
-256.136	800.000	0.051	-0.202
-255.122	563.321	-0.095	0.230
-254.107	564.696	0.111	-0.268
-253.092	-47.415	0.254	0.123
-252.078	176.000	-0.058	0.085
-251.063	800.000	0.130	0.470
-250.049	134.390	-0.145	-0.188
-249.034	-51.022	-0.111	-0.052
-248.019	45.142	0.264	0.243
-247.005	405.183	0.043	0.091
-245.990	-68.022	0.109	-0.042
-244.976	-2.909	0.199	0.138
-243.961	-200.000	0.016	-0.291
-242.946	403.705	0.093	-0.195
-241.932	-138.527	0.323	-0.035
-240.917	-93.422	0.426	-0.118
-239.903	-200.000	0.043	-0.496
-238.888	-27.462	0.114	0.066
-237.873	-200.000	-0.030	-0.212
-236.859	-92.232	-0.307	-0.086
-235.844	576.156	0.065	0.159
-234.830	211.166	-0.215	-0.337
-233.815	-17.259	0.121	0.076
-232.800	800.000	0.076	-0.245
-231.786	742.856	-0.074	-0.198
-230.771	-99.297	0.101	0.025
-229.757	-30.224	0.111	0.063
-228.742	162.224	0.065	0.090
-227.727	-200.000	0.016	0.217
-226.713	-90.244	-0.378	0.109
-225.698	-200.000	0.019	-0.238
-224.684	-200.000	0.000	0.051
-223.669	-37.018	-0.198	-0.106
-222.655	280.721	-0.055	-0.098
-221.640	113.777	-0.030	0.036
-220.625	800.000	-0.029	0.098
-219.611	-73.259	-0.135	-0.049
-218.596	-4.343	-0.220	0.151
-217.582	50.381	-0.191	-0.180
-216.567	-119.873	-0.337	-0.058
-215.552	716.048	-0.108	0.284
-214.538	-99.430	0.139	0.035
-213.523	-125.921	-0.127	-0.019
-212.509	240.032	0.263	0.437
-211.494	-200.000	0.020	-0.137
-210.479	42.934	0.133	-0.121
-209.465	75.444	0.169	-0.177
-208.450	-200.000	0.004	0.033
-207.436	-200.000	0.001	-0.013
-206.421	364.176	0.051	0.103
-205.406	150.427	-0.137	-0.185
-204.392	-200.000	-0.011	-0.134
-203.377	24.798	-0.046	-0.038
-202.363	82.663	-0.090	-0.098
-201.348	-54.176	0.157	-0.071
-200.333	-92.562	-0.193	0.054
-199.319	800.000	-0.024	0.105
-198.304	270.518	-0.176	-0.309
-197.290	473.874	0.069	0.155
-196.275	-26.880	0.262	-0.152
-195.260	-73.031	-0.153	0.056
-194.246	-63.402	-0.236	-0.097
-193.231	751.804	-0.081	0.218
-192.217	-69.770	0.358	0.136
-191.202	-115.720	0.466	-0.087
-190.187	18.239	-0.331	-0.263
-189.173	463.150	-0.077	-0.171
-188.158	-105.338	0.115	0.026
-187.144	800.000	0.065	0.263
-186.129	117.853	-0.179	-0.219
-185.114	266.466	0.093	0.162
-184.100	280.587	-0.044	0.078
-183.085	144.480	0.154	-0.205
-182.071	-200.000	0.016	0.376
-181.056	800.000	0.076	0.244
-180.042	-33.665	0.161	-0.088
-179.027	-45.711	0.226	0.111
-178.012	800.000	0.061	0.199
-176.998	-140.789	0.216	-0.022
-175.983	187.308	0.085	0.126
-174.969	-86.053	-0.195	0.060
-173.954	-200.000	-0.015	-0.231
-172.939	51.154	-0.331	-0.312
-171.925	-23.023	0.227	0.136
-170.910	-24.664	0.354	0.210
-169.896	-147.325	0.205	0.017
-168.881	-100.154	-0.394	-0.098
-167.866	144.626	0.068	-0.091
-166.852	43.001	-0.193	-0.175
-165.837	532.582	0.044	-0.104
-164.823	-200.000	0.064	-0.440
-163.808	-38.458	0.201	-0.106
-162.793	-200.000	-0.008	0.102
-161.779	32.834	0.336	-0.289
-160.764	160.400	-0.181	0.251
-159.750	800.000	-0.085	-0.265
-158.735	-83.639	0.286	0.091
-157.720	-160.578	-0.077	-0.004
-156.706	336.794	-0.137	-0.264
-155.691	588.039	0.091	0.222
-154.677	171.063	0.068	0.097
-153.662	-34.281	-0.350	-0.191
-152.647	82.660	-0.228	-0.246
-151.633	71.129	0.115	-0.118
-150.618	-114.823	0.210	0.040
-149.604	800.000	0.042	-0.142
-148.589	-200.000	0.125	0.000
-147.574	-2.388	0.309	0.215
-146.560	115.801	0.142	0.172
-145.545	-189.634	0.199	0.002
-144.531	-200.000	-0.032	-0.192
-143.516	116.668	0.101	0.123
-142.502	-143.076	-0.194	0.019
-141.487	-49.434	0.160	-0.076
-140.472	3.987	-0.056	0.040
-139.458	-47.773	0.316	-0.152
-138.443	-15.001	0.117	0.074
-137.429	-25.006	0.162	-0.096
-136.414	-104.244	-0.127	0.029
-135.399	474.498	0.076	-0.170
-134.385	8.625	0.253	0.189
-133.370	800.000	-0.115	-0.319
-132.356	49.852	0.069	-0.065
-131.341	-24.082	0.055	-0.033
-130.326	-105.285	-0.262	-0.059
-129.312	-149.348	-0.180	-0.014
-128.297	34.167	0.269	-0.233
-127.283	-103.562	0.238	0.056
-126.268	355.164	0.163	-0.322
-125.253	132.510	-0.075	-0.096
-124.239	-0.992	0.142	0.100
-123.224	-200.000	0.013	0.177
-122.210	-62.257	0.387	0.160
-121.195	108.623	0.294	0.348
-120.180	-106.061	0.289	-0.064
-119.166	-200.000	0.035	-0.205
-118.151	800.000	-0.064	-0.242
-117.137	800.000	-0.077	-0.271
-116.122	-14.098	-0.168	0.107
-115.107	-25.364	-0.330	0.194
-114.093	81.861	0.213	-0.229
-113.078	-200.000	-0.001	-0.136
-112.064	478.627	-0.059	0.133
-111.049	-144.961	-0.255	0.023
-110.034	-140.178	-0.029	-0.003
-109.020	308.621	0.081	-0.150
-108.005	-198.861	0.117	-0.001
-106.991	137.942	-0.144	0.187
-105.976	-20.196	-0.362	0.221
-104.962	-44.998	0.391	0.193
-103.947	-38.937	0.108	-0.056
-102.932	283.759	-0.093	0.166
-101.918	-109.180	-0.282	0.059
-100.903	-74.008	-0.447	-0.161
-99.889	-102.516	0.240	-0.057
-98.874	-108.901	0.236	-0.050
-97.859	190.156	0.179	0.267
-96.845	427.277	0.068	-0.146
-95.830	-78.822	0.280	-0.095
-94.816	-20.012	-0.245	0.150
-93.801	-138.834	0.490	0.053
-92.786	364.691	-0.109	-0.218
-91.772	153.937	0.188	0.256
-90.757	278.302	-0.197	0.349
-89.743	82.752	-0.077	-0.083
-88.728	26.215	-0.288	0.238
-87.713	-111.929	0.231	0.046
-86.699	167.747	0.073	-0.103
-85.684	-200.000	0.059	0.292
-84.670	39.690	-0.156	0.139
-83.655	-200.000	-0.011	-0.285
-82.640	-146.057	0.140	-0.012
-81.626	-85.568	-0.119	-0.037
-80.611	45.012	0.264	0.241
-79.597	-176.982	-0.210	-0.005
-78.582	-132.865	0.152	-0.019
-77.567	-75.939	0.191	0.067
-76.553	800.000	0.087	-0.289
-75.538	-54.619	-0.430	0.193
-74.524	160.167	0.124	0.172
-73.509	-200.000	0.020	-0.261
-72.494	-200.000	-0.019	0.083
-71.480	84.626	-0.119	0.129
-70.465	800.000	-0.031	-0.098
-69.451	87.276	0.167	0.183
-68.436	-159.195	0.204	-0.011
-67.422	-4.947	-0.138	-0.094
-66.407	-37.756	0.075	0.040
-65.392	-157.607	-0.349	-0.021
-64.378	-200.000	-0.038	-0.171
-63.363	-108.756	0.163	-0.035
-62.349	-200.000	0.017	0.239
-61.334	50.891	-0.943	-0.885
-60.319	236.697	0.335	0.549
-59.305	145.690	-0.391	-0.519
-58.290	117.565	0.644	0.784
-57.276	-200.000	0.355	1.965
-56.261	-200.000	96.557	564.710
-55.246	630.488	1388.674	3478.880
-54.232	187.425	2598.279	3837.864
-53.217	119.673	2202.411	2701.364
-52.203	44.884	1735.760	1581.779
-51.188	37.590	1546.792	1358.835
-50.173	35.121	1519.679	1317.997
-49.159	53.332	1569.564	1489.078
-48.144	56.917	1588.546	1532.112
-47.130	37.991	1544.009	1358.963
-46.115	34.668	1528.290	1322.115
-45.100	34.576	1525.388	1318.915
-44.086	34.493	1523.754	1316.884
-43.071	34.398	1521.627	1314.337
-42.057	34.417	1520.064	1313.062
-41.042	34.378	1518.402	1311.309
-40.027	34.467	1516.898	1310.571
-39.013	34.480	1515.548	1309.437
-37.998	34.489	1514.464	1308.514
-36.984	34.360	1513.839	1307.035
-35.969	34.461	1511.802	1305.917
-34.954	34.503	1510.455	1304.987
-33.940	34.390	1509.196	1303.077
-32.925	34.363	1508.316	1302.083
-31.911	34.460	1506.491	1301.116
-30.896	34.446	1505.773	1300.346
-29.881	34.537	1503.778	1299.194
-28.867	34.603	1501.701	1297.799
-27.852	34.529	1501.104	1296.725
-26.838	34.511	1499.637	1295.287
-25.823	34.507	1498.077	1293.856
-24.809	34.466	1496.425	1292.101
-23.794	34.471	1494.932	1290.795
-22.779	34.427	1494.417	1290.003
-21.765	34.344	1493.474	1288.575
-20.750	34.448	1491.993	1287.953
-19.736	34.469	1491.024	1287.207
-18.721	34.428	1489.737	1285.763
-17.706	34.480	1488.904	1285.349
-16.692	34.509	1487.288	1284.095
-15.677	34.424	1486.532	1282.818
-14.663	34.465	1485.619	1282.260
-13.648	34.324	1484.776	1280.529
-12.633	34.404	1483.639	1280.040
-11.619	34.404	1482.730	1279.199
-10.604	34.364	1481.737	1278.029
-9.590	34.419	1481.017	1277.724
-8.575	34.422	1479.960	1276.781
-7.560	34.426	1479.071	1275.986
-6.546	34.439	1478.452	1275.491
-5.531	34.333	1477.696	1274.078
-4.517	34.368	1476.862	1273.547
-3.502	34.445	1475.659	1272.971
-2.487	34.298	1474.597	1271.025
-1.473	34.418	1473.625	1270.938
-0.458	34.404	1472.275	1269.627
0.556	33.404	1462.974	1259.425
1.571	30.690	1437.083	1219.269
2.586	27.209	1374.573	1144.261
3.600	25.468	1290.542	1063.921
4.615	23.963	1244.709	1017.445
5.629	21.017	1188.733	955.490
6.644	12.874	1102.876	844.837
7.659	6.291	1061.374	780.416
8.673	5.220	1055.898	771.033
9.688	5.103	1052.313	767.772
10.702	4.950	1050.910	765.931
11.717	5.017	1048.966	764.774
12.731	7.876	1051.770	780.794
13.746	15.447	1062.438	826.032
14.761	19.855	1067.452	851.602
15.775	18.726	1064.986	844.014
16.790	17.483	1062.813	836.115
17.804	16.437	1060.375	828.993
18.819	15.640	1058.424	823.491
19.834	15.053	1057.242	819.629
20.848	14.710	1056.447	817.261
21.863	14.490	1055.539	815.408
22.877	14.271	1054.552	813.504
23.892	14.102	1053.830	812.051
24.907	13.957	1053.348	810.897
25.921	14.057	1052.292	810.502
26.936	13.923	1052.180	809.691
27.950	14.132	1050.696	809.493
28.965	14.036	1049.615	808.123
29.980	14.211	1048.162	807.785
30.994	14.358	1046.981	807.515
32.009	14.401	1045.843	806.776
33.023	14.326	1045.671	806.205
34.038	14.258	1044.639	805.009
35.053	14.184	1043.723	803.877
36.067	14.270	1042.580	803.338
37.082	14.215	1041.580	802.234
38.096	14.156	1041.314	801.671
39.111	14.269	1040.365	801.414
40.126	14.278	1039.502	800.721
41.140	14.237	1038.425	799.624
42.155	14.105	1037.287	798.045
43.169	14.019	1036.165	796.699
44.184	13.929	1035.558	795.729
45.199	13.903	1033.985	794.329
46.213	14.054	1032.863	794.114
47.228	14.108	1031.615	793.343
48.242	14.120	1031.137	792.962
49.257	14.108	1030.440	792.299
50.271	14.067	1029.339	791.189
51.286	14.038	1028.683	790.475
52.301	14.268	1027.494	790.584
53.315	14.244	1026.731	789.816
54.330	14.167	1026.036	788.843
55.344	13.955	1025.603	787.437
56.359	14.107	1023.832	786.728
57.374	14.104	1023.483	786.374
58.388	14.168	1022.280	785.681
59.403	14.054	1021.589	784.545
60.417	14.061	1020.790	783.894
61.432	13.950	1020.617	783.170
62.447	13.921	1019.557	782.149
63.461	13.764	1019.027	780.937
64.476	13.869	1017.731	780.365
65.490	13.809	1016.934	779.406
66.505	13.725	1016.292	778.447
67.520	13.916	1015.405	778.596
68.534	13.877	1014.736	777.832
69.549	13.848	1013.447	776.641
70.563	13.955	1012.725	776.516
71.578	13.888	1012.494	775.958
72.593	13.826	1011.621	774.933
73.607	13.654	1010.793	773.425
74.622	13.809	1009.809	773.328
75.636	13.803	1008.728	772.404
76.651	13.849	1007.735	771.786
77.666	13.880	1006.899	771.225
78.680	13.824	1006.165	770.332
79.695	13.802	1005.718	769.821
80.709	13.843	1005.428	769.718
81.724	13.991	1004.470	769.604
82.739	13.901	1003.892	768.676
83.753	13.971	1003.065	768.301
84.768	14.147	1002.394	768.533
85.782	14.295	1001.310	768.315
86.797	14.275	1000.922	767.857
87.812	14.171	1000.443	766.942
88.826	14.218	999.159	766.104
89.841	14.149	998.481	765.201
90.855	14.149	997.696	764.530
91.870	14.148	996.978	763.912
92.884	14.229	996.163	763.589
93.899	14.389	995.613	763.833
94.914	14.213	995.186	762.630
95.928	14.261	994.427	762.204
96.943	14.413	993.420	762.060
97.957	14.325	992.726	761.057
98.972	14.285	991.628	759.965
99.987	14.209	990.872	758.973
101.001	14.203	990.125	758.307
102.016	14.262	989.498	758.025
103.030	14.273	988.929	757.574
104.045	14.276	987.827	756.676
105.060	14.253	986.923	755.814
106.074	14.271	985.946	755.078
107.089	14.044	984.929	753.204
108.103	14.115	984.110	752.832
109.118	14.011	983.025	751.466
110.133	13.879	982.692	750.548
111.147	14.001	981.778	750.334
112.162	13.907	980.836	749.122
113.176	14.026	979.693	748.722
114.191	14.160	978.361	748.238
115.206	14.141	977.959	747.783
116.220	14.056	977.458	746.950
117.235	14.198	976.446	746.746
118.249	14.016	975.774	745.352
119.264	14.020	974.724	744.499
120.279	13.989	973.850	743.629
121.293	14.042	972.990	743.145
122.308	13.894	972.467	742.019
123.322	13.859	971.795	741.284
124.337	13.868	970.628	740.367
125.352	13.921	969.205	739.450
126.366	13.916	968.016	738.456
127.381	13.977	966.768	737.711
128.395	13.921	965.851	736.698
129.410	13.992	964.990	736.290
130.424	13.875	964.431	735.281
131.439	13.972	963.140	734.658
132.454	13.913	962.832	734.097
133.468	14.110	961.763	734.089
134.483	14.041	961.421	733.456
135.497	14.054	960.360	732.643
136.512	14.063	960.218	732.508
137.527	14.172	958.845	731.874
138.541	14.157	957.810	730.953
139.556	14.049	957.888	730.477
140.570	14.035	956.931	729.618
141.585	14.253	955.865	729.699
142.600	14.195	955.502	729.103
143.614	14.213	954.564	728.398
144.629	14.304	953.986	728.293
145.643	14.300	953.070	727.511
146.658	14.407	951.847	726.980
147.673	14.233	951.267	725.712
148.687	14.173	950.572	724.861
149.702	14.085	949.508	723.599
150.716	14.085	948.816	723.006
151.731	14.252	947.259	722.485
152.746	14.183	947.042	721.954
153.760	14.185	945.952	721.070
154.775	14.119	945.637	720.477
155.789	14.258	944.734	720.328
156.804	14.169	944.328	719.571
157.819	14.235	943.518	719.172
158.833	14.257	942.895	718.730
159.848	14.438	941.978	718.750
160.862	14.529	941.404	718.637
161.877	14.375	940.485	717.209
162.892	14.257	940.034	716.296
163.906	14.109	939.216	714.975
164.921	14.178	937.967	714.255
165.935	14.253	936.971	713.757
166.950	14.328	936.125	713.369
167.964	14.241	935.734	712.635
168.979	14.196	934.428	711.386
169.994	14.211	933.705	710.838
171.008	14.326	932.677	710.480
172.023	14.268	931.900	709.578
173.037	14.428	930.928	709.458
174.052	14.453	930.056	708.836
175.067	14.435	929.746	708.463
176.081	14.305	928.957	707.246
177.096	14.309	928.077	706.530
178.110	14.311	927.312	705.892
179.125	14.358	926.382	705.322
180.140	14.411	925.548	704.849
181.154	14.377	924.673	703.976
182.169	14.424	924.301	703.830
183.183	14.465	923.660	703.453
184.198	14.447	923.357	703.082
185.213	14.513	922.666	702.774
186.227	14.504	921.791	702.005
187.242	14.649	920.959	701.919
188.256	14.623	920.502	701.401
189.271	14.732	919.679	701.169
190.286	14.735	918.816	700.464
191.300	14.572	918.071	699.148
192.315	14.262	917.338	697.232
193.329	14.253	916.674	696.626
194.344	14.362	915.913	696.444
195.359	14.362	915.431	696.016
196.373	14.408	915.290	696.039
197.388	14.495	914.571	695.794
198.402	14.576	914.116	695.723
199.417	14.788	913.500	696.078
200.432	14.811	913.097	695.801
201.446	14.781	912.823	695.408
202.461	14.870	912.145	695.199
203.475	15.037	911.636	695.445
204.490	14.995	911.202	694.878
205.504	14.873	910.277	693.604
206.519	14.706	909.577	692.316
207.534	14.880	908.399	692.081
208.548	14.870	907.757	691.485
209.563	14.803	907.292	690.794
210.577	14.836	906.653	690.382
211.592	14.830	905.885	689.714
212.607	14.871	905.557	689.573
213.621	14.953	904.804	689.275
214.636	14.861	904.415	688.537
215.650	14.939	903.518	688.118
216.665	14.919	903.158	687.697
217.680	15.001	902.565	687.522
218.694	15.034	901.807	687.022
219.709	15.074	901.386	686.801
220.723	14.957	901.091	686.039
221.738	15.015	900.196	685.533
222.753	15.002	899.349	684.775
223.767	14.954	898.733	684.050
224.782	15.076	897.922	683.868
225.796	15.043	897.391	683.267
226.811	15.058	896.436	682.542
227.826	15.017	896.125	682.077
228.840	15.065	895.273	681.563
229.855	15.146	894.491	681.240
230.869	15.044	893.890	680.307
231.884	15.193	892.913	680.107
232.899	15.270	892.182	679.801
233.913	15.197	891.740	679.112
234.928	14.988	891.232	677.816
235.942	15.034	890.440	677.341
236.957	15.093	889.431	676.753
237.972	15.047	889.035	676.204
238.986	15.029	888.712	675.826
240.001	15.112	887.869	675.460
241.015	15.104	887.211	674.867
242.030	15.160	886.577	674.551
243.045	15.230	885.749	674.144
244.059	15.180	885.232	673.487
245.074	15.214	884.710	673.169
246.088	15.154	884.336	672.583
247.103	15.167	884.156	672.440
248.117	15.253	883.010	671.854
249.132	15.393	882.564	672.016
250.147	15.404	882.195	671.719
251.161	15.480	881.439	671.386
252.176	15.634	880.335	671.102
253.190	15.642	879.843	670.701
254.205	15.545	879.314	669.849
255.220	15.709	878.794	670.048
256.234	15.655	878.250	669.360
257.249	15.739	877.245	668.867
258.263	15.634	877.114	668.290
259.278	15.667	876.582	667.957
260.293	15.758	875.830	667.686
261.307	15.755	875.257	667.180
262.322	15.736	874.561	666.517
263.336	15.807	874.481	666.675
264.351	15.748	873.696	665.787
265.366	15.806	873.318	665.667
266.380	15.936	872.134	665.218
267.395	15.921	871.404	664.543
268.409	16.042	870.811	664.512
269.424	15.814	869.977	662.919
270.439	15.901	869.301	662.688
271.453	15.869	868.752	662.082
272.468	15.742	868.168	661.079
273.482	15.870	867.285	660.852
274.497	15.861	866.894	660.461
275.512	15.839	866.366	659.912
276.526	15.870	865.533	659.342
277.541	15.977	864.809	659.151
278.555	15.924	864.058	658.312
279.570	15.981	863.463	658.024
280.585	16.041	863.207	658.003
281.599	16.080	862.464	657.534
282.614	16.074	861.846	656.980
283.628	15.945	861.336	656.030
284.643	15.953	860.897	655.669
285.657	15.949	860.398	655.216
286.672	15.935	860.347	655.065
287.687	16.091	859.200	654.738
288.701	16.061	858.490	654.022
289.716	16.040	857.922	653.452
290.730	16.014	857.582	653.033
291.745	16.074	857.186	652.906
292.760	16.115	856.319	652.348
293.774	16.264	855.824	652.487
294.789	16.235	855.304	651.920
295.803	16.225	854.530	651.235
296.818	16.158	854.031	650.539
297.833	16.170	853.508	650.132
298.847	16.127	852.731	649.314
299.862	16.105	852.174	648.748
300.876	16.167	851.393	648.337
301.891	16.255	850.517	647.949
302.906	16.261	849.950	647.484
303.920	16.216	849.327	646.780
304.935	16.426	848.859	647.167
305.949	16.353	848.514	646.569
306.964	16.578	847.608	646.682
307.979	16.371	847.350	645.637
308.993	16.468	846.457	645.269
310.008	16.483	846.059	644.965
311.022	16.537	845.331	644.561
312.037	16.574	844.947	644.352
313.052	16.355	844.608	643.201
314.066	16.206	843.844	641.997
315.081	16.413	842.721	641.871
316.095	16.316	842.982	641.645
317.110	16.440	841.971	641.290
318.125	16.393	841.457	640.663
319.139	16.339	841.251	640.245
320.154	16.442	840.418	639.943
321.168	16.360	840.139	639.363
322.183	16.412	839.635	639.122
323.197	16.537	838.983	639.041
324.212	16.562	838.231	638.507
325.227	16.475	838.190	638.089
326.241	16.610	837.215	637.799
327.256	16.593	836.402	637.061
328.270	16.463	836.174	636.341
329.285	16.402	835.675	635.675
330.300	16.393	835.347	635.336
331.314	16.661	834.307	635.493
332.329	16.567	833.729	634.644
333.343	16.666	833.175	634.539
334.358	16.608	832.832	634.005
335.373	16.662	832.261	633.715
336.387	16.655	831.521	633.070
337.402	16.750	831.301	633.200
338.416	16.716	830.410	632.340
339.431	16.844	829.718	632.236
340.446	16.900	829.373	632.125
341.460	16.927	829.094	631.956
342.475	16.852	828.603	631.245
343.489	16.896	828.087	630.960
344.504	16.979	827.271	630.591
345.519	16.984	827.054	630.389
346.533	16.944	826.487	629.754
347.548	17.006	826.346	629.821
348.562	17.080	825.226	629.185
349.577	16.901	824.892	628.213
350.592	16.872	824.218	627.536
351.606	16.781	823.735	626.776
352.621	16.810	823.241	626.452
353.635	16.977	822.715	626.612
354.650	16.981	822.037	626.057
355.665	16.945	822.012	625.847
356.679	17.044	821.441	625.723
357.694	17.028	821.248	625.460
358.708	17.075	820.509	625.017
359.723	17.114	819.765	624.538
360.738	17.058	819.227	623.867
361.752	17.063	818.825	623.526
362.767	17.158	818.306	623.421
363.781	17.219	817.560	623.022
364.796	17.115	817.610	622.625
365.810	17.119	817.355	622.389
366.825	17.309	816.527	622.400
367.840	17.449	816.050	622.492
368.854	17.361	815.992	622.071
369.869	17.343	815.364	621.472
370.883	17.390	814.706	621.087
371.898	17.257	814.316	620.251
372.913	17.384	813.401	619.962
373.927	17.359	813.019	619.524
374.942	17.283	812.482	618.785
375.956	17.449	811.541	618.614
376.971	17.333	811.425	618.051
377.986	17.608	810.501	618.289
379.000	17.617	810.243	618.070
380.015	17.666	809.459	617.595
381.029	17.622	809.369	617.312
382.044	17.481	808.306	615.938
383.059	17.553	808.000	615.912
384.073	17.764	807.068	615.907
385.088	17.467	807.340	614.989
386.102	17.613	806.140	614.545
387.117	17.464	805.856	613.738
388.132	17.482	805.242	613.279
389.146	17.412	804.858	612.683
390.161	17.414	804.752	612.553
391.175	17.677	804.153	612.990
392.190	17.616	804.274	612.807
393.205	17.580	803.632	612.136
394.219	17.808	802.842	612.300
395.234	17.522	802.505	610.960
396.248	17.482	801.957	610.346
397.263	17.554	801.709	610.364
398.278	17.598	800.724	609.715
399.292	17.434	800.776	609.116
400.307	17.528	800.194	608.954
401.321	17.677	799.863	609.180
402.336	17.652	799.266	608.583
403.350	17.629	798.814	608.103
404.365	17.625	798.249	607.604
405.380	17.686	797.869	607.481
406.394	17.637	797.623	607.062
407.409	17.913	797.250	607.708
408.423	17.873	796.963	607.294
409.438	17.949	796.591	607.228
410.453	17.840	796.306	606.568
411.467	17.935	795.531	606.261
412.482	17.956	795.000	605.876
413.496	17.997	794.610	605.672
414.511	18.084	794.151	605.575
415.526	17.983	793.934	604.999
416.540	18.108	793.548	605.095
417.555	17.988	793.036	604.227
418.569	18.029	792.759	604.107
419.584	18.075	792.153	603.755
420.599	18.082	791.748	603.417
421.613	153.415	1368.313	1790.378
422.628	132.680	1452.323	1790.488
