DTS Sentinel unit serial number:	SN413079Multiplexer serial number:	ORYXHardware model number:	OX4-SRSoftware version number:	ORYX F/W v4.00 Oryx Data Collector v3.7.2.0data status	okinstallation	princeton_trtdifferential loss correction	single-endedforward channel	channel 3reverse channel	N/Adate	2019/09/15time	20:28:34forward acquisition time	60.00reverse acquisition time	0.00gamma	496.2192k internal	0.2323k external	0.2323temperature offset calibration	0.9938default loss term (dB/km)	0.3790temperature slope calibration	1.0000multiplexer offset coefficient	1.0000multiplexer slope coefficient	1.0000fibre end	0.00T internal ref (°C)	33.55T ext. ref 1 (°C)	7.80T ext. ref 2 (°C)	25.27length (m)	temperature (°C)	Stokes	anti-Stokes-747.200	-32.159	0.157	0.089
-746.185	-200.000	-0.072	0.590
-745.171	-104.662	0.324	-0.075
-744.156	101.743	-0.336	0.396
-743.142	36.790	0.245	-0.218
-742.127	800.000	0.051	0.153
-741.112	329.406	-0.051	0.099
-740.098	-111.506	-0.091	-0.019
-739.083	-81.658	0.272	-0.090
-738.069	-200.000	0.021	0.137
-737.054	305.581	0.160	-0.301
-736.039	-64.633	-0.228	-0.093
-735.025	-200.000	0.015	0.104
-734.010	800.000	-0.060	0.216
-732.996	51.196	-0.052	-0.049
-731.981	-200.000	0.032	0.301
-730.966	96.484	0.082	0.095
-729.952	-136.183	-0.149	0.018
-728.937	-26.221	-0.070	-0.042
-727.923	-200.000	0.037	0.182
-726.908	-200.000	0.065	-0.383
-725.894	110.864	-0.164	0.199
-724.879	6.411	0.096	0.072
-723.864	149.514	0.301	0.411
-722.850	-102.653	-0.109	0.026
-721.835	-200.000	-0.008	-0.257
-720.821	30.390	-0.062	-0.053
-719.806	-4.065	-0.283	-0.198
-718.791	60.166	0.079	-0.079
-717.777	-45.302	-0.280	-0.140
-716.762	-0.355	-0.020	0.014
-715.748	21.378	-0.230	-0.189
-714.733	-119.795	0.297	-0.052
-713.718	800.000	0.010	-0.037
-712.704	-200.000	0.059	-0.373
-711.689	-95.214	-0.076	0.021
-710.675	-21.775	-0.255	-0.157
-709.660	800.000	-0.047	-0.179
-708.645	-55.030	0.308	-0.140
-707.631	179.459	-0.116	-0.171
-706.616	800.000	0.080	-0.319
-705.602	41.966	0.155	-0.142
-704.587	407.415	0.086	0.183
-703.572	-200.000	-0.032	-0.334
-702.558	425.981	-0.045	-0.097
-701.543	157.484	-0.081	0.113
-700.529	133.389	0.058	0.075
-699.514	226.725	0.153	0.251
-698.499	102.515	-0.126	0.149
-697.485	-56.292	-0.172	-0.077
-696.470	170.197	0.058	-0.084
-695.456	-60.747	0.178	-0.076
-694.441	-124.820	0.163	-0.025
-693.426	-86.883	-0.184	0.056
-692.412	-200.000	0.000	0.141
-691.397	-126.915	0.119	0.018
-690.383	-200.000	0.054	0.246
-689.368	-200.000	0.115	0.528
-688.354	35.386	-0.293	0.259
-687.339	246.631	-0.072	-0.122
-686.324	-67.463	-0.199	-0.079
-685.310	-200.000	-0.020	-0.236
-684.295	354.836	0.040	-0.081
-683.281	208.468	0.096	-0.152
-682.266	-63.491	0.239	-0.099
-681.251	-99.975	0.350	-0.088
-680.237	-43.844	0.140	-0.071
-679.222	-53.408	0.286	0.132
-678.208	800.000	0.010	0.037
-677.193	101.784	-0.089	0.105
-676.178	-152.961	0.091	0.006
-675.164	68.226	-0.163	-0.169
-674.149	-143.527	0.202	-0.019
-673.135	252.429	-0.135	-0.233
-672.120	-200.000	0.047	-0.348
-671.105	-111.783	0.065	0.013
-670.091	800.000	-0.124	-0.414
-669.076	-200.000	0.041	-0.301
-668.062	-170.426	-0.103	-0.004
-667.047	-99.459	-0.178	0.045
-666.032	800.000	0.044	0.174
-665.018	-98.099	-0.230	0.060
-664.003	800.000	0.053	-0.156
-662.989	-85.660	-0.116	0.036
-661.974	23.148	-0.204	0.169
-660.959	79.611	-0.247	0.267
-659.945	-10.462	0.150	-0.100
-658.930	-200.000	-0.016	-0.333
-657.916	-78.885	0.284	-0.097
-656.901	-111.548	-0.118	0.024
-655.886	63.871	0.099	0.100
-654.872	319.300	0.057	0.109
-653.857	-79.405	-0.057	0.019
-652.843	-20.909	-0.296	-0.182
-651.828	533.879	-0.095	0.226
-650.814	-56.870	0.214	-0.095
-649.799	9.967	0.202	-0.154
-648.784	-39.117	0.312	-0.165
-647.770	-22.196	-0.195	0.119
-646.755	-95.102	-0.085	0.023
-645.741	-31.554	-0.125	0.071
-644.726	666.000	0.089	-0.231
-643.711	-5.342	0.119	0.082
-642.697	345.193	-0.105	0.207
-641.682	800.000	-0.094	0.385
-640.668	187.779	-0.117	0.176
-639.653	-200.000	0.083	-0.372
-638.638	121.585	-0.023	-0.028
-637.624	300.878	0.224	0.416
-636.609	124.243	-0.294	0.372
-635.595	-31.414	0.324	-0.183
-634.580	79.724	-0.116	0.125
-633.565	-46.358	-0.341	-0.169
-632.551	-200.000	-0.031	0.277
-631.536	-200.000	-0.021	0.118
-630.522	800.000	-0.022	0.091
-629.507	-102.569	-0.285	-0.068
-628.492	169.603	0.110	0.158
-627.478	-99.978	-0.329	-0.083
-626.463	-65.437	-0.049	0.020
-625.449	800.000	-0.019	0.073
-624.434	-56.523	0.206	0.092
-623.419	-138.241	0.231	0.026
-622.405	-200.000	0.006	-0.326
-621.390	-194.282	-0.119	-0.001
-620.376	397.110	0.083	0.173
-619.361	-5.387	0.122	-0.084
-618.346	800.000	0.089	-0.297
-617.332	461.157	0.017	0.037
-616.317	-45.585	-0.117	0.058
-615.303	-200.000	-0.024	0.138
-614.288	-200.000	0.002	0.053
-613.273	-69.964	0.180	-0.069
-612.259	134.338	0.072	0.093
-611.244	719.371	0.114	-0.305
-610.230	-65.430	0.197	-0.080
-609.215	-110.090	-0.106	0.022
-608.201	-200.000	-0.180	-0.000
-607.186	800.000	-0.050	0.205
-606.171	-98.761	-0.210	0.054
-605.157	-53.111	0.152	0.070
-604.142	68.533	-0.130	0.134
-603.128	137.931	-0.107	-0.140
-602.113	-200.000	0.038	0.355
-601.098	-200.000	-0.022	0.125
-600.084	545.359	-0.069	-0.166
-599.069	-164.296	-0.088	0.004
-598.055	-111.841	0.157	-0.032
-597.040	-104.281	-0.177	0.041
-596.025	-113.218	0.237	0.047
-595.011	96.268	0.067	0.077
-593.996	247.145	-0.017	-0.030
-592.982	597.609	0.044	-0.109
-591.967	76.799	0.094	0.100
-590.952	276.341	-0.111	-0.198
-589.938	-137.151	-0.286	0.033
-588.923	-46.182	0.073	0.036
-587.909	-15.762	0.113	0.072
-586.894	30.067	0.070	0.060
-585.879	-200.000	0.005	0.388
-584.865	-71.157	0.266	0.100
-583.850	242.066	-0.082	0.137
-582.836	140.851	0.145	-0.193
-581.821	800.000	-0.044	0.132
-580.806	-159.123	-0.415	-0.024
-579.792	120.486	-0.275	-0.343
-578.777	76.300	0.063	-0.067
-577.763	53.225	-0.112	-0.108
-576.748	-200.000	-0.029	0.162
-575.733	800.000	-0.047	0.151
-574.719	-200.000	0.015	0.215
-573.704	-113.301	-0.329	-0.065
-572.690	46.476	-0.134	-0.125
-571.675	25.503	-0.148	-0.124
-570.661	722.020	0.087	0.233
-569.646	-200.000	0.016	0.309
-568.631	-62.912	0.040	-0.017
-567.617	-200.000	0.064	-0.412
-566.602	319.908	-0.213	-0.406
-565.588	-77.883	-0.217	-0.075
-564.573	-150.112	-0.062	0.005
-563.558	-200.000	-0.026	-0.227
-562.544	35.898	-0.158	0.139
-561.529	-1.025	-0.108	-0.077
-560.515	143.141	-0.157	-0.209
-559.500	800.000	-0.033	-0.103
-558.485	-154.107	-0.165	0.011
-557.471	-22.701	0.147	0.089
-556.456	217.028	0.110	0.175
-555.442	85.966	-0.213	0.235
-554.427	-74.537	-0.123	-0.045
-553.412	800.000	-0.043	0.184
-552.398	-170.800	0.364	-0.013
-551.383	172.243	0.119	-0.171
-550.369	-200.000	-0.018	0.324
-549.354	22.425	-0.135	0.111
-548.339	43.803	-0.151	0.138
-547.325	40.937	-0.164	-0.148
-546.310	-4.871	-0.052	0.036
-545.296	-101.576	0.185	-0.045
-544.281	-53.098	0.133	0.061
-543.266	-2.884	-0.249	0.174
-542.252	-133.319	0.354	-0.045
-541.237	-84.612	-0.272	0.086
-540.223	-200.000	-0.020	0.131
-539.208	-200.000	0.042	-0.199
-538.193	-74.037	-0.350	0.127
-537.179	-125.393	-0.202	-0.031
-536.164	703.538	-0.040	-0.106
-535.150	-83.082	0.065	0.021
-534.135	91.776	-0.057	0.064
-533.121	-113.201	-0.116	0.023
-532.106	451.102	0.086	0.190
-531.091	90.516	0.090	0.101
-530.077	-140.710	0.206	0.021
-529.062	-16.396	-0.064	0.041
-528.048	-62.079	-0.220	0.092
-527.033	190.296	0.078	-0.117
-526.018	-200.000	-0.018	0.359
-525.004	-43.476	0.131	0.066
-523.989	244.072	-0.131	0.220
-522.975	122.822	0.201	0.251
-521.960	-17.567	0.199	0.126
-520.945	-39.238	0.153	0.080
-519.931	-121.555	0.279	-0.046
-518.916	427.337	-0.186	-0.403
-517.902	-141.217	-0.236	-0.024
-516.887	82.932	-0.190	0.206
-515.872	230.350	0.121	-0.197
-514.858	379.329	0.050	0.103
-513.843	800.000	-0.049	0.177
-512.829	-61.806	0.202	-0.085
-511.814	132.946	-0.232	-0.299
-510.799	-112.967	0.178	-0.035
-509.785	-3.939	-0.177	-0.123
-508.770	31.232	0.099	-0.085
-507.756	-104.967	-0.141	0.032
-506.741	168.117	-0.103	0.146
-505.726	-200.000	0.030	0.226
-504.712	-92.839	-0.277	0.077
-503.697	-137.232	-0.140	0.016
-502.683	800.000	0.083	0.254
-501.668	-200.000	-0.001	0.207
-500.653	7.276	-0.093	-0.070
-499.639	-200.000	-0.048	0.303
-498.624	142.175	-0.085	0.113
-497.610	-200.000	0.012	-0.144
-496.595	-68.325	0.128	0.050
-495.581	-120.809	-0.315	0.053
-494.566	-145.198	0.546	0.049
-493.551	180.312	-0.120	-0.176
-492.537	29.465	-0.219	0.186
-491.522	101.953	0.197	-0.230
-490.508	268.004	0.184	0.323
-489.493	-99.779	-0.180	0.045
-488.478	-200.000	-0.011	-0.486
-487.464	32.078	0.207	0.178
-486.449	604.265	-0.085	-0.212
-485.435	399.048	0.014	-0.029
-484.420	-14.051	-0.089	-0.057
-483.405	41.027	0.228	-0.205
-482.391	580.028	-0.051	-0.124
-481.376	-74.229	-0.213	-0.077
-480.362	494.769	0.064	-0.147
-479.347	116.649	0.209	0.256
-478.332	-200.000	0.256	0.000
-477.318	569.865	-0.144	0.349
-476.303	-14.942	0.188	-0.120
-475.289	-58.438	0.253	0.110
-474.274	800.000	0.078	0.301
-473.259	486.643	-0.092	0.210
-472.245	-23.861	0.090	0.054
-471.230	2.025	0.249	-0.179
-470.216	165.580	0.018	0.025
-469.201	-85.871	0.280	0.087
-468.186	-117.533	-0.435	0.079
-467.172	26.503	-0.214	-0.178
-466.157	20.968	-0.326	-0.264
-465.143	56.620	0.108	0.105
-464.128	-141.457	0.242	-0.025
-463.113	-125.807	-0.054	0.008
-462.099	800.000	0.027	-0.085
-461.084	-200.000	-0.023	0.105
-460.070	275.928	-0.151	-0.268
-459.055	-69.246	-0.095	-0.037
-458.040	-163.776	-0.088	0.004
-457.026	-83.356	0.403	-0.129
-456.011	245.689	0.202	0.339
-454.997	522.979	0.081	0.191
-453.982	-200.000	0.015	-0.202
-452.968	-200.000	-0.002	0.317
-451.953	-118.098	-0.260	-0.046
-450.938	-134.373	0.212	0.026
-449.924	83.623	-0.084	0.091
-448.909	29.513	-0.087	0.074
-447.895	129.147	-0.168	-0.214
-446.880	800.000	-0.082	0.226
-445.865	800.000	0.078	-0.247
-444.851	-57.061	-0.138	0.061
-443.836	800.000	-0.105	0.317
-442.822	13.912	-0.259	0.201
-441.807	-200.000	-0.012	0.055
-440.792	-102.913	0.206	-0.049
-439.778	55.666	0.117	-0.113
-438.763	79.010	0.296	0.316
-437.749	800.000	0.069	0.250
-436.734	282.759	0.038	-0.067
-435.719	-200.000	0.034	-0.199
-434.705	-58.346	0.171	-0.074
-433.690	-133.434	0.434	0.054
-432.676	12.614	0.083	-0.064
-431.661	-117.725	-0.241	-0.043
-430.646	49.755	-0.190	-0.179
-429.632	511.604	-0.083	-0.192
-428.617	50.786	0.384	-0.363
-427.603	-66.837	0.337	0.133
-426.588	-200.000	0.024	-0.153
-425.573	-136.769	0.019	0.002
-424.559	-13.621	0.140	0.091
-423.544	-11.297	0.122	-0.080
-422.530	39.538	-0.321	-0.287
-421.515	-65.781	0.327	-0.131
-420.500	-200.000	0.004	0.109
-419.486	592.266	-0.030	-0.074
-418.471	-200.000	-0.013	0.231
-417.457	-6.590	0.518	-0.352
-416.442	543.465	-0.087	0.208
-415.428	800.000	-0.010	0.037
-414.413	-59.255	-0.107	0.046
-413.398	574.658	-0.112	-0.272
-412.384	-200.000	-0.018	-0.136
-411.369	-200.000	0.008	-0.134
-410.355	-200.000	-0.003	-0.036
-409.340	116.796	0.080	0.098
-408.325	800.000	-0.044	-0.141
-407.311	-16.383	-0.159	0.101
-406.296	138.534	-0.103	-0.135
-405.282	495.355	0.175	-0.401
-404.267	318.737	0.100	-0.188
-403.252	337.044	0.125	-0.242
-402.238	-52.889	0.187	0.086
-401.223	-200.000	0.019	-0.251
-400.209	-29.230	0.240	0.137
-399.194	4.670	-0.290	0.212
-398.179	-200.000	-0.042	0.188
-397.165	-78.240	-0.270	0.092
-396.150	-200.000	-0.026	0.171
-395.136	-14.970	-0.003	0.002
-394.121	-200.000	-0.041	0.229
-393.106	-71.707	-0.136	0.051
-392.092	-200.000	0.055	-0.542
-391.077	28.132	0.136	0.114
-390.063	73.178	-0.073	-0.076
-389.048	44.030	0.140	-0.128
-388.033	-145.729	-0.435	0.039
-387.019	-196.284	-0.276	0.002
-386.004	182.277	-0.096	0.140
-384.990	-87.204	-0.056	-0.017
-383.975	800.000	0.071	0.201
-382.960	-200.000	-0.060	-0.566
-381.946	318.136	0.080	-0.151
-380.931	93.353	0.060	0.068
-379.917	-104.107	-0.128	-0.030
-378.902	-85.096	0.339	0.106
-377.888	-200.000	0.012	-0.064
-376.873	216.080	0.076	-0.120
-375.858	-79.004	0.119	0.040
-374.844	150.861	0.160	0.216
-373.829	505.923	-0.076	-0.175
-372.815	45.568	0.284	0.261
-371.800	-15.503	0.124	0.079
-370.785	-65.900	-0.277	-0.110
-369.771	-3.665	-0.371	0.256
-368.756	-46.839	0.229	0.111
-367.742	-128.164	0.301	-0.043
-366.727	75.832	-0.103	0.109
-365.712	-200.000	0.029	-0.176
-364.698	-129.100	-0.246	0.034
-363.683	8.180	-0.101	0.075
-362.669	800.000	-0.055	0.195
-361.654	-129.681	0.181	0.025
-360.639	32.671	-0.135	0.116
-359.625	-200.000	0.101	-0.533
-358.610	-24.997	0.216	-0.128
-357.596	52.975	0.262	-0.250
-356.581	-200.000	0.001	-0.070
-355.566	-138.858	-0.209	0.023
-354.552	-200.000	-0.025	-0.180
-353.537	-119.999	0.099	0.017
-352.523	-70.089	0.203	-0.077
-351.508	-200.000	-0.054	-0.375
-350.493	-200.000	-0.001	0.040
-349.479	-135.001	-0.132	0.016
-348.464	190.262	-0.035	0.052
-347.450	24.432	-0.213	-0.175
-346.435	370.471	-0.143	0.287
-345.420	-151.965	-0.267	-0.019
-344.406	436.133	0.184	-0.397
-343.391	-200.000	-0.024	-0.212
-342.377	-43.297	-0.075	0.038
-341.362	800.000	0.101	0.436
-340.348	-10.571	0.440	0.289
-339.333	389.104	-0.111	0.229
-338.318	-67.655	0.367	0.143
-337.304	82.356	0.032	-0.034
-336.289	-61.683	-0.142	-0.059
-335.275	800.000	-0.028	0.094
-334.260	476.263	0.028	0.062
-333.245	-14.143	0.068	0.044
-332.231	199.139	0.154	-0.234
-331.216	-1.253	-0.202	0.142
-330.202	-200.000	-0.023	-0.352
-329.187	-200.000	0.051	0.255
-328.172	-5.525	-0.058	-0.039
-327.158	-200.000	-0.045	0.273
-326.143	17.536	-0.125	0.098
-325.129	132.038	-0.250	-0.320
-324.114	-152.207	0.188	-0.014
-323.099	75.650	0.095	0.100
-322.085	-200.000	0.090	-0.000
-321.070	-26.821	0.204	-0.119
-320.056	800.000	-0.151	-0.472
-319.041	-120.688	0.327	0.055
-318.026	-51.419	-0.141	0.066
-317.012	592.313	0.050	0.124
-315.997	-56.768	-0.086	-0.038
-314.983	-159.593	0.219	0.012
-313.968	124.377	-0.086	-0.108
-312.953	-89.268	-0.218	-0.064
-311.939	-65.902	-0.125	-0.050
-310.924	-22.777	-0.205	0.123
-309.910	-21.048	-0.227	0.138
-308.895	-200.000	0.030	-0.225
-307.880	-0.799	-0.188	0.133
-306.866	-67.704	0.230	-0.089
-305.851	118.058	-0.170	-0.208
-304.837	-12.080	0.141	0.092
-303.822	34.029	-0.211	-0.182
-302.807	-77.643	0.233	-0.080
-301.793	766.456	-0.170	0.458
-300.778	800.000	0.108	0.332
-299.764	-200.000	-0.003	0.076
-298.749	10.116	-0.133	-0.100
-297.735	258.856	-0.077	-0.132
-296.720	-200.000	0.019	-0.212
-295.705	800.000	-0.090	-0.389
-294.691	800.000	0.097	-0.348
-293.676	458.749	-0.164	-0.362
-292.662	184.874	-0.136	-0.201
-291.647	506.753	0.064	0.147
-290.632	-86.285	-0.301	-0.092
-289.618	-200.000	-0.034	0.492
-288.603	252.585	-0.053	0.089
-287.589	5.538	0.188	0.138
-286.574	-66.379	-0.162	-0.064
-285.559	86.158	0.229	0.250
-284.545	-77.060	0.073	0.025
-283.530	132.562	0.141	0.180
-282.516	323.624	-0.073	-0.138
-281.501	-26.502	0.133	0.078
-280.486	-200.000	0.007	0.375
-279.472	420.898	0.145	-0.309
-278.457	232.309	-0.071	0.115
-277.443	301.383	-0.193	0.353
-276.428	-200.000	-0.021	-0.336
-275.413	83.608	-0.104	-0.112
-274.399	-102.882	0.464	-0.109
-273.384	340.194	-0.025	-0.047
-272.370	-200.000	0.006	0.067
-271.355	186.366	-0.052	0.076
-270.340	-90.347	0.124	0.036
-269.326	-200.000	-0.004	0.114
-268.311	278.765	0.117	0.207
-267.297	343.918	-0.141	-0.275
-266.282	-179.881	0.052	-0.001
-265.267	-60.592	-0.094	0.040
-264.253	-4.308	-0.231	-0.158
-263.238	23.616	-0.255	0.208
-262.224	-122.891	-0.259	-0.041
-261.209	-96.934	0.156	-0.041
-260.195	-200.000	0.007	-0.317
-259.180	800.000	-0.145	0.440
-258.165	800.000	-0.019	0.081
-257.151	-156.754	0.310	0.019
-256.136	-38.501	0.137	-0.072
-255.122	-200.000	-0.015	-0.104
-254.107	800.000	-0.069	-0.212
-253.092	-28.833	0.079	-0.045
-252.078	-130.470	-0.115	0.015
-251.063	-104.354	0.187	0.043
-250.049	800.000	0.177	0.533
-249.034	42.454	0.240	0.217
-248.019	261.594	0.132	-0.227
-247.005	-116.623	0.084	-0.015
-245.990	800.000	0.086	0.249
-244.976	14.893	0.107	0.083
-243.961	-82.177	-0.323	-0.104
-242.946	-19.167	-0.115	0.071
-241.932	-106.976	0.445	-0.098
-240.917	-200.000	0.068	-0.408
-239.903	-90.117	-0.114	-0.033
-238.888	-200.000	0.007	-0.173
-237.873	145.836	0.031	0.041
-236.859	11.931	-0.316	0.241
-235.844	55.746	0.126	-0.120
-234.830	36.824	-0.111	0.097
-233.815	306.377	-0.043	0.080
-232.800	800.000	-0.092	0.382
-231.786	-46.097	-0.109	0.053
-230.771	800.000	0.144	0.421
-229.757	-126.567	-0.139	-0.020
-228.742	-114.980	0.109	-0.021
-227.727	418.528	-0.038	-0.081
-226.713	-120.179	0.177	-0.030
-225.698	-20.593	0.241	-0.147
-224.684	-200.000	0.004	0.171
-223.669	157.147	-0.085	-0.117
-222.655	800.000	-0.063	0.231
-221.640	-200.000	0.065	-0.433
-220.625	217.648	0.065	0.103
-219.611	317.112	-0.082	0.154
-218.596	-33.034	-0.249	-0.136
-217.582	-44.160	-0.336	-0.167
-216.567	-65.553	0.132	0.053
-215.552	63.869	0.136	-0.136
-214.538	-41.270	-0.238	-0.121
-213.523	-39.301	0.186	-0.097
-212.509	-57.683	0.269	0.116
-211.494	138.689	-0.046	-0.060
-210.479	-15.240	0.135	-0.085
-209.465	-104.400	-0.050	-0.011
-208.450	576.829	-0.088	0.212
-207.436	800.000	-0.053	-0.210
-206.421	118.249	-0.295	-0.360
-205.406	65.156	0.077	-0.077
-204.392	591.968	-0.099	0.242
-203.377	800.000	-0.080	0.276
-202.363	-200.000	0.012	-0.109
-201.348	553.868	-0.100	0.237
-200.333	-132.043	-0.008	0.001
-199.319	357.867	0.111	0.219
-198.304	169.174	-0.067	0.094
-197.290	26.145	0.187	0.154
-196.275	-118.986	-0.266	-0.046
-195.260	143.714	0.070	0.092
-194.246	548.035	0.064	0.151
-193.231	360.732	0.161	-0.318
-192.217	285.952	0.035	0.062
-191.202	104.030	-0.234	-0.272
-190.187	-200.000	0.047	-0.262
-189.173	305.992	-0.098	-0.180
-188.158	-30.659	0.079	0.044
-187.144	-69.264	0.113	-0.043
-186.129	800.000	0.020	0.062
-185.114	-45.205	0.169	-0.083
-184.100	319.095	0.053	-0.100
-183.085	-99.550	-0.159	0.040
-182.071	-18.237	-0.189	-0.117
-181.056	476.015	0.025	0.057
-180.042	-77.008	0.244	0.084
-179.027	167.495	-0.174	-0.245
-178.012	-32.984	-0.247	-0.136
-176.998	-200.000	0.029	-0.195
-175.983	18.612	-0.194	0.153
-174.969	62.422	0.145	0.143
-173.954	265.124	0.042	0.072
-172.939	-69.728	-0.333	0.126
-171.925	-123.973	0.028	0.004
-170.910	351.117	-0.126	-0.246
-169.896	517.985	0.016	-0.038
-168.881	786.192	0.057	-0.154
-167.866	522.727	-0.037	0.086
-166.852	228.322	-0.097	-0.156
-165.837	92.609	0.098	0.109
-164.823	-24.198	0.376	0.221
-163.808	800.000	0.065	-0.189
-162.793	-169.742	0.185	-0.007
-161.779	278.327	0.323	-0.569
-160.764	-97.699	0.217	-0.055
-159.750	76.698	0.125	-0.131
-158.735	-69.019	-0.204	-0.078
-157.720	800.000	0.137	-0.387
-156.706	-132.992	-0.265	-0.033
-155.691	168.779	0.103	-0.144
-154.677	-200.000	-0.037	0.191
-153.662	-200.000	0.040	-0.291
-152.647	-125.448	0.146	-0.022
-151.633	-129.165	0.329	0.045
-150.618	547.402	0.114	-0.268
-149.604	-103.805	0.186	0.043
-148.589	31.242	0.022	0.018
-147.574	-99.702	0.259	-0.064
-146.560	-16.270	-0.300	-0.188
-145.545	800.000	0.123	0.357
-144.531	-104.445	0.190	-0.043
-143.516	-7.675	0.373	0.249
-142.502	456.570	0.110	0.241
-141.487	-109.643	0.305	0.063
-140.472	26.755	-0.079	-0.065
-139.458	-200.000	-0.011	-0.108
-138.443	-88.649	0.196	-0.058
-137.429	299.938	-0.151	-0.275
-136.414	133.228	-0.101	-0.128
-135.399	800.000	-0.053	-0.161
-134.385	296.865	0.114	-0.205
-133.370	-22.956	0.289	-0.172
-132.356	-200.000	0.008	0.040
-131.341	-200.000	-0.051	0.258
-130.326	-168.205	0.239	0.009
-129.312	800.000	-0.035	0.127
-128.297	56.300	0.188	-0.180
-127.283	-28.401	0.096	-0.055
-126.268	-200.000	-0.003	-0.206
-125.253	-94.075	-0.092	-0.025
-124.239	-115.523	-0.087	-0.016
-123.224	-44.149	0.333	-0.164
-122.210	-200.000	0.008	-0.258
-121.195	-200.000	0.054	0.327
-120.180	-68.259	0.302	-0.116
-119.166	17.301	-0.056	0.044
-118.151	-81.484	0.400	0.130
-117.137	90.614	0.233	-0.257
-116.122	439.342	0.130	0.279
-115.107	98.765	0.047	-0.054
-114.093	-61.169	0.078	0.032
-113.078	-200.000	0.013	-0.353
-112.064	-86.576	0.217	0.066
-111.049	-21.240	-0.163	-0.098
-110.034	95.853	0.047	-0.053
-109.020	-151.998	-0.212	0.015
-108.005	218.840	-0.069	0.109
-106.991	-74.814	0.251	0.089
-105.976	-200.000	0.007	-0.038
-104.962	800.000	-0.111	-0.317
-103.947	-116.559	0.207	0.038
-102.932	-84.146	0.346	0.108
-101.918	154.157	0.132	0.178
-100.903	-11.310	0.134	-0.087
-99.889	186.564	-0.267	0.391
-98.874	-200.000	-0.013	0.091
-97.859	-77.114	0.128	0.044
-96.845	-200.000	0.006	-0.278
-95.830	692.989	0.062	-0.160
-94.816	23.325	-0.261	-0.211
-93.801	-200.000	-0.043	-0.245
-92.786	-114.781	-0.231	0.043
-91.772	-200.000	0.037	0.161
-90.757	-109.378	-0.076	-0.016
-89.743	-109.475	0.154	0.032
-88.728	-200.000	0.005	-0.197
-87.713	-31.161	-0.279	-0.155
-86.699	1.658	-0.117	-0.083
-85.684	-5.440	0.241	-0.163
-84.670	566.087	-0.173	-0.412
-83.655	-200.000	-0.052	0.261
-82.640	-66.791	0.182	0.071
-81.626	77.445	0.207	-0.217
-80.611	-23.255	0.347	0.205
-79.597	-200.000	0.003	0.037
-78.582	80.148	-0.217	0.229
-77.567	310.695	-0.086	0.158
-76.553	-200.000	-0.004	0.327
-75.538	-46.365	0.298	-0.144
-74.524	-138.004	0.248	-0.027
-73.509	-136.541	0.259	-0.030
-72.494	-98.585	-0.110	0.028
-71.480	-108.417	0.262	-0.056
-70.465	203.288	0.099	0.151
-69.451	-114.850	-0.182	-0.034
-68.436	14.694	-0.138	0.106
-67.422	800.000	0.114	0.427
-66.407	-149.084	0.340	-0.027
-65.392	7.342	-0.168	0.123
-64.378	-200.000	-0.038	-0.231
-63.363	307.352	0.227	0.416
-62.349	-32.687	0.162	0.089
-61.334	18.920	-1.271	-1.001
-60.319	-92.026	0.797	0.222
-59.305	-200.000	-0.182	-1.261
-58.290	-200.000	0.141	0.755
-57.276	458.122	0.694	1.516
-56.261	-200.000	91.702	561.717
-55.246	575.877	1345.249	3229.902
-54.232	167.091	2510.530	3503.031
-53.217	112.418	2151.263	2558.243
-52.203	43.853	1701.280	1531.493
-51.188	36.667	1513.279	1313.636
-50.173	34.346	1485.973	1274.382
-49.159	53.855	1533.141	1447.654
-48.144	55.446	1551.583	1475.810
-47.130	36.876	1512.382	1314.066
-46.115	33.913	1496.923	1280.647
-45.100	33.589	1494.341	1276.210
-44.086	33.605	1492.047	1274.304
-43.071	33.523	1490.391	1272.294
-42.057	33.546	1488.953	1271.165
-41.042	33.528	1487.369	1269.643
-40.027	33.574	1486.000	1268.731
-39.013	33.484	1484.748	1267.013
-37.998	33.518	1482.881	1265.594
-36.984	33.459	1482.185	1264.555
-35.969	33.671	1480.482	1264.464
-34.954	33.528	1479.955	1263.014
-33.940	33.515	1478.338	1261.498
-32.925	33.571	1476.485	1260.238
-31.911	33.571	1475.120	1259.020
-30.896	33.573	1474.282	1258.270
-29.881	33.660	1472.796	1257.530
-28.867	33.688	1471.007	1256.140
-27.852	33.643	1470.026	1254.951
-26.838	33.578	1468.665	1253.313
-25.823	33.634	1467.175	1252.359
-24.809	33.607	1465.298	1250.528
-23.794	33.674	1463.666	1249.528
-22.779	33.571	1462.923	1248.165
-21.765	33.569	1461.364	1246.776
-20.750	33.566	1460.700	1246.140
-19.736	33.644	1459.586	1245.648
-18.721	33.526	1458.363	1243.786
-17.706	33.511	1457.758	1243.121
-16.692	33.445	1456.619	1241.666
-15.677	33.596	1455.326	1241.503
-14.663	33.504	1454.275	1239.956
-13.648	33.586	1453.368	1239.670
-12.633	33.557	1452.589	1238.767
-11.619	33.511	1451.940	1237.865
-10.604	33.497	1450.962	1236.887
-9.590	33.429	1450.394	1235.909
-8.575	33.535	1449.241	1235.571
-7.560	33.495	1448.431	1234.568
-6.546	33.405	1447.960	1233.535
-5.531	33.504	1446.595	1232.967
-4.517	33.495	1445.682	1232.082
-3.502	33.466	1444.899	1231.174
-2.487	33.521	1443.579	1230.358
-1.473	33.577	1442.274	1229.563
-0.458	33.507	1441.493	1228.391
0.556	31.203	1430.993	1213.972
1.571	27.186	1403.161	1164.584
2.586	22.424	1340.418	1083.192
3.600	20.164	1257.806	1003.278
4.615	18.849	1212.506	959.719
5.629	17.028	1159.342	907.826
6.644	12.539	1081.596	824.417
7.659	8.547	1044.615	776.801
8.673	7.900	1039.260	769.627
9.688	7.774	1035.820	766.402
10.702	7.710	1034.511	765.061
11.717	7.815	1032.555	764.051
12.731	9.421	1033.753	772.583
13.746	13.826	1039.718	798.202
14.761	17.170	1043.101	816.836
15.775	17.456	1043.332	818.321
16.790	16.630	1041.089	812.521
17.804	15.622	1038.989	805.980
18.819	14.724	1036.735	799.862
19.834	14.198	1035.290	796.159
20.848	14.008	1034.360	794.468
21.863	13.753	1033.872	792.803
22.877	13.461	1032.963	790.639
23.892	13.359	1031.983	789.332
24.907	13.277	1031.060	788.169
25.921	13.315	1030.704	788.006
26.936	13.243	1030.277	787.267
27.950	13.176	1028.955	785.871
28.965	13.462	1027.519	786.061
29.980	13.264	1026.473	784.255
30.994	13.399	1025.447	784.038
32.009	13.511	1024.387	783.688
33.023	13.487	1023.745	783.014
34.038	13.544	1023.027	782.666
35.053	13.406	1022.233	781.338
36.067	13.324	1021.482	780.309
37.082	13.302	1020.513	779.393
38.096	13.349	1019.930	779.102
39.111	13.409	1018.440	778.175
40.126	13.367	1018.080	777.637
41.140	13.447	1016.444	776.691
42.155	13.268	1015.523	775.079
43.169	13.209	1015.261	774.537
44.184	13.192	1013.790	773.266
45.199	13.242	1012.419	772.387
46.213	13.217	1011.662	771.622
47.228	13.211	1010.937	770.972
48.242	13.323	1010.056	770.753
49.257	13.367	1008.528	769.726
50.271	13.397	1007.382	768.921
51.286	13.300	1006.942	768.068
52.301	13.306	1006.447	767.652
53.315	13.434	1005.371	767.355
54.330	13.447	1004.369	766.583
55.344	13.265	1003.540	765.038
56.359	13.251	1002.920	764.434
57.374	13.225	1002.075	763.602
58.388	13.274	1001.083	763.006
59.403	13.159	1000.800	762.190
60.417	13.225	999.574	761.497
61.432	13.157	999.120	760.769
62.447	13.161	998.257	760.063
63.461	13.087	997.878	759.365
64.476	12.972	996.681	757.859
65.490	13.016	995.613	757.183
66.505	13.013	995.067	756.685
67.520	13.191	994.297	756.848
68.534	13.166	993.452	756.023
69.549	13.169	992.618	755.339
70.563	13.211	991.492	754.605
71.578	13.161	991.023	753.953
72.593	13.137	989.938	752.952
73.607	13.004	989.483	751.934
74.622	12.952	988.443	750.841
75.636	13.026	987.721	750.563
76.651	12.900	987.062	749.421
77.666	12.995	986.423	749.303
78.680	13.095	985.476	748.970
79.695	13.141	984.995	748.745
80.709	13.148	983.937	747.909
81.724	13.068	983.523	747.164
82.739	13.268	982.337	747.101
83.753	13.237	981.785	746.477
84.768	13.374	980.856	746.321
85.782	13.369	980.732	746.136
86.797	13.479	979.989	746.001
87.812	13.547	978.380	745.019
88.826	13.418	977.965	744.054
89.841	13.377	977.270	743.275
90.855	13.336	976.445	742.398
91.870	13.432	975.543	742.078
92.884	13.360	975.587	741.724
93.899	13.391	974.220	740.759
94.914	13.468	973.764	740.690
95.928	13.572	972.940	740.461
96.943	13.668	972.031	740.134
97.957	13.598	971.243	739.154
98.972	13.410	970.881	737.975
99.987	13.521	969.814	737.593
101.001	13.495	969.563	737.224
102.016	13.484	968.281	736.136
103.030	13.471	967.142	735.144
104.045	13.430	966.393	734.331
105.060	13.507	965.461	733.899
106.074	13.502	964.129	732.797
107.089	13.374	963.569	731.739
108.103	13.316	963.191	731.131
109.118	13.142	962.141	729.504
110.133	13.213	961.367	729.165
111.147	13.287	960.274	728.595
112.162	13.282	959.638	728.028
113.176	13.306	958.832	727.459
114.191	13.290	958.408	727.001
115.206	13.346	957.323	726.360
116.220	13.386	956.321	725.712
117.235	13.327	955.909	725.073
118.249	13.278	954.785	723.943
119.264	13.259	953.986	723.190
120.279	13.219	953.684	722.724
121.293	13.205	952.569	721.753
122.308	13.386	951.483	721.657
123.322	13.290	950.850	720.693
124.337	13.178	950.084	719.563
125.352	13.252	948.477	718.602
126.366	13.295	947.686	718.127
127.381	13.202	946.708	716.919
128.395	13.171	946.113	716.269
129.410	13.172	945.232	715.546
130.424	13.189	944.158	714.744
131.439	13.266	943.113	714.220
132.454	13.292	942.632	713.902
133.468	13.321	941.748	713.296
134.483	13.348	941.289	713.002
135.497	13.469	940.126	712.578
136.512	13.354	939.995	711.924
137.527	13.401	938.820	711.172
138.541	13.359	938.474	710.666
139.556	13.394	937.683	710.153
140.570	13.385	936.961	709.506
141.585	13.393	935.759	708.569
142.600	13.516	935.186	708.595
143.614	13.482	934.608	707.951
144.629	13.433	933.987	707.207
145.643	13.581	933.467	707.382
146.658	13.601	932.219	706.460
147.673	13.482	931.198	705.119
148.687	13.433	930.537	704.345
149.702	13.339	929.826	703.346
150.716	13.424	928.431	702.589
151.731	13.360	928.294	702.154
152.746	13.415	927.369	701.623
153.760	13.352	926.670	700.765
154.775	13.434	925.892	700.461
155.789	13.597	925.246	700.602
156.804	13.553	924.566	699.838
157.819	13.556	923.879	699.268
158.833	13.604	922.879	698.653
159.848	13.620	922.255	698.187
160.862	13.675	921.604	697.863
161.877	13.675	920.762	697.164
162.892	13.520	920.057	695.918
163.906	13.471	919.174	694.981
164.921	13.542	918.417	694.646
165.935	13.454	917.949	693.861
166.950	13.418	916.713	692.715
167.964	13.539	915.872	692.522
168.979	13.681	914.662	692.143
169.994	13.607	914.079	691.328
171.008	13.534	913.206	690.303
172.023	13.618	912.243	689.865
173.037	13.523	911.990	689.217
174.052	13.734	911.272	689.489
175.067	13.777	910.265	688.846
176.081	13.515	910.173	687.627
177.096	13.573	909.041	686.954
178.110	13.554	907.791	685.870
179.125	13.623	907.311	685.730
180.140	13.646	906.384	685.065
181.154	13.704	905.773	684.781
182.169	13.681	905.591	684.487
183.183	13.719	904.744	683.946
184.198	13.811	904.156	683.818
185.213	13.845	903.733	683.577
186.227	13.852	902.848	682.877
187.242	13.950	902.220	682.744
188.256	13.840	901.862	681.963
189.271	14.059	900.907	682.077
190.286	14.035	899.801	681.080
191.300	13.652	899.738	679.402
192.315	13.542	898.794	678.179
193.329	13.548	898.091	677.614
194.344	13.648	897.517	677.531
195.359	13.715	897.019	677.367
196.373	13.882	896.371	677.500
197.388	13.685	896.249	676.544
198.402	13.882	895.506	676.728
199.417	14.126	894.718	677.066
200.432	13.930	894.631	676.140
201.446	13.977	894.087	675.861
202.461	14.279	893.377	676.494
203.475	14.193	893.168	675.925
204.490	14.066	892.714	675.007
205.504	14.107	891.339	674.074
206.519	14.079	890.837	673.521
207.534	14.110	890.312	673.188
208.548	14.098	889.655	672.586
209.563	14.130	888.687	671.922
210.577	14.072	888.115	671.197
211.592	14.071	887.425	670.609
212.607	14.278	886.801	670.916
213.621	14.261	886.589	670.625
214.636	14.176	886.208	669.935
215.650	14.332	884.921	669.533
216.665	14.188	884.835	668.827
217.680	14.222	884.357	668.543
218.694	14.315	883.515	668.221
219.709	14.327	883.406	668.128
220.723	14.325	882.444	667.332
221.738	14.391	881.495	666.823
222.753	14.319	880.631	665.822
223.767	14.325	880.365	665.587
224.782	14.445	879.510	665.359
225.796	14.478	878.845	664.928
226.811	14.401	878.200	664.075
227.826	14.578	877.526	664.211
228.840	14.303	877.428	662.981
229.855	14.295	876.645	662.302
230.869	14.393	875.641	661.872
231.884	14.430	874.855	661.369
232.899	14.312	874.327	660.443
233.913	14.379	873.621	660.114
234.928	14.404	873.070	659.739
235.942	14.377	872.357	659.034
236.957	14.406	871.699	658.593
237.972	14.391	871.126	658.045
238.986	14.240	870.402	656.845
240.001	14.515	869.922	657.508
241.015	14.411	869.076	656.400
242.030	14.431	868.556	656.028
243.045	14.555	867.743	655.845
244.059	14.650	867.135	655.701
245.074	14.659	866.236	654.995
246.088	14.524	865.847	654.115
247.103	14.607	865.403	654.049
248.117	14.636	864.857	653.692
249.132	14.536	864.673	653.103
250.147	14.870	863.812	653.700
251.161	14.812	862.934	652.752
252.176	14.924	862.322	652.669
253.190	15.008	861.535	652.344
254.205	15.035	861.005	651.986
255.220	15.045	860.284	651.423
256.234	15.098	860.046	651.391
257.249	14.874	859.547	650.086
258.263	15.022	859.274	650.395
259.278	14.953	858.411	649.417
260.293	15.042	857.922	649.336
261.307	15.061	857.480	649.017
262.322	15.135	856.784	648.721
263.336	15.124	856.221	648.193
264.351	15.273	855.153	647.905
265.366	15.113	855.190	647.257
266.380	15.221	854.332	646.964
267.395	15.105	854.026	646.230
268.409	15.218	852.626	645.549
269.424	15.101	852.453	644.910
270.439	15.236	851.498	644.648
271.453	15.105	850.817	643.572
272.468	15.010	850.355	642.803
273.482	15.226	849.397	642.850
274.497	15.250	848.853	642.471
275.512	15.223	848.005	641.670
276.526	15.168	847.529	641.044
277.541	15.132	846.750	640.260
278.555	15.245	846.043	640.102
279.570	15.309	845.651	639.992
280.585	15.280	845.409	639.640
281.599	15.398	844.401	639.271
282.614	15.284	844.138	638.580
283.628	15.255	843.655	638.050
284.643	15.225	842.904	637.312
285.657	15.389	842.550	637.612
286.672	15.342	842.037	636.985
287.687	15.327	841.442	636.422
288.701	15.331	841.079	636.106
289.716	15.442	840.211	635.814
290.730	15.305	839.954	635.046
291.745	15.379	839.196	634.698
292.760	15.465	838.491	634.432
293.774	15.420	838.059	633.879
294.789	15.558	837.605	634.002
295.803	15.612	836.588	633.379
296.818	15.513	836.126	632.598
297.833	15.578	835.505	632.318
298.847	15.514	834.703	631.414
299.862	15.452	834.279	630.806
300.876	15.538	833.468	630.460
301.891	15.632	832.614	630.110
302.906	15.686	832.529	630.192
303.920	15.730	831.766	629.723
304.935	15.713	831.255	629.216
305.949	15.848	830.573	629.149
306.964	15.748	829.975	628.268
307.979	15.915	828.949	628.058
308.993	15.699	829.136	627.339
310.008	15.901	828.254	627.369
311.022	15.708	828.242	626.586
312.037	15.739	827.518	626.097
313.052	15.727	827.000	625.605
314.066	15.852	826.072	625.312
315.081	15.724	825.842	624.609
316.095	15.678	825.051	623.782
317.110	15.754	824.515	623.603
318.125	15.687	824.320	623.153
319.139	15.810	823.418	622.872
320.154	15.837	822.573	622.278
321.168	15.863	822.363	622.159
322.183	15.798	822.262	621.789
323.197	15.800	821.575	621.219
324.212	15.836	820.806	620.719
325.227	15.887	820.483	620.607
326.241	15.858	819.827	619.949
327.256	15.918	819.114	619.577
328.270	15.849	818.649	618.916
329.285	15.770	818.129	618.177
330.300	15.847	817.721	618.095
331.314	15.835	817.221	617.621
332.329	15.885	816.329	617.076
333.343	15.941	815.957	616.942
334.358	15.922	815.595	616.546
335.373	15.954	814.924	616.101
336.387	16.056	814.693	616.243
337.402	16.009	814.192	615.640
338.416	16.103	813.435	615.357
339.431	16.255	812.759	615.344
340.446	16.289	812.086	614.903
341.460	16.221	811.841	614.417
342.475	16.371	811.223	614.441
343.489	16.361	810.572	613.858
344.504	16.327	810.345	613.507
345.519	16.408	809.600	613.180
346.533	16.476	809.069	612.971
347.548	16.495	808.547	612.592
348.562	16.307	808.451	611.782
349.577	16.341	807.653	611.249
350.592	16.269	806.877	610.346
351.606	16.260	806.332	609.849
352.621	16.140	806.385	609.399
353.635	16.244	805.945	609.390
354.650	16.364	805.069	609.105
355.665	16.368	804.880	608.923
356.679	16.298	804.833	608.582
357.694	16.404	803.866	608.177
358.708	16.445	803.366	607.895
359.723	16.545	802.621	607.636
360.738	16.348	802.307	606.635
361.752	16.356	801.907	606.310
362.767	16.472	801.348	606.250
363.781	16.589	801.354	606.620
364.796	16.500	800.959	605.946
365.810	16.611	800.256	605.758
366.825	16.582	799.925	605.353
367.840	16.770	799.334	605.521
368.854	16.732	798.686	604.843
369.869	16.672	798.622	604.526
370.883	16.744	797.896	604.179
371.898	16.682	797.484	603.594
372.913	16.800	796.842	603.475
373.927	16.822	796.238	603.041
374.942	16.724	795.793	602.304
375.956	16.889	794.856	602.125
376.971	16.922	794.317	601.784
377.986	16.861	793.890	601.189
379.000	16.812	793.298	600.512
380.015	16.788	793.352	600.418
381.029	16.820	792.640	599.939
382.044	16.825	792.320	599.660
383.059	16.962	791.556	599.513
384.073	16.979	791.089	599.167
385.088	16.917	790.163	598.194
386.102	16.999	789.570	597.980
387.117	16.830	789.465	597.252
388.132	16.765	788.912	596.554
389.146	16.913	788.304	596.561
390.161	17.024	787.923	596.611
391.175	16.888	787.646	595.868
392.190	16.884	787.491	595.687
393.205	17.040	786.901	595.735
394.219	16.986	786.520	595.203
395.234	16.985	785.736	594.554
396.248	16.978	785.358	594.192
397.263	17.037	784.709	593.852
398.278	16.765	784.575	592.747
399.292	16.765	784.057	592.303
400.307	16.908	783.912	592.643
401.321	17.022	783.120	592.388
402.336	16.812	782.941	591.468
403.350	17.028	782.203	591.614
404.365	17.055	782.097	591.572
405.380	17.071	781.845	591.385
406.394	17.174	781.395	591.354
407.409	17.279	780.788	591.204
408.423	17.249	780.441	590.787
409.438	17.225	779.795	590.161
410.453	17.250	779.607	590.053
411.467	17.273	779.227	589.793
412.482	17.446	778.520	589.805
413.496	17.281	777.896	588.711
414.511	17.449	777.842	589.199
415.526	17.456	777.375	588.818
416.540	17.507	777.129	588.754
417.555	17.405	776.592	587.944
418.569	17.527	776.098	587.938
419.584	17.441	775.584	587.202
420.599	17.411	775.592	587.052
421.613	107.056	1285.274	1455.038
422.628	91.425	1359.501	1455.186
