DTS Sentinel unit serial number:	SN413079Multiplexer serial number:	ORYXHardware model number:	OX4-SRSoftware version number:	ORYX F/W v4.00 Oryx Data Collector v3.7.2.0data status	okinstallation	princeton_trtdifferential loss correction	single-endedforward channel	channel 3reverse channel	N/Adate	2019/09/18time	06:08:35forward acquisition time	60.00reverse acquisition time	0.00gamma	496.2192k internal	0.2343k external	0.2343temperature offset calibration	0.9950default loss term (dB/km)	0.3790temperature slope calibration	1.0000multiplexer offset coefficient	1.0000multiplexer slope coefficient	1.0000fibre end	0.00T internal ref (°C)	23.19T ext. ref 1 (°C)	0.18T ext. ref 2 (°C)	17.66length (m)	temperature (°C)	Stokes	anti-Stokes-747.200	-5.046	0.291	-0.201
-746.185	102.101	-0.092	0.107
-745.171	800.000	-0.132	0.378
-744.156	-35.162	-0.392	0.214
-743.142	-110.486	0.042	-0.009
-742.127	63.778	-0.145	0.146
-741.112	-200.000	0.028	0.314
-740.098	91.655	-0.154	-0.174
-739.083	-141.424	-0.377	0.038
-738.069	307.588	0.169	0.315
-737.054	633.305	-0.103	0.262
-736.039	-91.120	-0.235	-0.068
-735.025	-175.826	0.125	0.003
-734.010	-129.681	-0.082	-0.011
-732.996	-200.000	-0.040	0.249
-731.981	-200.000	0.015	0.151
-730.966	8.108	-0.226	-0.170
-729.952	59.143	-0.152	-0.150
-728.937	-101.871	-0.131	0.032
-727.923	77.177	0.211	0.224
-726.908	43.664	-0.041	-0.037
-725.894	379.350	-0.102	0.210
-724.879	95.637	-0.098	-0.112
-723.864	-129.633	0.091	0.013
-722.850	-200.000	0.005	0.095
-721.835	88.843	0.082	0.091
-720.821	-104.188	-0.110	-0.026
-719.806	125.597	-0.208	-0.262
-718.791	538.551	0.045	-0.107
-717.777	800.000	0.052	-0.154
-716.762	64.444	0.228	-0.230
-715.748	42.896	0.260	0.237
-714.733	418.996	-0.084	0.180
-713.718	269.791	-0.042	0.074
-712.704	800.000	0.019	-0.054
-711.689	-112.208	0.433	-0.087
-710.675	708.598	-0.108	-0.287
-709.660	192.616	-0.119	0.180
-708.645	-200.000	0.006	0.139
-707.631	69.604	0.342	-0.352
-706.616	-200.000	0.010	-0.114
-705.602	154.573	-0.131	-0.180
-704.587	1.231	-0.152	0.109
-703.572	800.000	-0.039	0.165
-702.558	-139.420	0.261	-0.028
-701.543	-73.688	0.191	-0.069
-700.529	-135.311	0.194	0.023
-699.514	-200.000	0.086	0.561
-698.499	-137.284	-0.114	-0.013
-697.485	161.226	0.246	0.343
-696.470	2.851	0.014	-0.010
-695.456	262.711	-0.085	0.148
-694.441	79.566	-0.186	-0.199
-693.426	800.000	-0.047	-0.169
-692.412	-200.000	0.021	-0.233
-691.397	-200.000	-0.011	-0.063
-690.383	23.756	0.124	0.102
-689.368	-54.475	0.217	0.098
-688.354	-174.911	-0.135	0.004
-687.339	-116.373	0.135	0.025
-686.324	17.488	0.272	-0.216
-685.310	363.151	-0.105	-0.211
-684.295	-200.000	-0.111	-0.534
-683.281	800.000	0.028	-0.091
-682.266	-32.696	0.105	0.058
-681.251	71.695	-0.159	-0.165
-680.237	-200.000	-0.041	0.293
-679.222	-147.864	-0.140	-0.012
-678.208	39.173	-0.062	-0.055
-677.193	-115.233	-0.250	0.047
-676.178	796.190	0.035	-0.096
-675.164	11.264	0.112	0.086
-674.149	-200.000	-0.015	-0.105
-673.135	-37.434	-0.050	0.027
-672.120	-77.473	-0.228	-0.079
-671.105	-26.016	0.175	0.103
-670.091	157.709	0.108	-0.149
-669.076	786.001	0.082	-0.226
-668.062	158.072	-0.164	-0.227
-667.047	-126.488	-0.149	-0.022
-666.032	139.178	-0.104	0.137
-665.018	-200.000	0.038	-0.193
-664.003	-38.711	0.320	-0.169
-662.989	64.518	-0.261	-0.263
-661.974	-47.284	0.251	0.122
-660.959	-200.000	0.003	0.105
-659.945	800.000	0.114	0.461
-658.930	289.380	-0.051	0.092
-657.916	-200.000	0.001	-0.135
-656.901	-200.000	0.020	0.321
-655.886	306.235	-0.057	0.105
-654.872	-149.801	-0.107	0.008
-653.857	-85.778	-0.416	0.129
-652.843	304.381	-0.067	0.124
-651.828	800.000	0.049	0.156
-650.814	-79.784	-0.137	0.046
-649.799	164.400	-0.198	-0.278
-648.784	-200.000	-0.015	0.315
-647.770	-117.110	-0.221	0.040
-646.755	800.000	0.047	-0.138
-645.741	800.000	0.051	0.161
-644.726	-200.000	0.049	0.248
-643.711	-14.819	0.192	0.123
-642.697	-79.975	-0.189	0.063
-641.682	-159.624	-0.055	-0.003
-640.668	-200.000	-0.006	-0.253
-639.653	-147.913	0.129	-0.011
-638.638	-101.571	-0.220	0.053
-637.624	800.000	-0.044	-0.183
-636.609	531.261	0.069	0.162
-635.595	-50.016	0.185	0.088
-634.580	800.000	-0.100	-0.379
-633.565	65.945	0.174	-0.176
-632.551	-84.692	-0.185	-0.058
-631.536	-200.000	0.021	-0.317
-630.522	185.000	-0.053	0.078
-629.507	-200.000	-0.072	0.372
-628.492	538.926	-0.082	-0.195
-627.478	439.168	0.125	0.273
-626.463	800.000	-0.085	-0.356
-625.449	53.516	-0.085	0.081
-624.434	-94.503	-0.308	-0.084
-623.419	-16.221	0.184	0.116
-622.405	-19.459	-0.056	-0.034
-621.390	-4.363	0.347	0.239
-620.376	-27.599	0.145	0.084
-619.361	-59.108	-0.275	0.118
-618.346	-107.284	-0.307	0.067
-617.332	-103.026	-0.359	0.085
-616.317	-119.460	-0.189	-0.033
-615.303	-38.376	0.179	0.094
-614.288	-200.000	-0.029	-0.179
-613.273	171.936	-0.163	-0.233
-612.259	-59.821	0.276	0.118
-611.244	-19.878	0.373	-0.230
-610.230	144.998	-0.249	-0.331
-609.215	189.421	-0.044	-0.066
-608.201	37.915	0.313	-0.277
-607.186	-153.139	-0.241	-0.017
-606.171	16.236	0.054	0.042
-605.157	-37.803	-0.169	-0.090
-604.142	-187.060	-0.211	-0.003
-603.128	-41.247	-0.149	-0.077
-602.113	403.235	-0.211	0.442
-601.098	-124.831	-0.337	-0.052
-600.084	77.105	-0.112	-0.118
-599.069	31.466	0.226	-0.193
-598.055	-95.905	0.252	-0.067
-597.040	-200.000	-0.022	-0.159
-596.025	-113.557	0.238	0.046
-595.011	-180.446	-0.169	0.004
-593.996	196.012	-0.040	0.060
-592.982	-115.963	-0.202	0.037
-591.967	155.882	0.025	0.035
-590.952	-139.498	-0.200	0.021
-589.938	-153.789	0.208	0.014
-588.923	35.461	-0.297	-0.260
-587.909	715.388	-0.113	0.298
-586.894	800.000	0.069	0.276
-585.879	6.769	-0.356	0.263
-584.865	143.187	-0.082	-0.109
-583.850	800.000	-0.011	0.036
-582.836	800.000	-0.053	-0.162
-581.821	10.688	-0.220	0.167
-580.806	-164.115	-0.137	-0.006
-579.792	-200.000	-0.034	0.161
-578.777	60.429	0.048	-0.047
-577.763	-196.169	0.313	0.002
-576.748	34.156	0.305	0.264
-575.733	-200.000	-0.059	-0.268
-574.719	486.973	-0.085	-0.193
-573.704	196.398	0.201	-0.304
-572.690	800.000	0.080	0.297
-571.675	-200.000	0.014	0.092
-570.661	-200.000	-0.031	0.139
-569.646	-126.057	0.205	0.031
-568.631	-10.349	-0.191	0.126
-567.617	208.052	-0.121	0.189
-566.602	-200.000	0.002	0.198
-565.588	-3.901	-0.244	-0.169
-564.573	-99.264	0.115	-0.029
-563.558	-70.816	-0.211	0.079
-562.544	377.778	0.158	-0.321
-561.529	-6.512	0.210	-0.142
-560.515	-200.000	-0.021	0.140
-559.500	-200.000	0.016	0.290
-558.485	-115.926	-0.088	0.016
-557.471	-120.008	-0.189	0.032
-556.456	-149.076	0.170	0.014
-555.442	-150.074	0.103	0.008
-554.427	300.565	0.139	0.256
-553.412	-22.011	0.058	-0.035
-552.398	-0.590	0.269	0.190
-551.383	-112.601	-0.191	0.038
-550.369	-125.964	-0.039	0.006
-549.354	800.000	-0.038	-0.139
-548.339	48.459	-0.384	0.357
-547.325	-200.000	0.017	0.318
-546.310	19.938	-0.039	0.031
-545.296	1.989	0.126	0.090
-544.281	-49.132	-0.255	0.121
-543.266	110.588	0.206	0.246
-542.252	273.242	-0.212	-0.372
-541.237	152.565	-0.213	0.289
-540.223	-127.666	0.041	-0.006
-539.208	459.442	0.028	0.061
-538.193	70.627	0.195	0.200
-537.179	-200.000	-0.019	0.206
-536.164	-36.368	0.222	-0.119
-535.150	-200.000	0.036	0.303
-534.135	-48.939	0.291	-0.138
-533.121	-200.000	-0.021	-0.390
-532.106	247.708	-0.169	-0.284
-531.091	-127.545	0.278	0.040
-530.077	86.049	-0.092	-0.101
-529.062	-146.752	0.214	-0.018
-528.048	-78.901	0.384	0.130
-527.033	37.641	0.309	0.272
-526.018	208.888	-0.198	-0.307
-525.004	-133.827	0.344	0.043
-523.989	42.528	0.046	0.041
-522.975	-59.815	-0.158	0.067
-521.960	142.276	-0.040	0.053
-520.945	56.698	-0.032	0.031
-519.931	72.163	-0.075	0.077
-518.916	-200.000	-0.061	0.329
-517.902	-90.832	-0.053	0.015
-516.887	-200.000	-0.017	0.159
-515.872	282.042	-0.077	-0.136
-514.858	117.201	-0.079	0.096
-513.843	-30.922	-0.123	-0.069
-512.829	-200.000	0.012	-0.188
-511.814	-47.776	0.220	-0.106
-510.799	800.000	0.050	-0.146
-509.785	-120.831	0.089	0.015
-508.770	-193.776	-0.327	-0.003
-507.756	-64.116	-0.380	0.154
-506.741	-35.903	-0.137	-0.074
-505.726	-93.709	0.198	0.054
-504.712	-140.685	0.245	0.025
-503.697	-0.501	-0.178	0.126
-502.683	-200.000	-0.037	-0.248
-501.668	195.175	-0.183	-0.275
-500.653	-169.482	-0.121	0.004
-499.639	542.522	0.092	-0.217
-498.624	166.157	-0.093	-0.131
-497.610	-144.753	0.135	0.012
-496.595	-113.577	0.123	0.024
-495.581	-81.646	-0.207	-0.067
-494.566	59.199	0.148	0.144
-493.551	800.000	0.096	-0.265
-492.537	-21.943	0.306	-0.185
-491.522	11.210	-0.131	-0.099
-490.508	301.820	0.098	0.179
-489.493	60.391	0.101	0.099
-488.478	-103.605	-0.339	-0.079
-487.464	-89.822	0.077	0.022
-486.449	-98.032	0.110	0.028
-485.435	-200.000	0.044	0.205
-484.420	-200.000	-0.000	-0.115
-483.405	101.243	0.225	-0.259
-482.391	-0.595	-0.212	-0.149
-481.376	-200.000	-0.046	-0.261
-480.362	43.840	-0.179	-0.162
-479.347	-60.125	-0.233	0.099
-478.332	-200.000	0.046	-0.341
-477.318	800.000	-0.124	-0.406
-476.303	-130.676	0.247	0.033
-475.289	-27.609	0.041	-0.024
-474.274	-101.050	0.178	0.043
-473.259	8.614	0.116	-0.086
-472.245	387.895	-0.054	0.112
-471.230	-116.920	-0.199	0.036
-470.216	-40.420	-0.328	-0.169
-469.201	-42.490	0.252	0.127
-468.186	800.000	0.108	-0.328
-467.172	-79.393	-0.176	-0.059
-466.157	-200.000	0.081	-0.389
-465.143	800.000	-0.121	-0.373
-464.128	214.625	0.189	-0.297
-463.113	800.000	0.036	-0.128
-462.099	800.000	-0.018	0.070
-461.084	-200.000	-0.027	-0.158
-460.070	776.704	-0.152	0.410
-459.055	800.000	0.033	0.105
-458.040	449.442	-0.059	-0.129
-457.026	-47.956	0.174	0.083
-456.011	800.000	0.040	0.137
-454.997	-135.408	0.096	-0.011
-453.982	-174.625	-0.314	0.009
-452.968	-200.000	0.044	0.198
-451.953	-1.105	0.070	0.049
-450.938	217.249	-0.025	-0.039
-449.924	-10.187	-0.205	-0.135
-448.909	658.949	-0.060	0.152
-447.895	138.289	-0.087	-0.113
-446.880	-163.439	0.165	-0.008
-445.865	-168.696	0.133	0.005
-444.851	234.719	-0.260	0.425
-443.836	-161.218	-0.321	-0.017
-442.822	201.769	-0.085	-0.129
-441.807	-106.196	-0.232	-0.051
-440.792	800.000	-0.097	-0.279
-439.778	631.578	-0.016	-0.039
-438.763	-51.946	0.208	0.096
-437.749	-69.470	-0.283	-0.107
-436.734	-99.126	0.094	0.024
-435.719	32.976	-0.118	-0.101
-434.705	662.142	-0.074	0.188
-433.690	-45.690	0.189	-0.092
-432.676	-50.967	0.180	0.084
-431.661	-66.553	-0.096	-0.038
-430.646	-41.510	0.167	0.085
-429.632	81.113	-0.133	-0.142
-428.617	-93.536	0.400	0.109
-427.603	-58.483	0.194	-0.083
-426.588	-153.692	-0.090	-0.006
-425.573	571.883	0.081	0.196
-424.559	170.046	-0.139	0.197
-423.544	-95.572	0.119	0.032
-422.530	106.122	0.145	-0.170
-421.515	70.383	0.077	0.078
-420.500	535.498	-0.086	0.201
-419.486	-96.516	-0.169	-0.044
-418.471	-1.730	-0.233	-0.162
-417.457	303.838	-0.058	-0.106
-416.442	385.087	0.093	0.190
-415.428	-200.000	-0.124	-0.001
-414.413	-88.642	-0.222	-0.065
-413.398	311.558	0.099	0.184
-412.384	202.684	0.161	0.245
-411.369	800.000	-0.020	0.088
-410.355	617.809	-0.057	0.140
-409.340	-143.803	0.083	-0.008
-408.325	76.217	0.081	0.085
-407.311	95.755	-0.157	0.178
-406.296	-182.424	-0.101	-0.002
-405.282	-200.000	-0.034	0.191
-404.267	98.329	0.224	0.255
-403.252	-146.232	-0.209	-0.018
-402.238	-9.774	0.177	-0.117
-401.223	58.753	0.237	0.230
-400.209	-161.450	0.048	-0.002
-399.194	110.372	-0.189	0.224
-398.179	204.238	0.113	-0.173
-397.165	86.890	-0.071	-0.078
-396.150	176.508	0.144	0.207
-395.136	-200.000	0.022	-0.271
-394.121	-131.298	-0.137	-0.018
-393.106	-200.000	0.075	-0.428
-392.092	800.000	0.090	0.284
-391.077	328.526	-0.058	-0.109
-390.063	-200.000	0.006	0.033
-389.048	-200.000	-0.037	0.255
-388.033	-200.000	-0.013	0.280
-387.019	-93.251	0.218	0.060
-386.004	-200.000	-0.031	-0.240
-384.990	-149.344	0.084	-0.007
-383.975	213.031	0.156	-0.243
-382.960	436.409	0.113	0.243
-381.946	59.216	-0.080	0.078
-380.931	-200.000	0.047	-0.259
-379.917	332.578	0.145	-0.276
-378.902	549.678	-0.015	-0.035
-377.888	-101.280	-0.109	0.026
-376.873	376.613	-0.108	0.218
-375.858	-133.558	-0.249	-0.031
-374.844	-143.148	-0.026	-0.002
-373.829	-136.358	-0.196	0.023
-372.815	800.000	0.038	-0.153
-371.800	-155.925	0.158	0.010
-370.785	23.517	0.110	0.089
-369.771	-200.000	-0.013	-0.206
-368.756	-200.000	-0.030	0.209
-367.742	273.507	-0.123	-0.215
-366.727	800.000	-0.055	-0.230
-365.712	-44.149	0.277	0.137
-364.698	-59.791	-0.046	0.019
-363.683	418.471	-0.052	-0.109
-362.669	-20.904	-0.342	-0.207
-361.654	-200.000	0.059	0.328
-360.639	-61.200	-0.240	0.100
-359.625	-200.000	0.006	-0.163
-358.610	349.049	-0.203	0.396
-357.596	-89.633	0.121	0.035
-356.581	-37.473	0.109	-0.057
-355.566	137.692	-0.307	-0.396
-354.552	800.000	0.051	-0.197
-353.537	-147.898	0.517	0.043
-352.523	282.706	-0.070	0.124
-351.508	207.203	-0.098	-0.150
-350.493	-85.807	0.187	0.057
-349.479	47.233	0.264	-0.243
-348.464	-140.101	0.286	-0.030
-347.450	-200.000	-0.023	0.239
-346.435	800.000	0.040	-0.145
-345.420	415.543	-0.024	0.050
-344.406	118.518	-0.104	-0.126
-343.391	-133.530	0.129	-0.016
-342.377	-200.000	-0.020	0.153
-341.362	-86.427	-0.053	-0.016
-340.348	314.975	-0.068	0.126
-339.333	800.000	0.101	0.350
-338.318	7.199	0.149	-0.110
-337.304	202.747	-0.080	-0.121
-336.289	800.000	0.150	-0.425
-335.275	-200.000	0.171	0.001
-334.260	-31.343	0.118	-0.065
-333.245	800.000	-0.084	0.261
-332.231	166.208	0.124	0.173
-331.216	86.781	0.006	0.006
-330.202	-78.577	-0.211	-0.071
-329.187	-200.000	0.020	0.129
-328.172	-200.000	-0.008	0.234
-327.158	86.918	0.173	0.188
-326.143	-159.508	0.245	-0.013
-325.129	-18.020	0.197	0.122
-324.114	-200.000	0.014	-0.074
-323.099	800.000	-0.060	-0.166
-322.085	-99.337	-0.235	-0.058
-321.070	493.816	-0.112	0.252
-320.056	800.000	0.031	0.124
-319.041	-200.000	0.030	0.413
-318.026	364.011	-0.015	0.029
-317.012	17.829	-0.234	-0.183
-315.997	-98.176	0.065	-0.017
-314.983	92.870	-0.022	0.025
-313.968	178.143	-0.128	0.184
-312.953	-142.969	0.354	-0.034
-311.939	28.849	0.227	0.190
-310.924	9.676	-0.116	0.087
-309.910	-119.363	0.296	-0.051
-308.895	-85.073	0.133	-0.041
-307.880	400.698	-0.097	-0.201
-306.866	394.944	-0.072	0.147
-305.851	264.382	0.143	0.246
-304.837	800.000	0.024	-0.086
-303.822	800.000	0.042	0.130
-302.807	-128.829	0.343	-0.048
-301.793	-35.325	0.179	0.096
-300.778	-92.679	-0.541	0.149
-299.764	800.000	-0.037	-0.151
-298.749	640.136	-0.030	0.075
-297.735	-39.833	0.226	-0.116
-296.720	-119.024	0.114	0.020
-295.705	-132.573	-0.121	0.015
-294.691	-25.067	0.157	0.091
-293.676	24.378	0.195	-0.158
-292.662	800.000	0.163	-0.613
-291.647	190.593	-0.060	-0.089
-290.632	40.025	-0.236	-0.208
-289.618	2.012	0.228	-0.162
-288.603	800.000	-0.077	-0.315
-287.589	-20.494	-0.140	-0.085
-286.574	-200.000	0.014	0.073
-285.559	-200.000	-0.011	-0.332
-284.545	800.000	0.044	-0.130
-283.530	168.509	0.231	0.324
-282.516	-35.413	0.115	-0.062
-281.501	28.000	-0.121	0.100
-280.486	761.689	0.080	0.214
-279.472	-163.374	0.407	-0.019
-278.457	-75.456	0.219	0.077
-277.443	16.939	0.155	-0.121
-276.428	243.603	-0.074	-0.121
-275.413	-43.423	-0.360	0.179
-274.399	-166.293	-0.102	-0.004
-273.384	10.759	0.217	-0.163
-272.370	-200.000	-0.030	0.204
-271.355	-200.000	-0.003	0.278
-270.340	626.372	0.096	-0.237
-269.326	-200.000	0.014	-0.113
-268.311	37.727	-0.129	0.112
-267.297	236.344	0.073	-0.119
-266.282	104.212	0.157	0.182
-265.267	11.176	0.171	0.128
-264.253	-87.779	-0.080	-0.024
-263.238	-167.194	0.218	-0.009
-262.224	-200.000	-0.019	-0.150
-261.209	25.730	0.117	0.096
-260.195	27.643	-0.201	-0.166
-259.180	-200.000	0.015	-0.375
-258.165	238.028	0.060	0.098
-257.151	-79.268	-0.146	0.049
-256.136	-200.000	0.004	0.031
-255.122	-36.946	-0.167	-0.088
-254.107	-112.074	-0.254	0.050
-253.092	-108.633	-0.145	0.031
-252.078	42.471	0.242	0.216
-251.063	294.897	-0.053	0.094
-250.049	336.543	0.119	-0.226
-249.034	-200.000	-0.039	0.221
-248.019	-89.347	0.163	0.047
-247.005	29.996	0.226	0.189
-245.990	-80.834	0.421	0.137
-244.976	800.000	-0.106	0.319
-243.961	174.021	-0.060	0.085
-242.946	-17.436	-0.248	0.153
-241.932	-89.874	0.427	-0.123
-240.917	800.000	0.109	-0.324
-239.903	197.884	0.102	0.153
-238.888	85.840	-0.149	0.160
-237.873	536.291	0.038	0.088
-236.859	800.000	0.038	0.139
-235.844	213.776	-0.122	0.189
-234.830	-34.109	-0.194	-0.104
-233.815	-200.000	-0.019	0.126
-232.800	428.708	-0.044	0.094
-231.786	-86.018	0.237	0.072
-230.771	-177.252	0.400	0.010
-229.757	110.481	0.075	-0.089
-228.742	-200.000	0.005	-0.109
-227.727	800.000	-0.110	-0.394
-226.713	-190.146	-0.185	0.002
-225.698	-62.276	0.012	-0.005
-224.684	139.224	-0.299	0.386
-223.669	-64.845	0.165	-0.065
-222.655	-62.288	0.115	0.047
-221.640	-200.000	-0.036	0.178
-220.625	-118.566	-0.207	-0.036
-219.611	-56.040	0.150	-0.065
-218.596	-27.359	-0.177	-0.101
-217.582	-21.263	-0.105	0.063
-216.567	-4.079	0.239	0.163
-215.552	800.000	-0.047	-0.148
-214.538	100.644	-0.043	-0.049
-213.523	31.592	-0.091	0.077
-212.509	700.805	0.116	-0.299
-211.494	231.896	-0.012	0.019
-210.479	75.628	0.221	0.229
-209.465	-200.000	-0.015	0.251
-208.450	-200.000	0.046	0.296
-207.436	800.000	-0.082	0.345
-206.421	-200.000	-0.009	0.230
-205.406	119.060	-0.103	0.125
-204.392	-200.000	-0.005	-0.106
-203.377	-76.166	-0.306	0.106
-202.363	-45.405	-0.364	-0.177
-201.348	800.000	0.046	0.152
-200.333	107.308	-0.153	-0.178
-199.319	492.143	0.080	-0.180
-198.304	797.327	0.041	-0.112
-197.290	-200.000	-0.046	-0.298
-196.275	800.000	-0.097	-0.323
-195.260	124.234	-0.123	-0.151
-194.246	-200.000	0.014	-0.323
-193.231	144.003	-0.138	-0.180
-192.217	-143.189	-0.150	-0.014
-191.202	466.455	0.081	0.179
-190.187	-48.533	0.260	0.122
-189.173	-15.966	0.287	0.179
-188.158	3.875	0.049	0.035
-187.144	-72.010	-0.255	0.093
-186.129	-200.000	-0.001	0.092
-185.114	-33.093	-0.243	0.132
-184.100	-154.503	-0.114	-0.007
-183.085	105.943	0.060	-0.069
-182.071	94.915	0.232	0.259
-181.056	-76.514	-0.076	-0.026
-180.042	8.079	0.248	0.182
-179.027	800.000	-0.109	-0.308
-178.012	-38.859	0.223	-0.115
-176.998	5.230	-0.271	0.196
-175.983	50.886	0.082	-0.076
-174.969	-0.714	-0.089	-0.062
-173.954	-7.428	0.205	-0.136
-172.939	-96.019	-0.225	-0.059
-171.925	800.000	-0.058	0.207
-170.910	608.662	0.121	0.296
-169.896	145.118	0.054	-0.071
-168.881	-43.038	-0.160	0.079
-167.866	-200.000	0.000	0.093
-166.852	66.074	-0.118	-0.118
-165.837	-200.000	0.034	-0.198
-164.823	-140.178	-0.507	0.052
-163.808	507.272	0.162	-0.367
-162.793	66.303	0.280	-0.278
-161.779	452.695	-0.177	-0.384
-160.764	-73.999	0.130	-0.046
-159.750	-165.641	0.089	-0.004
-158.735	-37.595	-0.388	-0.202
-157.720	175.483	-0.169	0.240
-156.706	55.613	0.301	-0.286
-155.691	272.381	0.057	-0.098
-154.677	287.186	-0.068	-0.120
-153.662	628.528	0.041	0.102
-152.647	50.532	-0.166	-0.154
-151.633	10.857	0.038	-0.028
-150.618	-200.000	-0.020	0.386
-149.604	54.469	0.297	-0.280
-148.589	-139.091	-0.402	-0.043
-147.574	157.805	-0.198	0.268
-146.560	10.959	0.291	0.218
-145.545	-97.454	0.199	-0.051
-144.531	-119.941	-0.051	-0.009
-143.516	-200.000	0.040	-0.199
-142.502	56.493	0.063	0.060
-141.487	-176.343	0.177	-0.005
-140.472	187.276	-0.220	-0.321
-139.458	-53.157	0.280	0.126
-138.443	-120.324	-0.193	-0.032
-137.429	-4.156	0.181	-0.123
-136.414	628.744	0.144	0.356
-135.399	370.894	0.052	-0.103
-134.385	-8.524	0.045	0.029
-133.370	-17.977	0.154	-0.095
-132.356	-57.225	-0.123	0.053
-131.341	-200.000	-0.038	0.195
-130.326	-93.647	-0.343	-0.093
-129.312	125.191	0.168	-0.207
-128.297	22.726	0.248	0.199
-127.283	351.294	-0.096	-0.185
-126.268	-112.835	0.403	0.078
-125.253	800.000	0.045	0.130
-124.239	-46.828	0.034	0.016
-123.224	195.192	-0.106	-0.157
-122.210	-161.511	-0.214	-0.011
-121.195	-90.948	0.149	0.042
-120.180	369.253	-0.146	-0.289
-119.166	-66.450	-0.229	-0.089
-118.151	800.000	-0.082	0.247
-117.137	-94.388	0.160	0.043
-116.122	724.345	-0.037	0.097
-115.107	800.000	-0.141	-0.454
-114.093	292.271	0.091	0.162
-113.078	-43.128	0.180	0.089
-112.064	-200.000	-0.069	-0.303
-111.049	-85.042	0.271	0.083
-110.034	21.528	-0.326	0.259
-109.020	-67.224	-0.264	0.101
-108.005	-58.985	0.271	0.114
-106.991	-200.000	-0.041	0.364
-105.976	-200.000	-0.005	-0.151
-104.962	181.215	0.085	0.122
-103.947	91.799	0.080	0.088
-102.932	168.947	0.142	0.198
-101.918	197.367	0.047	-0.070
-100.903	57.172	-0.139	-0.132
-99.889	800.000	0.019	-0.064
-98.874	-9.413	0.091	-0.059
-97.859	-200.000	-0.005	0.350
-96.845	-109.540	0.350	0.072
-95.830	-125.650	-0.043	-0.006
-94.816	800.000	-0.074	-0.310
-93.801	569.843	0.189	-0.448
-92.786	164.660	-0.183	0.253
-91.772	13.326	0.143	0.108
-90.757	-140.849	-0.259	0.026
-89.743	-97.126	0.060	-0.015
-88.728	-162.315	-0.288	-0.014
-87.713	-141.094	0.188	0.019
-86.699	800.000	-0.033	-0.095
-85.684	194.316	-0.168	-0.249
-84.670	-126.854	-0.302	-0.043
-83.655	632.159	-0.054	-0.132
-82.640	-49.025	0.273	0.128
-81.626	-150.460	-0.136	0.010
-80.611	-155.331	-0.034	-0.002
-79.597	287.280	0.179	-0.316
-78.582	-107.257	0.383	0.082
-77.567	-68.148	-0.108	0.041
-76.553	17.640	0.144	-0.111
-75.538	14.152	0.093	-0.070
-74.524	6.069	0.111	0.080
-73.509	-200.000	0.105	-0.498
-72.494	260.173	-0.122	-0.206
-71.480	165.578	-0.055	0.076
-70.465	192.114	0.199	-0.292
-69.451	74.874	-0.087	-0.089
-68.436	498.926	-0.013	-0.030
-67.422	-67.352	0.115	-0.044
-66.407	-54.119	-0.253	0.112
-65.392	41.544	0.131	0.116
-64.378	5.895	0.125	-0.090
-63.363	800.000	0.008	-0.023
-62.349	7.095	0.039	-0.028
-61.334	25.811	-1.365	-1.109
-60.319	42.810	0.644	0.572
-59.305	242.721	-0.746	-1.218
-58.290	591.692	0.678	1.631
-57.276	502.476	0.654	1.474
-56.261	-200.000	125.080	648.178
-55.246	406.085	1577.500	3244.945
-54.232	141.649	2738.406	3535.519
-53.217	94.250	2189.055	2421.966
-52.203	33.717	1704.957	1445.109
-51.188	26.210	1522.459	1239.094
-50.173	24.315	1498.910	1207.064
-49.159	48.525	1570.475	1433.817
-48.144	45.529	1583.443	1424.791
-47.130	26.368	1532.014	1247.764
-46.115	23.488	1515.927	1214.910
-45.100	23.209	1512.963	1210.583
-44.086	23.208	1511.065	1209.011
-43.071	23.155	1508.719	1206.724
-42.057	23.118	1506.901	1204.968
-41.042	23.180	1505.636	1204.329
-40.027	23.149	1503.991	1202.757
-39.013	23.160	1502.344	1201.465
-37.998	23.115	1501.794	1200.674
-36.984	23.145	1500.527	1199.817
-35.969	23.197	1498.618	1198.595
-34.954	23.134	1497.312	1197.075
-33.940	23.180	1495.994	1196.287
-32.925	23.084	1494.888	1194.703
-31.911	23.090	1493.231	1193.370
-30.896	23.202	1492.257	1193.306
-29.881	23.258	1491.067	1192.679
-28.867	23.275	1489.165	1191.227
-27.852	23.240	1487.939	1189.963
-26.838	23.268	1486.861	1189.243
-25.823	23.259	1484.558	1187.295
-24.809	23.165	1483.691	1185.923
-23.794	23.182	1482.007	1184.640
-22.779	23.260	1480.982	1184.295
-21.765	23.170	1479.728	1182.648
-20.750	23.257	1478.495	1182.198
-19.736	23.161	1477.842	1180.985
-18.721	23.272	1476.328	1180.470
-17.706	23.204	1475.415	1179.241
-16.692	23.268	1473.968	1178.459
-15.677	23.247	1473.027	1177.524
-14.663	23.175	1472.377	1176.475
-13.648	23.206	1471.606	1176.021
-12.633	23.268	1470.406	1175.428
-11.619	23.218	1470.096	1174.803
-10.604	23.108	1469.272	1173.367
-9.590	23.164	1467.993	1172.667
-8.575	23.106	1466.989	1171.433
-7.560	23.208	1466.200	1171.436
-6.546	23.124	1465.401	1170.192
-5.531	23.222	1464.415	1170.010
-4.517	23.097	1463.223	1168.183
-3.502	23.210	1462.611	1168.396
-2.487	23.203	1461.791	1167.645
-1.473	23.172	1460.829	1166.626
-0.458	23.129	1459.192	1164.989
0.556	21.515	1449.567	1154.192
1.571	18.572	1425.262	1115.623
2.586	15.295	1364.525	1047.546
3.600	14.028	1280.736	975.703
4.615	13.210	1237.356	937.925
5.629	11.681	1180.381	886.377
6.644	5.739	1098.269	794.596
7.659	0.889	1062.583	744.877
8.673	0.271	1056.972	737.853
9.688	0.174	1053.968	735.220
10.702	0.134	1052.671	734.053
11.717	0.142	1050.214	732.313
12.731	2.141	1051.239	742.692
13.746	8.382	1059.451	778.937
14.761	14.374	1067.563	814.201
15.775	16.596	1069.642	826.578
16.790	16.406	1068.665	824.825
17.804	15.417	1066.780	818.474
18.819	14.587	1064.903	812.922
19.834	14.139	1063.563	809.645
20.848	13.988	1062.295	807.872
21.863	13.630	1061.606	805.536
22.877	13.399	1061.276	804.097
23.892	13.288	1059.775	802.350
24.907	13.217	1058.850	801.232
25.921	13.191	1058.515	800.783
26.936	13.098	1058.073	799.928
27.950	13.293	1057.375	800.273
28.965	13.245	1056.999	799.683
29.980	13.302	1055.297	798.600
30.994	13.425	1054.625	798.615
32.009	13.327	1054.034	797.625
33.023	13.342	1053.387	797.137
34.038	13.461	1052.338	796.847
35.053	13.386	1051.483	795.769
36.067	13.328	1050.645	794.785
37.082	13.301	1049.507	793.722
38.096	13.393	1048.918	793.648
39.111	13.312	1048.637	792.977
40.126	13.403	1047.630	792.579
41.140	13.333	1046.460	791.291
42.155	13.261	1045.622	790.245
43.169	13.209	1044.491	789.072
44.184	13.262	1043.318	788.365
45.199	13.191	1042.499	787.339
46.213	13.254	1041.628	786.914
47.228	13.205	1040.455	785.726
48.242	13.223	1039.684	785.160
49.257	13.416	1038.214	784.893
50.271	13.206	1037.523	783.306
51.286	13.161	1036.735	782.428
52.301	13.270	1035.981	782.309
53.315	13.358	1034.786	781.749
54.330	13.255	1033.994	780.599
55.344	13.210	1033.117	779.652
56.359	13.285	1031.874	779.000
57.374	13.204	1031.542	778.299
58.388	13.333	1029.952	777.635
59.403	13.263	1029.443	776.857
60.417	13.212	1028.853	776.103
61.432	13.280	1028.029	775.730
62.447	13.222	1027.460	774.959
63.461	13.135	1026.638	773.865
64.476	13.143	1025.678	773.108
65.490	13.046	1024.809	771.934
66.505	13.171	1023.639	771.567
67.520	13.185	1022.998	771.079
68.534	13.264	1022.403	770.934
69.549	13.152	1021.541	769.693
70.563	13.215	1020.520	769.150
71.578	13.182	1020.243	768.719
72.593	13.144	1019.167	767.663
73.607	13.059	1017.995	766.317
74.622	13.076	1017.300	765.804
75.636	13.152	1016.179	765.248
76.651	12.998	1015.809	764.188
77.666	13.142	1015.031	764.197
78.680	12.944	1014.294	762.661
79.695	13.061	1013.803	762.764
80.709	13.080	1013.043	762.214
81.724	13.206	1012.231	762.116
82.739	13.192	1011.445	761.392
83.753	13.128	1011.023	760.713
84.768	13.293	1009.549	760.297
85.782	13.449	1009.041	760.564
86.797	13.410	1008.339	759.789
87.812	13.407	1007.425	759.016
88.826	13.306	1006.196	757.560
89.841	13.338	1005.844	757.375
90.855	13.400	1004.813	756.819
91.870	13.408	1004.340	756.432
92.884	13.330	1003.405	755.302
93.899	13.394	1002.690	754.991
94.914	13.462	1001.602	754.415
95.928	13.503	1001.155	754.198
96.943	13.308	1000.970	753.105
97.957	13.451	999.641	752.685
98.972	13.360	998.934	751.673
99.987	13.394	998.226	751.230
101.001	13.413	997.410	750.637
102.016	13.501	996.336	750.158
103.030	13.350	995.801	749.007
104.045	13.423	994.336	748.167
105.060	13.368	993.320	747.087
106.074	13.306	992.689	746.270
107.089	13.399	992.027	746.123
108.103	13.264	991.402	744.981
109.118	13.245	990.369	744.052
110.133	13.306	989.522	743.622
111.147	13.182	988.639	742.336
112.162	13.268	987.764	742.001
113.176	13.338	986.910	741.607
114.191	13.356	986.113	741.022
115.206	13.279	985.100	739.851
116.220	13.395	984.609	739.938
117.235	13.334	983.680	738.901
118.249	13.316	982.867	738.145
119.264	13.375	981.729	737.487
120.279	13.228	980.968	736.197
121.293	13.329	980.292	736.073
122.308	13.353	979.334	735.394
123.322	13.204	978.637	734.145
124.337	13.297	977.092	733.334
125.352	13.242	976.543	732.614
126.366	13.185	975.114	731.225
127.381	13.284	974.207	730.915
128.395	13.215	973.222	729.806
129.410	13.147	972.854	729.167
130.424	13.215	971.595	728.457
131.439	13.300	970.498	727.948
132.454	13.297	969.829	727.369
133.468	13.306	969.248	726.906
134.483	13.254	968.636	726.154
135.497	13.332	968.013	725.964
136.512	13.278	967.182	725.041
137.527	13.436	965.653	724.523
138.541	13.312	965.787	724.018
139.556	13.444	964.768	723.767
140.570	13.370	963.969	722.778
141.585	13.395	963.097	722.168
142.600	13.420	962.777	721.974
143.614	13.563	961.428	721.525
144.629	13.541	960.645	720.778
145.643	13.597	960.155	720.587
146.658	13.535	959.541	719.794
147.673	13.409	958.840	718.656
148.687	13.474	957.413	717.804
149.702	13.418	956.706	716.972
150.716	13.469	955.906	716.527
151.731	13.379	955.426	715.716
152.746	13.333	955.040	715.165
153.760	13.536	953.393	714.743
154.775	13.514	952.933	714.240
155.789	13.522	952.253	713.702
156.804	13.571	951.557	713.327
157.819	13.632	950.683	712.871
158.833	13.654	950.053	712.430
159.848	13.661	949.674	712.114
160.862	13.741	948.864	711.789
161.877	13.644	948.069	710.712
162.892	13.540	947.146	709.511
163.906	13.498	946.293	708.630
164.921	13.573	945.590	708.362
165.935	13.554	944.606	707.481
166.950	13.765	943.225	707.282
167.964	13.680	942.356	706.206
168.979	13.617	941.572	705.290
169.994	13.615	940.624	704.509
171.008	13.649	940.021	704.137
172.023	13.637	939.153	703.373
173.037	13.718	938.217	702.956
174.052	13.730	937.920	702.720
175.067	13.715	936.977	701.890
176.081	13.586	936.418	700.864
177.096	13.640	935.492	700.337
178.110	13.797	934.694	700.338
179.125	13.691	933.979	699.294
180.140	13.831	932.774	698.921
181.154	13.803	932.340	698.413
182.169	13.814	931.764	697.970
183.183	13.842	931.150	697.564
184.198	13.893	930.470	697.205
185.213	13.700	930.188	696.125
186.227	13.994	929.057	696.448
187.242	13.947	928.309	695.627
188.256	13.980	928.015	695.485
189.271	13.909	927.326	694.609
190.286	13.997	926.077	693.982
191.300	13.901	925.168	692.838
192.315	13.868	924.687	692.279
193.329	13.755	924.325	691.474
194.344	13.841	923.709	691.312
195.359	13.866	923.005	690.829
196.373	13.944	922.182	690.473
197.388	13.934	921.851	690.123
198.402	13.910	921.581	689.761
199.417	14.147	920.556	689.915
200.432	14.190	920.429	689.940
201.446	14.207	919.886	689.542
202.461	14.067	919.762	688.806
203.475	14.241	919.337	689.148
204.490	14.216	918.442	688.312
205.504	14.180	917.654	687.513
206.519	14.066	916.747	686.302
207.534	14.096	916.458	686.149
208.548	14.170	915.054	685.343
209.563	14.120	914.609	684.743
210.577	14.041	914.154	684.017
211.592	14.225	913.013	683.857
212.607	14.287	913.030	684.063
213.621	14.211	912.244	683.102
214.636	14.224	911.677	682.671
215.650	14.191	911.195	682.114
216.665	14.242	910.178	681.501
217.680	14.386	909.774	681.727
218.694	14.325	909.320	681.077
219.709	14.409	908.635	680.847
220.723	14.283	908.452	680.134
221.738	14.410	907.618	679.968
222.753	14.464	906.106	678.996
223.767	14.471	906.000	678.887
224.782	14.309	904.905	677.348
225.796	14.466	904.247	677.431
226.811	14.456	903.425	676.714
227.826	14.490	902.730	676.274
228.840	14.526	902.237	675.989
229.855	14.404	901.703	675.034
230.869	14.398	901.053	674.465
231.884	14.544	900.329	674.456
232.899	14.438	899.330	673.216
233.913	14.312	899.170	672.529
234.928	14.450	898.450	672.488
235.942	14.388	897.581	671.528
236.957	14.426	897.078	671.244
237.972	14.465	896.475	670.894
238.986	14.569	895.771	670.724
240.001	14.438	894.956	669.527
241.015	14.502	894.427	669.329
242.030	14.585	893.696	669.056
243.045	14.397	893.302	667.947
244.059	14.592	892.441	668.028
245.074	14.651	891.747	667.684
246.088	14.644	891.084	667.100
247.103	14.693	890.395	666.723
248.117	14.743	889.919	666.505
249.132	14.677	889.588	665.937
250.147	14.714	889.002	665.586
251.161	14.949	887.987	665.702
252.176	14.805	887.517	664.716
253.190	14.906	886.550	664.337
254.205	14.928	886.090	664.021
255.220	14.845	885.825	663.434
256.234	14.922	885.203	663.216
257.249	15.124	883.811	662.913
258.263	15.054	883.440	662.297
259.278	15.010	883.347	661.997
260.293	14.945	882.822	661.287
261.307	14.990	882.403	661.092
262.322	15.284	881.021	661.159
263.336	15.284	880.485	660.696
264.351	15.103	880.402	659.863
265.366	15.105	879.504	659.139
266.380	15.281	878.539	659.051
267.395	15.358	878.085	658.955
268.409	15.132	877.557	657.614
269.424	15.201	876.682	657.168
270.439	15.299	875.886	656.899
271.453	15.309	875.303	656.442
272.468	15.172	874.362	655.142
273.482	15.245	873.784	654.938
274.497	15.225	873.220	654.378
275.512	15.213	872.675	653.864
276.526	15.305	871.748	653.470
277.541	15.339	871.332	653.234
278.555	15.233	870.929	652.461
279.570	15.256	870.418	652.110
280.585	15.313	869.426	651.531
281.599	15.492	869.025	651.866
282.614	15.399	868.512	651.063
283.628	15.492	867.572	650.663
284.643	15.422	867.018	649.916
285.657	15.437	866.577	649.589
286.672	15.525	866.244	649.622
287.687	15.461	865.752	648.949
288.701	15.506	865.331	648.748
289.716	15.424	864.795	647.972
290.730	15.558	863.962	647.807
291.745	15.533	863.257	647.127
292.760	15.478	862.547	646.322
293.774	15.684	861.826	646.520
294.789	15.538	861.576	645.712
295.803	15.641	860.653	645.361
296.818	15.668	860.184	645.056
297.833	15.559	859.566	644.115
298.847	15.565	859.101	643.734
299.862	15.611	858.339	643.284
300.876	15.574	857.690	642.597
301.891	15.769	856.794	642.613
302.906	15.790	856.159	642.160
303.920	15.789	855.337	641.484
304.935	15.822	854.554	640.964
305.949	15.846	854.204	640.736
306.964	15.935	853.663	640.612
307.979	15.932	852.736	639.851
308.993	15.866	852.468	639.341
310.008	15.877	851.905	638.903
311.022	15.895	851.713	638.771
312.037	15.849	851.531	638.404
313.052	15.901	850.614	637.858
314.066	15.836	850.066	637.144
315.081	15.925	849.285	636.837
316.095	15.730	848.819	635.698
317.110	15.910	848.202	635.856
318.125	15.948	847.601	635.496
319.139	15.982	846.832	634.990
320.154	16.073	846.378	634.936
321.168	15.988	846.130	634.373
322.183	15.745	845.816	633.167
323.197	15.913	845.274	633.339
324.212	16.046	844.295	633.047
325.227	15.944	843.935	632.339
326.241	15.924	843.432	631.829
327.256	15.956	842.903	631.500
328.270	15.928	842.207	630.816
329.285	15.942	841.570	630.336
330.300	16.055	840.732	630.075
331.314	15.922	840.449	629.311
332.329	16.017	839.612	628.981
333.343	16.099	839.161	628.895
334.358	15.995	838.548	627.992
335.373	16.084	838.162	627.979
336.387	16.180	837.504	627.786
337.402	16.240	836.945	627.537
338.416	16.223	836.408	627.013
339.431	16.268	835.956	626.786
340.446	16.205	835.395	626.079
341.460	16.338	834.865	626.118
342.475	16.364	834.254	625.702
343.489	16.359	833.697	625.208
344.504	16.429	833.063	624.939
345.519	16.418	832.580	624.477
346.533	16.547	831.956	624.434
347.548	16.379	831.842	623.673
348.562	16.390	831.032	623.047
349.577	16.405	830.694	622.796
350.592	16.409	830.105	622.315
351.606	16.415	829.677	621.961
352.621	16.262	829.369	621.110
353.635	16.428	829.094	621.462
354.650	16.470	828.503	621.118
355.665	16.353	828.228	620.427
356.679	16.583	827.211	620.455
357.694	16.373	827.385	619.758
358.708	16.544	826.206	619.446
359.723	16.580	825.684	619.133
360.738	16.703	824.967	618.989
361.752	16.729	824.210	618.462
362.767	16.702	824.172	618.281
363.781	16.513	824.220	617.573
364.796	16.564	823.547	617.200
365.810	16.738	823.028	617.388
366.825	16.853	822.352	617.246
367.840	16.641	822.287	616.371
368.854	16.789	821.774	616.470
369.869	16.688	821.461	615.812
370.883	16.637	820.903	615.157
371.898	16.852	820.245	615.388
372.913	16.798	819.338	614.459
373.927	16.798	818.972	614.129
374.942	16.827	818.176	613.583
375.956	16.943	817.224	613.233
376.971	16.868	817.352	613.006
377.986	16.763	816.770	612.136
379.000	16.961	815.861	612.113
380.015	17.052	815.675	612.247
381.029	16.893	815.120	611.205
382.044	17.037	814.588	611.269
383.059	17.004	813.508	610.285
384.073	17.130	813.158	610.424
385.088	17.143	812.774	610.126
386.102	17.164	812.018	609.580
387.117	17.121	811.638	609.087
388.132	17.077	811.388	608.690
389.146	16.974	811.083	608.037
390.161	16.987	810.558	607.636
391.175	17.168	809.974	607.790
392.190	17.051	809.925	607.282
393.205	17.022	809.891	607.102
394.219	17.236	808.603	606.845
395.234	17.098	808.433	606.171
396.248	16.987	808.051	605.435
397.263	17.075	807.392	605.202
398.278	17.158	806.965	605.124
399.292	17.129	806.471	604.598
400.307	17.166	806.107	604.401
401.321	17.134	805.608	603.859
402.336	17.164	805.376	603.741
403.350	17.193	804.996	603.503
404.365	17.148	804.516	602.932
405.380	17.245	803.826	602.706
406.394	17.228	803.510	602.354
407.409	17.462	802.995	602.746
408.423	17.290	802.686	601.850
409.438	17.352	802.068	601.553
410.453	17.429	801.695	601.493
411.467	17.469	801.337	601.311
412.482	17.560	800.324	600.818
413.496	17.541	800.508	600.837
414.511	17.531	799.733	600.165
415.526	17.623	799.496	600.258
416.540	17.425	799.510	599.519
417.555	17.577	798.841	599.498
418.569	17.707	798.187	599.412
419.584	17.492	797.735	598.264
420.599	17.494	797.504	598.047
421.613	113.824	1297.839	1488.538
422.628	98.052	1370.715	1488.629
