DTS Sentinel unit serial number:	SN413079Multiplexer serial number:	ORYXHardware model number:	OX4-SRSoftware version number:	ORYX F/W v4.00 Oryx Data Collector v3.7.2.0data status	okinstallation	princeton_trtdifferential loss correction	single-endedforward channel	channel 3reverse channel	N/Adate	2019/09/17time	12:12:35forward acquisition time	60.00reverse acquisition time	0.00gamma	496.2192k internal	0.2320k external	0.2320temperature offset calibration	0.9961default loss term (dB/km)	0.3790temperature slope calibration	1.0000multiplexer offset coefficient	1.0000multiplexer slope coefficient	1.0000fibre end	0.00T internal ref (°C)	31.37T ext. ref 1 (°C)	0.45T ext. ref 2 (°C)	27.95length (m)	temperature (°C)	Stokes	anti-Stokes-747.200	186.841	-0.105	0.158
-746.185	1.741	-0.187	0.136
-745.171	-200.000	-0.050	0.261
-744.156	800.000	0.040	0.140
-743.142	-200.000	-0.019	-0.361
-742.127	-84.841	-0.452	0.144
-741.112	59.555	-0.131	0.131
-740.098	-115.967	0.376	0.071
-739.083	23.584	0.072	0.060
-738.069	137.588	0.056	0.074
-737.054	800.000	-0.026	0.097
-736.039	176.413	-0.162	-0.239
-735.025	149.858	-0.126	0.173
-734.010	-27.365	-0.071	0.042
-732.996	323.836	-0.119	-0.229
-731.981	-57.736	-0.256	0.113
-730.966	521.541	-0.077	0.184
-729.952	-105.278	0.067	0.015
-728.937	258.932	-0.251	-0.437
-727.923	-96.876	-0.336	0.089
-726.908	-200.000	-0.004	0.096
-725.894	-118.793	-0.204	-0.036
-724.879	-140.107	-0.309	0.033
-723.864	-93.007	-0.067	0.019
-722.850	-173.423	0.376	0.012
-721.835	800.000	0.048	-0.168
-720.821	-82.842	0.188	-0.061
-719.806	800.000	-0.036	0.105
-718.791	133.637	-0.175	0.229
-717.777	253.374	-0.059	0.102
-716.762	5.920	0.243	0.182
-715.748	-200.000	-0.007	-0.065
-714.733	-200.000	0.000	-0.056
-713.718	-200.000	0.047	0.213
-712.704	512.507	-0.124	-0.293
-711.689	263.776	-0.156	-0.274
-710.675	125.449	0.296	-0.377
-709.660	-141.462	0.283	-0.029
-708.645	-39.116	0.141	-0.075
-707.631	149.124	0.054	0.073
-706.616	-142.439	-0.149	0.015
-705.602	10.560	-0.176	-0.136
-704.587	800.000	0.081	0.248
-703.572	-100.559	-0.311	0.078
-702.558	353.720	-0.068	-0.136
-701.543	313.447	0.172	-0.326
-700.529	-53.737	0.327	0.151
-699.514	-134.966	0.294	0.036
-698.499	-113.803	0.114	-0.022
-697.485	-40.502	-0.180	-0.094
-696.470	-140.225	-0.257	0.027
-695.456	-60.756	0.214	0.092
-694.441	261.272	-0.124	-0.216
-693.426	-200.000	-0.001	0.067
-692.412	50.869	0.177	-0.169
-691.397	397.409	-0.018	0.039
-690.383	-200.000	0.073	-0.472
-689.368	556.913	0.027	-0.065
-688.354	677.439	-0.058	0.152
-687.339	-200.000	0.031	-0.299
-686.324	687.986	0.056	-0.147
-685.310	-45.887	-0.099	-0.050
-684.295	-200.000	0.016	0.202
-683.281	-200.000	-0.014	0.085
-682.266	-85.785	0.252	-0.079
-681.251	-200.000	0.020	-0.333
-680.237	-60.837	0.161	-0.069
-679.222	465.598	-0.122	0.276
-678.208	1.699	-0.243	0.176
-677.193	-200.000	0.022	0.106
-676.178	-139.515	0.280	-0.030
-675.164	800.000	-0.030	0.125
-674.149	-97.513	0.290	-0.076
-673.135	66.419	-0.331	-0.339
-672.120	-200.000	0.004	-0.041
-671.105	-200.000	0.032	0.176
-670.091	800.000	0.044	-0.169
-669.076	52.555	-0.051	-0.049
-668.062	-200.000	0.009	0.077
-667.047	417.167	-0.022	0.047
-666.032	133.116	-0.135	-0.175
-665.018	-200.000	0.010	0.111
-664.003	-200.000	-0.009	-0.131
-662.989	800.000	-0.039	0.126
-661.974	36.651	-0.378	-0.336
-660.959	800.000	-0.093	-0.348
-659.945	-126.072	-0.090	0.014
-658.930	206.123	0.113	0.178
-657.916	-200.000	0.050	-0.276
-656.901	93.672	-0.099	0.113
-655.886	32.938	0.096	0.084
-654.872	14.669	0.192	0.151
-653.857	75.086	0.207	-0.220
-652.843	-45.759	0.085	0.043
-651.828	-144.119	0.345	-0.033
-650.814	-114.789	-0.204	0.039
-649.799	-98.073	0.207	0.054
-648.784	-138.714	0.156	0.017
-647.770	465.153	0.031	-0.071
-646.755	-200.000	0.052	-0.342
-645.741	-46.541	-0.278	0.137
-644.726	-5.071	0.082	0.057
-643.711	-200.000	-0.056	0.260
-642.697	-118.677	0.103	-0.018
-641.682	-136.799	0.338	-0.039
-640.668	-15.125	0.099	-0.064
-639.653	-109.734	0.063	0.013
-638.638	-54.779	0.174	0.079
-637.624	-84.354	0.215	0.068
-636.609	-49.140	0.242	0.117
-635.595	332.777	0.109	-0.212
-634.580	-31.965	0.244	-0.138
-633.565	-115.827	-0.257	0.048
-632.551	-200.000	-0.005	-0.202
-631.536	800.000	0.122	-0.361
-630.522	16.045	0.353	-0.280
-629.507	726.210	-0.088	0.236
-628.492	98.807	-0.086	-0.100
-627.478	-88.814	-0.053	-0.016
-626.463	246.038	0.217	0.368
-625.449	588.071	0.088	-0.219
-624.434	800.000	0.025	-0.104
-623.419	800.000	0.051	-0.150
-622.405	-80.091	0.069	0.023
-621.390	-200.000	0.003	-0.131
-620.376	-16.280	-0.175	0.112
-619.361	52.167	0.169	-0.162
-618.346	-112.686	-0.281	-0.056
-617.332	-200.000	-0.034	-0.222
-616.317	-82.175	0.132	-0.043
-615.303	-200.000	-0.001	0.125
-614.288	-200.000	-0.017	0.089
-613.273	-93.763	0.321	-0.089
-612.259	-200.000	0.022	-0.121
-611.244	-33.845	0.151	-0.083
-610.230	-76.609	-0.013	-0.005
-609.215	245.286	-0.118	-0.199
-608.201	-200.000	0.045	-0.225
-607.186	-80.803	-0.253	0.084
-606.171	-20.994	0.180	-0.111
-605.157	-200.000	0.009	-0.227
-604.142	355.631	-0.147	-0.294
-603.128	-190.104	-0.352	0.004
-602.113	82.997	-0.233	-0.255
-601.098	262.218	0.131	0.228
-600.084	73.697	-0.081	-0.085
-599.069	29.069	-0.104	0.088
-598.055	-102.553	-0.347	-0.083
-597.040	-139.729	-0.438	-0.047
-596.025	800.000	0.066	0.289
-595.011	26.131	-0.123	0.103
-593.996	-24.340	0.109	-0.066
-592.982	-200.000	0.006	-0.110
-591.967	-27.715	0.328	0.191
-590.952	237.302	-0.147	-0.245
-589.938	800.000	-0.061	0.179
-588.923	-31.954	-0.066	0.037
-587.909	-78.791	-0.309	0.106
-586.894	347.711	-0.172	-0.341
-585.879	-82.042	0.349	-0.115
-584.865	-200.000	0.010	0.159
-583.850	261.330	0.190	-0.331
-582.836	-48.961	-0.180	0.086
-581.821	-200.000	-0.018	0.211
-580.806	-8.487	0.456	0.308
-579.792	800.000	-0.065	-0.222
-578.777	252.104	0.054	0.092
-577.763	-57.949	-0.384	-0.168
-576.748	-200.000	0.016	-0.156
-575.733	781.201	0.194	-0.534
-574.719	800.000	-0.029	-0.089
-573.704	-114.376	-0.252	0.049
-572.690	800.000	-0.072	0.249
-571.675	-161.324	-0.228	0.012
-570.661	-102.083	0.324	-0.078
-569.646	-105.560	-0.157	0.036
-568.631	322.479	-0.196	-0.375
-567.617	-186.182	-0.183	-0.003
-566.602	341.429	0.044	-0.087
-565.588	800.000	0.037	0.118
-564.573	800.000	0.064	-0.192
-563.558	157.531	0.096	-0.133
-562.544	-81.079	0.181	0.060
-561.529	-177.283	-0.155	-0.004
-560.515	-168.594	-0.037	0.001
-559.500	-158.192	0.154	-0.009
-558.485	10.017	0.029	0.022
-557.471	467.636	-0.085	-0.192
-556.456	-67.170	-0.221	-0.088
-555.442	-170.586	0.558	-0.019
-554.427	21.995	0.165	0.135
-553.412	-200.000	-0.016	-0.174
-552.398	-14.602	-0.132	-0.085
-551.383	-124.331	-0.188	0.030
-550.369	252.777	0.047	-0.081
-549.354	28.107	0.254	0.215
-548.339	105.226	0.411	-0.487
-547.325	61.282	-0.088	-0.088
-546.310	281.068	-0.021	0.038
-545.296	-155.748	0.254	0.016
-544.281	800.000	-0.038	-0.159
-543.266	61.767	-0.124	0.124
-542.252	-200.000	-0.036	0.264
-541.237	800.000	0.093	-0.385
-540.223	800.000	-0.050	-0.189
-539.208	124.916	-0.067	-0.084
-538.193	-200.000	0.043	0.349
-537.179	-124.343	-0.261	-0.041
-536.164	266.740	-0.115	-0.201
-535.150	-16.015	0.212	-0.135
-534.135	-200.000	0.016	-0.258
-533.121	-200.000	-0.009	-0.090
-532.106	198.958	-0.101	-0.156
-531.091	-200.000	-0.036	-0.225
-530.077	-109.419	0.137	0.029
-529.062	287.076	0.083	-0.150
-528.048	800.000	-0.060	0.245
-527.033	127.251	0.159	0.202
-526.018	245.222	0.201	0.339
-525.004	269.576	-0.135	0.237
-523.989	-110.072	-0.280	-0.059
-522.975	-148.964	0.134	0.011
-521.960	-86.382	-0.426	0.131
-520.945	-200.000	0.026	-0.241
-519.931	-149.833	-0.099	0.008
-518.916	-200.000	-0.064	-0.286
-517.902	13.104	-0.292	-0.227
-516.887	47.616	-0.152	0.142
-515.872	47.265	-0.062	-0.058
-514.858	-200.000	-0.009	-0.073
-513.843	800.000	0.088	-0.315
-512.829	-168.325	-0.104	-0.004
-511.814	-27.192	-0.270	-0.158
-510.799	800.000	0.043	0.120
-509.785	2.291	0.297	0.215
-508.770	-106.495	0.177	0.040
-507.756	-34.102	-0.226	0.125
-506.741	-200.000	0.005	-0.110
-505.726	33.894	0.174	-0.152
-504.712	-132.233	0.248	0.032
-503.697	40.014	0.186	0.167
-502.683	66.539	-0.082	0.084
-501.668	213.126	0.088	0.140
-500.653	-126.267	0.052	0.008
-499.639	800.000	-0.053	-0.201
-498.624	390.058	0.007	0.014
-497.610	46.216	-0.174	0.162
-496.595	800.000	0.045	0.162
-495.581	595.827	-0.148	-0.368
-494.566	70.747	-0.285	-0.296
-493.551	-76.370	-0.286	0.101
-492.537	113.442	0.188	-0.228
-491.522	16.378	0.181	0.143
-490.508	116.270	0.095	0.117
-489.493	31.820	-0.134	-0.116
-488.478	-145.212	0.105	0.009
-487.464	9.016	-0.282	0.213
-486.449	-150.439	0.226	0.017
-485.435	800.000	0.052	0.211
-484.420	-186.485	0.218	-0.003
-483.405	550.731	-0.068	0.164
-482.391	68.117	-0.122	0.125
-481.376	-167.472	0.105	-0.004
-480.362	-23.936	-0.416	-0.249
-479.347	-46.919	-0.145	-0.071
-478.332	-24.275	0.175	0.104
-477.318	-66.642	0.268	-0.106
-476.303	-33.972	0.096	-0.053
-475.289	-172.287	-0.248	0.008
-474.274	334.463	0.082	0.159
-473.259	-200.000	-0.043	-0.281
-472.245	58.158	-0.096	-0.094
-471.230	125.012	0.129	0.163
-470.216	-106.976	0.227	0.050
-469.201	41.167	0.161	-0.146
-468.186	76.045	0.279	-0.295
-467.172	751.048	0.099	-0.267
-466.157	-68.264	-0.273	-0.106
-465.143	-117.553	-0.124	0.022
-464.128	49.531	-0.058	-0.054
-463.113	-200.000	0.035	-0.309
-462.099	6.592	-0.157	0.117
-461.084	8.859	-0.440	-0.332
-460.070	44.363	0.137	-0.125
-459.055	154.528	0.218	0.300
-458.040	-57.709	0.146	0.064
-457.026	63.450	-0.059	-0.059
-456.011	-69.590	0.084	0.032
-454.997	-117.271	0.026	0.005
-453.982	-200.000	0.065	0.291
-452.968	-32.172	0.056	0.031
-451.953	-16.828	-0.098	0.062
-450.938	-45.746	-0.168	-0.083
-449.924	-48.066	0.335	-0.162
-448.909	-51.878	0.165	0.077
-447.895	-9.736	0.148	0.099
-446.880	-68.847	-0.266	-0.103
-445.865	-50.444	0.043	-0.020
-444.851	-108.100	0.252	-0.055
-443.836	638.248	-0.067	0.169
-442.822	536.109	0.023	-0.054
-441.807	227.136	-0.020	-0.033
-440.792	-140.069	0.442	0.047
-439.778	-146.031	-0.314	-0.028
-438.763	-18.743	0.136	-0.085
-437.749	-200.000	-0.035	0.270
-436.734	-67.727	-0.057	-0.022
-435.719	-48.420	0.182	0.088
-434.705	800.000	0.083	0.239
-433.690	-200.000	-0.031	-0.169
-432.676	188.233	-0.127	-0.190
-431.661	34.668	-0.249	0.217
-430.646	9.275	-0.264	0.199
-429.632	-200.000	-0.040	0.497
-428.617	225.590	0.104	-0.168
-427.603	-83.361	0.264	0.085
-426.588	145.650	-0.179	-0.239
-425.573	642.811	-0.145	-0.370
-424.559	27.980	-0.258	0.217
-423.544	-93.092	0.049	-0.014
-422.530	-6.589	0.146	-0.099
-421.515	-200.000	-0.021	0.181
-420.500	-96.053	-0.202	-0.054
-419.486	50.407	0.117	-0.111
-418.471	158.310	0.133	0.184
-417.457	-46.994	0.282	-0.138
-416.442	-19.091	-0.038	0.024
-415.428	219.835	0.051	-0.082
-414.413	-94.024	0.418	-0.115
-413.398	113.688	0.040	-0.049
-412.384	-73.343	-0.252	0.092
-411.369	274.923	0.177	-0.314
-410.355	-200.000	0.004	-0.256
-409.340	-200.000	0.029	-0.167
-408.325	800.000	0.043	0.132
-407.311	440.726	-0.145	0.316
-406.296	-200.000	-0.017	-0.295
-405.282	49.814	-0.232	-0.218
-404.267	-33.344	0.247	0.136
-403.252	-53.205	0.592	-0.271
-402.238	-200.000	-0.014	-0.213
-401.223	16.264	0.072	0.057
-400.209	-200.000	-0.050	-0.322
-399.194	-122.893	-0.296	0.048
-398.179	-104.524	0.233	0.054
-397.165	-68.569	-0.329	-0.127
-396.150	-68.936	0.377	-0.145
-395.136	-151.350	-0.168	0.012
-394.121	-102.955	0.102	0.024
-393.106	-41.199	0.161	0.083
-392.092	-200.000	-0.023	0.173
-391.077	-54.798	0.181	0.082
-390.063	-200.000	0.014	0.144
-389.048	-200.000	-0.031	-0.174
-388.033	800.000	0.138	0.408
-387.019	64.181	-0.257	0.258
-386.004	13.193	0.398	-0.307
-384.990	-19.554	0.119	0.074
-383.975	800.000	0.060	-0.248
-382.960	-80.864	0.283	0.094
-381.946	-75.994	-0.089	0.031
-380.931	116.625	0.163	0.199
-379.917	-200.000	0.015	0.309
-378.902	-97.425	-0.397	-0.103
-377.888	-172.427	-0.250	-0.008
-376.873	800.000	-0.011	0.046
-375.858	225.558	-0.096	-0.155
-374.844	248.236	-0.210	0.353
-373.829	117.789	0.328	0.403
-372.815	14.572	0.309	0.240
-371.800	-21.973	-0.128	0.078
-370.785	-58.191	-0.279	-0.121
-369.771	800.000	-0.126	-0.353
-368.756	373.678	0.111	-0.224
-367.742	-200.000	0.002	0.047
-366.727	-200.000	-0.025	0.182
-365.712	110.456	0.084	0.101
-364.698	-200.000	0.006	-0.073
-363.683	28.570	0.324	0.273
-362.669	-67.439	-0.045	0.018
-361.654	19.490	-0.147	-0.118
-360.639	612.540	-0.066	0.165
-359.625	-200.000	-0.013	-0.149
-358.610	-200.000	0.058	-0.266
-357.596	169.471	-0.087	0.123
-356.581	63.679	-0.174	0.174
-355.566	-150.286	-0.176	-0.014
-354.552	-139.088	-0.350	-0.038
-353.537	-80.009	-0.225	-0.075
-352.523	-104.191	-0.258	-0.060
-351.508	-122.539	-0.359	0.058
-350.493	-72.422	0.307	0.113
-349.479	543.731	0.001	-0.002
-348.464	-50.575	0.175	-0.082
-347.450	-11.464	0.285	-0.187
-346.435	98.808	-0.032	-0.037
-345.420	-29.783	-0.180	0.102
-344.406	-10.266	0.273	0.181
-343.391	-187.618	-0.084	-0.001
-342.377	800.000	0.099	-0.429
-341.362	-163.226	-0.095	-0.005
-340.348	-40.472	-0.019	-0.010
-339.333	800.000	-0.057	-0.192
-338.318	-23.434	-0.252	0.151
-337.304	44.403	0.130	0.119
-336.289	546.099	-0.090	0.213
-335.275	-200.000	-0.059	0.265
-334.260	0.076	-0.267	0.189
-333.245	201.492	0.194	0.297
-332.231	800.000	-0.074	0.211
-331.216	-200.000	-0.004	0.245
-330.202	800.000	-0.054	-0.179
-329.187	761.596	-0.046	-0.124
-328.172	90.105	-0.187	0.208
-327.158	47.007	-0.128	0.119
-326.143	800.000	-0.062	0.219
-325.129	55.063	0.249	-0.240
-324.114	241.440	0.145	-0.241
-323.099	-54.270	-0.477	-0.215
-322.085	287.134	-0.089	-0.160
-321.070	559.227	0.069	-0.166
-320.056	-125.722	-0.278	0.042
-319.041	-137.804	0.320	0.036
-318.026	1.768	0.081	0.058
-317.012	489.377	0.032	0.073
-315.997	322.655	-0.160	-0.302
-314.983	317.501	-0.069	0.131
-313.968	-55.160	0.342	-0.153
-312.953	-109.992	0.257	-0.053
-311.939	-41.971	0.254	-0.129
-310.924	138.146	-0.138	0.180
-309.910	800.000	0.096	0.325
-308.895	-200.000	-0.048	0.259
-307.880	-98.980	-0.071	0.018
-306.866	-200.000	-0.003	-0.117
-305.851	-173.763	-0.376	0.011
-304.837	800.000	-0.054	0.170
-303.822	-148.495	0.193	0.016
-302.807	-140.145	0.484	-0.050
-301.793	-10.081	-0.482	0.318
-300.778	410.704	-0.171	0.360
-299.764	444.461	-0.118	0.257
-298.749	-200.000	0.052	0.280
-297.735	163.913	-0.151	-0.212
-296.720	225.357	0.061	-0.098
-295.705	-162.813	-0.257	0.012
-294.691	44.054	0.230	-0.210
-293.676	-50.590	0.073	-0.034
-292.662	-200.000	0.025	-0.162
-291.647	-27.739	-0.097	-0.056
-290.632	-84.940	0.108	0.034
-289.618	800.000	0.055	0.154
-288.603	51.602	-0.362	-0.342
-287.589	535.982	-0.106	0.249
-286.574	-108.463	-0.421	0.090
-285.559	-93.326	0.347	0.096
-284.545	-104.724	0.052	-0.012
-283.530	-83.647	-0.042	-0.013
-282.516	-148.611	-0.103	-0.008
-281.501	2.672	-0.237	-0.171
-280.486	213.780	-0.090	-0.141
-279.472	-75.344	-0.201	0.071
-278.457	-72.845	0.388	0.142
-277.443	-54.846	-0.540	0.242
-276.428	-152.970	-0.132	0.009
-275.413	50.196	-0.099	-0.093
-274.399	255.709	0.017	-0.029
-273.384	-200.000	-0.115	0.000
-272.370	77.379	0.219	0.231
-271.355	-71.263	-0.050	-0.019
-270.340	-21.310	0.338	0.205
-269.326	481.042	-0.168	-0.378
-268.311	108.277	-0.085	0.101
-267.297	800.000	0.050	0.149
-266.282	-200.000	-0.070	-0.448
-265.267	800.000	0.102	-0.308
-264.253	4.781	-0.221	-0.161
-263.238	800.000	-0.033	-0.094
-262.224	800.000	0.016	0.059
-261.209	17.028	-0.213	0.167
-260.195	4.475	0.132	-0.096
-259.180	60.652	-0.130	0.128
-258.165	561.832	0.145	0.349
-257.151	-200.000	-0.005	0.253
-256.136	-122.970	-0.338	-0.054
-255.122	-159.715	0.173	-0.009
-254.107	-80.372	-0.161	0.053
-253.092	-12.202	0.204	-0.132
-252.078	250.154	-0.139	-0.234
-251.063	-200.000	0.028	0.212
-250.049	297.337	-0.084	0.154
-249.034	-200.000	-0.013	-0.263
-248.019	-200.000	-0.058	0.382
-247.005	-38.437	0.126	-0.066
-245.990	-156.918	-0.252	-0.015
-244.976	-200.000	-0.058	0.309
-243.961	-97.203	0.380	0.098
-242.946	-200.000	0.023	0.120
-241.932	-49.045	0.367	0.174
-240.917	-200.000	-0.027	0.209
-239.903	241.974	-0.137	0.228
-238.888	281.811	0.021	-0.037
-237.873	-200.000	-0.023	0.190
-236.859	11.175	0.273	0.207
-235.844	105.475	0.244	-0.286
-234.830	-194.352	-0.296	0.002
-233.815	-123.402	-0.116	-0.018
-232.800	527.691	0.025	-0.059
-231.786	-135.703	-0.311	-0.037
-230.771	-200.000	-0.022	-0.095
-229.757	-27.428	0.127	0.073
-228.742	-200.000	-0.004	-0.034
-227.727	-3.261	0.237	-0.164
-226.713	23.514	0.222	0.181
-225.698	-85.488	-0.222	0.069
-224.684	800.000	0.091	-0.311
-223.669	-200.000	0.019	0.184
-222.655	-200.000	0.010	0.047
-221.640	-83.592	-0.261	0.083
-220.625	-141.631	-0.232	-0.023
-219.611	-129.913	-0.154	-0.021
-218.596	-38.198	-0.257	0.135
-217.582	178.619	-0.137	0.198
-216.567	-7.025	0.205	-0.138
-215.552	-200.000	0.061	-0.406
-214.538	-200.000	-0.007	-0.187
-213.523	-4.352	-0.207	-0.142
-212.509	9.914	0.165	-0.124
-211.494	-52.132	0.314	-0.144
-210.479	-200.000	0.050	0.329
-209.465	-200.000	-0.008	0.280
-208.450	219.151	0.084	-0.132
-207.436	800.000	-0.029	0.098
-206.421	234.845	0.078	0.128
-205.406	-114.078	0.321	0.061
-204.392	800.000	0.072	-0.198
-203.377	-200.000	0.025	0.132
-202.363	127.319	-0.271	0.341
-201.348	498.101	-0.021	0.047
-200.333	-200.000	-0.008	0.109
-199.319	46.112	0.374	0.343
-198.304	254.645	0.168	0.284
-197.290	-200.000	0.029	0.335
-196.275	-75.691	-0.258	-0.091
-195.260	-123.365	0.131	0.021
-194.246	235.592	0.065	-0.106
-193.231	397.139	-0.052	-0.108
-192.217	-133.855	0.248	0.031
-191.202	37.809	0.160	-0.141
-190.187	-173.929	-0.137	0.004
-189.173	-14.357	0.081	0.051
-188.158	-157.033	0.346	-0.021
-187.144	-200.000	-0.029	0.138
-186.129	800.000	0.065	0.204
-185.114	-28.059	-0.047	0.027
-184.100	552.075	-0.050	0.119
-183.085	-200.000	-0.048	0.256
-182.071	-167.850	-0.069	-0.003
-181.056	800.000	0.019	0.057
-180.042	673.774	-0.088	0.225
-179.027	35.501	-0.152	-0.132
-178.012	97.486	-0.169	0.192
-176.998	-200.000	-0.016	-0.125
-175.983	158.689	-0.115	0.158
-174.969	-200.000	-0.007	-0.111
-173.954	-4.767	0.303	0.207
-172.939	-105.320	-0.241	-0.054
-171.925	-200.000	-0.018	0.312
-170.910	0.585	0.121	0.086
-169.896	-200.000	0.045	-0.302
-168.881	-190.798	0.093	0.001
-167.866	129.508	-0.102	-0.129
-166.852	118.098	-0.078	-0.095
-165.837	183.722	0.185	-0.271
-164.823	-46.885	-0.157	-0.076
-163.808	19.480	0.302	0.240
-162.793	-41.165	0.223	0.114
-161.779	800.000	0.044	-0.141
-160.764	14.821	-0.355	0.274
-159.750	108.292	-0.095	0.112
-158.735	-200.000	-0.008	0.207
-157.720	72.203	-0.174	-0.179
-156.706	-90.625	0.201	0.057
-155.691	-200.000	-0.053	0.308
-154.677	-163.007	0.197	-0.009
-153.662	-141.919	-0.418	0.041
-152.647	219.283	0.070	0.110
-151.633	-50.368	0.137	-0.064
-150.618	377.446	0.154	-0.310
-149.604	-53.896	-0.347	0.156
-148.589	-70.548	0.255	0.095
-147.574	17.329	0.204	-0.160
-146.560	230.711	0.132	0.213
-145.545	289.851	-0.139	0.248
-144.531	-10.441	0.235	-0.154
-143.516	-59.615	-0.136	0.058
-142.502	-158.065	0.214	0.012
-141.487	89.843	0.093	0.103
-140.472	-7.908	0.191	0.128
-139.458	-43.191	-0.206	-0.103
-138.443	800.000	-0.057	0.165
-137.429	-200.000	0.010	0.111
-136.414	39.089	0.395	-0.349
-135.399	-200.000	-0.010	0.134
-134.385	52.901	-0.135	0.128
-133.370	-182.637	0.264	0.005
-132.356	-70.397	0.102	0.038
-131.341	-134.377	-0.255	-0.031
-130.326	-70.825	0.103	-0.038
-129.312	800.000	-0.058	-0.169
-128.297	-151.788	0.339	0.025
-127.283	45.869	-0.095	0.087
-126.268	-34.618	0.194	-0.105
-125.253	65.621	0.121	0.121
-124.239	-94.374	-0.218	-0.059
-123.224	-150.830	-0.109	0.008
-122.210	-58.091	0.229	0.098
-121.195	800.000	-0.036	-0.122
-120.180	-200.000	-0.001	0.028
-119.166	-78.858	0.095	0.032
-118.151	-200.000	0.006	0.152
-117.137	-200.000	0.015	0.157
-116.122	-95.652	0.363	0.096
-115.107	-162.906	0.167	0.008
-114.093	-82.580	0.251	-0.080
-113.078	296.166	-0.064	-0.117
-112.064	-200.000	0.009	-0.174
-111.049	67.512	0.159	-0.160
-110.034	-12.763	-0.122	-0.079
-109.020	69.391	0.133	0.135
-108.005	85.293	0.111	0.120
-106.991	-200.000	0.025	-0.236
-105.976	369.291	0.080	0.160
-104.962	-20.770	-0.185	-0.112
-103.947	479.397	0.064	0.142
-102.932	31.038	0.268	0.227
-101.918	-85.326	-0.304	0.094
-100.903	-182.333	0.251	-0.005
-99.889	2.548	0.177	-0.127
-98.874	55.695	0.264	0.252
-97.859	5.122	0.355	-0.258
-96.845	-200.000	0.027	-0.188
-95.830	-200.000	0.055	0.360
-94.816	-200.000	0.041	-0.232
-93.801	107.895	0.210	-0.246
-92.786	-26.460	0.282	0.163
-91.772	-24.915	-0.274	-0.160
-90.757	-2.487	0.015	-0.011
-89.743	431.933	0.092	-0.197
-88.728	14.191	0.182	-0.140
-87.713	-7.181	-0.192	-0.128
-86.699	-51.058	0.223	0.103
-85.684	240.071	0.381	0.625
-84.670	-102.090	0.219	0.052
-83.655	-111.875	0.786	-0.156
-82.640	-200.000	-0.019	0.415
-81.626	142.540	0.031	0.041
-80.611	251.457	-0.217	0.363
-79.597	-186.496	0.259	0.004
-78.582	196.282	0.135	0.203
-77.567	-70.220	0.203	-0.076
-76.553	-129.536	-0.268	-0.036
-75.538	-200.000	0.050	-0.284
-74.524	-5.410	0.221	-0.149
-73.509	800.000	0.034	0.139
-72.494	-146.218	0.115	-0.010
-71.480	68.878	0.072	-0.073
-70.465	-200.000	0.020	-0.198
-69.451	-16.669	0.149	0.093
-68.436	6.887	0.181	0.132
-67.422	800.000	0.040	-0.111
-66.407	-25.926	-0.125	-0.072
-65.392	-86.111	0.749	-0.228
-64.378	-27.086	-0.165	-0.095
-63.363	432.393	-0.070	-0.150
-62.349	-143.198	0.157	0.015
-61.334	596.602	-0.494	-1.205
-60.319	-200.000	0.094	0.746
-59.305	424.410	-0.445	-0.943
-58.290	210.393	0.708	1.094
-57.276	699.083	0.730	1.891
-56.261	-200.000	95.811	592.527
-55.246	541.422	1399.542	3282.529
-54.232	156.894	2579.486	3508.955
-53.217	111.566	2183.843	2593.016
-52.203	42.330	1718.591	1537.460
-51.188	34.587	1528.195	1314.028
-50.173	32.145	1501.548	1274.522
-49.159	52.081	1550.274	1453.679
-48.144	53.516	1567.360	1479.527
-47.130	34.856	1528.037	1315.534
-46.115	31.689	1513.736	1281.539
-45.100	31.464	1510.252	1277.002
-44.086	31.400	1508.131	1274.726
-43.071	31.430	1506.020	1273.091
-42.057	31.336	1504.747	1271.329
-41.042	31.339	1503.319	1270.093
-40.027	31.409	1501.423	1268.911
-39.013	31.290	1500.232	1267.051
-37.998	31.319	1498.959	1266.117
-36.984	31.355	1497.687	1265.240
-35.969	31.395	1496.274	1264.268
-34.954	31.412	1494.884	1263.159
-33.940	31.426	1493.566	1262.088
-32.925	31.311	1492.280	1260.171
-31.911	31.392	1491.207	1259.762
-30.896	31.484	1489.361	1258.777
-29.881	31.504	1488.404	1258.049
-28.867	31.483	1487.003	1256.676
-27.852	31.361	1485.516	1254.550
-26.838	31.407	1484.181	1253.682
-25.823	31.508	1482.646	1253.009
-24.809	31.552	1480.117	1251.116
-23.794	31.507	1479.100	1249.906
-22.779	31.466	1478.104	1248.745
-21.765	31.448	1477.160	1247.773
-20.750	31.378	1476.342	1246.566
-19.736	31.306	1474.972	1244.881
-18.721	31.241	1474.324	1243.852
-17.706	31.334	1473.165	1243.446
-16.692	31.371	1471.592	1242.315
-15.677	31.342	1470.648	1241.274
-14.663	31.333	1469.261	1239.996
-13.648	31.320	1468.475	1239.196
-12.633	31.313	1467.693	1238.442
-11.619	31.330	1466.930	1237.859
-10.604	31.366	1466.171	1237.409
-9.590	31.311	1465.042	1236.042
-8.575	31.267	1464.080	1234.889
-7.560	31.418	1462.940	1234.878
-6.546	31.391	1462.317	1234.128
-5.531	31.351	1461.202	1232.871
-4.517	31.319	1460.449	1231.974
-3.502	31.369	1458.995	1231.027
-2.487	31.221	1458.560	1229.640
-1.473	31.156	1457.818	1228.534
-0.458	31.315	1455.930	1227.945
0.556	30.041	1446.749	1218.483
1.571	27.578	1421.880	1181.487
2.586	24.403	1360.620	1110.751
3.600	22.278	1277.870	1030.669
4.615	20.912	1232.634	986.371
5.629	18.137	1175.671	925.701
6.644	9.225	1089.399	812.798
7.659	1.791	1047.412	745.145
8.673	0.589	1041.715	735.178
9.688	0.498	1038.597	732.468
10.702	0.347	1037.217	730.702
11.717	0.356	1035.392	729.392
12.731	3.136	1038.105	744.712
13.746	11.550	1050.078	794.295
14.761	17.348	1056.883	827.668
15.775	17.622	1055.892	828.153
16.790	16.754	1053.722	822.167
17.804	15.648	1051.623	815.093
18.819	14.869	1049.701	809.762
19.834	14.358	1048.275	806.115
20.848	14.177	1047.115	804.280
21.863	13.837	1046.829	802.345
22.877	13.681	1045.902	800.809
23.892	13.451	1044.859	798.830
24.907	13.295	1044.274	797.560
25.921	13.322	1043.378	796.934
26.936	13.388	1043.033	796.919
27.950	13.441	1042.262	796.514
28.965	13.433	1041.309	795.676
29.980	13.495	1040.603	795.367
30.994	13.486	1039.668	794.539
32.009	13.536	1039.019	794.209
33.023	13.597	1038.293	793.875
34.038	13.605	1037.382	793.150
35.053	13.408	1036.642	791.569
36.067	13.540	1035.374	791.162
37.082	13.507	1034.622	790.360
38.096	13.524	1033.979	789.879
39.111	13.644	1032.783	789.470
40.126	13.549	1031.999	788.347
41.140	13.547	1031.100	787.579
42.155	13.386	1030.211	786.068
43.169	13.380	1029.488	785.418
44.184	13.225	1028.738	784.041
45.199	13.283	1027.144	783.032
46.213	13.337	1026.462	782.699
47.228	13.352	1025.427	781.908
48.242	13.280	1024.681	780.933
49.257	13.364	1023.690	780.504
50.271	13.494	1022.768	780.344
51.286	13.540	1021.785	779.743
52.301	13.509	1021.437	779.262
53.315	13.407	1020.471	777.979
54.330	13.406	1019.581	777.223
55.344	13.368	1018.952	776.499
56.359	13.397	1017.699	775.608
57.374	13.399	1017.300	775.246
58.388	13.378	1016.247	774.277
59.403	13.437	1015.195	773.682
60.417	13.393	1014.150	772.612
61.432	13.286	1014.088	771.999
62.447	13.329	1013.076	771.359
63.461	13.213	1012.156	770.050
64.476	13.226	1011.330	769.413
65.490	13.244	1010.531	768.824
66.505	13.148	1009.875	767.809
67.520	13.276	1008.901	767.597
68.534	13.279	1008.103	766.936
69.549	13.327	1007.402	766.553
70.563	13.255	1006.846	765.733
71.578	13.261	1006.195	765.194
72.593	13.329	1005.150	764.647
73.607	13.174	1003.894	762.910
74.622	13.240	1003.585	762.910
75.636	13.247	1002.256	761.867
76.651	13.219	1001.399	761.020
77.666	13.212	1001.148	760.730
78.680	13.387	1000.091	760.664
79.695	13.273	999.879	759.911
80.709	13.213	999.082	758.963
81.724	13.321	998.597	759.019
82.739	13.366	997.194	758.093
83.753	13.352	996.748	757.626
84.768	13.416	996.100	757.356
85.782	13.523	995.129	757.043
86.797	13.489	994.409	756.272
87.812	13.495	993.645	755.650
88.826	13.422	993.146	754.871
89.841	13.508	991.810	754.180
90.855	13.538	990.817	753.493
91.870	13.487	990.247	752.763
92.884	13.529	989.562	752.367
93.899	13.578	988.981	752.081
94.914	13.579	988.079	751.332
95.928	13.551	987.608	750.780
96.943	13.575	987.144	750.471
97.957	13.552	986.237	749.609
98.972	13.568	985.202	748.832
99.987	13.604	984.721	748.562
101.001	13.606	983.810	747.813
102.016	13.684	982.794	747.325
103.030	13.482	982.184	745.886
104.045	13.506	981.300	745.257
105.060	13.655	980.206	745.026
106.074	13.458	979.297	743.385
107.089	13.461	978.625	742.825
108.103	13.568	977.144	742.112
109.118	13.368	976.749	740.854
110.133	13.383	975.707	740.061
111.147	13.379	975.110	739.526
112.162	13.387	974.356	738.927
113.176	13.412	973.318	738.187
114.191	13.414	972.622	737.601
115.206	13.399	971.945	736.955
116.220	13.496	970.746	736.414
117.235	13.530	970.055	735.976
118.249	13.409	969.500	734.950
119.264	13.476	968.108	734.127
120.279	13.440	966.919	733.003
121.293	13.432	966.685	732.724
122.308	13.459	965.655	731.998
123.322	13.332	965.100	730.951
124.337	13.311	963.987	729.951
125.352	13.262	963.003	728.924
126.366	13.460	961.403	728.519
127.381	13.379	960.632	727.516
128.395	13.433	959.601	726.907
129.410	13.321	958.903	725.822
130.424	13.425	957.812	725.387
131.439	13.315	957.110	724.314
132.454	13.417	956.423	724.173
133.468	13.536	955.406	723.862
134.483	13.494	955.123	723.400
135.497	13.512	953.976	722.544
136.512	13.456	953.429	721.820
137.527	13.558	952.307	721.353
138.541	13.433	951.861	720.408
139.556	13.334	951.295	719.485
140.570	13.611	950.120	719.734
141.585	13.523	949.686	718.962
142.600	13.594	948.578	718.367
143.614	13.535	947.917	717.546
144.629	13.631	947.186	717.345
145.643	13.794	946.189	717.232
146.658	13.759	945.541	716.523
147.673	13.625	944.898	715.396
148.687	13.641	943.648	714.457
149.702	13.414	943.301	713.151
150.716	13.553	942.309	712.934
151.731	13.494	941.477	711.989
152.746	13.525	940.920	711.639
153.760	13.581	940.200	711.271
154.775	13.559	939.573	710.638
155.789	13.655	938.729	710.352
156.804	13.705	937.951	709.916
157.819	13.542	936.863	708.331
158.833	13.676	936.456	708.530
159.848	13.760	935.651	708.218
160.862	13.775	935.118	707.816
161.877	13.636	934.496	706.689
162.892	13.555	933.765	705.730
163.906	13.631	932.363	704.933
164.921	13.640	931.973	704.613
165.935	13.538	931.467	703.733
166.950	13.732	929.962	703.357
167.964	13.631	929.648	702.631
168.979	13.687	928.288	701.779
169.994	13.581	927.015	700.303
171.008	13.650	926.312	700.002
172.023	13.629	925.597	699.314
173.037	13.869	924.373	699.337
174.052	13.814	923.603	698.462
175.067	13.834	923.470	698.384
176.081	13.754	922.560	697.296
177.096	13.587	921.545	695.764
178.110	13.725	921.029	695.895
179.125	13.782	919.680	695.051
180.140	13.791	919.259	694.710
181.154	13.870	918.489	694.396
182.169	13.821	918.245	693.945
183.183	13.805	917.661	693.379
184.198	13.859	917.039	693.071
185.213	13.911	916.008	692.449
186.227	13.888	915.507	691.911
187.242	13.964	914.977	691.765
188.256	13.945	914.121	690.979
189.271	14.077	913.158	690.737
190.286	13.984	912.724	689.965
191.300	14.071	911.464	689.311
192.315	13.836	911.234	688.101
193.329	13.774	910.673	687.359
194.344	13.728	909.985	686.588
195.359	13.861	909.030	686.359
196.373	13.825	908.770	685.952
197.388	14.063	908.281	686.504
198.402	14.054	907.682	685.955
199.417	14.127	907.117	685.767
200.432	14.241	906.511	685.718
201.446	14.314	906.359	685.842
202.461	14.157	905.878	684.771
203.475	14.320	905.330	684.969
204.490	14.214	904.692	683.991
205.504	14.208	903.854	683.270
206.519	14.278	902.911	682.782
207.534	14.125	902.073	681.464
208.548	14.027	901.840	680.826
209.563	14.086	900.996	680.370
210.577	14.119	900.312	679.927
211.592	14.195	899.544	679.598
212.607	14.301	899.198	679.708
213.621	14.350	898.499	679.320
214.636	14.364	897.812	678.800
215.650	14.416	897.080	678.397
216.665	14.352	896.645	677.747
217.680	14.375	896.138	677.398
218.694	14.336	895.697	676.845
219.709	14.398	895.164	676.635
220.723	14.399	894.776	676.283
221.738	14.499	893.523	675.684
222.753	14.521	892.551	674.979
223.767	14.433	892.058	674.191
224.782	14.520	891.270	673.885
225.796	14.517	890.799	673.458
226.811	14.647	890.120	673.411
227.826	14.529	889.613	672.489
228.840	14.339	889.016	671.216
229.855	14.343	888.597	670.856
230.869	14.542	887.605	670.846
231.884	14.530	886.694	670.053
232.899	14.449	886.663	669.644
233.913	14.527	885.528	669.038
234.928	14.478	884.856	668.277
235.942	14.429	884.151	667.487
236.957	14.520	883.525	667.322
237.972	14.353	883.173	666.328
238.986	14.510	882.296	666.234
240.001	14.636	881.917	666.393
241.015	14.529	881.251	665.401
242.030	14.449	880.888	664.753
243.045	14.670	879.514	664.535
244.059	14.676	879.073	664.168
245.074	14.639	878.439	663.483
246.088	14.795	878.043	663.745
247.103	14.706	877.678	663.054
248.117	14.715	876.844	662.402
249.132	14.920	876.268	662.721
250.147	14.784	875.800	661.772
251.161	14.890	875.084	661.590
252.176	15.024	874.164	661.366
253.190	14.973	873.591	660.675
254.205	15.107	872.705	660.471
255.220	15.094	872.346	660.090
256.234	14.953	871.743	659.022
257.249	15.079	870.859	658.790
258.263	15.182	870.588	658.932
259.278	15.084	870.052	658.083
260.293	15.216	869.335	658.000
261.307	15.149	869.120	657.516
262.322	15.238	868.095	657.030
263.336	15.139	867.795	656.360
264.351	15.256	867.301	656.387
265.366	15.320	866.568	656.023
266.380	15.234	865.557	654.864
267.395	15.350	865.152	654.951
268.409	15.264	864.532	654.089
269.424	15.326	863.564	653.542
270.439	15.285	862.923	652.838
271.453	15.216	862.555	652.235
272.468	15.291	861.407	651.598
273.482	15.161	861.390	651.025
274.497	15.304	860.565	650.897
275.512	15.220	860.053	650.128
276.526	15.334	859.174	649.847
277.541	15.275	858.334	648.928
278.555	15.310	857.913	648.685
279.570	15.307	857.346	648.188
280.585	15.453	856.758	648.249
281.599	15.392	856.310	647.618
282.614	15.370	855.505	646.869
283.628	15.423	855.060	646.676
284.643	15.446	854.571	646.339
285.657	15.483	854.319	646.235
286.672	15.572	853.047	645.557
287.687	15.594	852.498	645.167
288.701	15.435	852.782	644.714
289.716	15.565	852.157	644.683
290.730	15.530	851.397	643.917
291.745	15.456	850.898	643.202
292.760	15.663	850.059	643.300
293.774	15.583	849.209	642.294
294.789	15.532	849.089	641.951
295.803	15.549	848.395	641.435
296.818	15.595	847.727	641.052
297.833	15.473	847.412	640.289
298.847	15.667	846.596	640.356
299.862	15.652	845.529	639.437
300.876	15.727	844.993	639.257
301.891	15.659	844.620	638.662
302.906	15.795	843.853	638.542
303.920	15.645	843.513	637.657
304.935	15.767	842.947	637.638
305.949	15.869	842.109	637.333
306.964	15.803	841.465	636.539
307.979	15.817	840.764	636.005
308.993	15.742	840.627	635.560
310.008	16.006	839.476	635.629
311.022	15.877	839.507	635.111
312.037	15.882	838.927	634.636
313.052	15.950	838.110	634.217
314.066	15.994	837.221	633.654
315.081	15.878	837.011	633.002
316.095	15.840	836.418	632.355
317.110	15.907	835.933	632.186
318.125	15.895	835.483	631.742
319.139	15.928	834.948	631.408
320.154	15.988	834.118	630.946
321.168	15.868	833.779	630.187
322.183	15.928	833.442	630.101
323.197	15.933	832.781	629.563
324.212	15.946	832.455	629.310
325.227	16.059	831.576	629.013
326.241	16.046	831.371	628.754
327.256	16.027	830.451	627.930
328.270	15.878	830.217	627.141
329.285	16.027	829.324	626.966
330.300	16.036	828.913	626.634
331.314	15.952	828.918	626.270
332.329	16.026	827.668	625.547
333.343	16.050	827.105	625.153
334.358	16.096	826.662	624.933
335.373	16.079	825.936	624.265
336.387	16.110	825.403	623.924
337.402	16.107	825.514	623.939
338.416	16.094	825.033	623.473
339.431	16.264	823.922	623.207
340.446	16.274	823.286	622.708
341.460	16.200	823.048	622.199
342.475	16.438	822.408	622.536
343.489	16.516	821.559	622.127
344.504	16.326	821.326	621.195
345.519	16.388	821.119	621.215
346.533	16.475	820.366	620.906
347.548	16.534	819.600	620.490
348.562	16.325	819.401	619.517
349.577	16.427	818.502	619.157
350.592	16.253	818.189	618.229
351.606	16.358	817.714	618.198
352.621	16.282	817.790	617.922
353.635	16.339	817.024	617.497
354.650	16.323	816.542	617.019
355.665	16.294	816.176	616.585
356.679	16.459	815.321	616.485
357.694	16.638	814.825	616.707
358.708	16.664	814.025	616.143
359.723	16.662	813.553	615.723
360.738	16.589	812.859	614.879
361.752	16.456	812.853	614.334
362.767	16.541	812.690	614.466
363.781	16.729	811.707	614.353
364.796	16.735	811.335	614.037
365.810	16.722	810.879	613.593
366.825	16.828	810.633	613.735
367.840	16.792	810.293	613.292
368.854	16.791	810.100	613.089
369.869	16.901	809.239	612.781
370.883	16.624	808.967	611.517
371.898	16.766	808.342	611.506
372.913	17.008	807.278	611.518
373.927	16.758	807.229	610.526
374.942	16.801	806.535	610.103
375.956	16.959	805.718	609.997
376.971	17.054	805.284	609.958
377.986	16.907	804.810	609.017
379.000	16.939	804.662	608.967
380.015	16.938	803.836	608.282
381.029	17.008	803.659	608.347
382.044	16.988	803.079	607.783
383.059	17.008	802.162	607.107
384.073	17.048	801.481	606.680
385.088	17.100	801.068	606.500
386.102	17.016	800.645	605.824
387.117	16.911	800.166	605.034
388.132	16.932	799.960	604.900
389.146	17.040	799.339	604.761
390.161	16.977	798.996	604.225
391.175	17.055	798.851	604.338
392.190	17.110	798.387	604.130
393.205	17.153	797.684	603.698
394.219	17.173	797.140	603.305
395.234	17.079	796.913	602.745
396.248	17.156	796.415	602.588
397.263	17.090	795.710	601.767
398.278	17.030	795.371	601.245
399.292	16.994	795.034	600.809
400.307	17.021	794.356	600.339
401.321	17.165	794.291	600.747
402.336	17.093	793.771	600.044
403.350	17.194	793.313	600.002
404.365	17.154	792.927	599.518
405.380	17.297	792.161	599.387
406.394	17.305	791.854	599.130
407.409	17.351	791.513	598.982
408.423	17.439	790.865	598.749
409.438	17.562	789.984	598.462
410.453	17.434	789.918	597.910
411.467	17.452	789.456	597.569
412.482	17.547	788.867	597.404
413.496	17.597	788.807	597.482
414.511	17.312	788.827	596.442
415.526	17.598	787.876	596.672
416.540	17.587	787.593	596.367
417.555	17.512	787.278	595.813
418.569	17.570	786.527	595.396
419.584	17.625	786.112	595.221
420.599	17.733	785.569	595.133
421.613	108.087	1287.210	1460.926
422.628	92.621	1360.274	1461.051
