DTS Sentinel unit serial number:	SN413079Multiplexer serial number:	ORYXHardware model number:	OX4-SRSoftware version number:	ORYX F/W v4.00 Oryx Data Collector v3.7.2.0data status	okinstallation	princeton_trtdifferential loss correction	single-endedforward channel	channel 3reverse channel	N/Adate	2019/09/19time	11:28:34forward acquisition time	60.00reverse acquisition time	0.00gamma	496.2192k internal	0.2342k external	0.2342temperature offset calibration	0.9984default loss term (dB/km)	0.3790temperature slope calibration	1.0000multiplexer offset coefficient	1.0000multiplexer slope coefficient	1.0000fibre end	0.00T internal ref (°C)	25.37T ext. ref 1 (°C)	0.79T ext. ref 2 (°C)	21.18length (m)	temperature (°C)	Stokes	anti-Stokes-747.200	68.706	-0.249	-0.256
-746.185	50.047	-0.291	0.275
-745.171	56.133	-0.215	-0.209
-744.156	800.000	0.051	0.180
-743.142	776.814	0.123	0.336
-742.127	51.282	-0.202	0.192
-741.112	218.537	-0.141	0.226
-740.098	32.274	-0.103	0.089
-739.083	-200.000	0.032	-0.147
-738.069	-68.835	-0.107	0.042
-737.054	3.502	-0.190	-0.139
-736.039	-11.884	-0.207	-0.136
-735.025	-22.009	0.349	-0.213
-734.010	800.000	0.025	0.087
-732.996	-19.389	-0.114	-0.071
-731.981	122.285	-0.180	-0.225
-730.966	698.444	-0.136	-0.358
-729.952	800.000	-0.032	0.140
-728.937	800.000	-0.091	0.353
-727.923	-122.110	-0.125	-0.020
-726.908	120.511	-0.228	0.283
-725.894	-12.612	-0.184	0.120
-724.879	-200.000	0.009	-0.133
-723.864	64.904	-0.130	-0.132
-722.850	-53.360	-0.334	0.153
-721.835	90.675	-0.087	0.098
-720.821	-85.756	0.490	-0.152
-719.806	87.597	-0.124	-0.137
-718.791	-200.000	-0.016	-0.265
-717.777	43.216	0.062	0.057
-716.762	231.724	-0.106	0.174
-715.748	337.302	-0.095	-0.185
-714.733	29.569	-0.037	0.032
-713.718	92.378	-0.132	-0.149
-712.704	-41.948	-0.079	0.040
-711.689	314.972	-0.133	-0.250
-710.675	-59.893	-0.354	-0.152
-709.660	-79.026	-0.212	-0.072
-708.645	30.899	0.251	0.215
-707.631	-126.049	0.200	-0.030
-706.616	760.971	-0.056	-0.151
-705.602	-87.661	0.412	0.124
-704.587	-97.011	0.159	0.042
-703.572	2.630	0.112	-0.081
-702.558	12.358	-0.381	0.293
-701.543	800.000	0.092	0.363
-700.529	-57.321	0.183	0.080
-699.514	-48.415	-0.318	-0.153
-698.499	-200.000	-0.005	-0.206
-697.485	-11.535	0.274	0.180
-696.470	800.000	0.079	-0.258
-695.456	-73.849	0.301	0.109
-694.441	-25.953	-0.159	-0.094
-693.426	-16.483	0.210	-0.133
-692.412	78.546	-0.150	0.160
-691.397	-200.000	0.042	0.192
-690.383	540.741	-0.063	-0.149
-689.368	-128.942	-0.524	0.074
-688.354	27.885	-0.225	0.189
-687.339	-200.000	0.026	0.133
-686.324	-114.794	-0.092	0.018
-685.310	39.625	-0.041	0.037
-684.295	-26.047	-0.173	-0.101
-683.281	-200.000	0.024	-0.365
-682.266	26.337	0.124	0.103
-681.251	-24.433	-0.094	0.056
-680.237	201.071	0.179	0.276
-679.222	-134.094	-0.235	-0.029
-678.208	-116.577	-0.135	-0.025
-677.193	-30.245	-0.217	-0.123
-676.178	-191.981	-0.368	-0.004
-675.164	-107.519	0.254	0.056
-674.149	-200.000	0.013	-0.309
-673.135	24.141	-0.099	-0.081
-672.120	-108.584	-0.399	-0.086
-671.105	-7.883	-0.339	-0.229
-670.091	800.000	0.137	-0.499
-669.076	358.354	0.133	-0.265
-668.062	146.889	-0.112	-0.150
-667.047	160.876	-0.203	-0.283
-666.032	800.000	0.090	-0.266
-665.018	2.251	0.104	0.075
-664.003	-127.616	0.152	-0.022
-662.989	201.241	0.214	-0.330
-661.974	404.605	0.103	-0.216
-660.959	-129.524	-0.274	0.038
-659.945	99.200	0.174	0.200
-658.930	-168.923	-0.166	-0.006
-657.916	7.637	0.355	-0.265
-656.901	-200.000	0.012	0.291
-655.886	-14.883	-0.176	0.113
-654.872	-107.428	0.302	-0.066
-653.857	800.000	0.117	-0.449
-652.843	396.438	0.158	0.330
-651.828	-200.000	-0.007	0.052
-650.814	-19.217	0.166	-0.103
-649.799	106.272	-0.120	-0.142
-648.784	-200.000	0.009	-0.179
-647.770	674.029	-0.003	0.009
-646.755	-32.231	-0.141	-0.079
-645.741	-200.000	0.002	0.055
-644.726	-43.742	0.151	0.076
-643.711	19.125	0.209	0.168
-642.697	800.000	-0.121	-0.400
-641.682	-200.000	-0.081	-0.476
-640.668	800.000	0.028	0.118
-639.653	-43.177	0.370	-0.187
-638.638	-200.000	-0.044	-0.325
-637.624	-48.417	0.431	-0.207
-636.609	25.530	0.185	0.154
-635.595	474.060	-0.087	0.195
-634.580	-200.000	0.056	-0.520
-633.565	5.824	0.087	-0.065
-632.551	800.000	-0.082	-0.228
-631.536	98.386	0.227	-0.261
-630.522	102.670	0.060	-0.070
-629.507	604.341	0.107	-0.266
-628.492	102.163	0.075	0.088
-627.478	161.172	0.042	0.058
-626.463	-200.000	0.011	-0.201
-625.449	800.000	0.030	0.087
-624.434	94.282	0.041	0.047
-623.419	-57.743	-0.329	0.143
-622.405	-55.320	0.141	0.063
-621.390	59.653	0.212	0.209
-620.376	-105.769	0.205	-0.046
-619.361	-200.000	-0.062	-0.385
-618.346	-89.310	0.173	0.051
-617.332	-92.853	-0.274	-0.076
-616.317	174.778	-0.040	-0.058
-615.303	-200.000	0.009	-0.335
-614.288	-67.213	0.070	0.027
-613.273	85.563	-0.074	-0.081
-612.259	544.755	0.100	-0.238
-611.244	300.371	-0.073	0.135
-610.230	29.044	-0.277	0.234
-609.215	308.765	-0.155	-0.289
-608.201	-79.178	0.211	0.071
-607.186	135.415	0.190	-0.246
-606.171	133.598	0.129	-0.166
-605.157	-64.203	0.241	0.098
-604.142	800.000	-0.035	-0.148
-603.128	2.850	0.298	0.215
-602.113	800.000	-0.111	-0.355
-601.098	19.009	-0.159	-0.127
-600.084	57.983	-0.245	-0.239
-599.069	27.363	-0.212	-0.177
-598.055	-200.000	-0.011	-0.180
-597.040	216.918	-0.110	-0.174
-596.025	-156.928	0.401	0.024
-595.011	113.647	-0.036	-0.043
-593.996	378.230	0.045	-0.092
-592.982	-130.527	0.193	0.026
-591.967	209.171	-0.104	0.163
-590.952	-200.000	-0.011	-0.168
-589.938	709.236	-0.044	-0.117
-588.923	18.812	-0.148	-0.118
-587.909	20.670	-0.100	0.081
-586.894	-200.000	0.009	0.070
-585.879	3.642	-0.229	-0.166
-584.865	-200.000	0.002	-0.143
-583.850	-135.172	-0.243	-0.029
-582.836	27.751	-0.266	-0.223
-581.821	-54.188	-0.129	-0.058
-580.806	-120.413	0.053	-0.009
-579.792	800.000	-0.022	-0.071
-578.777	-121.221	0.348	0.058
-577.763	-54.816	-0.316	-0.142
-576.748	-46.143	0.415	0.203
-575.733	-137.951	-0.379	0.042
-574.719	-190.449	-0.014	-0.000
-573.704	267.315	0.072	0.125
-572.690	-38.966	-0.122	0.064
-571.675	-71.044	0.124	-0.046
-570.661	-200.000	-0.005	0.200
-569.646	246.966	0.158	-0.265
-568.631	77.438	0.105	0.111
-567.617	173.796	0.050	0.072
-566.602	35.072	0.140	-0.122
-565.588	800.000	0.053	-0.226
-564.573	-19.643	-0.341	0.210
-563.558	383.443	0.086	-0.176
-562.544	-76.840	-0.338	0.118
-561.529	33.417	0.080	0.069
-560.515	21.248	0.145	0.117
-559.500	186.709	-0.100	0.148
-558.485	252.880	0.042	-0.072
-557.471	25.181	0.147	-0.121
-556.456	800.000	-0.031	0.093
-555.442	763.711	-0.113	-0.306
-554.427	-200.000	-0.007	0.362
-553.412	-11.724	0.064	0.042
-552.398	800.000	-0.025	0.092
-551.383	11.969	0.163	-0.124
-550.369	-112.583	-0.445	0.088
-549.354	81.038	-0.254	0.272
-548.339	800.000	-0.066	0.215
-547.325	115.596	0.154	-0.187
-546.310	800.000	-0.040	-0.160
-545.296	-35.982	0.108	-0.058
-544.281	-174.671	-0.021	0.001
-543.266	-109.129	0.352	0.074
-542.252	142.674	0.219	-0.289
-541.237	-29.836	-0.204	-0.116
-540.223	101.124	0.040	0.047
-539.208	800.000	0.046	-0.144
-538.193	800.000	0.096	-0.327
-537.179	149.774	-0.085	-0.114
-536.164	68.835	-0.157	-0.160
-535.150	-200.000	0.036	-0.208
-534.135	193.970	0.173	0.261
-533.121	14.625	-0.148	0.115
-532.106	-31.552	0.130	0.073
-531.091	159.206	-0.262	-0.362
-530.077	-142.254	-0.059	0.006
-529.062	800.000	0.093	-0.274
-528.048	113.680	-0.228	-0.276
-527.033	176.465	-0.171	0.247
-526.018	187.855	-0.137	0.204
-525.004	-200.000	0.028	0.448
-523.989	-200.000	-0.007	-0.069
-522.975	-138.763	-0.055	0.006
-521.960	-129.362	-0.403	-0.056
-520.945	339.434	-0.155	-0.301
-519.931	784.428	0.018	-0.050
-518.916	-45.112	0.243	-0.120
-517.902	121.075	0.071	-0.087
-516.887	97.274	-0.146	0.166
-515.872	-200.000	0.022	-0.288
-514.858	-61.534	0.198	-0.082
-513.843	245.140	0.126	0.211
-512.829	-7.105	0.256	-0.172
-511.814	-93.593	0.321	0.088
-510.799	563.822	0.061	0.147
-509.785	-24.761	-0.120	-0.071
-508.770	80.746	0.248	0.266
-507.756	133.825	0.067	0.087
-506.741	-68.867	-0.089	0.034
-505.726	-101.501	-0.250	-0.060
-504.712	-61.026	-0.355	-0.149
-503.697	-58.895	0.427	-0.183
-502.683	85.186	-0.059	0.064
-501.668	192.221	-0.064	-0.096
-500.653	800.000	-0.065	0.266
-499.639	149.075	0.071	0.096
-498.624	412.938	0.112	0.235
-497.610	-130.354	-0.368	-0.050
-496.595	123.706	-0.306	0.381
-495.581	65.481	-0.088	-0.089
-494.566	299.441	0.089	-0.163
-493.551	-185.865	-0.362	-0.005
-492.537	800.000	-0.062	-0.209
-491.522	370.146	-0.150	0.302
-490.508	96.816	-0.105	0.119
-489.493	-96.103	-0.222	0.059
-488.478	-200.000	0.000	-0.059
-487.464	-27.409	0.163	-0.094
-486.449	162.856	-0.141	0.197
-485.435	-151.722	-0.270	-0.020
-484.420	-148.261	0.138	0.011
-483.405	-57.126	-0.166	-0.073
-482.391	-82.933	-0.437	-0.140
-481.376	112.274	-0.220	-0.264
-480.362	-200.000	0.032	0.213
-479.347	-200.000	0.039	0.189
-478.332	141.389	0.100	0.131
-477.318	112.708	0.104	0.125
-476.303	-200.000	-0.033	0.159
-475.289	-79.662	0.291	0.097
-474.274	-83.811	-0.139	0.044
-473.259	522.241	0.113	0.264
-472.245	-200.000	-0.028	-0.135
-471.230	-142.809	-0.152	-0.015
-470.216	116.799	-0.215	0.261
-469.201	-198.099	-0.101	0.001
-468.186	194.408	0.114	0.171
-467.172	-138.248	-0.356	-0.039
-466.157	-9.511	-0.038	-0.025
-465.143	407.642	0.100	0.210
-464.128	-200.000	0.045	0.372
-463.113	800.000	0.040	-0.138
-462.099	-196.950	-0.231	-0.001
-461.084	50.055	0.198	0.185
-460.070	66.363	0.126	0.127
-459.055	-123.116	-0.225	-0.036
-458.040	543.936	0.081	0.191
-457.026	-71.899	-0.086	0.032
-456.011	-200.000	0.022	-0.131
-454.997	-165.132	0.274	0.012
-453.982	380.412	0.101	0.205
-452.968	-76.519	0.201	0.070
-451.953	-200.000	0.044	-0.259
-450.938	-74.208	0.078	0.028
-449.924	800.000	-0.110	-0.383
-448.909	-200.000	0.011	0.199
-447.895	254.253	-0.178	0.301
-446.880	53.972	-0.097	0.093
-445.865	-200.000	0.034	-0.330
-444.851	44.025	-0.116	0.106
-443.836	-200.000	-0.015	-0.326
-442.822	405.225	-0.225	0.470
-441.807	-19.749	-0.105	0.064
-440.792	800.000	0.051	0.139
-439.778	-28.087	0.096	0.055
-438.763	289.361	0.019	-0.034
-437.749	-200.000	-0.009	0.052
-436.734	-69.945	0.209	-0.079
-435.719	133.863	-0.177	0.227
-434.705	-49.588	0.262	0.123
-433.690	229.901	-0.221	0.358
-432.676	-9.857	-0.143	0.094
-431.661	460.583	0.125	0.275
-430.646	-200.000	-0.016	-0.241
-429.632	26.175	0.226	-0.186
-428.617	-71.310	-0.205	-0.076
-427.603	-200.000	0.047	0.372
-426.588	-200.000	0.001	0.182
-425.573	-85.581	-0.055	0.017
-424.559	-200.000	0.045	0.383
-423.544	79.167	-0.201	0.213
-422.530	-135.531	0.337	0.040
-421.515	-200.000	0.007	0.050
-420.500	192.090	-0.087	-0.130
-419.486	-200.000	-0.007	0.221
-418.471	-75.392	-0.254	0.089
-417.457	537.368	-0.101	-0.238
-416.442	13.031	-0.374	-0.287
-415.428	28.950	-0.117	0.098
-414.413	800.000	0.036	0.104
-413.398	-200.000	-0.004	-0.302
-412.384	96.530	0.204	-0.231
-411.369	-18.968	0.202	0.124
-410.355	384.251	0.137	-0.280
-409.340	202.423	0.059	0.091
-408.325	-45.703	0.277	-0.135
-407.311	202.001	0.337	-0.514
-406.296	-125.445	0.229	0.035
-405.282	-200.000	-0.051	-0.259
-404.267	75.625	0.230	-0.240
-403.252	-131.757	-0.469	-0.061
-402.238	316.356	0.116	0.216
-401.223	-78.485	-0.146	0.049
-400.209	-200.000	0.014	-0.244
-399.194	8.850	-0.127	-0.095
-398.179	382.850	-0.136	-0.277
-397.165	-102.927	0.028	0.007
-396.150	-6.817	0.196	-0.132
-395.136	-63.610	0.081	0.033
-394.121	26.745	-0.386	-0.320
-393.106	-134.626	-0.257	-0.031
-392.092	12.336	-0.178	-0.136
-391.077	42.743	0.161	0.145
-390.063	-200.000	-0.085	0.428
-389.048	-200.000	-0.002	0.139
-388.033	-200.000	-0.030	-0.163
-387.019	-6.126	-0.230	-0.155
-386.004	-74.856	-0.209	0.074
-384.990	-51.110	-0.183	0.085
-383.975	108.275	-0.300	-0.354
-382.960	-65.277	0.346	-0.138
-381.946	-67.181	0.080	-0.031
-380.931	514.274	0.186	-0.428
-379.917	111.619	-0.136	-0.162
-378.902	-200.000	0.024	-0.167
-377.888	223.497	-0.228	0.363
-376.873	-200.000	-0.005	0.087
-375.858	21.189	-0.134	0.107
-374.844	-36.375	-0.215	0.115
-373.829	567.301	0.127	-0.303
-372.815	670.571	-0.048	-0.122
-371.800	-50.064	0.273	-0.128
-370.785	267.724	0.312	-0.539
-369.771	-43.231	0.125	-0.063
-368.756	-28.965	0.441	-0.250
-367.742	473.473	0.118	0.262
-366.727	-102.362	0.101	-0.024
-365.712	-88.899	-0.393	-0.115
-364.698	-200.000	0.011	-0.058
-363.683	-200.000	0.012	0.097
-362.669	22.680	-0.132	0.107
-361.654	60.202	-0.059	-0.057
-360.639	-63.130	0.307	-0.125
-359.625	-129.322	0.396	0.054
-358.610	800.000	-0.034	0.136
-357.596	58.265	-0.394	0.381
-356.581	82.837	0.213	0.229
-355.566	-33.435	0.133	0.072
-354.552	-38.375	-0.087	0.046
-353.537	-75.352	0.365	0.129
-352.523	800.000	-0.032	-0.135
-351.508	-119.244	0.090	0.015
-350.493	243.197	-0.094	-0.156
-349.479	-21.344	-0.175	0.105
-348.464	-200.000	0.002	0.192
-347.450	-119.478	0.037	-0.006
-346.435	-7.479	-0.030	0.020
-345.420	472.501	-0.035	-0.077
-344.406	231.491	-0.098	-0.158
-343.391	111.689	-0.166	0.197
-342.377	366.209	0.073	-0.145
-341.362	360.331	-0.081	-0.160
-340.348	-119.736	-0.213	0.036
-339.333	800.000	-0.101	0.332
-338.318	800.000	0.061	0.247
-337.304	474.094	-0.052	-0.116
-336.289	-92.886	-0.111	-0.031
-335.275	-88.304	-0.313	-0.092
-334.260	-0.982	-0.054	-0.038
-333.245	-96.386	-0.077	0.020
-332.231	95.678	0.148	0.166
-331.216	-174.724	-0.095	0.003
-330.202	102.016	-0.113	-0.129
-329.187	480.097	-0.072	0.161
-328.172	-200.000	-0.010	-0.080
-327.158	-66.436	0.141	0.055
-326.143	-16.140	0.144	-0.090
-325.129	-93.926	0.099	-0.027
-324.114	-200.000	0.036	-0.166
-323.099	-179.226	0.108	0.002
-322.085	-34.855	-0.335	0.180
-321.070	-200.000	0.018	-0.087
-320.056	-105.342	-0.366	-0.082
-319.041	171.971	-0.127	-0.179
-318.026	-55.659	0.151	0.067
-317.012	209.674	-0.049	-0.075
-315.997	-200.000	0.038	0.251
-314.983	800.000	0.064	0.189
-313.968	493.283	0.121	0.273
-312.953	-200.000	-0.018	0.096
-311.939	800.000	-0.043	0.140
-310.924	-122.554	0.260	-0.042
-309.910	55.559	-0.262	0.250
-308.895	-96.173	0.310	0.081
-307.880	29.672	0.016	0.013
-306.866	-71.987	-0.145	0.053
-305.851	800.000	-0.011	0.041
-304.837	-69.952	0.452	-0.170
-303.822	-133.520	-0.174	-0.022
-302.807	-133.220	0.162	-0.020
-301.793	340.324	0.141	-0.271
-300.778	-84.981	0.134	-0.041
-299.764	-200.000	0.002	0.061
-298.749	-200.000	-0.005	0.226
-297.735	77.144	0.483	0.505
-296.720	-18.026	-0.207	0.128
-295.705	129.995	0.155	-0.195
-294.691	-104.556	-0.092	-0.021
-293.676	-200.000	-0.011	-0.096
-292.662	-93.249	-0.209	0.057
-291.647	-5.466	-0.065	-0.044
-290.632	-115.011	-0.066	0.012
-289.618	-42.950	-0.399	-0.199
-288.603	-152.269	0.165	-0.012
-287.589	-160.143	0.219	0.012
-286.574	-43.975	0.146	0.072
-285.559	-94.540	-0.128	0.034
-284.545	-151.597	0.114	-0.008
-283.530	-114.988	-0.079	-0.015
-282.516	800.000	0.055	0.152
-281.501	-200.000	0.000	0.147
-280.486	-200.000	0.029	0.398
-279.472	800.000	0.035	-0.118
-278.457	104.708	-0.087	0.101
-277.443	37.965	0.174	0.152
-276.428	289.908	0.124	-0.222
-275.413	69.183	0.357	0.361
-274.399	-54.468	-0.159	0.071
-273.384	82.945	-0.111	0.119
-272.370	-200.000	0.007	-0.179
-271.355	800.000	0.122	-0.425
-270.340	-104.556	0.095	0.021
-269.326	248.819	-0.127	0.212
-268.311	-72.964	0.190	-0.069
-267.297	-128.218	0.161	0.023
-266.282	-200.000	0.004	-0.161
-265.267	457.598	-0.049	0.108
-264.253	-156.008	-0.352	-0.022
-263.238	-72.682	-0.243	-0.088
-262.224	8.101	0.173	0.128
-261.209	-200.000	-0.012	0.095
-260.195	-50.629	0.341	0.158
-259.180	161.458	0.112	-0.154
-258.165	-200.000	0.015	0.416
-257.151	800.000	-0.062	-0.248
-256.136	-156.521	0.260	-0.016
-255.122	87.342	0.204	-0.221
-254.107	781.557	-0.159	-0.428
-253.092	800.000	-0.040	0.136
-252.078	-53.830	0.204	-0.091
-251.063	361.251	-0.089	-0.175
-250.049	800.000	0.089	-0.255
-249.034	126.168	0.013	-0.016
-248.019	-86.743	0.036	0.011
-247.005	-134.949	0.086	-0.010
-245.990	800.000	0.056	-0.178
-244.976	469.921	0.144	0.317
-243.961	-134.840	0.052	0.006
-242.946	36.261	-0.220	0.190
-241.932	-103.706	0.093	0.021
-240.917	-173.643	0.076	0.002
-239.903	390.486	-0.216	-0.441
-238.888	301.942	-0.111	0.201
-237.873	143.058	-0.073	-0.096
-236.859	800.000	0.046	0.174
-235.844	391.886	-0.077	-0.156
-234.830	-132.343	0.185	0.023
-233.815	-200.000	0.029	0.332
-232.800	84.617	0.381	0.410
-231.786	3.999	-0.023	0.016
-230.771	-132.838	-0.147	0.018
-229.757	-106.828	-0.079	0.017
-228.742	-135.176	0.435	-0.051
-227.727	-200.000	-0.027	0.209
-226.713	-200.000	0.002	0.335
-225.698	377.290	-0.098	0.196
-224.684	-200.000	0.024	-0.183
-223.669	-137.824	0.281	-0.031
-222.655	-200.000	0.063	0.387
-221.640	693.446	-0.058	0.150
-220.625	-75.306	0.105	-0.037
-219.611	800.000	-0.035	-0.146
-218.596	800.000	0.019	0.058
-217.582	800.000	-0.031	-0.124
-216.567	46.953	-0.189	0.173
-215.552	800.000	-0.016	-0.048
-214.538	63.517	0.256	0.252
-213.523	47.483	0.107	-0.098
-212.509	800.000	0.118	-0.365
-211.494	269.794	-0.038	-0.065
-210.479	102.201	-0.221	-0.253
-209.465	-76.821	0.280	0.096
-208.450	-200.000	0.056	0.258
-207.436	800.000	-0.037	0.126
-206.421	557.648	-0.038	-0.089
-205.406	-29.033	-0.306	-0.172
-204.392	200.256	0.076	0.115
-203.377	195.363	-0.172	-0.257
-202.363	-61.397	0.257	0.106
-201.348	51.829	0.231	0.215
-200.333	800.000	0.042	0.124
-199.319	-0.606	-0.065	-0.045
-198.304	-200.000	-0.005	-0.160
-197.290	-150.099	0.241	0.018
-196.275	92.491	-0.128	0.141
-195.260	-200.000	-0.001	-0.076
-194.246	51.359	0.093	0.087
-193.231	-98.290	-0.151	0.038
-192.217	25.500	0.079	0.065
-191.202	69.488	0.165	0.167
-190.187	575.590	0.064	0.153
-189.173	-143.354	-0.351	-0.033
-188.158	3.216	0.133	0.095
-187.144	-147.835	-0.266	0.022
-186.129	-38.968	0.187	0.097
-185.114	-200.000	0.023	0.251
-184.100	-131.892	0.587	-0.075
-183.085	-200.000	-0.021	-0.176
-182.071	-1.375	-0.339	0.234
-181.056	800.000	-0.080	-0.275
-180.042	152.855	-0.057	0.076
-179.027	-43.589	0.099	0.049
-178.012	158.790	-0.114	0.156
-176.998	800.000	0.068	0.219
-175.983	117.212	-0.161	-0.194
-174.969	124.571	0.116	0.143
-173.954	30.965	-0.174	-0.147
-172.939	-69.981	0.204	-0.076
-171.925	173.941	-0.113	-0.160
-170.910	-140.183	-0.169	-0.017
-169.896	-107.830	0.155	-0.033
-168.881	800.000	-0.091	0.258
-167.866	351.494	0.038	-0.074
-166.852	-0.086	-0.105	0.073
-165.837	-124.456	0.682	0.104
-164.823	800.000	-0.034	0.112
-163.808	189.313	-0.114	0.168
-162.793	-86.647	0.217	0.065
-161.779	-200.000	-0.010	0.093
-160.764	-61.219	0.212	0.087
-159.750	-1.921	-0.121	-0.083
-158.735	168.995	0.065	0.091
-157.720	-71.607	-0.557	-0.204
-156.706	-200.000	0.011	0.132
-155.691	-149.144	-0.193	-0.015
-154.677	800.000	-0.072	-0.196
-153.662	375.674	-0.140	0.280
-152.647	109.195	-0.199	0.233
-151.633	-2.545	-0.141	0.097
-150.618	-200.000	0.017	0.144
-149.604	181.790	-0.123	-0.177
-148.589	-200.000	0.040	-0.190
-147.574	800.000	0.107	0.396
-146.560	-76.414	0.147	0.051
-145.545	-77.167	0.383	-0.131
-144.531	800.000	-0.018	-0.060
-143.516	413.582	-0.137	0.286
-142.502	-40.570	-0.148	0.075
-141.487	-79.828	-0.150	-0.049
-140.472	98.302	-0.166	0.187
-139.458	-87.557	0.082	0.024
-138.443	-50.797	-0.109	-0.050
-137.429	18.471	0.251	0.196
-136.414	-64.756	0.300	-0.119
-135.399	-47.966	-0.093	-0.044
-134.385	248.435	-0.118	0.195
-133.370	-52.381	0.208	0.094
-132.356	154.938	0.161	0.217
-131.341	-23.754	-0.150	-0.088
-130.326	38.438	-0.048	-0.042
-129.312	-185.379	0.128	0.002
-128.297	-200.000	0.010	-0.359
-127.283	373.881	0.160	-0.319
-126.268	-167.570	0.163	0.006
-125.253	245.608	0.116	0.190
-124.239	-200.000	-0.023	0.141
-123.224	-159.683	0.349	-0.019
-122.210	154.766	-0.072	-0.097
-121.195	800.000	-0.087	0.328
-120.180	800.000	0.077	0.238
-119.166	122.036	0.278	-0.340
-118.151	-164.915	0.258	0.011
-117.137	-4.034	0.047	-0.032
-116.122	31.554	-0.039	0.032
-115.107	241.130	-0.142	0.231
-114.093	-78.068	0.238	0.080
-113.078	-200.000	-0.035	0.155
-112.064	774.842	-0.068	-0.183
-111.049	800.000	-0.097	0.276
-110.034	-11.987	0.302	0.193
-109.020	80.025	-0.203	0.213
-108.005	-200.000	0.064	0.382
-106.991	327.533	-0.076	-0.142
-105.976	-42.269	-0.039	-0.020
-104.962	-1.596	0.116	-0.080
-103.947	-156.745	0.138	-0.008
-102.932	-76.930	0.232	-0.079
-101.918	48.846	-0.081	-0.074
-100.903	-16.442	0.249	-0.154
-99.889	-200.000	-0.015	-0.074
-98.874	-129.413	0.079	-0.011
-97.859	31.784	0.113	0.095
-96.845	-91.860	-0.234	0.065
-95.830	-123.252	0.041	-0.006
-94.816	473.821	-0.047	-0.103
-93.801	-169.038	-0.476	-0.017
-92.786	-200.000	-0.022	-0.186
-91.772	800.000	-0.023	-0.077
-90.757	78.049	-0.115	-0.120
-89.743	201.901	0.104	-0.157
-88.728	527.940	-0.112	0.258
-87.713	-75.722	0.171	-0.059
-86.699	800.000	0.050	-0.200
-85.684	-58.663	-0.135	-0.057
-84.670	143.094	0.208	-0.271
-83.655	148.653	-0.248	-0.327
-82.640	166.322	-0.131	0.181
-81.626	169.355	0.235	-0.328
-80.611	-200.000	-0.015	0.285
-79.597	-107.099	0.167	-0.036
-78.582	279.361	0.030	0.053
-77.567	248.658	0.143	0.237
-76.553	-200.000	0.006	0.199
-75.538	21.822	0.159	-0.126
-74.524	-83.429	-0.177	0.055
-73.509	800.000	0.096	-0.294
-72.494	-38.465	0.122	0.063
-71.480	-200.000	0.035	0.278
-70.465	-200.000	0.054	-0.249
-69.451	10.547	-0.182	-0.136
-68.436	-200.000	-0.025	0.148
-67.422	-109.043	0.190	0.040
-66.407	253.338	-0.164	-0.274
-65.392	-200.000	-0.020	0.210
-64.378	-84.390	-0.355	0.110
-63.363	-141.819	0.208	-0.020
-62.349	-87.190	0.211	0.063
-61.334	49.105	-1.255	-1.150
-60.319	54.392	0.537	0.505
-59.305	263.396	-0.626	-1.060
-58.290	288.751	0.759	1.342
-57.276	324.137	0.937	1.745
-56.261	-200.000	119.657	617.584
-55.246	390.462	1572.135	3180.343
-54.232	139.756	2750.302	3533.213
-53.217	95.832	2211.581	2462.322
-52.203	35.921	1722.967	1478.048
-51.188	28.521	1536.395	1267.042
-50.173	26.286	1511.970	1231.637
-49.159	48.606	1576.400	1440.501
-48.144	46.970	1589.679	1441.175
-47.130	28.521	1543.031	1272.316
-46.115	25.619	1527.486	1239.484
-45.100	25.426	1523.986	1235.271
-44.086	25.392	1521.795	1233.213
-43.071	25.338	1520.050	1231.374
-42.057	25.300	1518.700	1229.972
-41.042	25.294	1517.180	1228.656
-40.027	25.400	1515.158	1227.689
-39.013	25.336	1513.405	1225.783
-37.998	25.251	1512.840	1224.697
-36.984	25.260	1511.933	1223.977
-35.969	25.371	1510.234	1223.310
-34.954	25.347	1508.743	1221.888
-33.940	25.358	1507.125	1220.604
-32.925	25.411	1506.175	1220.151
-31.911	25.319	1504.382	1218.026
-30.896	25.377	1503.329	1217.517
-29.881	25.372	1502.300	1216.603
-28.867	25.486	1500.180	1215.609
-27.852	25.380	1499.542	1214.322
-26.838	25.443	1497.620	1213.146
-25.823	25.391	1496.430	1211.782
-24.809	25.379	1494.175	1209.826
-23.794	25.432	1493.349	1209.471
-22.779	25.418	1491.876	1208.130
-21.765	25.516	1490.700	1207.792
-20.750	25.410	1489.712	1206.233
-19.736	25.437	1488.928	1205.728
-18.721	25.407	1487.632	1204.428
-17.706	25.452	1486.794	1204.007
-16.692	25.410	1485.690	1202.784
-15.677	25.388	1485.141	1202.145
-14.663	25.377	1484.242	1201.296
-13.648	25.357	1483.233	1200.299
-12.633	25.338	1482.281	1199.351
-11.619	25.319	1481.284	1198.371
-10.604	25.409	1480.193	1198.038
-9.590	25.354	1479.530	1197.088
-8.575	25.321	1478.539	1196.018
-7.560	25.346	1477.463	1195.268
-6.546	25.428	1476.494	1194.984
-5.531	25.390	1475.600	1193.957
-4.517	25.382	1474.837	1193.243
-3.502	25.275	1473.963	1191.777
-2.487	25.459	1472.492	1191.759
-1.473	25.329	1472.138	1190.567
-0.458	25.418	1470.577	1189.843
0.556	24.479	1460.951	1179.570
1.571	21.572	1436.619	1140.907
2.586	18.379	1372.726	1070.150
3.600	16.836	1287.290	994.408
4.615	15.697	1243.701	954.193
5.629	13.895	1186.575	900.517
6.644	7.297	1102.365	803.193
7.659	1.738	1064.492	748.271
8.673	0.853	1059.396	740.297
9.688	0.742	1055.605	737.041
10.702	0.830	1054.509	736.637
11.717	0.745	1052.604	734.828
12.731	2.954	1054.172	746.601
13.746	9.710	1063.211	785.963
14.761	15.382	1070.363	818.941
15.775	17.165	1071.833	828.699
16.790	17.016	1070.514	826.879
17.804	16.051	1068.486	820.545
18.819	15.185	1066.730	814.914
19.834	14.641	1065.167	811.005
20.848	14.336	1064.436	808.894
21.863	14.158	1063.921	807.566
22.877	13.946	1062.725	805.560
23.892	13.734	1061.759	803.732
24.907	13.526	1061.142	802.185
25.921	13.639	1059.973	801.777
26.936	13.598	1059.725	801.320
27.950	13.814	1058.392	801.284
28.965	13.771	1058.110	800.793
29.980	13.806	1057.156	800.169
30.994	13.802	1055.988	799.193
32.009	13.832	1055.493	798.891
33.023	13.883	1054.655	798.435
34.038	13.853	1053.808	797.579
35.053	13.850	1052.757	796.696
36.067	13.805	1051.798	795.685
37.082	13.788	1050.982	794.914
38.096	13.883	1050.713	795.098
39.111	13.717	1050.027	793.713
40.126	13.919	1048.754	793.647
41.140	13.666	1047.937	791.747
42.155	13.544	1047.166	790.511
43.169	13.733	1045.468	790.062
44.184	13.726	1044.626	789.323
45.199	13.583	1043.844	787.983
46.213	13.661	1042.695	787.415
47.228	13.622	1041.558	786.302
48.242	13.750	1040.262	785.862
49.257	13.718	1039.965	785.417
50.271	13.669	1038.502	784.010
51.286	13.652	1037.723	783.274
52.301	13.710	1037.267	783.130
53.315	13.820	1036.229	782.799
54.330	13.721	1035.484	781.697
55.344	13.884	1034.085	781.339
56.359	13.645	1033.826	779.952
57.374	13.699	1032.941	779.469
58.388	13.742	1032.061	778.938
59.403	13.745	1031.091	778.152
60.417	13.641	1030.533	777.173
61.432	13.596	1030.363	776.764
62.447	13.693	1028.866	776.021
63.461	13.647	1028.384	775.374
64.476	13.688	1026.938	774.408
65.490	13.593	1026.702	773.717
66.505	13.717	1025.228	773.117
67.520	13.546	1025.171	772.208
68.534	13.674	1024.051	771.890
69.549	13.767	1023.157	771.581
70.563	13.700	1022.299	770.557
71.578	13.704	1021.951	770.242
72.593	13.698	1020.889	769.348
73.607	13.586	1020.012	768.101
74.622	13.614	1019.217	767.563
75.636	13.595	1018.159	766.608
76.651	13.650	1017.077	765.982
77.666	13.640	1016.502	765.435
78.680	13.613	1015.931	764.811
79.695	13.650	1015.741	764.772
80.709	13.678	1014.813	764.134
81.724	13.663	1013.953	763.350
82.739	13.708	1013.132	762.874
83.753	13.688	1012.350	762.122
84.768	13.653	1011.707	761.413
85.782	13.695	1011.016	761.016
86.797	13.789	1010.357	760.886
87.812	13.868	1009.289	760.375
88.826	13.748	1008.294	759.007
89.841	13.833	1007.683	758.871
90.855	13.728	1007.169	757.938
91.870	13.817	1005.984	757.386
92.884	13.768	1005.534	756.754
93.899	13.834	1004.621	756.301
94.914	13.927	1003.755	756.008
95.928	13.826	1003.399	755.212
96.943	13.992	1002.570	755.273
97.957	13.856	1001.896	754.081
98.972	13.880	1000.991	753.443
99.987	13.883	1000.469	752.998
101.001	13.803	999.421	751.779
102.016	13.945	998.516	751.676
103.030	13.847	997.598	750.473
104.045	13.856	996.491	749.617
105.060	14.057	995.204	749.489
106.074	13.805	994.643	747.863
107.089	13.769	993.932	747.099
108.103	13.704	993.098	746.114
109.118	13.795	991.952	745.596
110.133	13.784	991.321	745.008
111.147	13.859	990.409	744.591
112.162	13.847	989.519	743.806
113.176	13.809	988.536	742.831
114.191	13.890	987.880	742.632
115.206	13.861	986.805	741.629
116.220	13.705	986.313	740.496
117.235	13.837	985.109	740.118
118.249	13.849	984.830	739.896
119.264	13.825	983.326	738.594
120.279	13.949	982.615	738.547
121.293	13.827	981.948	737.434
122.308	13.746	981.581	736.737
123.322	13.893	980.636	736.613
124.337	13.912	979.125	735.499
125.352	13.777	978.510	734.374
126.366	13.749	977.222	733.217
127.381	13.760	976.116	732.373
128.395	13.805	975.493	732.036
129.410	13.809	974.476	731.226
130.424	13.800	973.391	730.307
131.439	13.858	972.579	729.889
132.454	13.995	971.520	729.632
133.468	13.730	971.463	728.360
134.483	13.808	970.247	727.729
135.497	13.796	969.928	727.371
136.512	13.817	968.757	726.520
137.527	13.781	968.052	725.769
138.541	13.857	967.207	725.406
139.556	13.740	966.701	724.451
140.570	13.996	965.370	724.506
141.585	13.753	965.065	723.153
142.600	13.941	964.233	723.286
143.614	13.943	963.248	722.490
144.629	14.011	962.592	722.231
145.643	14.001	961.666	721.428
146.658	13.958	960.822	720.542
147.673	13.970	960.244	720.098
148.687	13.945	959.114	719.078
149.702	13.990	958.003	718.378
150.716	14.055	957.251	718.030
151.731	13.794	956.886	716.565
152.746	14.076	955.962	717.027
153.760	13.965	955.211	715.922
154.775	13.969	954.104	715.045
155.789	14.067	953.576	715.009
156.804	14.099	952.964	714.623
157.819	14.139	951.704	713.788
158.833	14.137	951.390	713.479
159.848	14.171	950.609	712.978
160.862	14.165	949.866	712.332
161.877	14.173	948.937	711.607
162.892	14.104	948.248	710.731
163.906	14.192	947.217	710.271
164.921	14.097	946.620	709.357
165.935	14.058	946.085	708.724
166.950	14.152	944.900	708.174
167.964	14.036	944.098	707.018
168.979	14.222	943.077	706.980
169.994	14.155	941.932	705.778
171.008	14.031	941.364	704.764
172.023	14.124	940.559	704.493
173.037	14.203	939.684	704.107
174.052	14.251	939.023	703.752
175.067	14.312	938.070	703.236
176.081	14.261	937.382	702.443
177.096	14.131	936.830	701.417
178.110	14.079	935.711	700.297
179.125	14.222	934.978	700.288
180.140	14.199	934.344	699.655
181.154	14.155	933.656	698.895
182.169	14.283	933.069	698.929
183.183	14.260	932.243	698.153
184.198	14.307	931.497	697.729
185.213	14.368	930.883	697.463
186.227	14.353	930.403	696.980
187.242	14.347	929.727	696.387
188.256	14.329	929.012	695.712
189.271	14.466	928.309	695.697
190.286	14.423	927.526	694.869
191.300	14.393	926.556	693.959
192.315	14.240	926.239	693.020
193.329	14.386	925.301	692.863
194.344	14.282	925.000	692.147
195.359	14.298	924.566	691.826
196.373	14.378	923.896	691.594
197.388	14.528	923.243	691.666
198.402	14.421	922.789	690.822
199.417	14.490	922.349	690.720
200.432	14.555	921.662	690.414
201.446	14.739	921.230	690.787
202.461	14.580	920.995	689.893
203.475	14.667	920.038	689.475
204.490	14.739	919.668	689.433
205.504	14.622	918.633	688.113
206.519	14.643	918.023	687.684
207.534	14.782	916.730	687.226
208.548	14.599	916.683	686.375
209.563	14.586	915.914	685.687
210.577	14.520	914.946	684.630
211.592	14.619	913.966	684.245
212.607	14.665	913.881	684.309
213.621	14.645	913.127	683.599
214.636	14.894	912.061	683.760
215.650	14.755	911.431	682.661
216.665	14.858	911.034	682.721
217.680	14.697	911.035	682.006
218.694	14.873	910.189	682.030
219.709	14.857	909.999	681.761
220.723	14.797	909.216	680.871
221.738	14.955	907.959	680.510
222.753	14.814	907.436	679.485
223.767	14.830	906.535	678.815
224.782	14.869	905.641	678.245
225.796	15.005	904.880	678.168
226.811	14.828	904.959	677.448
227.826	15.049	903.716	677.351
228.840	15.094	902.940	676.891
229.855	15.083	902.665	676.583
230.869	15.003	901.899	675.625
231.884	14.901	901.010	674.489
232.899	15.041	900.400	674.535
233.913	14.974	899.805	673.759
234.928	14.910	899.073	672.896
235.942	15.105	898.350	673.077
236.957	14.960	897.643	671.906
237.972	15.051	897.109	671.812
238.986	15.041	896.345	671.140
240.001	14.998	895.630	670.374
241.015	15.046	895.342	670.292
242.030	15.090	894.318	669.642
243.045	15.124	893.447	669.065
244.059	15.004	893.053	668.232
245.074	15.096	892.359	668.020
246.088	15.139	892.156	667.981
247.103	15.213	891.406	667.658
248.117	15.167	890.723	666.904
249.132	15.276	889.996	666.733
250.147	15.418	889.365	666.764
251.161	15.419	888.603	666.140
252.176	15.179	888.750	665.237
253.190	15.431	887.080	664.925
254.205	15.507	886.783	664.948
255.220	15.364	886.335	663.986
256.234	15.490	885.275	663.631
257.249	15.534	884.738	663.341
258.263	15.449	884.496	662.768
259.278	15.539	884.090	662.758
260.293	15.629	883.052	662.278
261.307	15.538	882.579	661.505
262.322	15.480	882.528	661.181
263.336	15.602	881.634	660.931
264.351	15.613	880.922	660.384
265.366	15.739	880.119	660.220
266.380	15.564	879.630	659.107
267.395	15.630	878.879	658.743
268.409	15.745	878.021	658.493
269.424	15.655	877.271	657.518
270.439	15.715	876.779	657.328
271.453	15.626	876.112	656.421
272.468	15.698	875.103	655.887
273.482	15.587	874.639	655.050
274.497	15.706	874.479	655.337
275.512	15.746	872.970	654.304
276.526	15.869	872.549	654.409
277.541	15.772	871.983	653.548
278.555	15.870	871.351	653.396
279.570	15.765	870.788	652.509
280.585	15.904	870.031	652.424
281.599	15.975	869.361	652.139
282.614	15.844	869.337	651.555
283.628	15.731	868.816	650.668
284.643	15.788	867.996	650.217
285.657	15.931	867.526	650.361
286.672	15.895	866.940	649.727
287.687	15.830	866.519	649.102
288.701	15.909	866.082	649.022
289.716	15.881	865.265	648.242
290.730	15.767	865.236	647.727
291.745	16.017	864.267	647.903
292.760	15.972	863.272	646.928
293.774	16.063	862.422	646.583
294.789	16.129	861.982	646.449
295.803	16.095	861.735	646.077
296.818	16.007	861.052	645.169
297.833	16.040	860.210	644.608
298.847	16.069	859.132	643.854
299.862	16.178	858.617	643.829
300.876	16.129	858.121	643.210
301.891	16.144	857.612	642.832
302.906	16.243	856.868	642.595
303.920	16.350	855.954	642.256
304.935	16.291	855.417	641.573
305.949	16.202	854.917	640.805
306.964	16.399	854.103	640.883
307.979	16.395	853.826	640.605
308.993	16.336	853.149	639.818
310.008	16.377	852.432	639.378
311.022	16.447	852.304	639.489
312.037	16.350	851.648	638.576
313.052	16.368	850.990	638.093
314.066	16.325	850.496	637.502
315.081	16.292	850.023	636.966
316.095	16.437	849.392	636.986
317.110	16.298	848.755	635.929
318.125	16.306	848.520	635.726
319.139	16.468	847.610	635.596
320.154	16.297	847.381	634.727
321.168	16.409	846.353	634.319
322.183	16.439	845.940	634.065
323.197	16.503	845.617	634.007
324.212	16.485	845.091	633.491
325.227	16.385	844.422	632.559
326.241	16.473	844.052	632.556
327.256	16.571	843.304	632.306
328.270	16.490	842.788	631.560
329.285	16.471	842.111	630.924
330.300	16.527	841.586	630.686
331.314	16.532	841.077	630.265
332.329	16.503	840.524	629.689
333.343	16.551	839.864	629.316
334.358	16.480	839.643	628.831
335.373	16.484	839.199	628.458
336.387	16.670	838.016	628.206
337.402	16.545	837.708	627.456
338.416	16.675	837.250	627.540
339.431	16.767	836.655	627.381
340.446	16.704	836.115	626.684
341.460	16.744	835.185	626.083
342.475	16.804	834.821	625.976
343.489	16.808	834.528	625.715
344.504	16.846	833.799	625.253
345.519	16.949	833.356	625.245
346.533	16.904	832.867	624.656
347.548	16.898	832.310	624.160
348.562	16.992	831.731	624.018
349.577	16.965	830.887	623.230
350.592	16.960	830.540	622.896
351.606	16.790	830.286	622.026
352.621	16.815	829.986	621.838
353.635	16.896	829.277	621.549
354.650	16.867	828.693	620.949
355.665	16.927	828.349	620.857
356.679	17.061	827.947	620.992
357.694	16.997	827.295	620.216
358.708	16.961	827.009	619.814
359.723	17.033	826.194	619.411
360.738	17.099	825.543	619.108
361.752	17.128	825.332	618.999
362.767	17.139	824.840	618.616
363.781	17.221	824.478	618.590
364.796	17.044	824.133	617.631
365.810	17.209	823.173	617.455
366.825	17.110	823.140	617.016
367.840	17.267	822.673	617.182
368.854	17.285	822.127	616.783
369.869	17.201	821.946	616.290
370.883	17.190	821.389	615.778
371.898	17.380	820.471	615.722
372.913	17.457	819.618	615.305
373.927	17.340	819.461	614.709
374.942	17.452	818.388	614.256
375.956	17.389	818.332	613.931
376.971	17.315	817.832	613.235
377.986	17.367	817.124	612.839
379.000	17.557	816.497	612.996
380.015	17.519	816.165	612.557
381.029	17.514	815.916	612.298
382.044	17.433	815.100	611.342
383.059	17.433	814.325	610.704
384.073	17.466	814.066	610.574
385.088	17.580	813.012	610.140
386.102	17.491	813.057	609.800
387.117	17.641	812.158	609.610
388.132	17.556	812.206	609.289
389.146	17.491	811.932	608.794
390.161	17.535	811.284	608.410
391.175	17.679	810.503	608.287
392.190	17.624	810.202	607.812
393.205	17.553	810.174	607.483
394.219	17.405	809.871	606.675
395.234	17.517	809.125	606.461
396.248	17.587	808.463	606.159
397.263	17.619	807.663	605.618
398.278	17.537	807.498	605.150
399.292	17.603	807.262	605.156
400.307	17.595	807.002	604.880
401.321	17.506	806.213	603.917
402.336	17.741	805.724	604.332
403.350	17.789	805.205	604.060
404.365	17.719	805.119	603.691
405.380	17.714	804.822	603.400
406.394	17.730	804.174	602.916
407.409	17.743	803.911	602.710
408.423	17.849	803.331	602.599
409.438	17.995	802.605	602.514
410.453	17.791	802.237	601.466
411.467	17.913	801.712	601.449
412.482	17.947	801.144	601.089
413.496	18.030	800.614	600.929
414.511	17.777	800.873	600.181
415.526	18.047	800.355	600.689
416.540	18.018	800.085	600.332
417.555	18.093	799.339	599.983
418.569	18.047	798.749	599.326
419.584	18.093	798.347	599.129
420.599	18.083	797.905	598.711
421.613	114.524	1296.197	1485.872
422.628	98.739	1368.771	1485.963
