DTS Sentinel unit serial number:	SN413079Multiplexer serial number:	ORYXHardware model number:	OX4-SRSoftware version number:	ORYX F/W v4.00 Oryx Data Collector v3.7.2.0data status	okinstallation	princeton_trtdifferential loss correction	single-endedforward channel	channel 3reverse channel	N/Adate	2019/09/11time	04:50:10forward acquisition time	60.00reverse acquisition time	0.00gamma	496.2192k internal	0.2330k external	0.2330temperature offset calibration	0.9911default loss term (dB/km)	0.3790temperature slope calibration	1.0000multiplexer offset coefficient	1.0000multiplexer slope coefficient	1.0000fibre end	0.00T internal ref (°C)	29.50T ext. ref 1 (°C)	-0.26T ext. ref 2 (°C)	23.34length (m)	temperature (°C)	Stokes	anti-Stokes-747.200	141.039	0.184	-0.245
-746.185	800.000	-0.063	-0.218
-745.171	-97.368	0.514	-0.135
-744.156	38.414	0.322	0.289
-743.142	36.733	0.032	0.028
-742.127	-200.000	-0.036	0.226
-741.112	800.000	-0.055	0.187
-740.098	800.000	0.083	0.244
-739.083	-93.426	0.036	-0.010
-738.069	-91.869	0.211	0.060
-737.054	-81.122	-0.352	-0.117
-736.039	-136.288	0.170	-0.020
-735.025	24.854	0.138	0.115
-734.010	800.000	0.114	-0.381
-732.996	48.653	-0.105	0.099
-731.981	-171.785	-0.159	0.005
-730.966	-56.357	0.455	0.203
-729.952	-186.843	-0.163	0.002
-728.937	142.849	-0.088	-0.118
-727.923	-23.325	0.125	0.076
-726.908	-122.615	-0.272	-0.044
-725.894	-173.564	-0.435	-0.013
-724.879	-84.329	0.331	-0.105
-723.864	-200.000	0.019	-0.150
-722.850	-200.000	0.008	-0.157
-721.835	750.951	-0.058	-0.158
-720.821	172.638	0.122	0.177
-719.806	83.420	-0.121	-0.133
-718.791	72.354	0.165	0.173
-717.777	-1.195	0.256	-0.182
-716.762	-36.845	-0.446	-0.241
-715.748	-200.000	0.016	-0.152
-714.733	454.903	-0.092	-0.204
-713.718	717.933	-0.009	-0.024
-712.704	-88.816	0.153	-0.046
-711.689	-8.305	-0.222	-0.150
-710.675	259.804	0.174	0.302
-709.660	-97.778	0.418	0.109
-708.645	106.620	0.188	-0.224
-707.631	-200.000	0.024	0.134
-706.616	-200.000	0.002	-0.074
-705.602	-200.000	-0.007	0.157
-704.587	-151.509	0.263	0.020
-703.572	-200.000	0.265	-0.001
-702.558	800.000	0.064	-0.238
-701.543	-200.000	0.059	-0.346
-700.529	-77.048	0.114	-0.040
-699.514	319.615	0.284	-0.542
-698.499	41.925	0.179	-0.163
-697.485	84.755	0.303	0.333
-696.470	-57.466	0.096	-0.042
-695.456	-113.076	0.320	0.063
-694.441	-15.803	-0.123	-0.079
-693.426	800.000	-0.074	-0.249
-692.412	800.000	-0.007	0.028
-691.397	-162.840	-0.217	-0.011
-690.383	-2.778	-0.144	-0.101
-689.368	-62.597	-0.412	-0.172
-688.354	237.682	-0.009	-0.015
-687.339	139.152	0.043	-0.057
-686.324	646.107	0.080	0.206
-685.310	35.411	0.118	0.104
-684.295	130.930	0.179	0.231
-683.281	800.000	0.040	0.127
-682.266	-23.760	0.135	0.081
-681.251	141.595	0.149	-0.199
-680.237	129.255	0.025	-0.032
-679.222	223.805	0.070	-0.114
-678.208	262.540	0.085	-0.148
-677.193	113.753	-0.131	-0.160
-676.178	-60.915	0.251	0.107
-675.164	-200.000	0.000	-0.125
-674.149	68.350	0.125	-0.128
-673.135	-176.977	-0.162	-0.004
-672.120	-59.547	0.301	-0.130
-671.105	-127.135	-0.441	0.065
-670.091	379.431	0.036	-0.073
-669.076	-32.681	-0.262	0.146
-668.062	285.829	0.205	0.371
-667.047	-141.391	-0.202	0.021
-666.032	80.959	0.211	-0.229
-665.018	-95.639	0.300	0.081
-664.003	2.974	-0.354	-0.258
-662.989	-38.035	0.224	-0.119
-661.974	-123.023	-0.080	0.013
-660.959	25.729	-0.210	0.176
-659.945	-120.609	0.100	0.017
-658.930	26.435	-0.065	0.055
-657.916	76.097	0.013	0.014
-656.901	251.484	-0.050	-0.085
-655.886	37.982	-0.149	-0.133
-654.872	-137.193	0.220	-0.025
-653.857	-46.497	0.106	-0.052
-652.843	752.873	0.062	-0.169
-651.828	-123.135	-0.061	0.010
-650.814	490.888	0.096	0.220
-649.799	800.000	-0.050	-0.170
-648.784	-73.077	-0.121	-0.044
-647.770	769.125	-0.098	-0.269
-646.755	-80.548	0.338	-0.113
-645.741	800.000	0.059	-0.189
-644.726	-79.482	0.268	0.091
-643.711	-166.083	0.324	0.014
-642.697	-2.300	0.193	-0.135
-641.682	800.000	0.097	0.300
-640.668	-200.000	-0.047	-0.216
-639.653	68.369	0.157	-0.162
-638.638	-200.000	-0.037	0.402
-637.624	-62.288	0.201	-0.084
-636.609	-47.268	0.108	0.053
-635.595	-103.608	0.109	0.026
-634.580	-110.065	-0.394	-0.083
-633.565	-114.501	-0.234	0.045
-632.551	52.283	0.258	0.246
-631.536	-41.143	-0.241	-0.125
-630.522	-127.474	0.039	0.006
-629.507	-67.621	0.147	-0.058
-628.492	-47.923	0.152	-0.074
-627.478	800.000	0.043	-0.135
-626.463	-17.714	-0.260	-0.164
-625.449	43.746	0.032	-0.029
-624.434	30.883	-0.185	-0.159
-623.419	-126.734	0.356	0.053
-622.405	-20.475	-0.064	0.040
-621.390	208.038	-0.086	-0.134
-620.376	-50.063	-0.406	0.193
-619.361	-19.558	-0.079	-0.049
-618.346	-97.450	-0.171	0.045
-617.332	36.669	0.151	0.134
-616.317	-132.824	-0.100	0.013
-615.303	-200.000	0.006	0.140
-614.288	-47.155	0.032	0.016
-613.273	-200.000	0.002	-0.043
-612.259	-48.531	0.158	-0.076
-611.244	49.979	0.163	0.154
-610.230	109.948	-0.133	-0.160
-609.215	5.316	-0.076	-0.056
-608.201	-144.802	0.320	0.029
-607.186	-54.442	-0.099	-0.045
-606.171	105.507	-0.131	0.154
-605.157	35.510	0.092	-0.081
-604.142	-200.000	0.080	0.000
-603.128	800.000	-0.019	-0.059
-602.113	127.523	-0.206	0.262
-601.098	74.780	0.073	0.077
-600.084	379.507	0.300	0.615
-599.069	-78.298	0.421	0.145
-598.055	-24.819	-0.225	-0.134
-597.040	-167.464	-0.485	0.019
-596.025	57.733	-0.202	0.197
-595.011	-22.578	0.107	-0.065
-593.996	-57.277	-0.121	0.053
-592.982	-165.174	-0.101	0.004
-591.967	800.000	0.065	0.228
-590.952	-200.000	-0.007	-0.086
-589.938	121.327	0.209	0.260
-588.923	-27.439	0.336	-0.195
-587.909	83.031	-0.135	-0.147
-586.894	-37.041	0.104	0.056
-585.879	20.133	0.244	0.197
-584.865	32.942	-0.064	0.055
-583.850	-133.231	0.049	0.006
-582.836	43.012	-0.268	-0.245
-581.821	71.856	0.010	-0.010
-580.806	-46.617	-0.199	0.097
-579.792	94.111	-0.094	0.106
-578.777	392.775	-0.119	0.248
-577.763	68.988	-0.083	-0.085
-576.748	-33.370	-0.131	-0.073
-575.733	274.553	-0.149	-0.263
-574.719	-200.000	0.023	0.418
-573.704	22.371	-0.166	-0.136
-572.690	-200.000	-0.020	-0.114
-571.675	-37.628	0.179	-0.095
-570.661	-200.000	0.018	0.127
-569.646	-88.389	0.156	-0.047
-568.631	-94.617	0.091	0.025
-567.617	13.947	0.237	0.184
-566.602	-151.034	-0.107	0.008
-565.588	5.326	-0.149	-0.110
-564.573	800.000	0.145	-0.451
-563.558	71.587	-0.102	0.106
-562.544	-76.126	-0.223	-0.079
-561.529	52.986	-0.118	0.113
-560.515	-89.017	-0.183	0.054
-559.500	-1.310	0.058	-0.041
-558.485	118.369	-0.105	-0.130
-557.471	-200.000	-0.004	-0.211
-556.456	800.000	0.095	0.349
-555.442	-200.000	-0.010	-0.247
-554.427	-200.000	0.032	0.154
-553.412	-86.169	-0.326	0.100
-552.398	-200.000	-0.031	-0.267
-551.383	-75.453	0.090	-0.032
-550.369	-200.000	-0.009	-0.134
-549.354	-146.681	0.354	-0.031
-548.339	-47.481	-0.232	0.112
-547.325	581.358	-0.131	-0.320
-546.310	-58.891	-0.090	0.039
-545.296	188.498	0.130	-0.195
-544.281	-55.914	0.353	-0.157
-543.266	131.940	0.112	-0.144
-542.252	-200.000	-0.037	0.172
-541.237	-200.000	-0.026	0.119
-540.223	-200.000	0.029	0.308
-539.208	21.889	-0.195	-0.159
-538.193	58.705	0.100	-0.098
-537.179	-59.035	0.300	0.129
-536.164	-135.335	-0.010	0.001
-535.150	37.570	0.127	0.112
-534.135	42.647	-0.180	-0.164
-533.121	-35.839	0.055	-0.030
-532.106	800.000	0.022	-0.074
-531.091	-20.351	-0.219	-0.135
-530.077	-68.195	-0.294	-0.114
-529.062	-200.000	-0.116	0.540
-528.048	-10.678	-0.191	0.126
-527.033	734.101	-0.082	-0.220
-526.018	258.452	0.127	-0.218
-525.004	216.034	-0.311	-0.493
-523.989	-43.993	-0.242	-0.121
-522.975	-200.000	0.023	0.177
-521.960	732.253	0.052	0.139
-520.945	122.026	0.323	-0.402
-519.931	-200.000	-0.073	-0.342
-518.916	37.163	-0.349	-0.308
-517.902	-200.000	-0.016	0.178
-516.887	-200.000	-0.045	-0.206
-515.872	73.376	0.262	-0.274
-514.858	672.486	-0.057	0.149
-513.843	-200.000	0.024	-0.197
-512.829	-19.228	0.042	0.026
-511.814	369.174	-0.154	0.310
-510.799	800.000	0.121	0.341
-509.785	-19.606	0.108	0.067
-508.770	-200.000	0.005	0.064
-507.756	-90.077	-0.087	-0.025
-506.741	-8.512	0.169	-0.113
-505.726	-60.398	0.222	0.094
-504.712	11.136	0.280	0.214
-503.697	140.260	-0.109	-0.144
-502.683	380.020	-0.138	0.283
-501.668	800.000	0.033	-0.096
-500.653	635.238	0.102	-0.258
-499.639	800.000	0.033	-0.093
-498.624	-197.407	-0.275	-0.002
-497.610	-3.815	-0.205	-0.142
-496.595	-135.050	0.178	-0.021
-495.581	74.225	-0.217	0.227
-494.566	-106.765	0.074	0.016
-493.551	19.592	0.267	-0.214
-492.537	408.261	0.109	0.229
-491.522	-31.239	0.191	-0.107
-490.508	-12.397	-0.079	-0.051
-489.493	-89.150	-0.202	-0.059
-488.478	800.000	0.064	0.225
-487.464	-150.875	0.428	-0.032
-486.449	121.231	0.098	-0.122
-485.435	147.564	-0.087	-0.117
-484.420	12.429	0.302	0.232
-483.405	-200.000	0.024	-0.123
-482.391	800.000	0.079	0.235
-481.376	-109.230	-0.066	-0.014
-480.362	-87.210	-0.470	0.142
-479.347	58.692	0.263	-0.258
-478.332	-200.000	-0.064	0.289
-477.318	-26.495	-0.274	-0.160
-476.303	10.154	0.349	-0.265
-475.289	-200.000	0.034	-0.475
-474.274	38.363	-0.192	0.170
-473.259	-155.009	0.050	0.003
-472.245	316.125	-0.117	0.221
-471.230	800.000	0.021	0.085
-470.216	-98.632	-0.032	0.008
-469.201	226.692	0.131	0.211
-468.186	-148.961	0.141	-0.011
-467.172	67.516	0.330	0.336
-466.157	-77.268	0.081	0.028
-465.143	800.000	0.047	0.196
-464.128	-64.386	-0.268	-0.108
-463.113	28.961	0.038	0.032
-462.099	-200.000	-0.079	-0.346
-461.084	-137.621	0.328	-0.037
-460.070	-65.850	0.297	0.118
-459.055	24.471	-0.096	-0.079
-458.040	-57.664	-0.282	0.123
-457.026	-78.535	0.174	0.059
-456.011	291.531	-0.171	0.310
-454.997	-200.000	-0.006	-0.072
-453.982	-61.719	-0.126	0.052
-452.968	800.000	-0.078	-0.223
-451.953	177.614	0.293	-0.424
-450.938	692.473	-0.122	-0.317
-449.924	-53.975	-0.211	0.096
-448.909	800.000	-0.090	-0.293
-447.895	348.617	-0.179	-0.352
-446.880	-22.120	0.195	-0.118
-445.865	-135.207	-0.116	0.014
-444.851	-100.746	-0.146	-0.036
-443.836	-19.184	-0.117	0.073
-442.822	-200.000	0.018	0.171
-441.807	-200.000	-0.029	-0.196
-440.792	-59.506	0.128	0.055
-439.778	400.656	0.098	0.205
-438.763	800.000	-0.119	-0.328
-437.749	-93.719	-0.481	-0.132
-436.734	233.207	-0.221	0.362
-435.719	800.000	-0.031	0.115
-434.705	-200.000	0.022	-0.107
-433.690	-95.331	0.209	0.056
-432.676	16.265	-0.247	0.194
-431.661	-200.000	0.007	0.109
-430.646	-171.740	-0.135	-0.004
-429.632	-200.000	0.017	0.089
-428.617	-15.471	0.171	-0.108
-427.603	800.000	0.042	0.138
-426.588	-31.115	0.098	0.055
-425.573	-122.108	0.181	-0.030
-424.559	-92.226	-0.108	0.030
-423.544	-59.249	0.135	0.058
-422.530	742.175	-0.018	0.048
-421.515	-36.226	0.180	-0.096
-420.500	113.142	0.204	-0.246
-419.486	-200.000	0.028	-0.182
-418.471	-135.852	0.278	-0.033
-417.457	-200.000	0.001	-0.258
-416.442	-54.475	-0.325	0.146
-415.428	-14.988	0.250	0.159
-414.413	-89.371	-0.234	0.069
-413.398	-200.000	0.009	0.072
-412.384	-200.000	0.025	-0.166
-411.369	558.351	-0.071	0.169
-410.355	800.000	0.083	-0.342
-409.340	800.000	0.124	0.430
-408.325	162.307	-0.196	-0.273
-407.311	-89.653	-0.180	0.052
-406.296	-90.046	-0.245	0.071
-405.282	22.781	0.136	0.111
-404.267	130.118	-0.179	0.228
-403.252	51.584	0.049	-0.046
-402.238	424.379	-0.064	-0.137
-401.223	-105.851	0.189	-0.042
-400.209	800.000	-0.096	0.360
-399.194	-43.178	-0.195	-0.098
-398.179	-200.000	-0.038	-0.304
-397.165	418.578	-0.073	0.156
-396.150	800.000	-0.027	0.102
-395.136	800.000	0.030	0.091
-394.121	-60.357	0.403	0.170
-393.106	189.309	0.194	-0.289
-392.092	-177.043	-0.031	0.001
-391.077	115.822	-0.093	0.113
-390.063	-200.000	-0.007	0.129
-389.048	-57.477	0.165	-0.072
-388.033	530.931	-0.089	-0.208
-387.019	800.000	-0.079	-0.239
-386.004	800.000	0.128	0.394
-384.990	800.000	-0.016	0.060
-383.975	42.197	0.031	0.028
-382.960	-170.673	0.222	0.008
-381.946	-96.737	-0.248	0.065
-380.931	-54.337	0.116	0.052
-379.917	-3.447	-0.277	0.191
-378.902	-21.342	-0.178	-0.108
-377.888	800.000	-0.110	0.305
-376.873	800.000	0.076	0.228
-375.858	-94.786	-0.157	0.042
-374.844	200.832	0.153	0.234
-373.829	78.600	-0.104	-0.110
-372.815	88.203	-0.128	-0.141
-371.800	-98.206	0.317	0.081
-370.785	292.912	-0.106	0.191
-369.771	285.163	-0.140	0.251
-368.756	800.000	-0.044	-0.163
-367.742	-145.068	0.333	-0.030
-366.727	-46.868	0.178	0.087
-365.712	135.282	0.148	-0.190
-364.698	155.134	-0.035	0.047
-363.683	800.000	0.137	0.378
-362.669	79.255	0.225	0.239
-361.654	-53.330	0.093	-0.042
-360.639	-106.450	-0.109	-0.024
-359.625	-68.747	0.130	0.050
-358.610	-200.000	0.001	0.036
-357.596	-200.000	0.004	-0.061
-356.581	-30.763	0.270	0.152
-355.566	-31.111	-0.467	-0.261
-354.552	-200.000	-0.009	-0.101
-353.537	-200.000	-0.014	0.425
-352.523	191.363	0.238	-0.355
-351.508	175.006	-0.122	0.174
-350.493	711.266	-0.054	-0.141
-349.479	-124.714	-0.016	0.002
-348.464	-200.000	0.009	-0.156
-347.450	-68.552	-0.166	-0.064
-346.435	472.108	0.076	-0.170
-345.420	31.602	-0.292	0.249
-344.406	-41.804	0.248	-0.126
-343.391	13.380	-0.200	-0.153
-342.377	3.130	0.260	0.187
-341.362	-31.425	0.107	-0.060
-340.348	37.613	0.142	0.125
-339.333	96.072	0.088	0.100
-338.318	-65.989	0.034	-0.013
-337.304	-200.000	-0.041	0.271
-336.289	14.626	-0.294	-0.228
-335.275	168.037	-0.099	0.140
-334.260	-52.243	-0.061	0.028
-333.245	-200.000	0.017	-0.235
-332.231	3.145	-0.022	0.016
-331.216	-61.137	-0.115	-0.048
-330.202	59.734	-0.182	-0.178
-329.187	-75.884	0.305	0.107
-328.172	-27.887	0.272	-0.156
-327.158	-8.725	-0.386	0.256
-326.143	-46.561	0.331	-0.161
-325.129	800.000	-0.060	-0.187
-324.114	-113.854	0.124	-0.024
-323.099	-145.995	0.293	-0.026
-322.085	706.031	0.027	-0.069
-321.070	319.970	0.086	-0.161
-320.056	-77.716	-0.100	-0.034
-319.041	376.244	-0.076	0.153
-318.026	-73.056	0.162	0.059
-317.012	-41.802	0.175	0.089
-315.997	-200.000	-0.022	-0.160
-314.983	70.503	0.122	0.125
-313.968	-111.791	-0.101	0.020
-312.953	-91.941	-0.328	0.092
-311.939	150.055	0.178	0.239
-310.924	-25.059	0.336	-0.197
-309.910	-19.455	-0.150	-0.092
-308.895	-75.336	0.065	-0.023
-307.880	-105.569	-0.407	0.091
-306.866	-64.886	0.196	-0.078
-305.851	-166.173	-0.210	0.009
-304.837	89.661	-0.294	0.325
-303.822	-3.657	0.145	0.099
-302.807	-198.211	0.056	0.000
-301.793	800.000	-0.063	-0.194
-300.778	800.000	0.065	-0.196
-299.764	59.991	0.094	-0.092
-298.749	-200.000	0.042	-0.402
-297.735	-79.692	-0.084	0.028
-296.720	800.000	0.040	0.150
-295.705	-49.669	-0.174	-0.082
-294.691	800.000	0.071	0.221
-293.676	-71.262	-0.372	0.138
-292.662	800.000	0.025	-0.090
-291.647	800.000	-0.062	-0.213
-290.632	448.435	0.078	-0.171
-289.618	-20.632	-0.217	-0.132
-288.603	-31.894	-0.220	-0.122
-287.589	-174.855	-0.136	0.004
-286.574	316.432	0.039	0.074
-285.559	84.077	0.299	-0.323
-284.545	-169.725	0.246	0.009
-283.530	800.000	-0.039	-0.122
-282.516	-47.969	-0.085	0.041
-281.501	-151.676	0.103	-0.007
-280.486	328.614	0.148	-0.281
-279.472	-200.000	-0.043	-0.217
-278.457	237.269	-0.107	-0.175
-277.443	-62.767	-0.426	0.175
-276.428	-112.711	0.050	0.010
-275.413	6.156	0.168	0.123
-274.399	-154.282	0.461	0.031
-273.384	103.952	-0.125	0.145
-272.370	-33.852	-0.254	-0.138
-271.355	242.703	-0.135	0.224
-270.340	87.454	-0.120	-0.131
-269.326	51.112	-0.153	0.143
-268.311	201.328	0.137	-0.208
-267.297	-66.059	-0.278	-0.110
-266.282	-200.000	0.023	-0.159
-265.267	-7.186	-0.260	0.174
-264.253	459.291	-0.110	0.242
-263.238	-88.490	0.036	-0.011
-262.224	-200.000	0.000	0.085
-261.209	-93.236	0.192	0.053
-260.195	0.048	-0.187	-0.132
-259.180	-47.406	0.376	0.181
-258.165	-200.000	0.018	0.116
-257.151	496.872	0.088	-0.200
-256.136	-13.210	0.181	0.116
-255.122	800.000	0.054	-0.185
-254.107	-200.000	0.011	-0.352
-253.092	72.656	-0.353	-0.364
-252.078	-50.152	0.405	0.189
-251.063	-182.966	0.333	-0.006
-250.049	465.214	-0.070	0.154
-249.034	148.997	-0.109	0.145
-248.019	-150.337	0.510	-0.039
-247.005	445.675	-0.055	-0.120
-245.990	96.992	-0.240	0.272
-244.976	-200.000	-0.042	-0.237
-243.961	-200.000	-0.046	-0.355
-242.946	-136.460	0.329	0.038
-241.932	48.444	0.118	-0.109
-240.917	800.000	-0.094	0.401
-239.903	51.883	-0.050	-0.047
-238.888	63.930	0.086	0.085
-237.873	-108.578	0.266	0.056
-236.859	-47.046	0.219	0.106
-235.844	-140.313	-0.081	0.008
-234.830	800.000	-0.120	-0.337
-233.815	7.901	0.126	-0.093
-232.800	-26.861	-0.311	0.179
-231.786	289.672	-0.028	0.050
-230.771	800.000	0.060	-0.240
-229.757	-96.492	0.420	-0.109
-228.742	-22.981	-0.172	0.102
-227.727	-200.000	0.007	-0.060
-226.713	358.430	-0.104	-0.204
-225.698	-54.693	-0.193	-0.086
-224.684	-70.068	-0.253	-0.095
-223.669	-103.150	0.172	0.040
-222.655	800.000	0.044	-0.135
-221.640	-78.545	-0.192	-0.065
-220.625	404.787	0.079	-0.164
-219.611	-37.592	-0.179	0.094
-218.596	772.367	-0.014	0.038
-217.582	179.611	0.029	0.042
-216.567	-64.139	0.214	0.086
-215.552	29.419	-0.320	0.268
-214.538	-118.082	-0.299	0.053
-213.523	229.612	0.018	0.030
-212.509	-59.647	-0.196	0.083
-211.494	423.965	-0.127	0.268
-210.479	-95.632	0.275	-0.073
-209.465	-85.947	0.215	-0.066
-208.450	170.758	-0.065	0.092
-207.436	800.000	-0.059	-0.161
-206.421	-190.962	0.267	-0.003
-205.406	-200.000	-0.015	0.380
-204.392	-126.485	0.024	0.003
-203.377	-23.545	-0.143	-0.085
-202.363	-103.432	0.222	-0.052
-201.348	800.000	-0.106	0.299
-200.333	-57.783	-0.239	-0.103
-199.319	-200.000	0.091	0.550
-198.304	-200.000	0.073	0.319
-197.290	-68.190	0.208	-0.080
-196.275	-188.577	0.274	-0.003
-195.260	11.917	0.195	-0.148
-194.246	16.113	0.210	-0.163
-193.231	-153.722	-0.227	-0.015
-192.217	-9.993	-0.199	0.131
-191.202	-77.395	-0.124	-0.042
-190.187	510.952	0.170	-0.389
-189.173	182.014	0.102	0.149
-188.158	50.414	0.175	-0.163
-187.144	800.000	-0.055	0.171
-186.129	386.044	0.080	-0.162
-185.114	44.119	0.189	0.171
-184.100	101.834	-0.120	-0.138
-183.085	-104.670	-0.261	0.059
-182.071	205.053	-0.197	0.301
-181.056	-181.598	0.643	-0.012
-180.042	-69.042	0.296	0.112
-179.027	-129.074	-0.251	0.035
-178.012	28.623	-0.217	-0.181
-176.998	34.657	-0.230	0.198
-175.983	-196.028	-0.309	0.002
-174.969	-200.000	0.040	0.265
-173.954	-200.000	-0.001	0.242
-172.939	286.943	0.090	-0.160
-171.925	-136.184	-0.181	0.021
-170.910	131.544	0.193	0.244
-169.896	49.056	0.188	0.174
-168.881	-200.000	-0.028	0.285
-167.866	-200.000	0.019	-0.115
-166.852	-103.907	-0.203	0.047
-165.837	409.488	0.056	-0.116
-164.823	-132.923	0.174	0.022
-163.808	800.000	0.105	0.288
-162.793	102.085	-0.201	-0.231
-161.779	49.695	0.216	-0.201
-160.764	72.096	-0.243	0.249
-159.750	-200.000	-0.062	0.308
-158.735	-200.000	-0.005	0.094
-157.720	-155.418	-0.238	0.015
-156.706	-132.125	-0.237	-0.030
-155.691	-93.884	-0.189	-0.051
-154.677	243.644	-0.048	-0.080
-153.662	-143.603	0.194	0.018
-152.647	171.665	-0.233	-0.329
-151.633	-110.304	-0.150	-0.031
-150.618	-153.136	0.178	-0.012
-149.604	255.272	0.107	0.180
-148.589	-29.471	0.286	-0.161
-147.574	-99.224	0.290	-0.072
-146.560	87.757	-0.233	0.254
-145.545	279.625	-0.027	-0.048
-144.531	138.049	0.055	-0.071
-143.516	-27.572	-0.051	0.029
-142.502	-200.000	-0.018	0.132
-141.487	36.608	0.075	-0.065
-140.472	800.000	-0.063	-0.188
-139.458	-178.298	0.248	-0.006
-138.443	-200.000	0.220	0.000
-137.429	406.822	-0.175	0.363
-136.414	-81.760	0.341	0.110
-135.399	-1.986	0.108	-0.074
-134.385	6.816	0.081	-0.059
-133.370	-55.107	-0.134	0.059
-132.356	210.393	0.183	0.283
-131.341	38.041	0.184	0.161
-130.326	66.815	0.139	0.139
-129.312	-200.000	0.009	-0.062
-128.297	-120.268	0.204	-0.034
-127.283	49.657	0.116	-0.108
-126.268	-200.000	-0.015	0.301
-125.253	-40.133	-0.156	-0.080
-124.239	-200.000	-0.046	-0.320
-123.224	20.650	0.226	0.180
-122.210	-105.982	0.047	-0.010
-121.195	-66.357	0.083	-0.032
-120.180	131.156	-0.074	0.093
-119.166	67.962	-0.158	0.158
-118.151	-79.247	0.209	0.070
-117.137	-200.000	0.041	0.380
-116.122	147.031	0.181	-0.240
-115.107	142.473	0.124	-0.161
-114.093	88.600	-0.064	0.070
-113.078	129.414	-0.102	-0.128
-112.064	493.767	-0.077	0.174
-111.049	-200.000	0.023	0.165
-110.034	318.529	-0.173	-0.321
-109.020	-97.967	-0.024	-0.006
-108.005	-200.000	-0.003	-0.231
-106.991	-200.000	-0.041	0.208
-105.976	94.828	-0.215	0.240
-104.962	89.511	0.188	-0.206
-103.947	95.769	0.156	-0.175
-102.932	-105.626	0.238	-0.053
-101.918	-79.233	0.137	0.046
-100.903	-45.086	0.044	0.022
-99.889	-67.987	-0.272	0.104
-98.874	-200.000	-0.012	0.170
-97.859	-89.218	0.090	0.026
-96.845	71.292	0.321	-0.327
-95.830	-142.056	0.291	-0.028
-94.816	-13.208	0.140	0.089
-93.801	216.217	0.147	0.230
-92.786	246.746	0.194	0.320
-91.772	10.648	0.167	0.125
-90.757	27.536	-0.207	-0.171
-89.743	125.044	0.053	-0.065
-88.728	361.111	-0.083	0.163
-87.713	-200.000	0.012	0.096
-86.699	-139.371	0.337	-0.036
-85.684	-109.304	0.269	-0.056
-84.670	800.000	0.061	0.253
-83.655	103.697	-0.056	-0.065
-82.640	-200.000	-0.004	0.316
-81.626	-93.550	0.269	0.073
-80.611	-155.452	-0.268	0.017
-79.597	243.478	0.181	-0.298
-78.582	800.000	0.022	0.081
-77.567	-8.194	-0.281	-0.186
-76.553	-200.000	0.008	-0.202
-75.538	365.946	0.091	0.181
-74.524	87.000	-0.024	-0.026
-73.509	26.386	0.158	0.129
-72.494	-200.000	0.007	0.197
-71.480	-200.000	0.015	-0.176
-70.465	-6.552	0.211	0.141
-69.451	-200.000	0.042	0.267
-68.436	-120.230	-0.337	-0.056
-67.422	452.334	0.096	-0.208
-66.407	241.932	-0.153	-0.251
-65.392	53.908	-0.160	-0.151
-64.378	462.111	0.020	-0.045
-63.363	248.834	-0.166	-0.275
-62.349	107.166	0.037	0.044
-61.334	-6.932	-1.127	-0.751
-60.319	2.271	0.656	0.465
-59.305	800.000	-0.319	-0.969
-58.290	228.014	0.859	1.371
-57.276	436.176	0.604	1.288
-56.261	-200.000	106.437	616.221
-55.246	506.949	1510.550	3433.451
-54.232	176.062	2702.691	3844.925
-53.217	110.488	2186.490	2575.262
-52.203	40.104	1704.821	1501.478
-51.188	32.645	1515.104	1283.767
-50.173	30.309	1487.960	1245.068
-49.159	51.425	1544.854	1437.710
-48.144	51.602	1561.075	1453.960
-47.130	32.818	1516.459	1285.886
-46.115	29.786	1501.658	1252.788
-45.100	29.585	1498.241	1248.524
-44.086	29.545	1496.151	1246.469
-43.071	29.458	1493.998	1244.037
-42.057	29.390	1492.494	1242.276
-41.042	29.461	1490.947	1241.419
-40.027	29.433	1489.851	1240.266
-39.013	29.504	1488.306	1239.412
-37.998	29.370	1487.047	1237.415
-36.984	29.426	1485.532	1236.478
-35.969	29.408	1484.599	1235.531
-34.954	29.503	1482.452	1234.331
-33.940	29.552	1481.063	1233.450
-32.925	29.522	1479.908	1232.242
-31.911	29.518	1478.698	1231.156
-30.896	29.593	1477.008	1230.203
-29.881	29.569	1476.580	1229.637
-28.867	29.608	1474.800	1228.368
-27.852	29.547	1473.501	1226.828
-26.838	29.606	1471.994	1225.919
-25.823	29.566	1470.467	1224.333
-24.809	29.630	1468.564	1223.125
-23.794	29.548	1467.258	1221.441
-22.779	29.530	1466.410	1220.569
-21.765	29.556	1465.549	1219.978
-20.750	29.460	1464.465	1218.393
-19.736	29.459	1463.462	1217.502
-18.721	29.518	1461.710	1216.383
-17.706	29.386	1461.077	1214.943
-16.692	29.512	1460.079	1214.893
-15.677	29.552	1458.342	1213.659
-14.663	29.554	1457.380	1212.823
-13.648	29.390	1457.235	1211.578
-12.633	29.452	1456.162	1211.049
-11.619	29.504	1455.407	1210.710
-10.604	29.457	1454.536	1209.630
-9.590	29.548	1452.973	1208.882
-8.575	29.507	1452.598	1208.249
-7.560	29.503	1451.764	1207.480
-6.546	29.458	1450.889	1206.412
-5.531	29.426	1450.323	1205.688
-4.517	29.428	1449.667	1205.108
-3.502	29.536	1447.952	1204.339
-2.487	29.389	1447.270	1202.765
-1.473	29.548	1445.822	1202.550
-0.458	29.462	1444.930	1201.196
0.556	27.045	1435.336	1189.951
1.571	24.149	1410.007	1150.175
2.586	20.870	1352.250	1082.626
3.600	19.380	1271.548	1009.214
4.615	18.285	1227.034	967.605
5.629	16.075	1172.393	912.489
6.644	8.004	1089.079	806.834
7.659	1.138	1048.169	742.900
8.673	-0.092	1042.694	732.958
9.688	-0.274	1039.547	729.796
10.702	-0.337	1037.703	728.131
11.717	-0.326	1035.657	726.684
12.731	3.017	1039.685	745.686
13.746	11.822	1052.015	797.534
14.761	18.543	1061.434	837.538
15.775	20.560	1062.442	848.112
16.790	20.931	1062.538	849.922
17.804	20.662	1061.477	847.686
18.819	20.437	1060.865	846.027
19.834	20.596	1060.373	846.333
20.848	20.549	1060.358	846.017
21.863	20.739	1059.555	846.229
22.877	20.695	1059.570	845.949
23.892	20.596	1058.853	844.823
24.907	20.541	1057.729	843.583
25.921	20.602	1056.871	843.119
26.936	20.614	1056.293	842.646
27.950	20.580	1055.172	841.510
28.965	20.588	1053.851	840.419
29.980	20.455	1052.115	838.321
30.994	20.588	1050.632	837.706
32.009	20.624	1050.013	837.313
33.023	20.759	1048.921	837.016
34.038	20.440	1047.634	834.384
35.053	20.492	1047.022	834.070
36.067	20.741	1046.070	834.432
37.082	20.719	1045.380	833.703
38.096	20.841	1044.609	833.596
39.111	20.830	1044.069	833.043
40.126	20.966	1042.859	832.651
41.140	20.820	1041.770	831.010
42.155	20.722	1039.751	828.862
43.169	20.339	1038.878	826.267
44.184	20.303	1038.147	825.445
45.199	20.481	1036.259	824.712
46.213	20.362	1035.353	823.354
47.228	20.287	1034.890	822.557
48.242	20.449	1033.990	822.541
49.257	20.498	1033.354	822.189
50.271	20.482	1032.969	821.737
51.286	20.630	1032.184	821.740
52.301	20.722	1030.919	821.095
53.315	20.737	1030.590	820.829
54.330	20.772	1029.637	820.161
55.344	20.543	1028.968	818.477
56.359	20.740	1028.013	818.576
57.374	20.660	1027.189	817.469
58.388	20.437	1026.204	815.566
59.403	20.510	1024.807	814.726
60.417	20.515	1024.431	814.378
61.432	20.239	1023.998	812.670
62.447	20.281	1023.169	812.133
63.461	20.391	1022.677	812.188
64.476	20.550	1021.671	812.058
65.490	20.507	1020.722	811.032
66.505	20.422	1019.657	809.717
67.520	20.426	1018.945	809.100
68.534	20.576	1018.178	809.118
69.549	20.435	1017.006	807.459
70.563	20.088	1016.130	805.079
71.578	19.982	1014.770	803.439
72.593	20.076	1014.138	803.305
73.607	19.996	1012.619	801.658
74.622	20.033	1012.050	801.310
75.636	20.158	1011.481	801.367
76.651	20.445	1010.317	801.697
77.666	20.265	1009.480	800.130
78.680	20.143	1008.803	798.961
79.695	20.106	1008.598	798.562
80.709	20.405	1007.551	799.036
81.724	20.349	1007.093	798.345
82.739	20.410	1005.665	797.420
83.753	20.386	1004.991	796.707
84.768	20.617	1004.097	796.987
85.782	20.745	1004.014	797.438
86.797	20.923	1003.016	797.388
87.812	20.894	1002.422	796.714
88.826	20.840	1001.109	795.350
89.841	20.918	1000.302	794.997
90.855	20.921	999.298	794.141
91.870	20.923	998.748	793.643
92.884	20.901	997.891	792.794
93.899	20.700	996.929	791.042
94.914	20.721	996.071	790.388
95.928	20.849	995.124	790.150
96.943	20.940	994.265	789.809
97.957	20.639	993.292	787.601
98.972	20.383	992.339	785.618
99.987	20.154	991.516	783.862
101.001	20.311	990.538	783.731
102.016	20.613	990.236	784.782
103.030	20.559	989.147	783.607
104.045	20.561	987.609	782.328
105.060	20.450	986.623	780.980
106.074	20.212	985.382	778.862
107.089	20.326	984.506	778.610
108.103	20.666	984.643	780.177
109.118	20.849	983.463	779.993
110.133	20.386	982.692	777.236
111.147	20.459	981.431	776.500
112.162	20.389	980.089	775.053
113.176	20.201	978.533	772.917
114.191	20.256	977.934	772.622
115.206	20.360	976.990	772.270
116.220	20.101	975.965	770.242
117.235	20.055	974.627	768.915
118.249	20.055	974.361	768.633
119.264	20.191	973.669	768.622
120.279	19.976	972.890	766.988
121.293	20.096	971.633	766.459
122.308	20.151	971.538	766.561
123.322	20.176	970.373	765.684
124.337	20.085	969.347	764.406
125.352	20.109	967.279	762.811
126.366	19.746	965.856	760.026
127.381	19.326	964.952	757.403
128.395	19.943	964.430	759.636
129.410	20.549	963.693	761.644
130.424	20.614	963.130	761.418
131.439	20.532	962.135	760.203
132.454	20.548	960.857	759.195
133.468	20.619	959.787	758.591
134.483	20.501	959.199	757.547
135.497	20.522	958.569	757.073
136.512	20.766	958.305	757.860
137.527	20.738	957.525	757.055
138.541	20.776	956.456	756.307
139.556	20.696	955.932	755.479
140.570	20.816	954.756	755.003
141.585	20.807	953.901	754.224
142.600	20.806	953.252	753.639
143.614	20.820	951.613	752.338
144.629	20.798	951.466	752.058
145.643	21.166	950.613	752.907
146.658	21.043	949.740	751.616
147.673	20.882	948.426	749.820
148.687	20.749	946.835	747.924
149.702	20.692	946.211	747.121
150.716	20.533	945.029	745.437
151.731	20.719	943.782	745.185
152.746	20.786	943.279	745.010
153.760	20.942	942.844	745.264
154.775	20.988	941.872	744.627
155.789	21.034	941.128	744.171
156.804	21.014	940.428	743.466
157.819	20.945	939.683	742.517
158.833	20.967	938.696	741.764
159.848	21.081	937.652	741.360
160.862	21.107	936.947	740.844
161.877	21.008	936.031	739.635
162.892	20.933	935.062	738.489
163.906	21.149	934.416	738.828
164.921	20.929	933.589	737.175
165.935	20.954	931.970	735.939
166.950	21.034	931.255	735.645
167.964	21.005	930.608	734.947
168.979	20.987	929.073	733.592
169.994	20.841	927.888	731.981
171.008	20.786	927.194	731.137
172.023	20.969	926.628	731.393
173.037	21.002	925.793	730.809
174.052	20.975	924.546	729.647
175.067	20.655	923.822	727.671
176.081	20.737	922.538	726.939
177.096	20.858	921.998	726.954
178.110	20.766	921.269	725.932
179.125	20.811	919.838	724.925
180.140	20.341	919.332	722.508
181.154	20.395	918.730	722.197
182.169	20.468	918.297	722.097
183.183	20.767	917.354	722.533
184.198	20.917	917.550	723.245
185.213	20.996	916.521	722.697
186.227	20.938	915.854	721.867
187.242	20.922	915.599	721.534
188.256	21.062	914.744	721.375
189.271	20.969	913.789	720.174
190.286	21.193	912.957	720.379
191.300	20.942	912.136	718.635
192.315	20.364	910.582	714.967
193.329	19.797	908.995	711.326
194.344	19.421	908.020	708.957
195.359	19.906	908.581	711.325
196.373	20.715	908.741	714.709
197.388	21.065	908.028	715.522
198.402	20.825	907.467	714.034
199.417	20.703	907.029	713.126
200.432	20.896	906.365	713.329
201.446	20.685	905.324	711.584
202.461	20.424	904.555	709.850
203.475	20.566	904.433	710.271
204.490	20.147	902.579	707.045
205.504	19.096	900.743	701.265
206.519	19.383	900.779	702.398
207.534	20.367	900.995	706.511
208.548	20.604	900.472	707.005
209.563	20.798	900.604	707.833
210.577	20.735	899.926	706.983
211.592	20.475	898.862	705.029
212.607	20.979	898.738	706.915
213.621	21.127	898.340	707.136
214.636	21.024	897.743	706.186
215.650	21.130	897.242	706.159
216.665	20.942	896.474	704.735
217.680	20.983	895.832	704.333
218.694	21.331	895.205	705.180
219.709	20.812	894.466	702.444
220.723	20.444	893.542	700.173
221.738	20.664	893.028	700.594
222.753	20.843	892.302	700.681
223.767	20.696	892.073	699.848
224.782	20.858	890.950	699.556
225.796	21.011	890.355	699.643
226.811	21.155	889.884	699.786
227.826	20.751	888.568	697.071
228.840	19.972	887.163	692.795
229.855	20.052	886.724	692.709
230.869	20.209	886.096	692.785
231.884	19.944	885.423	691.141
232.899	19.958	884.743	690.605
233.913	20.790	884.789	693.897
234.928	20.896	884.541	694.060
235.942	20.881	883.688	693.270
236.957	20.783	883.148	692.397
237.972	20.565	882.244	690.762
238.986	20.568	881.122	689.832
240.001	20.642	881.089	690.041
241.015	20.534	880.615	689.181
242.030	20.553	879.977	688.693
243.045	20.845	879.360	689.306
244.059	20.730	879.081	688.572
245.074	20.970	878.466	688.977
246.088	21.012	877.445	688.282
247.103	20.639	876.391	685.923
248.117	20.732	875.881	685.828
249.132	21.284	875.706	687.806
250.147	21.475	875.743	688.524
251.161	21.600	874.690	688.129
252.176	21.633	874.595	688.123
253.190	21.638	873.545	687.256
254.205	21.731	873.235	687.316
255.220	21.937	872.752	687.682
256.234	21.722	872.363	686.470
257.249	21.692	871.409	685.544
258.263	21.643	870.349	684.455
259.278	21.709	870.000	684.378
260.293	21.752	869.764	684.301
261.307	21.784	869.235	683.951
262.322	21.522	868.568	682.343
263.336	21.610	867.801	682.024
264.351	21.041	866.675	678.862
265.366	19.890	864.454	672.593
266.380	19.543	863.286	670.276
267.395	20.591	863.715	674.619
268.409	21.184	864.211	677.247
269.424	21.138	863.631	676.558
270.439	21.425	862.979	677.096
271.453	21.543	862.541	677.150
272.468	21.330	862.038	675.869
273.482	21.591	861.477	676.379
274.497	21.913	860.852	677.073
275.512	21.819	859.324	675.447
276.526	21.253	858.140	672.281
277.541	21.366	857.945	672.502
278.555	21.502	858.167	673.139
279.570	21.375	857.261	671.882
280.585	21.340	855.916	670.636
281.599	21.321	855.977	670.550
282.614	21.365	855.285	670.117
283.628	21.002	853.847	667.540
284.643	20.765	853.371	666.202
285.657	21.078	853.554	667.484
286.672	21.041	852.480	666.446
287.687	20.653	851.866	664.426
288.701	20.775	851.818	664.794
289.716	21.176	851.578	666.078
290.730	20.821	850.718	663.995
291.745	20.772	849.772	663.008
292.760	20.635	848.603	661.516
293.774	20.583	848.008	660.800
294.789	21.436	848.635	664.470
295.803	21.900	849.100	666.539
296.818	22.047	848.187	666.322
297.833	22.160	847.481	666.134
298.847	21.955	846.363	664.422
299.862	21.652	845.389	662.455
300.876	21.852	845.049	662.884
301.891	21.933	845.483	663.471
302.906	22.127	844.388	663.284
303.920	21.615	843.081	660.273
304.935	21.593	842.172	659.420
305.949	21.965	842.088	660.696
306.964	22.134	841.315	660.664
307.979	21.807	841.020	659.144
308.993	21.880	840.132	658.666
310.008	22.173	840.100	659.684
311.022	22.323	839.379	659.618
312.037	21.918	838.957	657.711
313.052	21.905	838.529	657.272
314.066	21.691	838.090	656.068
315.081	21.104	836.337	652.441
316.095	20.482	834.953	648.983
317.110	21.064	834.976	651.116
318.125	21.769	835.164	653.836
319.139	21.368	834.361	651.656
320.154	20.291	832.737	646.317
321.168	19.723	831.840	643.451
322.183	20.458	832.334	646.513
323.197	21.404	832.557	650.148
324.212	21.564	831.948	650.211
325.227	21.737	831.618	650.538
326.241	21.944	831.180	650.905
327.256	21.788	830.258	649.548
328.270	21.794	829.922	649.247
329.285	21.660	829.397	648.286
330.300	21.523	828.674	647.156
331.314	21.337	827.596	645.569
332.329	21.424	827.012	645.377
333.343	21.697	827.224	646.495
334.358	21.846	826.812	646.663
335.373	21.859	826.166	646.149
336.387	21.982	825.410	645.953
337.402	22.272	825.028	646.664
338.416	22.375	824.910	646.893
339.431	22.282	824.023	645.797
340.446	22.300	823.655	645.521
341.460	22.550	823.162	645.991
342.475	22.408	822.493	644.892
343.489	22.187	821.886	643.547
344.504	22.252	821.548	643.465
345.519	22.504	821.195	644.054
346.533	22.614	821.101	644.323
347.548	22.719	820.484	644.165
348.562	22.693	820.147	643.750
349.577	22.692	819.497	643.180
350.592	22.749	818.754	642.747
351.606	22.719	818.447	642.338
352.621	22.615	818.296	641.786
353.635	22.502	817.462	640.663
354.650	22.672	816.417	640.406
355.665	22.121	815.426	637.571
356.679	21.186	814.247	633.205
357.694	21.033	813.901	632.325
358.708	21.737	813.473	634.485
359.723	21.667	813.017	633.822
360.738	21.936	813.066	634.776
361.752	22.212	812.911	635.598
362.767	22.491	812.262	636.041
363.781	22.549	812.455	636.345
364.796	23.031	811.966	637.646
365.810	22.990	811.628	637.174
366.825	23.170	811.139	637.383
367.840	23.073	810.875	636.770
368.854	22.922	809.968	635.460
369.869	22.488	809.165	633.212
370.883	22.511	808.298	632.560
371.898	22.493	808.128	632.307
372.913	22.377	807.349	631.227
373.927	22.414	806.824	630.892
374.942	22.341	806.439	630.272
375.956	22.513	805.690	630.247
376.971	22.673	804.796	630.066
377.986	22.992	804.460	630.883
379.000	23.108	804.393	631.190
380.015	23.016	803.807	630.347
381.029	22.894	803.161	629.348
382.044	22.811	802.788	628.706
383.059	22.824	802.410	628.400
384.073	23.103	801.445	628.580
385.088	23.063	801.162	628.161
386.102	23.130	800.517	627.837
387.117	22.779	799.933	626.079
388.132	22.832	799.018	625.496
389.146	22.533	798.414	623.910
390.161	22.042	797.984	621.780
391.175	22.028	797.464	621.270
392.190	22.493	797.623	622.985
393.205	22.608	796.678	622.597
394.219	21.652	795.188	618.004
395.234	20.148	793.012	610.964
396.248	19.465	792.314	607.966
397.263	20.616	793.076	612.553
398.278	22.183	794.438	619.076
399.292	22.796	794.111	620.921
400.307	22.312	793.625	618.786
401.321	22.481	792.948	618.797
402.336	22.555	792.750	618.845
403.350	22.706	792.710	619.293
404.365	23.257	792.536	621.033
405.380	23.396	792.609	621.523
406.394	23.597	792.120	621.788
407.409	23.668	791.917	621.825
408.423	23.683	791.163	621.229
409.438	23.514	790.574	620.120
410.453	23.674	789.883	620.084
411.467	23.749	789.932	620.329
412.482	23.651	789.034	619.228
413.496	23.650	788.285	618.581
414.511	23.608	788.617	618.638
415.526	23.751	787.890	618.512
416.540	23.758	787.160	617.908
417.555	23.674	786.996	617.434
418.569	23.268	786.357	615.467
419.584	23.309	785.710	615.050
420.599	23.389	785.287	614.939
421.613	157.306	1364.876	1798.667
422.628	136.051	1449.307	1798.762
