DTS Sentinel unit serial number:	SN413079Multiplexer serial number:	ORYXHardware model number:	OX4-SRSoftware version number:	ORYX F/W v4.00 Oryx Data Collector v3.7.2.0data status	okinstallation	princeton_trtdifferential loss correction	single-endedforward channel	channel 3reverse channel	N/Adate	2019/09/17time	07:08:34forward acquisition time	60.00reverse acquisition time	0.00gamma	496.2192k internal	0.2335k external	0.2335temperature offset calibration	0.9946default loss term (dB/km)	0.3790temperature slope calibration	1.0000multiplexer offset coefficient	1.0000multiplexer slope coefficient	1.0000fibre end	0.00T internal ref (°C)	27.37T ext. ref 1 (°C)	0.12T ext. ref 2 (°C)	21.14length (m)	temperature (°C)	Stokes	anti-Stokes-747.200	425.595	-0.122	0.264
-746.185	58.440	-0.049	0.048
-745.171	800.000	-0.069	-0.240
-744.156	-200.000	-0.048	0.287
-743.142	-94.220	-0.510	-0.140
-742.127	-158.073	0.098	-0.006
-741.112	800.000	-0.050	0.159
-740.098	14.966	-0.112	0.088
-739.083	-105.760	-0.405	-0.092
-738.069	229.378	-0.077	-0.127
-737.054	-111.562	0.175	-0.036
-736.039	75.861	0.115	0.123
-735.025	800.000	0.108	0.422
-734.010	-200.000	-0.007	-0.191
-732.996	-200.000	-0.050	-0.292
-731.981	271.504	0.113	0.200
-730.966	339.486	0.073	0.143
-729.952	22.219	-0.264	0.216
-728.937	296.557	0.073	0.134
-727.923	-108.030	-0.098	-0.021
-726.908	800.000	0.099	-0.275
-725.894	-22.009	0.294	-0.179
-724.879	-132.918	-0.198	-0.025
-723.864	-200.000	0.019	-0.106
-722.850	-200.000	0.021	-0.122
-721.835	-126.639	-0.423	-0.063
-720.821	7.726	-0.399	-0.300
-719.806	-131.717	-0.338	0.044
-718.791	-112.861	0.163	-0.032
-717.777	-200.000	0.060	0.305
-716.762	-34.787	0.153	0.084
-715.748	406.007	-0.066	0.141
-714.733	636.796	0.140	0.358
-713.718	-109.909	0.084	0.018
-712.704	72.868	-0.245	0.257
-711.689	-13.525	0.404	0.263
-710.675	800.000	0.060	0.207
-709.660	-47.842	-0.116	0.056
-708.645	-15.124	0.242	-0.155
-707.631	-46.024	0.155	-0.077
-706.616	132.163	-0.159	-0.205
-705.602	-49.273	-0.323	0.155
-704.587	-92.695	0.159	-0.045
-703.572	-141.686	-0.188	-0.019
-702.558	14.810	0.122	0.095
-701.543	-99.493	-0.236	-0.060
-700.529	-200.000	-0.022	-0.408
-699.514	52.117	0.348	-0.333
-698.499	-15.380	-0.297	0.190
-697.485	-156.245	0.400	0.025
-696.470	102.813	-0.222	0.260
-695.456	800.000	0.067	-0.277
-694.441	-36.941	0.420	-0.226
-693.426	800.000	0.024	-0.066
-692.412	513.099	0.156	0.364
-691.397	-200.000	-0.090	0.433
-690.383	40.829	-0.189	-0.171
-689.368	188.562	-0.143	-0.214
-688.354	-200.000	0.021	-0.194
-687.339	-49.528	-0.122	0.058
-686.324	341.958	-0.031	-0.061
-685.310	-200.000	-0.026	-0.180
-684.295	-176.494	0.049	-0.001
-683.281	628.538	0.028	-0.071
-682.266	-200.000	0.003	-0.243
-681.251	800.000	-0.069	0.237
-680.237	-200.000	0.014	-0.151
-679.222	38.284	-0.108	-0.097
-678.208	-158.982	0.317	-0.018
-677.193	-136.906	0.130	0.015
-676.178	128.433	-0.115	0.146
-675.164	6.155	-0.079	-0.058
-674.149	-81.325	0.044	-0.014
-673.135	619.356	0.076	-0.192
-672.120	-200.000	-0.019	0.298
-671.105	-200.000	-0.010	-0.221
-670.091	-104.470	-0.318	0.074
-669.076	-20.046	-0.524	-0.324
-668.062	164.551	-0.095	-0.134
-667.047	-200.000	-0.133	0.000
-666.032	121.169	-0.046	0.057
-665.018	-200.000	0.122	0.549
-664.003	-28.370	0.029	-0.017
-662.989	800.000	-0.101	0.381
-661.974	800.000	0.011	0.046
-660.959	-84.970	0.219	-0.069
-659.945	-200.000	-0.016	-0.340
-658.930	-79.638	-0.188	-0.064
-657.916	-144.849	0.371	0.034
-656.901	-200.000	-0.007	0.290
-655.886	800.000	-0.037	0.138
-654.872	61.996	-0.109	-0.109
-653.857	229.738	-0.140	-0.229
-652.843	-44.696	0.159	-0.080
-651.828	158.608	0.112	-0.155
-650.814	165.356	-0.069	0.098
-649.799	38.651	-0.208	-0.185
-648.784	106.057	-0.091	-0.108
-647.770	800.000	0.106	-0.373
-646.755	-98.513	0.156	0.040
-645.741	18.866	-0.240	-0.192
-644.726	-200.000	0.012	-0.443
-643.711	53.878	-0.025	0.024
-642.697	4.314	0.268	-0.196
-641.682	-94.346	-0.305	0.083
-640.668	33.575	-0.289	0.251
-639.653	237.502	0.035	0.058
-638.638	-7.217	0.426	0.289
-637.624	-6.970	-0.276	-0.187
-636.609	154.778	-0.223	-0.307
-635.595	-200.000	0.028	-0.144
-634.580	-65.231	0.352	-0.142
-633.565	100.653	-0.222	-0.258
-632.551	800.000	0.081	-0.230
-631.536	-62.488	0.059	-0.025
-630.522	41.337	0.046	-0.041
-629.507	548.005	0.107	0.257
-628.492	-36.383	0.276	0.149
-627.478	-35.219	-0.223	0.122
-626.463	76.074	0.235	-0.249
-625.449	8.533	0.090	-0.068
-624.434	406.989	-0.268	-0.567
-623.419	-153.295	0.171	-0.012
-622.405	-69.904	-0.235	-0.089
-621.390	279.463	0.119	-0.213
-620.376	-115.772	0.191	0.036
-619.361	-200.000	0.071	0.448
-618.346	-10.618	-0.322	0.213
-617.332	78.716	-0.176	0.189
-616.317	-200.000	-0.029	-0.136
-615.303	-200.000	-0.006	0.071
-614.288	-95.410	0.544	0.146
-613.273	82.010	0.038	-0.041
-612.259	-69.588	-0.108	-0.041
-611.244	125.137	0.115	0.145
-610.230	70.014	0.045	-0.047
-609.215	-46.574	-0.112	-0.055
-608.201	433.921	0.063	-0.138
-607.186	-181.885	-0.097	-0.002
-606.171	-171.895	0.454	0.015
-605.157	-52.931	-0.341	-0.157
-604.142	424.890	-0.062	-0.133
-603.128	-40.065	0.219	-0.114
-602.113	-84.813	-0.075	0.023
-601.098	800.000	0.098	-0.363
-600.084	-152.285	-0.128	-0.009
-599.069	-200.000	-0.047	-0.233
-598.055	-6.109	-0.168	0.114
-597.040	-45.144	-0.178	0.088
-596.025	800.000	0.059	-0.257
-595.011	224.234	-0.141	-0.228
-593.996	800.000	0.067	0.191
-592.982	-200.000	0.030	0.418
-591.967	-200.000	0.025	-0.142
-590.952	800.000	0.067	0.243
-589.938	-175.765	-0.333	-0.009
-588.923	282.555	-0.123	-0.220
-587.909	-200.000	-0.085	-0.465
-586.894	17.583	0.312	-0.248
-585.879	-71.848	0.443	-0.165
-584.865	48.348	0.154	-0.144
-583.850	201.609	0.056	0.086
-582.836	-5.065	0.274	-0.188
-581.821	-200.000	0.075	-0.000
-580.806	-90.804	0.115	-0.033
-579.792	-146.248	0.090	-0.008
-578.777	-174.772	-0.008	-0.000
-577.763	-200.000	0.002	0.064
-576.748	53.831	-0.016	-0.015
-575.733	540.037	-0.072	0.170
-574.719	-84.500	-0.191	-0.060
-573.704	800.000	0.039	-0.160
-572.690	-32.886	-0.250	0.139
-571.675	315.297	0.192	0.362
-570.661	800.000	0.024	0.090
-569.646	-83.377	-0.219	-0.070
-568.631	-113.334	0.138	-0.027
-567.617	-102.723	0.240	-0.057
-566.602	29.006	-0.161	-0.137
-565.588	-200.000	-0.040	-0.219
-564.573	523.848	-0.099	-0.233
-563.558	-200.000	0.002	0.046
-562.544	-68.470	0.160	-0.062
-561.529	83.290	-0.114	-0.124
-560.515	800.000	0.065	0.253
-559.500	-200.000	-0.009	-0.062
-558.485	-200.000	0.054	-0.325
-557.471	30.020	-0.234	-0.199
-556.456	-87.475	0.426	0.129
-555.442	-200.000	-0.035	-0.238
-554.427	-93.765	0.201	-0.055
-553.412	-200.000	-0.045	0.208
-552.398	-6.626	0.192	0.130
-551.383	800.000	-0.041	-0.171
-550.369	-94.504	0.082	0.022
-549.354	-200.000	0.001	-0.057
-548.339	-88.977	-0.154	-0.045
-547.325	800.000	-0.013	-0.040
-546.310	-200.000	0.036	0.246
-545.296	-200.000	0.071	-0.541
-544.281	-1.182	-0.075	0.053
-543.266	265.086	-0.144	0.250
-542.252	59.197	0.053	0.052
-541.237	-200.000	0.002	0.445
-540.223	-121.255	-0.148	-0.025
-539.208	800.000	0.052	-0.158
-538.193	-200.000	0.009	-0.049
-537.179	45.515	0.154	0.142
-536.164	111.332	0.240	-0.289
-535.150	-2.488	-0.150	0.105
-534.135	800.000	0.040	0.155
-533.121	-200.000	-0.014	0.074
-532.106	160.405	0.110	0.153
-531.091	-200.000	-0.025	0.241
-530.077	-80.595	-0.347	0.115
-529.062	-200.000	0.030	0.164
-528.048	-200.000	0.056	-0.253
-527.033	800.000	-0.063	-0.184
-526.018	628.754	-0.103	0.260
-525.004	-35.543	0.311	0.168
-523.989	513.068	-0.075	0.175
-522.975	-141.968	0.390	-0.039
-521.960	320.421	-0.038	0.071
-520.945	-40.578	0.283	0.146
-519.931	-76.440	0.130	-0.045
-518.916	0.602	0.204	-0.145
-517.902	184.249	-0.168	0.247
-516.887	0.129	-0.127	-0.090
-515.872	148.600	0.247	0.332
-514.858	16.312	0.185	0.145
-513.843	-50.839	-0.212	-0.099
-512.829	451.288	0.046	0.101
-511.814	-78.193	-0.196	-0.067
-510.799	-4.714	-0.111	-0.076
-509.785	73.405	0.065	-0.068
-508.770	-88.876	0.364	0.107
-507.756	706.202	-0.089	-0.233
-506.741	-80.434	-0.137	-0.046
-505.726	-200.000	-0.028	0.186
-504.712	800.000	0.052	-0.227
-503.697	434.671	-0.166	-0.360
-502.683	-71.415	-0.320	-0.119
-501.668	-16.920	0.140	0.088
-500.653	166.082	0.060	0.084
-499.639	11.025	-0.163	0.124
-498.624	-110.983	0.167	-0.034
-497.610	11.485	-0.295	-0.225
-496.595	93.397	-0.108	-0.121
-495.581	-22.092	-0.264	-0.159
-494.566	-35.484	0.116	0.063
-493.551	29.738	0.321	0.272
-492.537	-90.329	-0.156	-0.045
-491.522	-190.950	-0.107	-0.001
-490.508	-112.278	0.147	-0.029
-489.493	2.944	-0.254	-0.183
-488.478	789.279	-0.027	-0.073
-487.464	-53.744	-0.056	-0.026
-486.449	-200.000	0.006	-0.163
-485.435	800.000	-0.103	-0.295
-484.420	-200.000	0.013	0.082
-483.405	479.997	-0.114	-0.256
-482.391	-200.000	0.031	-0.180
-481.376	315.482	0.111	-0.208
-480.362	-200.000	-0.002	-0.136
-479.347	-88.080	-0.330	-0.099
-478.332	83.879	0.075	0.082
-477.318	-200.000	0.010	-0.153
-476.303	127.311	-0.186	-0.235
-475.289	482.207	-0.130	-0.293
-474.274	-7.822	0.163	0.110
-473.259	-53.824	0.164	-0.075
-472.245	-64.750	-0.271	0.109
-471.230	611.868	-0.025	0.063
-470.216	35.053	-0.309	0.269
-469.201	-64.258	-0.212	0.086
-468.186	-107.798	-0.288	0.062
-467.172	-142.670	-0.494	0.048
-466.157	-200.000	0.047	0.412
-465.143	107.018	-0.147	-0.174
-464.128	-18.361	-0.266	0.165
-463.113	-54.769	-0.199	0.089
-462.099	-73.397	0.268	-0.097
-461.084	-200.000	-0.027	-0.141
-460.070	-128.564	-0.357	0.050
-459.055	7.469	0.175	0.130
-458.040	-20.949	0.125	0.076
-457.026	-27.337	-0.073	0.042
-456.011	713.115	-0.122	0.320
-454.997	719.568	-0.055	-0.145
-453.982	12.631	0.265	0.203
-452.968	-72.772	-0.107	0.039
-451.953	-200.000	-0.011	0.287
-450.938	85.939	-0.232	0.254
-449.924	526.897	0.064	0.149
-448.909	-158.376	0.225	-0.013
-447.895	-142.296	0.223	0.022
-446.880	58.360	-0.197	-0.192
-445.865	612.455	0.094	0.235
-444.851	37.032	-0.266	-0.234
-443.836	112.825	-0.151	-0.182
-442.822	397.397	0.049	0.102
-441.807	682.778	-0.069	0.179
-440.792	565.351	-0.089	-0.213
-439.778	-41.014	0.230	-0.118
-438.763	-170.713	0.253	-0.009
-437.749	121.422	-0.097	0.120
-436.734	-136.025	-0.071	-0.008
-435.719	-200.000	-0.014	0.293
-434.705	-200.000	0.012	0.167
-433.690	-97.039	-0.176	0.046
-432.676	47.499	-0.045	0.041
-431.661	-5.678	0.334	-0.227
-430.646	55.214	0.124	-0.119
-429.632	-124.420	-0.176	0.027
-428.617	20.464	-0.251	0.201
-427.603	98.708	-0.105	0.120
-426.588	-124.331	0.087	-0.013
-425.573	-26.949	-0.075	-0.043
-424.559	248.083	-0.098	-0.164
-423.544	1.866	0.101	-0.073
-422.530	-200.000	0.000	-0.106
-421.515	-35.669	-0.227	0.122
-420.500	-200.000	-0.086	-0.373
-419.486	-42.964	0.312	-0.157
-418.471	-110.881	-0.402	0.082
-417.457	-200.000	0.057	0.419
-416.442	-155.433	0.237	-0.015
-415.428	-200.000	0.021	-0.325
-414.413	-54.291	0.234	0.106
-413.398	48.351	-0.209	0.194
-412.384	-47.325	0.230	0.111
-411.369	-59.039	0.233	0.100
-410.355	-200.000	-0.030	0.141
-409.340	-144.075	0.134	0.012
-408.325	61.724	0.456	0.450
-407.311	-97.198	0.169	0.044
-406.296	186.537	-0.166	0.245
-405.282	654.927	-0.157	0.398
-404.267	-200.000	0.041	-0.398
-403.252	499.490	-0.096	-0.218
-402.238	-78.050	0.075	0.026
-401.223	-103.525	-0.212	0.050
-400.209	-200.000	0.038	0.199
-399.194	800.000	0.027	-0.097
-398.179	22.595	-0.128	-0.104
-397.165	-184.118	0.232	0.004
-396.150	-13.222	0.196	-0.126
-395.136	-200.000	-0.014	-0.079
-394.121	775.334	-0.078	0.210
-393.106	561.710	0.011	0.026
-392.092	56.319	-0.026	-0.025
-391.077	418.045	0.096	0.204
-390.063	218.406	0.147	-0.233
-389.048	-89.532	0.141	0.041
-388.033	-37.325	-0.289	0.153
-387.019	-144.720	-0.197	-0.018
-386.004	800.000	-0.101	0.344
-384.990	800.000	-0.061	-0.208
-383.975	327.636	0.035	0.067
-382.960	-21.050	0.174	0.105
-381.946	39.130	0.117	0.103
-380.931	-54.870	-0.231	0.103
-379.917	170.387	-0.013	0.019
-378.902	-200.000	0.062	0.000
-377.888	169.628	0.042	0.060
-376.873	209.997	-0.147	-0.228
-375.858	131.688	-0.158	-0.202
-374.844	30.755	-0.120	0.101
-373.829	-200.000	0.029	0.497
-372.815	-54.765	0.128	0.057
-371.800	800.000	-0.034	-0.117
-370.785	800.000	0.084	0.238
-369.771	-46.314	0.186	-0.090
-368.756	-200.000	-0.036	-0.186
-367.742	762.102	0.146	-0.392
-366.727	154.540	0.240	-0.327
-365.712	-93.988	0.172	0.047
-364.698	-23.132	0.180	0.107
-363.683	212.095	-0.255	0.398
-362.669	800.000	0.032	0.105
-361.654	800.000	0.079	-0.217
-360.639	-95.658	-0.309	-0.082
-359.625	-200.000	0.062	-0.374
-358.610	191.419	-0.086	-0.129
-357.596	278.430	0.067	0.118
-356.581	-151.600	-0.270	-0.020
-355.566	-91.252	-0.111	-0.032
-354.552	69.878	-0.067	0.068
-353.537	800.000	0.133	0.384
-352.523	-80.593	-0.118	-0.039
-351.508	66.875	-0.089	0.090
-350.493	-200.000	-0.024	0.296
-349.479	-200.000	0.058	-0.274
-348.464	-100.770	-0.313	0.076
-347.450	102.711	0.061	-0.070
-346.435	800.000	0.047	0.132
-345.420	-200.000	-0.016	0.098
-344.406	-200.000	0.017	0.141
-343.391	464.901	-0.068	0.151
-342.377	800.000	0.091	-0.367
-341.362	-200.000	0.008	-0.269
-340.348	42.678	0.298	0.268
-339.333	800.000	-0.093	-0.255
-338.318	-200.000	-0.024	0.281
-337.304	224.116	0.113	-0.181
-336.289	-37.235	0.251	-0.133
-335.275	-28.245	0.115	-0.066
-334.260	233.151	0.110	-0.179
-333.245	36.124	-0.151	0.131
-332.231	42.652	-0.072	0.065
-331.216	-122.055	0.143	-0.023
-330.202	10.915	-0.058	-0.044
-329.187	616.960	0.049	0.120
-328.172	-28.385	-0.177	0.101
-327.158	52.576	0.065	0.062
-326.143	53.392	0.055	-0.052
-325.129	257.696	0.127	-0.216
-324.114	22.237	0.060	-0.048
-323.099	-31.666	-0.066	-0.037
-322.085	-85.286	-0.410	0.127
-321.070	28.041	-0.237	0.197
-320.056	-148.940	-0.312	0.025
-319.041	188.348	0.127	-0.187
-318.026	67.191	-0.239	0.241
-317.012	-200.000	-0.011	0.350
-315.997	337.654	-0.206	0.397
-314.983	-110.705	0.125	0.026
-313.968	-200.000	-0.038	-0.178
-312.953	-200.000	-0.040	0.290
-311.939	57.344	0.077	-0.074
-310.924	11.986	0.030	-0.023
-309.910	35.512	0.056	0.048
-308.895	48.557	-0.041	0.038
-307.880	230.508	-0.133	-0.215
-306.866	-22.770	-0.172	0.103
-305.851	-136.806	-0.122	-0.014
-304.837	-49.649	0.163	0.077
-303.822	51.082	-0.248	0.232
-302.807	158.373	0.159	0.217
-301.793	5.343	-0.191	-0.139
-300.778	-12.995	-0.146	0.094
-299.764	-125.858	-0.299	0.045
-298.749	32.026	0.231	-0.196
-297.735	459.481	-0.044	0.097
-296.720	-186.997	0.104	-0.001
-295.705	438.261	-0.102	-0.221
-294.691	-200.000	-0.023	0.361
-293.676	-32.034	-0.214	0.118
-292.662	360.959	-0.076	-0.150
-291.647	428.454	0.084	-0.179
-290.632	75.225	0.056	-0.058
-289.618	-31.742	0.223	-0.124
-288.603	-108.918	0.116	0.025
-287.589	459.589	-0.060	-0.131
-286.574	82.830	-0.076	0.082
-285.559	-200.000	0.034	-0.300
-284.545	-197.452	-0.325	0.002
-283.530	163.633	-0.096	0.133
-282.516	628.712	-0.033	0.083
-281.501	682.107	0.138	-0.356
-280.486	-20.204	0.104	0.063
-279.472	29.894	-0.199	0.167
-278.457	13.531	0.004	-0.003
-277.443	66.759	-0.272	-0.273
-276.428	800.000	-0.008	0.023
-275.413	-26.836	0.099	-0.057
-274.399	103.417	-0.137	0.159
-273.384	143.723	0.134	-0.176
-272.370	800.000	-0.018	-0.070
-271.355	11.161	0.193	-0.146
-270.340	-200.000	-0.056	0.255
-269.326	-109.890	0.405	0.084
-268.311	-121.621	-0.132	0.022
-267.297	-200.000	0.013	0.078
-266.282	125.109	-0.332	-0.412
-265.267	-200.000	-0.041	-0.357
-264.253	-47.975	0.336	-0.160
-263.238	204.465	-0.101	0.154
-262.224	800.000	-0.086	0.365
-261.209	196.994	-0.217	-0.326
-260.195	-149.653	-0.199	-0.016
-259.180	-68.742	-0.287	-0.109
-258.165	-151.476	-0.042	0.003
-257.151	-200.000	0.050	-0.243
-256.136	-53.931	0.120	-0.054
-255.122	-200.000	-0.015	-0.099
-254.107	272.123	0.090	-0.157
-253.092	-176.670	0.152	0.004
-252.078	-160.868	0.215	-0.011
-251.063	-92.835	0.482	-0.133
-250.049	24.829	-0.068	0.056
-249.034	265.957	0.115	0.198
-248.019	-149.996	-0.119	-0.009
-247.005	49.722	-0.186	-0.172
-245.990	56.149	0.143	0.137
-244.976	-136.839	0.082	0.009
-243.961	-200.000	-0.056	0.323
-242.946	-142.036	0.202	0.020
-241.932	-191.803	0.206	0.002
-240.917	-200.000	-0.041	0.340
-239.903	-151.564	0.296	-0.022
-238.888	74.879	-0.145	-0.151
-237.873	34.186	-0.119	0.102
-236.859	-200.000	-0.011	-0.133
-235.844	160.533	0.169	-0.232
-234.830	-39.554	-0.146	0.075
-233.815	-174.761	0.221	-0.006
-232.800	99.410	0.285	0.324
-231.786	800.000	0.046	-0.186
-230.771	-43.942	-0.143	-0.071
-229.757	-38.664	-0.324	0.168
-228.742	494.919	-0.048	0.109
-227.727	-119.215	-0.102	-0.018
-226.713	-2.966	-0.294	-0.202
-225.698	-70.184	0.078	-0.029
-224.684	-127.655	-0.146	0.021
-223.669	-200.000	0.098	0.434
-222.655	-121.645	0.212	-0.035
-221.640	-200.000	0.257	0.001
-220.625	13.290	0.068	0.052
-219.611	31.379	0.232	0.196
-218.596	-124.362	-0.196	0.030
-217.582	-200.000	0.008	0.108
-216.567	64.532	-0.050	0.050
-215.552	230.789	-0.102	-0.165
-214.538	150.804	0.187	0.250
-213.523	6.989	0.261	0.191
-212.509	90.133	0.096	-0.105
-211.494	-200.000	0.016	0.357
-210.479	165.958	0.120	-0.167
-209.465	-75.303	0.093	-0.033
-208.450	223.502	0.093	0.148
-207.436	-38.253	-0.239	-0.125
-206.421	4.701	0.108	0.078
-205.406	-200.000	0.049	-0.348
-204.392	800.000	-0.073	0.245
-203.377	-103.194	0.281	-0.065
-202.363	51.381	-0.177	-0.165
-201.348	89.684	-0.124	0.136
-200.333	50.634	0.208	0.193
-199.319	-101.287	0.224	0.054
-198.304	-196.042	0.325	-0.002
-197.290	-123.421	-0.059	-0.009
-196.275	-200.000	-0.008	-0.068
-195.260	-135.467	0.375	0.044
-194.246	800.000	-0.033	-0.125
-193.231	165.089	0.189	0.262
-192.217	800.000	-0.047	0.178
-191.202	-200.000	-0.030	0.161
-190.187	-200.000	0.019	0.109
-189.173	145.286	-0.147	-0.193
-188.158	72.148	0.139	0.143
-187.144	-137.769	0.093	0.010
-186.129	-103.017	0.114	-0.027
-185.114	166.509	-0.112	-0.156
-184.100	249.246	0.103	-0.172
-183.085	253.266	0.168	-0.281
-182.071	-200.000	0.007	0.286
-181.056	-200.000	0.012	0.054
-180.042	-65.048	0.366	-0.145
-179.027	36.267	-0.146	0.126
-178.012	-123.195	-0.591	0.093
-176.998	-103.616	0.104	0.024
-175.983	-23.937	0.068	0.040
-174.969	-200.000	0.026	0.133
-173.954	48.474	0.062	-0.057
-172.939	800.000	0.036	-0.128
-171.925	401.326	-0.125	-0.258
-170.910	-134.372	0.084	0.010
-169.896	-200.000	0.007	0.114
-168.881	257.796	-0.147	0.249
-167.866	-200.000	-0.019	0.182
-166.852	76.443	0.023	-0.024
-165.837	-6.885	-0.273	0.182
-164.823	-124.308	0.152	0.023
-163.808	-98.219	0.333	0.084
-162.793	-123.244	-0.099	0.015
-161.779	-26.170	-0.097	-0.056
-160.764	244.644	-0.046	-0.076
-159.750	358.737	-0.103	0.202
-158.735	-200.000	-0.003	-0.042
-157.720	800.000	-0.093	-0.345
-156.706	-73.503	0.241	0.087
-155.691	-200.000	0.040	0.327
-154.677	-35.264	0.190	0.101
-153.662	58.254	-0.232	0.224
-152.647	-8.884	0.220	-0.145
-151.633	66.144	-0.233	-0.232
-150.618	-124.422	-0.128	0.020
-149.604	281.452	-0.144	0.254
-148.589	-88.550	0.206	-0.060
-147.574	-71.890	-0.135	0.050
-146.560	-126.701	-0.022	0.003
-145.545	44.817	-0.226	0.204
-144.531	-153.492	-0.223	0.015
-143.516	-180.842	-0.255	-0.005
-142.502	-177.864	-0.318	-0.007
-141.487	800.000	0.060	-0.171
-140.472	202.432	-0.062	-0.094
-139.458	-200.000	0.014	-0.078
-138.443	-50.391	-0.203	-0.094
-137.429	-121.972	0.210	-0.034
-136.414	-74.642	-0.258	-0.091
-135.399	800.000	0.013	0.053
-134.385	-81.341	0.043	-0.014
-133.370	718.872	-0.042	0.111
-132.356	12.862	-0.156	0.118
-131.341	800.000	-0.051	0.153
-130.326	-116.722	-0.367	-0.066
-129.312	-200.000	-0.010	0.094
-128.297	441.750	-0.156	0.335
-127.283	-83.493	0.354	0.111
-126.268	-6.653	-0.310	0.207
-125.253	-52.325	0.250	-0.114
-124.239	241.385	-0.103	-0.168
-123.224	-185.469	0.474	0.007
-122.210	800.000	-0.052	0.173
-121.195	800.000	0.045	-0.153
-120.180	-114.701	0.398	-0.075
-119.166	-113.256	-0.546	-0.105
-118.151	50.473	-0.076	-0.071
-117.137	-131.205	0.034	-0.004
-116.122	532.750	-0.059	-0.137
-115.107	-24.724	0.185	-0.108
-114.093	-49.049	0.109	0.051
-113.078	-200.000	0.018	0.176
-112.064	-200.000	-0.043	-0.299
-111.049	-11.232	-0.166	0.107
-110.034	800.000	0.066	-0.188
-109.020	-13.228	0.136	-0.086
-108.005	40.833	-0.103	0.091
-106.991	524.224	0.152	-0.350
-105.976	434.466	0.182	0.387
-104.962	-44.903	-0.192	-0.094
-103.947	18.786	-0.188	-0.147
-102.932	-130.053	0.392	-0.053
-101.918	-99.215	-0.363	0.090
-100.903	615.033	-0.114	0.279
-99.889	187.025	-0.182	0.265
-98.874	138.233	0.190	-0.244
-97.859	-95.726	0.265	-0.069
-96.845	181.331	0.284	-0.409
-95.830	173.900	0.090	0.127
-94.816	143.264	-0.163	0.212
-93.801	220.003	0.188	0.295
-92.786	-81.618	-0.149	0.048
-91.772	41.733	0.128	-0.113
-90.757	718.766	0.142	-0.370
-89.743	-163.760	0.185	0.009
-88.728	-93.636	-0.300	0.081
-87.713	632.566	0.112	-0.279
-86.699	338.300	0.119	0.226
-85.684	-127.362	0.204	0.029
-84.670	120.878	-0.072	0.087
-83.655	-200.000	-0.067	0.326
-82.640	30.872	-0.305	-0.256
-81.626	-4.885	0.191	-0.129
-80.611	62.957	0.110	0.108
-79.597	117.813	-0.084	-0.101
-78.582	-200.000	0.018	-0.190
-77.567	800.000	-0.095	-0.388
-76.553	-131.449	0.275	-0.036
-75.538	-200.000	0.004	-0.159
-74.524	199.204	0.045	0.067
-73.509	-200.000	0.090	0.417
-72.494	116.657	-0.172	-0.206
-71.480	386.460	0.086	-0.174
-70.465	254.027	-0.155	-0.259
-69.451	20.560	-0.115	0.091
-68.436	2.203	0.042	0.030
-67.422	-91.484	0.147	0.041
-66.407	311.851	0.146	0.268
-65.392	338.920	-0.196	0.374
-64.378	41.487	0.085	0.075
-63.363	800.000	0.016	0.057
-62.349	-112.154	-0.469	-0.092
-61.334	157.001	-0.952	-1.287
-60.319	-67.162	0.699	0.270
-59.305	800.000	-0.407	-1.341
-58.290	194.858	0.855	1.269
-57.276	800.000	0.518	1.411
-56.261	-200.000	114.368	644.968
-55.246	471.161	1508.068	3318.434
-54.232	148.535	2667.913	3524.887
-53.217	102.603	2168.269	2480.838
-52.203	37.706	1696.942	1473.666
-51.188	30.453	1514.341	1265.837
-50.173	28.215	1490.418	1230.758
-49.159	52.119	1547.658	1442.364
-48.144	50.747	1563.305	1447.506
-47.130	30.623	1520.176	1271.676
-46.115	27.587	1505.300	1238.584
-45.100	27.439	1501.482	1234.393
-44.086	27.388	1499.822	1232.635
-43.071	27.384	1497.488	1230.636
-42.057	27.264	1496.489	1228.956
-41.042	27.331	1494.603	1227.815
-40.027	27.414	1493.137	1227.121
-39.013	27.251	1491.580	1224.696
-37.998	27.344	1490.792	1224.627
-36.984	27.383	1488.895	1223.276
-35.969	27.354	1487.826	1222.159
-34.954	27.323	1486.575	1220.876
-33.940	27.410	1484.915	1220.042
-32.925	27.335	1483.921	1218.677
-31.911	27.349	1482.603	1217.641
-30.896	27.375	1481.109	1216.541
-29.881	27.407	1479.664	1215.515
-28.867	27.397	1478.534	1214.477
-27.852	27.500	1477.268	1214.071
-26.838	27.395	1476.024	1212.304
-25.823	27.378	1474.471	1210.863
-24.809	27.481	1472.852	1210.174
-23.794	27.465	1471.529	1208.932
-22.779	27.374	1470.411	1207.359
-21.765	27.412	1469.331	1206.679
-20.750	27.448	1468.290	1206.015
-19.736	27.427	1467.437	1205.126
-18.721	27.362	1466.262	1203.681
-17.706	27.410	1465.156	1203.044
-16.692	27.417	1463.734	1201.876
-15.677	27.381	1462.882	1200.888
-14.663	27.326	1462.176	1199.900
-13.648	27.349	1461.352	1199.331
-12.633	27.347	1460.190	1198.318
-11.619	27.444	1459.342	1198.208
-10.604	27.374	1459.037	1197.452
-9.590	27.361	1457.802	1196.301
-8.575	27.312	1456.829	1195.138
-7.560	27.406	1455.688	1194.771
-6.546	27.332	1455.044	1193.710
-5.531	27.361	1454.275	1193.220
-4.517	27.391	1453.311	1192.579
-3.502	27.269	1452.665	1191.200
-2.487	27.325	1451.627	1190.674
-1.473	27.465	1449.701	1189.961
-0.458	27.332	1448.682	1188.208
0.556	25.517	1439.232	1176.736
1.571	22.200	1413.874	1134.529
2.586	18.407	1352.171	1061.469
3.600	16.752	1268.784	986.286
4.615	15.497	1224.433	944.670
5.629	13.671	1168.402	891.549
6.644	6.830	1086.094	794.372
7.659	1.162	1048.235	739.048
8.673	0.306	1042.367	730.698
9.688	0.206	1039.075	727.844
10.702	-0.031	1038.048	725.915
11.717	-0.001	1035.840	724.448
12.731	2.504	1037.243	737.440
13.746	9.673	1047.084	779.124
14.761	15.942	1054.649	815.116
15.775	17.127	1056.136	821.932
16.790	16.559	1053.820	817.313
17.804	15.550	1051.515	810.584
18.819	14.663	1050.071	805.125
19.834	14.273	1048.897	802.276
20.848	13.959	1047.691	799.769
21.863	13.719	1046.447	797.594
22.877	13.482	1046.087	796.108
23.892	13.172	1045.577	794.159
24.907	13.112	1044.662	793.110
25.921	13.238	1043.723	792.928
26.936	13.102	1043.502	792.038
27.950	13.240	1042.661	791.990
28.965	13.174	1042.062	791.152
29.980	13.265	1040.966	790.685
30.994	13.469	1040.229	791.027
32.009	13.501	1039.150	790.292
33.023	13.402	1039.149	789.748
34.038	13.389	1037.891	788.662
35.053	13.472	1036.538	787.956
36.067	13.469	1035.866	787.360
37.082	13.339	1035.356	786.288
38.096	13.264	1034.823	785.458
39.111	13.356	1033.651	784.935
40.126	13.527	1032.225	784.594
41.140	13.294	1031.990	783.239
42.155	13.335	1030.557	782.277
43.169	13.136	1029.816	780.707
44.184	13.106	1029.481	780.242
45.199	13.205	1027.896	779.438
46.213	13.119	1026.808	778.136
47.228	13.126	1026.203	777.645
48.242	13.263	1024.946	777.267
49.257	13.360	1023.749	776.743
50.271	13.264	1023.078	775.716
51.286	13.215	1022.470	774.957
52.301	13.342	1021.181	774.508
53.315	13.549	1020.255	774.706
54.330	13.285	1019.675	772.961
55.344	13.322	1018.499	772.174
56.359	13.305	1017.589	771.334
57.374	13.199	1016.854	770.218
58.388	13.279	1015.826	769.742
59.403	13.238	1015.020	768.873
60.417	13.247	1014.528	768.473
61.432	13.157	1014.000	767.587
62.447	13.116	1012.918	766.513
63.461	13.104	1012.555	766.115
64.476	13.134	1011.135	765.111
65.490	13.140	1010.303	764.439
66.505	13.190	1009.301	763.844
67.520	13.254	1008.477	763.451
68.534	13.224	1007.832	762.757
69.549	13.241	1007.534	762.542
70.563	13.163	1006.587	761.397
71.578	13.186	1005.986	760.981
72.593	12.956	1005.684	759.628
73.607	13.107	1004.160	759.100
74.622	13.026	1003.276	757.996
75.636	13.057	1002.839	757.740
76.651	13.029	1002.036	756.938
77.666	13.074	1000.998	756.291
78.680	13.189	999.976	755.982
79.695	13.099	999.648	755.252
80.709	13.046	999.069	754.509
81.724	13.022	998.480	753.888
82.739	13.128	997.607	753.644
83.753	13.239	996.590	753.316
84.768	13.249	995.982	752.832
85.782	13.255	995.422	752.372
86.797	13.420	994.281	752.194
87.812	13.538	993.530	752.095
88.826	13.363	993.121	750.924
89.841	13.226	992.344	749.647
90.855	13.297	991.440	749.219
91.870	13.364	990.686	748.890
92.884	13.425	989.840	748.456
93.899	13.469	988.954	747.922
94.914	13.449	988.306	747.274
95.928	13.461	987.628	746.751
96.943	13.452	987.050	746.204
97.957	13.372	986.633	745.462
98.972	13.435	985.238	744.628
99.987	13.350	984.578	743.682
101.001	13.439	983.766	743.399
102.016	13.474	983.257	743.109
103.030	13.376	982.007	741.656
104.045	13.423	981.259	741.237
105.060	13.383	980.119	740.133
106.074	13.368	979.417	739.470
107.089	13.345	978.504	738.614
108.103	13.166	977.968	737.344
109.118	13.194	976.837	736.550
110.133	13.243	976.051	736.112
111.147	13.157	975.132	734.968
112.162	13.346	973.846	734.778
113.176	13.320	973.444	734.290
114.191	13.386	972.260	733.627
115.206	13.378	971.677	733.084
116.220	13.348	970.851	732.263
117.235	13.369	970.125	731.745
118.249	13.292	969.221	730.660
119.264	13.382	968.208	730.226
120.279	13.156	967.733	728.808
121.293	13.273	966.965	728.681
122.308	13.344	966.041	728.231
123.322	13.323	965.162	727.413
124.337	13.345	963.806	726.421
125.352	13.259	963.015	725.387
126.366	13.354	961.766	724.797
127.381	13.157	961.037	723.319
128.395	13.117	959.882	722.212
129.410	13.228	958.614	721.679
130.424	13.203	958.075	721.102
131.439	13.225	956.962	720.296
132.454	13.295	956.165	719.937
133.468	13.395	955.491	719.799
134.483	13.339	954.887	719.040
135.497	13.390	954.106	718.609
136.512	13.270	953.679	717.702
137.527	13.327	952.872	717.277
138.541	13.330	951.730	716.369
139.556	13.386	950.839	715.877
140.570	13.346	950.645	715.493
141.585	13.293	949.772	714.545
142.600	13.438	949.021	714.544
143.614	13.499	948.432	714.301
144.629	13.388	947.409	712.986
145.643	13.570	946.506	713.026
146.658	13.468	946.300	712.371
147.673	13.451	944.637	710.983
148.687	13.585	943.720	710.803
149.702	13.345	943.340	709.428
150.716	13.419	942.202	708.823
151.731	13.500	941.031	708.230
152.746	13.535	940.692	708.061
153.760	13.418	940.133	707.074
154.775	13.392	939.666	706.550
155.789	13.485	938.640	706.116
156.804	13.585	937.843	705.877
157.819	13.561	937.057	705.123
158.833	13.457	936.790	704.414
159.848	13.584	935.832	704.171
160.862	13.762	934.854	704.129
161.877	13.732	934.356	703.566
162.892	13.694	933.183	702.460
163.906	13.623	932.438	701.537
164.921	13.385	932.086	700.201
165.935	13.541	931.107	700.064
166.950	13.440	930.312	698.978
167.964	13.544	929.322	698.609
168.979	13.570	928.254	697.857
169.994	13.520	927.212	696.802
171.008	13.587	926.352	696.374
172.023	13.613	925.598	695.855
173.037	13.609	925.284	695.539
174.052	13.710	924.116	695.023
175.067	13.662	923.593	694.368
176.081	13.652	922.599	693.517
177.096	13.686	921.672	692.901
178.110	13.614	921.202	692.186
179.125	13.730	920.205	691.861
180.140	13.599	919.420	690.661
181.154	13.709	919.210	690.901
182.169	13.825	918.191	690.556
183.183	13.679	917.925	689.690
184.198	13.924	916.671	689.702
185.213	13.874	916.319	689.169
186.227	13.858	915.658	688.544
187.242	13.906	915.340	688.445
188.256	13.901	914.492	687.725
189.271	13.955	913.595	687.214
190.286	13.947	912.890	686.588
191.300	13.836	912.423	685.718
192.315	13.739	911.905	684.869
193.329	13.572	911.215	683.600
194.344	13.842	910.188	683.879
195.359	13.736	909.672	682.998
196.373	13.767	909.746	683.120
197.388	13.902	908.904	682.981
198.402	14.069	908.821	683.545
199.417	14.029	907.825	682.571
200.432	14.080	907.719	682.640
201.446	14.307	906.849	682.857
202.461	14.066	906.881	681.832
203.475	13.989	906.426	681.115
204.490	14.266	905.283	681.329
205.504	14.137	904.616	680.242
206.519	14.059	903.932	679.345
207.534	14.194	902.792	678.979
208.548	14.184	902.298	678.506
209.563	14.109	901.623	677.635
210.577	14.111	901.291	677.332
211.592	14.112	900.349	676.569
212.607	14.204	899.695	676.394
213.621	14.259	899.379	676.317
214.636	14.215	898.575	675.474
215.650	14.258	897.969	675.134
216.665	14.273	897.151	674.521
217.680	14.350	896.943	674.615
218.694	14.516	896.393	674.813
219.709	14.450	895.731	673.990
220.723	14.422	895.387	673.559
221.738	14.332	894.639	672.572
222.753	14.312	893.913	671.888
223.767	14.312	893.166	671.266
224.782	14.406	892.187	670.848
225.796	14.437	891.594	670.470
226.811	14.479	890.864	670.027
227.826	14.470	890.260	669.479
228.840	14.381	889.530	668.512
229.855	14.520	888.848	668.500
230.869	14.436	888.403	667.767
231.884	14.419	887.645	667.072
232.899	14.404	887.088	666.534
233.913	14.318	886.248	665.501
234.928	14.553	885.474	665.800
235.942	14.379	884.924	664.632
236.957	14.482	884.109	664.371
237.972	14.416	883.556	663.633
238.986	14.455	883.085	663.378
240.001	14.432	882.555	662.829
241.015	14.447	881.823	662.279
242.030	14.436	881.075	661.615
243.045	14.596	880.542	661.794
244.059	14.476	879.583	660.538
245.074	14.585	879.150	660.587
246.088	14.617	878.746	660.350
247.103	14.540	878.006	659.430
248.117	14.813	877.137	659.797
249.132	14.624	876.880	658.799
250.147	14.694	876.434	658.685
251.161	14.899	875.345	658.615
252.176	14.692	874.925	657.425
253.190	15.113	873.755	658.143
254.205	14.963	873.498	657.300
255.220	14.925	873.031	656.741
256.234	15.010	872.207	656.399
257.249	14.832	871.973	655.467
258.263	14.981	871.136	655.361
259.278	14.963	870.813	654.992
260.293	14.896	870.292	654.279
261.307	14.991	869.641	654.101
262.322	15.083	868.994	653.919
263.336	15.241	868.255	653.921
264.351	15.096	867.631	652.826
265.366	15.225	866.786	652.637
266.380	15.195	866.700	652.398
267.395	15.184	865.651	651.507
268.409	15.161	864.991	650.861
269.424	15.177	864.332	650.370
270.439	15.265	863.824	650.274
271.453	15.229	862.881	649.368
272.468	15.006	862.558	648.201
273.482	15.182	861.642	648.138
274.497	15.163	860.955	647.488
275.512	15.221	860.433	647.262
276.526	15.237	859.599	646.641
277.541	15.140	859.156	645.877
278.555	15.324	858.287	645.875
279.570	15.257	858.082	645.404
280.585	15.362	857.624	645.407
281.599	15.468	856.770	645.114
282.614	15.452	856.192	644.560
283.628	15.519	855.331	644.113
284.643	15.347	855.239	643.327
285.657	15.388	854.680	643.006
286.672	15.330	854.467	642.568
287.687	15.461	853.749	642.472
288.701	15.481	853.090	641.995
289.716	15.363	852.699	641.193
290.730	15.421	852.043	640.864
291.745	15.457	851.578	640.596
292.760	15.606	850.431	640.246
293.774	15.475	849.860	639.259
294.789	15.495	849.417	638.947
295.803	15.611	848.678	638.773
296.818	15.424	848.459	637.840
297.833	15.602	847.358	637.634
298.847	15.513	847.179	637.104
299.862	15.662	845.990	636.718
300.876	15.667	845.387	636.226
301.891	15.637	844.877	635.675
302.906	15.562	844.249	634.862
303.920	15.723	843.483	634.838
304.935	15.852	842.658	634.648
305.949	15.841	842.472	634.411
306.964	15.887	841.744	633.977
307.979	15.704	841.519	633.063
308.993	15.762	840.614	632.544
310.008	15.854	840.036	632.400
311.022	15.872	839.643	632.115
312.037	15.817	839.262	631.565
313.052	15.816	838.727	631.103
314.066	15.918	837.791	630.727
315.081	15.716	837.560	629.741
316.095	15.859	836.483	629.410
317.110	15.923	836.307	629.458
318.125	15.783	835.549	628.311
319.139	15.728	835.358	627.908
320.154	15.926	834.983	628.307
321.168	15.852	834.465	627.588
322.183	15.854	833.528	626.836
323.197	15.854	832.954	626.345
324.212	15.956	832.733	626.503
325.227	15.816	832.183	625.516
326.241	15.926	831.701	625.506
327.256	15.982	831.013	625.139
328.270	15.877	830.540	624.342
329.285	16.061	829.599	624.259
330.300	15.887	829.314	623.346
331.314	15.953	828.752	623.114
332.329	15.993	827.951	622.602
333.343	15.925	827.644	622.066
334.358	16.059	826.899	621.945
335.373	15.964	826.527	621.258
336.387	16.120	826.133	621.482
337.402	16.141	825.624	621.125
338.416	16.162	824.727	620.471
339.431	16.150	824.142	619.932
340.446	16.280	823.739	620.051
341.460	16.183	823.354	619.348
342.475	16.144	822.863	618.783
343.489	16.218	822.222	618.517
344.504	16.279	821.454	618.109
345.519	16.507	820.943	618.504
346.533	16.375	820.589	617.697
347.548	16.413	820.098	617.414
348.562	16.351	819.416	616.617
349.577	16.290	819.095	616.102
350.592	16.304	818.434	615.598
351.606	16.417	817.983	615.618
352.621	16.292	817.651	614.859
353.635	16.249	817.437	614.485
354.650	16.237	817.075	614.115
355.665	16.313	816.542	613.938
356.679	16.486	815.651	613.842
357.694	16.474	815.439	613.584
358.708	16.320	814.963	612.613
359.723	16.559	814.136	612.803
360.738	16.593	813.549	612.429
361.752	16.442	813.246	611.602
362.767	16.571	812.417	611.391
363.781	16.554	812.528	611.357
364.796	16.668	811.812	611.175
365.810	16.553	811.667	610.600
366.825	16.654	811.295	610.629
367.840	16.856	810.439	610.659
368.854	16.678	810.240	609.812
369.869	16.695	809.733	609.438
370.883	16.727	809.404	609.251
371.898	16.612	808.837	608.360
372.913	16.724	808.169	608.204
373.927	16.730	807.688	607.810
374.942	16.688	807.214	607.248
375.956	16.863	806.416	607.223
376.971	16.824	805.909	606.648
377.986	16.852	805.493	606.380
379.000	16.982	804.918	606.358
380.015	16.995	804.221	605.825
381.029	16.846	803.867	604.974
382.044	16.894	803.284	604.653
383.059	16.945	802.581	604.252
384.073	16.870	802.499	603.870
385.088	16.900	801.525	603.192
386.102	16.936	800.984	602.860
387.117	16.966	800.042	602.202
388.132	16.905	799.869	601.801
389.146	16.981	799.501	601.740
390.161	16.943	799.283	601.391
391.175	16.955	799.107	601.247
392.190	17.062	798.828	601.364
393.205	17.022	797.986	600.534
394.219	17.131	797.489	600.492
395.234	16.986	797.259	599.755
396.248	17.016	796.358	599.129
397.263	16.898	796.259	598.586
398.278	16.966	795.507	598.206
399.292	16.968	794.998	597.778
400.307	16.962	794.751	597.518
401.321	16.930	794.561	597.207
402.336	16.966	794.223	597.028
403.350	16.971	793.877	596.731
404.365	17.045	793.305	596.510
405.380	17.113	792.595	596.164
406.394	17.222	792.347	596.305
407.409	17.272	791.888	596.082
408.423	17.207	791.274	595.341
409.438	17.485	790.424	595.622
410.453	17.342	790.590	595.191
411.467	17.312	790.130	594.691
412.482	17.337	789.879	594.534
413.496	17.442	788.942	594.142
414.511	17.317	788.776	593.530
415.526	17.581	788.494	594.186
416.540	17.409	788.431	593.487
417.555	17.489	788.177	593.520
418.569	17.488	787.287	592.795
419.584	17.455	786.399	591.959
420.599	17.625	786.023	592.214
421.613	111.400	1293.377	1477.282
422.628	95.564	1367.282	1477.365
