DTS Sentinel unit serial number:	SN413079Multiplexer serial number:	ORYXHardware model number:	OX4-SRSoftware version number:	ORYX F/W v4.00 Oryx Data Collector v3.7.2.0data status	okinstallation	princeton_trtdifferential loss correction	single-endedforward channel	channel 3reverse channel	N/Adate	2019/09/17time	22:56:35forward acquisition time	60.00reverse acquisition time	0.00gamma	496.2192k internal	0.2344k external	0.2344temperature offset calibration	0.9949default loss term (dB/km)	0.3790temperature slope calibration	1.0000multiplexer offset coefficient	1.0000multiplexer slope coefficient	1.0000fibre end	0.00T internal ref (°C)	24.84T ext. ref 1 (°C)	0.18T ext. ref 2 (°C)	18.01length (m)	temperature (°C)	Stokes	anti-Stokes-747.200	-63.120	0.136	0.056
-746.185	-200.000	-0.023	0.118
-745.171	-36.254	0.043	0.023
-744.156	-18.197	-0.295	0.185
-743.142	123.274	0.088	0.111
-742.127	-200.000	-0.030	0.313
-741.112	70.186	-0.440	0.454
-740.098	-200.000	0.011	0.177
-739.083	800.000	0.172	-0.478
-738.069	-200.000	0.010	0.104
-737.054	-112.766	-0.055	0.011
-736.039	-24.775	-0.443	-0.264
-735.025	-77.771	0.419	-0.145
-734.010	-105.060	-0.307	-0.070
-732.996	166.501	-0.115	-0.163
-731.981	317.433	-0.130	-0.246
-730.966	8.057	-0.400	-0.300
-729.952	-101.596	-0.293	0.071
-728.937	-200.000	-0.023	-0.194
-727.923	-46.153	-0.129	0.063
-726.908	800.000	-0.061	-0.250
-725.894	89.312	-0.095	-0.105
-724.879	800.000	-0.060	-0.212
-723.864	74.099	-0.211	0.222
-722.850	702.616	-0.063	0.167
-721.835	-200.000	-0.015	0.153
-720.821	-11.333	0.192	0.127
-719.806	-84.934	0.162	0.051
-718.791	-13.221	-0.130	-0.084
-717.777	-200.000	0.007	0.063
-716.762	32.188	-0.008	-0.007
-715.748	32.267	0.268	-0.231
-714.733	-18.530	-0.336	-0.210
-713.718	800.000	-0.120	-0.440
-712.704	-27.808	-0.265	-0.154
-711.689	-56.738	0.111	0.049
-710.675	65.769	-0.262	0.265
-709.660	-11.608	-0.142	-0.093
-708.645	-43.949	-0.020	-0.010
-707.631	286.054	-0.161	-0.290
-706.616	-96.099	-0.023	0.006
-705.602	-156.431	0.280	-0.017
-704.587	184.340	-0.048	-0.071
-703.572	95.767	-0.113	-0.129
-702.558	-72.212	0.263	0.097
-701.543	52.158	0.095	-0.091
-700.529	-83.416	-0.340	-0.109
-699.514	-200.000	-0.042	0.367
-698.499	-200.000	0.053	-0.345
-697.485	-198.601	0.098	-0.001
-696.470	59.084	-0.350	-0.344
-695.456	114.143	0.118	-0.144
-694.441	-106.185	-0.084	-0.019
-693.426	-200.000	-0.027	0.181
-692.412	564.749	0.109	0.265
-691.397	-130.474	-0.169	-0.023
-690.383	-67.914	-0.052	-0.020
-689.368	-3.349	0.454	0.316
-688.354	-42.650	0.310	-0.157
-687.339	224.580	-0.231	-0.373
-686.324	398.045	0.162	-0.338
-685.310	122.567	0.057	-0.071
-684.295	-59.170	-0.177	0.076
-683.281	30.224	0.102	-0.087
-682.266	29.174	0.102	-0.086
-681.251	-156.509	0.161	0.010
-680.237	28.443	0.109	-0.092
-679.222	57.505	0.153	-0.149
-678.208	-95.518	0.118	0.032
-677.193	-200.000	0.005	-0.072
-676.178	-200.000	-0.015	0.261
-675.164	-50.437	-0.188	0.089
-674.149	152.377	-0.088	0.119
-673.135	265.416	0.101	0.175
-672.120	166.439	0.123	-0.174
-671.105	-125.586	0.108	0.016
-670.091	-200.000	-0.016	-0.157
-669.076	-134.108	-0.129	-0.016
-668.062	800.000	-0.065	0.192
-667.047	800.000	0.100	0.297
-666.032	-200.000	-0.005	0.239
-665.018	-92.042	0.171	-0.048
-664.003	-200.000	-0.028	0.138
-662.989	178.799	-0.104	-0.152
-661.974	26.737	0.305	0.255
-660.959	-80.590	-0.203	-0.067
-659.945	800.000	0.008	-0.029
-658.930	271.418	0.180	-0.317
-657.916	-110.027	-0.343	-0.072
-656.901	2.122	0.109	-0.079
-655.886	-46.205	0.166	-0.081
-654.872	119.175	-0.128	0.157
-653.857	-113.573	0.199	0.039
-652.843	800.000	-0.137	-0.403
-651.828	800.000	0.078	-0.253
-650.814	-43.027	-0.063	0.032
-649.799	217.845	-0.066	-0.105
-648.784	318.717	0.040	-0.075
-647.770	601.260	0.096	-0.238
-646.755	19.464	0.143	-0.115
-645.741	800.000	-0.057	0.172
-644.726	239.433	-0.167	0.278
-643.711	-200.000	0.002	-0.287
-642.697	-64.369	-0.102	-0.041
-641.682	-116.626	0.237	-0.044
-640.668	-193.559	0.394	-0.003
-639.653	800.000	-0.041	-0.119
-638.638	-59.140	-0.270	-0.116
-637.624	-36.499	0.217	0.116
-636.609	469.332	-0.058	0.131
-635.595	-200.000	-0.010	-0.198
-634.580	-176.001	-0.109	0.003
-633.565	313.061	0.045	-0.084
-632.551	39.922	0.293	-0.262
-631.536	471.699	0.103	0.230
-630.522	-74.111	0.295	-0.106
-629.507	194.594	-0.114	-0.172
-628.492	312.801	-0.099	0.184
-627.478	-80.832	-0.119	0.039
-626.463	25.709	-0.263	-0.218
-625.449	368.043	0.111	-0.223
-624.434	135.393	-0.257	0.332
-623.419	355.956	-0.059	-0.117
-622.405	-126.838	-0.065	0.010
-621.390	-146.154	-0.115	0.010
-620.376	800.000	-0.116	-0.341
-619.361	-104.765	-0.104	0.024
-618.346	-16.268	-0.183	-0.116
-617.332	434.517	-0.054	-0.116
-616.317	-113.084	0.186	-0.037
-615.303	27.586	-0.143	-0.120
-614.288	-20.193	0.351	0.216
-613.273	276.858	-0.084	-0.148
-612.259	459.607	0.064	0.141
-611.244	206.262	-0.103	0.160
-610.230	75.049	-0.074	0.078
-609.215	800.000	-0.054	0.232
-608.201	-36.840	0.146	-0.078
-607.186	800.000	0.080	0.304
-606.171	800.000	-0.113	-0.462
-605.157	-166.455	-0.210	-0.009
-604.142	199.731	0.161	-0.246
-603.128	-34.183	-0.095	0.052
-602.113	40.354	-0.167	0.150
-601.098	118.707	-0.164	-0.202
-600.084	-38.620	0.239	0.126
-599.069	-200.000	-0.014	-0.294
-598.055	-70.102	0.223	0.084
-597.040	-200.000	0.032	0.212
-596.025	-200.000	-0.122	0.000
-595.011	-200.000	-0.016	-0.223
-593.996	-154.034	0.043	-0.003
-592.982	409.572	0.076	-0.159
-591.967	-50.171	-0.314	0.148
-590.952	-18.015	0.221	0.137
-589.938	93.935	0.098	0.110
-588.923	-200.000	0.008	0.233
-587.909	623.499	0.015	-0.038
-586.894	402.480	-0.063	0.131
-585.879	160.981	0.137	-0.190
-584.865	151.542	-0.078	-0.106
-583.850	-139.102	0.210	0.023
-582.836	293.217	0.143	-0.260
-581.821	25.449	-0.202	0.167
-580.806	-55.903	-0.218	-0.097
-579.792	-61.517	-0.366	0.153
-578.777	-27.518	-0.310	0.179
-577.763	121.264	0.107	-0.132
-576.748	-89.003	0.376	-0.111
-575.733	-105.417	-0.231	0.052
-574.719	-153.735	-0.417	-0.029
-573.704	465.611	-0.246	0.547
-572.690	57.355	0.225	0.218
-571.675	506.924	-0.047	-0.108
-570.661	800.000	0.050	-0.169
-569.646	-50.899	-0.057	-0.027
-568.631	-159.771	0.298	0.016
-567.617	41.928	-0.011	-0.010
-566.602	96.418	-0.033	0.038
-565.588	57.573	0.371	0.360
-564.573	-146.913	0.125	-0.011
-563.558	169.634	0.044	0.062
-562.544	676.636	-0.043	0.110
-561.529	117.826	-0.113	-0.138
-560.515	634.668	-0.045	0.112
-559.500	-200.000	0.051	0.283
-558.485	-134.309	-0.078	-0.010
-557.471	604.189	-0.060	0.149
-556.456	800.000	-0.078	-0.285
-555.442	800.000	0.025	-0.097
-554.427	173.273	0.131	0.188
-553.412	343.994	-0.077	0.151
-552.398	138.433	0.135	-0.176
-551.383	221.117	0.159	0.254
-550.369	-200.000	-0.010	0.130
-549.354	-18.181	-0.112	-0.070
-548.339	-190.114	0.121	-0.001
-547.325	95.773	-0.083	0.094
-546.310	732.396	-0.158	0.419
-545.296	-59.688	-0.182	-0.077
-544.281	-39.262	-0.093	-0.048
-543.266	-10.562	-0.218	0.143
-542.252	-200.000	0.014	0.075
-541.237	-34.715	0.097	-0.053
-540.223	6.696	-0.169	-0.125
-539.208	-200.000	0.021	0.243
-538.193	800.000	0.153	0.461
-537.179	-151.631	-0.351	0.026
-536.164	-69.356	0.049	0.019
-535.150	-85.603	0.079	0.024
-534.135	-200.000	0.003	-0.188
-533.121	-115.771	0.248	-0.046
-532.106	-200.000	-0.049	-0.249
-531.091	800.000	0.029	-0.109
-530.077	-18.889	-0.045	0.028
-529.062	58.190	0.289	-0.281
-528.048	26.665	-0.183	-0.152
-527.033	147.338	0.277	-0.369
-526.018	-95.012	0.129	0.035
-525.004	-127.924	-0.072	0.010
-523.989	206.054	-0.153	0.237
-522.975	-15.878	0.215	0.136
-521.960	800.000	0.006	0.017
-520.945	-96.259	0.225	-0.059
-519.931	4.216	0.225	0.163
-518.916	105.799	0.181	0.212
-517.902	-200.000	-0.021	0.202
-516.887	-133.182	-0.154	0.019
-515.872	349.197	0.019	-0.037
-514.858	358.954	0.056	-0.112
-513.843	-37.104	0.320	0.170
-512.829	-200.000	0.045	0.236
-511.814	-200.000	0.085	0.394
-510.799	-200.000	-0.032	-0.216
-509.785	-49.873	-0.323	0.152
-508.770	202.725	0.094	0.144
-507.756	800.000	-0.033	0.102
-506.741	47.670	0.168	0.156
-505.726	1.725	-0.068	0.048
-504.712	800.000	0.190	-0.686
-503.697	-60.848	0.268	0.113
-502.683	59.961	0.133	-0.130
-501.668	-61.532	0.167	-0.069
-500.653	14.485	0.278	0.215
-499.639	475.669	0.079	-0.176
-498.624	70.343	0.187	-0.191
-497.610	-27.464	0.217	-0.125
-496.595	-27.493	-0.386	0.222
-495.581	-112.953	0.196	0.038
-494.566	-14.462	0.204	-0.130
-493.551	-91.016	0.161	-0.046
-492.537	-68.960	-0.342	-0.131
-491.522	-89.079	-0.143	0.042
-490.508	-86.588	0.199	-0.061
-489.493	800.000	0.058	0.252
-488.478	224.766	-0.146	-0.233
-487.464	277.614	0.183	-0.323
-486.449	-75.636	-0.165	0.058
-485.435	-16.937	0.155	-0.097
-484.420	79.809	0.117	-0.124
-483.405	-24.258	-0.228	0.135
-482.391	-121.663	-0.178	0.029
-481.376	-70.838	-0.037	-0.014
-480.362	-200.000	-0.105	-0.459
-479.347	347.837	-0.055	0.106
-478.332	46.121	-0.150	0.137
-477.318	3.339	0.112	-0.080
-476.303	-111.804	0.205	0.041
-475.289	800.000	-0.036	-0.109
-474.274	269.094	0.047	-0.082
-473.259	-125.612	0.318	0.048
-472.245	-4.551	0.220	-0.150
-471.230	-55.198	0.121	-0.054
-470.216	38.319	0.067	-0.059
-469.201	-152.726	-0.143	0.010
-468.186	35.386	-0.186	-0.162
-467.172	-200.000	0.035	-0.173
-466.157	800.000	0.096	0.334
-465.143	-200.000	-0.026	0.382
-464.128	-200.000	0.006	-0.249
-463.113	312.795	0.058	0.109
-462.099	67.030	0.386	0.390
-461.084	114.024	-0.244	-0.294
-460.070	126.986	0.258	0.324
-459.055	225.654	-0.061	-0.098
-458.040	-85.507	0.198	-0.061
-457.026	16.534	0.017	0.014
-456.011	-200.000	-0.001	-0.279
-454.997	-111.153	0.374	-0.076
-453.982	-74.952	-0.418	-0.148
-452.968	-87.661	0.176	-0.053
-451.953	-73.775	0.022	-0.008
-450.938	52.462	-0.206	0.195
-449.924	-68.034	0.298	0.115
-448.909	125.092	-0.079	-0.098
-447.895	800.000	0.071	0.245
-446.880	1.076	-0.076	-0.054
-445.865	160.524	-0.099	-0.137
-444.851	800.000	-0.127	-0.438
-443.836	525.323	0.014	-0.033
-442.822	149.705	-0.090	-0.120
-441.807	800.000	-0.072	0.238
-440.792	108.637	-0.138	0.163
-439.778	-132.992	0.257	0.032
-438.763	-135.491	0.273	-0.032
-437.749	-134.172	-0.194	-0.024
-436.734	364.073	-0.035	0.070
-435.719	16.995	-0.053	-0.041
-434.705	-43.124	0.249	0.125
-433.690	-170.214	-0.069	0.002
-432.676	8.057	0.323	0.240
-431.661	588.412	0.033	0.080
-430.646	800.000	0.043	-0.183
-429.632	333.063	-0.048	-0.091
-428.617	-3.128	-0.348	0.240
-427.603	259.514	-0.078	0.133
-426.588	-104.779	0.404	0.092
-425.573	60.453	0.259	-0.254
-424.559	248.586	0.156	0.261
-423.544	800.000	0.098	-0.295
-422.530	-75.105	-0.154	-0.054
-421.515	677.974	-0.074	0.191
-420.500	-51.277	0.202	0.093
-419.486	-157.256	-0.323	0.019
-418.471	-83.141	-0.424	0.135
-417.457	-27.507	-0.256	0.147
-416.442	-65.961	-0.066	0.026
-415.428	-108.387	-0.454	-0.097
-414.413	-200.000	0.067	0.401
-413.398	-39.640	-0.153	0.079
-412.384	-76.247	0.191	0.066
-411.369	54.394	-0.108	0.103
-410.355	9.706	0.358	0.268
-409.340	800.000	0.056	0.153
-408.325	30.785	-0.163	-0.138
-407.311	-200.000	-0.003	-0.565
-406.296	25.450	-0.203	-0.167
-405.282	609.441	0.094	-0.232
-404.267	82.212	-0.083	-0.089
-403.252	-50.483	-0.382	-0.178
-402.238	-36.237	-0.344	-0.183
-401.223	116.103	-0.164	0.199
-400.209	-200.000	-0.042	0.207
-399.194	-200.000	0.101	0.485
-398.179	-189.652	0.288	0.003
-397.165	-84.835	-0.094	0.029
-396.150	-173.470	0.414	0.012
-395.136	206.740	-0.112	0.172
-394.121	88.545	-0.009	-0.010
-393.106	-49.842	-0.134	-0.063
-392.092	732.630	0.204	0.539
-391.077	49.747	0.229	0.213
-390.063	-44.501	0.395	0.195
-389.048	202.326	-0.139	-0.212
-388.033	-200.000	0.006	-0.289
-387.019	-59.328	0.258	-0.110
-386.004	800.000	-0.069	-0.217
-384.990	65.006	-0.093	-0.093
-383.975	-200.000	0.043	0.316
-382.960	-200.000	0.008	-0.266
-381.946	-95.951	-0.329	0.087
-380.931	800.000	0.120	0.421
-379.917	498.685	-0.050	-0.114
-378.902	-38.387	0.082	0.043
-377.888	-200.000	-0.029	-0.166
-376.873	-34.205	-0.161	-0.087
-375.858	-200.000	-0.022	0.117
-374.844	531.720	-0.057	-0.133
-373.829	10.832	-0.060	0.045
-372.815	78.642	0.056	-0.059
-371.800	-200.000	0.011	0.305
-370.785	101.579	-0.057	0.066
-369.771	5.102	0.167	0.122
-368.756	800.000	-0.076	0.274
-367.742	-96.931	0.282	0.073
-366.727	326.385	0.113	0.214
-365.712	-118.278	0.177	-0.031
-364.698	-200.000	0.023	-0.165
-363.683	12.473	-0.050	-0.038
-362.669	315.748	0.229	-0.426
-361.654	177.981	-0.012	0.017
-360.639	800.000	0.087	-0.301
-359.625	-162.437	0.158	-0.008
-358.610	-91.290	0.274	-0.077
-357.596	193.812	-0.314	0.469
-356.581	189.075	0.109	0.162
-355.566	4.482	-0.286	-0.207
-354.552	-34.529	-0.345	-0.186
-353.537	800.000	-0.068	0.249
-352.523	-200.000	-0.079	0.387
-351.508	-200.000	-0.033	-0.215
-350.493	-154.109	0.459	-0.031
-349.479	158.164	0.120	-0.164
-348.464	-75.122	-0.097	0.034
-347.450	79.574	0.192	0.203
-346.435	800.000	0.076	0.304
-345.420	38.017	0.157	0.137
-344.406	435.706	-0.147	-0.315
-343.391	-114.510	0.138	0.026
-342.377	-200.000	-0.066	-0.326
-341.362	-179.363	-0.089	0.002
-340.348	-200.000	0.040	0.188
-339.333	169.819	0.197	-0.277
-338.318	-200.000	-0.011	-0.083
-337.304	-200.000	0.007	-0.095
-336.289	539.027	-0.101	-0.236
-335.275	2.022	0.071	-0.051
-334.260	-46.835	-0.107	-0.051
-333.245	-42.866	-0.231	-0.116
-332.231	-152.407	-0.114	0.008
-331.216	-200.000	0.033	-0.188
-330.202	253.686	0.178	-0.300
-329.187	151.013	0.072	-0.096
-328.172	76.693	-0.190	-0.199
-327.158	-200.000	0.016	-0.224
-326.143	800.000	-0.084	0.315
-325.129	-200.000	-0.013	-0.143
-324.114	-156.330	0.168	-0.010
-323.099	-63.922	-0.098	-0.039
-322.085	-42.223	0.133	0.067
-321.070	-79.676	-0.307	0.102
-320.056	800.000	-0.101	0.355
-319.041	-9.775	0.058	0.038
-318.026	-120.541	-0.441	0.074
-317.012	-200.000	0.033	0.200
-315.997	-200.000	0.060	0.292
-314.983	-43.417	-0.064	-0.032
-313.968	47.334	-0.215	0.197
-312.953	8.140	0.135	-0.100
-311.939	-31.899	-0.178	-0.098
-310.924	-200.000	0.019	-0.180
-309.910	-200.000	0.009	-0.049
-308.895	-55.908	-0.109	-0.048
-307.880	703.598	0.120	-0.311
-306.866	-25.498	-0.318	-0.185
-305.851	-30.749	0.262	-0.146
-304.837	800.000	-0.062	-0.186
-303.822	-50.635	0.046	-0.021
-302.807	-200.000	0.024	-0.255
-301.793	18.873	-0.041	-0.032
-300.778	-0.123	-0.324	0.227
-299.764	-200.000	0.039	-0.203
-298.749	-200.000	0.009	0.123
-297.735	-200.000	0.007	-0.277
-296.720	800.000	-0.026	-0.083
-295.705	-100.941	-0.323	-0.078
-294.691	296.891	0.166	-0.300
-293.676	-78.268	-0.095	-0.032
-292.662	-9.422	0.337	-0.221
-291.647	509.185	-0.063	-0.144
-290.632	491.417	0.108	0.243
-289.618	-200.000	0.006	-0.211
-288.603	-158.071	0.085	-0.005
-287.589	-200.000	-0.005	-0.088
-286.574	16.701	0.397	-0.309
-285.559	-95.701	-0.116	-0.030
-284.545	800.000	-0.143	0.432
-283.530	30.597	0.205	-0.172
-282.516	546.638	-0.049	0.116
-281.501	800.000	0.027	-0.085
-280.486	95.557	-0.084	0.094
-279.472	-148.651	-0.186	0.015
-278.457	-46.611	-0.273	-0.131
-277.443	273.702	-0.053	-0.091
-276.428	7.453	-0.024	0.018
-275.413	-169.054	-0.115	0.004
-274.399	-200.000	0.030	-0.275
-273.384	30.251	0.102	0.086
-272.370	800.000	-0.031	0.129
-271.355	-69.858	-0.342	0.128
-270.340	-124.666	-0.139	-0.021
-269.326	-93.871	-0.291	-0.079
-268.311	-81.222	-0.344	-0.112
-267.297	800.000	-0.054	-0.228
-266.282	-106.154	-0.216	0.048
-265.267	-104.697	-0.123	-0.028
-264.253	-12.911	0.149	0.095
-263.238	-129.412	0.143	-0.020
-262.224	54.936	-0.368	-0.349
-261.209	-86.643	0.210	-0.063
-260.195	84.197	0.277	-0.297
-259.180	299.106	0.124	0.225
-258.165	-22.169	-0.084	-0.050
-257.151	-72.431	-0.068	0.025
-256.136	-129.000	0.177	0.024
-255.122	-103.228	0.324	-0.075
-254.107	-14.252	-0.159	-0.100
-253.092	82.619	0.292	-0.312
-252.078	-77.914	-0.043	-0.015
-251.063	130.542	0.154	0.194
-250.049	-62.250	-0.156	-0.064
-249.034	800.000	-0.150	0.425
-248.019	800.000	-0.046	-0.156
-247.005	-159.100	-0.279	0.015
-245.990	-200.000	-0.023	-0.187
-244.976	-132.876	-0.212	-0.027
-243.961	40.482	-0.170	0.151
-242.946	800.000	-0.035	0.099
-241.932	800.000	0.102	-0.319
-240.917	-200.000	0.006	0.054
-239.903	-33.376	-0.187	0.101
-238.888	23.807	0.398	-0.322
-237.873	-60.483	0.325	0.135
-236.859	-192.247	0.218	-0.002
-235.844	-26.046	0.259	0.149
-234.830	16.162	-0.197	-0.153
-233.815	-124.286	0.120	0.018
-232.800	-200.000	-0.041	-0.274
-231.786	-200.000	-0.016	-0.132
-230.771	-85.602	0.164	0.050
-229.757	-150.375	-0.250	-0.019
-228.742	-200.000	0.015	0.327
-227.727	158.819	0.198	-0.270
-226.713	296.023	-0.033	0.059
-225.698	173.497	0.088	0.124
-224.684	-7.756	-0.042	0.028
-223.669	800.000	0.063	-0.176
-222.655	800.000	0.107	0.427
-221.640	584.583	-0.187	0.452
-220.625	-139.379	-0.038	-0.004
-219.611	450.549	-0.024	-0.052
-218.596	108.105	0.101	0.118
-217.582	182.884	-0.227	0.328
-216.567	800.000	0.023	0.071
-215.552	-61.511	0.185	0.076
-214.538	800.000	-0.006	0.021
-213.523	-116.528	-0.202	-0.037
-212.509	-200.000	-0.025	0.354
-211.494	-144.505	-0.108	0.010
-210.479	320.592	0.132	0.246
-209.465	346.018	-0.016	0.030
-208.450	-200.000	-0.011	-0.142
-207.436	800.000	-0.038	0.110
-206.421	176.205	0.099	-0.141
-205.406	130.883	0.045	0.056
-204.392	626.855	-0.094	0.232
-203.377	370.471	-0.039	0.077
-202.363	-24.097	-0.120	-0.070
-201.348	800.000	-0.051	-0.192
-200.333	3.402	0.255	0.182
-199.319	-200.000	-0.037	-0.282
-198.304	215.416	0.062	-0.097
-197.290	-75.720	-0.148	-0.051
-196.275	343.267	-0.074	0.141
-195.260	341.183	0.011	-0.021
-194.246	800.000	0.067	0.248
-193.231	-132.540	0.221	-0.028
-192.217	-143.506	-0.321	-0.030
-191.202	94.717	0.160	0.178
-190.187	-71.849	-0.313	-0.114
-189.173	-48.465	0.287	0.135
-188.158	13.824	0.201	-0.153
-187.144	-200.000	0.016	-0.124
-186.129	146.041	-0.030	0.040
-185.114	-200.000	-0.048	0.285
-184.100	79.978	-0.078	0.082
-183.085	20.216	-0.091	0.072
-182.071	79.536	-0.050	-0.052
-181.056	-151.062	-0.107	0.008
-180.042	22.245	-0.157	0.125
-179.027	-80.191	-0.250	-0.082
-178.012	800.000	0.097	0.337
-176.998	348.310	-0.065	-0.126
-175.983	86.354	-0.236	-0.255
-174.969	-55.614	-0.124	-0.054
-173.954	-200.000	0.002	0.207
-172.939	-71.422	-0.272	-0.100
-171.925	200.703	0.122	-0.183
-170.910	51.513	-0.208	0.194
-169.896	800.000	-0.051	0.193
-168.881	324.581	0.098	0.183
-167.866	-200.000	0.010	0.343
-166.852	-181.003	-0.453	0.009
-165.837	193.463	-0.171	-0.253
-164.823	-39.198	-0.253	-0.130
-163.808	137.471	0.096	0.123
-162.793	-24.568	0.112	-0.065
-161.779	133.948	0.205	-0.260
-160.764	27.932	0.255	-0.210
-159.750	-80.393	0.369	-0.120
-158.735	-200.000	-0.008	0.037
-157.720	16.780	-0.088	0.068
-156.706	320.897	0.062	0.116
-155.691	-58.847	-0.230	0.097
-154.677	-200.000	-0.011	-0.104
-153.662	-87.701	0.065	-0.019
-152.647	473.299	0.030	-0.065
-151.633	-87.244	0.349	0.104
-150.618	62.059	0.164	-0.160
-149.604	-116.891	-0.095	0.017
-148.589	800.000	-0.032	-0.107
-147.574	100.296	0.120	-0.136
-146.560	-72.793	-0.310	0.112
-145.545	-8.417	-0.308	-0.202
-144.531	800.000	0.045	-0.139
-143.516	800.000	0.066	0.282
-142.502	-27.036	-0.349	0.199
-141.487	-86.879	0.319	-0.095
-140.472	-121.213	0.424	-0.069
-139.458	-82.600	-0.098	0.031
-138.443	94.109	0.070	0.078
-137.429	-153.252	-0.035	0.002
-136.414	255.454	0.140	-0.234
-135.399	800.000	-0.055	0.172
-134.385	-37.087	-0.098	0.051
-133.370	19.964	0.148	0.117
-132.356	52.904	0.308	0.288
-131.341	-160.874	-0.189	-0.010
-130.326	-107.687	0.341	0.073
-129.312	-91.239	0.264	-0.074
-128.297	-53.889	0.130	-0.058
-127.283	543.020	0.179	-0.418
-126.268	215.740	0.113	0.176
-125.253	246.060	-0.137	-0.226
-124.239	800.000	-0.028	-0.088
-123.224	800.000	0.074	-0.267
-122.210	384.707	-0.177	0.356
-121.195	586.558	-0.091	0.219
-120.180	-70.893	-0.419	-0.154
-119.166	546.945	0.054	-0.127
-118.151	5.044	0.395	-0.284
-117.137	800.000	-0.046	0.153
-116.122	-18.035	-0.276	-0.169
-115.107	-200.000	-0.020	0.348
-114.093	-61.404	-0.171	-0.070
-113.078	436.243	-0.151	-0.320
-112.064	800.000	-0.012	-0.038
-111.049	-200.000	-0.057	-0.365
-110.034	594.571	-0.100	0.241
-109.020	-200.000	0.027	0.301
-108.005	-5.010	-0.175	-0.118
-106.991	68.717	0.124	-0.125
-105.976	129.664	0.133	-0.166
-104.962	-86.239	-0.167	0.050
-103.947	47.541	0.173	-0.157
-102.932	36.556	-0.249	0.215
-101.918	-156.064	0.419	0.026
-100.903	236.746	-0.164	0.266
-99.889	-132.480	0.069	0.009
-98.874	-5.665	0.306	0.205
-97.859	-62.804	0.180	0.073
-96.845	-105.393	0.125	0.028
-95.830	-70.581	-0.365	0.135
-94.816	-43.071	-0.336	-0.166
-93.801	263.814	0.117	0.199
-92.786	-200.000	-0.044	0.402
-91.772	800.000	0.083	0.245
-90.757	8.361	0.215	0.158
-89.743	265.071	-0.046	0.079
-88.728	-134.413	0.118	-0.014
-87.713	800.000	-0.063	0.207
-86.699	114.309	0.124	0.148
-85.684	-200.000	-0.049	0.282
-84.670	-95.665	-0.139	-0.036
-83.655	188.165	0.070	-0.101
-82.640	-104.701	0.195	-0.044
-81.626	800.000	0.058	0.219
-80.611	800.000	0.107	0.317
-79.597	11.387	-0.340	0.254
-78.582	-164.911	0.079	0.003
-77.567	12.765	-0.281	-0.211
-76.553	-2.468	0.152	0.104
-75.538	-92.574	-0.131	0.036
-74.524	-200.000	0.014	-0.256
-73.509	8.974	-0.117	0.086
-72.494	103.264	0.053	0.061
-71.480	-200.000	0.055	-0.379
-70.465	68.029	-0.231	-0.231
-69.451	-200.000	0.008	0.041
-68.436	-125.352	0.271	0.040
-67.422	-113.573	0.306	-0.058
-66.407	567.911	-0.115	0.273
-65.392	-20.455	0.352	0.211
-64.378	746.318	-0.069	-0.181
-63.363	-117.924	0.132	0.023
-62.349	800.000	0.076	0.287
-61.334	-46.469	-0.985	-0.471
-60.319	45.287	0.782	0.703
-59.305	-200.000	-0.169	-1.518
-58.290	412.234	0.433	0.896
-57.276	800.000	0.450	1.589
-56.261	-200.000	119.907	620.334
-55.246	418.426	1529.126	3184.807
-54.232	150.174	2672.516	3532.470
-53.217	96.799	2147.406	2396.665
-52.203	34.747	1676.833	1428.126
-51.188	27.961	1496.161	1228.752
-50.173	25.920	1472.401	1195.668
-49.159	47.729	1541.221	1400.897
-48.144	45.731	1554.575	1399.358
-47.130	27.937	1504.560	1235.286
-46.115	25.055	1489.205	1203.316
-45.100	24.878	1485.503	1199.091
-44.086	24.933	1483.182	1197.538
-43.071	24.882	1481.897	1196.108
-42.057	24.786	1480.217	1194.063
-41.042	24.983	1477.970	1193.516
-40.027	24.843	1477.261	1191.968
-39.013	24.821	1475.797	1190.595
-37.998	24.773	1474.868	1189.477
-36.984	24.753	1473.504	1188.196
-35.969	24.829	1472.262	1187.651
-34.954	24.854	1470.576	1186.412
-33.940	24.737	1469.529	1184.741
-32.925	24.872	1467.758	1184.162
-31.911	24.842	1466.850	1183.180
-30.896	24.957	1465.435	1182.755
-29.881	24.927	1464.187	1181.505
-28.867	24.949	1462.895	1180.558
-27.852	24.881	1461.442	1178.892
-26.838	24.913	1459.828	1177.751
-25.823	24.855	1458.178	1175.991
-24.809	24.861	1456.765	1174.846
-23.794	24.837	1455.781	1173.849
-22.779	24.889	1454.321	1172.965
-21.765	24.843	1453.723	1172.139
-20.750	24.913	1452.742	1171.756
-19.736	24.836	1451.767	1170.420
-18.721	24.771	1451.107	1169.414
-17.706	24.941	1448.926	1168.719
-16.692	24.835	1448.099	1167.315
-15.677	24.806	1447.271	1166.415
-14.663	24.848	1446.505	1166.027
-13.648	24.803	1445.778	1165.102
-12.633	24.810	1444.521	1164.084
-11.619	24.867	1443.324	1163.448
-10.604	24.827	1443.085	1162.948
-9.590	24.806	1442.473	1162.274
-8.575	24.850	1441.368	1161.621
-7.560	24.847	1440.536	1160.885
-6.546	24.911	1439.427	1160.362
-5.531	24.851	1438.436	1159.122
-4.517	24.843	1437.858	1158.564
-3.502	24.825	1436.899	1157.629
-2.487	24.827	1435.465	1156.440
-1.473	24.734	1435.201	1155.579
-0.458	24.743	1433.883	1154.527
0.556	23.032	1423.351	1142.592
1.571	19.740	1399.488	1102.385
2.586	16.138	1337.772	1031.681
3.600	14.545	1255.867	959.274
4.615	13.435	1212.978	920.268
5.629	11.694	1157.228	868.649
6.644	5.841	1076.954	779.314
7.659	0.836	1041.496	729.496
8.673	0.303	1036.120	723.109
9.688	0.133	1032.716	719.858
10.702	0.174	1031.048	718.828
11.717	0.100	1029.301	717.195
12.731	2.111	1030.345	727.446
13.746	8.564	1039.100	764.484
14.761	14.765	1047.017	800.025
15.775	16.807	1048.560	810.917
16.790	16.521	1047.169	808.401
17.804	15.533	1045.047	801.975
18.819	14.643	1043.245	796.278
19.834	14.270	1042.070	793.533
20.848	13.907	1041.540	791.331
21.863	13.708	1040.228	789.317
22.877	13.424	1039.931	787.668
23.892	13.212	1038.897	785.807
24.907	13.232	1037.687	784.920
25.921	13.146	1037.382	784.212
26.936	13.180	1036.842	783.896
27.950	13.222	1035.788	783.227
28.965	13.201	1035.254	782.655
29.980	13.322	1034.281	782.424
30.994	13.276	1033.639	781.648
32.009	13.343	1032.858	781.305
33.023	13.440	1031.833	780.918
34.038	13.442	1031.400	780.532
35.053	13.361	1030.493	779.395
36.067	13.336	1029.691	778.600
37.082	13.317	1028.676	777.679
38.096	13.286	1028.302	777.177
39.111	13.419	1027.417	777.064
40.126	13.388	1026.316	776.017
41.140	13.347	1025.175	774.893
42.155	13.218	1023.997	773.335
43.169	13.200	1023.246	772.612
44.184	13.212	1021.865	771.560
45.199	13.088	1021.094	770.330
46.213	13.020	1020.222	769.288
47.228	13.227	1019.184	769.398
48.242	13.267	1018.094	768.696
49.257	13.282	1017.104	767.949
50.271	13.254	1016.117	767.004
51.286	13.385	1015.556	767.120
52.301	13.388	1014.595	766.343
53.315	13.272	1014.007	765.293
54.330	13.164	1013.536	764.369
55.344	13.127	1012.601	763.428
56.359	13.196	1011.431	762.794
57.374	13.307	1010.383	762.451
58.388	13.282	1009.568	761.649
59.403	13.273	1008.633	760.836
60.417	13.222	1007.948	760.017
61.432	13.175	1007.265	759.219
62.447	13.058	1007.019	758.431
63.461	13.100	1006.216	757.953
64.476	13.123	1005.132	757.175
65.490	13.001	1004.555	756.110
66.505	13.100	1003.510	755.714
67.520	13.129	1002.882	755.303
68.534	13.170	1001.976	754.745
69.549	13.173	1001.317	754.194
70.563	13.182	1000.191	753.322
71.578	13.189	999.498	752.764
72.593	13.200	998.383	751.906
73.607	13.131	997.951	751.200
74.622	13.222	996.785	750.669
75.636	13.038	996.341	749.437
76.651	13.144	995.092	748.911
77.666	13.115	994.910	748.573
78.680	13.097	994.049	747.778
79.695	13.260	993.339	747.915
80.709	13.181	992.697	747.011
81.724	13.133	991.888	746.119
82.739	13.213	991.126	745.842
83.753	13.305	990.013	745.353
84.768	13.206	989.812	744.687
85.782	13.294	989.081	744.470
86.797	13.421	987.952	744.125
87.812	13.465	987.150	743.649
88.826	13.231	986.588	742.113
89.841	13.245	985.557	741.331
90.855	13.277	985.024	741.009
91.870	13.267	984.751	740.693
92.884	13.358	983.644	740.205
93.899	13.328	983.089	739.585
94.914	13.313	982.381	738.922
95.928	13.490	981.613	739.068
96.943	13.331	981.012	737.838
97.957	13.337	979.950	737.003
98.972	13.386	978.898	736.363
99.987	13.320	978.862	735.980
101.001	13.523	977.399	735.717
102.016	13.314	977.439	734.751
103.030	13.270	976.349	733.673
104.045	13.356	975.211	733.135
105.060	13.413	974.157	732.527
106.074	13.352	972.488	730.938
107.089	13.380	971.925	730.574
108.103	13.270	971.274	729.536
109.118	13.146	970.755	728.534
110.133	13.305	969.741	728.409
111.147	13.203	968.867	727.241
112.162	13.313	968.049	727.044
113.176	13.175	967.704	726.115
114.191	13.317	966.134	725.496
115.206	13.275	965.545	724.807
116.220	13.321	964.798	724.383
117.235	13.411	964.053	724.152
118.249	13.342	963.124	723.087
119.264	13.249	962.329	722.020
120.279	13.342	961.249	721.552
121.293	13.247	961.107	720.969
122.308	13.243	960.080	720.116
123.322	13.142	959.531	719.203
124.337	13.266	958.436	718.855
125.352	13.327	956.832	717.855
126.366	13.205	956.316	716.875
127.381	13.307	954.928	716.212
128.395	13.286	953.569	715.041
129.410	13.084	953.098	713.752
130.424	13.130	952.630	713.534
131.439	13.181	951.518	712.859
132.454	13.317	950.261	712.439
133.468	13.211	949.975	711.705
134.483	13.286	949.166	711.362
135.497	13.364	948.108	710.841
136.512	13.297	947.400	709.959
137.527	13.299	946.827	709.475
138.541	13.377	945.882	709.039
139.556	13.362	945.435	708.576
140.570	13.280	944.699	707.609
141.585	13.418	943.707	707.395
142.600	13.484	943.134	707.184
143.614	13.450	942.059	706.169
144.629	13.411	941.989	705.892
145.643	13.565	940.797	705.588
146.658	13.573	940.074	705.019
147.673	13.578	938.857	704.067
148.687	13.504	938.163	703.170
149.702	13.480	937.475	702.489
150.716	13.473	936.551	701.705
151.731	13.540	935.802	701.364
152.746	13.443	935.201	700.443
153.760	13.391	935.082	700.073
154.775	13.433	934.002	699.376
155.789	13.488	933.059	698.840
156.804	13.551	932.453	698.592
157.819	13.539	931.490	697.760
158.833	13.662	930.633	697.571
159.848	13.571	930.296	696.875
160.862	13.701	929.465	696.735
161.877	13.659	928.585	695.839
162.892	13.703	927.653	695.265
163.906	13.493	927.237	694.012
164.921	13.523	926.422	693.467
165.935	13.556	925.475	692.834
166.950	13.641	924.302	692.247
167.964	13.548	923.456	691.167
168.979	13.717	922.358	690.986
169.994	13.640	921.418	689.902
171.008	13.714	920.464	689.434
172.023	13.536	919.982	688.272
173.037	13.654	919.404	688.267
174.052	13.723	918.940	688.148
175.067	13.785	917.876	687.547
176.081	13.642	917.050	686.274
177.096	13.661	916.192	685.648
178.110	13.631	915.518	684.959
179.125	13.677	914.795	684.550
180.140	13.753	913.600	683.906
181.154	13.812	913.118	683.728
182.169	13.770	912.797	683.258
183.183	13.879	911.901	682.974
184.198	13.851	911.180	682.259
185.213	13.889	910.660	681.963
186.227	13.792	910.192	681.155
187.242	13.943	909.976	681.552
188.256	13.899	909.106	680.661
189.271	13.906	908.660	680.296
190.286	14.026	907.279	679.692
191.300	13.819	907.124	678.669
192.315	13.800	906.095	677.761
193.329	13.663	905.376	676.604
194.344	13.709	904.923	676.394
195.359	13.816	904.333	676.329
196.373	13.857	903.735	675.988
197.388	13.863	903.161	675.526
198.402	14.072	902.337	675.697
199.417	14.173	902.038	675.825
200.432	14.046	902.102	675.297
201.446	14.163	901.155	675.003
202.461	14.246	900.613	674.875
203.475	14.105	900.465	674.132
204.490	14.129	899.749	673.632
205.504	14.125	898.659	672.741
206.519	14.150	898.193	672.434
207.534	14.226	897.491	672.156
208.548	14.141	896.709	671.168
209.563	14.196	895.818	670.664
210.577	14.185	895.246	670.131
211.592	14.231	894.727	669.870
212.607	14.234	894.302	669.503
213.621	14.241	893.773	669.077
214.636	14.224	893.145	668.480
215.650	14.279	892.239	667.962
216.665	14.288	891.761	667.581
217.680	14.293	891.084	667.036
218.694	14.338	890.587	666.784
219.709	14.408	890.041	666.597
220.723	14.444	889.441	666.230
221.738	14.328	888.785	665.218
222.753	14.256	888.293	664.505
223.767	14.285	887.243	663.777
224.782	14.453	886.490	663.823
225.796	14.343	885.802	662.809
226.811	14.319	885.350	662.318
227.826	14.409	884.469	661.957
228.840	14.378	883.888	661.343
229.855	14.340	883.134	660.570
230.869	14.516	882.037	660.387
231.884	14.315	881.944	659.463
232.899	14.474	880.989	659.318
233.913	14.367	880.797	658.696
234.928	14.373	879.899	657.987
235.942	14.493	878.995	657.725
236.957	14.581	878.287	657.487
237.972	14.597	877.151	656.641
238.986	14.500	877.032	656.113
240.001	14.501	876.374	655.565
241.015	14.562	875.321	654.960
242.030	14.454	875.416	654.547
243.045	14.501	874.277	653.824
244.059	14.603	873.730	653.755
245.074	14.690	873.266	653.692
246.088	14.605	873.017	653.114
247.103	14.675	872.012	652.579
248.117	14.635	871.479	651.966
249.132	14.637	870.976	651.540
250.147	14.802	870.544	651.800
251.161	14.858	869.655	651.297
252.176	15.009	868.979	651.322
253.190	14.999	868.353	650.753
254.205	14.966	867.759	650.123
255.220	14.873	867.488	649.500
256.234	14.909	866.821	649.084
257.249	15.088	865.948	649.067
258.263	14.936	865.878	648.371
259.278	15.023	864.665	647.741
260.293	14.847	864.838	647.130
261.307	15.027	864.169	647.269
262.322	15.024	863.333	646.576
263.336	15.119	862.617	646.347
264.351	15.287	862.017	646.487
265.366	15.223	861.343	645.680
266.380	15.188	860.721	645.021
267.395	15.177	860.253	644.570
268.409	15.308	858.994	644.073
269.424	15.187	858.559	643.226
270.439	15.145	857.948	642.550
271.453	15.339	857.269	642.729
272.468	15.206	856.492	641.579
273.482	15.360	855.863	641.641
274.497	15.265	855.226	640.745
275.512	15.271	854.731	640.337
276.526	15.382	853.902	640.084
277.541	15.198	853.455	638.990
278.555	15.255	852.776	638.643
279.570	15.306	852.323	638.442
280.585	15.318	852.280	638.398
281.599	15.354	851.630	637.994
282.614	15.384	850.866	637.479
283.628	15.358	850.047	636.708
284.643	15.341	849.211	635.963
285.657	15.412	848.964	635.990
286.672	15.301	848.478	635.150
287.687	15.431	847.885	635.141
288.701	15.400	847.411	634.612
289.716	15.362	846.884	634.019
290.730	15.522	846.486	634.267
291.745	15.531	845.534	633.531
292.760	15.462	844.825	632.686
293.774	15.511	843.635	631.922
294.789	15.304	844.359	631.629
295.803	15.507	843.297	631.541
296.818	15.620	842.348	631.201
297.833	15.518	841.705	630.279
298.847	15.560	840.945	629.812
299.862	15.636	840.497	629.704
300.876	15.665	839.581	629.073
301.891	15.709	839.236	628.922
302.906	15.808	838.310	628.543
303.920	15.914	837.350	628.162
304.935	15.835	836.998	627.548
305.949	15.847	837.099	627.612
306.964	15.795	836.210	626.697
307.979	15.805	835.576	626.204
308.993	15.828	835.066	625.855
310.008	15.919	834.721	625.878
311.022	15.985	834.190	625.670
312.037	15.889	833.707	624.895
313.052	15.958	833.244	624.750
314.066	15.788	832.733	623.679
315.081	15.719	832.109	622.902
316.095	15.844	831.629	622.952
317.110	15.872	830.822	622.395
318.125	15.684	830.920	621.719
319.139	15.799	830.070	621.449
320.154	15.808	829.626	621.097
321.168	15.850	829.167	620.853
322.183	15.779	828.365	619.936
323.197	16.100	827.551	620.455
324.212	15.911	827.108	619.370
325.227	15.972	826.803	619.312
326.241	15.956	826.167	618.721
327.256	15.970	825.640	618.323
328.270	15.920	825.252	617.797
329.285	15.892	824.706	617.230
330.300	16.035	823.791	617.013
331.314	15.861	823.831	616.351
332.329	15.974	822.350	615.603
333.343	16.153	822.058	615.983
334.358	16.021	821.848	615.290
335.373	15.975	821.345	614.690
336.387	16.083	820.876	614.677
337.402	16.116	820.020	614.105
338.416	16.250	819.137	613.875
339.431	16.165	818.986	613.401
340.446	16.332	818.317	613.451
341.460	16.333	817.669	612.913
342.475	16.227	817.377	612.255
343.489	16.361	816.856	612.299
344.504	16.471	816.213	612.159
345.519	16.534	815.613	611.883
346.533	16.426	815.145	611.089
347.548	16.456	814.968	611.009
348.562	16.536	814.244	610.702
349.577	16.377	813.480	609.500
350.592	16.362	813.281	609.242
351.606	16.411	812.849	609.042
352.621	16.361	812.545	608.580
353.635	16.300	811.887	607.816
354.650	16.365	811.451	607.669
355.665	16.353	811.304	607.462
356.679	16.431	810.562	607.131
357.694	16.488	810.215	607.023
358.708	16.651	809.477	607.002
359.723	16.452	809.060	605.920
360.738	16.454	808.242	605.264
361.752	16.412	808.361	605.147
362.767	16.543	807.828	605.163
363.781	16.713	807.037	605.125
364.796	16.603	806.919	604.590
365.810	16.772	806.197	604.600
366.825	16.930	805.555	604.628
367.840	16.760	805.172	603.680
368.854	16.692	805.056	603.299
369.869	16.555	804.986	602.704
370.883	16.708	804.075	602.512
371.898	16.724	803.721	602.253
372.913	16.830	802.890	601.954
373.927	16.811	802.332	601.412
374.942	16.779	801.484	600.612
375.956	16.691	801.176	600.015
376.971	16.975	800.526	600.481
377.986	16.874	799.982	599.662
379.000	16.956	799.843	599.793
380.015	16.994	798.986	599.232
381.029	17.016	798.440	598.850
382.044	17.063	797.676	598.387
383.059	17.008	797.280	597.843
384.073	16.974	797.199	597.611
385.088	16.996	796.292	596.956
386.102	16.872	796.105	596.325
387.117	16.921	795.441	595.948
388.132	16.988	795.033	595.827
389.146	17.118	794.323	595.697
390.161	17.079	793.884	595.177
391.175	17.100	793.787	595.126
392.190	17.141	793.443	594.959
393.205	17.025	793.324	594.411
394.219	17.034	792.722	593.941
395.234	17.010	792.459	593.604
396.248	17.013	791.552	592.885
397.263	17.113	791.247	592.952
398.278	16.969	790.536	591.865
399.292	16.879	790.156	591.214
400.307	17.128	789.749	591.727
401.321	17.065	789.323	591.135
402.336	17.073	789.125	590.962
403.350	17.187	788.666	590.961
404.365	17.116	787.901	590.088
405.380	17.149	787.792	590.070
406.394	17.284	787.102	589.971
407.409	17.328	786.729	589.791
408.423	17.511	786.318	590.063
409.438	17.328	786.054	589.179
410.453	17.331	785.487	588.713
411.467	17.425	785.081	588.681
412.482	17.442	784.308	588.109
413.496	17.528	783.915	588.060
414.511	17.484	783.609	587.626
415.526	17.555	783.291	587.580
416.540	17.535	783.092	587.309
417.555	17.555	782.403	586.810
418.569	17.549	782.019	586.451
419.584	17.610	781.214	586.003
420.599	17.638	780.873	585.792
421.613	113.782	1296.045	1485.571
422.628	97.555	1371.081	1485.657
