DTS Sentinel unit serial number:	SN413079Multiplexer serial number:	ORYXHardware model number:	OX4-SRSoftware version number:	ORYX F/W v4.00 Oryx Data Collector v3.7.2.0data status	okinstallation	princeton_trtdifferential loss correction	single-endedforward channel	channel 3reverse channel	N/Adate	2019/09/13time	06:16:34forward acquisition time	60.00reverse acquisition time	0.00gamma	496.2192k internal	0.2338k external	0.2338temperature offset calibration	1.0136default loss term (dB/km)	0.3790temperature slope calibration	1.0000multiplexer offset coefficient	1.0000multiplexer slope coefficient	1.0000fibre end	0.00T internal ref (°C)	26.12T ext. ref 1 (°C)	4.09T ext. ref 2 (°C)	20.83length (m)	temperature (°C)	Stokes	anti-Stokes-747.200	-133.101	-0.077	-0.010
-746.185	-88.682	-0.172	0.051
-745.171	98.654	-0.166	-0.193
-744.156	596.676	-0.044	0.110
-743.142	408.335	0.065	-0.137
-742.127	800.000	-0.161	0.530
-741.112	800.000	-0.058	0.220
-740.098	-34.420	0.212	-0.117
-739.083	800.000	-0.090	0.293
-738.069	-200.000	0.018	0.158
-737.054	-140.225	0.282	-0.030
-736.039	-101.548	-0.407	0.099
-735.025	-200.000	0.053	-0.335
-734.010	-3.053	-0.147	-0.103
-732.996	-118.791	-0.309	0.055
-731.981	174.194	-0.231	-0.335
-730.966	-131.598	0.134	0.018
-729.952	-200.000	-0.026	-0.184
-728.937	-10.242	-0.099	0.066
-727.923	-69.199	0.186	0.072
-726.908	-130.912	-0.234	-0.031
-725.894	-200.000	-0.003	0.207
-724.879	-200.000	-0.012	-0.074
-723.864	-102.563	-0.505	-0.121
-722.850	-200.000	0.071	0.409
-721.835	4.146	-0.300	0.220
-720.821	800.000	0.084	-0.351
-719.806	306.158	-0.128	-0.239
-718.791	202.833	-0.037	-0.058
-717.777	109.427	0.251	0.301
-716.762	24.384	-0.258	-0.214
-715.748	-200.000	0.029	0.181
-714.733	-56.506	-0.353	0.157
-713.718	114.208	0.057	0.070
-712.704	-79.778	-0.081	-0.027
-711.689	498.518	0.037	-0.086
-710.675	800.000	0.041	0.155
-709.660	-157.377	0.316	-0.019
-708.645	116.827	-0.027	-0.034
-707.631	-124.051	-0.201	-0.032
-706.616	-113.668	0.178	-0.035
-705.602	-130.886	-0.203	0.027
-704.587	-174.657	0.073	-0.002
-703.572	-85.095	0.573	-0.180
-702.558	55.751	0.067	-0.065
-701.543	-94.665	-0.125	-0.034
-700.529	-145.563	0.206	0.019
-699.514	800.000	0.060	0.215
-698.499	80.373	-0.094	0.101
-697.485	161.483	-0.113	-0.158
-696.470	444.944	0.172	-0.378
-695.456	-200.000	-0.030	0.248
-694.441	-66.129	0.013	-0.005
-693.426	-133.624	0.356	-0.045
-692.412	-102.526	-0.299	-0.071
-691.397	800.000	-0.155	-0.556
-690.383	-83.573	0.272	0.087
-689.368	-200.000	-0.012	-0.230
-688.354	-135.125	0.138	0.017
-687.339	-200.000	0.000	-0.054
-686.324	-200.000	0.002	0.020
-685.310	800.000	-0.017	0.055
-684.295	-135.973	-0.069	-0.008
-683.281	-109.727	-0.088	-0.018
-682.266	-130.809	-0.028	0.004
-681.251	800.000	-0.052	0.177
-680.237	190.160	-0.065	-0.098
-679.222	351.119	0.086	0.170
-678.208	800.000	0.060	-0.214
-677.193	588.865	0.086	-0.212
-676.178	-89.530	0.190	0.056
-675.164	-46.098	-0.223	-0.110
-674.149	368.778	0.096	-0.195
-673.135	800.000	-0.045	0.194
-672.120	617.445	-0.052	0.129
-671.105	-200.000	0.058	-0.267
-670.091	-152.067	-0.255	-0.019
-669.076	-37.692	0.133	-0.071
-668.062	-200.000	-0.002	0.247
-667.047	760.767	0.172	-0.468
-666.032	-146.653	-0.291	0.025
-665.018	45.775	0.151	0.140
-664.003	164.913	0.035	-0.050
-662.989	390.552	-0.090	0.186
-661.974	-119.294	0.126	0.022
-660.959	304.337	0.159	-0.296
-659.945	-98.035	-0.078	0.020
-658.930	324.059	-0.130	0.247
-657.916	343.576	0.057	-0.112
-656.901	-18.720	-0.258	-0.161
-655.886	513.074	0.117	0.272
-654.872	-195.564	-0.232	0.002
-653.857	800.000	0.070	-0.237
-652.843	125.709	0.155	0.196
-651.828	111.103	-0.188	-0.226
-650.814	227.830	-0.109	-0.177
-649.799	-104.488	-0.286	0.066
-648.784	-24.162	0.143	0.086
-647.770	259.930	0.220	-0.381
-646.755	274.518	0.184	0.326
-645.741	37.451	-0.172	0.152
-644.726	-200.000	0.041	0.308
-643.711	-62.936	0.107	-0.044
-642.697	-50.515	0.118	0.056
-641.682	186.612	-0.141	0.210
-640.668	800.000	0.093	0.282
-639.653	25.393	-0.163	-0.136
-638.638	-200.000	-0.036	0.190
-637.624	-200.000	-0.014	-0.117
-636.609	-118.786	-0.174	-0.031
-635.595	-190.979	0.283	0.003
-634.580	800.000	-0.029	-0.110
-633.565	-124.728	-0.193	-0.030
-632.551	636.868	-0.128	-0.325
-631.536	-88.955	-0.240	-0.071
-630.522	446.804	-0.209	-0.459
-629.507	-39.910	-0.286	-0.149
-628.492	9.771	-0.124	0.094
-627.478	-200.000	-0.020	0.105
-626.463	754.857	-0.076	0.205
-625.449	581.546	0.080	0.197
-624.434	-200.000	0.013	-0.109
-623.419	134.026	-0.123	0.160
-622.405	-200.000	-0.009	-0.061
-621.390	800.000	0.056	0.190
-620.376	-106.480	-0.361	0.080
-619.361	800.000	0.052	0.197
-618.346	-200.000	0.018	-0.191
-617.332	-200.000	0.082	0.409
-616.317	-200.000	0.033	0.395
-615.303	306.482	-0.072	-0.134
-614.288	-33.901	0.137	0.075
-613.273	140.691	0.299	0.394
-612.259	-106.016	0.133	-0.030
-611.244	-200.000	-0.067	-0.366
-610.230	-65.399	0.241	0.097
-609.215	326.068	-0.068	-0.130
-608.201	218.748	0.095	-0.151
-607.186	-173.476	-0.365	-0.011
-606.171	97.566	0.086	0.099
-605.157	-43.531	-0.151	-0.076
-604.142	150.904	-0.075	-0.102
-603.128	-200.000	0.023	-0.326
-602.113	-3.266	0.178	-0.124
-601.098	-77.383	-0.208	-0.072
-600.084	39.212	-0.278	0.248
-599.069	-100.815	-0.347	0.085
-598.055	34.882	-0.169	0.148
-597.040	-116.712	0.072	0.013
-596.025	-68.179	-0.174	0.068
-595.011	615.150	-0.027	-0.068
-593.996	-46.401	-0.106	-0.052
-592.982	158.048	-0.201	-0.278
-591.967	6.561	0.034	-0.025
-590.952	-34.182	0.147	-0.081
-589.938	-113.885	0.470	-0.091
-588.923	-200.000	0.005	0.159
-587.909	800.000	-0.013	0.050
-586.894	-200.000	0.212	0.000
-585.879	-180.439	-0.319	-0.007
-584.865	-200.000	-0.056	0.365
-583.850	-28.747	-0.169	0.097
-582.836	-141.724	-0.413	0.041
-581.821	-62.346	-0.111	0.046
-580.806	800.000	-0.046	0.147
-579.792	161.561	-0.250	0.349
-578.777	5.548	0.157	0.115
-577.763	163.293	-0.062	0.087
-576.748	96.976	0.294	-0.336
-575.733	136.025	-0.182	-0.237
-574.719	-130.649	0.540	0.073
-573.704	-141.347	-0.162	-0.016
-572.690	-116.939	0.213	-0.039
-571.675	61.055	0.109	0.108
-570.661	-145.076	-0.046	-0.004
-569.646	457.053	-0.019	-0.042
-568.631	562.752	-0.050	0.120
-567.617	800.000	0.027	-0.095
-566.602	-102.709	-0.355	0.084
-565.588	-43.024	-0.158	0.080
-564.573	36.468	0.183	0.161
-563.558	-111.798	-0.234	-0.047
-562.544	400.454	0.115	-0.240
-561.529	-117.138	0.309	0.056
-560.515	-200.000	0.050	0.280
-559.500	-200.000	-0.014	-0.077
-558.485	800.000	0.017	-0.073
-557.471	184.142	0.044	-0.065
-556.456	166.653	0.049	-0.069
-555.442	-46.812	-0.126	0.061
-554.427	-200.000	0.024	-0.210
-553.412	-119.893	0.388	-0.066
-552.398	36.863	0.073	-0.065
-551.383	260.503	-0.087	0.149
-550.369	110.153	-0.042	-0.050
-549.354	-107.444	-0.057	-0.012
-548.339	-146.824	-0.109	-0.009
-547.325	-200.000	-0.026	0.229
-546.310	106.866	0.274	-0.323
-545.296	593.077	0.039	0.096
-544.281	-56.318	-0.333	0.147
-543.266	-98.198	0.208	0.053
-542.252	800.000	0.046	-0.194
-541.237	800.000	-0.099	-0.283
-540.223	-57.909	-0.261	-0.114
-539.208	-200.000	-0.060	-0.467
-538.193	-1.174	0.142	-0.100
-537.179	-200.000	0.010	0.188
-536.164	-114.293	-0.240	0.046
-535.150	-56.886	0.430	-0.189
-534.135	-137.434	-0.250	0.028
-533.121	287.943	0.037	0.067
-532.106	-200.000	-0.007	0.362
-531.091	-77.130	0.148	-0.051
-530.077	30.398	-0.064	0.054
-529.062	135.158	0.243	-0.314
-528.048	800.000	-0.046	-0.158
-527.033	-9.029	0.145	-0.096
-526.018	6.603	0.329	0.244
-525.004	-108.252	-0.313	-0.067
-523.989	121.567	-0.282	-0.349
-522.975	268.890	-0.214	-0.373
-521.960	12.783	-0.086	0.066
-520.945	154.697	0.199	0.272
-519.931	-141.817	-0.323	0.032
-518.916	19.365	0.091	0.072
-517.902	-200.000	-0.005	-0.042
-516.887	-200.000	0.015	0.066
-515.872	800.000	0.033	0.138
-514.858	-200.000	-0.025	0.279
-513.843	-200.000	-0.001	-0.043
-512.829	202.622	0.042	-0.064
-511.814	-200.000	0.013	-0.139
-510.799	-26.138	0.292	-0.170
-509.785	-8.221	-0.347	0.233
-508.770	322.094	-0.091	0.171
-507.756	147.344	0.145	0.195
-506.741	-66.401	-0.150	0.059
-505.726	103.369	0.237	-0.276
-504.712	-60.999	0.260	0.109
-503.697	588.542	0.083	0.203
-502.683	60.930	-0.212	-0.209
-501.668	-200.000	0.025	0.144
-500.653	-28.001	0.247	-0.142
-499.639	-200.000	0.026	-0.196
-498.624	75.129	-0.043	0.045
-497.610	471.920	0.064	-0.143
-496.595	284.093	0.048	-0.085
-495.581	54.781	-0.150	0.143
-494.566	-185.212	-0.283	0.004
-493.551	10.114	-0.064	0.048
-492.537	-82.606	0.142	-0.046
-491.522	800.000	-0.006	-0.024
-490.508	800.000	0.095	-0.274
-489.493	-200.000	0.008	-0.179
-488.478	0.481	0.221	0.157
-487.464	-200.000	-0.041	0.259
-486.449	-51.058	-0.079	-0.037
-485.435	35.703	-0.017	0.015
-484.420	179.840	-0.184	-0.268
-483.405	-105.980	0.178	-0.040
-482.391	-200.000	-0.011	0.167
-481.376	15.736	-0.101	-0.079
-480.362	500.394	0.159	0.365
-479.347	14.682	0.205	-0.159
-478.332	800.000	-0.008	-0.023
-477.318	177.145	-0.110	0.159
-476.303	534.048	-0.117	0.275
-475.289	66.634	0.177	-0.179
-474.274	54.812	0.099	0.095
-473.259	36.428	-0.176	0.154
-472.245	-84.126	-0.132	-0.042
-471.230	326.848	-0.085	0.162
-470.216	-62.668	0.317	0.130
-469.201	12.100	0.180	-0.138
-468.186	-200.000	-0.009	-0.063
-467.172	721.574	0.106	0.280
-466.157	-200.000	-0.006	0.167
-465.143	-52.891	-0.215	-0.098
-464.128	16.038	0.108	0.084
-463.113	403.074	-0.134	-0.279
-462.099	405.973	-0.201	-0.422
-461.084	800.000	-0.106	0.366
-460.070	-112.787	-0.397	-0.078
-459.055	174.539	0.130	-0.186
-458.040	800.000	0.095	0.296
-457.026	115.914	0.070	0.085
-456.011	-162.221	0.025	0.001
-454.997	800.000	-0.046	0.160
-453.982	-115.243	-0.242	-0.045
-452.968	-200.000	-0.025	0.178
-451.953	121.136	-0.056	0.069
-450.938	-200.000	0.045	0.215
-449.924	-152.912	-0.422	-0.030
-448.909	-149.691	0.177	0.014
-447.895	-62.936	-0.188	-0.077
-446.880	-11.252	0.089	0.058
-445.865	-55.042	-0.381	0.170
-444.851	800.000	0.093	-0.311
-443.836	194.774	0.229	-0.345
-442.822	114.024	-0.169	0.204
-441.807	-75.918	0.062	-0.022
-440.792	-200.000	0.029	-0.156
-439.778	800.000	-0.079	-0.262
-438.763	-97.982	-0.357	0.091
-437.749	800.000	-0.051	0.185
-436.734	380.145	0.242	-0.491
-435.719	-69.695	-0.430	-0.163
-434.705	104.627	-0.094	-0.110
-433.690	800.000	-0.052	-0.172
-432.676	105.169	0.056	0.065
-431.661	-145.106	-0.026	-0.002
-430.646	-200.000	-0.007	0.077
-429.632	-200.000	0.005	-0.037
-428.617	800.000	-0.071	-0.221
-427.603	-105.926	0.344	-0.077
-426.588	44.847	-0.190	0.173
-425.573	-14.301	0.034	0.022
-424.559	-200.000	0.013	-0.111
-423.544	-16.220	-0.190	0.120
-422.530	52.089	0.202	-0.191
-421.515	800.000	-0.044	0.176
-420.500	-200.000	-0.036	-0.326
-419.486	-87.090	0.301	0.091
-418.471	-156.868	-0.139	0.008
-417.457	39.695	-0.222	-0.197
-416.442	65.190	-0.278	0.278
-415.428	-51.243	-0.243	-0.112
-414.413	800.000	-0.032	0.136
-413.398	45.603	0.021	0.019
-412.384	300.390	-0.199	0.363
-411.369	315.956	0.128	0.240
-410.355	-71.659	0.187	0.069
-409.340	3.655	0.194	-0.140
-408.325	615.676	-0.131	-0.326
-407.311	467.924	-0.034	-0.077
-406.296	-131.030	0.102	-0.014
-405.282	800.000	0.053	0.149
-404.267	-7.431	-0.117	0.078
-403.252	-130.785	0.418	-0.056
-402.238	33.155	0.110	-0.095
-401.223	800.000	-0.090	-0.351
-400.209	32.665	0.171	0.147
-399.194	800.000	-0.128	0.364
-398.179	-200.000	0.015	0.299
-397.165	249.768	0.142	0.239
-396.150	97.426	0.223	0.254
-395.136	-200.000	-0.030	0.226
-394.121	287.299	-0.145	-0.259
-393.106	-5.320	0.043	0.029
-392.092	83.666	-0.222	-0.239
-391.077	-200.000	0.015	-0.150
-390.063	-103.119	0.196	0.046
-389.048	53.334	0.330	0.313
-388.033	-170.332	0.179	0.006
-387.019	-61.093	-0.340	0.142
-386.004	23.729	-0.258	0.211
-384.990	-200.000	0.027	-0.169
-383.975	726.358	0.099	0.262
-382.960	259.536	0.170	-0.291
-381.946	178.585	-0.012	-0.017
-380.931	-200.000	0.027	-0.260
-379.917	-14.584	0.197	-0.125
-378.902	-152.603	-0.452	0.032
-377.888	-20.638	0.264	0.160
-376.873	-82.235	0.052	-0.017
-375.858	-78.628	0.132	0.044
-374.844	800.000	-0.081	-0.252
-373.829	177.102	-0.128	-0.184
-372.815	40.095	0.032	-0.028
-371.800	-175.536	0.061	-0.002
-370.785	-80.111	0.045	-0.015
-369.771	-167.696	-0.178	0.007
-368.756	-33.792	-0.135	-0.073
-367.742	-37.810	-0.144	-0.076
-366.727	-24.547	0.194	0.114
-365.712	373.321	-0.098	-0.197
-364.698	-54.929	-0.113	-0.050
-363.683	63.714	0.173	0.171
-362.669	222.529	0.033	-0.053
-361.654	-72.379	0.125	-0.046
-360.639	-200.000	0.042	-0.356
-359.625	-67.542	0.192	-0.074
-358.610	93.979	-0.060	-0.067
-357.596	-47.583	0.039	0.019
-356.581	695.719	-0.073	-0.190
-355.566	-200.000	-0.018	-0.081
-354.552	761.905	0.043	0.115
-353.537	139.082	0.046	-0.060
-352.523	-64.409	-0.143	-0.057
-351.508	-195.112	0.081	-0.001
-350.493	115.770	-0.196	-0.237
-349.479	37.004	0.145	-0.127
-348.464	-119.440	-0.363	0.062
-347.450	582.027	-0.168	0.408
-346.435	59.013	-0.188	-0.183
-345.420	800.000	0.034	0.100
-344.406	-200.000	0.031	-0.231
-343.391	564.646	-0.064	-0.153
-342.377	221.325	-0.121	-0.193
-341.362	800.000	0.052	-0.188
-340.348	800.000	0.077	0.247
-339.333	103.874	-0.050	0.058
-338.318	163.426	0.307	0.426
-337.304	71.145	0.116	0.119
-336.289	255.663	0.209	0.354
-335.275	91.897	-0.063	0.070
-334.260	800.000	-0.046	0.141
-333.245	-62.481	0.235	-0.096
-332.231	-168.068	-0.048	0.002
-331.216	0.577	0.096	-0.068
-330.202	-200.000	-0.048	0.220
-329.187	4.139	0.168	-0.121
-328.172	-57.410	0.228	0.099
-327.158	367.082	-0.161	0.321
-326.143	-47.749	-0.384	0.184
-325.129	67.305	0.231	0.233
-324.114	664.120	0.112	0.286
-323.099	-164.201	0.297	-0.014
-322.085	24.003	-0.231	-0.188
-321.070	-36.642	0.103	0.055
-320.056	-85.838	0.167	0.051
-319.041	-178.348	-0.091	-0.002
-318.026	432.547	0.131	-0.280
-317.012	84.905	0.167	-0.181
-315.997	-200.000	-0.021	-0.127
-314.983	-106.958	0.172	-0.038
-313.968	176.467	0.146	-0.210
-312.953	365.918	-0.067	-0.132
-311.939	533.657	-0.078	0.182
-310.924	58.345	-0.302	-0.292
-309.910	-181.382	0.509	-0.010
-308.895	-200.000	0.041	0.348
-307.880	-118.211	-0.325	-0.057
-306.866	776.874	-0.076	-0.206
-305.851	-91.696	-0.278	-0.078
-304.837	-200.000	0.027	-0.165
-303.822	14.058	0.248	0.190
-302.807	-57.507	-0.142	-0.061
-301.793	15.455	-0.322	-0.249
-300.778	-116.050	0.230	0.042
-299.764	-200.000	0.011	0.179
-298.749	-145.221	0.140	-0.012
-297.735	39.756	0.116	0.102
-296.720	-117.922	-0.202	-0.036
-295.705	102.689	-0.070	0.081
-294.691	-128.863	0.094	-0.013
-293.676	-158.705	-0.332	0.019
-292.662	85.576	-0.043	0.047
-291.647	-82.862	0.183	-0.058
-290.632	147.774	0.206	-0.274
-289.618	16.667	-0.220	0.171
-288.603	51.323	0.167	0.156
-287.589	26.590	-0.061	0.050
-286.574	340.225	-0.114	-0.219
-285.559	-200.000	-0.010	0.068
-284.545	15.055	-0.205	-0.158
-283.530	-200.000	-0.062	-0.390
-282.516	-59.681	0.209	-0.088
-281.501	-71.520	-0.184	0.068
-280.486	800.000	-0.066	-0.231
-279.472	-51.413	-0.410	-0.189
-278.457	-10.798	0.348	0.226
-277.443	800.000	0.043	0.134
-276.428	136.353	0.180	0.231
-275.413	232.264	0.071	-0.115
-274.399	72.768	0.293	-0.301
-273.384	-82.180	0.362	0.116
-272.370	26.893	-0.326	-0.269
-271.355	156.387	0.197	-0.267
-270.340	-58.883	-0.325	-0.139
-269.326	126.689	-0.095	-0.119
-268.311	90.771	-0.085	0.094
-267.297	-200.000	-0.009	0.234
-266.282	234.006	0.111	0.180
-265.267	-200.000	-0.043	-0.212
-264.253	-106.702	0.206	-0.045
-263.238	-126.560	0.069	0.010
-262.224	170.380	0.103	-0.145
-261.209	303.981	0.079	-0.143
-260.195	-138.498	-0.326	-0.035
-259.180	-21.398	0.171	0.103
-258.165	-153.632	-0.275	-0.019
-257.151	170.981	0.091	-0.128
-256.136	-36.041	-0.157	-0.083
-255.122	-74.742	0.202	0.071
-254.107	104.016	0.100	0.115
-253.092	-58.966	0.186	0.079
-252.078	-150.653	-0.366	-0.027
-251.063	112.305	0.274	-0.326
-250.049	145.250	-0.179	-0.236
-249.034	33.309	0.189	-0.161
-248.019	-200.000	0.022	0.174
-247.005	-125.961	-0.214	0.032
-245.990	78.873	0.179	-0.188
-244.976	-63.728	-0.275	-0.111
-243.961	420.094	0.086	-0.182
-242.946	-200.000	-0.039	-0.318
-241.932	429.029	-0.070	0.149
-240.917	-29.885	0.165	-0.092
-239.903	-5.282	-0.320	0.216
-238.888	270.540	0.057	-0.099
-237.873	50.651	-0.214	0.199
-236.859	-46.801	-0.168	0.081
-235.844	-200.000	0.054	0.262
-234.830	124.247	0.212	-0.262
-233.815	-146.552	-0.279	0.024
-232.800	-14.182	0.151	-0.096
-231.786	-27.411	0.280	-0.160
-230.771	-81.094	-0.179	0.058
-229.757	-27.864	-0.130	-0.074
-228.742	99.364	0.189	0.215
-227.727	-170.845	-0.343	0.012
-226.713	-18.090	0.124	-0.076
-225.698	120.826	0.098	0.120
-224.684	-136.201	0.173	0.020
-223.669	-116.975	0.115	-0.021
-222.655	-200.000	-0.010	-0.099
-221.640	-200.000	0.057	0.277
-220.625	-60.615	-0.255	-0.106
-219.611	-109.756	0.505	-0.104
-218.596	800.000	-0.014	0.051
-217.582	-200.000	0.096	-0.448
-216.567	800.000	0.025	0.102
-215.552	213.924	0.096	0.149
-214.538	-114.818	-0.226	0.042
-213.523	242.007	0.021	0.035
-212.509	800.000	-0.074	-0.275
-211.494	-102.557	0.293	-0.069
-210.479	77.902	0.119	-0.125
-209.465	-65.680	0.377	-0.148
-208.450	150.469	0.214	0.285
-207.436	395.513	-0.101	-0.208
-206.421	-200.000	0.006	0.192
-205.406	-15.345	-0.095	-0.059
-204.392	-104.010	-0.105	-0.024
-203.377	-65.728	-0.116	0.046
-202.363	-107.369	0.357	-0.077
-201.348	-33.339	-0.174	0.095
-200.333	-47.197	0.231	0.111
-199.319	-19.644	-0.241	-0.146
-198.304	-124.574	0.230	0.035
-197.290	-200.000	0.005	0.066
-196.275	-200.000	0.038	0.351
-195.260	-33.163	-0.205	0.112
-194.246	-81.969	-0.268	-0.086
-193.231	-13.420	0.319	0.203
-192.217	-65.119	0.311	0.123
-191.202	89.694	-0.213	0.233
-190.187	-151.251	-0.057	0.004
-189.173	-200.000	0.296	-0.001
-188.158	-97.211	-0.358	-0.092
-187.144	235.209	-0.252	-0.408
-186.129	-200.000	-0.023	0.232
-185.114	-155.180	0.239	-0.015
-184.100	281.352	0.091	-0.160
-183.085	-106.258	0.475	-0.105
-182.071	-200.000	0.041	-0.447
-181.056	-133.802	0.222	0.027
-180.042	415.059	-0.107	0.223
-179.027	121.132	-0.091	-0.111
-178.012	71.216	0.227	0.231
-176.998	-118.563	-0.166	0.029
-175.983	-11.595	-0.130	-0.084
-174.969	132.107	0.172	0.217
-173.954	800.000	0.043	0.184
-172.939	-200.000	-0.066	0.334
-171.925	78.991	0.218	-0.229
-170.910	-31.184	0.172	0.095
-169.896	-26.168	-0.185	-0.107
-168.881	-121.358	0.375	-0.061
-167.866	305.088	0.118	0.215
-166.852	-83.794	-0.178	-0.056
-165.837	-61.705	0.177	0.073
-164.823	-51.621	0.128	-0.058
-163.808	14.128	0.132	0.101
-162.793	-7.523	-0.134	0.089
-161.779	49.250	-0.070	-0.065
-160.764	174.104	0.172	0.244
-159.750	-68.950	-0.172	0.065
-158.735	-200.000	0.025	0.187
-157.720	-74.904	-0.018	0.006
-156.706	-200.000	0.009	0.131
-155.691	138.756	0.186	0.240
-154.677	27.639	-0.270	0.222
-153.662	-64.655	-0.084	0.033
-152.647	209.828	-0.207	-0.318
-151.633	205.236	0.219	0.333
-150.618	467.699	0.071	0.157
-149.604	-135.290	-0.132	0.015
-148.589	229.942	0.118	-0.189
-147.574	138.098	-0.040	-0.051
-146.560	-23.297	0.232	0.137
-145.545	-76.339	-0.050	0.017
-144.531	-200.000	0.180	0.000
-143.516	-152.898	-0.245	0.017
-142.502	496.140	0.101	-0.227
-141.487	-200.000	0.053	-0.308
-140.472	184.791	0.049	0.071
-139.458	542.133	0.089	0.209
-138.443	-200.000	0.002	-0.163
-137.429	-66.573	0.171	0.066
-136.414	512.202	-0.067	-0.152
-135.399	800.000	0.012	-0.045
-134.385	225.612	-0.065	0.104
-133.370	300.912	0.085	0.153
-132.356	-155.263	-0.172	-0.011
-131.341	42.066	0.132	0.118
-130.326	-200.000	-0.012	-0.086
-129.312	-31.660	0.163	-0.090
-128.297	-45.046	0.202	0.098
-127.283	-96.727	-0.124	-0.032
-126.268	526.370	0.081	0.188
-125.253	519.490	0.018	-0.041
-124.239	800.000	-0.025	-0.072
-123.224	45.047	-0.154	-0.139
-122.210	104.416	0.109	-0.126
-121.195	-65.998	0.100	0.039
-120.180	630.208	-0.180	0.445
-119.166	-19.768	-0.131	-0.079
-118.151	-200.000	0.004	-0.238
-117.137	723.876	0.177	-0.462
-116.122	-1.040	-0.020	0.014
-115.107	-47.195	-0.154	-0.073
-114.093	-83.069	0.300	-0.095
-113.078	-116.513	0.337	-0.061
-112.064	-124.190	0.464	-0.071
-111.049	-104.006	-0.180	-0.041
-110.034	800.000	-0.021	0.076
-109.020	-200.000	0.047	-0.260
-108.005	800.000	0.175	0.501
-106.991	661.787	0.044	0.110
-105.976	90.696	0.030	0.033
-104.962	800.000	0.064	0.233
-103.947	-79.573	-0.127	0.042
-102.932	-78.696	-0.195	-0.065
-101.918	-23.072	-0.065	0.038
-100.903	-86.171	0.513	-0.155
-99.889	800.000	0.125	-0.368
-98.874	27.144	-0.247	-0.203
-97.859	-85.241	0.197	-0.060
-96.845	800.000	-0.111	0.363
-95.830	130.245	0.080	-0.100
-94.816	-65.770	0.083	0.033
-93.801	654.867	-0.054	0.135
-92.786	-171.806	0.276	-0.009
-91.772	85.765	0.167	0.179
-90.757	-55.984	-0.344	0.150
-89.743	-200.000	-0.003	0.362
-88.728	708.910	-0.127	-0.327
-87.713	-200.000	-0.037	0.162
-86.699	221.108	-0.195	-0.306
-85.684	9.546	-0.143	-0.106
-84.670	-200.000	0.022	0.096
-83.655	10.075	0.450	0.334
-82.640	15.276	-0.298	0.228
-81.626	800.000	-0.050	0.192
-80.611	172.018	-0.069	-0.097
-79.597	22.260	-0.137	-0.109
-78.582	132.519	0.085	0.107
-77.567	-200.000	-0.158	0.000
-76.553	235.738	0.130	-0.210
-75.538	617.291	0.053	-0.130
-74.524	-79.236	0.153	0.051
-73.509	257.210	0.185	0.311
-72.494	-31.248	-0.127	-0.070
-71.480	-60.395	0.230	0.095
-70.465	-200.000	-0.001	-0.183
-69.451	386.619	-0.039	-0.079
-68.436	338.860	0.043	-0.082
-67.422	-144.283	0.189	0.017
-66.407	-166.342	-0.095	0.004
-65.392	800.000	-0.034	0.091
-64.378	-20.095	0.093	-0.056
-63.363	601.228	-0.082	0.200
-62.349	800.000	0.083	0.321
-61.334	93.506	-0.634	-0.701
-60.319	-17.075	0.554	0.341
-59.305	721.945	-0.515	-1.339
-58.290	373.338	0.750	1.490
-57.276	800.000	0.559	1.660
-56.261	-200.000	117.900	645.462
-55.246	485.284	1553.663	3455.803
-54.232	174.416	2720.474	3841.135
-53.217	102.931	2175.029	2487.360
-52.203	36.544	1690.334	1456.778
-51.188	29.252	1506.189	1248.827
-50.173	27.074	1481.625	1213.876
-49.159	49.118	1542.975	1415.396
-48.144	47.894	1557.538	1420.337
-47.130	29.247	1512.132	1253.524
-46.115	26.242	1497.874	1221.369
-45.100	26.292	1493.554	1218.138
-44.086	26.113	1491.792	1215.444
-43.071	26.125	1489.677	1213.758
-42.057	26.076	1488.370	1212.313
-41.042	26.147	1486.788	1211.455
-40.027	26.145	1485.266	1210.151
-39.013	26.046	1484.021	1208.424
-37.998	26.096	1483.217	1208.061
-36.984	26.100	1481.733	1206.831
-35.969	26.198	1480.565	1206.482
-34.954	26.059	1478.940	1204.182
-33.940	26.080	1477.977	1203.490
-32.925	26.153	1476.246	1202.522
-31.911	26.129	1474.598	1200.972
-30.896	26.193	1473.784	1200.690
-29.881	26.260	1471.870	1199.523
-28.867	26.197	1471.059	1198.395
-27.852	26.158	1469.658	1196.950
-26.838	26.258	1468.041	1196.247
-25.823	26.199	1466.584	1194.625
-24.809	26.236	1464.953	1193.495
-23.794	26.021	1464.392	1191.566
-22.779	26.107	1463.271	1191.178
-21.765	26.163	1461.879	1190.367
-20.750	26.136	1460.414	1188.947
-19.736	26.186	1459.763	1188.699
-18.721	26.122	1458.821	1187.462
-17.706	26.176	1457.252	1186.493
-16.692	26.214	1456.115	1185.769
-15.677	26.103	1455.184	1184.239
-14.663	26.137	1454.334	1183.721
-13.648	26.072	1453.670	1182.710
-12.633	26.032	1452.752	1181.653
-11.619	26.088	1451.747	1181.152
-10.604	26.101	1450.654	1180.303
-9.590	26.132	1449.670	1179.661
-8.575	26.122	1448.462	1178.562
-7.560	26.015	1448.173	1177.584
-6.546	26.138	1446.999	1177.383
-5.531	26.058	1446.514	1176.422
-4.517	25.971	1445.800	1175.224
-3.502	26.074	1444.801	1175.037
-2.487	26.086	1443.105	1173.687
-1.473	26.033	1442.629	1172.910
-0.458	26.053	1441.203	1171.837
0.556	27.784	1431.090	1160.797
1.571	24.692	1406.850	1121.669
2.586	21.274	1348.239	1054.255
3.600	19.642	1267.025	981.398
4.615	18.440	1222.497	940.233
5.629	16.349	1166.537	886.153
6.644	9.900	1085.800	793.164
7.659	4.986	1049.279	743.043
8.673	4.388	1044.090	736.466
9.688	4.079	1040.975	732.738
10.702	3.897	1039.129	730.517
11.717	3.997	1037.137	729.526
12.731	6.345	1038.940	741.803
13.746	13.463	1048.533	782.329
14.761	19.885	1056.942	819.029
15.775	22.165	1059.162	831.474
16.790	21.938	1057.928	829.362
17.804	20.860	1056.379	822.985
18.819	20.178	1054.554	818.271
19.834	19.698	1053.193	814.878
20.848	19.598	1052.520	813.816
21.863	19.648	1052.081	813.641
22.877	19.513	1051.684	812.625
23.892	19.356	1050.273	810.725
24.907	19.327	1049.521	809.935
25.921	19.337	1048.747	809.315
26.936	19.333	1047.325	808.129
27.950	19.149	1047.011	806.953
28.965	19.291	1045.547	806.416
29.980	19.218	1044.966	805.557
30.994	19.478	1043.912	805.886
32.009	19.564	1043.155	805.632
33.023	19.756	1042.158	805.685
34.038	19.562	1041.703	804.357
35.053	19.573	1040.285	803.242
36.067	19.478	1039.219	801.909
37.082	19.232	1038.602	800.217
38.096	19.289	1037.854	799.836
39.111	19.404	1037.274	799.851
40.126	19.626	1036.150	799.940
41.140	19.385	1034.840	797.745
42.155	19.084	1033.615	795.341
43.169	18.805	1032.565	793.175
44.184	18.884	1031.175	792.399
45.199	18.869	1030.228	791.532
46.213	18.890	1029.140	790.723
47.228	18.886	1028.836	790.402
48.242	19.189	1028.025	791.099
49.257	19.418	1026.914	791.224
50.271	19.229	1026.490	789.964
51.286	19.331	1025.717	789.764
52.301	19.544	1024.857	790.006
53.315	19.353	1024.207	788.562
54.330	19.233	1023.281	787.235
55.344	19.183	1021.936	785.901
56.359	18.985	1021.105	784.287
57.374	19.037	1020.388	783.904
58.388	19.136	1019.228	783.396
59.403	18.850	1019.237	782.029
60.417	18.739	1018.058	780.555
61.432	18.857	1017.069	780.261
62.447	18.835	1016.262	779.471
63.461	18.729	1015.635	778.440
64.476	18.639	1014.606	777.176
65.490	18.593	1013.711	776.216
66.505	18.547	1012.837	775.271
67.520	18.719	1011.831	775.210
68.534	18.829	1011.258	775.197
69.549	18.608	1011.193	774.082
70.563	18.721	1009.554	773.268
71.578	18.596	1009.210	772.372
72.593	18.500	1008.310	771.181
73.607	18.391	1006.803	769.474
74.622	18.420	1006.197	769.069
75.636	18.502	1004.933	768.406
76.651	18.421	1004.810	767.881
77.666	18.466	1004.068	767.447
78.680	18.533	1003.252	767.055
79.695	18.537	1003.365	767.091
80.709	18.628	1002.493	766.765
81.724	18.791	1001.610	766.748
82.739	18.736	1000.802	765.816
83.753	18.822	1000.344	765.782
84.768	19.211	999.844	767.065
85.782	19.499	999.246	767.819
86.797	19.836	998.392	768.593
87.812	19.699	997.587	767.296
88.826	19.521	996.998	765.986
89.841	19.412	996.042	764.699
90.855	19.558	994.992	764.470
91.870	19.653	994.847	764.714
92.884	19.771	994.067	764.570
93.899	19.671	993.382	763.530
94.914	19.624	992.154	762.314
95.928	19.673	991.760	762.160
96.943	19.776	990.831	761.829
97.957	19.567	990.273	760.412
98.972	19.485	988.899	758.930
99.987	19.443	988.186	758.131
101.001	19.537	987.692	758.100
102.016	19.532	986.748	757.288
103.030	19.417	985.872	756.042
104.045	19.492	984.861	755.530
105.060	19.579	984.123	755.278
106.074	19.445	983.305	753.997
107.089	19.161	982.115	751.777
108.103	18.840	981.122	749.552
109.118	18.890	979.232	748.258
110.133	18.735	979.131	747.439
111.147	18.813	977.641	746.574
112.162	18.622	976.976	745.173
113.176	18.702	976.453	745.053
114.191	18.818	975.767	744.969
115.206	19.030	974.949	745.196
116.220	18.881	974.391	744.060
117.235	18.785	973.123	742.609
118.249	18.721	972.675	741.924
119.264	18.809	971.358	741.234
120.279	18.707	970.415	740.010
121.293	18.747	969.443	739.374
122.308	18.483	969.335	738.090
123.322	18.479	968.135	737.094
124.337	18.409	967.162	735.986
125.352	18.367	966.020	734.873
126.366	18.375	964.842	733.945
127.381	18.328	964.056	733.082
128.395	18.255	963.160	732.025
129.410	18.542	961.777	732.136
130.424	18.608	961.347	732.022
131.439	18.697	960.565	731.742
132.454	18.707	960.163	731.415
133.468	18.807	959.500	731.269
134.483	18.735	958.962	730.491
135.497	18.935	957.953	730.507
136.512	18.819	957.846	729.865
137.527	18.907	956.730	729.324
138.541	18.784	956.157	728.300
139.556	19.049	955.145	728.591
140.570	18.960	954.570	727.710
141.585	19.016	954.012	727.459
142.600	19.215	953.733	728.023
143.614	19.438	952.601	728.033
144.629	19.526	952.170	728.011
145.643	19.595	951.483	727.711
146.658	19.648	950.006	726.740
147.673	19.234	949.303	724.398
148.687	19.114	948.487	723.207
149.702	19.111	947.354	722.269
150.716	18.882	946.680	720.730
151.731	18.862	945.758	719.881
152.746	19.098	944.884	720.140
153.760	19.134	944.190	719.694
154.775	19.078	943.564	718.922
155.789	19.184	942.905	718.796
156.804	19.155	942.407	718.232
157.819	19.278	941.617	718.081
158.833	19.331	940.874	717.673
159.848	19.408	940.651	717.759
160.862	19.583	939.785	717.762
161.877	19.423	939.003	716.438
162.892	19.196	937.571	714.338
163.906	19.038	936.352	712.694
164.921	18.880	935.507	711.332
165.935	18.837	934.916	710.643
166.950	19.028	933.793	710.513
167.964	19.109	933.297	710.407
168.979	19.155	932.603	710.008
169.994	19.124	930.724	708.388
171.008	18.935	930.413	707.309
172.023	19.263	929.042	707.552
173.037	19.438	928.406	707.723
174.052	19.331	928.534	707.318
175.067	19.386	927.588	706.763
176.081	19.199	926.422	705.044
177.096	19.036	925.192	703.380
178.110	18.839	924.819	702.229
179.125	18.896	924.378	702.064
180.140	18.917	923.731	701.596
181.154	19.150	922.490	701.540
182.169	19.301	922.401	702.028
183.183	19.414	921.985	702.109
184.198	19.569	920.706	701.704
185.213	19.425	920.239	700.699
186.227	19.504	919.826	700.643
187.242	19.547	919.503	700.511
188.256	19.644	918.771	700.286
189.271	19.748	918.151	700.171
190.286	19.849	917.548	700.057
191.300	19.503	916.699	697.948
192.315	18.953	915.316	694.614
193.329	18.770	914.143	692.922
194.344	18.763	913.744	692.530
195.359	19.093	913.205	693.389
196.373	19.051	913.107	693.087
197.388	19.242	912.626	693.429
198.402	19.550	911.927	694.076
199.417	19.770	911.704	694.726
200.432	19.752	911.807	694.672
201.446	19.977	911.782	695.496
202.461	20.019	911.282	695.219
203.475	20.194	910.632	695.366
204.490	20.227	909.609	694.654
205.504	19.754	908.383	691.763
206.519	19.517	907.882	690.374
207.534	19.532	906.803	689.554
208.548	19.524	905.824	688.717
209.563	19.606	905.167	688.483
210.577	19.512	904.656	687.659
211.592	19.665	904.088	687.774
212.607	19.967	903.696	688.615
213.621	19.869	903.763	688.216
214.636	19.937	902.610	687.549
215.650	19.782	901.923	686.348
216.665	19.860	901.486	686.264
217.680	19.889	901.663	686.452
218.694	19.989	901.031	686.308
219.709	20.172	900.156	686.307
220.723	19.986	899.917	685.327
221.738	20.014	898.648	684.411
222.753	19.869	898.428	683.609
223.767	19.863	897.632	682.917
224.782	19.990	896.843	682.760
225.796	20.224	895.879	682.887
226.811	20.313	895.142	682.617
227.826	20.115	894.710	681.445
228.840	19.836	893.873	679.654
229.855	19.962	893.081	679.486
230.869	19.833	892.733	678.653
231.884	19.845	892.010	678.089
232.899	19.779	891.154	677.123
233.913	19.617	890.221	675.718
234.928	19.594	889.588	675.088
235.942	19.546	888.689	674.158
236.957	19.550	887.676	673.346
237.972	19.525	887.327	672.924
238.986	19.482	886.800	672.298
240.001	19.588	885.913	671.980
241.015	19.606	885.385	671.587
242.030	19.674	884.648	671.234
243.045	19.654	884.683	671.123
244.059	19.768	883.911	670.923
245.074	19.928	883.010	670.799
246.088	19.942	882.662	670.529
247.103	20.050	882.323	670.632
248.117	20.217	881.609	670.675
249.132	20.294	881.381	670.737
250.147	20.550	881.532	671.785
251.161	20.979	880.525	672.612
252.176	20.957	880.285	672.285
253.190	21.086	879.375	672.029
254.205	21.079	879.065	671.704
255.220	21.100	878.335	671.166
256.234	20.903	877.833	669.969
257.249	20.837	877.285	669.235
258.263	20.900	876.362	668.714
259.278	20.965	875.890	668.544
260.293	20.872	875.404	667.759
261.307	20.963	875.263	667.938
262.322	20.968	874.910	667.630
263.336	21.046	874.092	667.248
264.351	21.077	873.197	666.622
265.366	21.067	872.581	666.053
266.380	21.091	871.867	665.544
267.395	21.156	871.422	665.391
268.409	20.972	870.511	663.937
269.424	20.969	869.743	663.279
270.439	20.804	869.110	662.111
271.453	20.787	868.510	661.533
272.468	20.559	867.781	660.053
273.482	20.656	866.977	659.750
274.497	20.631	866.298	659.080
275.512	20.813	865.443	659.061
276.526	20.658	864.796	657.921
277.541	20.673	864.872	657.979
278.555	20.641	864.024	657.156
279.570	20.864	863.791	657.761
280.585	21.121	863.166	658.197
281.599	21.018	862.805	657.477
282.614	21.131	861.754	657.044
283.628	20.826	861.054	655.303
284.643	20.707	860.571	654.428
285.657	20.742	860.201	654.222
286.672	20.795	859.415	653.765
287.687	20.920	858.908	653.791
288.701	20.879	858.391	653.187
289.716	20.847	857.900	652.634
290.730	20.801	857.619	652.189
291.745	20.932	856.916	652.089
292.760	20.925	856.086	651.374
293.774	21.036	855.524	651.301
294.789	21.185	855.269	651.605
295.803	21.225	854.525	651.130
296.818	20.987	854.043	649.818
297.833	20.949	853.311	649.064
298.847	20.911	852.748	648.436
299.862	21.010	851.800	648.026
300.876	20.942	851.757	647.684
301.891	21.021	850.905	647.271
302.906	21.187	850.385	647.432
303.920	21.327	849.685	647.362
304.935	21.449	849.672	647.748
305.949	21.615	848.845	647.673
306.964	21.662	847.969	647.122
307.979	21.282	847.376	645.208
308.993	21.323	847.059	645.060
310.008	21.341	846.319	644.508
311.022	21.514	845.844	644.726
312.037	21.513	844.993	644.019
313.052	21.143	844.918	642.541
314.066	21.170	843.735	641.683
315.081	20.789	843.160	639.788
316.095	20.748	842.581	639.141
317.110	20.998	841.605	639.263
318.125	21.025	840.757	638.660
319.139	20.950	840.952	638.476
320.154	20.920	840.455	637.936
321.168	20.795	840.149	637.188
322.183	21.107	839.300	637.627
323.197	21.016	838.945	636.970
324.212	21.102	838.490	636.881
325.227	21.082	837.795	636.223
326.241	21.141	837.576	636.218
327.256	21.084	836.827	635.385
328.270	21.042	836.119	634.636
329.285	21.082	835.562	634.304
330.300	21.034	834.833	633.521
331.314	21.066	834.681	633.464
332.329	21.028	833.938	632.707
333.343	21.308	833.152	633.069
334.358	21.355	833.107	633.149
335.373	21.277	832.819	632.591
336.387	21.451	831.857	632.434
337.402	21.473	831.449	632.148
338.416	21.515	831.138	632.008
339.431	21.645	830.641	632.042
340.446	21.874	830.292	632.548
341.460	22.001	829.854	632.616
342.475	21.780	829.921	631.812
343.489	22.004	829.034	631.890
344.504	22.009	828.776	631.654
345.519	22.067	827.953	631.180
346.533	22.354	826.981	631.413
347.548	22.173	826.865	630.619
348.562	21.972	825.858	629.074
349.577	21.717	825.184	627.594
350.592	21.411	824.736	626.100
351.606	21.463	824.060	625.720
352.621	21.382	823.617	625.036
353.635	21.504	822.681	624.708
354.650	21.533	822.643	624.726
355.665	21.563	822.458	624.639
356.679	21.710	821.676	624.513
357.694	21.778	821.437	624.517
358.708	21.809	821.079	624.302
359.723	21.866	819.995	623.626
360.738	21.737	819.981	623.101
361.752	21.747	819.201	622.488
362.767	21.719	818.643	621.910
363.781	21.915	818.922	622.761
364.796	22.081	818.593	623.043
365.810	22.390	817.878	623.542
366.825	22.594	817.283	623.755
367.840	22.378	817.720	623.267
368.854	22.348	817.133	622.657
369.869	22.219	816.250	621.475
370.883	22.042	815.648	620.338
371.898	21.975	815.227	619.723
372.913	22.132	814.884	619.963
373.927	22.377	813.914	620.034
374.942	22.197	813.257	618.845
375.956	22.196	812.638	618.316
376.971	22.254	811.897	617.900
377.986	22.492	811.127	618.095
379.000	22.569	811.050	618.253
380.015	22.790	810.507	618.559
381.029	22.562	810.311	617.556
382.044	22.549	809.436	616.786
383.059	22.422	809.311	616.192
384.073	22.448	808.707	615.770
385.088	22.516	807.896	615.335
386.102	22.280	806.847	613.659
387.117	22.132	806.687	612.965
388.132	22.141	805.889	612.336
389.146	22.207	805.439	612.170
390.161	22.014	805.250	611.302
391.175	22.336	805.213	612.341
392.190	22.594	804.815	612.881
393.205	22.536	804.007	612.009
394.219	22.182	803.423	610.282
395.234	22.219	802.896	609.957
396.248	22.098	802.569	609.232
397.263	22.081	801.555	608.350
398.278	21.870	801.177	607.279
399.292	21.969	800.987	607.425
400.307	21.754	800.566	606.309
401.321	21.830	799.936	606.040
402.336	21.962	799.455	606.078
403.350	22.000	799.269	606.015
404.365	22.168	798.949	606.299
405.380	22.442	798.826	607.096
406.394	22.483	798.570	606.989
407.409	22.701	798.186	607.395
408.423	22.698	797.816	607.049
409.438	22.677	797.343	606.562
410.453	22.802	796.549	606.335
411.467	22.769	796.467	606.104
412.482	22.786	796.236	605.934
413.496	23.119	795.521	606.478
414.511	23.018	795.414	605.995
415.526	23.158	794.652	605.841
416.540	23.001	794.485	605.122
417.555	22.804	793.983	604.015
418.569	22.769	793.355	603.364
419.584	22.737	793.033	602.954
420.599	22.953	792.010	602.859
421.613	165.184	1370.634	1796.919
422.628	143.276	1454.941	1797.002
