DTS Sentinel unit serial number:	SN413079Multiplexer serial number:	ORYXHardware model number:	OX4-SRSoftware version number:	ORYX F/W v4.00 Oryx Data Collector v3.7.2.0data status	okinstallation	princeton_trtdifferential loss correction	single-endedforward channel	channel 3reverse channel	N/Adate	2019/09/14time	08:12:35forward acquisition time	60.00reverse acquisition time	0.00gamma	496.2192k internal	0.2332k external	0.2332temperature offset calibration	1.0047default loss term (dB/km)	0.3790temperature slope calibration	1.0000multiplexer offset coefficient	1.0000multiplexer slope coefficient	1.0000fibre end	0.00T internal ref (°C)	27.48T ext. ref 1 (°C)	3.57T ext. ref 2 (°C)	26.19length (m)	temperature (°C)	Stokes	anti-Stokes-747.200	800.000	-0.088	-0.342
-746.185	336.670	-0.013	0.025
-745.171	800.000	-0.056	0.203
-744.156	-200.000	-0.006	0.050
-743.142	800.000	0.047	0.143
-742.127	-200.000	-0.032	0.247
-741.112	-153.933	-0.202	-0.014
-740.098	739.048	0.025	-0.068
-739.083	-200.000	0.032	0.217
-738.069	-106.288	-0.338	0.076
-737.054	5.628	-0.222	0.165
-736.039	-30.109	-0.119	-0.068
-735.025	159.016	0.125	0.174
-734.010	-6.754	-0.223	-0.153
-732.996	126.933	-0.152	-0.194
-731.981	-200.000	0.013	0.322
-730.966	51.164	0.306	-0.292
-729.952	-146.649	-0.200	-0.017
-728.937	-163.568	-0.108	-0.005
-727.923	-0.542	-0.195	0.139
-726.908	-71.472	-0.370	0.139
-725.894	84.300	-0.113	-0.124
-724.879	73.648	-0.116	0.122
-723.864	356.253	-0.167	-0.335
-722.850	36.572	-0.251	0.222
-721.835	800.000	0.064	0.185
-720.821	7.281	-0.398	0.299
-719.806	50.990	-0.118	-0.112
-718.791	-106.701	-0.300	0.067
-717.777	-200.000	0.019	0.099
-716.762	31.757	-0.372	0.321
-715.748	-43.219	-0.203	0.103
-714.733	-38.337	-0.315	-0.168
-713.718	-10.726	0.178	0.118
-712.704	225.673	0.229	0.372
-711.689	800.000	-0.093	-0.336
-710.675	205.704	0.099	-0.155
-709.660	59.183	-0.010	0.010
-708.645	-100.819	0.304	0.075
-707.631	245.166	-0.130	0.220
-706.616	-107.960	-0.225	0.049
-705.602	800.000	-0.047	0.140
-704.587	-161.732	-0.059	-0.003
-703.572	-131.033	0.347	-0.046
-702.558	310.863	0.121	0.228
-701.543	-74.647	0.115	-0.041
-700.529	47.667	0.074	-0.069
-699.514	-117.455	0.106	0.019
-698.499	-71.012	-0.239	0.090
-697.485	-93.507	-0.300	-0.083
-696.470	-200.000	0.035	0.210
-695.456	-142.322	-0.222	0.022
-694.441	-200.000	0.021	0.104
-693.426	-200.000	-0.001	-0.065
-692.412	108.454	0.211	-0.252
-691.397	-7.262	-0.079	0.054
-690.383	377.826	0.059	0.121
-689.368	517.689	-0.116	-0.273
-688.354	800.000	0.029	0.115
-687.339	-11.434	-0.226	-0.149
-686.324	50.198	-0.206	0.196
-685.310	-200.000	-0.012	0.154
-684.295	-89.131	-0.153	0.045
-683.281	-55.233	0.309	0.139
-682.266	-10.815	-0.081	-0.054
-681.251	-162.205	0.111	0.006
-680.237	-200.000	-0.048	0.256
-679.222	-67.925	0.186	-0.073
-678.208	239.677	0.109	0.182
-677.193	-200.000	-0.012	0.249
-676.178	-200.000	-0.045	-0.241
-675.164	-140.058	-0.102	0.011
-674.149	-82.938	-0.050	0.016
-673.135	292.310	-0.112	0.204
-672.120	-161.321	-0.269	0.014
-671.105	-22.329	-0.084	-0.051
-670.091	-0.869	-0.318	-0.226
-669.076	15.593	-0.266	-0.209
-668.062	-51.687	-0.452	-0.211
-667.047	132.493	-0.016	-0.021
-666.032	47.881	0.111	-0.104
-665.018	-133.537	-0.219	-0.028
-664.003	-43.736	0.090	-0.045
-662.989	293.520	0.059	0.109
-661.974	-34.723	-0.368	-0.202
-660.959	607.612	-0.088	-0.219
-659.945	3.160	-0.181	0.132
-658.930	-72.994	-0.159	0.059
-657.916	94.901	0.235	-0.268
-656.901	34.980	0.170	-0.149
-655.886	151.833	-0.056	0.077
-654.872	-200.000	-0.023	0.188
-653.857	20.832	-0.098	0.079
-652.843	155.072	0.081	-0.111
-651.828	-43.491	-0.133	-0.067
-650.814	600.448	0.087	-0.218
-649.799	-114.156	0.196	0.038
-648.784	-200.000	0.022	-0.239
-647.770	35.172	-0.244	0.215
-646.755	-6.719	0.088	-0.060
-645.741	72.376	-0.108	0.113
-644.726	-66.986	-0.251	-0.099
-643.711	-19.855	-0.037	0.023
-642.697	333.251	0.101	-0.195
-641.682	-200.000	-0.015	-0.121
-640.668	-66.357	-0.142	-0.057
-639.653	-200.000	0.007	-0.034
-638.638	-94.590	0.219	-0.060
-637.624	190.500	-0.052	-0.079
-636.609	-120.833	-0.155	0.026
-635.595	-19.362	-0.155	-0.096
-634.580	-43.140	0.043	-0.022
-633.565	800.000	0.009	-0.033
-632.551	-174.001	-0.108	-0.003
-631.536	178.615	-0.187	-0.273
-630.522	-133.306	0.271	0.034
-629.507	81.060	0.043	-0.047
-628.492	-104.817	-0.303	-0.070
-627.478	-200.000	-0.029	-0.200
-626.463	-200.000	-0.072	-0.377
-625.449	54.189	-0.173	0.167
-624.434	280.749	-0.079	-0.142
-623.419	-170.308	0.166	0.006
-622.405	-46.515	-0.203	0.100
-621.390	800.000	0.090	-0.392
-620.376	372.582	-0.088	-0.179
-619.361	-174.420	-0.034	-0.001
-618.346	-200.000	0.038	0.234
-617.332	215.632	0.094	-0.149
-616.317	-66.390	-0.121	-0.048
-615.303	-200.000	0.048	0.240
-614.288	-85.189	0.211	-0.066
-613.273	-66.742	0.173	0.068
-612.259	13.702	-0.175	-0.136
-611.244	-140.476	0.193	0.020
-610.230	-200.000	0.017	-0.214
-609.215	-173.902	0.253	0.007
-608.201	-113.810	0.433	0.084
-607.186	-45.454	-0.131	0.065
-606.171	-156.334	0.056	0.003
-605.157	-200.000	-0.000	-0.062
-604.142	-136.047	0.268	0.032
-603.128	-50.142	0.177	0.084
-602.113	-74.341	0.092	-0.033
-601.098	-200.000	-0.000	0.180
-600.084	-200.000	-0.035	-0.287
-599.069	-85.542	-0.234	0.073
-598.055	98.708	0.278	-0.321
-597.040	187.975	-0.042	-0.062
-596.025	330.608	-0.040	-0.077
-595.011	-144.831	-0.159	0.015
-593.996	-47.985	-0.409	0.198
-592.982	222.113	0.096	-0.154
-591.967	-66.931	0.141	-0.056
-590.952	-200.000	-0.005	-0.252
-589.938	-200.000	0.012	0.270
-588.923	-15.747	-0.275	-0.175
-587.909	-59.828	-0.232	-0.099
-586.894	359.759	0.120	-0.241
-585.879	60.170	0.195	-0.193
-584.865	212.577	0.079	0.124
-583.850	202.076	0.212	0.326
-582.836	-123.282	-0.322	-0.051
-581.821	270.583	-0.088	-0.155
-580.806	-200.000	0.014	0.154
-579.792	124.794	0.220	0.277
-578.777	-110.371	-0.135	0.028
-577.763	800.000	-0.078	-0.241
-576.748	99.253	0.277	0.320
-575.733	-105.558	-0.315	-0.071
-574.719	604.000	-0.127	0.315
-573.704	800.000	-0.035	-0.155
-572.690	217.137	0.083	-0.133
-571.675	-117.355	-0.410	0.074
-570.661	-200.000	0.017	0.094
-569.646	258.939	-0.104	0.179
-568.631	-29.353	0.053	0.030
-567.617	-200.000	0.019	-0.147
-566.602	-200.000	-0.018	0.238
-565.588	-143.287	-0.234	0.022
-564.573	16.796	0.197	-0.156
-563.558	3.676	-0.031	0.023
-562.544	59.117	0.185	0.182
-561.529	74.420	-0.219	-0.230
-560.515	-141.841	-0.223	0.022
-559.500	244.318	-0.181	0.303
-558.485	-141.113	0.229	0.023
-557.471	-200.000	-0.007	-0.190
-556.456	-65.212	-0.254	0.102
-555.442	420.752	0.023	0.050
-554.427	125.854	0.124	-0.157
-553.412	-139.419	0.114	0.012
-552.398	-82.571	0.212	0.069
-551.383	23.602	0.405	-0.333
-550.369	-111.065	-0.181	0.037
-549.354	-200.000	0.024	0.208
-548.339	176.008	0.030	-0.043
-547.325	132.456	0.111	-0.143
-546.310	-24.846	0.145	0.086
-545.296	-12.021	-0.101	0.066
-544.281	-200.000	0.055	-0.285
-543.266	97.010	0.360	-0.412
-542.252	-59.839	0.345	0.147
-541.237	-200.000	-0.030	-0.306
-540.223	-51.817	0.106	-0.049
-539.208	-121.286	-0.090	0.015
-538.193	-159.028	0.227	-0.013
-537.179	-41.208	0.128	-0.066
-536.164	159.522	-0.123	-0.170
-535.150	-200.000	-0.027	0.221
-534.135	800.000	-0.037	0.120
-533.121	-147.142	-0.426	0.036
-532.106	-73.138	0.090	-0.033
-531.091	128.374	0.155	0.197
-530.077	126.513	-0.079	0.099
-529.062	77.430	-0.083	-0.088
-528.048	-200.000	0.021	0.128
-527.033	207.634	0.032	0.050
-526.018	-144.374	0.130	-0.012
-525.004	-7.924	-0.160	0.108
-523.989	-140.804	0.083	0.009
-522.975	-15.785	-0.103	0.065
-521.960	495.902	0.072	-0.164
-520.945	-35.419	-0.063	0.034
-519.931	282.442	0.072	0.129
-518.916	-59.071	0.325	0.140
-517.902	-160.898	-0.162	-0.009
-516.887	800.000	-0.082	0.313
-515.872	800.000	-0.026	-0.071
-514.858	-107.722	-0.406	0.088
-513.843	10.779	-0.074	0.056
-512.829	307.061	0.103	0.191
-511.814	-151.606	-0.202	-0.015
-510.799	143.565	-0.148	-0.197
-509.785	92.096	-0.080	-0.090
-508.770	574.651	-0.011	-0.027
-507.756	292.805	-0.185	-0.336
-506.741	24.580	0.149	0.123
-505.726	-14.847	-0.323	0.207
-504.712	-176.876	0.079	0.002
-503.697	-9.592	0.130	-0.086
-502.683	-3.401	-0.203	0.141
-501.668	-200.000	0.003	-0.095
-500.653	477.248	0.012	-0.026
-499.639	171.641	-0.049	0.070
-498.624	-3.423	-0.172	0.119
-497.610	64.257	0.289	-0.290
-496.595	455.550	-0.221	-0.489
-495.581	381.871	0.093	0.189
-494.566	-200.000	-0.049	-0.230
-493.551	-200.000	0.004	0.045
-492.537	-126.444	-0.214	0.032
-491.522	-200.000	0.046	-0.261
-490.508	-200.000	-0.025	-0.481
-489.493	5.098	0.144	0.106
-488.478	-29.220	-0.146	0.083
-487.464	-200.000	-0.072	0.463
-486.449	800.000	0.073	0.231
-485.435	-94.114	0.223	0.061
-484.420	-200.000	-0.025	0.394
-483.405	115.045	0.175	-0.213
-482.391	-170.148	-0.153	0.005
-481.376	151.837	0.086	-0.116
-480.362	164.668	0.110	0.155
-479.347	65.310	-0.139	-0.140
-478.332	-90.455	0.084	0.024
-477.318	-162.593	-0.083	0.004
-476.303	-64.647	0.152	0.061
-475.289	-77.719	0.233	0.080
-474.274	-23.689	0.105	0.062
-473.259	-155.308	-0.240	-0.016
-472.245	-39.819	-0.167	-0.087
-471.230	-200.000	-0.020	-0.254
-470.216	767.060	-0.046	0.124
-469.201	-125.427	-0.228	0.035
-468.186	-52.674	0.258	0.118
-467.172	-200.000	-0.009	-0.050
-466.157	-131.016	0.129	-0.017
-465.143	53.996	-0.026	0.025
-464.128	-200.000	-0.014	0.191
-463.113	-200.000	-0.014	-0.077
-462.099	-200.000	-0.083	-0.508
-461.084	737.286	0.053	0.140
-460.070	36.678	0.175	-0.154
-459.055	33.520	-0.150	-0.130
-458.040	-67.890	-0.069	-0.027
-457.026	800.000	0.175	0.585
-456.011	-200.000	-0.003	0.031
-454.997	616.265	-0.064	0.160
-453.982	-105.616	-0.204	0.046
-452.968	-43.096	-0.106	0.053
-451.953	-200.000	0.003	-0.111
-450.938	-59.796	0.245	0.104
-449.924	-200.000	0.019	0.292
-448.909	561.026	-0.070	-0.167
-447.895	-61.723	-0.265	-0.110
-446.880	-116.620	-0.198	0.036
-445.865	-11.803	-0.107	-0.070
-444.851	163.895	-0.249	0.349
-443.836	671.842	0.104	0.268
-442.822	-99.019	-0.385	-0.097
-441.807	-60.944	-0.386	-0.162
-440.792	-73.313	0.361	-0.131
-439.778	2.740	0.153	-0.110
-438.763	800.000	-0.049	-0.206
-437.749	-48.918	0.203	-0.096
-436.734	-148.699	0.326	0.026
-435.719	800.000	-0.119	0.415
-434.705	-130.065	0.185	-0.025
-433.690	91.275	0.042	0.047
-432.676	-200.000	-0.025	0.157
-431.661	-32.468	0.135	-0.075
-430.646	171.937	0.106	0.152
-429.632	-61.034	0.300	-0.126
-428.617	-4.161	-0.109	-0.075
-427.603	-200.000	0.005	0.055
-426.588	-109.295	0.288	0.061
-425.573	-28.612	-0.078	0.045
-424.559	-200.000	0.052	0.276
-423.544	177.339	-0.130	-0.188
-422.530	800.000	-0.051	-0.195
-421.515	370.901	0.147	0.296
-420.500	-62.367	-0.387	-0.160
-419.486	72.150	-0.066	0.069
-418.471	276.193	-0.114	-0.201
-417.457	531.785	-0.044	0.103
-416.442	-53.888	-0.061	0.028
-415.428	-96.651	0.180	0.047
-414.413	-200.000	-0.004	0.081
-413.398	-60.391	0.105	0.044
-412.384	94.150	-0.201	0.226
-411.369	-132.648	-0.194	0.025
-410.355	-0.785	0.088	0.062
-409.340	-160.950	0.214	0.011
-408.325	800.000	-0.065	-0.210
-407.311	45.239	-0.285	0.261
-406.296	-148.817	-0.191	0.015
-405.282	-8.051	0.120	0.080
-404.267	-24.397	0.283	-0.167
-403.252	-200.000	0.009	0.402
-402.238	-200.000	-0.062	0.274
-401.223	58.195	-0.193	-0.188
-400.209	800.000	-0.084	-0.295
-399.194	354.159	-0.082	-0.163
-398.179	-200.000	0.031	-0.157
-397.165	-105.312	0.359	-0.081
-396.150	-58.174	-0.178	-0.077
-395.136	800.000	0.054	-0.187
-394.121	55.542	-0.289	-0.278
-393.106	-72.614	0.312	0.114
-392.092	800.000	-0.059	0.193
-391.077	-200.000	0.002	0.215
-390.063	-145.144	0.109	0.010
-389.048	-4.162	0.240	0.165
-388.033	-73.599	-0.127	0.046
-387.019	-137.057	0.105	0.012
-386.004	-200.000	-0.020	0.179
-384.990	-200.000	0.017	-0.334
-383.975	-115.096	0.149	0.028
-382.960	-82.490	-0.198	0.064
-381.946	-174.719	0.361	0.010
-380.931	-200.000	0.026	0.126
-379.917	74.396	-0.223	0.232
-378.902	-200.000	-0.022	-0.265
-377.888	-200.000	0.014	-0.076
-376.873	66.597	0.102	-0.103
-375.858	111.008	0.209	0.249
-374.844	-133.140	0.231	-0.029
-373.829	800.000	0.033	-0.121
-372.815	-200.000	0.025	-0.242
-371.800	-79.647	0.143	-0.048
-370.785	28.631	-0.203	0.170
-369.771	164.453	-0.122	-0.170
-368.756	-112.556	-0.336	0.066
-367.742	-68.049	0.082	0.032
-366.727	46.593	0.089	-0.082
-365.712	32.997	0.139	-0.119
-364.698	-91.479	0.205	0.058
-363.683	-200.000	-0.008	0.179
-362.669	800.000	-0.073	0.235
-361.654	800.000	0.071	0.197
-360.639	14.771	-0.083	0.064
-359.625	768.405	-0.053	-0.142
-358.610	-66.144	0.324	-0.128
-357.596	-200.000	0.005	-0.228
-356.581	624.918	0.076	0.190
-355.566	-200.000	0.020	0.195
-354.552	-159.882	-0.083	0.005
-353.537	-98.155	-0.300	-0.076
-352.523	-90.377	-0.170	-0.049
-351.508	-200.000	-0.003	-0.043
-350.493	621.093	-0.037	0.092
-349.479	168.603	-0.134	0.189
-348.464	-200.000	-0.011	-0.051
-347.450	-42.154	0.245	0.124
-346.435	-27.977	-0.473	-0.271
-345.420	-11.542	0.185	0.120
-344.406	-63.358	-0.189	0.077
-343.391	-101.550	-0.321	0.077
-342.377	-65.425	0.163	-0.065
-341.362	683.181	0.085	-0.219
-340.348	800.000	-0.042	-0.119
-339.333	-133.834	-0.208	-0.026
-338.318	41.518	0.352	0.315
-337.304	-200.000	0.043	-0.287
-336.289	140.977	0.100	0.131
-335.275	665.754	-0.059	0.151
-334.260	111.996	-0.084	0.101
-333.245	-87.694	-0.111	-0.033
-332.231	-200.000	0.055	0.244
-331.216	525.189	0.050	-0.117
-330.202	-200.000	-0.019	-0.248
-329.187	547.416	0.154	-0.365
-328.172	73.199	0.122	0.126
-327.158	800.000	0.062	0.258
-326.143	34.282	-0.213	-0.184
-325.129	42.263	0.211	-0.189
-324.114	-200.000	-0.034	-0.162
-323.099	-135.058	-0.109	-0.013
-322.085	31.539	-0.156	-0.133
-321.070	-1.630	0.073	-0.051
-320.056	253.777	-0.216	-0.365
-319.041	199.654	-0.120	0.182
-318.026	-200.000	0.008	0.064
-317.012	33.891	0.026	-0.022
-315.997	475.283	0.098	0.219
-314.983	-200.000	-0.031	-0.216
-313.968	137.372	0.035	0.045
-312.953	51.128	0.142	0.134
-311.939	109.748	-0.066	0.079
-310.924	-65.531	0.269	-0.107
-309.910	-67.065	0.134	0.052
-308.895	733.204	-0.055	-0.145
-307.880	-67.088	-0.076	0.030
-306.866	-88.862	0.120	-0.035
-305.851	204.244	0.075	-0.116
-304.837	-200.000	-0.025	0.170
-303.822	-10.510	0.306	0.200
-302.807	224.996	0.161	0.257
-301.793	-200.000	-0.007	0.147
-300.778	369.069	-0.106	0.212
-299.764	-1.292	-0.044	0.031
-298.749	-200.000	-0.012	0.182
-297.735	114.515	0.056	0.067
-296.720	800.000	-0.120	0.425
-295.705	-0.108	0.276	0.194
-294.691	-200.000	0.016	-0.089
-293.676	-56.745	0.124	-0.054
-292.662	-200.000	0.051	0.269
-291.647	221.142	0.178	0.282
-290.632	-200.000	0.064	-0.323
-289.618	150.666	0.028	0.038
-288.603	-72.187	0.055	-0.020
-287.589	234.905	0.194	-0.316
-286.574	47.204	-0.034	-0.032
-285.559	33.577	-0.119	0.102
-284.545	670.962	0.026	-0.067
-283.530	-159.399	0.090	0.005
-282.516	215.701	-0.036	-0.057
-281.501	-18.500	0.234	-0.144
-280.486	-92.013	0.232	-0.065
-279.472	69.948	0.147	-0.149
-278.457	-60.497	-0.108	-0.045
-277.443	-200.000	-0.050	0.462
-276.428	84.590	-0.253	0.274
-275.413	-133.976	-0.207	-0.025
-274.399	-170.358	-0.422	-0.015
-273.384	293.146	0.117	-0.211
-272.370	127.697	0.069	0.087
-271.355	-40.109	-0.265	-0.136
-270.340	52.099	0.089	-0.083
-269.326	234.523	0.177	0.289
-268.311	-200.000	0.029	-0.338
-267.297	700.595	0.077	-0.200
-266.282	-200.000	-0.003	-0.028
-265.267	558.020	-0.014	0.034
-264.253	-200.000	-0.038	-0.188
-263.238	-41.906	-0.135	0.068
-262.224	177.379	-0.048	0.069
-261.209	526.835	-0.013	-0.031
-260.195	-104.480	0.222	-0.051
-259.180	628.280	0.070	0.175
-258.165	-200.000	0.006	0.032
-257.151	386.111	0.132	-0.269
-256.136	-90.358	-0.179	-0.051
-255.122	180.454	-0.041	-0.059
-254.107	-68.334	0.133	0.051
-253.092	34.307	-0.245	0.211
-252.078	-146.919	-0.291	0.025
-251.063	-200.000	-0.023	0.185
-250.049	-24.893	-0.177	0.104
-249.034	552.198	0.092	-0.218
-248.019	90.940	-0.298	-0.330
-247.005	-143.506	0.207	0.019
-245.990	80.104	0.014	-0.015
-244.976	-200.000	0.040	-0.186
-243.961	444.443	-0.061	0.131
-242.946	-116.764	0.253	-0.046
-241.932	513.886	-0.052	-0.119
-240.917	-172.033	-0.397	0.013
-239.903	349.708	-0.114	-0.221
-238.888	-84.530	0.280	0.087
-237.873	558.407	0.075	-0.180
-236.859	-200.000	0.051	0.279
-235.844	-200.000	-0.023	0.423
-234.830	800.000	0.039	0.145
-233.815	-100.447	0.144	-0.035
-232.800	-110.768	-0.151	0.031
-231.786	0.658	0.019	0.013
-230.771	-9.555	-0.403	0.265
-229.757	-200.000	0.039	0.225
-228.742	-200.000	-0.026	-0.168
-227.727	-200.000	0.026	-0.122
-226.713	-38.953	0.231	0.120
-225.698	-145.057	0.250	-0.022
-224.684	779.595	-0.061	-0.166
-223.669	63.937	0.152	0.150
-222.655	14.756	0.138	0.107
-221.640	-200.000	0.006	-0.060
-220.625	64.651	0.294	-0.292
-219.611	-200.000	0.025	0.255
-218.596	139.243	0.054	-0.070
-217.582	-200.000	0.017	-0.356
-216.567	181.887	0.103	-0.149
-215.552	245.135	-0.144	0.238
-214.538	800.000	-0.051	0.183
-213.523	-70.718	-0.070	-0.026
-212.509	-165.227	0.353	-0.015
-211.494	-127.398	-0.103	-0.015
-210.479	-22.118	-0.060	0.036
-209.465	-89.633	0.103	0.030
-208.450	-119.597	0.172	-0.029
-207.436	-200.000	0.041	-0.355
-206.421	800.000	-0.088	-0.369
-205.406	800.000	0.051	-0.154
-204.392	138.268	0.153	-0.197
-203.377	-200.000	0.014	0.092
-202.363	204.441	0.074	0.113
-201.348	-200.000	0.010	-0.052
-200.333	34.663	-0.142	-0.122
-199.319	-155.392	-0.215	0.014
-198.304	-46.096	0.098	0.048
-197.290	800.000	0.162	-0.576
-196.275	800.000	0.107	0.372
-195.260	186.589	0.123	0.180
-194.246	-200.000	0.073	-0.515
-193.231	31.656	-0.146	-0.123
-192.217	800.000	-0.081	-0.257
-191.202	-146.438	-0.299	0.026
-190.187	800.000	-0.059	-0.255
-189.173	-200.000	-0.049	-0.227
-188.158	269.588	-0.108	0.186
-187.144	221.699	0.141	0.222
-186.129	19.033	-0.289	0.228
-185.114	-200.000	0.007	-0.102
-184.100	64.252	0.084	-0.083
-183.085	127.809	0.139	0.174
-182.071	-200.000	0.046	0.276
-181.056	-141.418	-0.230	-0.023
-180.042	-40.280	-0.148	0.076
-179.027	-0.872	0.238	0.166
-178.012	-151.963	0.336	-0.024
-176.998	234.597	0.210	0.340
-175.983	8.070	-0.021	-0.015
-174.969	-168.039	0.222	-0.009
-173.954	43.552	-0.189	0.170
-172.939	-200.000	-0.026	0.128
-171.925	-61.714	-0.229	0.095
-170.910	-117.672	-0.209	0.037
-169.896	207.400	-0.130	-0.199
-168.881	-55.695	0.164	0.072
-167.866	-80.382	-0.058	0.019
-166.852	-150.794	-0.227	0.017
-165.837	489.137	-0.079	0.177
-164.823	199.682	0.204	0.308
-163.808	308.430	0.107	0.197
-162.793	-109.121	-0.122	-0.025
-161.779	-149.584	-0.278	0.022
-160.764	211.989	0.061	0.095
-159.750	-200.000	-0.021	-0.159
-158.735	-200.000	-0.031	-0.196
-157.720	524.535	0.115	0.266
-156.706	-23.057	0.201	-0.119
-155.691	-97.621	0.235	-0.060
-154.677	-200.000	0.036	0.153
-153.662	-200.000	0.025	0.277
-152.647	-35.235	-0.441	-0.236
-151.633	-94.054	-0.447	-0.120
-150.618	23.803	0.065	-0.053
-149.604	-77.946	-0.225	-0.076
-148.589	-200.000	0.016	0.089
-147.574	449.915	0.047	0.102
-146.560	-200.000	0.024	-0.207
-145.545	44.811	0.502	0.453
-144.531	56.009	-0.186	-0.178
-143.516	-29.365	0.166	-0.093
-142.502	-87.968	0.143	0.042
-141.487	-200.000	-0.021	-0.335
-140.472	35.441	0.112	0.097
-139.458	127.729	-0.172	-0.215
-138.443	649.890	0.150	0.378
-137.429	800.000	0.028	-0.111
-136.414	119.724	0.032	0.039
-135.399	-48.845	-0.039	-0.018
-134.385	800.000	-0.118	0.346
-133.370	0.534	0.068	0.048
-132.356	23.775	-0.053	-0.042
-131.341	-200.000	-0.033	0.285
-130.326	-102.084	-0.127	-0.030
-129.312	-140.536	0.172	-0.018
-128.297	-145.434	-0.373	-0.033
-127.283	676.725	-0.016	0.040
-126.268	133.719	0.173	-0.220
-125.253	-75.479	-0.056	0.019
-124.239	186.292	-0.116	-0.169
-123.224	42.763	-0.147	0.131
-122.210	-32.106	0.161	-0.088
-121.195	535.592	-0.129	0.299
-120.180	-128.142	0.304	-0.043
-119.166	-200.000	0.015	-0.173
-118.151	800.000	-0.053	-0.171
-117.137	-200.000	0.004	0.448
-116.122	54.820	0.071	0.067
-115.107	-111.890	-0.145	0.029
-114.093	20.157	-0.115	-0.091
-113.078	-200.000	-0.030	0.211
-112.064	314.422	0.133	0.245
-111.049	-65.390	-0.065	-0.026
-110.034	-139.399	0.240	0.025
-109.020	-183.638	-0.190	-0.003
-108.005	-161.648	0.288	0.014
-106.991	-140.453	0.144	0.015
-105.976	800.000	0.087	0.246
-104.962	-81.444	0.449	-0.145
-103.947	48.203	0.107	-0.098
-102.932	96.086	0.117	0.131
-101.918	-139.389	0.416	0.044
-100.903	19.580	0.181	0.143
-99.889	-156.763	0.202	-0.012
-98.874	-81.948	0.134	-0.043
-97.859	800.000	-0.067	0.194
-96.845	495.010	0.100	-0.225
-95.830	-102.178	-0.068	-0.016
-94.816	-106.851	-0.236	0.051
-93.801	-9.700	-0.111	0.072
-92.786	-200.000	-0.005	-0.087
-91.772	800.000	0.057	0.194
-90.757	-59.171	-0.263	-0.111
-89.743	-75.810	-0.217	-0.076
-88.728	96.327	-0.046	-0.051
-87.713	-22.679	-0.085	-0.050
-86.699	241.857	0.051	0.083
-85.684	-184.902	0.139	-0.002
-84.670	160.410	-0.136	0.186
-83.655	29.689	0.104	-0.087
-82.640	293.601	0.101	-0.180
-81.626	-200.000	0.046	0.230
-80.611	-200.000	0.076	0.337
-79.597	-56.692	-0.395	-0.172
-78.582	-54.739	0.299	0.132
-77.567	580.567	-0.047	-0.113
-76.553	-200.000	-0.023	0.295
-75.538	-113.014	0.337	-0.065
-74.524	-50.001	-0.208	0.096
-73.509	-200.000	0.000	-0.156
-72.494	-89.903	0.444	0.127
-71.480	-32.646	0.007	-0.004
-70.465	-24.059	0.055	-0.032
-69.451	-122.702	0.159	0.025
-68.436	800.000	-0.113	0.433
-67.422	-40.197	0.276	-0.141
-66.407	26.353	-0.131	-0.108
-65.392	141.248	-0.115	0.150
-64.378	168.333	-0.285	0.397
-63.363	800.000	-0.071	0.271
-62.349	-200.000	0.071	-0.311
-61.334	153.367	-0.709	-0.951
-60.319	536.446	0.244	0.568
-59.305	246.987	-0.554	-0.916
-58.290	800.000	0.459	1.246
-57.276	800.000	0.401	1.583
-56.261	-200.000	111.194	615.529
-55.246	503.919	1526.423	3457.815
-54.232	175.578	2704.938	3840.071
-53.217	107.248	2191.280	2550.325
-52.203	38.218	1712.233	1492.264
-51.188	30.704	1528.499	1280.599
-50.173	28.339	1504.296	1244.235
-49.159	50.835	1562.545	1448.825
-48.144	50.073	1577.992	1457.820
-47.130	30.780	1533.211	1284.872
-46.115	27.823	1517.870	1251.725
-45.100	27.554	1514.816	1247.313
-44.086	27.579	1513.081	1246.010
-43.071	27.532	1510.773	1243.738
-42.057	27.478	1509.416	1242.199
-41.042	27.434	1508.288	1240.922
-40.027	27.504	1506.357	1239.765
-39.013	27.447	1504.637	1237.909
-37.998	27.476	1503.405	1237.041
-36.984	27.563	1502.150	1236.553
-35.969	27.478	1500.604	1234.653
-34.954	27.470	1499.687	1233.798
-33.940	27.440	1498.205	1232.326
-32.925	27.451	1496.651	1231.075
-31.911	27.504	1495.480	1230.421
-30.896	27.547	1494.033	1229.473
-29.881	27.507	1492.960	1228.266
-28.867	27.554	1491.476	1227.317
-27.852	27.520	1490.183	1225.977
-26.838	27.490	1489.161	1224.882
-25.823	27.572	1486.886	1223.516
-24.809	27.557	1485.462	1222.194
-23.794	27.537	1484.443	1221.175
-22.779	27.580	1483.236	1220.422
-21.765	27.517	1482.404	1219.266
-20.750	27.575	1481.092	1218.522
-19.736	27.551	1480.265	1217.632
-18.721	27.452	1479.555	1216.341
-17.706	27.391	1478.053	1214.653
-16.692	27.512	1476.424	1214.072
-15.677	27.469	1475.915	1213.321
-14.663	27.512	1474.803	1212.642
-13.648	27.409	1473.842	1211.121
-12.633	27.492	1472.806	1210.771
-11.619	27.442	1472.235	1209.918
-10.604	27.413	1471.611	1209.168
-9.590	27.508	1470.880	1209.147
-8.575	27.546	1469.524	1208.239
-7.560	27.396	1468.695	1206.515
-6.546	27.427	1467.953	1206.066
-5.531	27.397	1466.960	1204.998
-4.517	27.369	1466.453	1204.353
-3.502	27.523	1464.763	1203.930
-2.487	27.507	1463.709	1202.911
-1.473	27.448	1463.075	1201.953
-0.458	27.436	1461.441	1200.487
0.556	27.984	1452.752	1193.156
1.571	25.898	1428.818	1159.984
2.586	23.396	1368.970	1095.849
3.600	22.130	1285.890	1021.897
4.615	20.773	1240.522	978.133
5.629	17.530	1183.177	915.433
6.644	9.895	1099.053	812.004
7.659	4.403	1060.242	756.556
8.673	3.591	1054.965	748.784
9.688	3.508	1052.133	746.307
10.702	3.553	1050.182	745.072
11.717	3.638	1048.065	743.916
12.731	5.762	1050.388	755.745
13.746	13.273	1060.669	799.521
14.761	18.851	1068.339	832.326
15.775	19.696	1067.726	835.864
16.790	18.965	1066.402	831.218
17.804	18.021	1063.910	824.648
18.819	17.000	1062.152	818.293
19.834	16.696	1060.715	815.651
20.848	16.497	1059.864	813.963
21.863	16.324	1059.339	812.656
22.877	16.061	1058.586	810.741
23.892	15.975	1057.450	809.389
24.907	15.761	1057.125	808.041
25.921	15.868	1056.291	807.846
26.936	15.825	1055.357	806.851
27.950	15.851	1054.365	806.149
28.965	15.878	1053.566	805.592
29.980	16.049	1052.066	805.194
30.994	16.047	1051.341	804.558
32.009	16.209	1050.135	804.335
33.023	16.130	1049.790	803.625
34.038	16.204	1048.239	802.718
35.053	16.047	1047.878	801.622
36.067	16.094	1046.523	800.737
37.082	15.887	1045.806	799.135
38.096	15.959	1045.198	798.942
39.111	16.005	1044.308	798.412
40.126	16.193	1043.296	798.456
41.140	15.968	1042.432	796.660
42.155	15.914	1040.979	795.225
43.169	15.595	1040.300	793.128
44.184	15.741	1038.865	792.654
45.199	15.522	1038.269	791.097
46.213	15.554	1037.006	790.213
47.228	15.582	1036.329	789.761
48.242	15.838	1034.709	789.655
49.257	15.950	1034.188	789.717
50.271	15.917	1033.339	788.844
51.286	15.937	1032.594	788.298
52.301	15.981	1031.957	787.946
53.315	15.889	1031.227	786.891
54.330	15.947	1030.046	786.191
55.344	15.885	1029.088	785.099
56.359	15.661	1028.423	783.477
57.374	15.786	1027.183	783.046
58.388	15.764	1026.495	782.350
59.403	15.660	1025.612	781.127
60.417	15.659	1024.433	780.154
61.432	15.606	1024.102	779.586
62.447	15.554	1023.673	778.953
63.461	15.581	1022.498	778.113
64.476	15.539	1021.566	777.138
65.490	15.513	1020.326	776.010
66.505	15.497	1019.386	775.150
67.520	15.603	1018.838	775.152
68.534	15.590	1017.755	774.203
69.549	15.631	1017.039	773.777
70.563	15.563	1016.741	773.168
71.578	15.693	1015.573	772.811
72.593	15.540	1015.054	771.643
73.607	15.490	1013.927	770.491
74.622	15.425	1013.014	769.429
75.636	15.408	1011.843	768.392
76.651	15.500	1011.616	768.576
77.666	15.512	1010.424	767.656
78.680	15.435	1009.863	766.811
79.695	15.493	1009.390	766.648
80.709	15.509	1008.798	766.201
81.724	15.457	1008.245	765.479
82.739	15.739	1007.396	766.052
83.753	15.688	1006.501	765.069
84.768	15.843	1005.911	765.261
85.782	16.042	1005.190	765.546
86.797	16.139	1004.104	765.091
87.812	16.126	1003.458	764.474
88.826	15.975	1002.376	762.896
89.841	15.905	1001.697	761.996
90.855	16.005	1000.669	761.600
91.870	15.961	1000.362	761.098
92.884	16.047	999.899	761.070
93.899	16.070	998.876	760.328
94.914	16.133	997.941	759.832
95.928	16.180	997.335	759.513
96.943	16.141	996.777	758.845
97.957	16.137	995.605	757.870
98.972	16.087	994.694	756.883
99.987	16.063	994.211	756.340
101.001	16.049	993.756	755.867
102.016	16.129	992.479	755.187
103.030	16.015	991.739	754.046
104.045	15.986	991.134	753.391
105.060	16.168	989.487	752.882
106.074	15.999	988.500	751.311
107.089	15.694	988.244	749.694
108.103	15.601	987.287	748.485
109.118	15.598	985.802	747.281
110.133	15.608	985.333	746.902
111.147	15.691	984.235	746.373
112.162	15.528	983.555	745.068
113.176	15.532	982.689	744.361
114.191	15.654	981.896	744.238
115.206	15.603	981.155	743.386
116.220	15.646	980.436	742.966
117.235	15.727	979.405	742.475
118.249	15.673	978.586	741.552
119.264	15.642	977.631	740.623
120.279	15.679	976.202	739.638
121.293	15.540	975.879	738.716
122.308	15.514	975.337	738.127
123.322	15.443	974.724	737.284
124.337	15.328	973.601	735.866
125.352	15.465	971.820	735.056
126.366	15.416	971.122	734.247
127.381	15.507	970.245	733.919
128.395	15.468	969.025	732.759
129.410	15.450	968.135	731.943
130.424	15.413	967.267	731.061
131.439	15.555	967.035	731.439
132.454	15.671	965.672	730.850
133.468	15.655	965.093	730.274
134.483	15.638	964.634	729.790
135.497	15.850	963.657	729.906
136.512	15.682	963.046	728.652
137.527	15.682	962.423	728.116
138.541	15.696	961.522	727.427
139.556	15.745	960.868	727.081
140.570	15.702	959.990	726.167
141.585	15.831	959.497	726.288
142.600	15.902	958.994	726.149
143.614	15.945	958.406	725.826
144.629	16.077	957.349	725.525
145.643	16.056	956.505	724.733
146.658	16.162	955.643	724.470
147.673	16.014	954.424	722.848
148.687	15.928	953.370	721.619
149.702	15.968	952.216	720.852
150.716	15.822	951.341	719.501
151.731	15.683	951.092	718.657
152.746	15.843	949.927	718.395
153.760	15.818	949.361	717.796
154.775	15.898	948.570	717.474
155.789	15.900	948.006	716.995
156.804	15.891	947.315	716.371
157.819	16.113	946.201	716.409
158.833	15.968	946.329	715.824
159.848	16.075	945.263	715.408
160.862	16.225	944.641	715.511
161.877	16.163	943.732	714.498
162.892	15.873	943.283	712.865
163.906	15.846	941.864	711.616
164.921	15.961	941.028	711.409
165.935	15.800	939.785	709.726
166.950	15.828	939.230	709.360
167.964	15.990	937.903	708.979
168.979	15.957	936.863	707.992
169.994	15.964	935.864	707.204
171.008	15.887	935.438	706.497
172.023	15.936	934.637	706.031
173.037	16.040	933.927	705.869
174.052	16.209	933.079	705.874
175.067	16.213	932.433	705.339
176.081	16.038	931.757	704.034
177.096	15.981	930.986	703.150
178.110	15.897	930.083	702.057
179.125	15.830	929.530	701.299
180.140	15.968	928.660	701.153
181.154	15.936	928.188	700.602
182.169	16.014	927.790	700.564
183.183	16.129	927.163	700.506
184.198	16.216	926.392	700.223
185.213	16.165	925.878	699.559
186.227	16.187	924.744	698.732
187.242	16.310	924.404	698.924
188.256	16.380	923.851	698.733
189.271	16.398	923.090	698.172
190.286	16.476	922.449	697.946
191.300	16.187	921.796	696.199
192.315	15.985	920.565	694.374
193.329	15.791	920.078	693.147
194.344	15.888	919.077	692.729
195.359	16.025	918.735	692.974
196.373	16.051	918.424	692.783
197.388	16.226	917.976	693.106
198.402	16.292	917.380	692.866
199.417	16.539	916.621	693.243
200.432	16.485	916.570	692.923
201.446	16.485	916.526	692.827
202.461	16.709	915.729	693.078
203.475	16.714	915.336	692.741
204.490	16.590	914.549	691.577
205.504	16.488	913.677	690.443
206.519	16.567	912.561	689.857
207.534	16.429	911.792	688.652
208.548	16.414	911.130	688.031
209.563	16.491	910.558	687.851
210.577	16.459	909.841	687.121
211.592	16.444	909.259	686.558
212.607	16.550	909.101	686.809
213.621	16.680	908.334	686.694
214.636	16.512	907.568	685.373
215.650	16.561	907.005	685.090
216.665	16.757	906.129	685.157
217.680	16.622	905.965	684.428
218.694	16.797	905.360	684.618
219.709	16.776	904.992	684.193
220.723	16.721	904.407	683.470
221.738	16.712	903.479	682.671
222.753	16.709	902.730	682.031
223.767	16.706	902.224	681.578
224.782	16.833	901.051	681.143
225.796	16.858	900.594	680.835
226.811	16.918	899.745	680.375
227.826	16.885	899.172	679.751
228.840	16.655	898.554	678.299
229.855	16.690	897.926	677.907
230.869	16.955	896.599	677.906
231.884	16.814	896.645	677.315
232.899	16.688	895.634	675.991
233.913	16.827	894.947	675.966
234.928	16.541	894.528	674.448
235.942	16.660	893.549	674.126
236.957	16.631	892.672	673.287
237.972	16.598	892.256	672.785
238.986	16.766	891.807	673.052
240.001	16.738	891.278	672.485
241.015	16.761	890.466	671.900
242.030	16.586	889.694	670.566
243.045	16.845	889.125	671.102
244.059	16.839	888.498	670.548
245.074	16.814	887.922	669.954
246.088	16.989	887.598	670.344
247.103	16.988	886.794	669.671
248.117	16.963	886.415	669.229
249.132	17.052	886.013	669.215
250.147	17.358	884.957	669.564
251.161	17.353	885.099	669.594
252.176	17.436	884.074	669.083
253.190	17.393	883.437	668.376
254.205	17.340	882.765	667.598
255.220	17.601	882.233	668.162
256.234	17.671	881.570	667.873
257.249	17.478	880.898	666.551
258.263	17.506	880.696	666.448
259.278	17.471	879.632	665.445
260.293	17.643	879.251	665.773
261.307	17.636	878.887	665.410
262.322	17.577	878.221	664.617
263.336	17.755	877.535	664.733
264.351	17.780	876.942	664.322
265.366	17.706	876.460	663.610
266.380	17.643	875.914	662.891
267.395	17.595	875.180	662.094
268.409	17.682	873.979	661.463
269.424	17.500	873.723	660.503
270.439	17.525	873.144	660.106
271.453	17.564	872.557	659.752
272.468	17.565	871.472	658.879
273.482	17.514	870.767	658.090
274.497	17.421	870.410	657.405
275.512	17.623	869.077	657.119
276.526	17.554	868.973	656.715
277.541	17.513	868.398	656.062
278.555	17.596	867.369	655.550
279.570	17.708	867.214	655.806
280.585	17.762	867.046	655.827
281.599	17.746	866.389	655.209
282.614	17.729	865.349	654.300
283.628	17.720	864.482	653.552
284.643	17.547	864.249	652.656
285.657	17.701	863.648	652.733
286.672	17.601	863.415	652.117
287.687	17.678	862.833	651.914
288.701	17.751	862.284	651.720
289.716	17.677	861.565	650.838
290.730	17.770	861.132	650.806
291.745	17.894	860.284	650.581
292.760	17.793	859.659	649.665
293.774	17.839	858.828	649.157
294.789	17.681	858.988	648.618
295.803	18.132	857.778	649.362
296.818	17.933	857.212	648.118
297.833	17.867	856.362	647.169
298.847	17.868	855.757	646.660
299.862	17.946	855.147	646.434
300.876	18.006	854.413	646.052
301.891	18.014	854.059	645.755
302.906	18.131	853.308	645.574
303.920	18.150	852.700	645.128
304.935	18.128	852.327	644.706
305.949	18.297	851.642	644.765
306.964	18.363	850.616	644.182
307.979	18.247	850.236	643.401
308.993	18.083	850.101	642.626
310.008	18.366	848.986	642.786
311.022	18.312	848.883	642.447
312.037	18.072	848.602	641.281
313.052	18.030	847.794	640.455
314.066	18.169	846.661	640.061
315.081	18.023	846.422	639.277
316.095	17.892	845.885	638.326
317.110	17.980	845.575	638.365
318.125	17.915	844.542	637.287
319.139	18.023	844.357	637.494
320.154	17.958	843.803	636.775
321.168	17.971	843.419	636.477
322.183	17.949	842.766	635.848
323.197	18.036	842.336	635.791
324.212	18.199	841.281	635.544
325.227	18.192	840.939	635.202
326.241	18.153	840.636	634.772
327.256	18.021	839.873	633.651
328.270	18.190	839.170	633.690
329.285	18.301	838.485	633.527
330.300	18.039	837.989	632.130
331.314	17.999	837.810	631.788
332.329	18.121	837.063	631.623
333.343	18.231	836.362	631.442
334.358	18.487	835.873	631.961
335.373	18.280	835.626	630.955
336.387	18.405	834.894	630.807
337.402	18.312	834.545	630.146
338.416	18.264	834.146	629.611
339.431	18.450	833.399	629.677
340.446	18.615	832.799	629.773
341.460	18.707	832.188	629.592
342.475	18.793	831.736	629.510
343.489	18.723	830.980	628.624
344.504	18.644	831.024	628.314
345.519	18.863	830.181	628.422
346.533	18.947	829.506	628.163
347.548	18.956	828.866	627.655
348.562	18.726	828.325	626.351
349.577	18.581	827.819	625.385
350.592	18.546	827.196	624.730
351.606	18.360	826.861	623.745
352.621	18.482	826.421	623.803
353.635	18.575	825.892	623.687
354.650	18.664	825.595	623.729
355.665	18.610	824.948	622.990
356.679	18.763	824.432	623.101
357.694	18.815	823.847	622.793
358.708	18.845	823.325	622.452
359.723	18.791	822.866	621.852
360.738	18.722	822.199	621.042
361.752	18.838	821.991	621.250
362.767	18.732	821.941	620.774
363.781	18.757	821.102	620.175
364.796	18.899	820.679	620.315
365.810	19.010	820.409	620.458
366.825	19.129	819.862	620.418
367.840	19.089	819.668	620.073
368.854	19.029	819.405	619.600
369.869	19.125	818.656	619.325
370.883	18.844	818.222	617.931
371.898	18.974	817.805	618.028
372.913	19.135	816.855	617.836
373.927	19.257	816.389	617.865
374.942	19.071	815.821	616.714
375.956	19.151	815.203	616.480
376.971	19.070	814.790	615.823
377.986	19.250	813.915	615.750
379.000	19.337	813.821	615.933
380.015	19.380	813.357	615.683
381.029	19.184	813.154	614.775
382.044	19.295	811.805	614.096
383.059	19.339	811.469	613.944
384.073	19.352	811.205	613.737
385.088	19.325	810.567	613.102
386.102	19.195	809.796	612.003
387.117	19.108	809.370	611.320
388.132	19.073	808.977	610.845
389.146	19.164	808.577	610.810
390.161	19.152	808.142	610.386
391.175	19.319	807.397	610.358
392.190	19.408	807.196	610.470
393.205	19.249	807.258	609.901
394.219	19.212	806.542	609.173
395.234	19.239	805.885	608.720
396.248	19.257	805.169	608.186
397.263	19.068	804.842	607.219
398.278	19.084	804.033	606.613
399.292	19.103	803.678	606.356
400.307	19.122	803.496	606.235
401.321	19.017	803.251	605.625
402.336	19.081	802.831	605.482
403.350	19.222	802.092	605.364
404.365	19.300	801.847	605.401
405.380	19.379	801.095	605.056
406.394	19.443	801.050	605.193
407.409	19.568	800.335	605.038
408.423	19.650	799.893	604.937
409.438	19.743	799.520	604.927
410.453	19.588	799.344	604.199
411.467	19.694	798.609	603.958
412.482	19.637	798.560	603.670
413.496	19.825	798.199	604.000
414.511	19.773	797.558	603.280
415.526	19.815	797.424	603.271
416.540	19.891	796.675	602.916
417.555	19.669	796.358	601.849
418.569	19.806	795.794	601.848
419.584	19.836	795.319	601.540
420.599	19.718	795.101	600.911
421.613	159.997	1371.503	1794.141
422.628	138.680	1455.492	1794.229
