DTS Sentinel unit serial number:	SN413079Multiplexer serial number:	ORYXHardware model number:	OX4-SRSoftware version number:	ORYX F/W v4.00 Oryx Data Collector v3.7.2.0data status	okinstallation	princeton_trtdifferential loss correction	single-endedforward channel	channel 3reverse channel	N/Adate	2019/09/15time	12:08:34forward acquisition time	60.00reverse acquisition time	0.00gamma	496.2192k internal	0.2305k external	0.2305temperature offset calibration	0.9969default loss term (dB/km)	0.3790temperature slope calibration	1.0000multiplexer offset coefficient	1.0000multiplexer slope coefficient	1.0000fibre end	0.00T internal ref (°C)	34.53T ext. ref 1 (°C)	5.03T ext. ref 2 (°C)	30.87length (m)	temperature (°C)	Stokes	anti-Stokes-747.200	58.589	-0.154	0.154
-746.185	273.159	-0.133	0.240
-745.171	316.798	0.020	0.039
-744.156	306.482	-0.084	0.158
-743.142	-200.000	0.061	-0.383
-742.127	22.996	-0.336	0.281
-741.112	-200.000	-0.002	-0.109
-740.098	800.000	0.152	0.483
-739.083	800.000	0.096	-0.273
-738.069	110.771	-0.344	0.421
-737.054	-194.402	-0.185	-0.002
-736.039	-99.880	-0.520	0.132
-735.025	89.491	-0.164	-0.186
-734.010	221.947	-0.146	0.238
-732.996	101.767	0.166	-0.198
-731.981	126.293	-0.156	-0.201
-730.966	-7.641	0.329	-0.226
-729.952	-65.785	-0.030	-0.012
-728.937	535.974	-0.169	0.408
-727.923	-73.126	0.342	0.128
-726.908	177.144	-0.224	0.332
-725.894	-200.000	-0.000	-0.233
-724.879	-200.000	-0.039	-0.480
-723.864	-200.000	-0.004	-0.027
-722.850	-131.729	0.155	-0.021
-721.835	-200.000	0.000	0.131
-720.821	80.325	0.283	-0.310
-719.806	-125.335	-0.201	-0.031
-718.791	-61.596	-0.103	-0.044
-717.777	800.000	-0.039	0.120
-716.762	-40.500	-0.335	0.177
-715.748	512.166	-0.095	0.225
-714.733	293.482	0.214	0.398
-713.718	-200.000	-0.024	-0.252
-712.704	-200.000	-0.025	-0.228
-711.689	748.894	-0.120	0.330
-710.675	-26.277	0.480	0.287
-709.660	33.209	-0.142	0.125
-708.645	-17.200	0.239	0.153
-707.631	330.399	0.044	-0.086
-706.616	228.272	-0.010	-0.016
-705.602	-160.024	-0.056	-0.003
-704.587	-85.697	-0.336	0.106
-703.572	-200.000	0.003	-0.136
-702.558	392.040	-0.096	-0.203
-701.543	-73.150	0.142	-0.053
-700.529	-89.728	0.113	0.033
-699.514	314.525	-0.061	0.116
-698.499	158.461	-0.128	-0.180
-697.485	-121.515	-0.322	0.054
-696.470	115.987	-0.169	0.210
-695.456	629.187	0.035	0.090
-694.441	93.901	-0.130	-0.150
-693.426	194.573	-0.046	-0.071
-692.412	121.783	0.150	-0.190
-691.397	-200.000	0.008	-0.041
-690.383	308.144	-0.063	-0.120
-689.368	-55.062	0.104	-0.047
-688.354	-83.069	-0.258	-0.084
-687.339	-49.092	-0.033	-0.016
-686.324	-200.000	0.037	-0.240
-685.310	469.991	0.040	-0.090
-684.295	-48.975	-0.125	-0.061
-683.281	-92.690	-0.141	0.040
-682.266	14.744	-0.218	-0.173
-681.251	133.694	-0.111	0.146
-680.237	60.985	-0.243	0.245
-679.222	156.388	0.138	0.193
-678.208	80.490	0.240	0.262
-677.193	185.442	0.069	-0.103
-676.178	359.568	0.125	0.253
-675.164	800.000	0.068	-0.215
-674.149	-60.926	0.083	-0.036
-673.135	-200.000	0.039	-0.199
-672.120	-200.000	0.006	0.065
-671.105	-10.223	-0.402	0.271
-670.091	-70.872	-0.353	-0.135
-669.076	282.692	-0.179	-0.326
-668.062	214.934	0.043	0.070
-667.047	34.005	0.091	-0.081
-666.032	116.138	-0.181	-0.225
-665.018	-200.000	-0.032	-0.341
-664.003	-80.846	-0.278	-0.094
-662.989	-79.216	-0.195	-0.067
-661.974	467.463	-0.112	0.254
-660.959	148.810	0.171	0.234
-659.945	1.651	-0.271	0.198
-658.930	-132.946	0.027	-0.004
-657.916	16.441	0.146	-0.117
-656.901	800.000	0.081	-0.231
-655.886	120.754	-0.081	-0.102
-654.872	518.726	0.074	0.175
-653.857	-145.809	0.089	-0.008
-652.843	-65.000	-0.262	0.107
-651.828	17.946	0.241	-0.195
-650.814	800.000	-0.086	-0.263
-649.799	800.000	0.032	-0.120
-648.784	38.281	0.149	-0.135
-647.770	16.319	0.068	-0.054
-646.755	-80.171	-0.165	0.056
-645.741	71.606	0.160	-0.169
-644.726	682.591	-0.072	0.189
-643.711	-36.446	0.124	0.068
-642.697	-39.383	0.216	-0.115
-641.682	-0.516	-0.176	0.127
-640.668	3.166	-0.007	-0.005
-639.653	53.938	0.155	0.151
-638.638	471.126	0.174	-0.397
-637.624	-26.888	0.139	0.082
-636.609	-102.306	-0.340	-0.083
-635.595	-25.169	-0.213	-0.128
-634.580	78.499	0.156	-0.169
-633.565	675.948	-0.036	0.094
-632.551	197.096	0.047	0.072
-631.536	-200.000	-0.071	-0.436
-630.522	373.856	-0.031	-0.065
-629.507	-52.247	0.074	-0.035
-628.492	-118.006	-0.123	0.022
-627.478	-156.788	-0.240	-0.015
-626.463	-14.135	-0.041	0.027
-625.449	-200.000	-0.015	-0.106
-624.434	138.787	0.043	0.057
-623.419	-200.000	0.046	-0.236
-622.405	147.366	-0.022	0.030
-621.390	800.000	0.075	-0.314
-620.376	800.000	0.025	-0.077
-619.361	-112.200	-0.368	-0.075
-618.346	-6.259	-0.154	0.107
-617.332	-135.215	-0.171	-0.021
-616.317	-102.169	0.299	0.073
-615.303	10.672	0.007	0.005
-614.288	-33.982	-0.404	-0.225
-613.273	-200.000	-0.036	0.207
-612.259	9.267	-0.063	-0.048
-611.244	-40.590	-0.144	-0.076
-610.230	-39.350	-0.410	0.218
-609.215	-135.867	-0.167	-0.020
-608.201	100.218	-0.150	-0.176
-607.186	138.673	0.235	-0.312
-606.171	79.374	-0.289	-0.314
-605.157	185.978	0.124	0.187
-604.142	212.217	-0.085	0.135
-603.128	-61.806	-0.075	0.032
-602.113	541.372	-0.058	-0.141
-601.098	-200.000	-0.023	-0.212
-600.084	-174.744	0.245	0.007
-599.069	-200.000	-0.001	-0.367
-598.055	-200.000	-0.018	-0.202
-597.040	2.173	-0.102	-0.074
-596.025	795.845	0.031	-0.085
-595.011	114.731	0.069	-0.085
-593.996	-62.468	-0.306	0.129
-592.982	117.800	-0.056	-0.070
-591.967	81.138	0.135	-0.148
-590.952	-200.000	-0.025	0.307
-589.938	800.000	0.065	0.247
-588.923	-200.000	-0.034	0.246
-587.909	506.226	-0.133	-0.312
-586.894	-49.320	-0.185	0.090
-585.879	-200.000	-0.012	0.247
-584.865	-146.334	0.226	-0.020
-583.850	-160.304	-0.198	-0.011
-582.836	-4.336	0.110	-0.077
-581.821	202.182	0.026	0.040
-580.806	26.619	-0.165	-0.140
-579.792	189.973	-0.163	-0.248
-578.777	-128.665	-0.071	-0.010
-577.763	-200.000	0.001	-0.114
-576.748	169.167	-0.167	0.241
-575.733	-116.158	0.144	0.027
-574.719	241.218	-0.115	-0.195
-573.704	57.616	0.043	-0.043
-572.690	-160.097	-0.251	-0.014
-571.675	800.000	0.035	0.129
-570.661	557.620	0.078	-0.191
-569.646	-200.000	0.002	-0.041
-568.631	226.657	0.258	0.424
-567.617	-200.000	-0.038	0.422
-566.602	-94.362	0.187	0.052
-565.588	-51.004	0.214	-0.101
-564.573	-200.000	-0.022	0.127
-563.558	63.624	-0.075	0.076
-562.544	166.938	-0.093	0.133
-561.529	-63.457	-0.285	0.119
-560.515	338.428	-0.070	-0.138
-559.500	-142.169	-0.216	-0.022
-558.485	783.820	0.135	0.373
-557.471	-127.829	-0.204	-0.030
-556.456	-136.250	0.051	0.006
-555.442	187.644	-0.165	-0.249
-554.427	-30.548	0.154	0.088
-553.412	340.684	0.068	-0.134
-552.398	293.964	-0.069	-0.127
-551.383	478.336	-0.101	-0.231
-550.369	338.878	-0.150	0.296
-549.354	175.473	-0.091	0.134
-548.339	-200.000	-0.060	0.268
-547.325	50.381	-0.075	-0.072
-546.310	-190.023	0.155	0.002
-545.296	-200.000	-0.023	-0.117
-544.281	-24.798	0.070	-0.042
-543.266	-64.808	-0.234	0.096
-542.252	585.887	-0.108	0.267
-541.237	800.000	0.048	0.196
-540.223	225.814	0.174	-0.285
-539.208	-52.851	-0.252	0.117
-538.193	78.298	0.268	0.289
-537.179	66.299	-0.163	-0.167
-536.164	-200.000	0.009	0.459
-535.150	-63.202	-0.209	-0.087
-534.135	15.422	-0.355	0.281
-533.121	-144.078	-0.147	-0.014
-532.106	267.919	0.007	-0.012
-531.091	114.815	0.136	-0.167
-530.077	-166.143	-0.444	-0.019
-529.062	-200.000	0.010	0.100
-528.048	-200.000	0.030	0.224
-527.033	19.044	0.176	-0.142
-526.018	-200.000	-0.002	-0.022
-525.004	118.739	0.138	0.173
-523.989	-200.000	0.039	0.247
-522.975	-163.723	-0.241	0.011
-521.960	-163.607	0.286	0.014
-520.945	-200.000	0.029	0.343
-519.931	-30.586	-0.307	0.175
-518.916	35.370	-0.254	0.225
-517.902	119.359	-0.274	-0.342
-516.887	-61.710	-0.191	-0.081
-515.872	-200.000	-0.005	0.042
-514.858	-200.000	-0.044	0.313
-513.843	-122.652	0.403	0.066
-512.829	394.563	-0.085	-0.178
-511.814	-87.544	-0.202	-0.062
-510.799	188.704	-0.089	-0.135
-509.785	769.213	0.105	-0.289
-508.770	-200.000	0.023	-0.185
-507.756	-200.000	0.017	-0.132
-506.741	800.000	0.093	-0.341
-505.726	800.000	-0.064	0.203
-504.712	-93.261	0.158	-0.044
-503.697	-130.283	0.037	-0.005
-502.683	-151.671	0.155	-0.012
-501.668	53.003	-0.186	-0.180
-500.653	564.737	-0.058	-0.142
-499.639	-104.619	-0.198	0.046
-498.624	-66.692	0.157	-0.063
-497.610	-50.836	-0.222	-0.105
-496.595	46.458	-0.269	0.251
-495.581	3.376	0.101	-0.074
-494.566	800.000	-0.035	-0.152
-493.551	94.524	-0.039	0.045
-492.537	202.251	0.089	-0.138
-491.522	15.573	0.154	-0.122
-490.508	-63.123	0.413	0.172
-489.493	800.000	0.049	0.206
-488.478	800.000	0.125	-0.507
-487.464	800.000	0.089	-0.369
-486.449	251.895	0.042	0.072
-485.435	45.169	0.076	-0.070
-484.420	350.976	-0.055	0.109
-483.405	-200.000	0.054	0.277
-482.391	-150.108	0.199	-0.016
-481.376	235.128	-0.085	0.142
-480.362	-105.885	0.118	0.027
-479.347	800.000	-0.084	-0.333
-478.332	-22.633	0.217	-0.132
-477.318	-58.476	0.020	-0.009
-476.303	26.691	0.114	0.096
-475.289	70.875	0.119	-0.124
-474.274	-200.000	-0.022	-0.249
-473.259	-200.000	-0.019	-0.118
-472.245	-13.976	-0.086	-0.056
-471.230	-200.000	-0.043	0.376
-470.216	164.193	-0.193	0.275
-469.201	42.801	0.057	0.052
-468.186	420.430	-0.085	0.184
-467.172	575.866	0.083	0.204
-466.157	-139.567	0.110	-0.012
-465.143	-200.000	-0.054	-0.282
-464.128	800.000	0.086	-0.273
-463.113	-165.290	0.066	0.003
-462.099	-74.340	0.190	-0.069
-461.084	272.137	-0.190	-0.337
-460.070	-200.000	0.011	-0.087
-459.055	153.140	-0.123	-0.170
-458.040	461.090	0.068	-0.153
-457.026	-65.112	0.161	-0.065
-456.011	614.363	0.072	-0.181
-454.997	-200.000	0.013	-0.122
-453.982	-90.053	-0.241	-0.071
-452.968	-63.402	-0.237	-0.098
-451.953	-50.953	0.142	-0.067
-450.938	-200.000	0.032	-0.189
-449.924	317.041	-0.141	0.268
-448.909	-11.729	-0.025	-0.017
-447.895	-35.369	-0.252	-0.138
-446.880	742.400	0.040	0.107
-445.865	-200.000	-0.044	0.269
-444.851	-69.957	0.036	0.014
-443.836	160.432	0.263	-0.370
-442.822	-12.742	0.249	-0.163
-441.807	-39.903	0.184	-0.097
-440.792	-28.683	0.132	0.077
-439.778	552.387	0.081	0.195
-438.763	63.962	0.318	0.321
-437.749	-200.000	-0.003	0.035
-436.734	-200.000	0.014	0.101
-435.719	-96.561	-0.306	0.081
-434.705	-158.636	-0.351	0.020
-433.690	-123.312	-0.263	0.042
-432.676	800.000	-0.048	-0.135
-431.661	800.000	-0.049	0.198
-430.646	-200.000	-0.001	0.207
-429.632	-142.354	-0.362	0.036
-428.617	453.174	-0.181	-0.402
-427.603	-200.000	-0.029	0.212
-426.588	220.482	0.027	0.043
-425.573	-66.772	-0.446	-0.178
-424.559	-200.000	0.058	-0.366
-423.544	-36.545	-0.214	0.116
-422.530	140.406	0.083	0.110
-421.515	800.000	0.180	0.628
-420.500	-55.302	-0.192	-0.087
-419.486	-200.000	-0.000	-0.085
-418.471	800.000	0.077	-0.256
-417.457	-32.700	0.285	-0.159
-416.442	800.000	0.119	0.330
-415.428	10.360	0.227	0.174
-414.413	-20.690	-0.225	-0.139
-413.398	-113.751	-0.098	-0.019
-412.384	66.013	-0.030	-0.030
-411.369	-115.562	-0.272	-0.051
-410.355	38.470	0.069	0.062
-409.340	55.599	0.082	0.080
-408.325	8.591	-0.153	0.115
-407.311	-200.000	0.015	-0.210
-406.296	97.615	-0.150	0.173
-405.282	800.000	0.061	0.206
-404.267	-200.000	-0.058	0.275
-403.252	800.000	-0.046	-0.192
-402.238	-130.849	0.167	0.023
-401.223	115.408	-0.062	0.076
-400.209	-187.789	-0.510	-0.007
-399.194	138.542	-0.124	-0.164
-398.179	-149.073	0.207	0.017
-397.165	-160.386	0.302	-0.016
-396.150	-104.661	-0.256	0.059
-395.136	-82.192	-0.414	0.135
-394.121	800.000	0.022	-0.095
-393.106	-167.201	0.260	0.011
-392.092	216.457	0.208	-0.332
-391.077	-23.956	0.191	-0.114
-390.063	361.900	0.148	0.298
-389.048	-200.000	0.012	0.106
-388.033	31.804	0.198	-0.171
-387.019	800.000	-0.094	0.300
-386.004	7.756	0.091	0.069
-384.990	-74.654	0.249	0.090
-383.975	329.356	-0.059	0.114
-382.960	-200.000	-0.022	-0.115
-381.946	62.203	-0.050	0.050
-380.931	166.634	-0.231	0.329
-379.917	800.000	-0.126	0.495
-378.902	60.640	-0.221	0.220
-377.888	481.661	-0.106	-0.241
-376.873	-77.038	0.216	-0.075
-375.858	-5.658	0.028	0.020
-374.844	-38.633	-0.370	-0.196
-373.829	130.280	0.078	0.100
-372.815	-200.000	-0.098	-0.488
-371.800	-200.000	0.036	0.213
-370.785	-200.000	-0.020	0.297
-369.771	109.602	-0.271	-0.326
-368.756	-101.475	0.026	-0.006
-367.742	800.000	0.047	-0.197
-366.727	173.618	0.044	0.063
-365.712	-81.840	-0.138	-0.045
-364.698	-12.655	0.222	0.145
-363.683	209.836	-0.086	0.135
-362.669	83.118	-0.260	-0.284
-361.654	150.600	-0.258	-0.352
-360.639	-12.064	0.100	-0.066
-359.625	-101.188	-0.222	-0.054
-358.610	-200.000	-0.004	0.313
-357.596	-164.954	-0.235	0.010
-356.581	54.069	-0.004	-0.004
-355.566	12.897	-0.281	0.218
-354.552	-200.000	0.003	-0.066
-353.537	-121.017	0.301	0.051
-352.523	800.000	-0.044	-0.123
-351.508	-12.522	-0.281	-0.184
-350.493	107.887	0.185	-0.220
-349.479	449.275	-0.139	-0.307
-348.464	-153.010	-0.187	0.013
-347.450	-200.000	-0.005	0.139
-346.435	800.000	0.022	0.062
-345.420	-200.000	-0.031	-0.190
-344.406	95.008	0.148	0.168
-343.391	-46.568	-0.317	-0.156
-342.377	187.673	0.191	-0.286
-341.362	1.554	0.213	-0.154
-340.348	-200.000	-0.004	0.221
-339.333	-200.000	0.069	0.501
-338.318	-78.783	0.215	0.073
-337.304	800.000	-0.095	0.321
-336.289	22.097	0.219	0.179
-335.275	800.000	0.074	0.256
-334.260	-200.000	0.011	0.091
-333.245	-76.997	-0.034	-0.012
-332.231	-28.604	0.248	0.143
-331.216	14.152	-0.160	0.125
-330.202	-200.000	0.036	0.256
-329.187	-124.058	0.235	0.037
-328.172	8.848	0.061	-0.046
-327.158	14.703	-0.129	-0.101
-326.143	-200.000	0.000	0.144
-325.129	57.122	-0.136	0.133
-324.114	-39.764	-0.129	0.068
-323.099	79.519	-0.219	-0.236
-322.085	-31.194	0.362	-0.204
-321.070	120.044	0.137	-0.170
-320.056	564.974	-0.097	0.234
-319.041	-125.277	-0.294	0.045
-318.026	800.000	0.151	-0.492
-317.012	-200.000	-0.022	-0.157
-315.997	414.115	0.100	-0.214
-314.983	65.635	-0.167	0.169
-313.968	343.982	-0.081	0.158
-312.953	41.644	0.113	-0.103
-311.939	-200.000	-0.003	-0.179
-310.924	16.850	-0.101	-0.080
-309.910	120.868	0.142	-0.176
-308.895	-192.216	0.190	-0.002
-307.880	153.829	0.102	0.140
-306.866	-69.691	0.126	0.048
-305.851	207.398	0.081	-0.127
-304.837	307.693	-0.093	-0.174
-303.822	800.000	0.059	-0.249
-302.807	152.932	0.136	-0.186
-301.793	22.688	0.152	-0.125
-300.778	-54.047	-0.200	0.091
-299.764	-138.330	0.192	-0.021
-298.749	-32.992	0.124	0.069
-297.735	-39.706	0.113	0.059
-296.720	28.161	0.237	-0.200
-295.705	-62.470	-0.161	0.067
-294.691	87.813	-0.152	-0.168
-293.676	-69.847	0.177	0.067
-292.662	-68.670	0.268	-0.104
-291.647	-168.975	0.207	0.008
-290.632	759.545	0.149	0.405
-289.618	127.965	0.131	0.166
-288.603	-135.968	0.124	-0.015
-287.589	-5.405	0.166	-0.114
-286.574	31.922	-0.124	-0.107
-285.559	30.457	0.143	-0.122
-284.545	800.000	0.091	0.396
-283.530	161.008	0.069	-0.096
-282.516	8.257	0.326	0.245
-281.501	115.341	0.189	0.230
-280.486	800.000	0.040	-0.158
-279.472	6.574	0.162	-0.121
-278.457	-11.235	-0.131	0.086
-277.443	376.661	-0.057	0.116
-276.428	23.003	0.169	0.138
-275.413	123.481	-0.255	-0.319
-274.399	270.238	0.088	-0.154
-273.384	800.000	-0.073	0.277
-272.370	376.637	0.040	-0.082
-271.355	-123.414	-0.388	0.062
-270.340	268.671	0.211	-0.370
-269.326	118.632	-0.036	-0.045
-268.311	800.000	0.044	-0.174
-267.297	80.428	0.077	-0.083
-266.282	-102.469	0.057	-0.014
-265.267	800.000	-0.092	0.282
-264.253	-127.368	0.207	0.030
-263.238	-50.121	-0.155	0.073
-262.224	146.949	0.044	0.059
-261.209	800.000	-0.044	0.148
-260.195	-77.938	0.146	-0.050
-259.180	-73.972	0.148	-0.054
-258.165	-49.706	0.207	-0.098
-257.151	-17.730	-0.372	0.233
-256.136	65.603	-0.182	-0.184
-255.122	-5.774	0.226	-0.154
-254.107	-48.128	0.210	-0.101
-253.092	-67.260	-0.060	0.024
-252.078	800.000	-0.023	0.083
-251.063	519.241	0.177	0.413
-250.049	101.670	-0.046	0.053
-249.034	-36.236	0.189	0.102
-248.019	13.792	0.326	0.253
-247.005	-22.989	0.213	0.128
-245.990	188.452	0.056	-0.084
-244.976	-52.989	-0.393	0.181
-243.961	455.821	-0.086	-0.191
-242.946	-200.000	-0.088	-0.395
-241.932	1.173	-0.123	0.088
-240.917	78.365	-0.286	-0.305
-239.903	-103.925	-0.175	-0.041
-238.888	-61.882	0.248	-0.103
-237.873	-57.016	0.125	0.055
-236.859	333.773	0.103	0.198
-235.844	-200.000	0.009	0.123
-234.830	154.360	-0.065	0.089
-233.815	-139.513	0.187	0.020
-232.800	-54.260	0.135	0.061
-231.786	118.229	0.278	0.342
-230.771	-200.000	-0.002	0.440
-229.757	147.724	-0.222	0.298
-228.742	-48.536	0.319	-0.153
-227.727	800.000	-0.031	0.123
-226.713	-200.000	-0.004	0.170
-225.698	59.143	0.128	0.126
-224.684	-151.116	-0.056	0.004
-223.669	171.694	0.114	-0.164
-222.655	38.560	0.047	0.042
-221.640	-2.605	-0.126	-0.088
-220.625	-125.588	-0.154	0.023
-219.611	7.023	-0.075	-0.055
-218.596	254.676	-0.063	0.107
-217.582	-97.859	0.186	-0.048
-216.567	218.614	0.038	0.061
-215.552	-48.101	0.442	-0.213
-214.538	-200.000	-0.018	0.288
-213.523	-128.699	0.052	-0.007
-212.509	-33.911	-0.178	0.098
-211.494	-200.000	-0.025	0.136
-210.479	-93.516	0.339	-0.094
-209.465	-121.274	-0.184	0.031
-208.450	800.000	0.073	-0.260
-207.436	-98.674	0.364	0.093
-206.421	673.110	0.099	0.256
-205.406	-200.000	-0.026	-0.144
-204.392	47.100	0.341	0.316
-203.377	-156.653	-0.204	0.013
-202.363	529.574	0.087	-0.205
-201.348	81.612	-0.188	-0.202
-200.333	206.718	0.236	-0.367
-199.319	-200.000	0.021	0.132
-198.304	800.000	-0.103	-0.319
-197.290	242.950	-0.099	-0.166
-196.275	800.000	-0.008	-0.027
-195.260	-178.107	0.376	0.009
-194.246	-200.000	0.014	0.093
-193.231	-194.038	-0.112	-0.001
-192.217	-12.603	-0.389	-0.253
-191.202	506.888	-0.070	-0.163
-190.187	12.650	-0.105	-0.081
-189.173	78.657	0.236	-0.252
-188.158	217.017	0.188	0.298
-187.144	256.200	0.097	-0.166
-186.129	109.739	0.155	-0.185
-185.114	22.731	0.094	0.077
-184.100	-107.802	0.096	0.021
-183.085	-200.000	-0.061	0.338
-182.071	736.764	0.253	0.674
-181.056	-200.000	0.003	0.046
-180.042	-200.000	0.036	-0.252
-179.027	-200.000	0.019	-0.253
-178.012	72.133	-0.075	0.078
-176.998	-37.860	0.088	-0.046
-175.983	10.227	-0.251	0.190
-174.969	111.711	0.212	-0.254
-173.954	49.593	0.105	-0.099
-172.939	-27.133	-0.203	-0.118
-171.925	160.051	-0.087	0.120
-170.910	-200.000	0.061	0.291
-169.896	131.803	-0.180	-0.230
-168.881	18.085	-0.118	0.093
-167.866	228.788	0.107	-0.174
-166.852	-131.650	0.410	0.054
-165.837	42.590	0.115	-0.105
-164.823	-200.000	-0.040	0.177
-163.808	-154.348	0.213	0.014
-162.793	4.968	0.147	0.107
-161.779	56.236	-0.168	-0.162
-160.764	199.665	0.146	-0.222
-159.750	-200.000	-0.002	0.087
-158.735	-133.153	-0.185	0.023
-157.720	153.856	-0.096	0.130
-156.706	322.893	0.176	0.333
-155.691	225.026	0.010	-0.016
-154.677	-36.560	-0.208	0.111
-153.662	144.412	0.047	0.062
-152.647	800.000	-0.101	0.328
-151.633	-143.616	0.225	0.021
-150.618	-119.700	0.120	-0.021
-149.604	-200.000	-0.011	0.123
-148.589	-200.000	-0.017	0.266
-147.574	133.933	-0.056	-0.072
-146.560	18.883	0.290	-0.231
-145.545	800.000	-0.023	0.097
-144.531	800.000	-0.068	-0.243
-143.516	-163.952	0.118	-0.005
-142.502	-98.821	-0.187	-0.047
-141.487	652.345	0.133	0.339
-140.472	-41.277	-0.245	0.126
-139.458	416.195	-0.100	-0.212
-138.443	6.228	0.245	0.181
-137.429	800.000	0.074	-0.213
-136.414	-200.000	-0.010	0.225
-135.399	-58.323	-0.535	0.231
-134.385	-114.413	-0.045	0.009
-133.370	5.257	-0.315	0.231
-132.356	-200.000	0.007	0.059
-131.341	-24.634	0.273	-0.161
-130.326	-200.000	-0.015	0.117
-129.312	-133.111	0.480	-0.060
-128.297	-200.000	-0.009	0.139
-127.283	69.068	-0.415	0.424
-126.268	-8.348	0.240	0.161
-125.253	-129.339	-0.136	-0.019
-124.239	49.897	-0.033	-0.031
-123.224	-169.375	0.113	-0.004
-122.210	622.001	-0.106	-0.264
-121.195	-12.453	0.090	0.059
-120.180	-200.000	0.050	-0.418
-119.166	20.196	0.122	0.098
-118.151	-200.000	-0.043	0.255
-117.137	226.261	-0.219	0.352
-116.122	145.035	0.069	-0.092
-115.107	-200.000	0.020	0.230
-114.093	645.181	0.078	0.196
-113.078	129.080	-0.149	-0.189
-112.064	-67.343	-0.270	-0.105
-111.049	-51.941	-0.310	-0.143
-110.034	-200.000	-0.036	0.219
-109.020	-116.749	-0.223	0.041
-108.005	800.000	0.065	0.200
-106.991	21.613	-0.242	0.196
-105.976	65.676	0.135	0.136
-104.962	0.544	0.228	0.162
-103.947	-200.000	-0.010	-0.118
-102.932	-200.000	-0.043	0.222
-101.918	12.260	0.057	0.044
-100.903	247.776	-0.089	0.148
-99.889	24.619	0.189	-0.155
-98.874	-200.000	-0.000	0.062
-97.859	-155.673	0.117	-0.007
-96.845	-35.886	0.325	0.174
-95.830	-200.000	-0.007	0.092
-94.816	-200.000	0.037	-0.380
-93.801	-200.000	0.006	-0.051
-92.786	-42.016	-0.173	0.088
-91.772	-200.000	0.032	0.155
-90.757	586.232	-0.019	-0.047
-89.743	-200.000	-0.010	0.068
-88.728	128.110	0.082	0.104
-87.713	-72.123	-0.172	-0.063
-86.699	800.000	0.059	-0.205
-85.684	-169.233	0.258	0.009
-84.670	-71.709	0.422	0.156
-83.655	-4.418	0.161	0.110
-82.640	800.000	0.029	0.090
-81.626	137.812	-0.183	0.237
-80.611	31.806	-0.112	-0.095
-79.597	800.000	-0.064	0.205
-78.582	37.015	-0.292	0.256
-77.567	98.227	0.249	-0.284
-76.553	36.379	0.230	0.201
-75.538	-200.000	0.033	-0.194
-74.524	-122.381	-0.119	-0.019
-73.509	800.000	0.060	0.194
-72.494	-113.006	0.047	-0.009
-71.480	-200.000	0.011	-0.369
-70.465	-42.608	0.190	0.096
-69.451	26.677	0.164	-0.136
-68.436	-135.612	-0.105	0.012
-67.422	-70.778	-0.327	0.122
-66.407	115.280	0.022	-0.026
-65.392	32.888	-0.160	0.137
-64.378	0.704	-0.131	-0.093
-63.363	-61.566	-0.258	0.107
-62.349	-144.215	0.367	-0.034
-61.334	212.839	-0.700	-1.096
-60.319	512.958	0.184	0.424
-59.305	-200.000	-0.164	-1.074
-58.290	176.091	0.498	0.717
-57.276	800.000	0.477	1.755
-56.261	-200.000	95.937	562.005
-55.246	631.593	1384.032	3471.936
-54.232	187.530	2595.626	3837.489
-53.217	120.099	2203.130	2707.779
-52.203	44.980	1737.392	1585.089
-51.188	37.690	1547.977	1361.492
-50.173	35.124	1520.889	1319.960
-49.159	53.252	1570.777	1490.685
-48.144	56.691	1589.865	1532.848
-47.130	38.040	1545.503	1361.549
-46.115	34.744	1529.692	1324.753
-45.100	34.553	1526.865	1320.932
-44.086	34.573	1524.590	1319.054
-43.071	34.387	1523.573	1316.833
-42.057	34.451	1521.307	1315.263
-41.042	34.527	1519.861	1314.483
-40.027	34.696	1517.991	1313.977
-39.013	34.506	1516.978	1311.741
-37.998	34.531	1515.464	1310.556
-36.984	34.633	1514.187	1310.096
-35.969	34.549	1513.208	1308.623
-34.954	34.538	1512.124	1307.558
-33.940	34.542	1510.464	1306.098
-32.925	34.505	1509.345	1304.827
-31.911	34.559	1507.790	1303.801
-30.896	34.551	1506.361	1302.459
-29.881	34.568	1505.034	1301.371
-28.867	34.523	1503.911	1300.046
-27.852	34.533	1502.238	1298.611
-26.838	34.654	1500.008	1297.458
-25.823	34.622	1499.297	1296.571
-24.809	34.652	1497.370	1295.061
-23.794	34.591	1495.934	1293.355
-22.779	34.580	1494.820	1292.263
-21.765	34.568	1493.995	1291.419
-20.750	34.647	1492.762	1290.835
-19.736	34.613	1491.643	1289.587
-18.721	34.463	1490.827	1287.817
-17.706	34.499	1489.841	1287.159
-16.692	34.457	1488.439	1285.613
-15.677	34.565	1487.518	1285.491
-14.663	34.526	1486.638	1284.415
-13.648	34.492	1485.826	1283.437
-12.633	34.406	1484.749	1281.880
-11.619	34.470	1484.030	1281.633
-10.604	34.475	1483.080	1280.800
-9.590	34.517	1481.851	1279.966
-8.575	34.562	1480.669	1279.195
-7.560	34.433	1480.781	1278.380
-6.546	34.491	1479.979	1278.021
-5.531	34.480	1479.002	1277.058
-4.517	34.478	1477.612	1275.795
-3.502	34.469	1476.496	1274.716
-2.487	34.474	1475.743	1274.049
-1.473	34.391	1474.717	1272.558
-0.458	34.474	1473.045	1271.623
0.556	33.335	1464.139	1262.136
1.571	30.904	1438.288	1223.800
2.586	27.603	1376.433	1150.274
3.600	25.653	1293.435	1069.242
4.615	24.065	1246.211	1021.010
5.629	20.915	1189.922	957.532
6.644	12.768	1103.632	846.326
7.659	6.167	1062.349	781.863
8.673	5.190	1056.600	772.728
9.688	5.057	1053.111	769.454
10.702	4.884	1051.961	767.693
11.717	4.999	1049.771	766.591
12.731	7.659	1052.960	781.956
13.746	15.293	1063.775	827.735
14.761	19.629	1068.419	852.727
15.775	18.634	1066.199	845.979
16.790	17.404	1063.320	837.569
17.804	16.310	1061.750	830.876
18.819	15.405	1059.609	824.682
19.834	15.002	1057.876	821.283
20.848	14.599	1057.330	818.809
21.863	14.300	1056.475	816.610
22.877	14.118	1055.913	815.210
23.892	13.850	1055.123	813.213
24.907	13.802	1053.824	811.906
25.921	13.951	1052.888	811.839
26.936	13.792	1052.486	810.682
27.950	14.053	1051.032	810.766
28.965	14.009	1050.319	809.928
29.980	14.021	1049.278	809.111
30.994	13.994	1048.098	808.002
32.009	14.218	1046.979	808.155
33.023	14.176	1046.518	807.522
34.038	14.189	1045.515	806.739
35.053	14.205	1044.300	805.809
36.067	14.200	1043.635	805.198
37.082	13.893	1043.163	803.281
38.096	14.141	1042.135	803.615
39.111	14.145	1041.308	802.925
40.126	14.157	1040.843	802.556
41.140	13.976	1039.170	800.320
42.155	13.911	1038.086	799.102
43.169	13.810	1037.474	798.077
44.184	13.883	1036.003	797.223
45.199	13.777	1035.180	796.010
46.213	13.705	1034.332	794.942
47.228	13.782	1033.071	794.272
48.242	14.000	1031.773	794.246
49.257	14.044	1031.478	794.159
50.271	13.921	1030.532	792.776
51.286	13.964	1029.285	791.947
52.301	14.013	1028.828	791.761
53.315	13.981	1027.930	790.850
54.330	14.001	1027.012	790.164
55.344	13.898	1026.121	788.923
56.359	13.821	1024.978	787.608
57.374	13.764	1024.308	786.751
58.388	13.873	1023.587	786.645
59.403	13.830	1022.723	785.710
60.417	13.680	1022.149	784.488
61.432	13.705	1021.502	784.043
62.447	13.872	1020.011	783.616
63.461	13.671	1019.573	782.259
64.476	13.691	1018.651	781.578
65.490	13.811	1017.403	781.118
66.505	13.653	1017.146	780.109
67.520	13.717	1016.270	779.667
68.534	13.823	1015.409	779.435
69.549	13.719	1015.058	778.608
70.563	13.834	1013.786	778.103
71.578	13.718	1013.034	776.913
72.593	13.708	1012.527	776.408
73.607	13.458	1011.734	774.566
74.622	13.491	1010.889	774.004
75.636	13.645	1009.597	773.665
76.651	13.608	1009.036	772.994
77.666	13.670	1007.919	772.358
78.680	13.703	1007.077	771.797
79.695	13.656	1007.002	771.452
80.709	13.658	1005.984	770.615
81.724	13.746	1005.615	770.671
82.739	13.827	1004.288	769.961
83.753	13.797	1003.681	769.288
84.768	13.886	1003.494	769.489
85.782	13.969	1002.606	769.125
86.797	14.091	1001.722	768.945
87.812	13.999	1001.482	768.266
88.826	13.986	1000.278	767.215
89.841	13.907	999.433	766.133
90.855	14.047	998.723	766.171
91.870	14.119	997.552	765.532
92.884	14.067	997.318	765.047
93.899	14.050	996.773	764.483
94.914	14.050	995.939	763.775
95.928	14.043	995.740	763.526
96.943	14.197	994.488	763.204
97.957	14.126	993.434	762.001
98.972	14.052	993.210	761.421
99.987	13.997	992.207	760.334
101.001	13.946	991.425	759.435
102.016	14.145	990.224	759.356
103.030	14.181	989.429	758.845
104.045	14.137	988.454	757.826
105.060	14.124	987.481	756.958
106.074	14.057	986.682	755.971
107.089	13.968	985.696	754.747
108.103	13.851	984.870	753.514
109.118	13.866	983.659	752.590
110.133	13.783	982.929	751.589
111.147	13.754	982.543	751.096
112.162	13.669	982.031	750.254
113.176	13.774	980.527	749.512
114.191	13.830	979.712	749.076
115.206	13.879	979.018	748.698
116.220	13.793	978.203	747.621
117.235	13.960	976.915	747.324
118.249	13.868	976.288	746.364
119.264	13.778	975.615	745.381
120.279	13.874	974.349	744.778
121.293	13.865	973.955	744.369
122.308	13.840	973.387	743.758
123.322	13.715	972.484	742.440
124.337	13.795	971.037	741.627
125.352	13.774	970.558	741.102
126.366	13.809	968.961	739.975
127.381	13.712	968.273	738.952
128.395	13.676	967.625	738.233
129.410	13.737	966.578	737.638
130.424	13.674	965.557	736.515
131.439	13.816	964.911	736.588
132.454	14.007	964.057	736.718
133.468	13.934	963.091	735.592
134.483	13.928	962.590	735.116
135.497	13.858	962.089	734.359
136.512	13.879	960.964	733.527
137.527	13.922	960.171	733.046
138.541	13.848	959.843	732.405
139.556	13.903	958.467	731.533
140.570	14.008	957.843	731.454
141.585	14.051	956.995	730.933
142.600	14.105	956.549	730.764
143.614	14.253	955.241	730.348
144.629	14.151	954.931	729.600
145.643	14.117	954.526	729.075
146.658	14.221	953.081	728.365
147.673	14.048	952.222	726.888
148.687	13.923	951.860	725.998
149.702	14.005	950.591	725.327
150.716	13.990	949.780	724.576
151.731	13.971	948.798	723.680
152.746	13.916	947.981	722.754
153.760	13.932	947.342	722.271
154.775	13.989	946.996	722.195
155.789	14.049	946.328	721.879
156.804	14.081	945.166	721.068
157.819	14.123	944.627	720.775
158.833	14.135	943.725	720.077
159.848	14.124	943.521	719.809
160.862	14.088	942.617	718.902
161.877	14.238	941.967	718.990
162.892	14.142	941.258	717.969
163.906	13.908	940.699	716.471
164.921	14.130	939.298	716.297
165.935	14.155	938.242	715.536
166.950	14.027	937.669	714.484
167.964	14.190	936.227	714.019
168.979	14.191	935.495	713.404
169.994	14.157	934.601	712.515
171.008	14.155	934.106	712.064
172.023	14.244	933.447	711.878
173.037	14.108	932.564	710.564
174.052	14.366	931.416	710.727
175.067	14.322	930.891	710.076
176.081	14.102	930.361	708.672
177.096	14.239	928.836	708.028
178.110	14.220	928.412	707.564
179.125	14.162	927.574	706.612
180.140	14.096	927.327	706.085
181.154	14.050	926.655	705.315
182.169	14.323	925.856	705.799
183.183	14.320	925.072	705.129
184.198	14.239	924.776	704.498
185.213	14.339	923.861	704.162
186.227	14.425	923.147	703.915
187.242	14.416	922.632	703.426
188.256	14.458	921.991	703.052
189.271	14.450	921.360	702.473
190.286	14.436	920.601	701.774
191.300	14.305	919.415	700.257
192.315	14.227	918.891	699.470
193.329	14.216	917.886	698.596
194.344	14.065	917.801	697.833
195.359	14.166	917.235	697.766
196.373	14.327	916.645	697.929
197.388	14.447	915.755	697.691
198.402	14.413	915.821	697.538
199.417	14.632	914.884	697.679
200.432	14.600	914.579	697.251
201.446	14.581	914.282	696.885
202.461	14.735	913.755	697.064
203.475	14.701	913.266	696.487
204.490	14.830	912.496	696.375
205.504	14.695	911.525	695.009
206.519	14.730	910.357	694.204
207.534	14.482	910.152	692.957
208.548	14.668	909.144	692.897
209.563	14.554	908.909	692.187
210.577	14.677	907.849	691.829
211.592	14.625	907.236	691.083
212.607	14.698	906.589	690.832
213.621	14.787	906.121	690.782
214.636	14.641	905.584	689.710
215.650	14.827	905.073	690.025
216.665	14.884	904.111	689.467
217.680	14.820	903.677	688.811
218.694	14.930	903.264	688.887
219.709	14.939	902.743	688.465
220.723	15.082	901.794	688.269
221.738	14.850	901.285	686.866
222.753	14.826	900.566	686.160
223.767	15.056	899.373	686.132
224.782	14.980	898.742	685.280
225.796	14.915	898.476	684.750
226.811	15.105	898.035	685.130
227.826	15.077	896.878	684.072
228.840	14.909	896.190	682.803
229.855	14.871	895.687	682.205
230.869	14.943	894.826	681.783
231.884	14.970	893.779	681.034
232.899	14.832	893.617	680.286
233.913	15.025	892.596	680.235
234.928	14.960	892.043	679.489
235.942	14.791	891.624	678.425
236.957	14.785	890.704	677.638
237.972	14.824	890.152	677.317
238.986	14.890	889.835	677.285
240.001	14.769	889.113	676.185
241.015	15.006	887.982	676.224
242.030	15.069	887.439	676.003
243.045	14.983	886.873	675.164
244.059	15.051	885.979	674.701
245.074	15.025	885.578	674.231
246.088	15.088	884.850	673.869
247.103	15.203	884.666	674.133
248.117	15.166	884.027	673.438
249.132	15.258	883.361	673.237
250.147	15.328	882.958	673.152
251.161	15.321	882.401	672.642
252.176	15.317	882.107	672.343
253.190	15.413	880.862	671.718
254.205	15.475	880.672	671.761
255.220	15.638	879.843	671.720
256.234	15.622	878.834	670.828
257.249	15.520	878.414	670.038
258.263	15.505	878.099	669.679
259.278	15.461	877.485	668.979
260.293	15.530	876.940	668.778
261.307	15.729	875.832	668.665
262.322	15.629	875.906	668.265
263.336	15.577	875.306	667.543
264.351	15.665	874.548	667.255
265.366	15.692	873.683	666.640
266.380	15.728	873.056	666.248
267.395	15.642	872.749	665.615
268.409	15.509	871.838	664.332
269.424	15.600	871.159	664.116
270.439	15.762	870.148	663.927
271.453	15.661	869.506	662.981
272.468	15.551	869.104	662.182
273.482	15.724	867.718	661.748
274.497	15.631	867.617	661.247
275.512	15.634	866.981	660.714
276.526	15.694	866.080	660.204
277.541	15.642	865.937	659.835
278.555	15.628	865.195	659.156
279.570	15.771	864.734	659.307
280.585	15.907	864.136	659.325
281.599	15.924	863.586	658.912
282.614	15.779	863.095	657.911
283.628	15.853	862.083	657.371
284.643	15.727	861.665	656.504
285.657	15.714	861.516	656.281
286.672	15.840	860.719	656.105
287.687	15.867	860.174	655.738
288.701	15.796	859.839	655.148
289.716	15.894	858.952	654.797
290.730	15.781	858.640	654.061
291.745	15.983	857.997	654.297
292.760	15.899	857.053	653.193
293.774	15.963	856.771	653.170
294.789	16.033	856.217	652.961
295.803	16.064	855.431	652.424
296.818	15.928	854.755	651.323
297.833	15.916	854.328	650.896
298.847	15.931	853.614	650.353
299.862	16.107	853.051	650.543
300.876	16.040	852.201	649.579
301.891	15.986	852.005	649.167
302.906	16.194	850.964	649.116
303.920	16.158	850.365	648.461
304.935	16.177	850.008	648.206
305.949	16.285	849.178	647.928
306.964	16.260	848.571	647.313
307.979	16.221	847.886	646.583
308.993	16.103	847.761	645.979
310.008	16.312	846.989	646.136
311.022	16.404	846.376	645.959
312.037	16.275	846.031	645.147
313.052	16.331	845.291	644.741
314.066	16.191	844.769	643.753
315.081	16.218	843.817	643.071
316.095	16.183	843.637	642.743
317.110	16.166	843.280	642.350
318.125	16.282	842.661	642.262
319.139	16.210	841.881	641.338
320.154	16.205	841.339	640.850
321.168	16.360	840.779	640.956
322.183	16.245	840.548	640.286
323.197	16.355	839.873	640.130
324.212	16.454	839.158	639.906
325.227	16.292	838.806	638.966
326.241	16.364	838.158	638.688
327.256	16.399	837.684	638.404
328.270	16.414	837.056	637.923
329.285	16.344	836.317	637.042
330.300	16.290	836.029	636.560
331.314	16.271	835.441	635.986
332.329	16.450	834.752	636.080
333.343	16.415	834.369	635.600
334.358	16.406	833.699	635.000
335.373	16.447	833.112	634.650
336.387	16.643	832.577	634.919
337.402	16.476	832.390	634.096
338.416	16.590	831.602	633.867
339.431	16.594	831.063	633.414
340.446	16.672	830.699	633.372
341.460	16.629	830.335	632.877
342.475	16.769	829.567	632.762
343.489	16.705	828.826	631.901
344.504	16.793	828.475	631.906
345.519	16.891	827.642	631.577
346.533	16.838	827.424	631.161
347.548	16.882	826.651	630.676
348.562	16.801	826.538	630.233
349.577	16.695	825.810	629.229
350.592	16.796	824.754	628.744
351.606	16.688	824.425	628.037
352.621	16.691	823.950	627.632
353.635	16.593	823.764	627.071
354.650	16.825	823.509	627.679
355.665	16.727	822.792	626.717
356.679	16.769	822.221	626.380
357.694	16.827	822.233	626.548
358.708	16.988	820.974	626.128
359.723	16.839	820.629	625.259
360.738	16.914	820.211	625.162
361.752	16.906	819.632	624.637
362.767	16.834	819.553	624.254
363.781	16.979	818.837	624.187
364.796	16.944	818.648	623.861
365.810	17.085	818.128	623.927
366.825	17.149	817.914	623.945
367.840	17.244	817.329	623.793
368.854	17.113	817.102	623.080
369.869	17.165	816.452	622.722
370.883	17.066	815.890	621.875
371.898	17.180	814.894	621.480
372.913	17.117	814.718	621.060
373.927	17.292	813.706	620.871
374.942	17.288	813.095	620.337
375.956	17.213	812.689	619.697
376.971	17.268	812.058	619.362
377.986	17.255	811.883	619.126
379.000	17.477	811.032	619.229
380.015	17.306	811.077	618.588
381.029	17.405	810.272	618.279
382.044	17.394	809.439	617.547
383.059	17.309	808.974	616.832
384.073	17.544	808.266	617.089
385.088	17.462	808.020	616.549
386.102	17.324	807.319	615.461
387.117	17.290	806.743	614.843
388.132	17.286	806.495	614.587
389.146	17.419	805.963	614.608
390.161	17.306	805.843	614.053
391.175	17.439	805.184	613.974
392.190	17.481	804.830	613.803
393.205	17.495	804.288	613.385
394.219	17.524	804.153	613.334
395.234	17.306	803.231	611.791
396.248	17.284	802.932	611.431
397.263	17.440	802.157	611.346
398.278	17.268	802.015	610.566
399.292	17.279	801.433	610.108
400.307	17.310	801.100	609.911
401.321	17.365	800.511	609.605
402.336	17.344	800.403	609.396
403.350	17.459	799.587	609.130
404.365	17.401	799.491	608.797
405.380	17.656	798.781	609.114
406.394	17.487	798.347	608.124
407.409	17.659	798.382	608.714
408.423	17.700	797.761	608.331
409.438	17.700	796.948	607.658
410.453	17.776	796.829	607.786
411.467	17.752	796.326	607.263
412.482	17.724	796.028	606.881
413.496	17.844	795.371	606.753
414.511	17.809	795.199	606.445
415.526	18.019	794.668	606.733
416.540	17.889	794.475	606.068
417.555	17.809	794.541	605.782
418.569	17.972	793.168	605.259
419.584	18.044	792.552	604.990
420.599	17.955	792.236	604.381
421.613	152.780	1368.047	1790.005
422.628	132.122	1451.954	1790.102
