DTS Sentinel unit serial number:	SN413079Multiplexer serial number:	ORYXHardware model number:	OX4-SRSoftware version number:	ORYX F/W v4.00 Oryx Data Collector v3.7.2.0data status	okinstallation	princeton_trtdifferential loss correction	single-endedforward channel	channel 3reverse channel	N/Adate	2019/09/12time	11:26:11forward acquisition time	60.00reverse acquisition time	0.00gamma	496.2192k internal	0.2294k external	0.2294temperature offset calibration	1.0040default loss term (dB/km)	0.3790temperature slope calibration	1.0000multiplexer offset coefficient	1.0000multiplexer slope coefficient	1.0000fibre end	0.00T internal ref (°C)	39.25T ext. ref 1 (°C)	1.98T ext. ref 2 (°C)	36.59length (m)	temperature (°C)	Stokes	anti-Stokes-747.200	377.158	0.096	0.200
-746.185	-8.946	-0.033	0.022
-745.171	365.446	0.142	0.294
-744.156	-200.000	-0.003	-0.077
-743.142	119.584	0.141	-0.179
-742.127	323.512	0.065	-0.127
-741.112	-200.000	0.015	0.091
-740.098	274.030	0.107	0.193
-739.083	91.261	-0.074	0.085
-738.069	-83.241	0.049	-0.016
-737.054	232.058	0.215	0.361
-736.039	56.060	-0.105	0.104
-735.025	800.000	-0.111	0.429
-734.010	-8.488	-0.044	0.030
-732.996	-200.000	0.007	-0.244
-731.981	95.370	-0.172	-0.200
-730.966	-167.569	-0.061	-0.002
-729.952	0.198	-0.027	0.020
-728.937	-95.595	0.149	0.041
-727.923	216.288	0.125	-0.203
-726.908	-118.060	-0.153	-0.028
-725.894	-200.000	-0.004	-0.337
-724.879	-11.871	-0.440	-0.295
-723.864	81.185	-0.253	0.279
-722.850	800.000	0.061	0.184
-721.835	-200.000	0.037	0.246
-720.821	-97.353	0.379	-0.101
-719.806	-57.123	0.056	0.025
-718.791	426.918	-0.158	-0.349
-717.777	-9.847	0.179	-0.122
-716.762	299.988	-0.062	0.117
-715.748	-14.736	-0.189	0.124
-714.733	87.440	-0.249	-0.281
-713.718	-200.000	0.034	-0.403
-712.704	-135.801	-0.310	0.037
-711.689	468.744	-0.141	-0.324
-710.675	134.475	-0.022	-0.029
-709.660	-200.000	-0.040	-0.500
-708.645	-46.561	-0.198	-0.099
-707.631	18.772	0.157	-0.129
-706.616	-55.805	-0.405	-0.185
-705.602	84.608	0.178	0.198
-704.587	-60.331	-0.137	0.059
-703.572	222.098	0.078	-0.128
-702.558	275.906	0.250	-0.453
-701.543	-90.702	0.188	-0.055
-700.529	-39.932	-0.287	-0.153
-699.514	-200.000	0.021	0.203
-698.499	800.000	0.033	0.117
-697.485	-21.764	-0.164	-0.102
-696.470	45.766	0.090	-0.085
-695.456	800.000	-0.082	0.268
-694.441	198.158	-0.120	0.187
-693.426	228.341	0.129	0.214
-692.412	38.852	-0.092	0.084
-691.397	-200.000	0.058	0.261
-690.383	-0.835	-0.208	0.150
-689.368	326.310	0.022	-0.043
-688.354	378.274	0.175	-0.366
-687.339	800.000	-0.035	-0.141
-686.324	-45.776	-0.204	0.103
-685.310	-200.000	0.004	-0.199
-684.295	161.218	0.122	0.174
-683.281	67.543	0.300	-0.313
-682.266	-161.847	-0.181	0.009
-681.251	258.435	0.071	-0.124
-680.237	-168.742	-0.128	0.005
-679.222	-135.566	-0.232	-0.028
-678.208	34.707	0.088	-0.078
-677.193	118.325	0.095	-0.120
-676.178	-200.000	-0.371	-0.001
-675.164	-117.007	0.057	0.011
-674.149	-104.066	0.190	-0.045
-673.135	201.530	-0.115	-0.180
-672.120	-200.000	0.010	-0.189
-671.105	115.204	0.136	-0.170
-670.091	-155.540	-0.358	-0.024
-669.076	-12.791	0.042	0.028
-668.062	-7.010	0.222	0.154
-667.047	-134.151	0.217	0.027
-666.032	-152.136	0.177	0.013
-665.018	-200.000	0.001	0.371
-664.003	-18.163	-0.197	0.126
-662.989	-36.378	-0.056	-0.031
-661.974	-200.000	-0.023	0.154
-660.959	800.000	0.055	0.156
-659.945	-50.107	-0.184	-0.089
-658.930	-115.583	0.361	-0.069
-657.916	214.324	-0.058	-0.093
-656.901	-200.000	-0.010	0.434
-655.886	800.000	-0.028	0.080
-654.872	680.940	-0.149	-0.395
-653.857	800.000	-0.023	-0.075
-652.843	-200.000	0.002	-0.373
-651.828	353.578	-0.163	0.329
-650.814	77.509	-0.036	0.039
-649.799	-100.037	-0.078	-0.020
-648.784	-137.096	0.130	0.015
-647.770	-85.665	0.102	-0.032
-646.755	131.568	-0.116	-0.152
-645.741	800.000	-0.076	-0.306
-644.726	800.000	-0.093	-0.304
-643.711	133.864	0.058	0.076
-642.697	13.602	-0.207	0.163
-641.682	520.252	-0.140	0.335
-640.668	537.248	0.058	0.140
-639.653	-133.937	-0.126	-0.016
-638.638	-44.010	-0.183	-0.093
-637.624	273.993	-0.139	0.251
-636.609	-200.000	0.012	0.160
-635.595	314.763	0.100	0.193
-634.580	23.729	-0.090	-0.075
-633.565	-200.000	-0.067	0.450
-632.551	63.593	-0.064	0.065
-631.536	42.327	0.025	0.023
-630.522	287.398	0.104	-0.191
-629.507	57.997	-0.166	-0.165
-628.492	71.948	-0.197	0.209
-627.478	-8.402	0.035	0.024
-626.463	163.264	0.038	-0.054
-625.449	-81.604	0.058	-0.020
-624.434	-109.212	0.209	0.045
-623.419	-200.000	-0.034	0.381
-622.405	-200.000	-0.008	-0.301
-621.390	-126.830	-0.430	-0.065
-620.376	800.000	-0.098	0.361
-619.361	-102.789	0.072	-0.017
-618.346	279.963	-0.191	0.347
-617.332	-168.982	0.336	0.013
-616.317	-60.191	0.258	-0.112
-615.303	-200.000	-0.007	-0.333
-614.288	-200.000	0.014	-0.168
-613.273	-78.162	0.045	0.016
-612.259	-102.675	0.323	-0.078
-611.244	-49.507	-0.319	-0.155
-610.230	-80.947	0.118	-0.040
-609.215	-200.000	-0.013	0.152
-608.201	-200.000	0.025	0.115
-607.186	121.547	0.231	0.293
-606.171	281.456	-0.028	0.052
-605.157	-91.487	0.388	-0.113
-604.142	600.688	0.151	0.381
-603.128	-44.836	-0.085	-0.043
-602.113	-110.656	-0.166	0.035
-601.098	-80.767	0.156	0.053
-600.084	-42.941	0.153	-0.079
-599.069	-68.458	-0.166	0.066
-598.055	58.546	-0.192	0.192
-597.040	-139.332	-0.356	0.039
-596.025	257.707	-0.121	0.211
-595.011	26.208	-0.261	0.222
-593.996	-200.000	0.007	0.255
-592.982	-3.522	0.251	0.177
-591.967	42.105	-0.150	-0.138
-590.952	-116.288	-0.154	0.029
-589.938	-200.000	0.001	0.047
-588.923	31.454	-0.223	-0.195
-587.909	70.375	0.093	-0.097
-586.894	235.991	-0.202	-0.339
-585.879	-67.811	-0.237	-0.094
-584.865	-124.184	-0.196	-0.031
-583.850	800.000	0.054	-0.187
-582.836	740.732	0.063	0.172
-581.821	-91.362	-0.339	-0.099
-580.806	12.919	-0.201	0.158
-579.792	800.000	-0.040	0.173
-578.777	-105.800	0.316	0.072
-577.763	-128.619	0.201	0.029
-576.748	-57.002	0.109	0.049
-575.733	-62.760	-0.300	0.126
-574.719	-173.855	0.056	0.002
-573.704	13.674	0.109	-0.086
-572.690	-57.942	0.192	0.085
-571.675	326.226	0.058	-0.114
-570.661	-90.592	-0.059	-0.017
-569.646	-200.000	0.030	-0.325
-568.631	221.178	-0.097	-0.158
-567.617	68.870	0.143	-0.150
-566.602	-200.000	-0.016	-0.240
-565.588	-117.110	0.347	0.064
-564.573	408.258	0.087	-0.188
-563.558	-82.014	-0.285	-0.095
-562.544	11.544	0.077	-0.060
-561.529	-93.407	-0.179	-0.050
-560.515	595.381	0.094	0.236
-559.500	23.144	-0.087	-0.073
-558.485	-200.000	-0.001	0.155
-557.471	800.000	-0.049	-0.140
-556.456	-200.000	-0.053	0.361
-555.442	-0.474	0.146	0.105
-554.427	-156.312	-0.313	0.020
-553.412	51.821	-0.130	-0.126
-552.398	100.999	-0.081	0.095
-551.383	800.000	-0.027	0.115
-550.369	486.051	0.072	0.166
-549.354	75.238	0.136	-0.146
-548.339	667.735	-0.126	-0.331
-547.325	-200.000	0.015	0.141
-546.310	-136.922	0.221	0.026
-545.296	220.000	0.113	-0.183
-544.281	-200.000	0.020	0.103
-543.266	800.000	0.012	0.045
-542.252	-115.794	-0.218	-0.041
-541.237	-114.383	0.046	0.009
-540.223	91.794	-0.053	-0.060
-539.208	521.710	-0.029	0.068
-538.193	324.038	-0.054	0.104
-537.179	-52.840	-0.121	-0.056
-536.164	-154.589	0.279	0.019
-535.150	-85.183	0.208	-0.066
-534.135	-48.363	0.106	0.052
-533.121	175.135	0.053	-0.078
-532.106	-134.926	-0.170	0.021
-531.091	-137.175	0.259	-0.030
-530.077	-146.270	0.251	0.022
-529.062	11.568	-0.158	0.123
-528.048	-200.000	-0.003	-0.233
-527.033	800.000	-0.087	-0.269
-526.018	588.517	0.080	-0.201
-525.004	-7.750	0.203	0.139
-523.989	-75.239	0.121	-0.044
-522.975	121.895	0.244	0.309
-521.960	-102.775	-0.067	-0.016
-520.945	-200.000	0.052	-0.410
-519.931	-200.000	-0.007	-0.561
-518.916	800.000	-0.060	0.201
-517.902	800.000	0.081	0.242
-516.887	800.000	-0.071	0.238
-515.872	-152.881	-0.452	-0.032
-514.858	326.821	0.055	0.106
-513.843	39.795	0.065	0.059
-512.829	-40.184	0.215	-0.114
-511.814	-97.738	-0.139	0.036
-510.799	67.052	-0.073	-0.076
-509.785	-200.000	-0.014	-0.076
-508.770	30.102	-0.060	-0.052
-507.756	-200.000	0.026	-0.133
-506.741	558.892	-0.123	0.301
-505.726	-58.896	0.219	-0.096
-504.712	-200.000	-0.078	-0.476
-503.697	63.455	-0.249	-0.254
-502.683	87.424	0.359	-0.402
-501.668	537.499	-0.099	-0.238
-500.653	-200.000	-0.001	-0.189
-499.639	-39.782	-0.304	0.161
-498.624	-200.000	-0.000	-0.378
-497.610	-200.000	-0.012	0.130
-496.595	-11.690	-0.059	0.039
-495.581	51.175	0.055	0.053
-494.566	-69.554	-0.050	0.019
-493.551	-7.110	0.081	0.056
-492.537	141.099	0.071	0.095
-491.522	79.436	-0.134	-0.145
-490.508	800.000	0.127	-0.388
-489.493	408.183	0.061	-0.130
-488.478	162.362	0.133	-0.189
-487.464	51.476	-0.334	0.322
-486.449	-34.120	-0.278	0.155
-485.435	800.000	-0.070	-0.234
-484.420	-71.396	0.124	-0.047
-483.405	21.750	0.265	-0.219
-482.391	78.922	-0.179	0.194
-481.376	-79.869	0.320	-0.109
-480.362	73.702	0.116	-0.123
-479.347	-54.256	-0.155	0.071
-478.332	19.104	-0.260	0.211
-477.318	-200.000	-0.012	0.097
-476.303	118.934	-0.118	0.148
-475.289	532.088	-0.027	-0.065
-474.274	-120.043	0.214	0.037
-473.259	-200.000	0.021	0.151
-472.245	-124.014	0.351	0.056
-471.230	-200.000	-0.001	-0.295
-470.216	-200.000	0.028	0.153
-469.201	800.000	-0.073	-0.290
-468.186	-200.000	0.013	-0.214
-467.172	261.128	-0.179	0.313
-466.157	-56.082	0.078	-0.035
-465.143	-200.000	-0.046	-0.223
-464.128	372.401	-0.097	0.199
-463.113	-73.248	0.407	-0.151
-462.099	474.535	0.031	0.072
-461.084	800.000	-0.036	0.106
-460.070	-103.309	-0.305	0.073
-459.055	-70.444	0.206	0.079
-458.040	14.718	0.214	-0.169
-457.026	-200.000	0.010	-0.292
-456.011	-37.688	-0.117	-0.063
-454.997	344.259	-0.063	0.125
-453.982	235.756	-0.118	0.197
-452.968	-93.889	-0.245	0.068
-451.953	-115.047	-0.195	-0.037
-450.938	-83.397	0.170	-0.055
-449.924	-118.005	-0.170	0.031
-448.909	800.000	0.035	0.128
-447.895	2.253	0.078	-0.057
-446.880	-130.324	-0.169	0.023
-445.865	-200.000	0.052	-0.283
-444.851	43.364	-0.177	-0.164
-443.836	622.237	0.147	0.375
-442.822	-49.527	0.104	0.050
-441.807	-62.662	-0.197	0.083
-440.792	471.560	-0.117	0.267
-439.778	-133.240	-0.276	-0.035
-438.763	-76.996	-0.259	0.091
-437.749	-54.180	0.250	-0.115
-436.734	-106.282	-0.217	0.049
-435.719	-32.748	0.042	0.024
-434.705	146.587	-0.217	-0.295
-433.690	197.245	0.105	-0.162
-432.676	171.226	0.032	-0.046
-431.661	800.000	0.062	0.195
-430.646	416.574	-0.100	-0.216
-429.632	-200.000	0.068	0.313
-428.617	-200.000	0.004	-0.041
-427.603	-25.631	-0.099	-0.059
-426.588	-96.418	0.350	0.093
-425.573	-142.499	0.172	0.017
-424.559	13.867	0.355	0.279
-423.544	-33.920	-0.234	0.130
-422.530	-179.588	-0.153	-0.003
-421.515	800.000	0.082	-0.241
-420.500	800.000	0.069	-0.210
-419.486	-92.944	0.221	-0.062
-418.471	655.647	0.074	-0.191
-417.457	87.105	-0.236	-0.263
-416.442	299.096	0.107	0.199
-415.428	38.055	0.287	0.257
-414.413	208.791	-0.145	0.229
-413.398	155.367	0.034	0.047
-412.384	-200.000	-0.040	-0.246
-411.369	-200.000	0.001	-0.184
-410.355	151.990	0.250	-0.344
-409.340	-27.870	0.168	-0.098
-408.325	800.000	0.039	-0.121
-407.311	-133.460	-0.384	-0.049
-406.296	-93.369	0.318	0.089
-405.282	31.188	-0.052	-0.045
-404.267	17.911	0.235	-0.189
-403.252	-57.761	0.259	-0.114
-402.238	421.252	0.148	0.321
-401.223	-71.601	0.120	0.045
-400.209	-37.932	-0.066	0.036
-399.194	-112.041	-0.405	0.082
-398.179	-44.961	-0.343	-0.173
-397.165	76.561	-0.131	0.140
-396.150	-78.738	-0.220	-0.076
-395.136	127.676	0.171	-0.219
-394.121	14.311	0.208	-0.164
-393.106	-145.583	-0.468	0.042
-392.092	-200.000	0.033	-0.272
-391.077	-68.802	0.322	0.125
-390.063	639.094	-0.068	-0.173
-389.048	-200.000	-0.014	-0.089
-388.033	-93.773	-0.258	0.072
-387.019	-200.000	-0.041	-0.185
-386.004	708.724	-0.035	0.093
-384.990	-52.863	-0.095	0.044
-383.975	240.679	0.133	0.224
-382.960	-200.000	-0.024	0.295
-381.946	0.139	0.097	-0.070
-380.931	119.807	0.061	0.076
-379.917	188.675	0.082	0.124
-378.902	-96.903	-0.342	-0.090
-377.888	96.391	-0.090	0.104
-376.873	-39.248	-0.091	-0.048
-375.858	-20.558	0.050	0.031
-374.844	800.000	-0.103	0.366
-373.829	65.565	0.134	0.137
-372.815	800.000	0.017	0.053
-371.800	-200.000	0.013	0.241
-370.785	800.000	0.074	-0.260
-369.771	-69.950	0.270	0.104
-368.756	800.000	-0.046	-0.132
-367.742	-200.000	-0.028	-0.212
-366.727	-16.947	-0.016	0.010
-365.712	251.595	0.112	0.192
-364.698	74.303	-0.186	-0.196
-363.683	144.427	-0.150	-0.202
-362.669	225.620	0.096	0.157
-361.654	-74.472	0.426	-0.155
-360.639	800.000	0.040	-0.165
-359.625	32.975	-0.227	0.198
-358.610	-200.000	-0.027	-0.276
-357.596	-4.532	-0.179	0.124
-356.581	-174.492	0.189	-0.005
-355.566	-81.284	-0.154	-0.051
-354.552	800.000	0.035	0.148
-353.537	493.209	0.094	0.217
-352.523	800.000	0.037	0.154
-351.508	800.000	-0.120	0.437
-350.493	-146.554	0.397	0.035
-349.479	226.189	-0.077	-0.126
-348.464	267.989	-0.031	-0.055
-347.450	80.147	0.108	0.117
-346.435	-81.918	-0.202	-0.066
-345.420	-200.000	-0.003	0.021
-344.406	-161.823	0.061	0.003
-343.391	-200.000	0.048	-0.244
-342.377	-141.659	0.098	0.010
-341.362	147.074	-0.102	-0.139
-340.348	48.170	0.079	0.074
-339.333	92.554	0.091	0.104
-338.318	324.949	0.096	0.185
-337.304	-28.991	0.250	0.144
-336.289	-14.218	-0.050	-0.032
-335.275	-200.000	0.015	0.255
-334.260	-4.946	0.073	0.050
-333.245	-52.047	-0.238	-0.111
-332.231	-149.058	-0.351	0.028
-331.216	40.299	0.133	-0.121
-330.202	-200.000	-0.041	-0.187
-329.187	381.988	-0.188	0.388
-328.172	-200.000	0.027	0.250
-327.158	800.000	0.020	0.056
-326.143	-1.568	0.206	0.146
-325.129	28.564	0.299	-0.254
-324.114	800.000	-0.076	0.249
-323.099	43.002	0.153	-0.140
-322.085	-90.915	0.390	-0.113
-321.070	119.219	0.189	-0.235
-320.056	-118.605	0.418	-0.074
-319.041	-200.000	0.029	-0.196
-318.026	75.309	0.034	0.036
-317.012	-69.432	-0.178	-0.069
-315.997	-54.929	-0.102	0.046
-314.983	800.000	-0.046	-0.141
-313.968	116.319	0.043	0.053
-312.953	56.895	-0.108	0.106
-311.939	-88.900	-0.096	0.029
-310.924	-200.000	0.012	-0.056
-309.910	342.725	-0.196	0.386
-308.895	170.246	0.150	0.216
-307.880	-132.517	-0.211	0.027
-306.866	55.565	-0.150	0.146
-305.851	-106.569	0.138	-0.031
-304.837	-81.615	0.059	-0.019
-303.822	-200.000	0.014	0.133
-302.807	-7.742	0.106	0.072
-301.793	800.000	-0.163	0.494
-300.778	108.156	0.241	-0.288
-299.764	-75.335	-0.228	0.082
-298.749	800.000	0.086	0.272
-297.735	800.000	0.048	0.162
-296.720	321.907	-0.047	-0.090
-295.705	-137.106	0.110	-0.013
-294.691	-66.501	0.237	0.095
-293.676	-65.537	-0.157	-0.063
-292.662	21.556	-0.140	0.114
-291.647	800.000	-0.049	0.176
-290.632	-59.406	-0.146	-0.063
-289.618	51.345	-0.262	0.250
-288.603	147.257	0.090	0.121
-287.589	5.010	0.124	-0.091
-286.574	99.350	0.238	-0.276
-285.559	94.204	-0.055	0.062
-284.545	-100.562	0.262	0.065
-283.530	153.566	-0.153	-0.210
-282.516	-112.428	0.115	0.023
-281.501	102.547	-0.126	0.148
-280.486	800.000	-0.034	0.138
-279.472	174.595	0.073	0.106
-278.457	800.000	-0.058	-0.240
-277.443	-200.000	-0.037	-0.218
-276.428	-200.000	-0.007	0.039
-275.413	-200.000	0.000	-0.323
-274.399	-3.428	-0.055	0.038
-273.384	607.075	-0.070	-0.174
-272.370	441.490	-0.136	-0.298
-271.355	483.640	-0.056	-0.127
-270.340	579.476	0.133	-0.326
-269.326	-0.071	0.340	-0.243
-268.311	-40.034	0.211	-0.111
-267.297	18.028	-0.114	-0.091
-266.282	125.250	-0.143	0.181
-265.267	289.660	0.146	-0.267
-264.253	107.961	-0.192	-0.229
-263.238	-200.000	-0.033	-0.146
-262.224	-81.412	0.224	0.074
-261.209	-105.577	-0.316	0.072
-260.195	-95.408	-0.240	-0.065
-259.180	-84.305	-0.111	-0.035
-258.165	-200.000	0.013	-0.200
-257.151	-4.650	0.088	0.061
-256.136	108.050	0.149	-0.178
-255.122	760.653	-0.075	-0.204
-254.107	-3.356	0.227	0.158
-253.092	-8.326	0.216	-0.145
-252.078	-9.540	-0.238	0.159
-251.063	276.965	0.092	-0.163
-250.049	-200.000	0.053	-0.400
-249.034	72.275	-0.133	-0.139
-248.019	-114.338	0.362	-0.070
-247.005	-108.648	-0.098	0.021
-245.990	74.916	-0.241	0.254
-244.976	-60.514	-0.304	-0.129
-243.961	460.620	0.144	0.321
-242.946	-29.761	0.169	-0.097
-241.932	800.000	-0.045	-0.147
-240.917	-27.491	0.204	-0.119
-239.903	304.662	-0.024	-0.045
-238.888	14.981	0.195	-0.153
-237.873	492.791	0.044	0.101
-236.859	640.849	-0.044	0.112
-235.844	20.463	-0.198	0.160
-234.830	291.168	0.083	-0.151
-233.815	-8.258	0.021	0.014
-232.800	-131.049	0.173	0.023
-231.786	-85.461	0.219	-0.068
-230.771	-200.000	-0.008	0.053
-229.757	-200.000	0.027	0.184
-228.742	-200.000	0.044	0.234
-227.727	800.000	-0.101	0.296
-226.713	-123.728	0.074	0.012
-225.698	-71.922	-0.097	0.036
-224.684	-156.562	0.191	0.012
-223.669	18.365	-0.156	-0.125
-222.655	-68.668	0.101	0.039
-221.640	800.000	-0.020	0.065
-220.625	97.657	0.127	0.146
-219.611	52.920	-0.306	0.293
-218.596	139.638	-0.071	0.094
-217.582	-16.135	-0.329	0.209
-216.567	-20.995	-0.086	0.053
-215.552	-34.116	0.148	-0.081
-214.538	-200.000	-0.022	0.197
-213.523	-37.533	0.373	0.199
-212.509	-86.567	0.169	-0.052
-211.494	364.483	-0.028	0.057
-210.479	800.000	-0.060	-0.177
-209.465	-200.000	0.054	-0.281
-208.450	184.704	0.163	-0.242
-207.436	12.424	0.196	0.151
-206.421	800.000	0.073	0.205
-205.406	-66.792	0.138	0.055
-204.392	-20.645	-0.148	0.091
-203.377	-200.000	-0.043	-0.235
-202.363	794.099	-0.097	-0.266
-201.348	40.369	0.282	-0.254
-200.333	108.530	0.138	0.165
-199.319	80.477	-0.128	-0.138
-198.304	-200.000	-0.043	0.297
-197.290	-70.116	-0.287	-0.109
-196.275	-116.766	0.091	-0.017
-195.260	226.927	0.104	0.169
-194.246	-97.642	-0.153	0.040
-193.231	-200.000	0.034	-0.285
-192.217	65.278	-0.211	-0.214
-191.202	430.511	-0.043	-0.093
-190.187	-200.000	0.030	0.244
-189.173	136.592	0.024	-0.031
-188.158	2.350	0.327	0.236
-187.144	-200.000	0.109	0.506
-186.129	-200.000	0.004	0.180
-185.114	655.988	-0.129	0.332
-184.100	-133.410	-0.066	-0.008
-183.085	800.000	-0.131	-0.491
-182.071	800.000	-0.072	-0.217
-181.056	800.000	0.060	-0.221
-180.042	-85.238	-0.095	0.030
-179.027	360.363	-0.113	0.225
-178.012	-134.899	-0.095	0.011
-176.998	-83.047	-0.134	-0.043
-175.983	76.059	0.062	-0.066
-174.969	193.124	0.097	0.146
-173.954	-198.835	0.129	-0.001
-172.939	800.000	0.055	0.196
-171.925	-200.000	0.080	0.360
-170.910	-90.301	0.339	-0.099
-169.896	-24.521	-0.137	0.081
-168.881	57.518	-0.294	0.288
-167.866	555.778	0.037	0.089
-166.852	-200.000	0.017	-0.263
-165.837	707.933	-0.085	-0.224
-164.823	-23.890	-0.262	0.157
-163.808	-8.448	-0.113	-0.076
-162.793	-200.000	-0.000	0.338
-161.779	-22.359	0.140	-0.085
-160.764	277.252	-0.147	-0.261
-159.750	136.573	-0.115	0.150
-158.735	-200.000	0.018	0.145
-157.720	-200.000	-0.015	-0.141
-156.706	671.181	0.054	-0.139
-155.691	348.055	-0.072	-0.141
-154.677	113.764	0.089	0.108
-153.662	35.571	0.240	0.210
-152.647	-200.000	0.014	-0.296
-151.633	-22.989	-0.243	0.147
-150.618	88.471	-0.194	0.216
-149.604	-131.586	-0.364	0.048
-148.589	-168.484	0.263	-0.010
-147.574	109.350	0.106	-0.127
-146.560	-14.425	0.198	-0.127
-145.545	125.541	-0.051	-0.064
-144.531	9.309	0.180	-0.136
-143.516	-117.721	-0.358	-0.064
-142.502	-91.909	0.153	0.043
-141.487	54.422	-0.223	-0.214
-140.472	12.763	-0.172	-0.133
-139.458	360.968	0.102	0.204
-138.443	472.753	0.090	0.201
-137.429	247.026	-0.123	0.208
-136.414	113.277	0.193	0.234
-135.399	-110.343	-0.269	0.056
-134.385	244.961	-0.120	0.202
-133.370	-74.563	-0.211	0.076
-132.356	-118.555	0.160	-0.028
-131.341	463.241	-0.074	-0.165
-130.326	62.317	-0.067	-0.067
-129.312	-200.000	0.009	-0.100
-128.297	-117.596	-0.123	0.022
-127.283	-51.194	-0.083	-0.039
-126.268	-200.000	0.034	0.151
-125.253	-169.513	-0.168	0.006
-124.239	133.097	-0.170	0.220
-123.224	-200.000	-0.009	0.106
-122.210	29.931	-0.031	-0.027
-121.195	67.272	-0.095	0.097
-120.180	800.000	-0.028	0.078
-119.166	-92.427	-0.432	0.121
-118.151	267.255	0.108	0.188
-117.137	310.201	0.128	-0.240
-116.122	196.180	0.132	0.200
-115.107	-10.129	0.410	0.272
-114.093	366.879	0.123	-0.248
-113.078	-200.000	0.062	-0.335
-112.064	-200.000	-0.012	-0.180
-111.049	618.283	-0.156	0.392
-110.034	-100.889	-0.190	-0.047
-109.020	202.555	0.100	-0.153
-108.005	-51.934	0.213	0.099
-106.991	498.583	-0.063	0.144
-105.976	800.000	0.118	-0.339
-104.962	800.000	-0.049	0.157
-103.947	103.443	-0.329	0.385
-102.932	-118.007	0.286	-0.051
-101.918	32.588	0.282	-0.243
-100.903	71.166	0.287	0.297
-99.889	98.384	-0.234	-0.269
-98.874	-67.478	-0.269	0.105
-97.859	-200.000	-0.026	0.231
-96.845	63.216	-0.097	0.097
-95.830	134.385	-0.166	0.214
-94.816	-142.104	-0.044	0.004
-93.801	800.000	0.109	0.356
-92.786	171.794	0.339	0.486
-91.772	88.276	-0.180	-0.199
-90.757	380.512	-0.093	0.190
-89.743	798.513	-0.120	0.330
-88.728	-65.234	-0.072	-0.029
-87.713	-200.000	0.070	-0.508
-86.699	-103.335	-0.183	0.043
-85.684	416.922	-0.140	-0.298
-84.670	-56.675	0.262	-0.115
-83.655	331.939	-0.240	-0.462
-82.640	-200.000	-0.003	0.124
-81.626	-194.349	0.178	-0.001
-80.611	-48.840	0.050	0.024
-79.597	-120.525	0.043	0.007
-78.582	-79.585	-0.318	0.107
-77.567	-82.582	0.352	0.114
-76.553	-3.670	0.096	-0.067
-75.538	-200.000	0.026	-0.168
-74.524	-70.876	0.148	0.056
-73.509	528.603	-0.030	0.070
-72.494	-200.000	0.016	0.236
-71.480	-165.703	-0.218	0.009
-70.465	800.000	-0.025	-0.108
-69.451	-12.108	-0.083	0.054
-68.436	293.414	-0.043	0.079
-67.422	-37.235	-0.199	0.106
-66.407	261.128	0.090	-0.155
-65.392	-119.896	-0.134	0.023
-64.378	-200.000	-0.046	0.349
-63.363	485.338	-0.205	-0.465
-62.349	0.558	0.121	-0.086
-61.334	166.580	-0.524	-0.740
-60.319	89.710	0.190	0.212
-59.305	-200.000	0.031	-0.559
-58.290	67.480	0.463	0.471
-57.276	409.706	0.763	1.609
-56.261	-200.000	78.499	498.172
-55.246	476.687	1364.869	3071.315
-54.232	143.591	2596.658	3442.814
-53.217	110.955	2262.809	2711.384
-52.203	49.026	1790.028	1673.164
-51.188	42.407	1592.668	1441.304
-50.173	39.814	1563.876	1396.879
-49.159	55.523	1602.347	1543.854
-48.144	60.367	1622.678	1598.042
-47.130	42.989	1585.358	1438.621
-46.115	39.583	1570.926	1401.307
-45.100	39.387	1567.926	1397.184
-44.086	39.327	1565.534	1394.571
-43.071	39.283	1563.571	1392.457
-42.057	39.154	1561.967	1390.064
-41.042	39.262	1560.346	1389.328
-40.027	39.233	1558.461	1387.389
-39.013	39.152	1557.544	1385.943
-37.998	39.248	1555.249	1384.525
-36.984	39.244	1554.499	1383.774
-35.969	39.233	1553.184	1382.472
-34.954	39.290	1552.343	1382.068
-33.940	39.116	1551.063	1379.655
-32.925	39.366	1548.967	1379.490
-31.911	39.325	1547.690	1378.008
-30.896	39.408	1546.077	1377.097
-29.881	39.334	1545.073	1375.630
-28.867	39.342	1543.859	1374.552
-27.852	39.337	1542.367	1373.132
-26.838	39.328	1540.876	1371.686
-25.823	39.372	1539.104	1370.361
-24.809	39.218	1537.737	1368.019
-23.794	39.278	1536.016	1366.849
-22.779	39.338	1534.796	1366.128
-21.765	39.267	1533.840	1364.729
-20.750	39.260	1532.918	1363.809
-19.736	39.307	1531.674	1362.970
-18.721	39.367	1529.972	1361.820
-17.706	39.220	1529.403	1360.242
-16.692	39.196	1528.534	1359.249
-15.677	39.168	1527.229	1357.841
-14.663	39.297	1525.377	1357.031
-13.648	39.241	1524.870	1356.141
-12.633	39.190	1523.702	1354.698
-11.619	39.195	1523.018	1354.066
-10.604	39.151	1522.481	1353.233
-9.590	39.247	1520.969	1352.496
-8.575	39.142	1520.354	1351.171
-7.560	39.072	1519.698	1350.059
-6.546	39.228	1518.192	1349.737
-5.531	39.278	1517.049	1349.012
-4.517	39.222	1516.412	1348.008
-3.502	39.127	1515.522	1346.509
-2.487	39.209	1514.374	1346.000
-1.473	39.092	1513.098	1344.009
-0.458	39.185	1511.778	1343.416
0.556	39.457	1503.165	1334.274
1.571	36.888	1475.049	1292.095
2.586	33.338	1410.108	1212.414
3.600	31.368	1325.224	1127.454
4.615	29.357	1275.803	1073.619
5.629	24.277	1214.955	994.080
6.644	12.418	1121.442	856.074
7.659	3.522	1074.717	775.753
8.673	2.253	1068.373	764.759
9.688	2.002	1065.437	761.339
10.702	1.840	1063.478	759.064
11.717	1.806	1061.985	757.765
12.731	5.444	1065.996	778.695
13.746	16.227	1082.137	844.655
14.761	24.250	1092.800	893.288
15.775	25.450	1093.211	899.555
16.790	25.503	1092.863	899.454
17.804	25.406	1091.970	898.152
18.819	25.114	1091.062	895.869
19.834	25.254	1090.480	896.010
20.848	25.369	1089.847	895.984
21.863	25.266	1089.720	895.289
22.877	25.440	1089.376	895.795
23.892	25.347	1089.022	894.958
24.907	25.135	1087.870	892.876
25.921	25.238	1087.150	892.722
26.936	25.340	1086.130	892.310
27.950	25.282	1085.299	891.262
28.965	25.231	1083.767	889.673
29.980	25.118	1082.463	887.963
30.994	25.144	1081.220	886.992
32.009	25.318	1080.669	887.320
33.023	25.394	1080.262	887.287
34.038	25.128	1079.340	885.139
35.053	25.070	1078.098	883.753
36.067	25.236	1077.499	884.004
37.082	25.277	1077.144	883.833
38.096	25.348	1076.080	883.233
39.111	25.481	1075.460	883.300
40.126	25.545	1074.672	882.889
41.140	25.624	1072.821	881.676
42.155	25.228	1071.834	878.848
43.169	24.949	1070.673	876.454
44.184	24.762	1069.682	874.649
45.199	24.953	1068.710	874.712
46.213	24.773	1067.980	873.157
47.228	24.919	1066.828	872.852
48.242	25.059	1066.111	872.870
49.257	25.096	1065.625	872.575
50.271	25.242	1064.534	872.311
51.286	25.361	1064.148	872.497
52.301	25.478	1063.288	872.286
53.315	25.420	1062.578	871.345
54.330	25.321	1061.835	870.177
55.344	25.213	1061.062	868.945
56.359	25.308	1059.830	868.314
57.374	25.385	1059.093	868.009
58.388	25.032	1058.629	865.845
59.403	24.969	1057.801	864.789
60.417	24.944	1057.350	864.219
61.432	24.853	1056.334	862.875
62.447	24.848	1055.705	862.260
63.461	24.984	1055.107	862.354
64.476	25.085	1053.872	861.753
65.490	24.958	1053.462	860.728
66.505	24.854	1052.407	859.294
67.520	24.963	1051.636	859.112
68.534	25.179	1050.628	859.247
69.549	24.868	1049.865	857.055
70.563	24.663	1048.503	854.886
71.578	24.454	1048.182	853.553
72.593	24.579	1047.387	853.427
73.607	24.499	1045.812	851.688
74.622	24.374	1045.035	850.379
75.636	24.674	1044.204	851.060
76.651	24.947	1043.483	851.693
77.666	24.617	1042.828	849.514
78.680	24.687	1041.520	848.707
79.695	24.622	1041.226	848.086
80.709	24.676	1041.105	848.166
81.724	24.911	1039.998	848.302
82.739	24.857	1039.232	847.350
83.753	24.827	1038.238	846.323
84.768	25.155	1037.530	847.219
85.782	25.434	1037.344	848.312
86.797	25.646	1036.415	848.475
87.812	25.483	1035.760	847.094
88.826	25.327	1034.990	845.656
89.841	25.385	1033.757	844.844
90.855	25.536	1033.537	845.302
91.870	25.505	1032.747	844.436
92.884	25.422	1031.905	843.280
93.899	25.323	1031.003	842.007
94.914	25.315	1029.639	840.781
95.928	25.447	1028.837	840.669
96.943	25.494	1028.041	840.162
97.957	25.187	1026.788	837.633
98.972	25.021	1025.484	835.718
99.987	24.786	1024.665	833.881
101.001	24.873	1024.311	833.927
102.016	25.061	1024.125	834.576
103.030	25.148	1023.122	834.089
104.045	25.094	1021.966	832.822
105.060	25.020	1020.646	831.329
106.074	24.847	1019.285	829.345
107.089	24.979	1018.296	829.080
108.103	25.165	1018.283	829.854
109.118	25.247	1017.712	829.698
110.133	24.987	1016.536	827.463
111.147	24.927	1015.094	825.939
112.162	24.763	1014.095	824.300
113.176	24.609	1012.424	822.160
114.191	24.882	1012.061	823.049
115.206	24.878	1011.584	822.568
116.220	24.651	1010.080	820.229
117.235	24.486	1009.449	818.886
118.249	24.547	1008.755	818.533
119.264	24.720	1008.008	818.649
120.279	24.551	1006.988	816.973
121.293	24.544	1006.196	816.224
122.308	24.700	1005.464	816.272
123.322	24.694	1004.709	815.561
124.337	24.686	1003.468	814.444
125.352	24.564	1002.188	812.778
126.366	24.195	1000.377	809.563
127.381	23.726	999.408	806.575
128.395	24.379	999.128	809.240
129.410	25.008	999.276	812.142
130.424	25.080	998.586	811.837
131.439	25.246	997.106	811.309
132.454	25.114	996.428	810.092
133.468	25.166	995.642	809.613
134.483	25.106	994.535	808.375
135.497	25.115	994.114	807.999
136.512	25.245	993.627	808.119
137.527	25.433	992.667	808.113
138.541	25.372	991.627	806.918
139.556	25.483	991.124	806.939
140.570	25.482	989.915	805.878
141.585	25.524	989.397	805.573
142.600	25.498	988.569	804.711
143.614	25.400	987.881	803.642
144.629	25.470	987.306	803.414
145.643	25.743	986.325	803.765
146.658	25.614	985.090	802.113
147.673	25.377	984.300	800.342
148.687	25.327	982.766	798.801
149.702	25.273	981.715	797.634
150.716	25.186	981.011	796.606
151.731	25.044	979.985	795.074
152.746	25.138	979.485	795.015
153.760	25.404	979.080	795.795
154.775	25.593	978.015	795.693
155.789	25.576	977.253	794.930
156.804	25.579	976.208	794.023
157.819	25.539	975.487	793.187
158.833	25.526	974.585	792.328
159.848	25.587	974.078	792.116
160.862	25.680	972.877	791.477
161.877	25.587	971.632	789.985
162.892	25.506	970.894	788.961
163.906	25.587	969.694	788.270
164.921	25.515	969.241	787.516
165.935	25.535	967.989	786.516
166.950	25.419	967.777	785.766
167.964	25.588	966.079	785.057
168.979	25.494	965.533	784.133
169.994	25.457	964.183	782.807
171.008	25.262	963.438	781.282
172.023	25.583	962.425	781.788
173.037	25.561	961.892	781.191
174.052	25.314	960.911	779.255
175.067	25.261	959.901	778.138
176.081	25.173	959.055	777.003
177.096	25.117	958.069	775.890
178.110	25.283	957.551	776.120
179.125	25.062	956.702	774.409
180.140	24.902	955.136	772.380
181.154	24.808	954.673	771.532
182.169	25.032	954.108	771.973
183.183	25.241	953.945	772.676
184.198	25.606	953.216	773.586
185.213	25.546	952.401	772.598
186.227	25.360	951.972	771.381
187.242	25.488	951.433	771.425
188.256	25.464	951.072	770.965
189.271	25.569	949.960	770.442
190.286	25.688	949.184	770.254
191.300	25.628	948.277	769.193
192.315	24.860	947.127	764.912
193.329	24.160	945.269	760.357
194.344	23.673	944.266	757.407
195.359	24.220	944.160	759.585
196.373	25.193	944.772	764.157
197.388	25.500	944.756	765.387
198.402	25.341	943.923	763.965
199.417	25.344	943.215	763.337
200.432	25.333	942.843	762.924
201.446	25.358	942.203	762.447
202.461	25.038	941.019	760.063
203.475	25.007	941.110	759.938
204.490	24.617	939.327	756.777
205.504	23.631	936.877	750.570
206.519	23.846	937.237	751.700
207.534	24.986	937.095	756.336
208.548	24.992	937.111	756.308
209.563	25.196	937.278	757.238
210.577	25.309	936.172	756.753
211.592	25.086	935.157	754.929
212.607	25.395	935.006	756.040
213.621	25.577	934.860	756.620
214.636	25.534	933.913	755.607
215.650	25.582	933.215	755.176
216.665	25.514	932.472	754.222
217.680	25.502	932.311	753.978
218.694	25.590	932.048	754.064
219.709	25.215	931.138	751.694
220.723	24.976	929.499	749.301
221.738	25.114	929.183	749.557
222.753	25.302	929.018	750.142
223.767	25.246	928.022	749.039
224.782	25.404	927.146	748.927
225.796	25.557	926.748	749.174
226.811	25.805	926.261	749.747
227.826	25.279	925.264	746.689
228.840	24.352	923.827	741.609
229.855	24.375	923.134	741.083
230.869	24.708	922.331	741.756
231.884	24.340	921.374	739.394
232.899	24.312	920.966	738.887
233.913	25.117	921.317	742.437
234.928	25.368	920.989	743.145
235.942	25.209	920.171	741.762
236.957	25.171	919.666	741.131
237.972	24.975	918.680	739.462
238.986	24.922	917.699	738.392
240.001	25.053	917.274	738.523
241.015	24.961	916.752	737.656
242.030	25.101	915.955	737.527
243.045	25.249	915.748	737.902
244.059	25.347	915.381	737.944
245.074	25.456	914.728	737.803
246.088	25.354	914.030	736.753
247.103	25.184	912.812	735.010
248.117	25.250	911.722	734.340
249.132	25.685	912.454	736.642
250.147	26.055	912.003	737.730
251.161	26.007	911.621	737.155
252.176	26.239	910.934	737.485
253.190	26.295	910.100	736.972
254.205	26.269	910.215	736.895
255.220	26.378	910.113	737.189
256.234	26.503	909.130	736.838
257.249	26.349	907.955	735.194
258.263	26.249	907.394	734.267
259.278	26.129	906.852	733.278
260.293	26.340	906.624	733.887
261.307	26.404	905.980	733.558
262.322	26.363	905.090	732.609
263.336	26.271	904.469	731.665
264.351	25.791	903.057	728.517
265.366	24.706	901.090	722.484
266.380	24.279	900.190	719.978
267.395	24.953	900.944	723.239
268.409	25.873	901.079	726.997
269.424	25.919	900.321	726.505
270.439	25.991	899.861	726.359
271.453	26.088	899.114	726.084
272.468	25.963	898.649	725.140
273.482	26.358	897.595	725.811
274.497	26.442	897.830	726.274
275.512	26.111	896.908	724.137
276.526	25.610	895.157	720.654
277.541	25.689	894.924	720.720
278.555	26.176	894.530	722.285
279.570	25.952	893.942	720.854
280.585	25.758	893.387	719.565
281.599	25.854	892.995	719.571
282.614	25.929	892.591	719.479
283.628	25.554	891.275	716.860
284.643	25.113	890.303	714.257
285.657	25.566	890.260	715.965
286.672	25.449	889.648	714.945
287.687	25.078	888.469	712.459
288.701	25.369	888.511	713.584
289.716	25.827	887.956	714.894
290.730	25.531	887.192	713.041
291.745	25.230	886.705	711.395
292.760	25.070	885.638	709.843
293.774	24.978	884.963	708.875
294.789	25.812	885.524	712.561
295.803	26.471	885.836	715.355
296.818	26.577	885.255	715.245
297.833	26.712	884.705	715.267
298.847	26.353	883.572	712.873
299.862	26.018	882.559	710.672
300.876	26.260	881.890	711.025
301.891	26.564	881.728	712.027
302.906	26.653	880.996	711.724
303.920	26.187	880.017	709.041
304.935	26.102	879.370	708.124
305.949	26.410	879.328	709.234
306.964	26.693	878.305	709.455
307.979	26.276	877.684	707.257
308.993	26.223	877.705	707.004
310.008	26.611	877.058	707.938
311.022	26.707	877.020	708.219
312.037	26.658	875.975	707.122
313.052	26.322	875.546	705.403
314.066	26.268	874.532	704.313
315.081	25.550	873.141	700.334
316.095	24.739	871.852	696.082
317.110	25.299	872.037	698.350
318.125	26.205	872.382	702.086
319.139	25.864	871.426	699.933
320.154	24.887	869.232	694.319
321.168	24.085	868.110	690.254
322.183	24.797	868.909	693.590
323.197	25.728	868.978	697.192
324.212	26.090	869.036	698.579
325.227	26.236	868.510	698.659
326.241	26.507	867.888	699.143
327.256	26.391	867.414	698.253
328.270	26.258	866.673	697.080
329.285	25.986	866.210	695.596
330.300	25.957	865.594	694.930
331.314	25.717	864.506	693.072
332.329	25.879	863.861	693.115
333.343	26.118	863.797	693.920
334.358	26.494	863.286	694.893
335.373	26.599	862.251	694.401
336.387	26.454	862.547	694.022
337.402	26.612	862.081	694.191
338.416	26.880	861.685	694.839
339.431	26.964	860.726	694.323
340.446	26.872	860.318	693.580
341.460	27.194	859.599	694.170
342.475	26.978	859.443	693.159
343.489	26.789	858.557	691.664
344.504	26.890	858.012	691.547
345.519	27.089	857.893	692.149
346.533	27.195	857.383	692.078
347.548	27.323	856.923	692.132
348.562	27.246	856.763	691.649
349.577	27.196	856.518	691.202
350.592	27.121	855.859	690.321
351.606	27.150	854.829	689.543
352.621	27.181	854.540	689.363
353.635	27.131	853.665	688.408
354.650	27.101	853.382	688.005
355.665	26.672	852.439	685.561
356.679	25.663	850.792	680.364
357.694	25.523	850.219	679.316
358.708	26.177	850.242	681.746
359.723	26.209	849.364	681.103
360.738	26.217	849.470	681.157
361.752	26.792	849.316	683.138
362.767	26.985	848.589	683.220
363.781	27.141	848.713	683.848
364.796	27.595	848.280	685.143
365.810	27.636	848.181	685.157
366.825	27.549	848.040	684.656
367.840	27.611	847.551	684.432
368.854	27.400	846.540	682.766
369.869	27.046	845.728	680.723
370.883	27.007	844.820	679.786
371.898	26.922	844.731	679.336
372.913	26.871	843.797	678.334
373.927	26.892	842.787	677.540
374.942	27.098	842.602	678.103
375.956	27.245	842.237	678.297
376.971	27.360	841.591	678.145
377.986	27.443	840.953	677.879
379.000	27.503	840.817	677.935
380.015	27.519	840.297	677.514
381.029	27.418	839.028	676.055
382.044	27.292	838.474	675.080
383.059	27.448	838.634	675.730
384.073	27.477	838.109	675.355
385.088	27.457	837.410	674.657
386.102	27.467	836.908	674.229
387.117	27.373	836.104	673.176
388.132	27.163	835.734	672.040
389.146	27.128	834.832	671.126
390.161	26.587	833.859	668.290
391.175	26.714	833.397	668.328
392.190	27.197	833.575	670.192
393.205	27.260	832.879	669.808
394.219	26.301	831.277	664.933
395.234	24.716	828.760	657.041
396.248	23.878	827.614	652.998
397.263	24.771	828.777	657.140
398.278	26.693	829.898	665.035
399.292	27.223	829.921	666.939
400.307	26.798	829.368	664.876
401.321	26.883	828.568	664.486
402.336	26.947	828.457	664.573
403.350	27.126	828.978	665.589
404.365	27.455	828.871	666.646
405.380	27.840	828.486	667.687
406.394	28.007	828.481	668.235
407.409	28.411	827.673	669.000
408.423	28.336	827.143	668.236
409.438	28.176	826.302	666.916
410.453	28.229	826.143	666.921
411.467	28.229	825.915	666.679
412.482	28.135	825.362	665.831
413.496	28.202	824.478	665.302
414.511	28.211	824.055	664.935
415.526	28.313	824.063	665.253
416.540	28.285	823.582	664.705
417.555	28.286	822.906	664.104
418.569	27.986	822.263	662.440
419.584	27.940	821.410	661.528
420.599	27.914	821.211	661.215
421.613	97.688	1270.477	1394.753
422.628	84.315	1335.941	1394.887
