DTS Sentinel unit serial number:	SN413079Multiplexer serial number:	ORYXHardware model number:	OX4-SRSoftware version number:	ORYX F/W v4.00 Oryx Data Collector v3.7.2.0data status	okinstallation	princeton_trtdifferential loss correction	single-endedforward channel	channel 3reverse channel	N/Adate	2019/09/16time	07:32:35forward acquisition time	60.00reverse acquisition time	0.00gamma	496.2192k internal	0.2333k external	0.2333temperature offset calibration	0.9958default loss term (dB/km)	0.3790temperature slope calibration	1.0000multiplexer offset coefficient	1.0000multiplexer slope coefficient	1.0000fibre end	0.00T internal ref (°C)	27.64T ext. ref 1 (°C)	11.64T ext. ref 2 (°C)	24.05length (m)	temperature (°C)	Stokes	anti-Stokes-747.200	-56.537	-0.180	-0.080
-746.185	83.127	-0.094	0.103
-745.171	-5.698	-0.114	0.079
-744.156	-113.629	0.062	0.012
-743.142	-200.000	-0.024	0.125
-742.127	800.000	-0.032	-0.127
-741.112	-200.000	0.036	0.246
-740.098	-73.689	0.110	-0.040
-739.083	60.253	0.144	-0.143
-738.069	727.112	-0.118	0.317
-737.054	-79.943	-0.279	0.094
-736.039	-78.473	-0.338	0.117
-735.025	800.000	0.041	0.131
-734.010	-97.262	-0.209	-0.055
-732.996	681.869	0.052	-0.136
-731.981	-86.163	-0.290	0.090
-730.966	50.732	-0.042	0.040
-729.952	-11.221	0.348	-0.231
-728.937	-120.865	-0.141	-0.024
-727.923	-31.092	-0.225	-0.128
-726.908	-5.545	-0.119	0.082
-725.894	-188.633	-0.404	-0.005
-724.879	-200.000	-0.063	0.293
-723.864	-40.360	0.268	0.140
-722.850	-83.344	-0.199	0.064
-721.835	16.367	-0.134	0.106
-720.821	-84.980	0.275	-0.087
-719.806	39.015	0.110	-0.099
-718.791	-41.952	-0.180	0.092
-717.777	800.000	-0.095	-0.340
-716.762	800.000	-0.069	-0.256
-715.748	77.416	-0.288	-0.308
-714.733	-19.472	0.305	-0.190
-713.718	-94.832	0.072	0.020
-712.704	-200.000	0.045	-0.231
-711.689	21.313	-0.233	-0.190
-710.675	-164.253	0.247	-0.011
-709.660	-75.795	0.135	0.048
-708.645	-200.000	-0.068	0.476
-707.631	-60.061	0.200	0.086
-706.616	38.047	0.148	-0.132
-705.602	9.725	-0.137	-0.104
-704.587	-163.159	-0.212	0.010
-703.572	27.762	0.099	-0.084
-702.558	62.218	-0.079	-0.079
-701.543	650.542	-0.069	0.178
-700.529	800.000	-0.079	-0.293
-699.514	-68.986	0.108	0.042
-698.499	-191.230	0.248	0.003
-697.485	-54.297	-0.392	-0.179
-696.470	31.434	-0.109	0.094
-695.456	800.000	-0.090	-0.314
-694.441	8.495	-0.308	0.232
-693.426	-43.295	-0.164	-0.083
-692.412	32.681	-0.231	-0.200
-691.397	2.512	-0.275	-0.200
-690.383	-46.154	-0.153	-0.076
-689.368	205.888	0.148	0.231
-688.354	-18.575	0.014	0.009
-687.339	116.849	0.085	0.105
-686.324	142.159	0.043	0.057
-685.310	-125.993	-0.167	-0.025
-684.295	-48.621	-0.065	0.031
-683.281	-62.962	0.030	-0.013
-682.266	-155.922	-0.305	0.019
-681.251	-33.742	-0.070	-0.039
-680.237	-38.873	0.138	0.073
-679.222	-93.297	-0.051	-0.014
-678.208	23.717	-0.134	0.110
-677.193	-151.656	0.237	0.018
-676.178	-13.979	-0.110	0.071
-675.164	44.649	0.124	0.115
-674.149	800.000	0.109	-0.386
-673.135	671.996	0.021	-0.055
-672.120	-81.842	0.235	0.077
-671.105	589.078	0.052	0.128
-670.091	36.527	-0.051	0.045
-669.076	524.669	-0.033	-0.078
-668.062	-200.000	-0.014	-0.227
-667.047	45.786	-0.190	0.176
-666.032	-67.877	-0.056	-0.022
-665.018	-101.263	0.216	0.053
-664.003	-81.753	-0.088	0.029
-662.989	552.559	0.086	-0.208
-661.974	-2.326	-0.115	-0.081
-660.959	-164.552	-0.464	0.021
-659.945	-120.096	-0.519	0.089
-658.930	-67.175	-0.171	0.067
-657.916	-200.000	0.101	0.521
-656.901	82.722	-0.112	-0.122
-655.886	-124.393	-0.245	-0.038
-654.872	-200.000	-0.041	-0.228
-653.857	-176.624	-0.082	0.002
-652.843	321.327	0.066	0.125
-651.828	-60.430	-0.184	0.078
-650.814	800.000	0.122	-0.408
-649.799	-137.378	-0.226	-0.026
-648.784	-172.046	0.152	0.005
-647.770	228.791	-0.084	0.138
-646.755	-17.122	-0.216	0.136
-645.741	232.790	-0.163	-0.268
-644.726	28.827	-0.214	0.182
-643.711	-200.000	0.050	0.289
-642.697	46.852	0.179	0.167
-641.682	115.610	-0.242	-0.297
-640.668	464.153	0.171	-0.382
-639.653	-113.098	0.227	0.045
-638.638	-147.265	0.082	-0.007
-637.624	15.932	0.043	0.034
-636.609	-200.000	-0.024	0.265
-635.595	-147.611	0.485	0.041
-634.580	-98.846	0.099	0.025
-633.565	-200.000	0.018	0.156
-632.551	800.000	0.074	0.278
-631.536	-200.000	-0.001	0.007
-630.522	-200.000	-0.059	-0.351
-629.507	-46.501	0.210	0.103
-628.492	595.591	0.076	-0.188
-627.478	-112.007	-0.056	-0.011
-626.463	125.614	0.108	-0.136
-625.449	800.000	-0.064	0.262
-624.434	121.404	-0.117	0.146
-623.419	151.008	-0.131	-0.178
-622.405	800.000	0.129	-0.424
-621.390	-83.801	-0.313	0.100
-620.376	-200.000	-0.033	0.289
-619.361	-200.000	0.040	0.279
-618.346	-200.000	0.023	0.245
-617.332	261.779	0.217	-0.377
-616.317	38.540	0.079	-0.071
-615.303	-31.988	0.314	-0.176
-614.288	565.226	0.108	0.261
-613.273	38.192	-0.066	0.059
-612.259	-200.000	-0.055	-0.318
-611.244	-45.027	0.167	0.083
-610.230	800.000	-0.039	-0.115
-609.215	15.381	0.179	0.141
-608.201	-72.513	-0.071	0.026
-607.186	25.085	-0.233	0.193
-606.171	-200.000	0.030	-0.328
-605.157	-161.881	-0.134	-0.007
-604.142	88.738	0.227	-0.252
-603.128	-104.081	0.224	-0.052
-602.113	-26.067	-0.158	-0.093
-601.098	-176.505	0.271	0.007
-600.084	-10.352	-0.133	-0.088
-599.069	-105.213	-0.431	0.098
-598.055	12.442	-0.182	0.140
-597.040	-200.000	0.014	-0.173
-596.025	59.104	0.132	0.130
-595.011	-79.378	0.328	-0.111
-593.996	145.175	0.256	0.342
-592.982	-175.259	-0.023	0.001
-591.967	-17.620	0.206	0.130
-590.952	-9.149	-0.149	0.100
-589.938	-200.000	-0.013	-0.239
-588.923	-69.013	-0.108	0.042
-587.909	-64.655	0.340	0.138
-586.894	345.082	0.091	0.179
-585.879	517.093	0.025	-0.058
-584.865	-130.425	-0.222	0.030
-583.850	536.920	0.078	0.186
-582.836	800.000	0.064	0.266
-581.821	251.632	0.097	0.165
-580.806	800.000	0.045	0.173
-579.792	-36.129	0.163	0.088
-578.777	-22.250	0.100	0.060
-577.763	26.376	0.050	0.042
-576.748	296.100	-0.036	-0.066
-575.733	-200.000	-0.082	-0.620
-574.719	-200.000	0.282	0.000
-573.704	-53.754	0.160	0.073
-572.690	-29.629	0.166	-0.095
-571.675	237.930	0.081	0.135
-570.661	-77.632	0.124	0.043
-569.646	-51.373	0.057	0.026
-568.631	-169.702	0.316	-0.011
-567.617	405.056	0.090	0.190
-566.602	-200.000	-0.026	-0.186
-565.588	-90.608	-0.182	-0.053
-564.573	-81.741	-0.071	-0.023
-563.558	-127.008	0.278	-0.041
-562.544	28.778	-0.153	-0.129
-561.529	800.000	-0.063	-0.225
-560.515	-200.000	-0.009	-0.154
-559.500	-158.402	-0.143	-0.008
-558.485	800.000	0.037	-0.114
-557.471	-192.947	-0.310	-0.003
-556.456	71.871	0.191	0.198
-555.442	39.416	0.188	0.168
-554.427	-24.141	-0.091	0.054
-553.412	71.981	0.040	-0.041
-552.398	-147.489	0.141	0.012
-551.383	1.249	0.109	-0.078
-550.369	248.212	0.032	-0.053
-549.354	46.999	0.125	0.116
-548.339	-200.000	-0.011	-0.189
-547.325	153.319	0.045	-0.061
-546.310	75.739	0.095	-0.100
-545.296	145.757	0.104	-0.138
-544.281	183.147	-0.081	-0.120
-543.266	26.053	0.293	-0.244
-542.252	56.809	0.052	0.051
-541.237	800.000	-0.097	0.346
-540.223	800.000	-0.057	0.158
-539.208	-200.000	-0.001	-0.048
-538.193	7.424	-0.454	-0.339
-537.179	-200.000	0.026	-0.492
-536.164	-189.067	-0.134	-0.002
-535.150	-200.000	0.007	-0.139
-534.135	105.113	-0.090	-0.107
-533.121	-170.532	0.206	0.007
-532.106	76.113	0.152	-0.160
-531.091	165.102	-0.208	-0.293
-530.077	-37.936	-0.204	0.108
-529.062	-84.813	0.035	0.011
-528.048	78.731	0.236	-0.251
-527.033	122.383	-0.082	0.102
-526.018	304.393	0.057	0.105
-525.004	-200.000	0.010	0.145
-523.989	599.838	-0.063	-0.156
-522.975	-143.321	-0.243	-0.023
-521.960	208.524	-0.085	0.133
-520.945	-200.000	0.042	0.246
-519.931	-200.000	-0.011	0.064
-518.916	122.823	-0.266	0.332
-517.902	33.437	-0.092	-0.079
-516.887	-87.052	-0.343	0.104
-515.872	-200.000	0.012	-0.153
-514.858	800.000	0.103	0.414
-513.843	-200.000	0.003	0.199
-512.829	502.078	0.089	-0.205
-511.814	-200.000	0.040	-0.221
-510.799	-136.284	0.255	0.030
-509.785	245.798	-0.208	-0.350
-508.770	-89.788	0.248	-0.072
-507.756	71.423	-0.186	-0.192
-506.741	-19.023	-0.094	-0.058
-505.726	81.404	-0.162	-0.174
-504.712	800.000	-0.082	-0.269
-503.697	800.000	-0.020	-0.085
-502.683	800.000	-0.057	-0.156
-501.668	-17.614	-0.197	0.124
-500.653	16.810	-0.206	-0.162
-499.639	176.100	0.095	0.138
-498.624	-140.823	-0.328	0.034
-497.610	-200.000	0.053	0.305
-496.595	-55.468	-0.112	-0.050
-495.581	213.739	-0.005	0.007
-494.566	-26.088	-0.208	-0.122
-493.551	173.508	0.131	-0.188
-492.537	5.962	-0.036	-0.027
-491.522	379.669	-0.122	-0.249
-490.508	-102.555	0.079	0.019
-489.493	-200.000	-0.010	0.146
-488.478	-19.768	-0.323	-0.199
-487.464	78.744	-0.165	0.176
-486.449	232.754	0.110	-0.181
-485.435	-31.222	0.193	-0.108
-484.420	687.974	-0.048	0.126
-483.405	-0.913	0.065	0.046
-482.391	303.991	0.093	-0.171
-481.376	213.746	0.090	0.142
-480.362	-135.247	-0.141	-0.017
-479.347	30.267	0.173	-0.147
-478.332	-136.804	-0.174	0.020
-477.318	800.000	0.060	0.172
-476.303	-168.100	-0.244	-0.009
-475.289	708.912	-0.156	-0.410
-474.274	15.153	-0.550	-0.429
-473.259	27.910	-0.203	-0.170
-472.245	800.000	-0.134	0.381
-471.230	-104.076	0.249	0.058
-470.216	29.603	-0.160	0.135
-469.201	-200.000	-0.028	0.147
-468.186	206.418	0.102	0.157
-467.172	-76.698	-0.293	-0.102
-466.157	213.586	0.140	-0.221
-465.143	-200.000	-0.036	0.314
-464.128	305.274	-0.077	-0.143
-463.113	787.941	-0.060	0.163
-462.099	358.400	-0.056	-0.112
-461.084	6.566	0.136	-0.100
-460.070	110.570	0.132	0.157
-459.055	-120.233	-0.087	-0.015
-458.040	123.854	0.140	0.175
-457.026	15.270	0.060	-0.046
-456.011	-200.000	-0.025	-0.309
-454.997	-159.370	0.374	0.021
-453.982	-11.455	-0.219	-0.143
-452.968	303.779	0.121	0.224
-451.953	-77.014	0.293	0.102
-450.938	-15.582	0.204	-0.129
-449.924	-167.935	-0.292	-0.011
-448.909	800.000	0.051	-0.212
-447.895	-200.000	0.039	-0.430
-446.880	164.110	-0.210	0.294
-445.865	-16.370	0.209	-0.132
-444.851	296.267	0.074	0.135
-443.836	332.185	0.110	-0.210
-442.822	800.000	-0.103	-0.289
-441.807	740.548	0.117	-0.312
-440.792	315.913	-0.151	0.282
-439.778	-29.787	-0.263	-0.149
-438.763	22.245	0.301	0.244
-437.749	-200.000	-0.040	0.254
-436.734	180.968	0.110	-0.161
-435.719	-200.000	0.021	0.124
-434.705	96.208	0.131	0.149
-433.690	-9.894	-0.300	-0.198
-432.676	-182.845	0.242	0.004
-431.661	109.404	0.164	-0.195
-430.646	6.299	0.331	0.244
-429.632	20.467	-0.184	-0.147
-428.617	-200.000	0.003	-0.101
-427.603	84.501	-0.127	-0.138
-426.588	-72.211	-0.263	0.097
-425.573	-8.017	-0.110	0.073
-424.559	-200.000	0.002	0.032
-423.544	800.000	-0.056	0.155
-422.530	800.000	0.071	-0.299
-421.515	-55.975	0.265	0.117
-420.500	189.154	0.153	0.227
-419.486	24.980	0.169	-0.139
-418.471	800.000	-0.110	-0.403
-417.457	-129.675	-0.322	0.044
-416.442	276.416	0.090	0.159
-415.428	-93.922	0.329	-0.090
-414.413	800.000	0.042	-0.125
-413.398	148.783	-0.143	-0.191
-412.384	-135.884	-0.146	0.017
-411.369	106.997	-0.170	0.200
-410.355	-95.892	-0.374	-0.099
-409.340	-200.000	-0.017	-0.200
-408.325	417.827	0.189	-0.400
-407.311	-41.935	-0.080	-0.040
-406.296	106.414	-0.178	0.209
-405.282	-177.355	-0.163	-0.004
-404.267	-34.027	0.077	-0.042
-403.252	-67.298	0.147	0.057
-402.238	324.019	-0.115	-0.217
-401.223	-44.753	0.240	-0.119
-400.209	-99.647	-0.129	-0.032
-399.194	-123.730	0.150	0.023
-398.179	-4.993	0.109	0.074
-397.165	-63.467	-0.057	0.023
-396.150	-200.000	0.014	-0.302
-395.136	135.331	0.170	0.220
-394.121	-4.120	-0.137	0.094
-393.106	-143.232	0.187	0.018
-392.092	640.368	0.066	0.166
-391.077	800.000	-0.008	0.029
-390.063	-55.422	0.102	-0.045
-389.048	800.000	0.089	-0.251
-388.033	314.036	-0.094	0.175
-387.019	800.000	-0.106	0.312
-386.004	141.012	-0.035	0.046
-384.990	-145.981	0.186	0.016
-383.975	-200.000	0.002	-0.021
-382.960	-9.616	0.351	0.232
-381.946	-18.836	0.138	-0.085
-380.931	-151.130	0.151	-0.011
-379.917	-200.000	-0.042	0.207
-378.902	-200.000	0.039	-0.253
-377.888	-200.000	-0.001	-0.082
-376.873	800.000	-0.119	0.433
-375.858	-200.000	0.021	0.310
-374.844	-200.000	0.007	0.122
-373.829	53.641	-0.329	-0.313
-372.815	-14.611	-0.212	0.135
-371.800	800.000	0.016	0.054
-370.785	-200.000	-0.014	0.166
-369.771	800.000	0.040	-0.153
-368.756	-2.131	-0.080	-0.056
-367.742	-60.712	-0.076	-0.032
-366.727	-165.477	-0.150	-0.007
-365.712	50.362	0.171	-0.160
-364.698	-200.000	-0.010	0.256
-363.683	111.163	-0.195	-0.232
-362.669	176.128	-0.105	0.151
-361.654	-112.892	0.246	-0.048
-360.639	81.592	-0.105	0.113
-359.625	375.989	-0.095	0.193
-358.610	800.000	0.062	0.190
-357.596	-113.696	0.179	-0.035
-356.581	-200.000	0.036	0.167
-355.566	149.448	0.180	-0.242
-354.552	215.110	0.051	-0.079
-353.537	281.892	0.059	0.105
-352.523	-8.077	0.283	-0.189
-351.508	51.887	0.174	-0.164
-350.493	-132.248	0.087	-0.011
-349.479	-200.000	-0.089	0.473
-348.464	-50.301	-0.116	0.054
-347.450	-50.142	-0.165	-0.077
-346.435	737.206	0.101	0.268
-345.420	-67.409	-0.243	0.094
-344.406	-84.165	0.138	0.043
-343.391	117.255	-0.019	-0.023
-342.377	-65.086	0.332	-0.133
-341.362	81.012	0.292	-0.312
-340.348	-79.565	-0.239	0.080
-339.333	711.948	0.089	0.233
-338.318	89.595	0.261	0.289
-337.304	-5.900	-0.241	0.163
-336.289	76.502	0.325	-0.341
-335.275	-110.707	0.093	0.019
-334.260	-30.474	0.119	0.067
-333.245	415.127	0.070	0.147
-332.231	71.484	0.225	0.232
-331.216	153.397	-0.063	0.085
-330.202	-116.688	-0.114	0.021
-329.187	-20.679	-0.321	-0.195
-328.172	-200.000	-0.029	0.301
-327.158	174.679	0.085	-0.122
-326.143	-147.809	-0.158	-0.013
-325.129	123.890	-0.118	-0.147
-324.114	202.948	-0.125	-0.191
-323.099	42.507	0.058	0.052
-322.085	370.205	-0.173	-0.346
-321.070	48.709	0.211	0.195
-320.056	-200.000	-0.013	0.370
-319.041	800.000	0.048	0.192
-318.026	355.317	-0.031	0.061
-317.012	-89.545	-0.110	0.032
-315.997	-200.000	0.002	0.327
-314.983	496.295	0.079	-0.180
-313.968	241.702	-0.127	0.210
-312.953	533.476	0.090	0.210
-311.939	90.089	0.242	-0.267
-310.924	800.000	-0.010	-0.040
-309.910	82.609	0.245	0.263
-308.895	800.000	-0.119	-0.431
-307.880	45.547	-0.074	0.067
-306.866	-100.918	-0.238	-0.058
-305.851	-200.000	-0.044	0.191
-304.837	731.484	0.041	-0.108
-303.822	-200.000	0.009	-0.159
-302.807	215.391	0.116	-0.182
-301.793	-28.758	-0.061	-0.035
-300.778	445.150	-0.163	0.355
-299.764	40.568	-0.180	-0.160
-298.749	313.597	-0.054	0.101
-297.735	-5.029	0.190	-0.129
-296.720	-17.920	-0.089	-0.055
-295.705	-200.000	-0.023	0.129
-294.691	800.000	-0.066	-0.182
-293.676	-66.597	-0.127	0.050
-292.662	129.101	0.119	-0.150
-291.647	53.705	0.022	-0.021
-290.632	174.542	0.136	0.194
-289.618	-68.729	0.276	-0.105
-288.603	800.000	0.175	0.482
-287.589	-200.000	-0.035	0.159
-286.574	-93.229	0.143	-0.039
-285.559	-109.517	0.272	-0.057
-284.545	25.239	-0.213	-0.175
-283.530	-200.000	0.049	-0.237
-282.516	15.991	-0.133	0.104
-281.501	800.000	0.044	0.167
-280.486	800.000	-0.069	-0.222
-279.472	-200.000	0.046	0.315
-278.457	-200.000	0.015	0.066
-277.443	769.520	-0.052	-0.139
-276.428	-154.711	0.039	0.003
-275.413	-20.492	0.143	0.087
-274.399	-200.000	0.066	0.376
-273.384	-200.000	0.002	-0.014
-272.370	-200.000	0.027	0.190
-271.355	68.876	0.115	0.117
-270.340	-200.000	-0.024	0.124
-269.326	800.000	-0.131	-0.447
-268.311	-200.000	-0.020	-0.108
-267.297	162.763	-0.036	-0.049
-266.282	-200.000	-0.008	0.214
-265.267	7.139	-0.291	-0.214
-264.253	-168.064	-0.181	-0.007
-263.238	-29.880	-0.190	-0.107
-262.224	46.373	0.024	0.022
-261.209	800.000	-0.026	0.103
-260.195	10.295	-0.141	0.106
-259.180	-72.652	0.201	-0.073
-258.165	92.363	-0.151	-0.168
-257.151	-10.288	0.051	0.033
-256.136	505.837	0.022	-0.049
-255.122	190.792	-0.084	-0.125
-254.107	57.929	0.105	-0.101
-253.092	-200.000	0.009	0.264
-252.078	-37.168	0.241	0.127
-251.063	43.776	0.101	-0.091
-250.049	800.000	0.068	0.220
-249.034	-125.490	-0.073	0.011
-248.019	-105.526	-0.149	0.033
-247.005	-200.000	-0.003	0.019
-245.990	628.293	0.049	0.122
-244.976	-200.000	0.020	-0.097
-243.961	260.068	-0.104	-0.177
-242.946	-78.639	-0.094	-0.032
-241.932	-30.773	-0.338	-0.188
-240.917	10.802	0.089	0.067
-239.903	97.814	-0.100	-0.113
-238.888	-64.835	-0.294	-0.117
-237.873	-200.000	-0.012	-0.127
-236.859	-64.847	-0.246	0.098
-235.844	24.175	-0.253	0.206
-234.830	395.246	-0.192	0.394
-233.815	83.538	0.200	-0.215
-232.800	-200.000	-0.053	-0.350
-231.786	-43.454	0.098	0.049
-230.771	-60.300	0.162	0.068
-229.757	-77.257	-0.168	0.058
-228.742	136.514	0.240	0.309
-227.727	454.657	-0.045	0.098
-226.713	-200.000	0.095	0.434
-225.698	-180.387	0.363	0.007
-224.684	-200.000	-0.014	-0.359
-223.669	-200.000	0.018	0.212
-222.655	-200.000	-0.035	-0.282
-221.640	-122.026	-0.180	-0.029
-220.625	-200.000	-0.051	0.251
-219.611	377.690	-0.133	0.268
-218.596	800.000	-0.062	0.191
-217.582	-178.848	0.253	0.006
-216.567	-55.166	0.069	-0.031
-215.552	16.071	0.460	-0.357
-214.538	800.000	0.051	-0.197
-213.523	10.066	0.119	-0.089
-212.509	-200.000	0.014	-0.238
-211.494	133.623	-0.093	0.118
-210.479	800.000	0.068	-0.221
-209.465	-21.196	-0.434	0.261
-208.450	338.445	-0.150	0.287
-207.436	-200.000	-0.001	0.155
-206.421	21.275	-0.572	-0.457
-205.406	102.411	0.250	-0.288
-204.392	-53.214	-0.400	0.181
-203.377	374.152	-0.108	-0.216
-202.363	-108.977	0.067	-0.014
-201.348	-26.758	-0.135	-0.078
-200.333	-65.162	0.259	0.103
-199.319	-2.735	0.232	-0.160
-198.304	800.000	0.134	-0.419
-197.290	800.000	-0.012	0.039
-196.275	-177.465	-0.106	0.003
-195.260	141.467	-0.224	0.292
-194.246	-74.800	0.015	-0.005
-193.231	122.641	-0.289	-0.356
-192.217	96.698	-0.051	0.057
-191.202	16.106	-0.034	0.026
-190.187	800.000	-0.049	0.149
-189.173	227.466	-0.208	0.333
-188.158	-178.094	0.222	-0.005
-187.144	560.487	0.126	-0.301
-186.129	402.079	0.135	0.278
-185.114	-200.000	0.014	-0.259
-184.100	105.612	-0.099	-0.115
-183.085	27.949	0.255	-0.212
-182.071	24.122	-0.128	0.104
-181.056	800.000	-0.082	0.256
-180.042	-18.507	0.204	-0.126
-179.027	-200.000	-0.020	-0.122
-178.012	-200.000	-0.013	-0.106
-176.998	25.956	-0.048	0.039
-175.983	582.535	-0.082	0.198
-174.969	8.062	0.065	-0.048
-173.954	177.709	-0.282	0.405
-172.939	800.000	-0.104	-0.308
-171.925	-200.000	0.012	0.155
-170.910	-21.074	0.248	0.149
-169.896	631.212	0.053	-0.132
-168.881	150.416	0.085	0.114
-167.866	-200.000	-0.055	0.409
-166.852	222.583	0.136	0.216
-165.837	-41.127	0.070	-0.036
-164.823	-58.831	0.030	-0.013
-163.808	-100.660	-0.203	0.049
-162.793	800.000	-0.048	-0.182
-161.779	-159.295	-0.306	-0.017
-160.764	800.000	-0.088	0.281
-159.750	97.638	0.161	-0.181
-158.735	31.777	-0.155	-0.131
-157.720	-200.000	0.037	-0.353
-156.706	-200.000	-0.043	0.519
-155.691	-200.000	0.004	0.356
-154.677	83.694	-0.040	0.043
-153.662	-55.137	0.222	0.098
-152.647	-56.105	-0.130	0.057
-151.633	41.443	-0.214	-0.190
-150.618	800.000	0.046	0.172
-149.604	800.000	-0.056	-0.214
-148.589	-29.010	0.121	-0.068
-147.574	631.164	0.066	-0.165
-146.560	-200.000	0.006	0.262
-145.545	-200.000	-0.050	0.220
-144.531	523.131	-0.091	-0.210
-143.516	367.162	-0.076	0.151
-142.502	30.282	-0.045	0.038
-141.487	-200.000	0.005	0.291
-140.472	105.313	-0.311	-0.361
-139.458	516.274	0.071	-0.164
-138.443	523.560	-0.173	0.398
-137.429	29.517	0.345	0.288
-136.414	68.635	0.161	0.162
-135.399	-107.141	-0.248	0.054
-134.385	538.422	0.126	0.295
-133.370	800.000	0.006	-0.018
-132.356	-200.000	0.003	0.081
-131.341	-200.000	0.163	0.000
-130.326	-200.000	0.000	-0.311
-129.312	-200.000	-0.022	-0.235
-128.297	303.973	0.113	0.205
-127.283	-200.000	0.013	-0.147
-126.268	451.788	-0.097	0.210
-125.253	-59.673	-0.214	-0.090
-124.239	-166.354	0.179	-0.007
-123.224	-135.611	0.064	0.007
-122.210	383.318	0.096	-0.194
-121.195	-153.354	-0.194	0.013
-120.180	368.128	0.308	-0.611
-119.166	321.966	-0.115	0.215
-118.151	-21.743	0.174	0.104
-117.137	-200.000	0.034	0.286
-116.122	-18.100	-0.407	0.250
-115.107	-158.760	0.219	-0.012
-114.093	111.235	0.008	0.010
-113.078	22.796	0.412	0.332
-112.064	25.723	0.249	0.203
-111.049	-200.000	-0.020	0.217
-110.034	-142.169	0.235	0.023
-109.020	366.856	-0.136	0.269
-108.005	303.030	0.142	0.257
-106.991	273.540	-0.108	0.187
-105.976	-30.926	0.280	0.155
-104.962	-17.518	0.121	-0.074
-103.947	130.630	-0.145	-0.183
-102.932	110.272	0.140	0.165
-101.918	-32.563	0.185	-0.101
-100.903	292.471	-0.180	0.321
-99.889	-148.215	0.134	0.011
-98.874	459.555	-0.083	-0.181
-97.859	-124.483	0.288	0.044
-96.845	88.818	-0.122	-0.133
-95.830	-86.442	-0.130	0.039
-94.816	-1.736	0.225	-0.155
-93.801	7.525	-0.078	-0.057
-92.786	292.726	0.066	0.118
-91.772	318.951	-0.013	-0.025
-90.757	22.443	-0.197	0.158
-89.743	783.464	0.012	0.032
-88.728	800.000	0.022	0.082
-87.713	-200.000	-0.003	-0.183
-86.699	132.862	-0.150	-0.189
-85.684	253.806	0.105	0.176
-84.670	-74.917	0.261	0.092
-83.655	89.892	0.246	-0.269
-82.640	-130.004	0.296	-0.040
-81.626	209.074	-0.222	0.341
-80.611	-126.269	-0.392	0.057
-79.597	-200.000	0.008	-0.331
-78.582	-200.000	0.029	0.140
-77.567	-200.000	0.055	-0.251
-76.553	-37.144	-0.106	0.056
-75.538	800.000	0.049	0.200
-74.524	26.877	0.173	0.142
-73.509	425.214	-0.033	-0.069
-72.494	93.235	0.296	0.327
-71.480	-17.417	0.238	-0.147
-70.465	4.545	0.190	0.136
-69.451	209.936	-0.038	0.059
-68.436	-75.824	-0.237	0.082
-67.422	-66.398	-0.096	0.037
-66.407	102.739	-0.204	0.234
-65.392	-200.000	-0.007	0.197
-64.378	-200.000	-0.023	-0.280
-63.363	-64.962	0.091	-0.036
-62.349	800.000	0.018	0.055
-61.334	58.347	-0.936	-0.899
-60.319	20.277	0.482	0.381
-59.305	-200.000	-0.088	-1.333
-58.290	262.042	0.764	1.296
-57.276	800.000	0.653	1.784
-56.261	-200.000	111.891	630.873
-55.246	465.536	1509.470	3307.084
-54.232	146.905	2678.140	3524.823
-53.217	104.208	2181.215	2511.514
-52.203	38.228	1710.491	1490.490
-51.188	30.712	1528.311	1280.216
-50.173	28.455	1504.123	1244.604
-49.159	51.428	1560.558	1450.717
-48.144	50.808	1576.645	1461.330
-47.130	30.933	1533.208	1285.642
-46.115	27.915	1518.394	1252.507
-45.100	27.628	1515.122	1247.801
-44.086	27.642	1513.553	1246.552
-43.071	27.615	1511.203	1244.383
-42.057	27.712	1509.348	1243.471
-41.042	27.665	1507.798	1241.819
-40.027	27.663	1506.706	1240.862
-39.013	27.576	1505.340	1239.093
-37.998	27.619	1503.920	1238.165
-36.984	27.589	1502.833	1237.021
-35.969	27.600	1501.625	1236.050
-34.954	27.701	1499.532	1234.961
-33.940	27.659	1498.780	1234.010
-32.925	27.711	1497.220	1233.030
-31.911	27.683	1495.849	1231.660
-30.896	27.640	1494.755	1230.419
-29.881	27.648	1493.239	1229.182
-28.867	27.719	1492.432	1228.944
-27.852	27.726	1490.426	1227.293
-26.838	27.643	1489.525	1225.941
-25.823	27.674	1487.835	1224.711
-24.809	27.626	1486.125	1222.935
-23.794	27.645	1485.248	1222.287
-22.779	27.735	1483.604	1221.491
-21.765	27.669	1482.720	1220.274
-20.750	27.706	1481.725	1219.650
-19.736	27.679	1480.836	1218.690
-18.721	27.630	1479.194	1216.966
-17.706	27.679	1477.941	1216.210
-16.692	27.672	1477.450	1215.714
-15.677	27.603	1476.505	1214.430
-14.663	27.650	1475.304	1213.703
-13.648	27.648	1474.277	1212.798
-12.633	27.651	1473.228	1211.910
-11.619	27.687	1472.493	1211.495
-10.604	27.615	1471.461	1210.122
-9.590	27.566	1470.924	1209.306
-8.575	27.610	1470.035	1208.816
-7.560	27.576	1469.278	1207.921
-6.546	27.567	1468.465	1207.147
-5.531	27.613	1467.262	1206.412
-4.517	27.622	1466.265	1205.602
-3.502	27.628	1465.197	1204.720
-2.487	27.562	1464.319	1203.515
-1.473	27.597	1463.376	1202.918
-0.458	27.671	1461.560	1201.867
0.556	26.304	1452.537	1192.279
1.571	23.772	1428.119	1155.689
2.586	20.795	1367.895	1088.279
3.600	19.484	1285.107	1014.622
4.615	18.409	1239.809	972.668
5.629	17.640	1186.467	926.561
6.644	14.707	1110.131	851.927
7.659	12.117	1075.520	812.478
8.673	11.740	1070.506	806.755
9.688	11.674	1067.186	803.862
10.702	11.608	1065.538	802.222
11.717	11.528	1063.619	800.317
12.731	12.855	1063.258	806.471
13.746	15.874	1066.720	823.818
14.761	17.828	1069.200	835.238
15.775	18.010	1068.336	835.379
16.790	17.206	1066.405	829.866
17.804	16.039	1064.119	822.326
18.819	15.169	1062.365	816.656
19.834	14.565	1060.881	812.501
20.848	14.307	1059.789	810.341
21.863	14.061	1058.977	808.451
22.877	13.877	1058.089	806.808
23.892	13.710	1057.304	805.328
24.907	13.649	1056.325	804.211
25.921	13.562	1055.784	803.309
26.936	13.602	1055.219	803.001
27.950	13.651	1054.149	802.351
28.965	13.573	1053.052	801.070
29.980	13.838	1051.115	800.805
30.994	13.645	1050.796	799.561
32.009	13.894	1049.482	799.689
33.023	13.827	1048.557	798.592
34.038	13.785	1047.722	797.680
35.053	13.751	1046.762	796.715
36.067	13.690	1046.222	795.942
37.082	13.708	1044.926	794.974
38.096	13.759	1044.065	794.492
39.111	13.853	1043.385	794.356
40.126	13.940	1042.220	793.813
41.140	13.773	1041.528	792.416
42.155	13.577	1040.386	790.544
43.169	13.484	1039.497	789.352
44.184	13.526	1038.456	788.693
45.199	13.370	1037.593	787.228
46.213	13.499	1036.486	786.931
47.228	13.520	1035.638	786.317
48.242	13.663	1034.378	785.969
49.257	13.736	1033.356	785.469
50.271	13.676	1032.699	784.617
51.286	13.685	1031.432	783.625
52.301	13.759	1030.606	783.278
53.315	13.721	1029.788	782.407
54.330	13.731	1028.765	781.609
55.344	13.542	1028.133	780.171
56.359	13.607	1027.049	779.584
57.374	13.635	1026.426	779.175
58.388	13.642	1025.424	778.375
59.403	13.484	1025.164	777.370
60.417	13.437	1024.071	776.250
61.432	13.499	1023.440	775.992
62.447	13.521	1022.116	775.026
63.461	13.505	1021.272	774.240
64.476	13.444	1020.393	773.223
65.490	13.540	1019.178	772.681
66.505	13.506	1018.647	772.053
67.520	13.465	1018.334	771.552
68.534	13.464	1017.574	770.906
69.549	13.543	1016.574	770.448
70.563	13.646	1015.726	770.216
71.578	13.396	1015.541	768.845
72.593	13.489	1014.348	768.304
73.607	13.555	1012.904	767.450
74.622	13.464	1012.205	766.432
75.636	13.374	1011.237	765.212
76.651	13.374	1011.225	765.135
77.666	13.253	1010.334	763.838
78.680	13.382	1009.066	763.406
79.695	13.359	1008.789	763.020
80.709	13.475	1008.209	763.049
81.724	13.496	1007.175	762.296
82.739	13.503	1006.386	761.664
83.753	13.551	1005.683	761.287
84.768	13.623	1004.961	761.004
85.782	13.720	1004.095	760.724
86.797	13.829	1003.123	760.421
87.812	13.726	1002.503	759.412
88.826	13.614	1001.804	758.300
89.841	13.739	1000.731	757.993
90.855	13.717	1000.018	757.285
91.870	13.723	999.397	756.778
92.884	13.686	998.463	755.835
93.899	13.774	997.366	755.335
94.914	13.775	996.963	754.967
95.928	13.912	995.909	754.726
96.943	13.914	995.388	754.275
97.957	13.833	994.558	753.210
98.972	13.689	993.835	751.946
99.987	13.692	993.095	751.331
101.001	13.788	992.242	751.055
102.016	13.857	991.473	750.716
103.030	13.808	990.263	749.515
104.045	13.700	989.683	748.521
105.060	13.935	987.983	748.229
106.074	13.782	987.378	747.013
107.089	13.703	986.708	746.087
108.103	13.477	986.317	744.708
109.118	13.624	984.991	744.300
110.133	13.663	983.759	743.480
111.147	13.548	983.573	742.759
112.162	13.498	982.757	741.851
113.176	13.555	981.880	741.377
114.191	13.658	980.801	740.959
115.206	13.713	979.853	740.422
116.220	13.662	979.260	739.682
117.235	13.567	978.591	738.689
118.249	13.589	977.467	737.871
119.264	13.525	976.333	736.666
120.279	13.667	975.306	736.455
121.293	13.503	975.280	735.643
122.308	13.557	974.304	735.081
123.322	13.523	973.378	734.168
124.337	13.485	972.447	733.233
125.352	13.397	970.964	731.658
126.366	13.606	969.655	731.531
127.381	13.516	969.298	730.801
128.395	13.678	967.484	730.083
129.410	13.639	966.765	729.303
130.424	13.602	965.976	728.482
131.439	13.528	965.526	727.751
132.454	13.600	964.703	727.381
133.468	13.619	963.854	726.759
134.483	13.608	963.487	726.372
135.497	13.542	962.866	725.550
136.512	13.644	961.817	725.142
137.527	13.717	960.828	724.653
138.541	13.709	960.142	724.035
139.556	13.660	959.677	723.407
140.570	13.652	958.722	722.588
141.585	13.710	958.003	722.234
142.600	13.738	957.299	721.762
143.614	13.739	956.615	721.188
144.629	13.833	955.517	720.703
145.643	13.886	955.154	720.596
146.658	13.907	953.490	719.366
147.673	13.782	953.368	718.670
148.687	13.768	952.176	717.649
149.702	13.855	951.330	717.321
150.716	13.707	950.767	716.197
151.731	13.682	949.822	715.311
152.746	13.709	949.397	715.047
153.760	13.741	948.560	714.491
154.775	13.839	947.833	714.298
155.789	13.872	946.657	713.492
156.804	13.921	946.193	713.288
157.819	13.906	945.292	712.485
158.833	13.786	944.984	711.674
159.848	13.902	944.371	711.648
160.862	13.952	943.447	711.099
161.877	14.127	942.261	710.892
162.892	13.960	941.932	709.865
163.906	13.823	941.065	708.568
164.921	13.844	939.900	707.717
165.935	13.807	939.304	707.047
166.950	13.881	938.086	706.383
167.964	13.920	937.423	705.986
168.979	13.933	936.100	704.982
169.994	13.972	935.534	704.659
171.008	13.880	934.480	703.415
172.023	13.895	933.949	703.017
173.037	13.927	933.293	702.596
174.052	13.961	932.709	702.236
175.067	14.123	931.465	701.920
176.081	14.139	931.078	701.637
177.096	13.925	929.886	699.775
178.110	14.020	928.700	699.220
179.125	13.961	928.561	698.806
180.140	14.019	927.566	698.236
181.154	13.814	927.395	697.188
182.169	13.940	926.301	696.828
183.183	14.010	925.902	696.763
184.198	14.105	924.739	696.222
185.213	14.175	924.714	696.435
186.227	14.177	924.096	695.916
187.242	14.189	923.516	695.468
188.256	14.275	922.849	695.266
189.271	14.172	922.374	694.415
190.286	14.312	921.129	694.000
191.300	14.202	920.430	692.953
192.315	14.090	919.695	691.875
193.329	13.981	918.695	690.607
194.344	14.111	918.342	690.820
195.359	14.139	917.561	690.286
196.373	14.160	916.960	689.862
197.388	14.231	916.806	689.978
198.402	14.228	916.242	689.480
199.417	14.432	915.770	689.909
200.432	14.367	915.418	689.314
201.446	14.365	914.996	688.928
202.461	14.478	914.526	688.981
203.475	14.542	914.109	688.870
204.490	14.420	913.579	687.903
205.504	14.509	912.536	687.424
206.519	14.394	911.924	686.428
207.534	14.292	911.257	685.448
208.548	14.479	909.957	685.178
209.563	14.389	909.703	684.555
210.577	14.326	909.236	683.886
211.592	14.319	908.202	683.016
212.607	14.494	907.668	683.273
213.621	14.674	907.050	683.483
214.636	14.622	906.359	682.693
215.650	14.591	905.546	681.890
216.665	14.572	905.414	681.653
217.680	14.662	904.583	681.336
218.694	14.538	904.535	680.734
219.709	14.801	903.708	681.123
220.723	14.694	902.899	680.016
221.738	14.664	902.352	679.420
222.753	14.653	901.431	678.623
223.767	14.676	900.845	678.217
224.782	14.578	900.006	677.128
225.796	14.789	899.273	677.372
226.811	14.706	898.838	676.648
227.826	14.831	897.854	676.352
228.840	14.731	897.378	675.531
229.855	14.737	896.738	675.013
230.869	14.765	896.066	674.558
231.884	14.776	895.325	673.986
232.899	14.742	894.483	673.155
233.913	14.713	894.119	672.708
234.928	14.730	893.153	671.989
235.942	14.662	892.805	671.394
236.957	14.712	891.866	670.826
237.972	14.699	891.320	670.308
238.986	14.764	890.601	669.966
240.001	14.759	889.976	669.415
241.015	14.780	889.533	669.108
242.030	14.731	888.769	668.278
243.045	14.833	887.864	667.946
244.059	14.814	887.644	667.646
245.074	14.903	886.554	667.121
246.088	14.914	886.330	666.940
247.103	14.820	885.788	666.095
248.117	15.067	884.730	666.225
249.132	15.044	884.464	665.874
250.147	14.970	884.537	665.575
251.161	15.104	883.152	665.006
252.176	15.293	882.553	665.246
253.190	15.284	881.467	664.335
254.205	15.147	881.665	663.882
255.220	15.285	880.631	663.592
256.234	15.273	879.901	662.933
257.249	15.403	878.786	662.549
258.263	15.432	878.860	662.659
259.278	15.389	878.106	661.865
260.293	15.222	877.720	660.855
261.307	15.394	877.217	661.097
262.322	15.467	876.602	660.863
263.336	15.496	875.716	660.249
264.351	15.541	875.338	660.083
265.366	15.441	874.924	659.320
266.380	15.596	873.968	659.151
267.395	15.653	873.297	658.807
268.409	15.504	872.868	657.842
269.424	15.381	872.210	656.808
270.439	15.467	871.393	656.469
271.453	15.514	870.721	656.091
272.468	15.555	869.446	655.232
273.482	15.425	869.200	654.480
274.497	15.421	868.499	653.880
275.512	15.583	867.838	653.953
276.526	15.685	866.847	653.546
277.541	15.490	866.379	652.378
278.555	15.515	865.725	651.925
279.570	15.559	865.646	651.977
280.585	15.685	864.748	651.734
281.599	15.683	864.417	651.417
282.614	15.608	863.776	650.587
283.628	15.644	863.099	650.159
284.643	15.633	862.726	649.779
285.657	15.683	861.670	649.119
286.672	15.794	861.101	649.060
287.687	15.798	861.022	648.960
288.701	15.736	860.673	648.400
289.716	15.718	859.941	647.722
290.730	15.821	859.397	647.651
291.745	15.670	858.884	646.625
292.760	15.769	857.990	646.277
293.774	15.832	857.519	646.105
294.789	15.867	856.810	645.648
295.803	16.030	856.023	645.624
296.818	15.788	855.778	644.456
297.833	15.845	855.001	644.029
298.847	15.844	854.684	643.732
299.862	16.053	853.195	643.350
300.876	15.904	852.894	642.499
301.891	15.937	852.366	642.167
302.906	16.109	851.727	642.288
303.920	16.026	851.113	641.451
304.935	16.023	850.406	640.848
305.949	16.214	849.999	641.213
306.964	16.198	849.081	640.404
307.979	16.095	848.427	639.462
308.993	16.139	848.018	639.262
310.008	16.153	847.651	638.981
311.022	16.160	846.715	638.247
312.037	16.241	846.283	638.171
313.052	16.123	846.075	637.512
314.066	16.016	845.300	636.467
315.081	15.992	844.521	635.736
316.095	15.973	844.339	635.468
317.110	15.995	843.752	635.052
318.125	16.056	843.013	634.671
319.139	16.061	842.582	634.310
320.154	16.170	842.005	634.230
321.168	16.143	841.618	633.779
322.183	16.286	840.795	633.642
323.197	16.261	840.331	633.142
324.212	16.315	839.782	632.874
325.227	16.276	839.209	632.239
326.241	16.352	838.384	631.846
327.256	16.244	838.096	631.170
328.270	16.318	837.706	631.096
329.285	16.329	836.554	630.213
330.300	16.177	836.556	629.592
331.314	16.241	835.827	629.228
332.329	16.198	835.493	628.758
333.343	16.289	834.602	628.371
334.358	16.321	834.435	628.310
335.373	16.256	833.860	627.580
336.387	16.194	833.243	626.828
337.402	16.353	832.549	626.843
338.416	16.453	832.135	626.847
339.431	16.557	831.492	626.690
340.446	16.559	830.733	626.071
341.460	16.502	830.372	625.533
342.475	16.600	829.575	625.240
343.489	16.713	829.088	625.235
344.504	16.710	828.592	624.795
345.519	16.835	828.027	624.773
346.533	16.651	827.650	623.756
347.548	16.653	827.557	623.636
348.562	16.668	826.746	623.025
349.577	16.711	826.042	622.598
350.592	16.509	825.713	621.554
351.606	16.572	825.184	621.332
352.621	16.563	824.607	620.809
353.635	16.555	824.262	620.464
354.650	16.591	823.796	620.192
355.665	16.645	823.318	619.975
356.679	16.737	822.978	619.999
357.694	16.755	822.377	619.559
358.708	16.644	821.517	618.452
359.723	16.738	821.025	618.369
360.738	16.818	820.571	618.262
361.752	16.950	819.680	618.018
362.767	16.766	819.972	617.513
363.781	16.883	819.448	617.489
364.796	16.951	818.813	617.206
365.810	17.097	818.364	617.345
366.825	16.946	818.270	616.669
367.840	16.942	817.984	616.385
368.854	16.929	817.681	616.054
369.869	16.939	816.864	615.418
370.883	16.950	816.094	614.826
371.898	16.908	815.746	614.356
372.913	17.159	814.968	614.626
373.927	17.063	814.774	614.078
374.942	16.990	813.722	612.966
375.956	17.091	813.133	612.832
376.971	17.130	812.784	612.655
377.986	17.356	811.979	612.807
379.000	17.304	811.771	612.409
380.015	17.261	811.446	611.958
381.029	17.341	810.763	611.676
382.044	17.232	809.818	610.517
383.059	17.282	809.240	610.206
384.073	17.353	808.883	610.137
385.088	17.337	808.178	609.494
386.102	17.215	807.828	608.740
387.117	17.125	807.319	607.979
388.132	17.125	807.185	607.824
389.146	17.235	806.455	607.615
390.161	17.345	805.911	607.543
391.175	17.198	805.929	606.980
392.190	17.393	805.529	607.321
393.205	17.405	804.916	606.848
394.219	17.358	804.313	606.170
395.234	17.472	804.013	606.297
396.248	17.342	803.449	605.355
397.263	17.186	803.186	604.550
398.278	17.211	802.589	604.136
399.292	17.294	801.962	603.903
400.307	17.394	801.309	603.716
401.321	17.432	801.005	603.568
402.336	17.255	800.901	602.807
403.350	17.227	800.643	602.462
404.365	17.321	800.123	602.348
405.380	17.353	799.589	602.008
406.394	17.415	799.478	602.088
407.409	17.551	798.529	601.803
408.423	17.638	798.382	601.944
409.438	17.525	797.777	601.035
410.453	17.538	797.711	600.979
411.467	17.677	796.818	600.745
412.482	17.682	796.419	600.406
413.496	17.768	796.076	600.399
414.511	17.651	795.829	599.749
415.526	17.673	795.220	599.314
416.540	17.747	794.946	599.315
417.555	17.746	794.428	598.866
418.569	17.629	794.021	598.095
419.584	17.903	793.430	598.558
420.599	17.757	792.995	597.667
421.613	111.591	1292.859	1476.981
422.628	95.955	1365.675	1477.080
