DTS Sentinel unit serial number:	SN413079Multiplexer serial number:	ORYXHardware model number:	OX4-SRSoftware version number:	ORYX F/W v4.00 Oryx Data Collector v3.7.2.0data status	okinstallation	princeton_trtdifferential loss correction	single-endedforward channel	channel 3reverse channel	N/Adate	2019/09/14time	19:48:35forward acquisition time	60.00reverse acquisition time	0.00gamma	496.2192k internal	0.2313k external	0.2313temperature offset calibration	1.0010default loss term (dB/km)	0.3790temperature slope calibration	1.0000multiplexer offset coefficient	1.0000multiplexer slope coefficient	1.0000fibre end	0.00T internal ref (°C)	34.33T ext. ref 1 (°C)	4.89T ext. ref 2 (°C)	28.52length (m)	temperature (°C)	Stokes	anti-Stokes-747.200	800.000	0.035	-0.107
-746.185	19.422	-0.093	0.076
-745.171	800.000	-0.053	-0.186
-744.156	800.000	0.038	0.112
-743.142	-96.405	0.366	-0.098
-742.127	-39.027	-0.300	0.160
-741.112	13.395	0.130	-0.102
-740.098	-200.000	-0.004	0.298
-739.083	-200.000	-0.027	-0.135
-738.069	-83.393	-0.422	0.137
-737.054	514.494	0.112	-0.266
-736.039	-200.000	-0.024	-0.128
-735.025	98.235	0.097	0.113
-734.010	315.941	0.097	0.185
-732.996	-48.882	-0.176	0.086
-731.981	-38.396	0.149	-0.080
-730.966	-200.000	0.031	-0.278
-729.952	-200.000	-0.140	-0.000
-728.937	-200.000	0.018	-0.239
-727.923	-200.000	-0.032	-0.159
-726.908	-54.632	-0.225	0.103
-725.894	800.000	-0.115	0.447
-724.879	-200.000	0.004	0.064
-723.864	-137.390	0.080	0.009
-722.850	511.194	-0.105	0.248
-721.835	101.729	0.121	0.143
-720.821	237.577	0.043	-0.073
-719.806	-81.106	0.210	-0.070
-718.791	-164.146	0.063	-0.003
-717.777	-162.155	-0.135	-0.007
-716.762	-200.000	-0.042	0.281
-715.748	-69.274	0.096	-0.037
-714.733	156.955	0.050	0.071
-713.718	-200.000	-0.069	-0.332
-712.704	446.266	-0.150	-0.334
-711.689	362.442	-0.055	-0.112
-710.675	27.323	0.256	0.218
-709.660	-200.000	0.044	-0.335
-708.645	-15.161	0.125	-0.081
-707.631	-98.048	0.088	-0.023
-706.616	-72.306	0.319	-0.120
-705.602	-119.029	-0.098	-0.017
-704.587	-104.325	0.064	-0.015
-703.572	145.284	0.255	-0.346
-702.558	104.656	0.091	-0.109
-701.543	-129.832	0.129	0.018
-700.529	-40.201	-0.171	-0.090
-699.514	-112.209	-0.330	-0.067
-698.499	-151.238	0.108	0.008
-697.485	25.720	-0.110	0.092
-696.470	7.350	-0.101	-0.077
-695.456	-114.662	-0.186	0.036
-694.441	-12.755	-0.334	-0.220
-693.426	16.261	-0.249	0.199
-692.412	-200.000	-0.021	-0.249
-691.397	-200.000	0.007	-0.217
-690.383	-83.302	-0.388	0.126
-689.368	800.000	0.049	-0.161
-688.354	29.633	0.077	-0.066
-687.339	-141.035	0.116	-0.012
-686.324	-16.370	-0.337	-0.217
-685.310	-150.289	-0.156	-0.012
-684.295	47.657	0.058	-0.055
-683.281	-200.000	-0.037	0.189
-682.266	75.740	0.298	0.319
-681.251	-140.396	-0.329	-0.035
-680.237	232.779	0.046	-0.077
-679.222	405.937	-0.119	0.254
-678.208	-136.742	-0.273	0.032
-677.193	63.084	0.095	-0.096
-676.178	283.150	0.146	-0.265
-675.164	-52.386	-0.532	-0.249
-674.149	449.796	0.168	-0.375
-673.135	-106.699	-0.377	-0.085
-672.120	-62.851	0.159	-0.067
-671.105	-200.000	0.041	0.184
-670.091	-200.000	0.022	-0.211
-669.076	-190.454	-0.228	0.003
-668.062	-66.670	-0.061	-0.025
-667.047	136.564	-0.237	-0.313
-666.032	793.784	-0.049	0.138
-665.018	4.732	0.256	-0.190
-664.003	14.809	-0.188	-0.148
-662.989	651.887	0.060	0.155
-661.974	464.191	0.175	0.396
-660.959	190.476	-0.099	0.150
-659.945	-83.802	0.327	0.105
-658.930	-200.000	-0.009	0.375
-657.916	-24.316	0.144	0.087
-656.901	-78.192	-0.050	0.017
-655.886	19.095	-0.187	-0.152
-654.872	755.912	-0.106	-0.291
-653.857	13.463	0.160	0.126
-652.843	-200.000	0.012	0.131
-651.828	-85.371	-0.175	0.055
-650.814	188.789	0.044	-0.066
-649.799	-89.670	0.244	0.072
-648.784	-47.260	-0.103	0.050
-647.770	51.217	-0.084	-0.080
-646.755	48.035	-0.133	0.125
-645.741	-200.000	0.060	-0.341
-644.726	312.820	-0.027	-0.052
-643.711	-62.994	0.245	0.102
-642.697	405.709	0.110	0.235
-641.682	-86.343	-0.205	-0.064
-640.668	-110.056	-0.226	-0.048
-639.653	-200.000	0.003	0.133
-638.638	302.687	-0.155	-0.289
-637.624	487.817	-0.071	0.164
-636.609	-21.634	-0.308	0.189
-635.595	800.000	-0.056	0.192
-634.580	178.957	0.034	-0.050
-633.565	800.000	0.083	-0.258
-632.551	-200.000	0.042	-0.261
-631.536	-57.796	-0.175	-0.077
-630.522	800.000	0.110	0.394
-629.507	553.057	0.038	-0.093
-628.492	-200.000	0.050	0.297
-627.478	-79.656	0.188	0.064
-626.463	499.716	0.162	-0.377
-625.449	-39.660	-0.045	0.024
-624.434	422.798	0.096	0.208
-623.419	-200.000	0.005	-0.126
-622.405	-80.248	0.099	-0.033
-621.390	148.933	0.105	0.143
-620.376	512.788	-0.133	-0.312
-619.361	81.440	0.099	-0.108
-618.346	350.019	-0.046	-0.093
-617.332	191.005	0.081	-0.123
-616.317	-128.952	-0.215	0.030
-615.303	-200.000	-0.034	0.284
-614.288	-200.000	-0.007	-0.116
-613.273	141.214	-0.118	-0.158
-612.259	147.966	-0.084	-0.114
-611.244	316.999	-0.135	-0.257
-610.230	-34.991	-0.345	0.190
-609.215	800.000	0.034	0.126
-608.201	-102.763	0.199	-0.048
-607.186	1.988	-0.155	0.113
-606.171	195.207	0.022	-0.033
-605.157	33.384	-0.183	-0.161
-604.142	-38.367	-0.121	0.064
-603.128	8.582	0.176	-0.134
-602.113	-42.213	0.223	-0.115
-601.098	32.122	0.277	0.241
-600.084	-77.949	-0.202	0.070
-599.069	283.905	-0.111	0.201
-598.055	-200.000	0.020	0.094
-597.040	51.447	0.085	0.081
-596.025	239.267	0.121	0.203
-595.011	-159.387	-0.174	0.010
-593.996	0.796	-0.059	-0.043
-592.982	-91.708	-0.284	0.081
-591.967	444.194	0.043	-0.096
-590.952	-200.000	-0.003	-0.288
-589.938	129.006	-0.151	-0.194
-588.923	22.009	0.122	-0.100
-587.909	311.915	-0.007	0.013
-586.894	-79.569	-0.139	-0.047
-585.879	-26.424	-0.050	0.030
-584.865	-9.391	0.095	0.064
-583.850	-65.384	-0.030	0.012
-582.836	-67.398	0.063	0.025
-581.821	-41.421	-0.264	0.137
-580.806	-39.222	-0.022	-0.012
-579.792	-163.559	0.108	0.005
-578.777	562.402	-0.076	0.187
-577.763	800.000	0.116	0.381
-576.748	-89.902	-0.042	-0.012
-575.733	-40.467	-0.251	-0.131
-574.719	-124.600	0.104	-0.016
-573.704	437.681	0.074	-0.162
-572.690	-106.907	-0.392	-0.087
-571.675	-22.478	-0.270	-0.165
-570.661	-109.965	-0.139	-0.029
-569.646	90.093	0.131	0.147
-568.631	31.063	-0.112	0.097
-567.617	800.000	0.031	0.107
-566.602	-35.646	0.064	0.035
-565.588	38.727	0.034	0.030
-564.573	-26.046	0.008	-0.005
-563.558	382.663	0.044	-0.091
-562.544	329.897	0.074	-0.144
-561.529	-134.700	0.200	0.024
-560.515	-11.176	-0.223	-0.148
-559.500	-70.151	0.094	0.036
-558.485	-200.000	0.004	-0.302
-557.471	-47.204	-0.291	-0.143
-556.456	-101.397	0.269	-0.066
-555.442	92.750	-0.220	-0.250
-554.427	93.637	-0.145	0.165
-553.412	800.000	0.045	0.151
-552.398	150.026	-0.049	0.067
-551.383	-71.399	0.100	0.038
-550.369	176.144	-0.085	-0.124
-549.354	209.847	0.038	0.059
-548.339	-200.000	-0.015	-0.167
-547.325	-105.302	0.496	0.114
-546.310	-141.096	-0.114	0.012
-545.296	27.721	0.102	-0.086
-544.281	-64.569	-0.430	0.176
-543.266	-200.000	-0.051	-0.287
-542.252	-42.363	-0.075	-0.039
-541.237	-200.000	0.011	-0.162
-540.223	222.620	0.157	0.254
-539.208	-200.000	0.020	0.109
-538.193	-15.786	0.246	0.158
-537.179	-200.000	0.073	0.346
-536.164	148.205	0.166	0.226
-535.150	39.665	0.208	0.188
-534.135	-200.000	0.017	-0.153
-533.121	-200.000	-0.249	0.001
-532.106	63.540	0.062	-0.063
-531.091	-63.548	0.132	0.054
-530.077	247.152	-0.118	-0.200
-529.062	138.081	-0.135	0.178
-528.048	-133.061	0.176	0.022
-527.033	176.195	-0.086	0.125
-526.018	-11.857	0.155	0.102
-525.004	-62.102	0.178	-0.075
-523.989	181.439	-0.138	-0.203
-522.975	800.000	0.058	-0.216
-521.960	-91.941	-0.191	-0.054
-520.945	337.208	0.169	-0.330
-519.931	-93.381	-0.146	0.041
-518.916	320.446	-0.050	-0.096
-517.902	-45.629	0.144	0.072
-516.887	57.626	0.047	-0.047
-515.872	-44.727	-0.281	-0.141
-514.858	10.167	0.301	0.230
-513.843	84.468	0.052	-0.057
-512.829	-19.889	0.171	-0.106
-511.814	-136.867	0.175	-0.020
-510.799	-32.867	-0.070	-0.039
-509.785	302.061	-0.109	0.203
-508.770	294.268	0.152	-0.279
-507.756	-200.000	0.013	-0.248
-506.741	-34.287	0.176	0.097
-505.726	-133.301	-0.265	-0.034
-504.712	-200.000	0.009	-0.137
-503.697	800.000	-0.059	-0.171
-502.683	646.768	0.011	0.027
-501.668	-54.103	-0.356	0.162
-500.653	-200.000	-0.007	0.170
-499.639	-99.332	0.123	0.031
-498.624	-59.583	-0.314	-0.135
-497.610	26.426	0.082	-0.069
-496.595	19.400	0.128	-0.104
-495.581	47.303	0.452	-0.423
-494.566	46.237	-0.174	-0.162
-493.551	-194.122	-0.053	-0.000
-492.537	14.917	0.064	0.051
-491.522	-84.969	0.192	-0.061
-490.508	313.709	-0.055	-0.103
-489.493	-74.460	0.213	-0.077
-488.478	28.236	-0.443	-0.376
-487.464	-199.336	-0.223	-0.001
-486.449	125.485	0.124	-0.157
-485.435	-81.310	-0.123	-0.041
-484.420	-93.571	0.561	0.156
-483.405	367.718	-0.083	0.168
-482.391	80.227	-0.053	0.057
-481.376	800.000	-0.031	-0.131
-480.362	-108.425	-0.390	-0.084
-479.347	800.000	0.116	0.323
-478.332	-61.938	-0.400	0.168
-477.318	116.417	0.058	0.071
-476.303	44.239	-0.159	0.147
-475.289	241.129	-0.120	-0.201
-474.274	19.374	-0.254	0.204
-473.259	32.065	-0.244	0.211
-472.245	273.868	-0.050	0.088
-471.230	800.000	-0.044	0.148
-470.216	662.484	0.017	-0.044
-469.201	-62.429	-0.286	0.120
-468.186	-200.000	-0.015	-0.247
-467.172	800.000	-0.172	-0.501
-466.157	45.848	0.175	0.162
-465.143	-60.723	-0.423	-0.180
-464.128	-200.000	0.013	-0.268
-463.113	800.000	-0.097	0.349
-462.099	-200.000	0.009	-0.045
-461.084	168.749	-0.218	-0.312
-460.070	800.000	-0.062	-0.228
-459.055	-72.495	0.272	-0.101
-458.040	120.986	-0.118	-0.147
-457.026	-45.738	-0.164	-0.081
-456.011	-58.787	-0.186	-0.081
-454.997	184.308	0.196	0.292
-453.982	-200.000	-0.010	0.099
-452.968	12.536	0.317	0.246
-451.953	-200.000	0.004	0.296
-450.938	99.469	-0.320	-0.371
-449.924	-200.000	0.023	-0.358
-448.909	342.890	0.016	-0.031
-447.895	1.648	-0.027	-0.020
-446.880	-200.000	0.002	-0.243
-445.865	-151.356	-0.183	-0.014
-444.851	231.155	-0.108	0.177
-443.836	27.790	-0.234	0.197
-442.822	-164.497	0.277	0.013
-441.807	-106.507	0.332	-0.074
-440.792	-200.000	-0.009	-0.102
-439.778	17.211	-0.340	-0.271
-438.763	273.434	0.109	-0.192
-437.749	54.539	0.371	0.358
-436.734	-200.000	-0.000	-0.063
-435.719	20.423	0.330	-0.268
-434.705	238.256	-0.132	-0.219
-433.690	29.542	0.056	0.048
-432.676	-55.771	0.315	0.141
-431.661	47.230	0.396	0.370
-430.646	800.000	0.088	-0.348
-429.632	-133.081	0.130	0.016
-428.617	-200.000	0.029	-0.257
-427.603	347.838	0.083	0.165
-426.588	-109.199	0.230	0.049
-425.573	70.657	0.119	0.123
-424.559	499.126	0.112	-0.258
-423.544	-200.000	0.029	0.131
-422.530	-104.652	-0.275	-0.063
-421.515	-122.187	-0.033	-0.005
-420.500	-200.000	0.400	-0.002
-419.486	-91.666	0.191	-0.054
-418.471	289.865	0.029	-0.053
-417.457	800.000	-0.070	-0.292
-416.442	-56.349	0.250	0.111
-415.428	724.610	-0.113	-0.301
-414.413	800.000	0.051	-0.143
-413.398	-200.000	-0.024	0.116
-412.384	157.317	0.181	-0.250
-411.369	-200.000	-0.010	0.142
-410.355	75.083	0.313	0.330
-409.340	800.000	0.091	-0.259
-408.325	800.000	-0.137	-0.481
-407.311	312.800	0.080	-0.150
-406.296	-29.255	-0.106	-0.061
-405.282	496.034	0.079	0.182
-404.267	-200.000	-0.026	0.134
-403.252	154.531	-0.234	0.322
-402.238	-69.486	0.176	-0.068
-401.223	180.396	-0.171	0.251
-400.209	-200.000	-0.000	0.090
-399.194	-117.922	0.358	0.064
-398.179	499.513	0.037	-0.085
-397.165	212.213	0.149	0.236
-396.150	-92.126	-0.142	-0.040
-395.136	80.080	0.299	0.322
-394.121	-200.000	-0.001	-0.036
-393.106	276.456	0.128	0.227
-392.092	-200.000	-0.025	0.174
-391.077	115.731	0.087	0.107
-390.063	-200.000	0.034	-0.152
-389.048	-91.249	0.162	-0.046
-388.033	124.585	-0.020	0.025
-387.019	-114.246	-0.071	-0.014
-386.004	40.771	0.203	-0.183
-384.990	-200.000	-0.033	-0.315
-383.975	800.000	-0.047	0.145
-382.960	-200.000	0.008	0.219
-381.946	359.403	-0.176	0.352
-380.931	249.542	-0.008	-0.013
-379.917	523.370	0.154	-0.362
-378.902	-200.000	0.018	-0.326
-377.888	-50.996	-0.214	-0.101
-376.873	-143.623	0.400	-0.038
-375.858	-111.428	-0.324	-0.066
-374.844	98.477	-0.052	0.060
-373.829	-15.832	-0.184	0.117
-372.815	127.634	-0.107	-0.135
-371.800	-152.740	0.339	0.024
-370.785	-200.000	0.000	0.136
-369.771	228.314	-0.108	-0.176
-368.756	67.587	0.080	0.081
-367.742	-4.397	0.215	0.149
-366.727	233.772	-0.118	0.194
-365.712	606.519	0.109	-0.271
-364.698	220.756	0.180	0.289
-363.683	-35.729	0.303	-0.164
-362.669	800.000	-0.108	0.310
-361.654	-166.256	0.415	-0.018
-360.639	87.226	-0.019	0.021
-359.625	-23.180	0.206	-0.124
-358.610	-200.000	-0.014	-0.146
-357.596	120.921	0.074	0.092
-356.581	-133.463	-0.193	-0.024
-355.566	178.169	0.107	0.156
-354.552	-79.427	0.095	-0.032
-353.537	174.963	0.180	-0.260
-352.523	37.012	-0.213	-0.188
-351.508	-155.176	-0.207	-0.014
-350.493	-48.208	-0.286	-0.138
-349.479	3.378	-0.125	0.091
-348.464	-200.000	0.012	-0.150
-347.450	-16.433	0.147	0.093
-346.435	-35.084	0.111	0.060
-345.420	-200.000	-0.014	0.127
-344.406	-126.844	0.132	0.019
-343.391	-52.633	-0.166	0.076
-342.377	-200.000	0.001	0.077
-341.362	22.333	0.236	0.192
-340.348	57.082	0.160	-0.156
-339.333	-66.621	-0.413	0.163
-338.318	-113.705	-0.264	0.051
-337.304	-46.798	-0.303	0.148
-336.289	-17.255	-0.184	-0.116
-335.275	-138.857	-0.086	-0.009
-334.260	-9.868	-0.298	-0.198
-333.245	-118.751	-0.195	0.034
-332.231	-90.591	-0.297	-0.086
-331.216	-79.389	0.271	0.092
-330.202	428.842	-0.152	0.327
-329.187	800.000	0.042	0.128
-328.172	-4.179	-0.386	-0.267
-327.158	204.080	-0.115	0.177
-326.143	-200.000	-0.006	0.057
-325.129	-200.000	-0.005	-0.210
-324.114	-38.485	0.251	-0.133
-323.099	37.143	0.148	-0.131
-322.085	376.715	-0.117	-0.238
-321.070	-200.000	0.018	-0.085
-320.056	-100.596	0.157	-0.039
-319.041	11.499	-0.202	-0.155
-318.026	800.000	0.026	-0.092
-317.012	196.720	0.118	0.180
-315.997	73.333	0.131	-0.136
-314.983	-41.079	-0.244	-0.126
-313.968	44.416	-0.218	-0.200
-312.953	2.446	-0.238	0.172
-311.939	800.000	-0.067	0.276
-310.924	-200.000	-0.037	0.345
-309.910	-93.062	0.179	-0.050
-308.895	-161.963	0.076	-0.004
-307.880	-200.000	-0.004	0.439
-306.866	318.556	0.099	0.186
-305.851	-56.057	-0.208	-0.093
-304.837	-200.000	0.003	-0.241
-303.822	-200.000	-0.036	0.351
-302.807	-126.869	-0.263	-0.039
-301.793	-56.354	0.234	-0.104
-300.778	136.884	0.111	0.145
-299.764	235.861	-0.093	-0.154
-298.749	-186.232	0.165	0.002
-297.735	-200.000	-0.002	0.192
-296.720	-100.245	0.353	-0.087
-295.705	-64.548	0.026	0.010
-294.691	-122.119	0.165	0.027
-293.676	123.793	0.253	0.316
-292.662	-134.626	0.060	0.007
-291.647	331.959	-0.054	0.104
-290.632	-200.000	0.007	0.120
-289.618	219.022	0.070	-0.112
-288.603	135.108	-0.107	0.139
-287.589	61.996	-0.050	-0.049
-286.574	800.000	-0.058	-0.195
-285.559	292.097	0.080	0.146
-284.545	800.000	0.023	-0.067
-283.530	274.125	-0.117	-0.206
-282.516	-80.459	-0.167	-0.056
-281.501	432.248	-0.068	0.146
-280.486	52.695	-0.201	-0.192
-279.472	-200.000	-0.029	0.142
-278.457	800.000	0.157	0.444
-277.443	128.920	-0.120	-0.152
-276.428	51.940	0.170	-0.161
-275.413	243.779	0.062	0.104
-274.399	-55.867	0.193	-0.086
-273.384	68.015	0.184	-0.187
-272.370	107.056	-0.162	0.192
-271.355	-200.000	0.059	-0.281
-270.340	76.550	-0.061	-0.064
-269.326	-200.000	0.009	0.179
-268.311	532.527	-0.118	0.279
-267.297	-35.315	-0.076	0.041
-266.282	337.804	-0.126	0.245
-265.267	209.228	0.065	0.101
-264.253	-107.849	0.484	0.105
-263.238	-200.000	0.052	-0.403
-262.224	-103.202	-0.310	0.073
-261.209	-157.264	0.426	0.026
-260.195	-162.544	0.278	-0.014
-259.180	-200.000	0.007	0.168
-258.165	418.896	0.119	0.253
-257.151	-10.382	-0.074	0.049
-256.136	-200.000	0.046	-0.226
-255.122	319.848	-0.040	0.075
-254.107	640.172	-0.077	0.194
-253.092	-14.354	0.224	0.144
-252.078	78.178	-0.182	-0.193
-251.063	-30.947	-0.149	0.084
-250.049	86.679	0.106	0.117
-249.034	-40.863	-0.307	0.158
-248.019	-92.289	0.300	0.084
-247.005	172.156	-0.095	-0.136
-245.990	-123.089	-0.151	-0.024
-244.976	800.000	-0.095	0.276
-243.961	800.000	0.034	0.131
-242.946	299.142	-0.150	0.276
-241.932	-46.978	-0.099	0.048
-240.917	110.655	0.187	-0.224
-239.903	2.601	-0.040	-0.029
-238.888	-188.302	-0.392	-0.005
-237.873	-118.748	0.100	0.018
-236.859	-92.540	-0.318	0.089
-235.844	309.760	-0.099	0.184
-234.830	183.465	-0.111	0.164
-233.815	-37.324	-0.111	-0.059
-232.800	-115.228	0.350	0.066
-231.786	800.000	-0.116	0.439
-230.771	-163.207	-0.195	0.009
-229.757	800.000	-0.059	-0.192
-228.742	408.143	0.036	-0.076
-227.727	-91.269	0.154	-0.044
-226.713	347.096	0.101	-0.197
-225.698	-11.409	0.107	-0.070
-224.684	-45.828	-0.164	-0.081
-223.669	800.000	0.039	0.125
-222.655	209.725	0.063	0.099
-221.640	-196.826	0.274	0.002
-220.625	-200.000	0.023	-0.192
-219.611	-200.000	-0.017	0.196
-218.596	-144.516	0.244	-0.022
-217.582	800.000	0.094	0.317
-216.567	-117.801	0.166	-0.030
-215.552	800.000	-0.084	0.260
-214.538	2.766	-0.105	-0.076
-213.523	63.676	0.064	-0.064
-212.509	-200.000	-0.077	-0.508
-211.494	-128.790	-0.492	-0.069
-210.479	-151.252	0.132	0.010
-209.465	70.654	-0.240	0.246
-208.450	-34.267	-0.056	-0.030
-207.436	-89.230	-0.199	0.058
-206.421	449.847	0.051	0.112
-205.406	-5.238	-0.074	0.050
-204.392	-200.000	0.021	-0.271
-203.377	-132.488	0.175	-0.022
-202.363	-7.255	0.122	-0.082
-201.348	233.175	-0.116	-0.189
-200.333	46.698	-0.359	-0.331
-199.319	800.000	-0.090	0.315
-198.304	-7.459	-0.259	-0.174
-197.290	800.000	0.071	-0.255
-196.275	89.328	-0.171	0.189
-195.260	-94.586	-0.307	-0.083
-194.246	-200.000	0.009	-0.335
-193.231	-113.537	-0.398	-0.077
-192.217	515.282	0.026	-0.059
-191.202	26.304	0.089	-0.074
-190.187	-5.415	0.316	-0.215
-189.173	800.000	0.073	-0.237
-188.158	-19.506	-0.062	0.038
-187.144	-10.833	0.147	-0.097
-186.129	800.000	0.049	-0.151
-185.114	538.044	-0.039	-0.093
-184.100	-61.039	0.428	-0.179
-183.085	-146.619	-0.160	-0.014
-182.071	800.000	0.042	0.182
-181.056	-41.736	0.129	0.065
-180.042	-42.146	-0.109	-0.055
-179.027	-156.119	0.142	0.009
-178.012	-74.525	0.094	-0.034
-176.998	443.584	0.158	-0.345
-175.983	800.000	-0.026	-0.094
-174.969	265.176	0.202	0.350
-173.954	550.485	0.149	0.354
-172.939	-200.000	-0.037	-0.275
-171.925	63.165	-0.232	0.231
-170.910	-200.000	0.048	0.397
-169.896	189.891	-0.091	0.136
-168.881	149.982	-0.184	0.247
-167.866	-200.000	-0.001	0.454
-166.852	-99.377	0.186	-0.046
-165.837	-57.133	0.135	0.059
-164.823	-200.000	0.036	0.221
-163.808	172.112	0.072	0.103
-162.793	26.883	0.126	-0.105
-161.779	800.000	0.099	0.282
-160.764	84.836	0.109	0.118
-159.750	40.880	0.142	0.127
-158.735	435.177	-0.055	-0.118
-157.720	132.501	0.070	0.090
-156.706	48.136	0.380	0.353
-155.691	154.484	0.133	-0.182
-154.677	-200.000	-0.033	0.245
-153.662	96.474	-0.114	-0.129
-152.647	15.157	-0.123	-0.095
-151.633	-17.461	0.081	-0.051
-150.618	-59.150	0.036	-0.015
-149.604	-200.000	-0.013	-0.207
-148.589	-91.248	-0.130	0.037
-147.574	167.129	-0.090	0.126
-146.560	-164.687	-0.119	-0.005
-145.545	111.481	-0.096	0.115
-144.531	-200.000	-0.005	-0.350
-143.516	435.986	0.021	0.046
-142.502	-200.000	0.012	-0.056
-141.487	-77.421	-0.344	0.118
-140.472	-51.813	0.130	-0.060
-139.458	82.083	0.152	-0.163
-138.443	-18.679	-0.215	0.133
-137.429	39.397	0.164	-0.145
-136.414	-200.000	-0.051	0.264
-135.399	800.000	-0.053	-0.179
-134.385	124.282	-0.192	-0.239
-133.370	129.414	-0.075	0.095
-132.356	800.000	0.101	-0.329
-131.341	128.572	-0.185	-0.233
-130.326	-37.548	0.201	0.106
-129.312	219.575	0.027	0.043
-128.297	-200.000	-0.039	-0.395
-127.283	0.169	0.206	0.146
-126.268	148.144	0.157	0.209
-125.253	-200.000	0.012	-0.201
-124.239	-200.000	0.053	-0.244
-123.224	139.627	0.092	0.120
-122.210	-45.369	-0.150	0.074
-121.195	-200.000	-0.086	-0.491
-120.180	-94.872	-0.246	-0.066
-119.166	-200.000	0.001	-0.146
-118.151	800.000	0.096	-0.322
-117.137	-200.000	-0.021	0.581
-116.122	74.127	0.218	0.226
-115.107	105.331	0.130	-0.152
-114.093	-91.586	-0.271	0.076
-113.078	-200.000	-0.016	0.320
-112.064	-66.372	0.064	-0.025
-111.049	-180.048	0.093	-0.002
-110.034	168.281	-0.180	-0.254
-109.020	265.559	0.081	0.141
-108.005	-200.000	0.033	-0.321
-106.991	110.317	0.069	0.082
-105.976	69.026	-0.213	0.217
-104.962	40.980	0.194	0.174
-103.947	28.764	0.157	0.132
-102.932	3.807	-0.132	0.095
-101.918	271.760	0.117	0.204
-100.903	-7.474	-0.118	0.079
-99.889	-93.232	-0.326	0.090
-98.874	101.053	0.145	-0.167
-97.859	-200.000	-0.019	-0.093
-96.845	-200.000	-0.035	0.158
-95.830	68.879	-0.132	0.134
-94.816	19.282	0.102	0.081
-93.801	132.948	-0.198	-0.253
-92.786	-151.184	0.279	-0.021
-91.772	-60.993	0.143	0.060
-90.757	-200.000	0.001	0.233
-89.743	800.000	-0.040	-0.147
-88.728	784.983	0.071	0.192
-87.713	-78.508	0.157	0.053
-86.699	-121.752	-0.161	0.026
-85.684	104.061	0.167	0.195
-84.670	181.968	-0.084	-0.122
-83.655	60.375	-0.130	0.128
-82.640	-200.000	0.003	0.160
-81.626	-41.964	0.285	0.144
-80.611	212.433	0.030	-0.046
-79.597	-200.000	-0.061	-0.324
-78.582	800.000	0.049	-0.184
-77.567	-121.470	0.367	0.060
-76.553	656.725	0.043	0.108
-75.538	-200.000	-0.036	0.210
-74.524	72.220	-0.141	-0.145
-73.509	-200.000	0.027	-0.168
-72.494	-36.921	0.117	0.062
-71.480	-109.211	0.223	-0.047
-70.465	-132.878	-0.132	0.017
-69.451	-200.000	-0.022	0.172
-68.436	-13.964	-0.160	0.102
-67.422	34.239	0.339	0.292
-66.407	-16.292	-0.053	0.033
-65.392	-120.081	-0.110	0.019
-64.378	800.000	0.047	-0.180
-63.363	-63.302	-0.205	-0.083
-62.349	70.470	0.228	-0.233
-61.334	47.761	-1.030	-0.949
-60.319	-200.000	0.104	0.721
-59.305	-200.000	-0.128	-0.883
-58.290	332.958	0.551	1.052
-57.276	422.201	0.630	1.335
-56.261	-200.000	97.680	575.453
-55.246	629.359	1391.586	3474.320
-54.232	190.900	2585.183	3838.993
-53.217	119.335	2180.061	2663.790
-52.203	44.634	1717.476	1558.954
-51.188	37.364	1529.451	1338.391
-50.173	35.009	1502.597	1298.882
-49.159	54.669	1551.983	1477.532
-48.144	57.615	1571.515	1516.375
-47.130	37.850	1527.529	1339.838
-46.115	34.530	1512.411	1303.886
-45.100	34.372	1509.139	1299.935
-44.086	34.303	1507.014	1297.579
-43.071	34.269	1505.336	1295.855
-42.057	34.313	1504.118	1295.050
-41.042	34.336	1502.002	1293.339
-40.027	34.378	1500.656	1292.410
-39.013	34.268	1499.257	1290.411
-37.998	34.291	1498.375	1289.751
-36.984	34.398	1496.601	1288.897
-35.969	34.351	1495.379	1287.476
-34.954	34.319	1494.130	1286.140
-33.940	34.288	1492.603	1284.564
-32.925	34.407	1491.081	1284.001
-31.911	34.318	1490.221	1282.614
-30.896	34.436	1488.834	1282.160
-29.881	34.437	1487.528	1280.995
-28.867	34.391	1485.852	1279.190
-27.852	34.405	1484.361	1277.951
-26.838	34.308	1483.913	1276.862
-25.823	34.373	1481.855	1275.473
-24.809	34.401	1480.113	1274.114
-23.794	34.308	1478.725	1272.246
-22.779	34.375	1477.298	1271.415
-21.765	34.350	1476.923	1270.874
-20.750	34.377	1475.336	1269.640
-19.736	34.309	1474.240	1268.191
-18.721	34.272	1473.844	1267.554
-17.706	34.317	1472.456	1266.607
-16.692	34.379	1470.921	1265.650
-15.677	34.339	1470.413	1264.898
-14.663	34.341	1469.143	1263.771
-13.648	34.272	1468.462	1262.675
-12.633	34.478	1467.099	1262.821
-11.619	34.252	1466.817	1261.029
-10.604	34.233	1466.215	1260.333
-9.590	34.263	1464.736	1259.211
-8.575	34.313	1463.976	1258.841
-7.560	34.219	1463.633	1257.876
-6.546	34.289	1462.160	1257.022
-5.531	34.314	1461.359	1256.449
-4.517	34.368	1460.103	1255.670
-3.502	34.232	1459.858	1254.515
-2.487	34.266	1458.462	1253.491
-1.473	34.241	1457.290	1252.268
-0.458	34.326	1455.849	1251.538
0.556	33.774	1446.270	1240.266
1.571	30.445	1420.289	1196.478
2.586	26.605	1357.905	1120.119
3.600	24.635	1274.857	1040.068
4.615	23.001	1228.720	993.170
5.629	19.802	1172.523	930.479
6.644	11.902	1089.081	824.554
7.659	5.778	1048.737	764.166
8.673	4.931	1042.809	755.674
9.688	4.894	1040.078	753.449
10.702	4.862	1039.002	752.451
11.717	4.883	1036.819	750.903
12.731	6.884	1038.851	761.965
13.746	14.064	1048.868	804.084
14.761	19.324	1055.198	834.392
15.775	19.280	1053.231	832.552
16.790	18.243	1051.303	825.949
17.804	17.154	1049.208	818.984
18.819	16.138	1047.694	812.835
19.834	15.682	1046.093	809.325
20.848	15.418	1045.088	807.207
21.863	15.251	1044.433	805.827
22.877	15.070	1043.851	804.435
23.892	14.859	1042.776	802.523
24.907	14.839	1041.740	801.559
25.921	14.844	1041.060	800.989
26.936	14.826	1040.141	800.126
27.950	14.931	1039.310	799.919
28.965	14.813	1038.808	798.896
29.980	14.931	1037.720	798.555
30.994	15.082	1036.300	798.109
32.009	15.166	1035.062	797.486
33.023	15.155	1034.670	797.061
34.038	15.234	1034.094	796.924
35.053	15.096	1032.865	795.248
36.067	14.968	1032.423	794.229
37.082	14.975	1031.361	793.379
38.096	15.111	1030.262	793.104
39.111	15.134	1029.649	792.671
40.126	15.191	1028.564	792.037
41.140	15.119	1027.492	790.802
42.155	14.970	1026.337	789.137
43.169	14.830	1024.993	787.374
44.184	14.654	1024.552	786.137
45.199	14.662	1023.150	785.029
46.213	14.670	1022.229	784.293
47.228	14.703	1022.075	784.259
48.242	14.848	1020.843	783.927
49.257	15.017	1019.501	783.615
50.271	15.006	1018.699	782.879
51.286	14.899	1017.786	781.607
52.301	15.003	1017.401	781.728
53.315	14.971	1016.153	780.555
54.330	14.986	1015.540	780.082
55.344	14.798	1014.561	778.387
56.359	14.754	1013.465	777.273
57.374	14.928	1012.799	777.501
58.388	14.733	1012.130	776.011
59.403	14.840	1010.961	775.543
60.417	14.735	1010.104	774.332
61.432	14.684	1009.520	773.577
62.447	14.718	1008.847	773.152
63.461	14.686	1007.704	772.060
64.476	14.526	1006.888	770.625
65.490	14.602	1006.050	770.267
66.505	14.671	1005.039	769.743
67.520	14.842	1003.807	769.518
68.534	14.732	1003.613	768.796
69.549	14.707	1002.737	767.941
70.563	14.668	1002.205	767.289
71.578	14.637	1001.448	766.498
72.593	14.614	1000.643	765.708
73.607	14.495	999.651	764.335
74.622	14.532	998.465	763.533
75.636	14.505	997.592	762.674
76.651	14.525	997.156	762.362
77.666	14.573	996.446	761.974
78.680	14.621	995.390	761.318
79.695	14.448	995.583	760.606
80.709	14.590	994.689	760.504
81.724	14.699	993.603	760.104
82.739	14.613	993.232	759.360
83.753	14.763	992.481	759.401
84.768	14.870	991.705	759.227
85.782	15.065	991.073	759.560
86.797	15.084	990.155	758.877
87.812	15.063	989.669	758.339
88.826	14.993	988.425	757.004
89.841	15.017	987.535	756.362
90.855	15.000	986.859	755.703
91.870	14.991	986.382	755.227
92.884	15.109	985.835	755.275
93.899	15.055	985.017	754.339
94.914	15.011	984.256	753.492
95.928	15.100	983.475	753.225
96.943	15.210	982.755	753.102
97.957	15.016	982.153	751.706
98.972	15.033	981.043	750.866
99.987	15.064	980.419	750.460
101.001	15.032	979.947	749.891
102.016	14.990	979.189	749.056
103.030	14.934	978.209	747.990
104.045	15.148	976.812	747.811
105.060	15.023	976.130	746.665
106.074	14.958	975.238	745.624
107.089	14.780	974.124	743.916
108.103	14.703	973.339	742.907
109.118	14.649	972.470	741.938
110.133	14.769	971.099	741.360
111.147	14.714	970.698	740.745
112.162	14.694	969.612	739.761
113.176	14.754	968.921	739.434
114.191	14.711	968.283	738.688
115.206	14.731	967.589	738.185
116.220	14.796	966.386	737.490
117.235	14.679	965.774	736.438
118.249	14.657	965.146	735.800
119.264	14.832	963.936	735.580
120.279	14.732	963.250	734.551
121.293	14.685	962.604	733.787
122.308	14.628	961.833	732.887
123.322	14.756	960.781	732.583
124.337	14.703	959.616	731.395
125.352	14.612	958.771	730.288
126.366	14.622	957.844	729.563
127.381	14.535	956.902	728.401
128.395	14.552	956.086	727.789
129.410	14.646	955.003	727.308
130.424	14.651	954.120	726.594
131.439	14.703	953.369	726.184
132.454	14.808	952.482	725.901
133.468	14.837	951.997	725.592
134.483	14.864	951.373	725.168
135.497	14.793	950.513	724.144
136.512	14.811	949.571	723.440
137.527	14.742	949.306	722.872
138.541	14.864	948.275	722.554
139.556	15.000	947.178	722.240
140.570	14.871	946.695	721.253
141.585	14.857	946.088	720.664
142.600	14.945	946.058	720.955
143.614	15.002	944.955	720.297
144.629	15.189	943.910	720.242
145.643	15.154	943.010	719.341
146.658	15.129	942.511	718.788
147.673	14.991	941.674	717.496
148.687	14.908	940.385	716.095
149.702	14.731	939.841	714.860
150.716	14.835	938.964	714.572
151.731	14.912	937.573	713.781
152.746	14.912	937.269	713.489
153.760	14.938	936.370	712.848
154.775	15.129	935.351	712.823
155.789	15.079	935.056	712.322
156.804	15.117	933.984	711.605
157.819	15.086	933.377	710.948
158.833	15.198	932.776	710.902
159.848	15.194	932.144	710.339
160.862	15.069	931.876	709.545
161.877	15.081	930.835	708.739
162.892	14.941	929.897	707.370
163.906	14.888	928.673	706.155
164.921	14.901	928.405	705.943
165.935	14.959	927.290	705.274
166.950	14.926	926.589	704.542
167.964	14.976	925.367	703.758
168.979	15.108	924.159	703.332
169.994	15.080	923.240	702.453
171.008	15.117	922.661	702.108
172.023	15.081	922.095	701.462
173.037	15.213	921.218	701.285
174.052	15.425	920.355	701.454
175.067	15.165	920.223	700.206
176.081	15.078	919.242	699.032
177.096	15.114	918.462	698.530
178.110	14.956	917.472	697.055
179.125	15.058	917.146	697.171
180.140	15.124	915.967	696.485
181.154	15.170	915.194	696.031
182.169	15.181	915.017	695.880
183.183	15.112	914.882	695.426
184.198	15.249	914.114	695.349
185.213	15.203	913.371	694.535
186.227	15.323	912.393	694.225
187.242	15.337	912.273	694.132
188.256	15.371	911.141	693.348
189.271	15.567	910.119	693.318
190.286	15.507	909.703	692.693
191.300	15.285	909.249	691.372
192.315	15.068	908.033	689.492
193.329	15.001	907.456	688.717
194.344	15.013	906.570	688.031
195.359	15.031	906.266	687.813
196.373	15.103	905.946	687.806
197.388	15.319	905.111	687.998
198.402	15.350	904.518	687.611
199.417	15.543	904.379	688.238
200.432	15.517	904.121	687.873
201.446	15.583	903.607	687.691
202.461	15.775	903.216	688.118
203.475	15.752	902.678	687.553
204.490	15.708	901.778	686.630
205.504	15.599	901.181	685.668
206.519	15.655	900.177	685.070
207.534	15.506	899.270	683.712
208.548	15.514	898.646	683.210
209.563	15.567	897.980	682.862
210.577	15.504	897.191	681.946
211.592	15.413	896.996	681.368
212.607	15.608	896.533	681.747
213.621	15.800	896.100	682.135
214.636	15.596	895.130	680.510
215.650	15.541	894.825	679.996
216.665	15.513	894.150	679.308
217.680	15.778	892.983	679.431
218.694	15.737	892.930	679.165
219.709	15.896	892.317	679.281
220.723	15.950	891.641	678.922
221.738	15.821	891.006	677.863
222.753	15.839	890.591	677.555
223.767	15.834	889.323	676.514
224.782	15.757	888.906	675.829
225.796	15.997	887.859	675.933
226.811	16.015	887.431	675.620
227.826	15.869	886.750	674.457
228.840	15.757	886.181	673.515
229.855	15.982	884.972	673.436
230.869	15.820	884.860	672.645
231.884	15.887	884.083	672.261
232.899	15.835	883.530	671.573
233.913	15.762	882.980	670.806
234.928	15.697	882.233	669.920
235.942	15.816	881.206	669.554
236.957	15.776	880.505	668.802
237.972	15.875	879.783	668.588
238.986	15.677	879.817	667.769
240.001	15.798	878.814	667.430
241.015	15.668	878.222	666.404
242.030	15.735	877.799	666.293
243.045	15.876	876.941	666.138
244.059	15.945	876.402	665.941
245.074	16.024	875.465	665.484
246.088	16.018	875.061	665.095
247.103	15.933	874.975	664.634
248.117	16.052	873.855	664.196
249.132	16.120	873.375	664.037
250.147	16.169	873.194	664.034
251.161	16.414	872.672	664.544
252.176	16.420	871.515	663.626
253.190	16.382	871.284	663.242
254.205	16.582	870.449	663.333
255.220	16.468	870.317	662.726
256.234	16.465	869.218	661.820
257.249	16.414	868.594	661.088
258.263	16.520	868.097	661.064
259.278	16.545	867.396	660.568
260.293	16.565	866.748	660.096
261.307	16.505	866.566	659.663
262.322	16.563	865.933	659.350
263.336	16.573	865.535	659.029
264.351	16.665	864.718	658.705
265.366	16.619	864.213	658.086
266.380	16.777	863.321	657.960
267.395	16.770	862.856	657.521
268.409	16.654	862.215	656.525
269.424	16.526	861.495	655.419
270.439	16.539	861.077	655.096
271.453	16.589	860.255	654.607
272.468	16.504	859.314	653.501
273.482	16.689	858.427	653.485
274.497	16.644	857.936	652.879
275.512	16.525	857.429	651.979
276.526	16.607	856.354	651.417
277.541	16.691	855.756	651.230
278.555	16.578	855.682	650.679
279.570	16.651	855.056	650.427
280.585	16.768	854.850	650.662
281.599	16.816	853.920	650.080
282.614	16.707	853.566	649.334
283.628	16.828	852.352	648.819
284.643	16.809	852.177	648.555
285.657	16.726	851.690	647.810
286.672	16.775	851.005	647.418
287.687	16.848	850.538	647.286
288.701	16.865	849.829	646.751
289.716	16.851	849.621	646.483
290.730	16.889	848.940	646.055
291.745	16.902	848.001	645.330
292.760	16.856	847.912	645.031
293.774	16.975	846.893	644.649
294.789	17.148	846.071	644.627
295.803	17.010	846.331	644.241
296.818	16.878	845.462	643.024
297.833	16.769	844.825	642.068
298.847	16.926	844.209	642.138
299.862	16.911	843.485	641.474
300.876	16.995	842.784	641.202
301.891	17.060	842.167	640.921
302.906	17.019	841.540	640.232
303.920	17.137	841.018	640.224
304.935	17.310	840.071	640.096
305.949	17.374	839.801	640.074
306.964	17.397	839.123	639.587
307.979	17.114	838.849	638.261
308.993	16.977	838.158	637.163
310.008	17.285	837.362	637.658
311.022	17.214	837.193	637.207
312.037	17.187	836.625	636.614
313.052	17.329	835.842	636.495
314.066	17.125	835.018	635.049
315.081	17.074	834.513	634.418
316.095	17.132	834.205	634.344
317.110	17.049	833.664	633.568
318.125	17.064	832.657	632.802
319.139	17.174	832.310	632.890
320.154	17.172	831.902	632.518
321.168	17.082	831.500	631.820
322.183	17.104	831.205	631.621
323.197	17.260	830.704	631.767
324.212	17.267	829.959	631.170
325.227	17.245	829.291	630.524
326.241	17.210	829.072	630.174
327.256	17.128	828.470	629.354
328.270	17.146	827.784	628.843
329.285	17.235	826.946	628.482
330.300	17.173	826.766	628.060
331.314	17.262	826.083	627.813
332.329	17.283	825.354	627.282
333.343	17.275	825.004	626.930
334.358	17.390	824.505	626.920
335.373	17.385	824.078	626.522
336.387	17.334	823.299	625.686
337.402	17.464	822.886	625.794
338.416	17.501	822.299	625.430
339.431	17.523	821.850	625.115
340.446	17.705	821.040	625.109
341.460	17.611	820.974	624.657
342.475	17.677	820.385	624.395
343.489	17.669	819.719	623.807
344.504	17.820	819.323	624.002
345.519	17.878	818.841	623.793
346.533	17.880	818.304	623.336
347.548	17.784	818.212	622.858
348.562	17.880	816.699	622.001
349.577	17.758	816.660	621.472
350.592	17.668	816.116	620.674
351.606	17.592	815.685	620.015
352.621	17.495	815.268	619.291
353.635	17.662	814.317	619.122
354.650	17.692	814.277	619.146
355.665	17.681	813.666	618.585
356.679	17.666	813.350	618.235
357.694	17.749	812.814	618.075
358.708	17.842	812.092	617.808
359.723	17.903	811.641	617.632
360.738	17.874	811.043	617.016
361.752	17.812	810.431	616.273
362.767	17.878	810.393	616.428
363.781	17.819	809.962	615.832
364.796	18.017	809.835	616.397
365.810	18.052	809.088	615.898
366.825	18.181	808.963	616.212
367.840	18.186	808.500	615.826
368.854	18.171	808.066	615.386
369.869	17.970	807.623	614.270
370.883	18.124	807.027	614.317
371.898	18.031	806.747	613.715
372.913	18.084	806.138	613.388
373.927	18.327	804.838	613.215
374.942	18.181	804.505	612.385
375.956	18.097	804.097	611.718
376.971	18.246	803.308	611.595
377.986	18.106	803.361	611.083
379.000	18.334	802.766	611.391
380.015	18.386	802.269	611.142
381.029	18.508	801.207	610.714
382.044	18.439	800.833	610.130
383.059	18.352	800.371	609.416
384.073	18.456	799.708	609.224
385.088	18.442	798.816	608.443
386.102	18.398	798.837	608.246
387.117	18.230	797.879	606.869
388.132	18.183	797.486	606.350
389.146	18.269	797.429	606.557
390.161	18.361	796.671	606.252
391.175	18.471	796.589	606.524
392.190	18.458	796.076	606.035
393.205	18.477	795.582	605.673
394.219	18.543	795.027	605.431
395.234	18.414	794.413	604.454
396.248	18.329	794.024	603.803
397.263	18.156	793.631	602.842
398.278	18.099	793.527	602.511
399.292	18.141	792.530	601.847
400.307	18.243	792.263	601.950
401.321	18.315	791.651	601.685
402.336	18.268	791.410	601.284
403.350	18.457	790.929	601.527
404.365	18.469	790.605	601.270
405.380	18.461	790.310	600.966
406.394	18.560	790.050	601.060
407.409	18.680	789.315	600.870
408.423	18.621	789.084	600.434
409.438	18.786	788.484	600.500
410.453	18.737	788.240	600.090
411.467	18.778	787.526	599.636
412.482	18.830	787.004	599.366
413.496	18.728	786.725	598.746
414.511	18.801	786.559	598.820
415.526	18.907	786.307	598.946
416.540	18.889	785.844	598.478
417.555	18.880	785.187	597.894
418.569	18.833	784.809	597.387
419.584	18.901	784.230	597.131
420.599	18.921	783.797	596.819
421.613	155.799	1368.522	1791.849
422.628	134.569	1453.715	1791.968
