DTS Sentinel unit serial number:	SN413079Multiplexer serial number:	ORYXHardware model number:	OX4-SRSoftware version number:	ORYX F/W v4.00 Oryx Data Collector v3.7.2.0data status	okinstallation	princeton_trtdifferential loss correction	single-endedforward channel	channel 3reverse channel	N/Adate	2019/09/13time	07:56:35forward acquisition time	60.00reverse acquisition time	0.00gamma	496.2192k internal	0.2336k external	0.2336temperature offset calibration	1.0137default loss term (dB/km)	0.3790temperature slope calibration	1.0000multiplexer offset coefficient	1.0000multiplexer slope coefficient	1.0000fibre end	0.00T internal ref (°C)	26.75T ext. ref 1 (°C)	4.24T ext. ref 2 (°C)	23.17length (m)	temperature (°C)	Stokes	anti-Stokes-747.200	101.458	-0.097	0.113
-746.185	-200.000	0.088	0.408
-745.171	-91.687	0.366	0.105
-744.156	54.708	-0.227	0.220
-743.142	103.017	0.236	-0.278
-742.127	4.662	-0.148	0.109
-741.112	432.005	-0.104	0.227
-740.098	27.773	-0.143	-0.121
-739.083	-136.126	0.205	-0.024
-738.069	179.987	-0.023	0.034
-737.054	-170.145	0.183	-0.007
-736.039	122.566	-0.070	-0.088
-735.025	-80.170	0.416	0.140
-734.010	-73.637	-0.047	-0.017
-732.996	-200.000	-0.035	0.388
-731.981	299.359	-0.186	-0.344
-730.966	800.000	-0.132	-0.385
-729.952	-107.134	0.072	-0.016
-728.937	-35.640	-0.147	-0.080
-727.923	10.269	-0.199	-0.152
-726.908	-91.225	-0.349	0.100
-725.894	104.660	-0.047	-0.055
-724.879	-200.000	-0.012	-0.427
-723.864	800.000	-0.113	-0.379
-722.850	-200.000	-0.030	-0.597
-721.835	-170.168	0.176	0.006
-720.821	-178.967	-0.275	0.006
-719.806	-200.000	0.025	0.176
-718.791	73.727	0.062	0.066
-717.777	180.131	-0.168	-0.247
-716.762	-82.460	-0.151	-0.049
-715.748	76.818	-0.257	-0.273
-714.733	-90.548	0.224	-0.065
-713.718	161.042	0.121	-0.170
-712.704	-200.000	0.016	0.144
-711.689	-154.941	-0.106	0.007
-710.675	-38.478	-0.134	-0.071
-709.660	-200.000	-0.049	-0.229
-708.645	-200.000	-0.042	-0.196
-707.631	58.439	0.219	-0.216
-706.616	-200.000	0.025	-0.280
-705.602	-83.865	-0.217	-0.069
-704.587	800.000	0.095	0.333
-703.572	-182.814	0.295	-0.005
-702.558	-129.948	-0.148	0.020
-701.543	-159.717	-0.190	-0.011
-700.529	79.713	0.119	-0.128
-699.514	477.865	0.060	0.135
-698.499	52.873	0.161	-0.154
-697.485	-200.000	-0.024	-0.386
-696.470	-200.000	-0.035	0.259
-695.456	-22.192	-0.293	-0.178
-694.441	91.112	-0.104	-0.117
-693.426	-200.000	0.027	-0.226
-692.412	-200.000	-0.024	-0.182
-691.397	-8.547	0.081	-0.055
-690.383	-200.000	-0.013	0.067
-689.368	159.249	-0.197	-0.274
-688.354	-132.142	0.174	-0.023
-687.339	800.000	0.050	0.213
-686.324	68.790	0.249	-0.257
-685.310	-200.000	-0.028	-0.197
-684.295	57.988	-0.187	-0.184
-683.281	800.000	0.155	-0.610
-682.266	405.302	-0.012	0.024
-681.251	-25.300	-0.334	-0.198
-680.237	800.000	0.094	-0.265
-679.222	30.818	-0.063	-0.054
-678.208	-42.103	-0.168	0.086
-677.193	303.303	0.151	-0.281
-676.178	-26.795	0.241	-0.141
-675.164	-167.996	0.262	0.010
-674.149	-35.458	0.115	-0.063
-673.135	133.198	0.119	-0.154
-672.120	-59.191	-0.107	0.046
-671.105	-200.000	-0.059	0.361
-670.091	800.000	-0.121	0.352
-669.076	291.831	-0.113	0.205
-668.062	800.000	-0.019	0.060
-667.047	95.057	0.182	0.207
-666.032	-200.000	0.032	-0.163
-665.018	355.545	-0.192	-0.382
-664.003	-88.132	0.112	0.034
-662.989	-113.766	0.231	-0.045
-661.974	151.927	0.021	0.029
-660.959	-124.714	-0.136	0.021
-659.945	51.455	-0.026	0.025
-658.930	-200.000	-0.007	-0.314
-657.916	400.214	0.068	-0.142
-656.901	25.248	0.034	0.028
-655.886	1.038	0.044	-0.032
-654.872	-63.368	-0.192	0.079
-653.857	-104.314	0.026	-0.006
-652.843	83.163	-0.191	-0.208
-651.828	-34.076	0.287	-0.158
-650.814	-63.048	-0.030	-0.012
-649.799	-22.039	0.086	-0.052
-648.784	10.584	0.073	0.055
-647.770	436.719	-0.127	-0.277
-646.755	96.615	0.061	-0.069
-645.741	-5.496	0.124	-0.085
-644.726	306.333	-0.053	0.098
-643.711	9.541	0.187	0.142
-642.697	-127.711	-0.109	-0.016
-641.682	-73.191	0.069	-0.025
-640.668	-112.614	-0.281	-0.056
-639.653	-9.800	0.190	0.127
-638.638	51.142	0.213	0.202
-637.624	800.000	0.072	-0.255
-636.609	101.758	0.090	-0.105
-635.595	80.733	-0.133	-0.143
-634.580	409.230	-0.178	0.378
-633.565	800.000	0.070	0.234
-632.551	-25.316	-0.117	0.069
-631.536	-7.200	0.120	-0.082
-630.522	-17.513	0.268	0.169
-629.507	-70.620	-0.227	0.086
-628.492	11.047	-0.131	-0.100
-627.478	-200.000	0.054	-0.249
-626.463	-39.194	0.245	0.129
-625.449	-126.952	-0.221	-0.032
-624.434	173.427	-0.044	0.064
-623.419	-200.000	-0.043	0.268
-622.405	800.000	0.054	0.155
-621.390	-139.723	-0.316	0.034
-620.376	-200.000	-0.012	0.054
-619.361	-8.914	-0.064	0.043
-618.346	-200.000	0.039	0.214
-617.332	76.665	-0.284	-0.301
-616.317	27.061	-0.282	0.236
-615.303	-140.904	0.282	0.029
-614.288	738.523	0.054	0.146
-613.273	387.209	0.123	-0.254
-612.259	24.664	0.169	0.140
-611.244	-200.000	0.019	-0.202
-610.230	115.686	-0.132	-0.161
-609.215	-63.132	0.246	0.101
-608.201	10.543	-0.066	0.050
-607.186	442.367	0.059	0.128
-606.171	-116.962	-0.258	0.047
-605.157	800.000	0.135	0.421
-604.142	673.063	-0.045	0.116
-603.128	-61.440	-0.125	-0.052
-602.113	-54.663	-0.053	0.024
-601.098	-89.293	-0.129	0.038
-600.084	-23.998	0.224	-0.134
-599.069	-174.580	-0.177	0.005
-598.055	23.821	0.046	-0.038
-597.040	470.230	-0.152	-0.342
-596.025	218.635	-0.094	0.149
-595.011	-48.438	-0.057	-0.028
-593.996	193.162	-0.130	-0.196
-592.982	800.000	0.060	-0.169
-591.967	-200.000	0.006	-0.304
-590.952	-13.141	0.162	0.105
-589.938	110.279	-0.056	0.067
-588.923	46.727	0.227	-0.211
-587.909	183.409	-0.027	-0.040
-586.894	-64.648	0.121	-0.049
-585.879	-200.000	-0.032	0.165
-584.865	-200.000	-0.014	-0.292
-583.850	-163.245	-0.251	-0.012
-582.836	800.000	-0.043	0.180
-581.821	-61.077	-0.248	-0.104
-580.806	-200.000	-0.015	-0.096
-579.792	251.683	0.197	-0.335
-578.777	-200.000	-0.170	0.001
-577.763	-80.215	-0.153	-0.051
-576.748	-128.448	0.203	-0.029
-575.733	800.000	-0.083	-0.258
-574.719	227.468	-0.135	-0.220
-573.704	-200.000	-0.012	0.256
-572.690	-96.242	-0.491	0.130
-571.675	-200.000	0.034	0.159
-570.661	-142.829	0.151	-0.015
-569.646	38.982	0.313	-0.279
-568.631	184.796	0.085	0.126
-567.617	15.427	-0.216	0.169
-566.602	185.291	0.200	0.296
-565.588	-89.359	-0.182	-0.054
-564.573	-130.655	0.171	-0.023
-563.558	-200.000	-0.011	-0.066
-562.544	330.301	0.024	-0.046
-561.529	-141.641	-0.384	-0.039
-560.515	-95.689	0.205	-0.055
-559.500	-144.896	-0.188	-0.017
-558.485	-57.800	-0.151	-0.066
-557.471	53.905	-0.127	-0.122
-556.456	-40.278	-0.215	0.112
-555.442	200.615	-0.158	-0.242
-554.427	-200.000	0.006	0.156
-553.412	-102.465	0.276	-0.066
-552.398	355.591	-0.022	-0.044
-551.383	-131.241	0.395	0.052
-550.369	800.000	-0.085	0.366
-549.354	-44.219	0.305	0.153
-548.339	11.058	0.213	0.162
-547.325	538.448	-0.019	0.045
-546.310	-95.258	-0.292	-0.078
-545.296	-41.804	-0.069	0.035
-544.281	-200.000	0.016	-0.225
-543.266	-11.109	-0.161	-0.106
-542.252	409.083	-0.139	0.292
-541.237	175.631	-0.066	-0.096
-540.223	-43.113	0.082	-0.041
-539.208	127.739	-0.215	-0.272
-538.193	141.755	-0.125	-0.165
-537.179	800.000	0.006	0.018
-536.164	74.603	0.057	-0.060
-535.150	-105.516	0.237	0.054
-534.135	10.926	0.266	0.203
-533.121	45.046	0.068	-0.062
-532.106	-200.000	-0.028	-0.296
-531.091	-85.792	0.114	-0.035
-530.077	223.336	-0.105	0.169
-529.062	306.357	-0.142	-0.264
-528.048	-200.000	0.029	-0.132
-527.033	800.000	-0.065	-0.203
-526.018	102.627	-0.230	-0.268
-525.004	117.102	0.150	0.183
-523.989	-148.668	-0.265	-0.021
-522.975	-27.660	-0.214	-0.124
-521.960	125.383	0.045	0.057
-520.945	-74.562	0.263	-0.094
-519.931	239.452	0.122	0.203
-518.916	-200.000	0.020	-0.163
-517.902	103.851	-0.117	0.137
-516.887	-153.305	-0.184	-0.013
-515.872	-200.000	0.073	0.337
-514.858	27.136	-0.079	-0.066
-513.843	76.376	-0.110	0.116
-512.829	800.000	0.088	-0.283
-511.814	42.172	-0.078	-0.071
-510.799	-200.000	0.073	0.438
-509.785	247.826	0.160	-0.269
-508.770	-131.520	-0.388	0.051
-507.756	310.259	-0.141	-0.263
-506.741	-133.602	-0.078	0.010
-505.726	-189.140	-0.388	0.005
-504.712	696.486	-0.107	-0.279
-503.697	800.000	-0.019	-0.062
-502.683	25.642	-0.248	0.205
-501.668	800.000	-0.044	-0.181
-500.653	-200.000	-0.070	-0.331
-499.639	-200.000	-0.016	0.247
-498.624	800.000	-0.054	0.205
-497.610	-123.627	-0.276	-0.044
-496.595	-82.751	0.370	-0.119
-495.581	414.724	-0.176	-0.372
-494.566	-65.475	-0.298	0.119
-493.551	-114.265	0.108	-0.021
-492.537	-113.442	-0.084	0.016
-491.522	-123.642	0.019	-0.003
-490.508	5.465	0.060	0.044
-489.493	-200.000	0.016	0.134
-488.478	-200.000	0.037	-0.399
-487.464	800.000	-0.060	-0.196
-486.449	800.000	0.128	-0.385
-485.435	-26.814	0.208	-0.121
-484.420	660.732	-0.195	0.498
-483.405	-200.000	0.031	0.178
-482.391	-82.842	-0.325	-0.104
-481.376	-29.055	0.246	-0.140
-480.362	-119.205	-0.178	-0.031
-479.347	-146.649	0.153	0.013
-478.332	679.417	-0.110	-0.285
-477.318	-200.000	0.036	0.163
-476.303	-37.531	0.223	0.118
-475.289	339.024	0.081	-0.157
-474.274	-30.598	0.090	0.051
-473.259	42.727	-0.103	0.093
-472.245	342.215	0.173	-0.335
-471.230	-17.537	0.086	0.054
-470.216	800.000	-0.058	-0.248
-469.201	421.895	0.070	0.149
-468.186	739.682	-0.117	0.312
-467.172	800.000	-0.085	-0.303
-466.157	9.742	-0.218	0.164
-465.143	800.000	-0.075	0.290
-464.128	-21.002	-0.269	-0.164
-463.113	172.966	0.161	-0.231
-462.099	219.731	-0.276	0.439
-461.084	149.586	-0.050	0.067
-460.070	291.369	-0.136	-0.245
-459.055	-147.308	-0.278	-0.023
-458.040	-200.000	0.009	0.265
-457.026	-200.000	-0.033	-0.422
-456.011	-132.552	0.207	0.026
-454.997	584.033	0.029	0.070
-453.982	80.624	0.042	0.045
-452.968	-200.000	-0.027	0.319
-451.953	343.172	0.197	0.382
-450.938	103.931	0.186	0.217
-449.924	-92.805	0.083	0.023
-448.909	-4.824	-0.041	0.028
-447.895	354.233	-0.050	0.098
-446.880	-110.374	0.319	-0.066
-445.865	-38.089	0.093	0.049
-444.851	178.514	-0.235	0.341
-443.836	-68.800	-0.070	-0.027
-442.822	443.275	-0.109	0.236
-441.807	-43.285	-0.304	-0.153
-440.792	800.000	-0.077	0.330
-439.778	279.003	0.097	0.171
-438.763	-88.364	0.155	-0.046
-437.749	-148.160	-0.329	-0.027
-436.734	202.055	-0.152	-0.233
-435.719	-59.169	-0.170	0.073
-434.705	-200.000	-0.017	-0.161
-433.690	-200.000	0.041	0.404
-432.676	800.000	0.057	0.226
-431.661	-200.000	0.023	0.113
-430.646	48.393	-0.079	-0.073
-429.632	181.979	0.098	-0.144
-428.617	-114.684	0.195	0.037
-427.603	-25.584	0.207	-0.121
-426.588	-135.499	-0.150	-0.018
-425.573	410.120	-0.104	0.218
-424.559	90.619	0.213	0.237
-423.544	-127.270	0.141	0.020
-422.530	-66.719	-0.251	0.098
-421.515	65.995	0.089	0.090
-420.500	800.000	0.089	0.300
-419.486	800.000	0.059	-0.168
-418.471	-200.000	0.029	0.208
-417.457	800.000	0.025	-0.104
-416.442	-200.000	0.027	-0.392
-415.428	23.409	-0.130	0.106
-414.413	-73.568	-0.061	-0.022
-413.398	-66.307	-0.282	0.111
-412.384	-134.211	0.324	-0.040
-411.369	-200.000	0.133	-0.000
-410.355	-158.767	0.147	0.008
-409.340	195.926	-0.144	-0.217
-408.325	121.673	-0.164	-0.203
-407.311	-200.000	-0.013	-0.147
-406.296	-57.716	-0.041	0.018
-405.282	28.328	0.187	-0.156
-404.267	78.772	-0.222	0.236
-403.252	-167.664	0.245	-0.010
-402.238	-40.597	-0.095	-0.049
-401.223	-157.348	0.109	-0.007
-400.209	-11.809	0.069	-0.045
-399.194	227.617	-0.038	0.061
-398.179	-18.928	-0.121	-0.075
-397.165	-137.380	0.225	0.025
-396.150	-96.510	-0.321	0.084
-395.136	216.090	-0.111	-0.175
-394.121	118.867	0.237	-0.290
-393.106	-67.171	-0.215	-0.084
-392.092	127.373	0.139	0.175
-391.077	-161.121	0.212	-0.011
-390.063	-200.000	-0.007	0.142
-389.048	-61.223	0.400	-0.167
-388.033	-89.818	-0.331	0.096
-387.019	716.611	-0.142	-0.373
-386.004	-39.294	0.058	-0.030
-384.990	-27.244	0.290	0.167
-383.975	-200.000	-0.023	0.143
-382.960	-29.263	0.638	0.362
-381.946	2.132	0.104	-0.075
-380.931	105.676	-0.070	0.082
-379.917	516.010	0.099	0.229
-378.902	800.000	0.076	-0.252
-377.888	800.000	0.091	0.253
-376.873	-82.430	-0.154	0.050
-375.858	-200.000	-0.003	-0.190
-374.844	51.842	-0.051	-0.048
-373.829	18.788	-0.300	-0.238
-372.815	-192.118	0.267	0.003
-371.800	-200.000	-0.006	-0.186
-370.785	71.727	0.203	-0.209
-369.771	709.157	-0.043	0.112
-368.756	2.785	0.113	-0.081
-367.742	-83.856	0.325	-0.102
-366.727	-200.000	0.009	0.189
-365.712	72.640	0.258	0.267
-364.698	800.000	-0.061	0.167
-363.683	800.000	0.033	0.101
-362.669	-200.000	-0.013	0.058
-361.654	-74.577	-0.205	-0.073
-360.639	15.778	0.046	-0.036
-359.625	214.487	-0.142	-0.223
-358.610	242.462	-0.155	-0.257
-357.596	509.998	0.107	-0.245
-356.581	-3.040	0.109	0.075
-355.566	373.131	-0.149	-0.301
-354.552	-72.039	0.215	0.079
-353.537	82.174	-0.082	-0.088
-352.523	800.000	-0.009	-0.025
-351.508	47.612	-0.172	-0.159
-350.493	194.073	0.062	-0.093
-349.479	211.105	-0.263	-0.410
-348.464	-200.000	-0.014	-0.120
-347.450	181.882	0.146	-0.213
-346.435	216.431	-0.145	0.228
-345.420	-24.995	0.106	0.062
-344.406	-43.285	0.172	0.086
-343.391	654.255	0.052	-0.131
-342.377	36.157	0.158	0.137
-341.362	341.141	-0.085	0.164
-340.348	-62.697	-0.228	-0.093
-339.333	-95.768	0.253	-0.067
-338.318	-200.000	-0.001	-0.153
-337.304	-49.034	0.010	-0.005
-336.289	716.354	-0.067	-0.175
-335.275	-164.088	0.126	-0.006
-334.260	800.000	0.171	0.559
-333.245	-163.231	0.213	0.010
-332.231	-130.170	0.451	-0.061
-331.216	233.081	0.021	0.034
-330.202	-200.000	-0.041	0.226
-329.187	60.489	0.072	-0.071
-328.172	142.495	0.120	0.158
-327.158	425.445	-0.060	-0.127
-326.143	-200.000	-0.010	0.373
-325.129	-62.050	-0.094	0.039
-324.114	21.447	-0.139	0.112
-323.099	30.553	0.076	0.064
-322.085	87.477	-0.194	-0.212
-321.070	-157.895	0.122	-0.007
-320.056	-18.575	0.229	-0.141
-319.041	-110.373	-0.295	-0.061
-318.026	26.799	0.107	0.089
-317.012	-200.000	-0.058	-0.271
-315.997	138.486	-0.235	0.305
-314.983	-200.000	0.042	0.410
-313.968	800.000	0.096	0.295
-312.953	270.769	0.053	0.092
-311.939	-52.073	-0.089	0.041
-310.924	800.000	-0.192	0.557
-309.910	-70.447	0.384	0.144
-308.895	-38.505	-0.069	0.036
-307.880	-61.925	-0.134	-0.055
-306.866	149.590	0.105	-0.141
-305.851	-119.350	0.253	-0.043
-304.837	-114.007	-0.167	0.032
-303.822	330.808	-0.102	0.194
-302.807	127.258	0.107	-0.133
-301.793	-83.437	-0.281	-0.089
-300.778	-200.000	-0.036	0.250
-299.764	44.272	0.038	0.035
-298.749	-107.014	-0.339	0.074
-297.735	551.042	0.059	-0.139
-296.720	-175.180	-0.195	-0.005
-295.705	-93.811	-0.076	0.021
-294.691	-52.519	-0.157	0.071
-293.676	-58.872	-0.264	0.113
-292.662	162.282	-0.081	-0.112
-291.647	461.227	0.148	-0.325
-290.632	218.672	0.090	-0.142
-289.618	-62.767	0.342	0.140
-288.603	-200.000	0.025	0.147
-287.589	-13.502	-0.118	0.076
-286.574	800.000	-0.097	-0.312
-285.559	800.000	0.094	0.350
-284.545	130.097	-0.205	0.259
-283.530	-109.130	-0.201	0.042
-282.516	781.600	0.136	0.366
-281.501	344.335	0.136	0.264
-280.486	-200.000	-0.015	-0.292
-279.472	-200.000	-0.022	-0.238
-278.457	-80.115	0.020	0.007
-277.443	-200.000	0.006	-0.179
-276.428	64.475	-0.236	-0.235
-275.413	-200.000	0.007	-0.149
-274.399	-31.802	-0.145	-0.080
-273.384	-200.000	0.017	0.439
-272.370	104.480	0.242	-0.281
-271.355	-53.354	-0.115	0.052
-270.340	23.782	-0.129	-0.105
-269.326	114.644	0.212	0.255
-268.311	-200.000	0.019	0.084
-267.297	-200.000	0.045	0.251
-266.282	800.000	-0.044	0.130
-265.267	-175.034	-0.205	0.006
-264.253	113.215	-0.143	-0.171
-263.238	-132.856	0.354	0.045
-262.224	800.000	-0.043	-0.172
-261.209	554.891	-0.076	0.181
-260.195	800.000	-0.100	0.416
-259.180	-85.645	-0.104	-0.032
-258.165	110.485	0.090	-0.106
-257.151	-80.780	0.175	0.057
-256.136	637.447	0.045	0.112
-255.122	-200.000	-0.021	-0.149
-254.107	359.825	0.098	-0.192
-253.092	618.712	0.089	0.220
-252.078	-28.988	-0.263	-0.149
-251.063	64.381	-0.291	-0.289
-250.049	752.055	-0.073	0.195
-249.034	63.306	0.052	0.051
-248.019	-30.869	-0.097	-0.054
-247.005	-68.845	0.165	0.063
-245.990	800.000	-0.035	0.117
-244.976	-100.170	0.218	0.053
-243.961	800.000	0.075	0.309
-242.946	-102.671	0.388	-0.091
-241.932	-200.000	-0.216	0.001
-240.917	-3.612	-0.232	-0.159
-239.903	97.515	0.132	0.149
-238.888	-145.443	-0.204	0.018
-237.873	144.563	0.087	-0.115
-236.859	65.625	-0.094	-0.094
-235.844	-200.000	0.019	0.192
-234.830	137.223	-0.087	-0.112
-233.815	-158.500	0.378	-0.021
-232.800	-200.000	-0.001	-0.034
-231.786	89.623	0.141	-0.155
-230.771	-56.543	-0.144	0.063
-229.757	-77.382	-0.121	-0.041
-228.742	-124.298	-0.212	0.033
-227.727	167.714	0.134	0.187
-226.713	162.127	-0.090	-0.125
-225.698	-123.323	0.291	-0.046
-224.684	-200.000	0.013	0.200
-223.669	-11.319	0.072	-0.047
-222.655	579.288	0.010	-0.024
-221.640	-33.579	-0.381	-0.207
-220.625	-64.214	0.078	-0.031
-219.611	-77.194	0.253	0.087
-218.596	800.000	0.060	-0.204
-217.582	-119.389	-0.078	0.013
-216.567	-138.666	0.253	0.027
-215.552	56.144	0.350	-0.334
-214.538	-1.276	0.100	-0.069
-213.523	333.219	-0.061	0.116
-212.509	10.635	0.367	-0.275
-211.494	800.000	-0.044	0.121
-210.479	5.212	0.301	0.218
-209.465	-150.285	0.156	0.012
-208.450	20.481	-0.285	-0.227
-207.436	-61.444	0.350	-0.145
-206.421	46.117	-0.142	0.130
-205.406	-78.681	0.226	0.076
-204.392	-200.000	0.009	0.177
-203.377	-40.171	-0.050	-0.026
-202.363	-200.000	-0.018	0.100
-201.348	-69.101	-0.248	0.094
-200.333	-124.502	0.061	-0.009
-199.319	-110.098	-0.214	-0.044
-198.304	-200.000	-0.004	-0.117
-197.290	116.951	-0.102	0.123
-196.275	-50.471	0.271	-0.126
-195.260	-156.577	-0.201	-0.012
-194.246	64.271	-0.052	0.051
-193.231	194.932	0.049	-0.074
-192.217	244.419	-0.107	-0.177
-191.202	-186.114	0.030	-0.000
-190.187	86.817	-0.102	-0.110
-189.173	182.225	-0.079	0.114
-188.158	279.148	0.017	0.030
-187.144	-139.697	-0.085	0.009
-186.129	194.796	-0.006	0.009
-185.114	800.000	-0.061	0.229
-184.100	448.539	0.166	-0.360
-183.085	-200.000	0.039	0.172
-182.071	-200.000	-0.002	0.164
-181.056	-200.000	0.010	0.119
-180.042	-200.000	-0.025	-0.209
-179.027	32.623	0.192	-0.163
-178.012	-200.000	-0.008	-0.304
-176.998	-48.799	0.203	0.096
-175.983	-200.000	0.046	-0.201
-174.969	-11.487	-0.078	-0.051
-173.954	-142.060	-0.064	0.006
-172.939	119.196	0.081	0.099
-171.925	-200.000	0.039	0.171
-170.910	120.913	0.162	0.198
-169.896	-64.224	-0.276	-0.110
-168.881	800.000	-0.057	0.160
-167.866	-152.161	-0.437	-0.031
-166.852	-91.800	0.078	0.022
-165.837	108.082	-0.290	-0.340
-164.823	60.193	0.263	-0.256
-163.808	-200.000	0.007	-0.060
-162.793	-29.356	-0.207	-0.116
-161.779	7.895	0.367	-0.270
-160.764	183.690	0.153	0.221
-159.750	37.323	0.157	0.136
-158.735	-161.893	0.545	-0.027
-157.720	800.000	-0.022	0.069
-156.706	95.420	0.078	0.087
-155.691	-110.976	0.195	-0.039
-154.677	-15.614	0.212	-0.133
-153.662	248.760	-0.036	-0.059
-152.647	-49.213	0.213	0.100
-151.633	-38.156	-0.055	-0.029
-150.618	183.865	-0.094	-0.137
-149.604	19.045	0.164	0.129
-148.589	84.308	0.089	0.095
-147.574	-200.000	-0.012	-0.139
-146.560	-89.884	0.280	0.080
-145.545	-200.000	0.019	0.351
-144.531	-24.634	-0.187	0.109
-143.516	21.652	0.002	0.002
-142.502	-200.000	-0.256	0.001
-141.487	306.010	-0.119	0.217
-140.472	82.589	-0.069	-0.073
-139.458	286.808	-0.049	0.087
-138.443	800.000	0.073	0.314
-137.429	-69.289	0.045	0.017
-136.414	-200.000	0.003	-0.282
-135.399	-116.451	0.241	-0.044
-134.385	-52.485	-0.125	0.057
-133.370	273.102	-0.031	-0.054
-132.356	-48.493	-0.213	0.101
-131.341	-200.000	0.002	-0.265
-130.326	166.039	-0.020	-0.028
-129.312	49.137	0.280	-0.258
-128.297	800.000	-0.008	-0.032
-127.283	338.156	-0.242	0.462
-126.268	-85.765	0.046	0.014
-125.253	-200.000	0.151	-0.001
-124.239	15.265	0.135	-0.104
-123.224	-104.873	-0.275	-0.062
-122.210	-85.442	0.154	0.047
-121.195	800.000	-0.027	0.074
-120.180	-51.394	-0.198	0.091
-119.166	-200.000	0.049	-0.507
-118.151	-200.000	-0.002	-0.123
-117.137	20.721	-0.046	-0.036
-116.122	411.864	0.050	-0.104
-115.107	-200.000	0.015	-0.165
-114.093	210.153	-0.178	0.273
-113.078	-58.839	0.094	0.040
-112.064	151.059	0.168	0.224
-111.049	798.442	-0.036	-0.097
-110.034	25.457	-0.041	0.034
-109.020	631.007	0.132	0.327
-108.005	721.360	0.068	-0.176
-106.991	-21.871	-0.137	-0.082
-105.976	343.386	-0.143	-0.274
-104.962	-200.000	-0.017	0.215
-103.947	55.305	-0.036	0.034
-102.932	-65.716	0.107	-0.042
-101.918	-200.000	-0.010	0.136
-100.903	526.248	0.162	-0.373
-99.889	-62.307	0.120	-0.049
-98.874	86.577	-0.170	-0.184
-97.859	307.352	0.138	-0.252
-96.845	-137.735	-0.209	0.023
-95.830	-200.000	0.107	-0.561
-94.816	131.263	0.088	-0.110
-93.801	800.000	0.050	0.135
-92.786	37.086	-0.257	-0.222
-91.772	-111.778	0.324	0.064
-90.757	-78.999	0.267	-0.089
-89.743	-200.000	0.013	-0.314
-88.728	800.000	0.065	0.276
-87.713	27.717	0.156	-0.128
-86.699	800.000	-0.055	0.158
-85.684	646.250	-0.137	-0.342
-84.670	-98.244	-0.279	-0.070
-83.655	33.809	-0.119	0.101
-82.640	-46.110	-0.111	-0.054
-81.626	-200.000	0.008	-0.102
-80.611	-96.343	0.022	-0.006
-79.597	800.000	-0.042	-0.164
-78.582	-149.206	0.210	-0.016
-77.567	-85.348	0.126	-0.039
-76.553	800.000	0.054	0.152
-75.538	165.189	-0.147	0.203
-74.524	-69.266	-0.178	0.067
-73.509	-200.000	-0.011	0.278
-72.494	800.000	-0.049	-0.155
-71.480	66.622	-0.083	-0.083
-70.465	-128.902	0.301	0.041
-69.451	51.596	-0.319	0.297
-68.436	-119.547	0.301	-0.051
-67.422	-200.000	-0.010	0.216
-66.407	800.000	-0.054	0.220
-65.392	-200.000	0.011	-0.116
-64.378	-68.972	0.172	-0.065
-63.363	213.113	-0.181	-0.279
-62.349	262.224	-0.229	-0.389
-61.334	56.641	-1.090	-1.037
-60.319	182.973	0.525	0.757
-59.305	273.812	-0.617	-1.067
-58.290	489.606	0.605	1.353
-57.276	800.000	0.565	1.840
-56.261	-200.000	115.615	656.041
-55.246	525.892	1537.773	3540.501
-54.232	175.864	2708.110	3842.146
-53.217	107.223	2182.102	2536.030
-52.203	37.505	1700.676	1474.804
-51.188	29.806	1517.070	1263.202
-50.173	27.678	1491.801	1227.799
-49.159	52.547	1551.446	1448.227
-48.144	50.349	1566.325	1447.002
-47.130	29.982	1521.971	1268.285
-46.115	27.058	1506.206	1235.247
-45.100	26.782	1503.206	1230.863
-44.086	26.812	1501.023	1229.232
-43.071	26.727	1499.405	1227.280
-42.057	26.679	1497.784	1225.582
-41.042	26.724	1496.381	1224.683
-40.027	26.687	1495.263	1223.471
-39.013	26.664	1493.702	1221.990
-37.998	26.681	1492.213	1220.837
-36.984	26.711	1491.457	1220.373
-35.969	26.711	1489.976	1219.117
-34.954	26.742	1488.697	1218.227
-33.940	26.704	1487.027	1216.557
-32.925	26.713	1485.733	1215.513
-31.911	26.827	1484.010	1214.821
-30.896	26.901	1482.584	1214.094
-29.881	26.759	1481.579	1212.275
-28.867	26.830	1480.490	1211.814
-27.852	26.779	1479.077	1210.267
-26.838	26.843	1477.646	1209.474
-25.823	26.791	1476.279	1207.961
-24.809	26.770	1474.876	1206.623
-23.794	26.825	1473.046	1205.447
-22.779	26.696	1472.020	1203.700
-21.765	26.831	1470.989	1203.707
-20.750	26.830	1470.123	1202.947
-19.736	26.730	1468.874	1201.209
-18.721	26.800	1467.824	1200.768
-17.706	26.745	1466.491	1199.269
-16.692	26.714	1465.716	1198.382
-15.677	26.730	1464.621	1197.546
-14.663	26.703	1463.728	1196.587
-13.648	26.777	1462.384	1195.927
-12.633	26.676	1461.635	1194.601
-11.619	26.842	1460.506	1194.727
-10.604	26.741	1460.060	1193.646
-9.590	26.684	1459.524	1192.787
-8.575	26.742	1458.691	1192.442
-7.560	26.765	1457.403	1191.490
-6.546	26.708	1456.375	1190.230
-5.531	26.776	1455.741	1190.110
-4.517	26.695	1455.110	1189.019
-3.502	26.859	1453.415	1188.663
-2.487	26.834	1452.482	1187.685
-1.473	26.667	1451.695	1185.901
-0.458	26.691	1450.288	1184.862
0.556	28.564	1440.925	1175.079
1.571	25.844	1416.778	1138.130
2.586	22.647	1355.968	1069.824
3.600	20.998	1273.486	995.252
4.615	19.659	1228.267	952.453
5.629	17.117	1172.146	895.465
6.644	10.301	1090.249	799.283
7.659	5.145	1053.281	747.471
8.673	4.411	1047.748	739.982
9.688	4.352	1044.133	737.081
10.702	4.004	1042.909	734.501
11.717	4.174	1040.331	733.429
12.731	6.635	1042.779	746.747
13.746	13.771	1052.790	787.850
14.761	20.094	1060.812	823.940
15.775	22.057	1062.439	834.466
16.790	21.765	1061.144	831.992
17.804	20.750	1059.564	825.867
18.819	19.953	1057.271	820.230
19.834	19.660	1055.867	817.684
20.848	19.370	1055.442	815.912
21.863	19.448	1054.747	815.670
22.877	19.379	1054.386	814.992
23.892	19.175	1053.669	813.404
24.907	18.941	1053.005	811.714
25.921	18.920	1052.101	810.847
26.936	18.861	1051.345	809.914
27.950	18.919	1050.169	809.208
28.965	18.892	1048.916	808.042
29.980	19.036	1048.010	807.953
30.994	19.226	1047.428	808.324
32.009	19.350	1045.880	807.637
33.023	19.386	1045.605	807.522
34.038	19.295	1044.786	806.394
35.053	19.215	1044.011	805.351
36.067	19.124	1043.173	804.207
37.082	18.976	1041.924	802.483
38.096	19.145	1040.859	802.378
39.111	19.182	1040.823	802.451
40.126	19.245	1039.633	801.756
41.140	19.134	1038.336	800.171
42.155	18.936	1036.494	797.760
43.169	18.770	1035.794	796.383
44.184	18.503	1034.995	794.460
45.199	18.468	1033.840	793.338
46.213	18.401	1033.696	792.848
47.228	18.629	1032.249	792.723
48.242	19.006	1031.439	793.771
49.257	19.072	1030.847	793.551
50.271	19.077	1029.823	792.715
51.286	19.115	1028.974	792.164
52.301	19.125	1028.410	791.707
53.315	19.087	1027.500	790.764
54.330	19.121	1026.055	789.737
55.344	18.804	1025.905	788.097
56.359	18.734	1024.879	786.917
57.374	18.906	1023.538	786.607
58.388	18.848	1022.609	785.556
59.403	18.723	1021.578	784.126
60.417	18.618	1020.660	782.872
61.432	18.580	1020.662	782.629
62.447	18.688	1019.558	782.206
63.461	18.541	1018.864	780.935
64.476	18.421	1017.883	779.569
65.490	18.454	1016.765	778.792
66.505	18.402	1015.788	777.740
67.520	18.367	1015.484	777.280
68.534	18.448	1014.668	776.955
69.549	18.467	1014.214	776.623
70.563	18.379	1013.440	775.562
71.578	18.363	1012.325	774.568
72.593	18.319	1011.323	773.537
73.607	18.151	1010.357	771.971
74.622	18.114	1009.483	771.068
75.636	18.271	1008.764	771.158
76.651	18.274	1008.036	770.545
77.666	18.356	1007.098	770.129
78.680	18.417	1006.434	769.827
79.695	18.443	1006.053	769.582
80.709	18.429	1005.396	768.952
81.724	18.459	1004.833	768.586
82.739	18.672	1004.033	768.860
83.753	18.636	1003.610	768.307
84.768	18.937	1002.978	769.102
85.782	19.285	1002.159	769.960
86.797	19.482	1001.667	770.395
87.812	19.606	1000.899	770.290
88.826	19.337	999.891	768.248
89.841	19.256	998.975	767.117
90.855	19.275	998.128	766.483
91.870	19.285	997.834	766.233
92.884	19.474	997.318	766.607
93.899	19.375	996.291	765.312
94.914	19.350	995.311	764.378
95.928	19.361	995.049	764.161
96.943	19.422	994.116	763.645
97.957	19.327	993.260	762.500
98.972	19.199	992.485	761.270
99.987	19.166	991.742	760.489
101.001	19.183	990.789	759.766
102.016	19.298	989.727	759.390
103.030	19.344	988.992	758.964
104.045	19.256	988.138	757.852
105.060	19.318	987.158	757.306
106.074	19.235	986.108	756.070
107.089	18.937	985.316	754.089
108.103	18.679	983.921	751.822
109.118	18.567	983.315	750.804
110.133	18.629	982.279	750.220
111.147	18.443	981.569	748.799
112.162	18.444	980.367	747.817
113.176	18.568	979.675	747.763
114.191	18.686	978.954	747.665
115.206	18.639	978.431	746.994
116.220	18.671	977.687	746.498
117.235	18.635	976.573	745.423
118.249	18.629	975.741	744.699
119.264	18.530	974.658	743.376
120.279	18.527	974.055	742.837
121.293	18.414	973.058	741.524
122.308	18.334	972.032	740.328
123.322	18.267	971.211	739.347
124.337	18.169	970.284	738.154
125.352	18.232	968.923	737.326
126.366	18.151	968.065	736.259
127.381	18.159	967.015	735.428
128.395	18.234	965.940	734.867
129.410	18.400	964.839	734.677
130.424	18.262	964.591	733.833
131.439	18.449	963.641	733.845
132.454	18.496	963.033	733.519
133.468	18.597	962.077	733.159
134.483	18.572	961.635	732.647
135.497	18.728	960.840	732.645
136.512	18.705	960.459	732.191
137.527	18.666	959.545	731.264
138.541	18.589	958.881	730.364
139.556	18.675	958.347	730.259
140.570	18.626	957.265	729.163
141.585	18.816	957.044	729.736
142.600	19.046	956.491	730.227
143.614	19.313	955.397	730.459
144.629	19.352	954.475	729.853
145.643	19.371	954.245	729.692
146.658	19.293	953.091	728.415
147.673	19.154	952.221	727.099
148.687	18.924	951.152	725.248
149.702	18.870	950.032	724.102
150.716	18.692	949.474	722.865
151.731	18.691	948.273	721.882
152.746	18.691	947.903	721.539
153.760	18.832	946.816	721.236
154.775	18.818	946.493	720.871
155.789	18.952	945.720	720.781
156.804	18.963	944.837	720.088
157.819	18.943	944.253	719.495
158.833	19.006	943.413	719.053
159.848	19.241	942.962	719.631
160.862	19.468	942.152	719.893
161.877	19.375	941.632	719.047
162.892	18.935	940.427	716.231
163.906	18.791	939.244	714.667
164.921	18.755	938.252	713.699
165.935	18.653	937.447	712.598
166.950	18.873	935.929	712.293
167.964	18.898	935.459	711.977
168.979	18.822	934.669	710.997
169.994	18.837	933.557	710.152
171.008	18.725	932.489	708.815
172.023	18.760	932.413	708.838
173.037	19.055	931.648	709.411
174.052	19.262	931.214	709.872
175.067	19.175	930.041	708.557
176.081	18.918	928.770	706.469
177.096	18.732	927.958	705.023
178.110	18.646	927.183	704.019
179.125	18.658	926.680	703.625
180.140	18.752	925.583	703.115
181.154	18.817	924.989	702.869
182.169	18.935	925.045	703.329
183.183	19.189	924.187	703.655
184.198	19.268	923.890	703.689
185.213	19.264	922.683	702.690
186.227	19.293	922.367	702.506
187.242	19.209	922.034	701.849
188.256	19.377	921.640	702.169
189.271	19.389	921.130	701.767
190.286	19.543	920.113	701.559
191.300	19.199	919.356	699.520
192.315	18.809	917.669	696.596
193.329	18.449	917.387	694.859
194.344	18.642	916.566	694.956
195.359	18.684	915.996	694.633
196.373	19.000	915.480	695.458
197.388	18.961	915.410	695.187
198.402	19.326	914.664	696.034
199.417	19.350	914.601	696.021
200.432	19.600	914.261	696.707
201.446	19.626	913.898	696.474
202.461	19.711	913.702	696.605
203.475	19.778	913.235	696.456
204.490	19.818	912.261	695.814
205.504	19.612	911.134	694.066
206.519	19.331	910.588	692.458
207.534	19.246	909.575	691.288
208.548	19.288	909.063	691.006
209.563	19.443	908.450	691.100
210.577	19.332	907.322	689.735
211.592	19.396	907.353	689.954
212.607	19.486	906.878	689.891
213.621	19.666	906.391	690.178
214.636	19.627	905.396	689.204
215.650	19.581	904.641	688.385
216.665	19.514	904.389	687.866
217.680	19.665	903.823	687.976
218.694	19.823	903.755	688.495
219.709	19.915	902.775	688.052
220.723	19.804	901.983	686.945
221.738	19.744	901.315	686.138
222.753	19.787	900.626	685.722
223.767	19.718	899.653	684.649
224.782	19.674	899.051	683.954
225.796	19.860	898.466	684.184
226.811	20.127	897.431	684.392
227.826	19.826	897.287	683.033
228.840	19.794	896.183	682.004
229.855	19.561	895.660	680.627
230.869	19.568	895.231	680.271
231.884	19.561	894.220	679.415
232.899	19.648	893.400	679.073
233.913	19.545	892.559	677.968
234.928	19.476	891.877	677.121
235.942	19.406	891.168	676.249
236.957	19.443	890.613	675.911
237.972	19.336	890.106	675.049
238.986	19.358	889.582	674.676
240.001	19.349	888.609	673.843
241.015	19.385	887.970	673.440
242.030	19.410	887.515	673.134
243.045	19.608	886.896	673.375
244.059	19.737	886.233	673.316
245.074	19.557	885.813	672.238
246.088	19.738	885.434	672.593
247.103	19.823	884.702	672.308
248.117	19.909	884.442	672.388
249.132	19.998	883.936	672.288
250.147	20.240	883.766	673.039
251.161	20.571	883.128	673.776
252.176	20.728	882.518	673.858
253.190	20.525	882.166	672.742
254.205	20.618	881.816	672.776
255.220	20.746	880.788	672.428
256.234	20.680	879.966	671.485
257.249	20.554	879.961	670.937
258.263	20.607	879.158	670.468
259.278	20.557	878.491	669.707
260.293	20.621	878.074	669.577
261.307	20.900	877.015	669.782
262.322	20.722	876.756	668.842
263.336	20.670	876.205	668.166
264.351	20.838	875.644	668.321
265.366	20.836	874.779	667.593
266.380	20.946	874.311	667.598
267.395	20.824	873.450	666.417
268.409	20.627	872.971	665.239
269.424	20.634	872.163	664.591
270.439	20.662	871.623	664.229
271.453	20.522	870.781	662.994
272.468	20.426	870.295	662.197
273.482	20.427	869.402	661.463
274.497	20.473	868.589	660.962
275.512	20.463	867.957	660.385
276.526	20.414	867.301	659.640
277.541	20.455	866.749	659.317
278.555	20.522	866.207	659.101
279.570	20.649	866.207	659.526
280.585	20.828	865.975	659.968
281.599	20.847	864.904	659.164
282.614	20.773	863.983	658.125
283.628	20.500	863.466	656.642
284.643	20.542	863.060	656.435
285.657	20.623	862.362	656.150
286.672	20.481	861.808	655.135
287.687	20.466	861.505	654.792
288.701	20.563	860.864	654.610
289.716	20.737	860.255	654.743
290.730	20.640	859.724	653.916
291.745	20.740	858.836	653.561
292.760	20.778	858.476	653.370
293.774	20.829	857.736	652.942
294.789	21.045	857.617	653.601
295.803	21.076	856.919	653.130
296.818	20.766	856.165	651.337
297.833	20.564	855.761	650.216
298.847	20.611	854.853	649.645
299.862	20.782	853.900	649.500
300.876	20.560	853.674	648.444
301.891	20.708	853.186	648.568
302.906	20.898	852.656	648.814
303.920	21.133	851.868	649.032
304.935	21.277	851.268	649.053
305.949	21.377	850.878	649.069
306.964	21.225	850.442	648.114
307.979	21.088	849.893	647.129
308.993	21.122	848.938	646.471
310.008	21.140	848.614	646.233
311.022	21.276	848.048	646.249
312.037	21.207	847.435	645.471
313.052	20.937	847.065	644.134
314.066	21.033	846.037	643.647
315.081	20.697	845.365	641.840
316.095	20.610	844.539	640.835
317.110	20.767	844.233	641.128
318.125	20.768	843.818	640.759
319.139	20.770	843.200	640.238
320.154	20.561	843.363	639.537
321.168	20.752	842.241	639.331
322.183	20.833	841.784	639.224
323.197	20.875	841.447	639.068
324.212	20.930	840.525	638.511
325.227	21.009	840.190	638.490
326.241	20.933	839.426	637.574
327.256	20.778	839.125	636.724
328.270	20.720	838.462	635.952
329.285	20.795	837.891	635.735
330.300	20.814	837.431	635.400
331.314	20.790	836.790	634.770
332.329	20.837	836.237	634.465
333.343	20.962	835.858	634.577
334.358	21.080	835.418	634.618
335.373	21.195	835.061	634.707
336.387	21.226	834.116	634.045
337.402	21.131	833.855	633.447
338.416	21.351	833.278	633.748
339.431	21.447	832.954	633.795
340.446	21.503	832.577	633.656
341.460	21.703	831.707	633.661
342.475	21.766	831.259	633.492
343.489	21.726	831.264	633.294
344.504	21.779	830.561	632.892
345.519	21.922	830.257	633.123
346.533	21.996	829.797	632.982
347.548	21.737	829.381	631.675
348.562	21.712	828.127	630.576
349.577	21.486	827.544	629.263
350.592	21.311	826.622	627.877
351.606	21.224	825.944	626.992
352.621	21.247	825.349	626.568
353.635	21.177	825.586	626.443
354.650	21.260	825.204	626.393
355.665	21.321	824.884	626.313
356.679	21.384	824.042	625.843
357.694	21.636	823.336	626.154
358.708	21.659	823.143	626.034
359.723	21.537	822.553	625.096
360.738	21.498	822.341	624.739
361.752	21.540	821.627	624.292
362.767	21.545	821.206	623.933
363.781	21.697	820.877	624.171
364.796	21.946	820.613	624.801
365.810	22.017	820.448	624.873
366.825	22.006	820.232	624.615
367.840	22.126	819.664	624.551
368.854	22.159	819.161	624.233
369.869	22.005	818.611	623.209
370.883	21.841	817.728	621.901
371.898	21.952	817.280	621.900
372.913	22.032	816.777	621.745
373.927	22.179	816.250	621.808
374.942	22.001	815.401	620.478
375.956	21.861	815.108	619.705
376.971	22.113	814.382	619.989
377.986	22.267	813.819	620.048
379.000	22.339	813.485	619.993
380.015	22.356	812.961	619.599
381.029	22.409	812.154	619.114
382.044	22.281	811.325	617.976
383.059	22.253	810.877	617.483
384.073	22.251	810.612	617.220
385.088	22.283	809.635	616.534
386.102	22.182	809.022	615.657
387.117	21.933	808.624	614.429
388.132	21.926	808.118	613.964
389.146	21.817	807.937	613.391
390.161	21.935	807.134	613.140
391.175	22.129	807.218	613.830
392.190	22.241	806.721	613.789
393.205	22.144	806.299	613.072
394.219	22.055	805.428	612.047
395.234	21.952	805.331	611.559
396.248	21.792	804.638	610.422
397.263	21.600	804.195	609.364
398.278	21.627	803.276	608.709
399.292	21.737	803.262	609.024
400.307	21.719	802.413	608.266
401.321	21.759	801.947	607.997
402.336	21.799	801.719	607.908
403.350	21.822	801.705	607.926
404.365	21.977	801.173	608.005
405.380	22.152	800.652	608.161
406.394	22.240	800.488	608.286
407.409	22.493	799.947	608.696
408.423	22.463	799.670	608.328
409.438	22.470	799.076	607.848
410.453	22.631	798.866	608.189
411.467	22.649	798.755	608.113
412.482	22.674	798.019	607.584
413.496	22.812	797.558	607.656
414.511	22.818	797.080	607.257
415.526	22.868	796.823	607.180
416.540	22.689	796.550	606.303
417.555	22.462	796.460	605.401
418.569	22.511	795.557	604.830
419.584	22.763	794.830	605.085
420.599	22.787	794.202	604.637
421.613	164.854	1369.752	1796.239
422.628	143.074	1453.591	1796.304
