DTS Sentinel unit serial number:	SN413079Multiplexer serial number:	ORYXHardware model number:	OX4-SRSoftware version number:	ORYX F/W v4.00 Oryx Data Collector v3.7.2.0data status	okinstallation	princeton_trtdifferential loss correction	single-endedforward channel	channel 3reverse channel	N/Adate	2019/09/19time	12:00:35forward acquisition time	60.00reverse acquisition time	0.00gamma	496.2192k internal	0.2340k external	0.2340temperature offset calibration	0.9986default loss term (dB/km)	0.3790temperature slope calibration	1.0000multiplexer offset coefficient	1.0000multiplexer slope coefficient	1.0000fibre end	0.00T internal ref (°C)	26.05T ext. ref 1 (°C)	0.82T ext. ref 2 (°C)	22.17length (m)	temperature (°C)	Stokes	anti-Stokes-747.200	-200.000	0.056	0.261
-746.185	726.800	0.189	0.505
-745.171	25.011	-0.151	0.125
-744.156	72.716	0.133	0.139
-743.142	-200.000	-0.035	0.271
-742.127	18.115	-0.191	0.152
-741.112	-37.769	-0.015	-0.008
-740.098	-54.008	-0.272	0.124
-739.083	-79.300	0.195	-0.066
-738.069	-200.000	-0.012	0.567
-737.054	-139.122	-0.383	-0.041
-736.039	-43.780	-0.459	0.232
-735.025	386.253	-0.169	-0.350
-734.010	-200.000	0.021	-0.285
-732.996	115.813	-0.305	0.373
-731.981	-40.820	0.088	-0.046
-730.966	100.004	0.252	-0.293
-729.952	-24.394	0.058	-0.035
-728.937	-24.122	-0.304	-0.182
-727.923	-76.758	0.245	-0.086
-726.908	315.956	-0.141	0.266
-725.894	-11.005	-0.189	0.125
-724.879	-26.278	0.258	-0.152
-723.864	34.252	0.077	-0.068
-722.850	-200.000	0.029	0.323
-721.835	8.600	0.138	-0.104
-720.821	-200.000	0.045	-0.542
-719.806	-63.143	-0.244	0.101
-718.791	167.548	-0.013	0.018
-717.777	256.040	0.209	-0.360
-716.762	800.000	-0.098	-0.360
-715.748	262.519	0.192	-0.333
-714.733	-200.000	0.001	0.261
-713.718	741.058	-0.078	0.211
-712.704	-69.508	-0.116	-0.045
-711.689	119.751	0.070	-0.086
-710.675	800.000	0.046	0.175
-709.660	-200.000	-0.033	-0.286
-708.645	-200.000	0.023	-0.132
-707.631	-200.000	-0.013	-0.056
-706.616	-26.539	-0.158	-0.093
-705.602	119.672	0.197	0.245
-704.587	800.000	-0.070	0.303
-703.572	-31.891	-0.179	0.100
-702.558	43.424	-0.190	0.173
-701.543	36.541	0.065	-0.057
-700.529	-63.352	0.046	-0.019
-699.514	-200.000	-0.034	0.207
-698.499	2.776	0.329	-0.239
-697.485	-80.091	-0.220	0.074
-696.470	800.000	0.036	-0.142
-695.456	90.484	0.288	0.323
-694.441	-80.636	-0.326	0.109
-693.426	-126.589	0.170	0.025
-692.412	-200.000	-0.044	-0.264
-691.397	615.046	0.057	0.142
-690.383	-200.000	-0.008	0.254
-689.368	-60.569	-0.179	-0.076
-688.354	137.248	0.018	0.024
-687.339	800.000	0.081	0.259
-686.324	-200.000	-0.053	0.255
-685.310	-44.542	-0.204	-0.102
-684.295	-144.913	-0.301	0.027
-683.281	800.000	-0.054	0.218
-682.266	206.863	-0.129	-0.201
-681.251	-200.000	-0.008	-0.127
-680.237	99.171	0.249	0.288
-679.222	179.622	0.060	0.088
-678.208	105.309	-0.216	0.255
-677.193	800.000	-0.148	-0.426
-676.178	-48.345	0.368	-0.177
-675.164	-200.000	-0.020	-0.304
-674.149	688.187	0.057	-0.148
-673.135	-200.000	-0.043	0.264
-672.120	539.324	0.064	-0.153
-671.105	76.214	-0.066	0.070
-670.091	48.395	-0.299	0.279
-669.076	-142.769	0.027	0.003
-668.062	-200.000	-0.030	0.144
-667.047	69.887	0.178	-0.184
-666.032	-20.571	0.359	-0.220
-665.018	-71.545	-0.250	-0.093
-664.003	8.204	0.160	-0.120
-662.989	-103.585	-0.453	0.106
-661.974	244.059	0.155	0.259
-660.959	312.913	-0.100	-0.188
-659.945	-89.925	0.098	0.029
-658.930	-139.977	-0.156	0.016
-657.916	125.875	-0.278	0.351
-656.901	637.248	0.034	0.086
-655.886	-86.824	-0.103	-0.032
-654.872	203.586	0.053	-0.081
-653.857	800.000	-0.105	0.294
-652.843	-200.000	-0.054	-0.248
-651.828	-200.000	-0.030	0.196
-650.814	-200.000	-0.002	-0.024
-649.799	-113.581	-0.097	-0.019
-648.784	541.023	0.047	0.112
-647.770	-200.000	0.035	0.376
-646.755	-161.025	-0.123	-0.006
-645.741	-146.430	-0.213	0.019
-644.726	-161.065	0.089	-0.005
-643.711	-109.305	-0.341	0.072
-642.697	-140.491	0.301	0.031
-641.682	6.530	0.160	0.119
-640.668	-200.000	0.010	0.086
-639.653	-200.000	-0.016	0.116
-638.638	-130.059	-0.161	0.022
-637.624	-69.510	0.118	-0.045
-636.609	-33.066	-0.120	0.066
-635.595	-200.000	-0.064	0.420
-634.580	-42.994	-0.234	-0.118
-633.565	135.617	-0.347	-0.451
-632.551	800.000	0.031	-0.115
-631.536	49.163	0.093	-0.087
-630.522	-136.484	0.093	-0.011
-629.507	244.406	-0.138	-0.232
-628.492	-200.000	0.003	-0.151
-627.478	800.000	0.055	-0.217
-626.463	62.232	0.093	0.093
-625.449	-131.334	0.355	0.047
-624.434	-99.789	0.172	-0.043
-623.419	-87.911	-0.225	0.068
-622.405	800.000	0.059	-0.209
-621.390	-76.513	0.037	0.013
-620.376	-200.000	0.042	0.184
-619.361	-100.796	0.403	-0.099
-618.346	-34.916	0.198	0.108
-617.332	19.746	-0.200	0.160
-616.317	-200.000	0.022	0.198
-615.303	74.065	0.213	-0.223
-614.288	649.183	0.072	0.184
-613.273	-187.852	-0.347	0.005
-612.259	-101.175	0.281	0.068
-611.244	277.473	-0.083	-0.146
-610.230	-200.000	-0.029	0.308
-609.215	-60.551	-0.472	0.200
-608.201	-12.942	0.124	0.081
-607.186	-200.000	0.030	-0.391
-606.171	244.471	-0.162	-0.271
-605.157	116.771	0.198	-0.243
-604.142	-36.896	-0.267	-0.143
-603.128	-200.000	-0.002	-0.270
-602.113	14.347	0.188	0.146
-601.098	-200.000	-0.054	0.264
-600.084	-200.000	-0.012	-0.232
-599.069	-88.056	-0.246	-0.073
-598.055	99.064	0.150	-0.173
-597.040	-71.551	0.231	-0.086
-596.025	154.403	0.303	0.415
-595.011	39.089	-0.128	-0.114
-593.996	-184.973	0.120	0.002
-592.982	800.000	0.040	-0.155
-591.967	74.425	-0.087	-0.091
-590.952	64.428	-0.190	-0.191
-589.938	141.447	0.130	-0.172
-588.923	800.000	-0.063	0.201
-587.909	100.707	-0.050	0.058
-586.894	-27.688	0.155	0.090
-585.879	408.149	0.095	0.201
-584.865	206.229	-0.175	0.272
-583.850	800.000	0.058	0.172
-582.836	-200.000	-0.010	-0.195
-581.821	-60.871	0.200	0.084
-580.806	577.806	0.117	0.285
-579.792	-117.322	-0.117	0.021
-578.777	-200.000	0.037	-0.259
-577.763	437.233	0.142	-0.307
-576.748	122.693	-0.177	-0.221
-575.733	-116.764	0.178	-0.033
-574.719	168.004	0.071	-0.101
-573.704	-177.175	0.128	-0.003
-572.690	253.865	0.156	-0.265
-571.675	101.394	-0.190	-0.220
-570.661	-114.917	0.189	0.036
-569.646	166.516	0.132	0.187
-568.631	150.803	0.024	0.032
-567.617	64.288	-0.193	0.193
-566.602	82.303	0.082	-0.089
-565.588	-23.349	-0.202	0.121
-564.573	430.158	-0.056	-0.121
-563.558	218.745	-0.112	0.178
-562.544	-95.143	0.219	0.059
-561.529	800.000	-0.035	-0.146
-560.515	-78.341	0.167	-0.057
-559.500	292.250	-0.086	-0.155
-558.485	-200.000	0.007	0.211
-557.471	150.269	-0.065	-0.087
-556.456	71.411	0.186	-0.192
-555.442	-200.000	-0.065	-0.401
-554.427	181.924	0.104	-0.153
-553.412	-45.155	-0.153	0.076
-552.398	-141.071	-0.159	0.016
-551.383	800.000	0.070	0.265
-550.369	69.429	0.174	-0.178
-549.354	-200.000	0.000	0.057
-548.339	203.850	0.044	0.067
-547.325	800.000	0.144	-0.457
-546.310	546.375	-0.105	-0.250
-545.296	-118.042	0.239	0.043
-544.281	373.168	0.111	0.224
-543.266	-85.983	-0.353	0.109
-542.252	-26.891	0.422	0.245
-541.237	-98.515	-0.247	0.063
-540.223	252.659	0.034	-0.057
-539.208	800.000	-0.078	-0.309
-538.193	-200.000	-0.058	-0.291
-537.179	-200.000	-0.056	-0.283
-536.164	-102.292	0.327	0.078
-535.150	-174.170	0.183	0.005
-534.135	420.709	-0.083	-0.177
-533.121	132.060	-0.197	-0.253
-532.106	91.768	-0.108	-0.121
-531.091	800.000	-0.046	0.171
-530.077	-154.827	-0.279	-0.018
-529.062	144.909	0.030	0.040
-528.048	-6.295	-0.219	-0.149
-527.033	800.000	-0.083	-0.276
-526.018	-169.658	-0.171	-0.006
-525.004	-128.799	-0.080	0.011
-523.989	-1.517	-0.211	-0.148
-522.975	-93.299	-0.184	0.051
-521.960	-85.262	0.200	-0.062
-520.945	-74.044	0.270	0.097
-519.931	-74.444	0.212	-0.076
-518.916	247.459	0.109	0.184
-517.902	231.730	0.173	-0.282
-516.887	-200.000	0.012	0.167
-515.872	-168.261	0.384	0.015
-514.858	67.598	-0.058	-0.059
-513.843	-72.529	-0.304	0.112
-512.829	50.937	0.296	-0.279
-511.814	-15.381	-0.223	-0.142
-510.799	800.000	0.056	-0.221
-509.785	-194.117	-0.207	0.002
-508.770	157.288	-0.205	0.281
-507.756	-78.845	0.180	0.061
-506.741	-200.000	0.013	0.197
-505.726	214.377	0.057	-0.090
-504.712	-70.313	0.146	-0.055
-503.697	-200.000	-0.008	0.262
-502.683	-5.420	-0.307	0.209
-501.668	-160.728	0.162	-0.009
-500.653	228.432	0.120	-0.194
-499.639	-200.000	-0.084	-0.466
-498.624	800.000	0.050	-0.191
-497.610	-200.000	0.065	0.295
-496.595	568.646	-0.151	-0.364
-495.581	-10.720	0.139	0.092
-494.566	16.395	-0.167	-0.131
-493.551	24.524	0.196	-0.161
-492.537	398.721	0.058	-0.121
-491.522	417.039	-0.038	0.080
-490.508	-54.752	-0.451	-0.202
-489.493	420.264	0.077	-0.165
-488.478	46.782	0.154	-0.142
-487.464	-21.231	0.280	-0.170
-486.449	-77.283	-0.432	-0.149
-485.435	800.000	-0.046	-0.141
-484.420	68.480	-0.069	0.070
-483.405	-200.000	-0.000	0.341
-482.391	-200.000	0.009	-0.113
-481.376	-139.796	0.126	-0.013
-480.362	800.000	0.045	-0.139
-479.347	-200.000	0.022	-0.110
-478.332	800.000	0.044	0.150
-477.318	508.930	-0.052	-0.121
-476.303	333.889	0.083	0.159
-475.289	86.201	-0.203	0.222
-474.274	-26.451	-0.228	-0.132
-473.259	107.435	0.045	-0.053
-472.245	-200.000	0.020	-0.120
-471.230	381.240	-0.113	0.230
-470.216	482.025	0.077	0.174
-469.201	-119.447	0.279	0.048
-468.186	-200.000	-0.003	-0.260
-467.172	270.203	-0.102	0.177
-466.157	800.000	-0.080	0.348
-465.143	88.631	0.106	-0.117
-464.128	43.299	-0.052	0.047
-463.113	-200.000	0.049	0.215
-462.099	130.351	0.202	0.256
-461.084	-127.095	-0.108	-0.016
-460.070	800.000	-0.046	-0.158
-459.055	-157.437	-0.297	0.018
-458.040	-200.000	0.010	-0.081
-457.026	-200.000	0.041	-0.284
-456.011	-200.000	0.010	0.190
-454.997	-38.818	0.202	0.106
-453.982	-29.604	-0.415	0.235
-452.968	-200.000	0.009	0.110
-451.953	800.000	-0.080	-0.244
-450.938	301.879	-0.059	0.108
-449.924	-5.756	0.095	-0.064
-448.909	-34.731	-0.076	-0.041
-447.895	-23.291	0.035	0.021
-446.880	221.540	-0.128	0.204
-445.865	-141.589	-0.408	0.041
-444.851	800.000	-0.036	0.109
-443.836	-0.520	-0.170	-0.120
-442.822	583.176	-0.032	0.077
-441.807	348.464	-0.107	0.210
-440.792	-152.146	0.102	0.007
-439.778	80.211	0.165	0.176
-438.763	172.180	0.140	0.200
-437.749	-98.082	0.077	0.020
-436.734	37.750	0.085	-0.075
-435.719	188.390	-0.059	-0.087
-434.705	210.096	0.075	0.116
-433.690	-92.235	0.400	-0.112
-432.676	42.231	0.063	-0.057
-431.661	-102.116	0.256	-0.061
-430.646	800.000	-0.112	-0.437
-429.632	-25.847	-0.154	0.090
-428.617	118.009	-0.243	-0.297
-427.603	800.000	-0.100	-0.421
-426.588	-87.080	-0.275	-0.083
-425.573	89.553	0.308	-0.341
-424.559	-111.388	-0.377	-0.076
-423.544	-177.350	0.172	-0.004
-422.530	-55.716	0.095	-0.042
-421.515	51.642	-0.152	-0.143
-420.500	38.222	-0.383	-0.338
-419.486	212.960	-0.091	-0.142
-418.471	65.305	-0.157	-0.157
-417.457	94.155	0.200	-0.225
-416.442	-200.000	0.020	-0.336
-415.428	219.347	0.147	0.233
-414.413	25.291	0.205	0.169
-413.398	-139.500	0.276	0.029
-412.384	58.301	0.258	-0.250
-411.369	-101.592	-0.212	-0.051
-410.355	-43.262	0.153	0.076
-409.340	-65.382	0.076	0.030
-408.325	-200.000	-0.001	0.010
-407.311	726.175	-0.121	0.319
-406.296	-123.726	-0.120	-0.019
-405.282	7.588	0.017	0.013
-404.267	-119.282	0.277	-0.048
-403.252	1.687	0.147	-0.105
-402.238	76.809	0.129	-0.135
-401.223	800.000	0.140	0.421
-400.209	800.000	-0.054	0.183
-399.194	-97.463	0.261	0.067
-398.179	312.001	0.092	0.170
-397.165	62.548	-0.162	0.160
-396.150	-200.000	0.029	0.277
-395.136	-5.227	0.317	0.215
-394.121	-80.514	-0.391	0.129
-393.106	240.974	-0.141	-0.233
-392.092	800.000	-0.072	0.232
-391.077	-42.412	0.292	0.147
-390.063	489.903	-0.063	0.143
-389.048	-200.000	-0.046	-0.226
-388.033	501.976	-0.056	0.127
-387.019	182.825	0.103	-0.151
-386.004	-20.342	0.174	-0.106
-384.990	-131.406	0.085	0.011
-383.975	-131.330	-0.087	0.011
-382.960	698.633	-0.036	0.092
-381.946	-149.097	-0.764	0.061
-380.931	-200.000	0.021	-0.232
-379.917	228.438	-0.243	0.391
-378.902	-11.730	0.116	0.075
-377.888	610.269	-0.095	-0.235
-376.873	-3.237	-0.348	-0.240
-375.858	-200.000	-0.009	0.245
-374.844	24.433	0.284	0.232
-373.829	800.000	0.073	-0.316
-372.815	-200.000	0.025	-0.192
-371.800	90.874	-0.116	0.128
-370.785	441.450	-0.061	0.132
-369.771	20.881	-0.256	0.205
-368.756	-83.554	-0.121	-0.038
-367.742	-49.986	0.337	0.158
-366.727	-200.000	-0.033	0.214
-365.712	265.743	0.050	0.086
-364.698	-200.000	0.050	0.249
-363.683	-42.996	-0.160	0.080
-362.669	-26.671	0.143	-0.083
-361.654	-200.000	0.056	0.246
-360.639	20.409	-0.201	0.161
-359.625	-50.771	-0.129	-0.060
-358.610	370.716	-0.039	0.079
-357.596	-200.000	0.003	-0.072
-356.581	800.000	-0.024	-0.071
-355.566	-145.328	0.327	-0.029
-354.552	72.298	-0.167	0.172
-353.537	-3.594	-0.173	0.119
-352.523	-200.000	0.008	0.056
-351.508	-131.500	0.270	0.035
-350.493	56.216	0.474	-0.455
-349.479	41.743	0.075	0.067
-348.464	11.518	-0.259	-0.196
-347.450	-200.000	0.035	-0.266
-346.435	170.531	-0.170	-0.240
-345.420	171.878	0.145	-0.205
-344.406	22.502	0.111	0.089
-343.391	-200.000	-0.014	-0.329
-342.377	-24.249	0.114	0.067
-341.362	800.000	-0.095	0.283
-340.348	62.532	-0.293	0.289
-339.333	-56.144	0.152	0.067
-338.318	255.045	-0.140	-0.237
-337.304	800.000	-0.026	0.084
-336.289	186.430	0.114	-0.167
-335.275	800.000	-0.139	-0.409
-334.260	800.000	0.064	-0.212
-333.245	800.000	-0.053	0.190
-332.231	423.686	0.054	0.115
-331.216	38.703	-0.109	0.096
-330.202	-89.386	0.251	0.073
-329.187	-163.614	0.237	0.011
-328.172	408.802	-0.062	0.129
-327.158	-200.000	0.042	-0.197
-326.143	-94.541	0.273	0.073
-325.129	-184.354	-0.288	0.005
-324.114	-143.646	0.247	0.023
-323.099	205.860	0.006	0.009
-322.085	12.887	0.234	-0.178
-321.070	800.000	-0.014	0.054
-320.056	-200.000	-0.036	-0.359
-319.041	800.000	0.117	0.328
-318.026	800.000	-0.036	0.102
-317.012	-200.000	0.029	0.135
-315.997	-56.944	-0.199	0.087
-314.983	220.018	-0.013	-0.020
-313.968	33.753	-0.069	-0.059
-312.953	388.066	-0.054	0.110
-311.939	800.000	-0.030	-0.100
-310.924	-200.000	-0.033	-0.227
-309.910	800.000	0.081	0.227
-308.895	800.000	-0.054	0.156
-307.880	-26.954	0.156	-0.090
-306.866	-200.000	-0.033	0.210
-305.851	-86.195	0.156	0.047
-304.837	35.439	0.422	-0.365
-303.822	143.547	0.102	0.134
-302.807	-146.303	0.369	-0.032
-301.793	-8.239	-0.333	-0.221
-300.778	174.406	0.110	-0.156
-299.764	172.694	-0.262	0.371
-298.749	800.000	-0.099	0.349
-297.735	-75.797	0.244	0.085
-296.720	0.148	-0.229	0.161
-295.705	-23.195	0.318	-0.188
-294.691	45.156	-0.280	-0.254
-293.676	-88.278	-0.060	-0.018
-292.662	-66.356	0.162	-0.064
-291.647	-122.503	0.085	-0.014
-290.632	350.134	0.029	0.056
-289.618	-36.521	-0.258	-0.137
-288.603	800.000	0.045	0.139
-287.589	100.242	0.158	0.180
-286.574	28.593	-0.151	-0.126
-285.559	-107.328	-0.250	-0.054
-284.545	-31.987	-0.501	0.276
-283.530	249.756	-0.060	0.099
-282.516	217.154	0.179	0.280
-281.501	-200.000	0.038	-0.206
-280.486	-200.000	0.032	-0.144
-279.472	-200.000	-0.015	0.246
-278.457	-135.600	-0.177	-0.021
-277.443	22.420	0.140	-0.112
-276.428	-20.060	0.483	-0.293
-275.413	26.446	0.258	0.212
-274.399	-179.672	-0.303	-0.006
-273.384	13.217	-0.279	-0.213
-272.370	-200.000	-0.023	0.240
-271.355	-200.000	-0.038	-0.327
-270.340	528.112	-0.137	-0.319
-269.326	-200.000	0.048	0.247
-268.311	-200.000	0.005	-0.108
-267.297	-174.199	0.169	0.005
-266.282	-170.941	0.272	-0.009
-265.267	-200.000	0.009	0.045
-264.253	329.583	-0.144	-0.272
-263.238	-200.000	-0.044	0.337
-262.224	-200.000	-0.049	0.328
-261.209	-37.525	0.082	-0.043
-260.195	-200.000	-0.032	0.290
-259.180	-200.000	-0.019	-0.125
-258.165	70.339	-0.219	-0.222
-257.151	800.000	-0.034	0.110
-256.136	-200.000	-0.025	-0.239
-255.122	8.847	0.205	0.152
-254.107	-160.079	0.071	-0.004
-253.092	56.712	-0.048	0.046
-252.078	131.526	-0.120	0.152
-251.063	-161.217	0.158	0.008
-250.049	150.620	-0.109	-0.145
-249.034	800.000	-0.012	0.053
-248.019	-200.000	0.037	-0.272
-247.005	-147.210	0.362	0.030
-245.990	800.000	-0.056	0.183
-244.976	800.000	-0.055	0.181
-243.961	-200.000	0.005	-0.109
-242.946	388.172	0.020	-0.041
-241.932	5.818	0.069	-0.051
-240.917	-200.000	0.023	-0.113
-239.903	68.007	0.192	-0.193
-238.888	116.546	0.096	0.115
-237.873	194.889	-0.198	-0.295
-236.859	800.000	0.089	0.380
-235.844	294.239	0.160	-0.287
-234.830	-32.604	-0.353	0.193
-233.815	-112.360	-0.183	-0.036
-232.800	433.984	-0.096	0.204
-231.786	39.272	0.150	0.132
-230.771	31.200	-0.297	-0.250
-229.757	3.152	0.244	0.174
-228.742	-172.582	-0.410	0.013
-227.727	-56.868	-0.031	0.014
-226.713	-162.382	-0.196	-0.010
-225.698	-200.000	0.022	0.259
-224.684	105.198	-0.182	-0.211
-223.669	-200.000	0.027	0.135
-222.655	-200.000	0.026	0.346
-221.640	-72.627	0.235	0.085
-220.625	-71.795	-0.453	0.166
-219.611	258.096	0.122	-0.207
-218.596	-46.365	0.109	-0.053
-217.582	-200.000	0.018	0.458
-216.567	-186.712	0.132	-0.002
-215.552	800.000	-0.092	0.319
-214.538	-139.976	-0.290	-0.030
-213.523	-69.735	0.181	-0.068
-212.509	779.188	-0.031	-0.084
-211.494	800.000	0.021	-0.080
-210.479	-103.680	0.334	-0.077
-209.465	-173.803	-0.155	0.005
-208.450	-200.000	-0.060	-0.340
-207.436	94.634	0.156	0.174
-206.421	800.000	-0.078	-0.323
-205.406	247.369	0.131	0.216
-204.392	-200.000	-0.033	0.200
-203.377	184.689	0.302	0.439
-202.363	-96.638	-0.064	-0.017
-201.348	-42.716	-0.333	0.166
-200.333	47.012	0.392	0.358
-199.319	195.206	0.141	0.210
-198.304	-9.165	-0.223	-0.146
-197.290	-29.161	0.264	-0.149
-196.275	-84.385	0.048	-0.015
-195.260	48.571	0.153	0.140
-194.246	-110.783	0.194	-0.039
-193.231	-147.012	0.440	0.037
-192.217	-125.152	-0.419	-0.063
-191.202	-20.445	-0.103	0.062
-190.187	187.939	-0.213	-0.312
-189.173	180.110	-0.121	-0.173
-188.158	-158.994	0.243	-0.014
-187.144	800.000	0.044	0.159
-186.129	185.930	0.118	-0.171
-185.114	154.166	-0.133	-0.178
-184.100	-54.366	-0.180	0.080
-183.085	9.741	0.079	0.058
-182.071	-11.183	0.026	0.017
-181.056	145.345	0.130	0.171
-180.042	-57.566	0.167	-0.072
-179.027	45.835	0.014	0.013
-178.012	556.235	-0.110	0.259
-176.998	-31.857	-0.190	-0.104
-175.983	-189.809	0.071	-0.001
-174.969	-200.000	-0.010	0.149
-173.954	800.000	-0.169	0.493
-172.939	227.610	-0.149	-0.237
-171.925	-122.184	-0.194	-0.031
-170.910	522.679	0.061	0.141
-169.896	-114.612	0.334	-0.063
-168.881	159.649	0.171	0.233
-167.866	-200.000	-0.008	0.083
-166.852	601.889	0.068	0.166
-165.837	-178.808	-0.162	-0.004
-164.823	-74.487	-0.223	0.079
-163.808	-80.920	0.242	0.079
-162.793	325.755	-0.092	0.173
-161.779	-158.505	-0.457	0.026
-160.764	-57.480	-0.086	0.037
-159.750	-200.000	-0.001	-0.151
-158.735	-100.164	-0.392	-0.096
-157.720	-200.000	0.000	-0.107
-156.706	-200.000	0.014	-0.265
-155.691	-42.162	-0.242	0.121
-154.677	189.782	0.151	0.222
-153.662	160.343	0.151	0.207
-152.647	-48.976	0.125	-0.059
-151.633	99.093	-0.187	0.212
-150.618	2.938	0.161	0.115
-149.604	-153.626	0.177	0.012
-148.589	-200.000	-0.019	0.091
-147.574	360.565	0.080	0.157
-146.560	-59.163	0.299	0.126
-145.545	800.000	0.073	0.273
-144.531	264.741	0.121	-0.206
-143.516	-102.136	-0.076	-0.018
-142.502	104.520	0.131	0.151
-141.487	-144.817	0.247	-0.022
-140.472	-200.000	-0.009	0.166
-139.458	-58.124	-0.175	0.075
-138.443	399.004	-0.028	-0.057
-137.429	-86.862	0.227	-0.068
-136.414	-200.000	-0.003	0.187
-135.399	-200.000	0.051	0.299
-134.385	-52.718	0.441	0.199
-133.370	-34.406	-0.174	-0.094
-132.356	-109.816	-0.373	0.077
-131.341	-78.755	-0.197	0.066
-130.326	23.060	-0.136	0.109
-129.312	-177.124	0.105	-0.003
-128.297	102.168	-0.133	-0.152
-127.283	555.590	0.057	0.135
-126.268	21.355	0.469	-0.373
-125.253	-150.614	0.078	-0.006
-124.239	181.597	0.073	0.105
-123.224	34.866	0.324	0.277
-122.210	800.000	0.085	0.268
-121.195	-200.000	0.030	0.387
-120.180	-200.000	-0.008	-0.160
-119.166	716.662	-0.070	-0.182
-118.151	-66.723	-0.208	0.081
-117.137	64.509	0.105	-0.104
-116.122	-138.308	0.126	-0.014
-115.107	-58.594	0.293	0.124
-114.093	520.460	0.169	0.387
-113.078	-119.636	-0.289	-0.049
-112.064	-150.990	0.064	-0.005
-111.049	-200.000	0.006	-0.298
-110.034	93.376	0.022	0.025
-109.020	181.344	-0.227	-0.326
-108.005	129.083	0.072	-0.090
-106.991	291.238	-0.045	0.080
-105.976	250.003	0.117	0.194
-104.962	-200.000	-0.041	-0.368
-103.947	372.830	-0.089	0.176
-102.932	33.413	0.112	-0.095
-101.918	491.867	-0.114	0.256
-100.903	618.251	0.115	0.283
-99.889	-200.000	0.049	-0.259
-98.874	-200.000	0.004	0.243
-97.859	-66.134	-0.118	0.046
-96.845	65.007	0.093	-0.092
-95.830	126.369	0.237	0.293
-94.816	74.266	0.058	0.059
-93.801	399.927	0.207	-0.425
-92.786	47.863	0.110	-0.101
-91.772	94.189	-0.159	-0.177
-90.757	-9.384	0.114	-0.074
-89.743	800.000	0.149	-0.537
-88.728	58.720	0.137	-0.131
-87.713	25.404	0.020	-0.017
-86.699	-200.000	-0.094	-0.549
-85.684	201.494	-0.205	0.309
-84.670	-98.906	-0.216	0.053
-83.655	800.000	-0.095	-0.281
-82.640	648.605	0.014	-0.036
-81.626	-129.674	0.196	0.026
-80.611	-200.000	0.023	0.257
-79.597	401.541	-0.083	-0.169
-78.582	-200.000	0.005	0.427
-77.567	-159.029	0.240	-0.013
-76.553	-200.000	0.010	-0.158
-75.538	37.426	0.116	0.100
-74.524	-74.925	0.093	0.033
-73.509	30.989	0.119	0.100
-72.494	-177.861	-0.207	0.005
-71.480	800.000	0.107	0.350
-70.465	-200.000	-0.002	-0.060
-69.451	181.380	0.098	-0.141
-68.436	-14.734	0.107	0.067
-67.422	-80.400	-0.149	0.049
-66.407	800.000	-0.021	0.082
-65.392	292.298	-0.116	0.206
-64.378	-97.374	-0.286	0.073
-63.363	26.725	0.038	0.031
-62.349	156.023	0.206	0.277
-61.334	0.291	-1.351	-0.941
-60.319	179.508	0.491	0.702
-59.305	-200.000	-0.190	-1.159
-58.290	679.718	0.600	1.523
-57.276	547.147	0.763	1.783
-56.261	-200.000	115.561	615.544
-55.246	422.030	1539.785	3224.228
-54.232	141.897	2729.802	3530.599
-53.217	98.122	2209.723	2482.087
-52.203	36.893	1722.100	1485.557
-51.188	29.185	1535.061	1271.211
-50.173	26.931	1510.615	1235.591
-49.159	48.442	1570.099	1434.392
-48.144	47.364	1584.692	1440.171
-47.130	29.230	1540.479	1275.806
-46.115	26.395	1525.162	1243.611
-45.100	26.112	1521.895	1238.951
-44.086	26.058	1519.874	1236.890
-43.071	25.994	1518.248	1235.076
-42.057	25.951	1516.478	1233.291
-41.042	26.035	1514.495	1232.209
-40.027	26.108	1513.018	1231.453
-39.013	25.929	1511.870	1229.247
-37.998	25.986	1510.505	1228.477
-36.984	25.998	1509.865	1227.991
-35.969	26.053	1508.507	1227.212
-34.954	26.045	1506.208	1225.238
-33.940	25.986	1504.990	1223.800
-32.925	26.005	1503.883	1222.977
-31.911	26.098	1502.449	1222.397
-30.896	26.051	1501.087	1220.922
-29.881	26.120	1499.299	1219.886
-28.867	26.078	1498.382	1218.806
-27.852	26.088	1497.036	1217.730
-26.838	26.098	1495.239	1216.289
-25.823	26.108	1494.139	1215.412
-24.809	26.140	1492.519	1214.260
-23.794	26.024	1491.270	1212.415
-22.779	26.146	1490.369	1212.457
-21.765	26.040	1489.187	1210.736
-20.750	26.097	1487.794	1209.940
-19.736	26.105	1486.603	1208.976
-18.721	26.112	1485.484	1208.061
-17.706	26.098	1484.398	1207.038
-16.692	26.036	1483.469	1205.823
-15.677	26.012	1482.729	1205.012
-14.663	26.021	1481.700	1204.185
-13.648	26.082	1480.652	1203.697
-12.633	26.008	1479.840	1202.493
-11.619	25.980	1478.796	1201.409
-10.604	26.009	1477.952	1200.867
-9.590	26.042	1476.585	1199.929
-8.575	26.131	1475.857	1199.885
-7.560	26.114	1474.715	1198.798
-6.546	26.013	1474.043	1197.528
-5.531	25.968	1473.575	1196.806
-4.517	25.940	1472.663	1195.829
-3.502	26.105	1471.045	1195.563
-2.487	26.065	1469.998	1194.399
-1.473	26.044	1469.053	1193.447
-0.458	26.097	1467.527	1192.506
0.556	25.163	1458.079	1182.116
1.571	22.540	1433.083	1144.727
2.586	19.236	1370.182	1073.833
3.600	17.586	1285.142	997.439
4.615	16.219	1241.205	955.518
5.629	14.235	1183.433	900.241
6.644	7.248	1099.608	801.179
7.659	1.755	1061.436	746.432
8.673	0.882	1055.804	738.149
9.688	0.810	1052.444	735.382
10.702	0.807	1050.942	734.255
11.717	0.801	1049.066	732.851
12.731	2.985	1050.768	744.565
13.746	9.785	1059.511	783.826
14.761	15.547	1066.617	817.120
15.775	17.094	1068.515	826.033
16.790	16.993	1067.074	824.359
17.804	15.953	1065.200	817.789
18.819	15.184	1063.684	812.825
19.834	14.732	1061.765	809.098
20.848	14.420	1060.818	806.793
21.863	14.150	1060.746	805.358
22.877	13.981	1059.386	803.439
23.892	13.735	1058.430	801.456
24.907	13.591	1057.493	799.977
25.921	13.633	1057.145	799.850
26.936	13.528	1056.406	798.710
27.950	13.617	1055.686	798.523
28.965	13.627	1054.885	797.894
29.980	13.817	1054.093	798.139
30.994	13.906	1052.586	797.357
32.009	13.902	1051.941	796.781
33.023	13.851	1051.249	795.939
34.038	13.873	1051.019	795.802
35.053	13.734	1049.919	794.229
36.067	13.678	1049.056	793.241
37.082	13.780	1047.547	792.515
38.096	13.848	1047.370	792.636
39.111	13.844	1046.565	791.938
40.126	13.787	1045.622	790.884
41.140	13.804	1044.165	789.791
42.155	13.584	1043.685	788.313
43.169	13.598	1042.719	787.579
44.184	13.641	1041.691	786.940
45.199	13.564	1040.955	785.947
46.213	13.681	1039.202	785.106
47.228	13.627	1038.594	784.324
48.242	13.605	1037.424	783.268
49.257	13.729	1036.324	782.950
50.271	13.727	1035.437	782.204
51.286	13.747	1034.575	781.576
52.301	13.746	1033.822	780.935
53.315	13.862	1032.969	780.764
54.330	13.680	1032.242	779.294
55.344	13.774	1031.478	779.086
56.359	13.705	1030.184	777.719
57.374	13.631	1029.865	777.060
58.388	13.778	1028.425	776.595
59.403	13.702	1028.360	776.120
60.417	13.689	1027.538	775.371
61.432	13.622	1027.276	774.792
62.447	13.788	1025.997	774.534
63.461	13.604	1025.444	773.187
64.476	13.572	1024.295	772.106
65.490	13.596	1023.392	771.470
66.505	13.614	1022.571	770.863
67.520	13.617	1021.898	770.302
68.534	13.787	1020.628	770.067
69.549	13.705	1020.195	769.293
70.563	13.758	1019.212	768.727
71.578	13.610	1018.952	767.777
72.593	13.669	1017.729	767.060
73.607	13.604	1016.957	766.111
74.622	13.591	1016.002	765.264
75.636	13.696	1015.081	764.986
76.651	13.531	1014.591	763.790
77.666	13.567	1013.773	763.271
78.680	13.623	1012.907	762.809
79.695	13.580	1012.267	762.062
80.709	13.660	1011.628	761.882
81.724	13.566	1010.999	760.910
82.739	13.655	1010.000	760.501
83.753	13.653	1009.018	759.683
84.768	13.770	1008.429	759.710
85.782	13.805	1007.565	759.150
86.797	13.890	1006.645	758.779
87.812	13.819	1005.780	757.735
88.826	13.857	1004.953	757.219
89.841	13.667	1004.362	755.838
90.855	13.618	1003.484	754.889
91.870	13.722	1002.813	754.793
92.884	13.860	1001.881	754.649
93.899	13.897	1001.155	754.203
94.914	13.898	1000.340	753.529
95.928	13.951	999.639	753.172
96.943	13.913	999.350	752.716
97.957	13.938	998.206	751.900
98.972	13.784	997.797	750.831
99.987	13.781	996.678	749.910
101.001	13.878	996.019	749.785
102.016	13.767	995.354	748.716
103.030	13.817	994.351	748.121
104.045	13.767	993.263	747.011
105.060	13.818	992.607	746.680
106.074	13.883	991.270	745.900
107.089	13.798	990.274	744.703
108.103	13.730	989.566	743.802
109.118	13.858	988.500	743.508
110.133	13.760	987.769	742.455
111.147	13.694	987.137	741.617
112.162	13.853	985.739	741.210
113.176	13.800	985.174	740.485
114.191	13.879	983.934	739.840
115.206	13.804	983.528	739.134
116.220	13.865	982.837	738.821
117.235	13.766	982.086	737.752
118.249	13.798	980.728	736.807
119.264	13.827	979.834	736.200
120.279	13.804	979.661	735.904
121.293	13.831	978.473	735.065
122.308	13.779	977.814	734.276
123.322	13.835	976.872	733.748
124.337	13.787	975.737	732.619
125.352	13.879	974.327	731.901
126.366	13.766	973.671	730.845
127.381	13.893	972.298	730.310
128.395	13.826	971.700	729.503
129.410	13.704	971.127	728.471
130.424	13.836	969.882	728.053
131.439	13.816	969.009	727.245
132.454	13.912	967.788	726.685
133.468	13.795	967.318	725.755
134.483	13.947	966.749	725.929
135.497	13.881	966.056	725.055
136.512	13.862	965.240	724.295
137.527	13.892	964.270	723.636
138.541	13.820	963.600	722.753
139.556	13.729	963.184	721.982
140.570	13.778	962.198	721.392
141.585	13.683	961.586	720.457
142.600	13.878	960.945	720.758
143.614	13.909	960.363	720.396
144.629	13.884	959.515	719.584
145.643	14.009	958.351	719.188
146.658	14.124	957.556	719.025
147.673	13.939	956.632	717.469
148.687	13.908	955.642	716.531
149.702	13.938	954.740	715.921
150.716	13.885	953.827	714.942
151.731	13.781	953.570	714.239
152.746	13.959	952.399	714.064
153.760	13.888	951.884	713.310
154.775	14.052	951.193	713.433
155.789	14.036	950.181	712.543
156.804	14.044	949.173	711.757
157.819	13.983	948.734	711.107
158.833	14.039	948.337	710.983
159.848	13.915	948.115	710.223
160.862	14.023	946.820	709.653
161.877	14.076	945.795	709.047
162.892	14.055	945.118	708.387
163.906	13.928	944.310	707.179
164.921	14.012	943.153	706.608
165.935	14.000	942.661	706.127
166.950	14.112	941.439	705.623
167.964	13.998	940.844	704.634
168.979	14.204	939.249	704.247
169.994	14.183	938.629	703.630
171.008	14.223	937.773	703.094
172.023	14.114	937.282	702.207
173.037	14.038	936.482	701.222
174.052	14.310	935.364	701.471
175.067	14.191	934.693	700.404
176.081	14.126	934.339	699.802
177.096	14.251	932.845	699.149
178.110	14.129	932.329	698.188
179.125	14.187	931.748	697.933
180.140	14.191	930.928	697.275
181.154	14.181	930.495	696.845
182.169	14.336	929.517	696.702
183.183	14.261	929.322	696.177
184.198	14.216	928.661	695.433
185.213	14.357	927.671	695.218
186.227	14.331	927.101	694.624
187.242	14.243	926.868	694.019
188.256	14.356	925.850	693.666
189.271	14.554	925.109	693.874
190.286	14.459	924.380	692.872
191.300	14.349	923.249	691.504
192.315	14.308	922.972	691.067
193.329	14.110	922.570	689.884
194.344	14.286	921.574	689.804
195.359	14.371	920.924	689.612
196.373	14.375	920.764	689.446
197.388	14.393	919.901	688.811
198.402	14.507	919.248	688.735
199.417	14.429	919.322	688.408
200.432	14.447	918.469	687.783
201.446	14.660	917.689	688.016
202.461	14.674	917.429	687.817
203.475	14.610	916.975	687.149
204.490	14.673	915.928	686.565
205.504	14.816	914.686	686.159
206.519	14.473	914.975	684.908
207.534	14.568	913.574	684.189
208.548	14.678	913.019	684.163
209.563	14.652	912.407	683.537
210.577	14.638	911.238	682.542
211.592	14.765	910.769	682.651
212.607	14.739	910.437	682.234
213.621	14.705	910.105	681.789
214.636	14.696	909.475	681.217
215.650	14.678	908.803	680.582
216.665	14.705	908.005	680.032
217.680	14.828	907.632	680.193
218.694	14.858	907.115	679.870
219.709	14.853	906.662	679.449
220.723	14.842	905.831	678.720
221.738	14.783	905.273	678.003
222.753	14.751	904.325	677.104
223.767	14.808	903.710	676.815
224.782	14.875	902.712	676.277
225.796	14.923	901.771	675.706
226.811	14.922	901.466	675.413
227.826	15.005	900.879	675.248
228.840	14.955	900.306	674.559
229.855	15.001	898.995	673.704
230.869	15.011	898.787	673.528
231.884	14.901	898.330	672.685
232.899	14.872	897.854	672.149
233.913	14.883	896.601	671.196
234.928	14.845	896.187	670.675
235.942	14.808	895.750	670.142
236.957	14.962	894.913	670.074
237.972	15.009	894.119	669.606
238.986	14.951	893.382	668.763
240.001	14.940	893.148	668.483
241.015	14.937	892.197	667.701
242.030	14.933	891.332	666.981
243.045	15.032	890.852	666.955
244.059	14.964	890.489	666.356
245.074	15.010	889.536	665.765
246.088	15.113	888.513	665.349
247.103	15.125	888.604	665.405
248.117	15.088	887.514	664.384
249.132	15.247	886.787	664.413
250.147	15.136	886.675	663.830
251.161	15.201	886.306	663.754
252.176	15.265	884.815	662.831
253.190	15.262	884.294	662.371
254.205	15.273	883.958	662.104
255.220	15.326	883.541	661.940
256.234	15.371	882.301	661.129
257.249	15.376	881.929	660.812
258.263	15.449	881.674	660.851
259.278	15.308	881.158	659.850
260.293	15.503	880.614	660.152
261.307	15.501	879.621	659.342
262.322	15.533	879.374	659.222
263.336	15.632	878.528	658.921
264.351	15.520	878.163	658.148
265.366	15.660	877.222	657.933
266.380	15.631	877.052	657.634
267.395	15.574	876.118	656.653
268.409	15.515	875.726	656.068
269.424	15.551	874.737	655.413
270.439	15.621	874.345	655.331
271.453	15.559	873.538	654.429
272.468	15.667	872.600	654.089
273.482	15.703	872.098	653.793
274.497	15.549	871.453	652.654
275.512	15.745	870.360	652.540
276.526	15.644	870.021	651.834
277.541	15.768	869.144	651.601
278.555	15.675	868.735	650.876
279.570	15.545	868.318	650.001
280.585	15.745	867.760	650.299
281.599	15.882	866.649	649.938
282.614	15.855	866.511	649.672
283.628	15.870	865.766	649.116
284.643	15.818	865.050	648.323
285.657	15.833	864.581	647.969
286.672	15.919	864.125	647.902
287.687	15.898	863.672	647.426
288.701	15.928	863.213	647.138
289.716	15.939	862.349	646.476
290.730	16.032	861.586	646.202
291.745	15.925	861.029	645.319
292.760	16.006	860.299	645.024
293.774	15.945	859.881	644.420
294.789	16.041	859.155	644.185
295.803	16.091	858.603	643.906
296.818	16.018	858.320	643.358
297.833	15.930	857.670	642.478
298.847	16.093	856.875	642.447
299.862	16.147	856.011	641.946
300.876	16.202	855.188	641.484
301.891	16.098	854.978	640.874
302.906	16.069	854.200	640.122
303.920	16.120	853.409	639.669
304.935	16.157	852.731	639.241
305.949	16.183	852.091	638.806
306.964	16.172	851.582	638.325
307.979	16.317	850.676	638.137
308.993	16.397	850.298	638.099
310.008	16.433	849.592	637.649
311.022	16.309	849.447	637.018
312.037	16.178	849.170	636.259
313.052	16.449	848.094	636.419
314.066	16.238	847.891	635.412
315.081	16.246	847.048	634.754
316.095	16.262	846.802	634.577
317.110	16.058	846.053	633.193
318.125	16.320	845.192	633.476
319.139	16.270	845.135	633.188
320.154	16.318	844.849	633.098
321.168	16.472	843.898	632.907
322.183	16.425	843.489	632.369
323.197	16.348	842.940	631.611
324.212	16.383	842.000	630.982
325.227	16.434	841.903	631.044
326.241	16.450	841.412	630.681
327.256	16.468	840.784	630.221
328.270	16.408	840.271	629.555
329.285	16.553	839.460	629.433
330.300	16.391	838.934	628.381
331.314	16.485	838.284	628.188
332.329	16.425	837.777	627.529
333.343	16.553	836.925	627.308
334.358	16.526	836.444	626.794
335.373	16.574	835.828	626.456
336.387	16.581	835.528	626.202
337.402	16.714	834.561	625.912
338.416	16.633	833.905	625.067
339.431	16.697	833.543	624.974
340.446	16.844	832.981	625.039
341.460	16.737	832.688	624.368
342.475	16.713	832.038	623.741
343.489	16.890	831.168	623.684
344.504	16.765	831.043	623.075
345.519	16.921	830.336	623.064
346.533	16.879	829.775	622.431
347.548	16.861	829.700	622.254
348.562	16.815	829.299	621.732
349.577	16.773	828.517	620.933
350.592	16.964	827.642	620.924
351.606	16.868	827.366	620.311
352.621	16.877	826.729	619.813
353.635	16.836	826.621	619.524
354.650	16.851	826.161	619.179
355.665	16.953	825.434	618.952
356.679	16.926	825.134	618.573
357.694	16.947	824.510	618.127
358.708	17.102	824.042	618.289
359.723	16.915	823.753	617.335
360.738	17.053	823.005	617.221
361.752	16.977	822.231	616.310
362.767	16.920	821.923	615.818
363.781	16.955	821.770	615.778
364.796	17.087	821.381	615.908
365.810	17.234	820.980	616.086
366.825	17.045	820.307	614.843
367.840	17.323	820.037	615.594
368.854	17.186	819.670	614.768
369.869	17.274	819.167	614.653
370.883	17.120	818.778	613.752
371.898	17.198	817.808	613.250
372.913	17.271	817.030	612.875
373.927	17.286	816.622	612.570
374.942	17.315	816.214	612.314
375.956	17.394	815.292	611.854
376.971	17.361	815.241	611.642
377.986	17.465	814.135	611.130
379.000	17.504	813.663	610.862
380.015	17.394	813.435	610.244
381.029	17.445	812.424	609.612
382.044	17.406	812.303	609.331
383.059	17.465	811.585	608.948
384.073	17.468	811.406	608.770
385.088	17.539	810.670	608.419
386.102	17.542	810.135	607.972
387.117	17.474	809.945	607.535
388.132	17.394	809.148	606.596
389.146	17.335	809.251	606.412
390.161	17.475	808.647	606.403
391.175	17.418	808.151	605.775
392.190	17.504	807.597	605.611
393.205	17.535	807.216	605.383
394.219	17.571	806.755	605.112
395.234	17.498	806.582	604.667
396.248	17.474	806.140	604.199
397.263	17.453	805.517	603.605
398.278	17.617	804.796	603.589
399.292	17.544	804.300	602.906
400.307	17.469	804.212	602.520
401.321	17.631	803.637	602.612
402.336	17.608	803.210	602.154
403.350	17.703	802.940	602.235
404.365	17.846	801.749	601.795
405.380	17.832	801.526	601.525
406.394	17.796	801.150	601.063
407.409	17.898	800.345	600.763
408.423	17.923	799.973	600.518
409.438	17.908	799.510	600.064
410.453	17.868	799.322	599.731
411.467	17.953	799.191	599.878
412.482	17.908	798.708	599.305
413.496	17.935	797.702	598.590
414.511	18.018	797.858	598.946
415.526	17.845	797.877	598.303
416.540	17.976	797.133	598.149
417.555	17.885	796.609	597.384
418.569	17.954	796.045	597.148
419.584	18.045	795.285	596.845
420.599	17.970	794.986	596.305
421.613	113.983	1295.701	1483.093
422.628	98.165	1368.624	1483.184
