DTS Sentinel unit serial number:	SN413079Multiplexer serial number:	ORYXHardware model number:	OX4-SRSoftware version number:	ORYX F/W v4.00 Oryx Data Collector v3.7.2.0data status	okinstallation	princeton_trtdifferential loss correction	single-endedforward channel	channel 3reverse channel	N/Adate	2019/09/12time	18:06:04forward acquisition time	15.00reverse acquisition time	0.00gamma	496.2192k internal	0.2316k external	0.2316temperature offset calibration	1.0091default loss term (dB/km)	0.3790temperature slope calibration	1.0000multiplexer offset coefficient	1.0000multiplexer slope coefficient	1.0000fibre end	0.00T internal ref (°C)	33.69T ext. ref 1 (°C)	2.85T ext. ref 2 (°C)	28.23length (m)	temperature (°C)	Stokes	anti-Stokes-747.200	800.000	0.101	-0.374
-746.185	-161.047	1.059	0.056
-745.171	359.072	-0.093	0.188
-744.156	3.467	-0.268	-0.198
-743.142	230.613	-0.044	0.072
-742.127	-82.815	0.214	0.070
-741.112	-21.559	0.737	0.455
-740.098	110.422	-0.471	0.573
-739.083	0.771	0.550	-0.399
-738.069	387.042	-0.064	-0.134
-737.054	-200.000	-0.085	-0.686
-736.039	-63.359	-0.729	0.304
-735.025	-62.727	-0.820	0.344
-734.010	-8.150	0.474	-0.324
-732.996	249.226	0.419	0.719
-731.981	-200.000	-0.016	0.104
-730.966	-102.804	-0.379	-0.091
-729.952	-117.184	-1.262	-0.232
-728.937	-67.028	-0.676	0.270
-727.923	31.652	0.164	-0.143
-726.908	-200.000	0.038	0.374
-725.894	77.815	-0.373	0.403
-724.879	-148.759	0.155	-0.013
-723.864	39.241	-0.160	0.145
-722.850	-5.183	-0.349	0.243
-721.835	277.080	0.125	0.225
-720.821	3.229	-0.155	0.114
-719.806	800.000	-0.250	0.836
-718.791	-123.580	0.197	-0.032
-717.777	-67.591	-0.200	-0.079
-716.762	-21.286	0.683	-0.423
-715.748	162.604	0.150	0.213
-714.733	-84.053	0.099	-0.032
-713.718	-200.000	-0.126	0.929
-712.704	-65.354	-0.322	-0.131
-711.689	-27.627	-0.599	-0.352
-710.675	-111.488	0.255	0.053
-709.660	420.219	0.207	-0.449
-708.645	-156.630	0.408	-0.026
-707.631	11.433	0.190	0.147
-706.616	-147.946	0.464	0.039
-705.602	49.533	0.307	0.293
-704.587	-200.000	-0.046	-0.357
-703.572	-62.844	-0.552	-0.231
-702.558	-70.218	1.027	-0.394
-701.543	10.051	-0.550	-0.423
-700.529	2.425	0.506	-0.371
-699.514	-42.215	0.147	0.076
-698.499	-200.000	0.063	0.666
-697.485	-200.000	0.097	-0.550
-696.470	-67.883	-0.729	0.288
-695.456	-83.499	-0.156	-0.050
-694.441	229.057	-0.066	0.109
-693.426	-200.000	0.155	1.080
-692.412	19.636	0.591	-0.481
-691.397	-95.545	0.498	-0.135
-690.383	148.252	-0.200	-0.272
-689.368	23.684	-0.213	0.177
-688.354	-187.132	0.431	-0.006
-687.339	534.159	0.299	0.716
-686.324	-35.872	0.292	-0.160
-685.310	800.000	0.276	-0.878
-684.295	25.007	-0.358	0.300
-683.281	-200.000	0.048	0.524
-682.266	-42.257	-1.092	-0.564
-681.251	142.489	-0.511	0.686
-680.237	620.736	0.070	-0.179
-679.222	-11.157	0.205	-0.137
-678.208	-200.000	-0.044	-0.657
-677.193	-148.847	0.134	0.011
-676.178	401.493	-0.442	0.937
-675.164	-51.370	0.480	-0.227
-674.149	-200.000	-0.136	-0.725
-673.135	800.000	-0.200	0.851
-672.120	-200.000	-0.122	0.948
-671.105	-200.000	0.015	-0.454
-670.091	127.818	-0.198	0.254
-669.076	7.543	-0.335	-0.253
-668.062	514.018	0.153	-0.359
-667.047	72.802	-0.634	-0.669
-666.032	-51.687	0.100	-0.047
-665.018	128.938	-0.327	-0.421
-664.003	-200.000	0.002	0.093
-662.989	-63.377	-0.147	0.061
-661.974	319.710	0.151	0.289
-660.959	0.050	-0.810	0.583
-659.945	-111.102	0.509	0.105
-658.930	110.930	-0.584	-0.709
-657.916	27.568	-0.274	-0.233
-656.901	-122.098	-1.082	-0.179
-655.886	-149.662	-0.585	0.047
-654.872	-113.269	-0.541	-0.107
-653.857	-4.409	-0.233	0.162
-652.843	57.178	-0.535	-0.527
-651.828	800.000	-0.298	0.906
-650.814	436.452	0.191	-0.419
-649.799	-2.348	-0.314	0.222
-648.784	241.421	0.570	-0.961
-647.770	764.845	-0.195	-0.534
-646.755	-183.132	1.093	0.020
-645.741	800.000	-0.124	-0.439
-644.726	-144.632	0.260	0.024
-643.711	800.000	-0.110	-0.313
-642.697	-16.967	-0.424	0.270
-641.682	-200.000	-0.015	0.394
-640.668	-79.512	-1.333	0.454
-639.653	800.000	-0.150	-0.632
-638.638	-200.000	-0.173	-0.824
-637.624	-65.048	-0.855	-0.348
-636.609	800.000	0.234	-0.790
-635.595	-121.876	0.945	-0.157
-634.580	-19.063	-0.951	0.596
-633.565	800.000	0.310	-1.038
-632.551	-95.649	0.435	-0.117
-631.536	328.302	0.190	-0.367
-630.522	-93.031	0.587	-0.165
-629.507	125.824	-0.150	0.191
-628.492	800.000	-0.291	-0.862
-627.478	333.688	0.265	0.517
-626.463	234.123	-0.227	0.377
-625.449	-139.412	-0.678	-0.073
-624.434	-81.905	1.014	-0.334
-623.419	-200.000	0.095	0.487
-622.405	204.396	-0.226	0.352
-621.390	-158.885	0.280	0.016
-620.376	303.113	-0.178	-0.332
-619.361	-76.964	-0.233	-0.082
-618.346	-115.283	0.896	0.171
-617.332	-145.420	-0.316	-0.029
-616.317	479.199	0.081	-0.185
-615.303	800.000	0.164	-0.568
-614.288	20.832	0.583	-0.476
-613.273	75.409	-0.545	-0.579
-612.259	250.263	-0.527	-0.902
-611.244	-200.000	0.073	-0.729
-610.230	665.017	-0.120	0.312
-609.215	375.191	0.373	-0.766
-608.201	800.000	-0.427	-1.302
-607.186	-23.906	-0.756	-0.456
-606.171	91.752	-0.533	-0.603
-605.157	800.000	0.171	-0.648
-604.142	800.000	-0.125	0.386
-603.128	-77.145	0.647	0.227
-602.113	-135.145	-0.407	0.049
-601.098	-200.000	0.144	-0.651
-600.084	-162.830	-1.135	0.056
-599.069	800.000	0.110	0.351
-598.055	-200.000	-0.110	-0.629
-597.040	-152.474	-0.629	0.045
-596.025	122.465	0.366	0.461
-595.011	-200.000	0.100	-0.711
-593.996	-62.425	0.270	-0.113
-592.982	427.399	-0.270	0.588
-591.967	800.000	-0.190	0.705
-590.952	51.494	0.374	-0.357
-589.938	426.687	0.115	-0.249
-588.923	-115.875	-0.388	-0.073
-587.909	-122.892	-0.205	0.033
-586.894	174.558	-0.201	0.292
-585.879	461.045	-0.318	0.715
-584.865	-200.000	0.002	0.723
-583.850	-200.000	0.030	-0.202
-582.836	800.000	0.136	-0.503
-581.821	395.334	0.191	-0.401
-580.806	-161.377	0.635	-0.033
-579.792	23.172	-0.752	-0.621
-578.777	-200.000	-0.017	-0.528
-577.763	282.303	0.210	-0.379
-576.748	39.436	-0.793	-0.715
-575.733	-200.000	-0.013	-0.134
-574.719	-200.000	0.010	0.355
-573.704	93.688	0.268	0.305
-572.690	477.258	0.251	-0.571
-571.675	-117.247	0.407	0.074
-570.661	62.510	0.516	-0.519
-569.646	708.438	0.223	-0.594
-568.631	-152.340	-0.394	-0.029
-567.617	142.282	0.230	-0.307
-566.602	-200.000	0.014	-0.399
-565.588	800.000	-0.208	-0.580
-564.573	-200.000	-0.076	0.646
-563.558	-84.532	-0.897	0.285
-562.544	219.858	0.198	0.320
-561.529	-200.000	0.020	0.420
-560.515	-200.000	-0.041	-0.623
-559.500	299.810	0.272	-0.504
-558.485	7.744	0.524	0.395
-557.471	31.183	0.586	-0.506
-556.456	-181.080	-0.585	0.012
-555.442	309.381	-0.170	0.320
-554.427	800.000	-0.159	0.614
-553.412	474.063	0.377	-0.856
-552.398	-16.349	0.123	0.078
-551.383	41.348	0.070	-0.064
-550.369	-116.860	-0.322	0.059
-549.354	-79.457	0.703	-0.239
-548.339	-178.527	0.472	-0.011
-547.325	800.000	-0.205	0.796
-546.310	89.389	-0.159	0.178
-545.296	-93.824	0.573	-0.159
-544.281	-200.000	-0.063	-0.449
-543.266	-6.420	0.678	-0.465
-542.252	77.442	0.696	-0.744
-541.237	800.000	-0.093	0.344
-540.223	14.155	-0.182	-0.143
-539.208	-10.097	0.145	0.097
-538.193	-200.000	-0.106	-0.676
-537.179	-39.552	-0.541	0.285
-536.164	70.242	-0.078	-0.081
-535.150	-166.290	0.750	0.032
-534.135	308.770	0.417	0.782
-533.121	-200.000	0.057	0.637
-532.106	491.543	0.303	0.698
-531.091	-200.000	0.090	-0.933
-530.077	-200.000	0.074	0.668
-529.062	-200.000	0.041	0.360
-528.048	-25.980	0.554	0.327
-527.033	-101.261	0.054	-0.013
-526.018	-154.261	0.052	0.004
-525.004	-108.232	0.669	-0.145
-523.989	-200.000	-0.094	-0.842
-522.975	503.198	0.145	-0.338
-521.960	-14.184	0.401	0.260
-520.945	-200.000	0.014	-0.878
-519.931	54.885	0.639	-0.620
-518.916	-46.523	-0.856	-0.422
-517.902	-142.421	-0.584	0.058
-516.887	-42.299	0.418	0.214
-515.872	173.981	0.298	0.432
-514.858	-173.815	0.191	0.006
-513.843	-40.262	0.391	-0.204
-512.829	-40.067	-0.743	-0.389
-511.814	-200.000	-0.007	-0.270
-510.799	344.541	-0.127	-0.251
-509.785	-57.716	0.613	-0.269
-508.770	-7.467	-0.898	0.610
-507.756	-29.502	-0.386	0.222
-506.741	-200.000	-0.031	0.862
-505.726	-18.755	-0.417	-0.261
-504.712	109.318	0.160	0.192
-503.697	-16.882	-0.296	-0.188
-502.683	95.217	-0.364	0.416
-501.668	-200.000	-0.073	0.514
-500.653	-134.585	-0.999	0.122
-499.639	161.503	0.222	-0.311
-498.624	-145.309	-0.500	-0.045
-497.610	-200.000	-0.037	-0.170
-496.595	-200.000	-0.064	-0.914
-495.581	20.954	-0.352	-0.286
-494.566	15.686	0.448	-0.353
-493.551	-200.000	-0.033	-0.546
-492.537	74.712	0.492	0.520
-491.522	-58.304	0.374	-0.163
-490.508	-100.796	0.255	-0.063
-489.493	-200.000	0.043	0.585
-488.478	-53.082	0.674	0.311
-487.464	207.978	0.225	-0.353
-486.449	207.977	-0.081	0.128
-485.435	-63.521	0.279	-0.115
-484.420	139.752	-0.087	0.115
-483.405	800.000	-0.077	0.308
-482.391	-200.000	-0.068	-0.476
-481.376	-200.000	0.057	0.383
-480.362	459.276	-0.138	-0.307
-479.347	-200.000	-0.023	-0.722
-478.332	31.563	-0.699	-0.602
-477.318	467.576	-0.419	0.943
-476.303	-149.212	0.723	0.058
-475.289	-106.911	0.785	0.174
-474.274	-143.781	-0.283	-0.027
-473.259	99.032	0.291	-0.336
-472.245	-46.801	0.521	-0.256
-471.230	-136.778	-0.832	-0.096
-470.216	-200.000	0.162	0.914
-469.201	-11.071	0.187	0.123
-468.186	1.186	0.625	-0.450
-467.172	800.000	0.199	0.773
-466.157	-162.391	-0.610	0.030
-465.143	-111.638	-0.379	0.077
-464.128	-0.605	0.406	0.288
-463.113	800.000	-0.212	-0.727
-462.099	-99.018	-0.527	0.134
-461.084	-200.000	0.103	0.567
-460.070	-60.804	-0.691	0.293
-459.055	-200.000	0.050	0.643
-458.040	328.542	0.295	-0.567
-457.026	-137.890	-0.424	-0.047
-456.011	165.530	0.223	0.315
-454.997	800.000	-0.122	0.475
-453.982	-50.550	-0.483	0.228
-452.968	-200.000	-0.019	0.321
-451.953	800.000	-0.183	0.518
-450.938	16.577	-0.286	-0.227
-449.924	36.279	-0.346	0.305
-448.909	-52.335	0.235	0.109
-447.895	-200.000	0.059	0.635
-446.880	-179.116	-0.664	-0.015
-445.865	-85.023	-0.719	0.226
-444.851	80.990	0.655	0.708
-443.836	-68.447	-0.266	0.103
-442.822	470.496	-0.243	0.546
-441.807	-200.000	-0.002	-0.061
-440.792	470.032	0.120	0.270
-439.778	58.985	-0.182	0.179
-438.763	684.985	0.199	0.521
-437.749	-200.000	-0.009	0.219
-436.734	103.234	-0.853	1.001
-435.719	800.000	0.345	0.973
-434.705	-128.196	0.430	0.061
-433.690	800.000	0.258	-0.961
-432.676	8.544	-0.837	-0.630
-431.661	-200.000	0.012	-0.532
-430.646	-154.929	0.158	-0.010
-429.632	231.014	0.173	0.283
-428.617	-127.705	-0.915	0.132
-427.603	-40.287	-0.692	-0.360
-426.588	101.168	0.239	-0.279
-425.573	345.725	-0.164	-0.322
-424.559	800.000	-0.196	-0.634
-423.544	800.000	0.033	-0.103
-422.530	-83.188	0.430	-0.138
-421.515	-200.000	0.012	-0.284
-420.500	-33.519	0.437	0.242
-419.486	225.056	-0.036	0.058
-418.471	123.319	-0.515	0.645
-417.457	162.585	0.126	0.176
-416.442	-186.157	0.844	0.012
-415.428	78.159	-0.670	0.715
-414.413	16.302	0.648	-0.512
-413.398	-74.807	0.546	0.196
-412.384	-124.786	-0.983	0.152
-411.369	5.328	0.225	-0.166
-410.355	25.752	1.311	-1.092
-409.340	-125.725	0.251	-0.038
-408.325	-200.000	-0.205	0.969
-407.311	-88.640	1.004	0.299
-406.296	-15.913	0.592	0.377
-405.282	-177.549	0.462	0.011
-404.267	86.025	-0.560	0.616
-403.252	-48.791	0.210	0.101
-402.238	-134.992	-1.204	-0.145
-401.223	115.678	0.162	-0.198
-400.209	800.000	-0.190	0.541
-399.194	-46.558	-0.415	-0.204
-398.179	-75.191	0.907	-0.324
-397.165	168.395	0.433	-0.617
-396.150	226.984	-0.179	-0.290
-395.136	203.058	0.525	-0.810
-394.121	-160.248	-0.389	0.021
-393.106	313.232	-0.342	-0.643
-392.092	325.036	-0.217	0.414
-391.077	-88.675	-0.380	0.113
-390.063	-200.000	-0.092	-0.445
-389.048	164.316	0.074	-0.104
-388.033	290.461	-0.174	-0.315
-387.019	-78.859	-0.843	-0.287
-386.004	-112.173	-1.081	-0.217
-384.990	-64.453	-0.296	0.120
-383.975	246.561	-0.232	0.390
-382.960	800.000	0.178	0.518
-381.946	-60.320	0.158	-0.067
-380.931	720.726	0.032	-0.085
-379.917	50.544	-0.388	-0.366
-378.902	-63.852	-0.847	-0.346
-377.888	33.672	0.507	0.441
-376.873	-200.000	0.138	0.634
-375.858	-99.095	0.116	-0.029
-374.844	75.059	-0.365	0.384
-373.829	800.000	0.137	0.565
-372.815	244.959	0.298	0.501
-371.800	-73.579	0.599	-0.218
-370.785	-200.000	-0.055	0.553
-369.771	-126.084	-0.771	-0.116
-368.756	415.228	-0.290	0.618
-367.742	-200.000	-0.005	-0.599
-366.727	-200.000	-0.027	-0.379
-365.712	5.013	0.689	-0.506
-364.698	800.000	-0.410	-1.230
-363.683	110.271	0.242	-0.291
-362.669	-87.184	-0.262	-0.079
-361.654	-127.717	-0.104	0.015
-360.639	-39.501	0.157	0.082
-359.625	365.489	-0.255	0.513
-358.610	-42.380	0.780	-0.397
-357.596	71.074	0.086	-0.089
-356.581	-152.877	-0.616	-0.043
-355.566	-200.000	-0.084	0.871
-354.552	240.940	0.320	0.533
-353.537	679.074	-0.177	-0.459
-352.523	800.000	-0.131	0.541
-351.508	7.735	0.449	-0.335
-350.493	594.586	0.088	-0.217
-349.479	800.000	0.212	-0.728
-348.464	-14.135	0.540	-0.348
-347.450	355.654	-0.527	1.047
-346.435	-200.000	-0.002	-0.063
-345.420	-200.000	-0.107	0.535
-344.406	-75.850	-0.433	0.153
-343.391	53.233	-0.930	0.888
-342.377	-200.000	-0.039	-0.642
-341.362	-55.345	0.462	0.207
-340.348	88.615	-0.835	-0.925
-339.333	286.366	-0.115	0.208
-338.318	299.381	-0.115	-0.211
-337.304	-127.362	-1.034	0.150
-336.289	-13.165	0.280	-0.182
-335.275	-176.469	-0.352	-0.009
-334.260	-200.000	0.040	0.408
-333.245	-4.779	-0.760	0.522
-332.231	-26.460	-0.241	-0.141
-331.216	135.241	-0.590	-0.764
-330.202	-200.000	-0.140	0.783
-329.187	44.549	-0.425	0.389
-328.172	683.523	-0.299	-0.778
-327.158	-4.707	0.434	-0.298
-326.143	-84.442	0.372	0.117
-325.129	-200.000	-0.059	-0.978
-324.114	-57.690	0.949	-0.414
-323.099	-68.707	0.057	-0.022
-322.085	-24.294	-0.866	-0.515
-321.070	8.205	0.606	-0.454
-320.056	-60.077	0.323	-0.138
-319.041	-39.676	0.386	-0.201
-318.026	358.906	0.313	0.622
-317.012	-103.963	0.331	-0.077
-315.997	49.151	-0.383	-0.358
-314.983	726.348	-0.170	0.452
-313.968	167.977	-0.491	-0.696
-312.953	44.269	0.855	0.781
-311.939	448.861	-0.070	0.154
-310.924	800.000	-0.117	-0.512
-309.910	-129.637	0.593	-0.081
-308.895	73.016	0.300	0.312
-307.880	89.549	0.741	0.823
-306.866	-58.307	-0.227	-0.098
-305.851	104.071	-0.346	0.405
-304.837	73.757	0.098	0.102
-303.822	253.305	0.352	-0.599
-302.807	-49.150	-0.689	0.328
-301.793	-200.000	0.069	0.367
-300.778	44.006	0.479	-0.437
-299.764	58.533	0.155	0.151
-298.749	96.567	-0.322	-0.367
-297.735	800.000	0.047	-0.136
-296.720	119.068	0.500	0.615
-295.705	319.626	-0.239	0.452
-294.691	-142.399	-0.347	-0.034
-293.676	175.843	-0.371	-0.535
-292.662	473.520	0.187	0.419
-291.647	293.634	0.447	0.811
-290.632	770.571	0.294	0.798
-289.618	-116.407	-1.659	-0.305
-288.603	-66.572	0.528	0.208
-287.589	-49.398	0.573	0.272
-286.574	328.734	-0.207	0.397
-285.559	-161.092	0.735	0.038
-284.545	241.254	0.392	-0.652
-283.530	184.350	-0.420	0.618
-282.516	5.505	-0.377	0.277
-281.501	-87.839	-0.645	-0.193
-280.486	-200.000	0.029	0.434
-279.472	314.024	-0.321	0.601
-278.457	-153.203	-0.307	-0.021
-277.443	-156.917	-0.578	0.035
-276.428	-200.000	0.264	1.270
-275.413	-200.000	-0.018	0.162
-274.399	-33.740	0.209	-0.115
-273.384	81.394	0.278	0.299
-272.370	-190.928	-0.689	-0.007
-271.355	692.025	0.229	0.598
-270.340	-42.340	0.425	-0.216
-269.326	-200.000	-0.078	-0.357
-268.311	-67.600	0.195	-0.076
-267.297	145.143	-0.656	-0.873
-266.282	800.000	0.131	0.518
-265.267	800.000	0.334	0.966
-264.253	-200.000	-0.008	-0.440
-263.238	-4.531	-0.260	0.178
-262.224	92.437	0.478	-0.535
-261.209	-200.000	-0.131	0.575
-260.195	-167.776	0.660	0.026
-259.180	721.023	-0.082	-0.218
-258.165	346.929	-0.225	0.441
-257.151	800.000	-0.500	1.396
-256.136	177.203	0.039	0.057
-255.122	-190.258	-0.490	0.005
-254.107	92.569	0.262	0.293
-253.092	-42.403	0.228	0.115
-252.078	800.000	0.180	-0.518
-251.063	-200.000	0.137	0.924
-250.049	6.788	0.446	0.330
-249.034	800.000	-0.028	0.099
-248.019	198.149	-0.382	0.580
-247.005	-87.140	0.505	-0.153
-245.990	130.153	-0.103	-0.131
-244.976	-200.000	0.022	0.251
-243.961	-171.627	-0.073	-0.002
-242.946	-46.387	-0.331	-0.161
-241.932	-115.370	0.503	0.094
-240.917	-200.000	0.067	0.478
-239.903	517.531	-0.190	-0.442
-238.888	642.039	-0.186	-0.470
-237.873	800.000	-0.154	-0.450
-236.859	-98.570	0.410	0.104
-235.844	111.269	-0.199	0.238
-234.830	-200.000	0.083	-0.595
-233.815	25.323	0.937	-0.773
-232.800	341.374	0.193	0.375
-231.786	277.256	0.258	0.456
-230.771	-200.000	-0.016	0.452
-229.757	540.522	-0.187	0.441
-228.742	107.877	0.312	0.370
-227.727	254.321	-0.182	-0.309
-226.713	263.432	-0.356	-0.615
-225.698	287.904	0.131	0.235
-224.684	24.144	0.164	0.134
-223.669	800.000	-0.190	-0.711
-222.655	-147.863	0.202	-0.017
-221.640	-200.000	-0.031	-0.644
-220.625	-38.631	0.137	0.072
-219.611	-200.000	0.103	0.693
-218.596	-19.951	0.195	-0.119
-217.582	800.000	0.051	0.176
-216.567	-90.028	-0.248	0.072
-215.552	800.000	-0.258	-1.096
-214.538	-14.244	0.387	0.248
-213.523	64.378	-0.476	0.476
-212.509	207.114	-0.502	-0.777
-211.494	-90.477	-0.699	-0.201
-210.479	800.000	-0.046	0.174
-209.465	4.649	0.509	-0.371
-208.450	-128.315	0.491	-0.069
-207.436	-200.000	-0.018	-0.592
-206.421	255.047	0.156	-0.264
-205.406	800.000	-0.094	0.365
-204.392	300.609	-0.159	-0.291
-203.377	-51.913	0.565	0.260
-202.363	303.811	-0.267	-0.492
-201.348	56.028	0.616	-0.593
-200.333	-45.291	0.542	-0.267
-199.319	84.489	0.244	0.265
-198.304	-11.093	0.316	0.207
-197.290	-144.464	-0.630	-0.058
-196.275	-200.000	0.030	0.559
-195.260	122.984	-0.182	0.226
-194.246	51.308	-0.342	0.322
-193.231	-144.088	0.365	0.034
-192.217	-200.000	0.125	-0.566
-191.202	114.283	-0.215	0.260
-190.187	15.504	0.679	0.528
-189.173	-169.705	0.129	-0.005
-188.158	29.670	0.383	-0.323
-187.144	79.743	0.309	0.329
-186.129	-83.505	-0.029	-0.009
-185.114	-100.447	-0.620	0.152
-184.100	111.191	-0.208	0.248
-183.085	88.310	-0.623	0.685
-182.071	87.388	-0.573	0.628
-181.056	-20.047	0.392	-0.239
-180.042	140.593	0.370	-0.484
-179.027	453.233	-0.520	-1.140
-178.012	141.969	0.259	0.340
-176.998	87.742	-0.261	0.286
-175.983	-158.856	-0.377	-0.021
-174.969	-32.298	0.394	-0.218
-173.954	-95.418	0.209	0.056
-172.939	260.797	-0.341	0.585
-171.925	31.874	0.309	0.264
-170.910	23.043	0.302	-0.245
-169.896	-74.056	0.621	0.223
-168.881	800.000	-0.068	-0.213
-167.866	25.682	0.577	0.476
-166.852	79.210	0.259	0.275
-165.837	163.558	0.060	0.083
-164.823	-133.933	0.346	0.043
-163.808	-200.000	0.101	0.651
-162.793	28.140	0.545	0.455
-161.779	-71.804	-0.931	0.344
-160.764	-200.000	0.042	0.404
-159.750	-116.007	0.329	0.061
-158.735	114.786	0.239	-0.289
-157.720	381.176	-0.252	0.512
-156.706	54.879	-0.549	0.525
-155.691	45.358	0.799	-0.730
-154.677	-118.106	-0.243	0.043
-153.662	800.000	0.157	0.462
-152.647	-133.684	0.319	-0.039
-151.633	333.890	0.402	0.770
-150.618	34.737	0.494	-0.428
-149.604	-140.000	0.483	0.050
-148.589	139.086	0.232	0.302
-147.574	77.441	-0.117	-0.123
-146.560	-44.808	-0.266	0.131
-145.545	-200.000	-0.114	1.304
-144.531	8.671	-0.716	0.533
-143.516	-51.273	-0.276	-0.128
-142.502	-200.000	-0.109	0.474
-141.487	-200.000	0.096	0.563
-140.472	800.000	0.192	0.702
-139.458	767.139	0.132	0.355
-138.443	-200.000	0.054	-0.435
-137.429	-51.731	-0.348	0.161
-136.414	0.393	-0.426	-0.301
-135.399	-128.076	0.366	-0.052
-134.385	83.842	-0.409	-0.441
-133.370	13.582	-0.388	-0.298
-132.356	-149.997	-0.416	0.032
-131.341	-99.793	0.598	-0.148
-130.326	800.000	0.173	-0.558
-129.312	-97.110	-0.734	-0.190
-128.297	800.000	-0.190	-0.704
-127.283	4.209	0.512	-0.371
-126.268	-16.436	0.201	-0.126
-125.253	681.525	-0.148	-0.381
-124.239	800.000	-0.034	0.119
-123.224	800.000	-0.092	0.373
-122.210	-200.000	0.034	-0.274
-121.195	-60.715	-0.480	-0.201
-120.180	-200.000	-0.022	0.428
-119.166	-112.467	-1.140	-0.225
-118.151	-45.653	-0.436	-0.213
-117.137	-32.628	0.417	-0.229
-116.122	-170.989	0.651	0.022
-115.107	800.000	0.269	0.776
-114.093	34.976	-0.387	0.335
-113.078	125.414	-0.118	0.147
-112.064	-200.000	0.090	0.430
-111.049	-200.000	-0.022	0.415
-110.034	-64.826	-0.607	-0.243
-109.020	-200.000	-0.050	-0.322
-108.005	-69.126	-0.223	-0.085
-106.991	-94.357	-0.289	-0.078
-105.976	-57.796	0.105	-0.045
-104.962	145.958	-0.615	0.815
-103.947	800.000	0.162	0.470
-102.932	145.782	-0.135	-0.179
-101.918	-200.000	0.009	0.224
-100.903	-61.357	0.824	0.342
-99.889	649.471	-0.126	0.319
-98.874	-200.000	-0.048	-0.223
-97.859	-80.675	-0.595	-0.196
-96.845	297.458	0.131	-0.238
-95.830	-81.688	0.561	-0.182
-94.816	-200.000	0.094	0.738
-93.801	800.000	-0.102	-0.353
-92.786	-10.746	0.597	-0.390
-91.772	-68.346	0.482	0.185
-90.757	-75.290	-0.407	-0.144
-89.743	-200.000	0.025	0.179
-88.728	-23.991	0.099	-0.059
-87.713	602.860	-0.131	-0.322
-86.699	123.748	-0.272	0.337
-85.684	-104.787	-0.453	-0.103
-84.670	800.000	-0.074	-0.229
-83.655	-121.653	-0.711	-0.116
-82.640	169.009	-0.519	-0.731
-81.626	58.360	0.408	0.395
-80.611	-63.745	0.187	-0.076
-79.597	222.815	-0.101	-0.161
-78.582	377.105	0.403	-0.812
-77.567	-93.836	0.117	0.032
-76.553	-200.000	0.012	-0.584
-75.538	-125.250	0.383	-0.058
-74.524	113.688	-0.162	-0.194
-73.509	27.923	-0.068	0.056
-72.494	-124.017	0.647	0.100
-71.480	-86.412	-0.392	0.119
-70.465	139.639	0.328	-0.427
-69.451	276.982	-0.419	-0.735
-68.436	-17.712	-0.528	-0.327
-67.422	110.611	-0.358	0.424
-66.407	-93.224	-0.216	-0.059
-65.392	-200.000	-0.006	-0.166
-64.378	150.881	-0.056	-0.075
-63.363	800.000	-0.171	0.607
-62.349	800.000	0.138	0.378
-61.334	800.000	-0.454	-1.269
-60.319	800.000	-0.272	0.764
-59.305	-200.000	0.092	-1.140
-58.290	340.958	0.805	1.550
-57.276	344.739	1.055	2.042
-56.261	-200.000	96.828	571.546
-55.246	628.402	1376.300	3429.464
-54.232	196.672	2554.561	3838.436
-53.217	116.628	2157.849	2610.032
-52.203	44.012	1701.357	1537.500
-51.188	36.913	1516.169	1321.884
-50.173	34.588	1489.230	1282.738
-49.159	54.944	1539.369	1465.380
-48.144	55.693	1558.956	1489.087
-47.130	37.084	1516.535	1323.160
-46.115	33.900	1502.469	1289.273
-45.100	33.921	1497.621	1285.200
-44.086	33.713	1496.034	1282.384
-43.071	34.076	1493.541	1282.644
-42.057	33.662	1492.956	1279.299
-41.042	33.701	1491.268	1278.064
-40.027	33.621	1490.772	1277.049
-39.013	33.549	1489.398	1275.339
-37.998	33.823	1487.023	1275.097
-36.984	33.924	1485.961	1274.808
-35.969	33.881	1484.732	1273.420
-34.954	33.555	1483.471	1270.100
-33.940	33.602	1481.948	1269.061
-32.925	33.634	1480.517	1268.003
-31.911	33.741	1479.781	1268.033
-30.896	33.805	1478.707	1267.494
-29.881	33.677	1477.335	1265.409
-28.867	33.782	1476.659	1265.484
-27.852	33.893	1474.323	1264.165
-26.838	33.401	1474.281	1260.810
-25.823	33.874	1471.427	1261.458
-24.809	33.774	1469.643	1259.218
-23.794	33.821	1468.581	1258.564
-22.779	33.709	1467.365	1256.731
-21.765	33.804	1466.015	1256.155
-20.750	33.328	1466.063	1252.996
-19.736	33.462	1463.984	1252.058
-18.721	33.663	1462.602	1252.149
-17.706	33.879	1461.016	1252.170
-16.692	33.568	1460.402	1249.540
-15.677	33.478	1460.635	1249.099
-14.663	33.565	1458.662	1247.934
-13.648	33.844	1458.034	1249.181
-12.633	33.675	1456.496	1246.706
-11.619	33.777	1454.954	1246.005
-10.604	33.560	1456.287	1245.674
-9.590	33.559	1454.227	1243.858
-8.575	33.820	1453.609	1244.988
-7.560	33.599	1454.021	1243.843
-6.546	33.815	1451.835	1243.337
-5.531	33.764	1451.488	1242.655
-4.517	33.738	1449.403	1240.651
-3.502	33.633	1449.786	1240.246
-2.487	33.747	1448.633	1239.956
-1.473	33.639	1447.426	1238.164
-0.458	33.683	1445.556	1236.802
0.556	34.487	1436.124	1224.621
1.571	31.400	1410.753	1183.379
2.586	27.705	1350.390	1110.203
3.600	25.788	1268.811	1032.063
4.615	24.499	1222.432	987.133
5.629	20.589	1166.476	921.193
6.644	11.385	1082.024	808.983
7.659	4.036	1039.670	742.130
8.673	3.314	1034.354	734.826
9.688	3.108	1030.496	731.040
10.702	2.541	1029.912	727.870
11.717	2.441	1028.806	726.546
12.731	5.867	1031.211	744.461
13.746	15.307	1044.534	799.197
14.761	23.562	1054.902	846.625
15.775	25.994	1056.680	859.586
16.790	26.481	1057.570	862.555
17.804	26.232	1056.778	860.646
18.819	26.119	1056.008	859.404
19.834	26.098	1055.687	858.967
20.848	26.343	1054.941	859.452
21.863	26.583	1054.277	859.971
22.877	26.640	1054.320	860.201
23.892	26.198	1053.306	857.200
24.907	26.117	1054.023	857.325
25.921	26.506	1051.344	856.915
26.936	26.562	1050.371	856.310
27.950	26.506	1049.507	855.263
28.965	26.492	1049.033	854.735
29.980	26.422	1047.512	853.091
30.994	26.035	1045.811	849.805
32.009	26.447	1045.584	851.487
33.023	26.668	1045.310	852.231
34.038	26.374	1044.725	850.293
35.053	26.361	1043.761	849.371
36.067	26.323	1043.102	848.584
37.082	26.285	1041.853	847.316
38.096	26.514	1042.473	848.816
39.111	26.967	1040.748	849.458
40.126	26.548	1040.925	847.568
41.140	26.888	1037.626	846.393
42.155	26.461	1036.751	843.612
43.169	26.204	1035.741	841.520
44.184	25.908	1035.015	839.476
45.199	25.836	1035.000	839.055
46.213	26.184	1032.469	838.543
47.228	25.797	1033.432	837.455
48.242	25.916	1033.162	837.713
49.257	26.384	1030.741	837.845
50.271	26.252	1030.283	836.786
51.286	26.532	1029.271	837.188
52.301	26.573	1028.749	836.880
53.315	26.650	1028.777	837.184
54.330	26.725	1027.558	836.463
55.344	26.403	1026.355	833.926
56.359	26.638	1025.272	834.054
57.374	26.370	1024.992	832.518
58.388	26.064	1024.957	831.008
59.403	26.011	1023.964	829.883
60.417	26.101	1023.005	829.448
61.432	25.895	1021.868	827.505
62.447	26.093	1020.860	827.523
63.461	25.996	1020.890	827.033
64.476	26.042	1020.814	827.105
65.490	25.919	1020.180	825.956
66.505	26.431	1016.937	825.597
67.520	26.191	1016.696	824.230
68.534	26.079	1017.241	824.090
69.549	25.889	1016.112	822.235
70.563	25.872	1014.731	820.969
71.578	25.770	1013.282	819.257
72.593	25.568	1013.954	818.811
73.607	25.756	1011.013	817.215
74.622	25.310	1011.240	815.301
75.636	25.852	1010.505	817.095
76.651	26.100	1009.301	817.173
77.666	25.791	1009.693	816.020
78.680	25.706	1007.638	813.900
79.695	26.031	1007.487	815.174
80.709	25.998	1006.523	814.177
81.724	26.218	1006.485	815.065
82.739	25.846	1005.239	812.305
83.753	26.032	1004.545	812.514
84.768	26.267	1003.590	812.724
85.782	26.780	1003.074	814.541
86.797	26.923	1002.418	814.580
87.812	26.628	1001.446	812.394
88.826	26.412	1000.771	810.807
89.841	26.740	999.509	811.178
90.855	26.601	999.439	810.427
91.870	26.589	999.453	810.315
92.884	26.512	997.693	808.472
93.899	26.449	997.775	808.188
94.914	26.218	996.336	805.920
95.928	26.455	994.724	805.600
96.943	26.551	994.572	805.833
97.957	26.846	991.866	804.876
98.972	26.209	991.129	801.382
99.987	25.749	991.886	799.881
101.001	26.110	990.479	800.277
102.016	26.137	989.694	799.692
103.030	26.498	988.626	800.353
104.045	26.224	988.182	798.711
105.060	26.433	986.544	798.241
106.074	26.213	986.259	796.969
107.089	25.884	986.399	795.558
108.103	26.320	985.144	796.396
109.118	26.500	984.900	796.924
110.133	26.112	983.432	793.958
111.147	26.106	981.955	792.669
112.162	26.197	980.452	791.787
113.176	25.848	979.455	789.380
114.191	25.935	979.104	789.409
115.206	26.005	978.483	789.143
116.220	25.804	976.482	786.585
117.235	25.588	976.553	785.629
118.249	25.821	975.483	785.714
119.264	25.711	974.511	784.380
120.279	25.812	974.378	784.645
121.293	25.811	974.229	784.454
122.308	26.041	972.682	784.136
123.322	25.782	972.118	782.487
124.337	26.244	969.880	782.621
125.352	25.623	969.720	779.729
126.366	25.261	968.358	777.000
127.381	24.657	967.252	773.428
128.395	25.462	966.464	776.209
129.410	25.939	967.183	778.780
130.424	26.305	965.175	778.670
131.439	26.185	965.508	778.355
132.454	26.368	963.350	777.333
133.468	26.545	961.945	776.888
134.483	25.984	962.508	774.866
135.497	26.350	962.097	776.041
136.512	26.299	961.425	775.210
137.527	26.524	960.065	775.009
138.541	26.521	960.036	774.904
139.556	26.635	958.776	774.305
140.570	26.623	957.494	773.149
141.585	26.550	957.433	772.722
142.600	26.403	957.371	771.975
143.614	26.351	956.338	770.852
144.629	26.318	955.494	769.962
145.643	26.897	954.831	771.823
146.658	26.809	953.937	770.657
147.673	26.762	951.788	768.656
148.687	26.358	951.060	766.287
149.702	26.399	950.920	766.281
150.716	25.942	949.722	763.312
151.731	26.342	948.380	763.857
152.746	26.274	947.916	763.130
153.760	26.410	948.024	763.721
154.775	26.667	947.418	764.250
155.789	26.401	946.877	762.627
156.804	26.926	944.548	762.890
157.819	26.638	943.923	761.110
158.833	26.720	942.064	759.885
159.848	26.692	942.924	760.396
160.862	26.568	942.190	759.216
161.877	26.736	941.416	759.227
162.892	26.671	940.641	758.265
163.906	26.697	939.258	757.190
164.921	26.619	938.670	756.322
165.935	26.441	937.665	754.702
166.950	26.716	935.754	754.244
167.964	26.677	934.711	753.175
168.979	26.844	934.272	753.448
169.994	26.669	933.302	751.874
171.008	26.631	932.743	751.198
172.023	26.616	931.963	750.441
173.037	26.587	932.087	750.356
174.052	26.672	929.888	748.869
175.067	26.606	928.915	747.749
176.081	26.653	927.869	747.032
177.096	26.763	928.231	747.714
178.110	26.483	926.373	744.995
179.125	26.507	924.781	743.750
180.140	25.879	925.733	741.864
181.154	26.300	924.569	742.595
182.169	25.964	924.430	741.039
183.183	26.186	923.610	741.229
184.198	26.824	922.594	742.959
185.213	26.471	922.923	741.713
186.227	26.629	921.470	741.126
187.242	26.698	921.673	741.507
188.256	26.925	920.534	741.452
189.271	26.746	919.056	739.467
190.286	26.683	919.925	739.844
191.300	26.906	917.170	738.471
192.315	26.241	916.154	734.880
193.329	25.537	915.295	731.266
194.344	24.946	913.195	727.123
195.359	25.388	914.970	730.269
196.373	26.458	914.184	733.920
197.388	26.900	913.973	735.480
198.402	26.273	913.846	732.771
199.417	26.293	913.917	732.845
200.432	26.595	913.322	733.527
201.446	26.509	912.149	732.169
202.461	26.285	911.183	730.427
203.475	26.387	910.931	730.571
204.490	25.840	909.903	727.475
205.504	24.787	908.043	721.677
206.519	24.933	908.374	722.464
207.534	26.227	907.226	726.699
208.548	26.206	907.171	726.504
209.563	26.711	906.966	728.308
210.577	26.158	906.523	725.666
211.592	26.193	905.662	725.050
212.607	26.787	905.370	727.138
213.621	26.823	905.369	727.218
214.636	26.556	903.803	724.824
215.650	27.036	904.159	726.968
216.665	26.662	903.466	724.851
217.680	26.704	903.785	725.211
218.694	26.925	902.491	724.992
219.709	26.315	902.047	722.134
220.723	26.227	900.692	720.633
221.738	26.560	900.160	721.473
222.753	26.823	899.708	722.094
223.767	26.444	898.681	719.699
224.782	26.771	897.809	720.234
225.796	26.855	897.569	720.311
226.811	26.840	896.411	719.258
227.826	26.380	895.968	717.019
228.840	25.654	894.933	713.249
229.855	25.781	893.151	712.268
230.869	25.809	893.169	712.328
231.884	25.571	893.068	711.246
232.899	25.604	891.968	710.438
233.913	26.427	892.130	713.751
234.928	26.219	891.481	712.348
235.942	26.640	890.743	713.356
236.957	26.514	890.565	712.651
237.972	26.087	891.039	711.288
238.986	26.182	888.573	709.628
240.001	26.456	887.774	710.002
241.015	26.059	888.514	708.975
242.030	25.901	888.560	708.325
243.045	26.332	887.449	709.068
244.059	26.289	886.794	708.315
245.074	26.615	886.207	709.061
246.088	26.464	885.994	708.236
247.103	26.391	884.270	706.508
248.117	26.285	883.648	705.538
249.132	26.503	883.596	706.281
250.147	27.092	883.760	708.648
251.161	27.535	883.199	709.864
252.176	27.491	882.398	708.985
253.190	27.422	882.692	708.892
254.205	27.464	881.511	708.042
255.220	27.896	881.314	709.502
256.234	27.670	879.945	707.458
257.249	27.285	880.209	706.115
258.263	27.148	878.683	704.296
259.278	27.296	878.735	704.850
260.293	27.183	878.771	704.379
261.307	27.326	878.001	704.252
262.322	27.298	876.980	703.264
263.336	27.289	876.021	702.398
264.351	26.927	874.537	699.748
265.366	25.995	873.299	695.105
266.380	25.509	872.156	692.262
267.395	25.909	873.070	694.470
268.409	26.948	872.637	698.062
269.424	26.552	871.804	695.811
270.439	27.005	871.902	697.570
271.453	27.168	871.537	697.843
272.468	26.875	871.422	696.564
273.482	27.494	869.955	697.702
274.497	27.503	869.911	697.639
275.512	27.205	869.005	695.711
276.526	26.976	867.470	693.544
277.541	27.124	867.953	694.435
278.555	27.397	866.569	694.308
279.570	27.270	865.882	693.211
280.585	26.738	865.505	690.822
281.599	26.587	866.016	690.594
282.614	27.396	864.547	692.437
283.628	26.493	863.446	688.062
284.643	25.966	863.360	685.928
285.657	26.510	862.915	687.582
286.672	26.726	861.697	687.371
287.687	25.937	861.340	684.033
288.701	26.930	860.334	686.934
289.716	27.030	860.813	687.634
290.730	26.471	859.836	684.681
291.745	26.562	859.322	684.553
292.760	26.412	857.501	682.477
293.774	26.114	857.427	681.233
294.789	27.027	858.521	685.489
295.803	28.090	857.540	688.650
296.818	27.971	857.623	688.209
297.833	27.948	857.041	687.592
298.847	27.606	857.058	686.260
299.862	27.262	855.056	683.302
300.876	27.223	855.455	683.415
301.891	27.745	854.698	684.711
302.906	27.826	853.642	684.108
303.920	27.454	852.662	681.869
304.935	27.261	852.615	681.047
305.949	27.472	852.590	681.758
306.964	27.486	851.668	681.013
307.979	27.743	850.264	680.788
308.993	27.560	849.847	679.711
310.008	27.950	850.046	681.264
311.022	28.188	849.716	681.828
312.037	27.590	850.340	680.039
313.052	27.318	848.262	677.304
314.066	27.204	847.387	676.119
315.081	26.616	846.420	673.103
316.095	25.747	844.823	668.551
317.110	26.243	845.863	671.156
318.125	26.967	846.002	673.897
319.139	26.935	845.185	673.066
320.154	25.684	842.718	666.415
321.168	25.237	841.941	664.087
322.183	25.950	842.154	666.836
323.197	26.911	843.247	671.199
324.212	26.837	842.671	670.408
325.227	27.550	841.361	671.934
326.241	27.502	840.982	671.395
327.256	27.725	839.977	671.356
328.270	27.479	839.665	670.141
329.285	27.476	838.801	669.381
330.300	27.087	838.110	667.344
331.314	26.976	837.850	666.667
332.329	27.068	837.262	666.481
333.343	27.517	837.263	668.068
334.358	27.326	837.048	667.139
335.373	27.671	835.588	667.175
336.387	27.469	835.976	666.689
337.402	27.501	835.170	666.104
338.416	28.021	834.912	667.738
339.431	27.953	834.850	667.381
340.446	28.212	834.133	667.694
341.460	28.234	833.196	666.964
342.475	28.231	832.968	666.713
343.489	28.488	831.095	666.090
344.504	28.297	831.045	665.297
345.519	28.414	830.879	665.530
346.533	28.558	830.879	665.992
347.548	28.870	830.217	666.534
348.562	28.410	830.819	665.291
349.577	28.402	829.521	664.163
350.592	28.464	827.964	663.080
351.606	28.267	828.805	662.982
352.621	28.223	828.047	662.157
353.635	28.288	826.750	661.298
354.650	28.000	827.024	660.419
355.665	27.582	826.087	658.103
356.679	27.428	822.993	655.026
357.694	26.575	824.213	652.866
358.708	27.340	824.068	655.449
359.723	27.148	823.623	654.346
360.738	27.610	822.966	655.427
361.752	27.925	822.838	656.397
362.767	27.856	822.939	656.172
363.781	28.416	823.045	658.211
364.796	28.921	821.908	659.053
365.810	28.654	822.160	658.242
366.825	29.063	821.380	659.022
367.840	29.092	820.626	658.463
368.854	28.215	821.160	655.693
369.869	28.144	819.820	654.310
370.883	28.181	818.991	653.724
371.898	28.238	818.008	653.085
372.913	28.082	816.835	651.536
373.927	27.836	817.561	651.179
374.942	28.384	816.698	652.385
375.956	28.139	816.551	651.337
376.971	28.125	815.901	650.714
377.986	28.326	815.500	651.049
379.000	28.779	815.125	652.303
380.015	28.786	814.660	651.896
381.029	28.816	813.184	650.765
382.044	28.749	812.882	650.229
383.059	28.529	812.777	649.306
384.073	28.930	811.952	650.010
385.088	28.541	811.649	648.335
386.102	29.121	810.731	649.591
387.117	28.619	809.722	646.955
388.132	28.432	810.132	646.565
389.146	28.239	808.675	644.665
390.161	27.769	808.489	642.805
391.175	27.680	808.278	642.269
392.190	28.439	807.456	644.225
393.205	28.814	807.976	645.903
394.219	27.294	805.611	638.624
395.234	25.762	802.902	631.057
396.248	25.406	801.328	628.515
397.263	25.740	803.803	631.574
398.278	27.770	804.924	639.524
399.292	28.335	804.446	641.065
400.307	28.128	804.253	640.128
401.321	27.682	804.020	638.326
402.336	27.837	803.450	638.357
403.350	28.255	802.263	638.820
404.365	28.892	803.310	641.818
405.380	29.060	803.125	642.201
406.394	29.617	802.545	643.621
407.409	29.351	802.332	642.466
408.423	29.454	802.001	642.503
409.438	29.278	801.868	641.729
410.453	29.414	800.236	640.838
411.467	29.594	800.691	641.770
412.482	29.312	799.831	640.046
413.496	29.440	798.783	639.596
414.511	29.550	798.639	639.805
415.526	29.281	799.145	639.221
416.540	29.597	797.687	639.090
417.555	29.062	798.577	637.895
418.569	28.948	796.940	636.136
419.584	29.103	795.752	635.666
420.599	29.218	795.719	635.981
421.613	159.166	1369.714	1792.711
422.628	137.987	1453.348	1792.806
