DTS Sentinel unit serial number:	SN413079Multiplexer serial number:	ORYXHardware model number:	OX4-SRSoftware version number:	ORYX F/W v4.00 Oryx Data Collector v3.7.2.0data status	okinstallation	princeton_trtdifferential loss correction	single-endedforward channel	channel 3reverse channel	N/Adate	2019/09/18time	03:52:35forward acquisition time	60.00reverse acquisition time	0.00gamma	496.2192k internal	0.2343k external	0.2343temperature offset calibration	0.9943default loss term (dB/km)	0.3790temperature slope calibration	1.0000multiplexer offset coefficient	1.0000multiplexer slope coefficient	1.0000fibre end	0.00T internal ref (°C)	23.06T ext. ref 1 (°C)	0.17T ext. ref 2 (°C)	18.05length (m)	temperature (°C)	Stokes	anti-Stokes-747.200	39.730	0.075	-0.067
-746.185	-10.937	-0.167	0.111
-745.171	30.845	0.320	0.275
-744.156	143.188	0.072	0.096
-743.142	215.464	0.086	-0.137
-742.127	800.000	-0.100	0.315
-741.112	-131.034	0.167	-0.022
-740.098	-75.193	-0.140	0.050
-739.083	800.000	-0.113	0.317
-738.069	91.080	-0.220	0.247
-737.054	-142.717	-0.182	0.018
-736.039	800.000	-0.092	-0.258
-735.025	800.000	-0.073	-0.284
-734.010	182.885	-0.197	-0.291
-732.996	167.616	-0.240	-0.341
-731.981	800.000	0.132	-0.380
-730.966	800.000	-0.090	0.346
-729.952	-137.334	0.134	0.015
-728.937	-127.650	-0.184	-0.027
-727.923	59.366	0.157	0.155
-726.908	-200.000	-0.000	-0.433
-725.894	-78.706	0.144	-0.049
-724.879	-114.546	-0.154	-0.030
-723.864	-200.000	-0.042	0.190
-722.850	-19.164	-0.139	-0.086
-721.835	-200.000	-0.012	0.277
-720.821	244.276	-0.172	0.289
-719.806	400.584	0.205	0.431
-718.791	-63.730	-0.322	-0.132
-717.777	-200.000	0.010	-0.052
-716.762	-152.808	0.260	-0.018
-715.748	449.623	0.128	-0.282
-714.733	356.735	-0.163	-0.324
-713.718	-200.000	-0.054	-0.327
-712.704	-89.326	-0.498	0.147
-711.689	152.030	0.120	0.164
-710.675	17.211	-0.138	0.109
-709.660	-101.046	0.274	0.067
-708.645	-200.000	0.032	-0.236
-707.631	24.864	0.054	-0.045
-706.616	-200.000	0.006	0.126
-705.602	351.410	-0.084	0.167
-704.587	140.254	0.147	0.193
-703.572	-151.928	0.504	-0.037
-702.558	-200.000	0.042	-0.390
-701.543	-96.861	0.392	-0.103
-700.529	-112.998	-0.185	0.037
-699.514	21.613	0.109	-0.089
-698.499	800.000	-0.086	-0.309
-697.485	-2.948	0.237	0.165
-696.470	106.107	-0.164	0.194
-695.456	82.188	-0.142	-0.154
-694.441	-59.595	-0.004	-0.002
-693.426	63.787	-0.223	-0.224
-692.412	800.000	-0.033	-0.141
-691.397	800.000	-0.083	-0.325
-690.383	9.989	-0.217	-0.164
-689.368	263.983	-0.182	-0.316
-688.354	497.532	0.142	-0.327
-687.339	-200.000	-0.010	-0.203
-686.324	665.799	-0.152	0.392
-685.310	92.295	-0.050	0.056
-684.295	127.731	-0.092	0.116
-683.281	-200.000	-0.038	-0.196
-682.266	-136.956	-0.282	-0.032
-681.251	-200.000	-0.010	-0.436
-680.237	322.142	-0.097	0.184
-679.222	318.510	-0.170	0.321
-678.208	768.432	0.053	-0.143
-677.193	-50.577	0.183	0.086
-676.178	-122.925	0.574	0.092
-675.164	-29.255	-0.283	0.162
-674.149	-40.278	0.059	-0.031
-673.135	6.077	0.071	0.052
-672.120	-43.822	-0.468	-0.235
-671.105	142.259	0.117	-0.155
-670.091	-1.264	-0.102	-0.072
-669.076	354.204	0.082	-0.162
-668.062	-200.000	0.006	0.177
-667.047	39.304	-0.355	-0.317
-666.032	410.576	-0.157	-0.333
-665.018	59.761	-0.140	-0.138
-664.003	-117.181	0.087	0.016
-662.989	-15.421	0.028	-0.018
-661.974	-166.854	-0.407	0.017
-660.959	-200.000	-0.006	-0.284
-659.945	12.745	-0.395	-0.304
-658.930	-38.799	-0.287	-0.151
-657.916	-200.000	-0.044	-0.226
-656.901	-81.554	-0.299	0.098
-655.886	88.677	-0.088	-0.098
-654.872	477.513	0.080	-0.180
-653.857	800.000	-0.053	0.167
-652.843	166.945	0.066	0.093
-651.828	-110.638	-0.244	-0.050
-650.814	-107.449	-0.155	-0.034
-649.799	120.444	-0.091	0.113
-648.784	-200.000	-0.001	0.099
-647.770	-154.565	0.175	0.012
-646.755	-135.291	0.281	-0.034
-645.741	73.642	-0.066	0.069
-644.726	-200.000	-0.025	-0.195
-643.711	-81.192	0.077	0.025
-642.697	-200.000	0.036	-0.295
-641.682	-200.000	-0.038	0.250
-640.668	-41.929	0.303	-0.155
-639.653	-200.000	-0.034	0.327
-638.638	34.348	-0.203	-0.177
-637.624	12.321	0.123	-0.094
-636.609	800.000	-0.055	0.211
-635.595	-139.488	-0.133	0.014
-634.580	-160.714	0.304	-0.016
-633.565	-92.600	0.158	-0.044
-632.551	-200.000	-0.003	0.016
-631.536	-8.420	0.144	-0.097
-630.522	-170.778	-0.174	-0.006
-629.507	219.258	-0.179	0.286
-628.492	165.954	-0.153	-0.216
-627.478	186.695	-0.207	0.307
-626.463	800.000	0.043	-0.140
-625.449	-200.000	-0.003	-0.152
-624.434	742.150	0.010	0.028
-623.419	-22.944	-0.319	-0.192
-622.405	24.932	-0.211	-0.174
-621.390	75.013	-0.057	0.060
-620.376	-200.000	0.004	-0.129
-619.361	264.143	-0.160	0.277
-618.346	-92.259	0.308	-0.087
-617.332	-200.000	0.003	0.055
-616.317	293.893	0.074	-0.135
-615.303	-70.789	-0.095	-0.036
-614.288	-14.150	0.150	0.097
-613.273	440.262	-0.026	0.058
-612.259	-33.533	0.150	-0.083
-611.244	800.000	-0.038	-0.155
-610.230	348.555	-0.123	-0.242
-609.215	264.455	0.048	-0.084
-608.201	389.269	0.052	0.108
-607.186	-39.659	-0.284	0.148
-606.171	-130.389	-0.332	0.045
-605.157	-150.424	0.199	0.015
-604.142	317.753	0.092	-0.174
-603.128	800.000	-0.142	-0.436
-602.113	-88.126	0.122	0.036
-601.098	30.169	0.396	-0.337
-600.084	426.811	0.095	-0.203
-599.069	800.000	-0.074	-0.253
-598.055	-113.780	0.213	0.041
-597.040	-93.311	-0.352	-0.097
-596.025	451.936	-0.087	0.191
-595.011	301.508	0.183	-0.337
-593.996	38.244	-0.227	-0.201
-592.982	27.602	0.338	-0.283
-591.967	-13.275	-0.171	-0.110
-590.952	256.546	-0.076	-0.130
-589.938	289.811	-0.176	-0.319
-588.923	-95.286	-0.522	-0.140
-587.909	-67.954	-0.108	-0.042
-586.894	-5.576	0.204	0.139
-585.879	-200.000	-0.055	0.266
-584.865	800.000	0.081	0.324
-583.850	-200.000	0.044	-0.465
-582.836	-68.294	-0.280	-0.108
-581.821	106.157	0.098	0.116
-580.806	117.091	0.127	0.155
-579.792	-24.163	-0.142	0.084
-578.777	-200.000	0.022	-0.212
-577.763	-37.403	-0.020	-0.010
-576.748	-51.024	0.310	0.145
-575.733	5.631	0.176	0.130
-574.719	-200.000	0.035	0.227
-573.704	-40.465	-0.391	-0.202
-572.690	259.382	0.011	0.018
-571.675	800.000	0.043	0.185
-570.661	800.000	-0.044	-0.168
-569.646	267.787	-0.063	0.110
-568.631	-86.486	0.251	-0.077
-567.617	-200.000	-0.000	0.206
-566.602	16.236	-0.246	-0.193
-565.588	217.778	0.051	0.082
-564.573	-200.000	-0.013	0.235
-563.558	362.603	0.025	0.051
-562.544	5.567	-0.248	-0.182
-561.529	-131.719	0.090	0.012
-560.515	-106.184	-0.179	0.040
-559.500	-200.000	0.052	0.329
-558.485	-200.000	0.005	-0.057
-557.471	33.808	0.299	0.258
-556.456	85.606	-0.266	0.290
-555.442	-82.228	-0.339	-0.110
-554.427	10.326	0.078	0.059
-553.412	792.641	-0.125	-0.342
-552.398	-124.977	0.131	0.020
-551.383	50.762	-0.161	-0.152
-550.369	-56.675	0.149	-0.066
-549.354	129.255	-0.149	-0.189
-548.339	800.000	0.050	0.160
-547.325	-0.309	-0.232	0.164
-546.310	-200.000	-0.005	0.113
-545.296	-200.000	-0.032	-0.192
-544.281	-38.266	-0.283	0.149
-543.266	-171.225	-0.441	-0.015
-542.252	150.910	-0.053	0.072
-541.237	-180.085	-0.104	0.002
-540.223	257.256	-0.022	0.038
-539.208	19.764	0.027	0.021
-538.193	-200.000	0.004	-0.254
-537.179	196.527	0.117	-0.176
-536.164	-139.840	-0.121	-0.013
-535.150	761.324	-0.198	-0.534
-534.135	800.000	-0.046	0.150
-533.121	-144.238	0.342	0.032
-532.106	100.827	-0.105	-0.121
-531.091	-22.014	0.052	0.031
-530.077	-200.000	-0.010	0.070
-529.062	232.084	-0.168	-0.273
-528.048	47.706	-0.024	0.022
-527.033	75.237	-0.039	0.041
-526.018	-200.000	0.071	-0.418
-525.004	119.012	0.175	-0.215
-523.989	-144.867	-0.107	-0.010
-522.975	-200.000	0.005	-0.065
-521.960	-156.227	0.194	-0.012
-520.945	-70.920	0.034	-0.013
-519.931	45.123	-0.101	-0.092
-518.916	-45.074	0.250	-0.124
-517.902	11.076	-0.087	0.066
-516.887	800.000	0.100	-0.352
-515.872	-99.087	0.095	-0.024
-514.858	291.476	0.214	0.387
-513.843	102.108	-0.063	0.073
-512.829	408.107	0.153	0.320
-511.814	800.000	0.076	0.238
-510.799	52.724	-0.045	0.042
-509.785	-200.000	0.001	-0.044
-508.770	-117.990	0.127	0.023
-507.756	553.794	0.065	0.156
-506.741	-200.000	-0.004	0.165
-505.726	-6.696	0.209	0.141
-504.712	-200.000	0.071	-0.332
-503.697	-45.923	0.348	0.170
-502.683	-200.000	-0.001	0.027
-501.668	126.723	-0.010	0.013
-500.653	-124.330	0.248	0.038
-499.639	107.025	0.180	-0.212
-498.624	-170.601	0.364	-0.013
-497.610	-49.244	-0.275	-0.130
-496.595	-34.754	-0.128	0.069
-495.581	800.000	0.095	0.326
-494.566	-49.933	0.237	0.111
-493.551	800.000	-0.054	-0.172
-492.537	-200.000	0.005	-0.231
-491.522	138.621	-0.251	-0.327
-490.508	-52.967	0.221	0.101
-489.493	478.897	0.204	-0.458
-488.478	-23.161	-0.211	0.126
-487.464	-81.833	-0.097	-0.031
-486.449	144.015	-0.354	-0.468
-485.435	54.996	0.146	-0.140
-484.420	800.000	0.058	-0.199
-483.405	321.237	0.104	0.195
-482.391	138.592	-0.148	-0.193
-481.376	127.800	-0.304	0.383
-480.362	307.834	0.113	0.209
-479.347	-200.000	0.019	0.120
-478.332	-200.000	0.011	-0.052
-477.318	-200.000	0.052	-0.274
-476.303	207.890	-0.145	0.224
-475.289	220.666	-0.064	-0.103
-474.274	-140.079	-0.402	-0.042
-473.259	218.044	0.200	-0.316
-472.245	-91.101	-0.086	-0.025
-471.230	-136.564	0.171	-0.020
-470.216	82.745	-0.139	0.149
-469.201	128.649	-0.117	-0.147
-468.186	-150.963	0.076	-0.006
-467.172	-125.861	-0.270	0.040
-466.157	14.736	0.144	-0.111
-465.143	-102.548	-0.214	0.051
-464.128	-200.000	0.008	0.191
-463.113	-118.215	-0.274	0.048
-462.099	-122.130	0.378	0.061
-461.084	-199.520	-0.101	-0.001
-460.070	502.514	-0.185	-0.424
-459.055	668.930	-0.101	-0.260
-458.040	-200.000	-0.000	0.020
-457.026	800.000	-0.065	-0.271
-456.011	-200.000	-0.005	-0.208
-454.997	571.572	-0.055	-0.133
-453.982	114.558	0.183	-0.220
-452.968	190.782	0.202	0.301
-451.953	-84.444	-0.355	-0.111
-450.938	-24.640	0.363	0.214
-449.924	-200.000	-0.066	0.344
-448.909	-4.216	-0.114	0.078
-447.895	-100.305	0.408	-0.100
-446.880	54.684	-0.281	-0.268
-445.865	-67.943	0.033	-0.013
-444.851	140.770	0.209	0.273
-443.836	224.200	-0.179	0.287
-442.822	-2.465	-0.215	0.149
-441.807	800.000	-0.010	0.029
-440.792	412.333	0.133	0.279
-439.778	-200.000	-0.028	-0.214
-438.763	260.666	0.199	-0.340
-437.749	-103.556	0.612	0.142
-436.734	695.479	0.058	-0.149
-435.719	800.000	-0.034	-0.102
-434.705	-112.830	0.165	-0.032
-433.690	-144.831	0.204	0.019
-432.676	4.940	-0.313	-0.228
-431.661	-200.000	0.006	-0.159
-430.646	-110.822	0.286	-0.058
-429.632	-95.763	-0.360	-0.095
-428.617	-86.829	-0.187	0.056
-427.603	13.516	0.049	0.037
-426.588	91.674	0.017	-0.019
-425.573	-86.959	-0.075	-0.023
-424.559	-200.000	-0.003	0.050
-423.544	-16.557	-0.152	-0.095
-422.530	-200.000	0.035	-0.295
-421.515	39.808	-0.449	0.398
-420.500	-200.000	-0.048	0.384
-419.486	-200.000	0.054	0.372
-418.471	800.000	0.051	-0.145
-417.457	42.166	0.142	0.128
-416.442	60.897	0.215	-0.210
-415.428	145.947	-0.123	-0.163
-414.413	-200.000	0.035	-0.186
-413.398	800.000	0.061	-0.203
-412.384	233.326	-0.175	-0.285
-411.369	114.666	0.196	0.236
-410.355	31.635	-0.102	0.087
-409.340	-147.240	-0.134	0.011
-408.325	-86.230	0.101	0.031
-407.311	-7.338	-0.146	-0.098
-406.296	546.103	0.008	0.019
-405.282	-63.977	-0.259	0.105
-404.267	-120.785	-0.176	-0.029
-403.252	561.981	0.055	0.130
-402.238	173.497	0.134	-0.191
-401.223	302.817	-0.104	-0.191
-400.209	164.314	-0.133	-0.186
-399.194	-200.000	-0.036	0.179
-398.179	-54.967	0.193	-0.086
-397.165	-119.343	0.376	0.065
-396.150	800.000	-0.008	-0.025
-395.136	-126.276	0.375	-0.055
-394.121	-158.350	0.265	0.015
-393.106	-200.000	-0.010	-0.148
-392.092	-137.615	0.173	0.019
-391.077	736.836	-0.076	-0.200
-390.063	-200.000	0.077	0.373
-389.048	800.000	0.120	-0.504
-388.033	-1.687	-0.176	0.123
-387.019	-200.000	-0.048	-0.221
-386.004	-107.636	-0.017	-0.004
-384.990	192.021	-0.048	0.072
-383.975	800.000	-0.049	0.169
-382.960	421.840	-0.130	-0.276
-381.946	-16.386	-0.197	0.124
-380.931	-200.000	0.062	0.476
-379.917	-106.342	0.318	-0.070
-378.902	59.841	-0.120	0.117
-377.888	356.154	0.141	-0.277
-376.873	-100.056	-0.217	0.053
-375.858	27.735	0.157	0.130
-374.844	-46.448	-0.171	-0.083
-373.829	-4.573	-0.155	-0.105
-372.815	-60.580	0.127	-0.053
-371.800	72.571	0.228	0.235
-370.785	-200.000	0.051	0.285
-369.771	-66.049	-0.159	0.063
-368.756	-200.000	0.062	-0.440
-367.742	57.916	-0.034	0.033
-366.727	-200.000	-0.015	-0.363
-365.712	-155.352	0.194	0.012
-364.698	36.439	0.082	0.072
-363.683	42.302	-0.112	-0.100
-362.669	-134.107	-0.248	-0.030
-361.654	31.964	-0.218	0.185
-360.639	6.404	0.066	0.048
-359.625	-128.677	-0.138	-0.019
-358.610	154.625	0.185	-0.250
-357.596	-200.000	0.084	-0.387
-356.581	141.806	-0.279	0.365
-355.566	3.492	-0.111	0.080
-354.552	800.000	0.082	-0.233
-353.537	-2.024	-0.191	0.133
-352.523	-200.000	-0.005	0.207
-351.508	121.476	0.130	-0.160
-350.493	277.043	0.144	-0.252
-349.479	-200.000	-0.037	-0.248
-348.464	12.780	-0.150	-0.114
-347.450	749.639	-0.099	0.264
-346.435	800.000	-0.137	0.388
-345.420	281.039	0.184	0.324
-344.406	-200.000	0.006	0.146
-343.391	106.287	0.083	0.097
-342.377	800.000	0.052	-0.176
-341.362	-147.169	0.234	-0.020
-340.348	339.219	0.154	0.296
-339.333	800.000	-0.047	0.140
-338.318	-191.460	0.333	-0.003
-337.304	-200.000	-0.056	-0.247
-336.289	-145.014	-0.105	-0.009
-335.275	205.334	-0.164	-0.251
-334.260	-125.332	0.020	-0.003
-333.245	-20.677	-0.149	0.090
-332.231	-46.027	-0.242	-0.118
-331.216	-115.132	0.117	-0.022
-330.202	-5.121	-0.176	0.119
-329.187	-125.062	-0.301	-0.046
-328.172	-200.000	0.038	-0.185
-327.158	-83.274	0.088	-0.028
-326.143	-6.746	0.236	-0.158
-325.129	250.091	-0.088	-0.146
-324.114	42.863	0.043	-0.038
-323.099	-108.350	0.038	0.008
-322.085	800.000	-0.080	0.272
-321.070	297.853	-0.060	0.109
-320.056	-200.000	0.044	-0.196
-319.041	-86.272	-0.210	0.064
-318.026	597.760	-0.136	0.332
-317.012	39.008	-0.234	0.206
-315.997	-200.000	-0.047	0.451
-314.983	136.475	-0.075	-0.096
-313.968	-61.498	-0.493	0.204
-312.953	425.598	0.056	-0.119
-311.939	-95.304	-0.378	0.100
-310.924	-44.315	-0.149	-0.073
-309.910	-146.958	0.063	0.005
-308.895	800.000	0.095	-0.265
-307.880	-93.613	0.204	-0.055
-306.866	222.680	-0.069	-0.110
-305.851	-140.505	0.462	-0.047
-304.837	-105.984	0.307	-0.068
-303.822	-7.794	0.415	0.276
-302.807	800.000	-0.086	0.248
-301.793	-111.567	0.032	0.006
-300.778	332.041	0.074	0.141
-299.764	-200.000	0.037	0.220
-298.749	112.998	0.109	0.130
-297.735	162.943	-0.206	-0.285
-296.720	-20.073	-0.109	-0.066
-295.705	90.633	0.180	-0.198
-294.691	162.312	-0.190	0.262
-293.676	-200.000	0.003	0.056
-292.662	122.469	0.160	-0.197
-291.647	-75.405	0.139	-0.049
-290.632	91.578	0.055	-0.060
-289.618	-200.000	0.094	0.419
-288.603	-73.933	0.286	0.102
-287.589	-77.819	-0.185	0.063
-286.574	-47.092	-0.200	0.096
-285.559	240.249	0.186	0.305
-284.545	-56.736	-0.225	-0.098
-283.530	-149.949	-0.202	-0.015
-282.516	-200.000	-0.006	0.135
-281.501	-200.000	-0.007	-0.072
-280.486	800.000	0.052	0.211
-279.472	146.954	-0.149	-0.197
-278.457	56.882	-0.109	-0.104
-277.443	36.894	-0.124	0.108
-276.428	279.631	0.056	0.099
-275.413	-175.748	0.058	-0.002
-274.399	-3.045	0.180	-0.123
-273.384	110.966	-0.176	-0.209
-272.370	95.340	0.071	-0.080
-271.355	70.330	-0.194	0.197
-270.340	-200.000	0.058	-0.358
-269.326	43.619	-0.132	0.118
-268.311	51.531	0.216	0.202
-267.297	-39.846	-0.213	0.109
-266.282	192.371	-0.202	0.300
-265.267	-119.587	-0.125	-0.021
-264.253	-153.096	-0.395	-0.027
-263.238	800.000	0.038	-0.131
-262.224	-144.117	0.169	-0.016
-261.209	800.000	-0.084	-0.350
-260.195	-171.438	-0.152	-0.005
-259.180	-200.000	0.030	0.157
-258.165	-90.236	-0.051	0.014
-257.151	800.000	-0.043	-0.162
-256.136	-38.016	-0.242	0.126
-255.122	296.700	0.138	0.249
-254.107	-52.836	0.192	0.087
-253.092	317.992	-0.151	0.282
-252.078	-57.344	0.234	0.101
-251.063	29.741	0.162	0.136
-250.049	-102.173	0.309	0.073
-249.034	-127.276	-0.204	0.029
-248.019	-33.879	-0.165	0.089
-247.005	-28.090	0.115	0.066
-245.990	99.996	-0.058	0.066
-244.976	800.000	0.118	0.385
-243.961	-110.426	0.123	0.025
-242.946	-6.884	-0.212	0.141
-241.932	-200.000	-0.087	-0.446
-240.917	159.902	0.270	0.369
-239.903	-100.738	0.237	0.057
-238.888	-200.000	-0.051	0.520
-237.873	33.782	0.106	0.090
-236.859	-133.008	0.269	-0.034
-235.844	758.244	-0.036	-0.097
-234.830	-200.000	0.014	-0.074
-233.815	-118.637	0.200	0.035
-232.800	139.944	0.186	-0.240
-231.786	-200.000	0.021	-0.135
-230.771	143.793	0.060	0.078
-229.757	84.418	-0.391	0.419
-228.742	-200.000	-0.009	-0.108
-227.727	800.000	-0.047	-0.162
-226.713	-200.000	-0.005	-0.110
-225.698	800.000	-0.092	0.289
-224.684	-200.000	0.067	-0.431
-223.669	800.000	0.067	0.201
-222.655	452.158	0.170	0.369
-221.640	-105.469	0.227	-0.051
-220.625	-200.000	-0.013	-0.288
-219.611	-50.780	0.176	-0.081
-218.596	-118.564	0.331	-0.057
-217.582	-119.924	-0.162	-0.027
-216.567	6.123	0.218	-0.159
-215.552	-200.000	0.019	-0.114
-214.538	199.123	-0.044	0.067
-213.523	31.896	-0.285	0.241
-212.509	-200.000	0.018	-0.187
-211.494	147.562	-0.145	0.192
-210.479	-14.106	0.213	0.135
-209.465	-120.678	0.170	-0.028
-208.450	800.000	0.080	0.296
-207.436	43.984	0.228	0.205
-206.421	800.000	-0.081	-0.269
-205.406	-100.618	0.096	0.023
-204.392	92.694	0.145	0.160
-203.377	-160.829	0.337	0.017
-202.363	-102.348	-0.300	0.070
-201.348	-43.772	-0.075	0.037
-200.333	381.806	-0.047	0.094
-199.319	4.452	0.261	0.188
-198.304	-200.000	-0.018	0.143
-197.290	537.391	-0.035	0.081
-196.275	69.829	-0.246	0.249
-195.260	-42.014	0.105	0.053
-194.246	-86.252	0.147	0.044
-193.231	-200.000	0.031	-0.144
-192.217	-127.197	0.101	-0.014
-191.202	800.000	-0.069	0.207
-190.187	-81.954	0.301	-0.096
-189.173	271.390	-0.055	0.096
-188.158	-136.598	-0.279	0.032
-187.144	-24.400	0.150	0.088
-186.129	247.855	0.055	-0.091
-185.114	-92.310	0.283	-0.078
-184.100	6.599	-0.140	0.102
-183.085	67.230	0.139	0.139
-182.071	153.208	0.089	0.119
-181.056	621.768	0.093	-0.229
-180.042	117.724	-0.227	0.274
-179.027	-29.000	-0.245	-0.138
-178.012	-91.642	0.158	-0.044
-176.998	516.668	0.135	-0.309
-175.983	-104.623	0.426	0.096
-174.969	283.186	-0.056	-0.098
-173.954	172.815	0.036	-0.051
-172.939	-200.000	-0.023	-0.172
-171.925	-85.862	0.229	0.070
-170.910	16.246	-0.064	0.050
-169.896	-68.697	0.314	0.119
-168.881	-69.715	-0.185	0.069
-167.866	-59.310	-0.348	-0.147
-166.852	-67.058	0.234	-0.090
-165.837	-200.000	-0.002	0.065
-164.823	117.886	0.084	-0.102
-163.808	-23.322	-0.067	0.040
-162.793	212.276	0.049	-0.075
-161.779	-152.513	0.395	0.028
-160.764	57.910	-0.127	0.121
-159.750	-186.716	-0.477	-0.007
-158.735	608.449	-0.025	0.060
-157.720	-105.223	-0.580	0.130
-156.706	800.000	-0.098	0.288
-155.691	-43.118	-0.192	-0.095
-154.677	775.274	0.013	-0.035
-153.662	503.513	-0.130	0.294
-152.647	-57.373	0.281	0.121
-151.633	50.960	-0.028	0.026
-150.618	-200.000	-0.027	0.294
-149.604	-8.071	-0.279	0.184
-148.589	306.310	-0.057	-0.104
-147.574	-200.000	0.022	-0.155
-146.560	800.000	0.074	-0.238
-145.545	63.548	0.085	-0.083
-144.531	-6.540	-0.333	0.222
-143.516	-85.946	0.410	-0.124
-142.502	-200.000	0.032	-0.377
-141.487	225.534	-0.202	0.319
-140.472	-21.333	-0.051	0.030
-139.458	-45.589	0.229	-0.111
-138.443	47.241	-0.149	0.136
-137.429	800.000	-0.031	0.091
-136.414	-85.905	0.261	0.079
-135.399	78.782	-0.197	-0.206
-134.385	-130.783	-0.141	-0.018
-133.370	67.396	0.190	0.189
-132.356	287.185	0.014	0.024
-131.341	87.041	-0.109	-0.118
-130.326	-200.000	-0.017	-0.134
-129.312	-6.452	0.181	0.120
-128.297	-49.162	0.187	0.088
-127.283	28.740	0.035	-0.029
-126.268	254.147	-0.048	0.081
-125.253	-200.000	-0.067	-0.467
-124.239	0.877	-0.293	-0.205
-123.224	-163.659	0.270	0.012
-122.210	525.369	-0.141	-0.324
-121.195	104.841	-0.346	0.399
-120.180	800.000	0.119	0.442
-119.166	-165.390	-0.221	0.009
-118.151	-48.634	-0.108	0.051
-117.137	-119.779	0.136	0.023
-116.122	-51.882	0.300	-0.136
-115.107	-90.735	-0.349	-0.098
-114.093	-112.700	-0.098	-0.019
-113.078	-116.420	-0.279	0.050
-112.064	800.000	-0.060	0.227
-111.049	-88.712	-0.115	-0.033
-110.034	-200.000	-0.032	-0.227
-109.020	-129.903	0.088	-0.012
-108.005	-200.000	0.045	0.201
-106.991	-74.083	-0.227	0.080
-105.976	-29.253	-0.257	0.144
-104.962	123.929	0.064	0.078
-103.947	276.513	-0.149	-0.259
-102.932	-17.363	0.092	-0.057
-101.918	-144.122	0.188	0.017
-100.903	-28.407	-0.122	0.069
-99.889	-200.000	-0.010	0.237
-98.874	-200.000	0.023	-0.315
-97.859	-200.000	-0.059	0.339
-96.845	136.018	-0.213	-0.271
-95.830	-200.000	-0.074	-0.317
-94.816	-121.499	0.218	0.035
-93.801	189.588	-0.235	0.344
-92.786	-103.619	-0.348	0.080
-91.772	549.587	-0.049	-0.114
-90.757	-2.218	0.290	-0.199
-89.743	109.032	0.087	0.101
-88.728	800.000	0.031	-0.090
-87.713	17.763	-0.399	0.310
-86.699	99.357	-0.099	-0.112
-85.684	-95.867	0.201	-0.052
-84.670	-200.000	0.035	-0.158
-83.655	-128.787	0.228	-0.031
-82.640	-33.977	-0.107	-0.057
-81.626	-200.000	-0.027	0.200
-80.611	800.000	-0.038	-0.137
-79.597	15.023	0.198	0.151
-78.582	73.870	0.236	-0.242
-77.567	94.261	-0.130	-0.144
-76.553	-161.520	0.267	-0.013
-75.538	-1.840	0.071	-0.049
-74.524	-200.000	0.008	-0.191
-73.509	-123.865	-0.210	0.032
-72.494	800.000	-0.014	-0.051
-71.480	486.606	-0.125	-0.278
-70.465	-1.171	-0.154	-0.106
-69.451	-153.845	0.301	0.020
-68.436	219.676	-0.154	-0.240
-67.422	19.673	0.146	-0.114
-66.407	375.455	-0.189	-0.376
-65.392	-200.000	0.003	0.020
-64.378	-200.000	0.003	-0.117
-63.363	71.804	-0.098	-0.100
-62.349	103.256	-0.202	0.231
-61.334	112.456	-1.254	-1.479
-60.319	40.979	0.780	0.686
-59.305	800.000	-0.430	-1.318
-58.290	252.632	0.762	1.266
-57.276	800.000	0.558	1.580
-56.261	-200.000	124.708	648.645
-55.246	411.506	1574.442	3257.182
-54.232	142.364	2733.712	3536.457
-53.217	94.386	2185.013	2418.508
-52.203	33.563	1701.969	1441.291
-51.188	26.072	1519.969	1236.025
-50.173	24.172	1496.410	1203.988
-49.159	48.686	1567.238	1431.855
-48.144	45.421	1580.635	1421.401
-47.130	26.371	1529.143	1245.345
-46.115	23.429	1512.933	1212.012
-45.100	23.175	1509.915	1207.815
-44.086	23.199	1508.047	1206.434
-43.071	23.078	1506.281	1204.148
-42.057	23.094	1504.651	1202.907
-41.042	23.135	1503.146	1201.938
-40.027	23.044	1501.692	1200.106
-39.013	23.033	1500.373	1198.931
-37.998	22.952	1499.281	1197.462
-36.984	23.059	1497.915	1197.049
-35.969	23.070	1496.494	1195.938
-34.954	22.994	1494.677	1193.927
-33.940	22.963	1493.723	1192.908
-32.925	23.034	1492.692	1192.516
-31.911	22.998	1491.021	1190.895
-30.896	23.032	1489.716	1190.034
-29.881	23.104	1488.665	1189.627
-28.867	23.186	1486.977	1188.784
-27.852	23.085	1486.386	1187.583
-26.838	23.091	1484.195	1185.828
-25.823	23.206	1482.819	1185.453
-24.809	23.210	1480.425	1183.517
-23.794	23.045	1480.044	1182.066
-22.779	23.128	1478.274	1181.158
-21.765	23.110	1477.254	1180.177
-20.750	23.107	1476.109	1179.192
-19.736	23.051	1475.456	1178.252
-18.721	23.086	1473.690	1177.025
-17.706	23.123	1472.882	1176.586
-16.692	23.014	1472.046	1175.142
-15.677	23.069	1470.982	1174.612
-14.663	23.059	1470.084	1173.780
-13.648	23.032	1469.493	1173.087
-12.633	23.098	1468.328	1172.548
-11.619	23.095	1467.306	1171.664
-10.604	23.106	1466.258	1170.854
-9.590	23.047	1465.712	1169.980
-8.575	23.058	1464.463	1169.012
-7.560	23.034	1463.674	1168.172
-6.546	22.978	1463.377	1167.524
-5.531	23.085	1461.862	1166.974
-4.517	23.089	1461.153	1166.385
-3.502	23.020	1460.494	1165.358
-2.487	23.123	1459.122	1164.898
-1.473	23.050	1458.298	1163.713
-0.458	23.117	1456.689	1162.822
0.556	21.452	1447.202	1152.594
1.571	18.620	1424.332	1115.887
2.586	15.687	1363.876	1050.134
3.600	14.406	1280.580	978.399
4.615	13.601	1236.974	940.427
5.629	11.833	1180.110	887.540
6.644	5.685	1098.080	794.671
7.659	0.826	1061.822	744.490
8.673	0.290	1056.658	738.177
9.688	0.139	1053.469	735.150
10.702	0.226	1051.964	734.456
11.717	0.016	1050.262	732.180
12.731	2.053	1050.684	742.327
13.746	8.599	1059.636	780.608
14.761	14.593	1067.276	815.545
15.775	16.661	1069.077	826.965
16.790	16.338	1068.291	824.707
17.804	15.450	1066.013	818.547
18.819	14.489	1064.261	812.449
19.834	14.253	1062.381	809.793
20.848	13.954	1061.936	807.929
21.863	13.724	1061.116	806.116
22.877	13.352	1060.948	804.110
23.892	13.298	1059.391	802.596
24.907	13.161	1058.589	801.254
25.921	13.000	1057.732	799.752
26.936	13.110	1057.538	800.069
27.950	13.106	1056.890	799.486
28.965	13.172	1055.903	798.986
29.980	13.272	1054.566	798.391
30.994	13.333	1053.600	797.881
32.009	13.315	1053.195	797.417
33.023	13.399	1052.395	797.147
34.038	13.340	1051.875	796.397
35.053	13.327	1050.838	795.478
36.067	13.273	1049.646	794.248
37.082	13.244	1049.010	793.557
38.096	13.327	1047.968	793.097
39.111	13.226	1047.539	792.217
40.126	13.285	1046.676	791.776
41.140	13.356	1045.677	791.293
42.155	13.211	1044.100	789.333
43.169	13.035	1044.069	788.402
44.184	13.093	1042.818	787.662
45.199	13.118	1041.535	786.745
46.213	13.177	1040.459	786.144
47.228	13.256	1039.375	785.627
48.242	13.143	1038.360	784.256
49.257	13.177	1037.603	783.775
50.271	13.173	1036.509	782.861
51.286	13.215	1035.822	782.472
52.301	13.193	1034.894	781.596
53.315	13.260	1033.827	781.042
54.330	13.237	1033.012	780.245
55.344	13.243	1032.085	779.503
56.359	13.094	1031.204	778.068
57.374	13.235	1030.642	778.241
58.388	13.271	1029.407	777.410
59.403	13.127	1028.544	776.012
60.417	13.188	1027.803	775.667
61.432	13.042	1027.307	774.539
62.447	13.141	1026.554	774.371
63.461	12.984	1025.908	773.076
64.476	13.124	1025.090	773.047
65.490	13.171	1023.720	772.165
66.505	13.208	1022.599	771.425
67.520	13.104	1022.560	770.844
68.534	12.948	1021.946	769.584
69.549	13.154	1020.822	769.628
70.563	13.071	1019.649	768.292
71.578	13.231	1019.115	768.565
72.593	13.085	1018.386	767.269
73.607	13.007	1017.606	766.248
74.622	13.075	1016.559	765.711
75.636	13.104	1015.882	765.264
76.651	13.060	1014.942	764.285
77.666	12.978	1014.506	763.512
78.680	12.965	1013.942	762.960
79.695	13.058	1012.515	762.245
80.709	13.193	1012.295	762.639
81.724	13.170	1011.298	761.714
82.739	13.198	1010.347	761.058
83.753	13.134	1010.043	760.464
84.768	13.300	1008.714	760.164
85.782	13.268	1008.049	759.448
86.797	13.395	1007.287	759.386
87.812	13.328	1006.628	758.518
88.826	13.330	1006.043	758.017
89.841	13.148	1005.177	756.465
90.855	13.129	1004.394	755.723
91.870	13.359	1003.587	756.098
92.884	13.325	1002.623	755.150
93.899	13.282	1002.434	754.744
94.914	13.315	1001.419	754.064
95.928	13.448	1000.547	753.946
96.943	13.353	1000.057	753.077
97.957	13.376	999.728	752.870
98.972	13.279	998.601	751.515
99.987	13.440	997.284	751.188
101.001	13.279	996.829	750.047
102.016	13.314	996.089	749.584
103.030	13.389	994.948	748.997
104.045	13.361	994.372	748.370
105.060	13.494	992.889	747.787
106.074	13.294	992.293	746.369
107.089	13.354	991.602	746.058
108.103	13.170	990.966	744.680
109.118	13.244	989.406	743.776
110.133	13.074	989.375	742.922
111.147	13.202	987.835	742.276
112.162	13.229	987.392	741.999
113.176	13.248	986.488	741.337
114.191	13.294	985.328	740.607
115.206	13.303	984.489	739.950
116.220	13.200	984.207	739.212
117.235	13.089	983.757	738.315
118.249	13.224	982.244	737.717
119.264	13.240	981.903	737.466
120.279	13.214	980.636	736.332
121.293	13.266	979.622	735.736
122.308	13.242	979.163	735.222
123.322	13.294	977.634	734.238
124.337	13.104	976.891	732.775
125.352	13.100	976.116	732.110
126.366	13.278	974.603	731.699
127.381	13.269	973.583	730.829
128.395	13.099	973.034	729.598
129.410	13.249	971.996	729.417
130.424	13.185	971.296	728.544
131.439	13.107	970.308	727.396
132.454	13.218	969.682	727.353
133.468	13.237	968.798	726.707
134.483	13.250	968.441	726.433
135.497	13.169	967.772	725.511
136.512	13.337	966.007	724.860
137.527	13.379	965.609	724.683
138.541	13.315	964.904	723.809
139.556	13.275	964.431	723.216
140.570	13.292	963.519	722.542
141.585	13.261	963.218	722.116
142.600	13.335	962.260	721.657
143.614	13.418	961.670	721.513
144.629	13.334	960.934	720.532
145.643	13.408	960.088	720.153
146.658	13.594	958.604	719.787
147.673	13.480	957.823	718.640
148.687	13.435	956.828	717.634
149.702	13.401	956.533	717.204
150.716	13.435	955.445	716.473
151.731	13.373	954.804	715.660
152.746	13.466	953.911	715.329
153.760	13.389	953.090	714.315
154.775	13.391	952.492	713.813
155.789	13.447	952.067	713.674
156.804	13.464	951.014	712.896
157.819	13.561	950.204	712.640
158.833	13.531	949.880	712.209
159.848	13.626	949.067	711.940
160.862	13.514	948.344	710.858
161.877	13.643	947.436	710.666
162.892	13.618	946.940	710.122
163.906	13.512	945.937	708.853
164.921	13.585	944.809	708.259
165.935	13.461	944.030	707.082
166.950	13.454	943.198	706.368
167.964	13.441	942.467	705.701
168.979	13.669	941.385	705.801
169.994	13.606	940.445	704.767
171.008	13.567	939.628	703.925
172.023	13.693	938.484	703.540
173.037	13.651	937.780	702.772
174.052	13.555	937.525	702.110
175.067	13.653	936.667	701.821
176.081	13.664	935.702	701.085
177.096	13.631	934.630	700.081
178.110	13.601	934.091	699.488
179.125	13.690	933.609	699.438
180.140	13.640	932.722	698.503
181.154	13.638	931.959	697.861
182.169	13.718	931.077	697.474
183.183	13.694	930.882	697.168
184.198	13.850	929.806	696.955
185.213	13.795	929.124	696.151
186.227	13.704	928.834	695.489
187.242	13.943	928.259	695.998
188.256	13.867	927.376	694.956
189.271	13.789	926.918	694.225
190.286	13.868	925.936	693.761
191.300	13.895	924.938	693.064
192.315	13.790	924.539	692.266
193.329	13.646	923.815	691.063
194.344	13.743	923.352	691.055
195.359	13.716	922.883	690.532
196.373	13.882	922.317	690.739
197.388	13.853	921.331	689.819
198.402	13.848	921.193	689.634
199.417	13.940	920.956	689.780
200.432	14.019	920.321	689.569
201.446	13.991	920.177	689.283
202.461	14.099	919.620	689.255
203.475	14.083	919.093	688.732
204.490	14.217	918.220	688.571
205.504	14.098	917.436	687.428
206.519	14.075	916.506	686.576
207.534	14.092	916.117	686.293
208.548	14.131	915.044	685.592
209.563	14.172	914.368	685.192
210.577	13.960	913.881	683.893
211.592	14.119	913.014	683.841
212.607	14.186	912.682	683.806
213.621	14.234	912.030	683.452
214.636	14.329	911.251	683.200
215.650	14.203	910.514	682.069
216.665	14.301	909.849	681.913
217.680	14.260	909.571	681.474
218.694	14.221	909.411	681.136
219.709	14.431	908.214	681.038
220.723	14.222	907.853	679.850
221.738	14.302	907.274	679.684
222.753	14.319	906.486	679.103
223.767	14.296	905.689	678.353
224.782	14.303	904.908	677.737
225.796	14.516	904.179	677.998
226.811	14.441	903.525	677.140
227.826	14.401	902.799	676.375
228.840	14.437	902.102	675.940
229.855	14.435	901.356	675.311
230.869	14.424	900.471	674.545
231.884	14.473	900.200	674.481
232.899	14.414	899.558	673.703
233.913	14.306	898.908	672.718
234.928	14.413	898.025	672.430
235.942	14.465	897.396	672.108
236.957	14.511	895.925	671.133
237.972	14.526	895.524	670.834
238.986	14.420	895.333	670.205
240.001	14.369	894.881	669.602
241.015	14.407	894.157	669.156
242.030	14.342	893.493	668.336
243.045	14.546	892.584	668.417
244.059	14.432	892.368	667.740
245.074	14.597	891.217	667.477
246.088	14.536	890.796	666.860
247.103	14.617	890.271	666.733
248.117	14.613	889.672	666.208
249.132	14.748	888.731	665.981
250.147	14.590	888.763	665.316
251.161	14.834	887.506	665.290
252.176	14.904	886.987	665.121
253.190	14.870	886.047	664.222
254.205	14.971	885.606	664.234
255.220	14.929	885.074	663.606
256.234	15.016	884.152	663.203
257.249	15.026	883.744	662.879
258.263	14.916	883.324	662.068
259.278	14.943	882.713	661.658
260.293	14.899	882.250	661.080
261.307	14.916	882.091	660.971
262.322	15.033	881.091	660.625
263.336	15.139	879.920	660.103
264.351	15.009	879.798	659.442
265.366	15.184	879.300	659.701
266.380	15.102	878.226	658.512
267.395	14.998	877.926	657.820
268.409	15.183	877.093	657.866
269.424	15.136	876.472	657.157
270.439	15.222	875.539	656.735
271.453	15.292	874.892	656.468
272.468	15.188	874.010	655.341
273.482	15.162	873.500	654.798
274.497	15.129	872.736	654.038
275.512	15.193	872.074	653.734
276.526	15.177	871.524	653.203
277.541	15.205	870.493	652.481
278.555	15.206	870.034	652.085
279.570	15.402	869.418	652.324
280.585	15.340	869.066	651.765
281.599	15.282	868.551	651.093
282.614	15.310	867.991	650.722
283.628	15.411	867.362	650.587
284.643	15.451	866.759	650.233
285.657	15.391	866.200	649.523
286.672	15.470	865.474	649.226
287.687	15.570	864.903	649.128
288.701	15.451	864.733	648.484
289.716	15.361	863.951	647.491
290.730	15.470	863.515	647.528
291.745	15.497	862.692	646.957
292.760	15.464	862.348	646.515
293.774	15.335	861.969	645.677
294.789	15.524	861.108	645.702
295.803	15.538	860.230	645.042
296.818	15.550	860.111	644.939
297.833	15.455	859.238	643.862
298.847	15.623	858.258	643.717
299.862	15.623	857.364	642.988
300.876	15.592	856.877	642.449
301.891	15.576	856.684	642.187
302.906	15.759	855.876	642.220
303.920	15.720	854.895	641.281
304.935	15.777	854.674	641.276
305.949	15.794	854.110	640.861
306.964	15.811	853.692	640.554
307.979	15.802	852.707	639.723
308.993	15.744	852.167	639.042
310.008	15.722	852.165	638.899
311.022	15.736	851.649	638.510
312.037	15.763	851.090	638.138
313.052	15.851	850.230	637.770
314.066	15.714	849.772	636.850
315.081	15.810	848.889	636.496
316.095	15.867	848.394	636.283
317.110	15.862	847.926	635.855
318.125	15.823	847.308	635.189
319.139	15.907	846.867	635.119
320.154	15.940	846.316	634.774
321.168	15.851	845.589	633.839
322.183	15.959	845.072	633.803
323.197	15.847	844.916	633.207
324.212	16.057	844.049	633.289
325.227	15.916	843.725	632.463
326.241	15.967	842.826	631.924
327.256	15.966	842.585	631.681
328.270	15.953	841.971	631.117
329.285	15.989	841.457	630.811
330.300	15.865	840.847	629.835
331.314	16.016	840.162	629.829
332.329	16.053	839.050	629.079
333.343	15.847	839.061	628.262
334.358	16.006	838.407	628.310
335.373	16.032	837.960	628.018
336.387	16.077	837.216	627.569
337.402	16.079	836.709	627.141
338.416	16.107	836.111	626.744
339.431	16.200	835.687	626.714
340.446	16.274	835.124	626.512
341.460	16.293	834.113	625.770
342.475	16.365	833.847	625.781
343.489	16.193	833.747	625.011
344.504	16.276	833.179	624.839
345.519	16.257	832.354	624.094
346.533	16.532	831.647	624.524
347.548	16.521	831.400	624.245
348.562	16.337	830.692	622.977
349.577	16.343	830.123	622.518
350.592	16.279	829.892	622.053
351.606	16.211	829.466	621.429
352.621	16.419	828.862	621.688
353.635	16.371	828.279	621.020
354.650	16.336	827.750	620.439
355.665	16.358	827.570	620.329
356.679	16.356	827.191	619.983
357.694	16.448	826.410	619.679
358.708	16.490	825.789	619.313
359.723	16.425	825.559	618.848
360.738	16.334	824.761	617.864
361.752	16.457	824.508	618.069
362.767	16.536	824.010	617.931
363.781	16.723	823.420	618.115
364.796	16.597	822.898	617.208
365.810	16.662	822.109	616.798
366.825	16.656	822.426	616.960
367.840	16.569	821.743	616.075
368.854	16.764	821.447	616.510
369.869	16.744	820.751	615.861
370.883	16.878	820.328	615.976
371.898	16.583	820.052	614.642
372.913	16.743	819.120	614.469
373.927	16.683	818.581	613.792
374.942	16.650	818.178	613.316
375.956	16.782	817.341	613.113
376.971	16.910	816.187	612.655
377.986	16.923	816.388	612.800
379.000	16.835	815.650	611.875
380.015	16.790	814.929	611.116
381.029	16.844	814.729	611.107
382.044	16.907	814.280	610.945
383.059	16.902	813.521	610.303
384.073	17.016	812.960	610.236
385.088	16.910	812.702	609.609
386.102	16.852	812.129	608.915
387.117	16.800	811.576	608.261
388.132	16.993	810.606	608.170
389.146	17.040	810.995	608.577
390.161	17.052	810.410	608.130
391.175	17.030	809.837	607.566
392.190	17.076	809.738	607.603
393.205	17.022	809.132	606.902
394.219	16.979	808.756	606.412
395.234	17.104	807.851	606.126
396.248	16.972	807.584	605.400
397.263	17.067	807.025	605.266
398.278	16.925	806.733	604.489
399.292	17.101	806.042	604.545
400.307	16.966	806.153	604.093
401.321	17.027	805.227	603.563
402.336	17.177	805.116	603.960
403.350	17.285	804.344	603.710
404.365	17.074	804.237	602.828
405.380	17.083	803.794	602.471
406.394	17.239	803.333	602.626
407.409	17.329	802.575	602.323
408.423	17.365	802.181	602.102
409.438	17.196	801.884	601.230
410.453	17.407	801.362	601.530
411.467	17.323	801.214	601.067
412.482	17.326	800.580	600.552
413.496	17.312	800.259	600.207
414.511	17.334	800.298	600.260
415.526	17.382	799.854	600.044
416.540	17.394	799.097	599.466
417.555	17.448	798.693	599.299
418.569	17.545	798.058	599.111
419.584	17.457	798.013	598.716
420.599	17.562	797.201	598.423
421.613	113.740	1298.170	1489.413
422.628	97.955	1371.143	1489.479
