DTS Sentinel unit serial number:	SN413079Multiplexer serial number:	ORYXHardware model number:	OX4-SRSoftware version number:	ORYX F/W v4.00 Oryx Data Collector v3.7.2.0data status	okinstallation	princeton_trtdifferential loss correction	single-endedforward channel	channel 3reverse channel	N/Adate	2019/09/14time	23:00:35forward acquisition time	60.00reverse acquisition time	0.00gamma	496.2192k internal	0.2319k external	0.2319temperature offset calibration	0.9988default loss term (dB/km)	0.3790temperature slope calibration	1.0000multiplexer offset coefficient	1.0000multiplexer slope coefficient	1.0000fibre end	0.00T internal ref (°C)	32.44T ext. ref 1 (°C)	4.69T ext. ref 2 (°C)	27.46length (m)	temperature (°C)	Stokes	anti-Stokes-747.200	-56.796	-0.170	0.076
-746.185	190.333	-0.077	0.117
-745.171	-14.431	-0.343	0.223
-744.156	-134.318	-0.576	-0.072
-743.142	189.150	0.138	-0.209
-742.127	-191.452	-0.198	0.002
-741.112	6.103	-0.081	0.060
-740.098	800.000	0.134	0.394
-739.083	-45.674	-0.077	0.038
-738.069	26.514	0.129	0.109
-737.054	95.549	0.070	-0.081
-736.039	256.226	-0.103	-0.180
-735.025	-200.000	0.069	0.500
-734.010	110.886	-0.128	0.156
-732.996	-98.934	-0.126	-0.032
-731.981	-45.578	0.181	-0.091
-730.966	211.519	-0.171	0.272
-729.952	-160.641	-0.291	0.016
-728.937	-45.324	-0.099	-0.049
-727.923	183.445	-0.158	-0.236
-726.908	-14.611	0.324	-0.211
-725.894	-200.000	-0.006	0.242
-724.879	800.000	-0.065	-0.215
-723.864	569.467	-0.056	-0.138
-722.850	178.269	-0.215	-0.318
-721.835	-125.564	0.044	0.007
-720.821	-84.488	0.037	-0.012
-719.806	524.335	-0.105	0.250
-718.791	140.309	0.123	0.164
-717.777	-125.880	-0.100	-0.015
-716.762	800.000	-0.186	-0.528
-715.748	-200.000	0.021	0.287
-714.733	-168.238	-0.542	-0.021
-713.718	-200.000	0.013	0.079
-712.704	98.549	0.064	-0.075
-711.689	-68.961	0.295	0.115
-710.675	-153.508	0.175	-0.012
-709.660	800.000	-0.096	0.316
-708.645	143.839	0.280	-0.378
-707.631	722.126	0.084	0.225
-706.616	-83.694	-0.144	0.046
-705.602	-200.000	0.033	0.266
-704.587	-92.562	-0.419	-0.119
-703.572	-74.149	-0.199	0.073
-702.558	-200.000	-0.022	-0.341
-701.543	-68.038	-0.225	0.089
-700.529	685.373	-0.078	-0.207
-699.514	166.249	-0.171	0.245
-698.499	-73.708	0.077	-0.028
-697.485	-151.134	0.370	-0.028
-696.470	-200.000	-0.012	-0.246
-695.456	-200.000	-0.003	0.035
-694.441	800.000	0.072	0.311
-693.426	82.783	-0.086	0.095
-692.412	800.000	0.093	0.271
-691.397	-71.202	-0.212	-0.080
-690.383	-57.087	-0.315	-0.140
-689.368	630.606	0.050	-0.128
-688.354	98.823	0.048	-0.056
-687.339	256.160	0.082	-0.143
-686.324	56.829	-0.344	0.338
-685.310	-75.476	0.119	0.043
-684.295	-179.284	-0.158	-0.004
-683.281	800.000	-0.054	-0.153
-682.266	-200.000	0.016	0.099
-681.251	-200.000	0.023	0.185
-680.237	-78.042	0.174	-0.061
-679.222	-200.000	0.012	-0.094
-678.208	-12.985	0.320	-0.210
-677.193	-63.656	0.230	0.095
-676.178	62.283	-0.209	0.210
-675.164	2.834	-0.233	-0.171
-674.149	800.000	0.055	-0.223
-673.135	-103.313	0.083	0.020
-672.120	-105.014	-0.488	-0.113
-671.105	168.637	-0.192	0.277
-670.091	-200.000	0.000	-0.055
-669.076	191.479	-0.112	-0.170
-668.062	153.844	-0.187	-0.259
-667.047	15.469	-0.151	0.119
-666.032	360.742	0.247	-0.499
-665.018	-148.256	-0.311	0.026
-664.003	-122.429	-0.036	-0.006
-662.989	800.000	-0.051	0.175
-661.974	-200.000	-0.055	0.433
-660.959	800.000	-0.056	0.209
-659.945	-44.235	0.320	0.162
-658.930	148.700	0.234	-0.319
-657.916	325.474	0.027	-0.052
-656.901	25.820	-0.192	-0.161
-655.886	-48.880	0.118	0.057
-654.872	-200.000	-0.067	-0.568
-653.857	-68.530	-0.144	-0.056
-652.843	-191.766	-0.304	-0.003
-651.828	-67.153	0.275	-0.109
-650.814	-121.256	-0.366	0.062
-649.799	800.000	0.037	0.126
-648.784	-106.707	0.264	0.059
-647.770	-34.835	-0.187	-0.103
-646.755	-200.000	0.005	-0.515
-645.741	-70.761	0.384	0.146
-644.726	-26.620	0.317	0.187
-643.711	-101.221	0.314	-0.077
-642.697	34.318	0.150	-0.131
-641.682	-102.632	-0.141	-0.034
-640.668	-200.000	0.001	-0.201
-639.653	360.644	-0.087	-0.175
-638.638	-21.435	-0.138	0.085
-637.624	-57.501	0.121	-0.054
-636.609	-3.804	-0.062	0.043
-635.595	581.638	-0.065	-0.161
-634.580	-80.903	0.193	-0.064
-633.565	8.601	-0.368	-0.279
-632.551	800.000	-0.118	-0.375
-631.536	-83.289	-0.183	-0.059
-630.522	298.165	-0.016	0.030
-629.507	491.154	-0.134	-0.308
-628.492	-85.570	-0.305	-0.095
-627.478	744.641	0.019	0.051
-626.463	-85.743	0.233	0.073
-625.449	44.816	-0.333	-0.308
-624.434	-200.000	-0.008	-0.403
-623.419	800.000	0.057	-0.214
-622.405	800.000	0.146	0.427
-621.390	706.090	0.034	-0.091
-620.376	557.319	0.120	0.291
-619.361	-154.235	-0.237	-0.016
-618.346	-40.233	0.088	-0.046
-617.332	-172.397	-0.156	-0.005
-616.317	-200.000	-0.033	0.224
-615.303	57.913	0.291	0.286
-614.288	53.056	0.215	-0.207
-613.273	36.680	0.209	-0.186
-612.259	-3.268	-0.272	0.191
-611.244	-176.217	0.243	0.006
-610.230	-110.865	0.146	-0.030
-609.215	182.427	0.112	0.166
-608.201	-200.000	0.011	0.325
-607.186	-200.000	0.019	-0.415
-606.171	-200.000	0.017	-0.154
-605.157	-53.791	0.159	0.073
-604.142	10.616	-0.207	0.158
-603.128	15.370	-0.186	0.147
-602.113	-43.934	0.058	-0.029
-601.098	-96.985	0.248	0.065
-600.084	301.929	-0.169	0.314
-599.069	-135.579	0.099	-0.012
-598.055	-77.695	-0.238	0.083
-597.040	-101.332	0.155	0.038
-596.025	209.567	-0.083	-0.131
-595.011	38.741	-0.130	-0.117
-593.996	-200.000	-0.071	-0.399
-592.982	356.715	-0.098	0.197
-591.967	407.665	0.072	0.153
-590.952	-129.020	0.201	-0.028
-589.938	-74.562	-0.410	-0.149
-588.923	501.505	-0.068	-0.159
-587.909	-200.000	0.000	-0.245
-586.894	-146.786	-0.411	-0.036
-585.879	-110.437	-0.384	-0.080
-584.865	800.000	0.090	0.255
-583.850	179.778	-0.243	0.358
-582.836	-138.223	-0.359	-0.040
-581.821	7.044	0.195	0.146
-580.806	216.763	0.067	-0.108
-579.792	-143.845	0.029	0.003
-578.777	-54.840	-0.385	-0.175
-577.763	160.846	0.084	0.118
-576.748	258.839	0.175	0.304
-575.733	-70.978	0.135	0.051
-574.719	-74.039	-0.173	0.063
-573.704	-2.032	-0.329	-0.232
-572.690	800.000	-0.101	-0.295
-571.675	127.083	-0.230	-0.293
-570.661	150.918	0.076	-0.103
-569.646	434.854	-0.032	0.070
-568.631	207.627	0.107	0.167
-567.617	16.159	0.090	-0.071
-566.602	516.784	-0.125	0.294
-565.588	-200.000	-0.033	-0.187
-564.573	-200.000	0.031	0.309
-563.558	-183.170	-0.214	0.004
-562.544	152.118	0.025	0.035
-561.529	-162.763	0.243	-0.012
-560.515	384.269	0.106	0.219
-559.500	238.251	-0.066	-0.111
-558.485	86.121	0.298	-0.329
-557.471	-140.475	-0.154	-0.016
-556.456	800.000	-0.104	0.333
-555.442	19.999	0.231	0.187
-554.427	-176.618	-0.640	0.016
-553.412	800.000	-0.139	-0.428
-552.398	0.901	-0.281	-0.202
-551.383	-16.165	-0.226	0.144
-550.369	-105.404	0.086	0.020
-549.354	-200.000	-0.003	-0.139
-548.339	53.088	-0.084	0.080
-547.325	-107.448	-0.125	-0.027
-546.310	-75.754	-0.178	-0.063
-545.296	-200.000	0.015	-0.217
-544.281	86.441	0.225	-0.249
-543.266	324.309	-0.253	-0.484
-542.252	800.000	0.072	-0.245
-541.237	800.000	0.218	-0.678
-540.223	192.396	-0.221	0.335
-539.208	-200.000	0.013	-0.287
-538.193	83.406	0.122	-0.133
-537.179	-200.000	0.025	-0.370
-536.164	-119.356	0.287	0.050
-535.150	-200.000	0.031	0.169
-534.135	82.232	-0.103	0.112
-533.121	-106.883	0.318	-0.071
-532.106	800.000	-0.083	-0.234
-531.091	77.971	-0.116	0.124
-530.077	-200.000	0.001	0.151
-529.062	243.560	-0.085	0.142
-528.048	260.796	-0.069	0.120
-527.033	-52.297	0.106	-0.049
-526.018	-68.476	0.344	-0.134
-525.004	-200.000	-0.024	-0.256
-523.989	206.416	-0.150	0.235
-522.975	800.000	0.054	-0.162
-521.960	-134.414	-0.394	0.048
-520.945	-110.892	0.359	-0.074
-519.931	-177.216	0.558	-0.014
-518.916	-200.000	-0.017	0.348
-517.902	115.778	0.115	0.141
-516.887	-128.506	0.728	0.104
-515.872	-200.000	-0.047	0.280
-514.858	-200.000	0.051	0.292
-513.843	-96.979	0.210	-0.055
-512.829	0.302	0.209	0.150
-511.814	-22.615	0.199	0.120
-510.799	-126.844	0.141	0.021
-509.785	-41.112	0.525	-0.272
-508.770	138.467	0.140	0.184
-507.756	339.749	0.035	0.068
-506.741	-19.387	0.234	0.145
-505.726	218.217	0.156	-0.250
-504.712	-4.166	-0.013	0.009
-503.697	-200.000	0.034	-0.177
-502.683	-200.000	-0.039	0.326
-501.668	-200.000	0.047	0.322
-500.653	301.243	0.070	0.130
-499.639	371.490	-0.062	0.126
-498.624	-111.498	-0.114	-0.023
-497.610	-106.610	-0.290	-0.065
-496.595	-17.681	-0.074	-0.046
-495.581	-200.000	0.000	0.162
-494.566	292.194	0.078	0.142
-493.551	10.156	0.295	0.225
-492.537	701.787	-0.089	0.235
-491.522	-200.000	0.026	-0.181
-490.508	472.268	0.185	0.416
-489.493	176.547	0.088	-0.128
-488.478	391.705	0.045	0.093
-487.464	3.116	-0.168	0.122
-486.449	84.473	-0.309	0.339
-485.435	-54.994	-0.092	-0.042
-484.420	6.690	0.128	0.096
-483.405	-199.840	0.170	-0.001
-482.391	-7.249	0.161	-0.109
-481.376	-103.072	0.226	0.054
-480.362	126.000	-0.163	0.206
-479.347	350.872	-0.035	-0.068
-478.332	76.573	0.034	-0.036
-477.318	718.016	-0.111	-0.296
-476.303	485.959	-0.081	0.185
-475.289	-151.476	-0.266	0.020
-474.274	800.000	0.086	-0.260
-473.259	60.318	0.112	-0.111
-472.245	-200.000	-0.069	0.346
-471.230	87.198	0.128	0.142
-470.216	-175.222	-0.453	-0.013
-469.201	23.905	-0.230	0.190
-468.186	-145.621	-0.158	-0.014
-467.172	564.026	0.060	0.145
-466.157	-114.016	-0.325	-0.063
-465.143	566.552	-0.070	0.169
-464.128	215.435	0.108	-0.171
-463.113	-65.018	0.029	-0.012
-462.099	-200.000	0.030	-0.284
-461.084	232.936	-0.115	-0.190
-460.070	667.324	-0.115	0.298
-459.055	-0.430	-0.130	-0.093
-458.040	-173.474	0.208	-0.006
-457.026	-118.213	-0.073	0.013
-456.011	-115.883	-0.108	-0.020
-454.997	217.224	0.116	-0.184
-453.982	6.770	0.239	-0.178
-452.968	194.620	-0.206	0.313
-451.953	50.432	0.177	-0.167
-450.938	800.000	-0.061	-0.219
-449.924	-200.000	0.009	0.045
-448.909	-47.741	-0.180	0.087
-447.895	-165.718	-0.204	-0.009
-446.880	-200.000	0.002	-0.318
-445.865	171.697	-0.110	0.158
-444.851	-40.533	0.068	0.035
-443.836	800.000	0.035	-0.134
-442.822	-181.554	-0.330	0.006
-441.807	-200.000	-0.040	0.323
-440.792	-93.939	0.249	0.069
-439.778	620.158	-0.064	0.161
-438.763	251.659	0.167	-0.284
-437.749	52.285	0.130	-0.124
-436.734	100.617	0.173	-0.201
-435.719	800.000	0.029	-0.111
-434.705	49.151	-0.161	0.151
-433.690	135.351	-0.171	0.222
-432.676	-200.000	0.030	0.222
-431.661	5.951	0.186	-0.138
-430.646	-74.651	0.154	0.055
-429.632	-153.177	-0.232	0.016
-428.617	-157.302	0.214	0.013
-427.603	99.751	0.130	0.150
-426.588	-200.000	-0.036	0.168
-425.573	171.474	-0.137	-0.197
-424.559	379.098	-0.087	0.178
-423.544	146.362	0.099	0.133
-422.530	793.103	0.066	0.181
-421.515	-200.000	-0.027	-0.243
-420.500	-200.000	0.014	-0.256
-419.486	332.354	-0.167	0.322
-418.471	173.683	-0.114	-0.165
-417.457	-200.000	-0.022	-0.100
-416.442	183.298	0.151	0.223
-415.428	-85.040	0.185	-0.058
-414.413	21.644	-0.165	-0.134
-413.398	-58.324	-0.114	0.049
-412.384	3.552	-0.082	0.060
-411.369	-35.084	0.353	0.192
-410.355	44.118	0.250	0.229
-409.340	-109.230	-0.228	0.048
-408.325	347.381	0.156	-0.307
-407.311	-200.000	0.019	0.285
-406.296	616.596	0.077	-0.192
-405.282	-82.587	-0.290	-0.094
-404.267	-23.103	-0.080	-0.048
-403.252	580.276	0.081	-0.197
-402.238	-200.000	0.035	0.208
-401.223	172.965	0.232	0.334
-400.209	-85.948	0.369	0.114
-399.194	231.851	-0.100	0.164
-398.179	603.157	0.065	0.160
-397.165	-200.000	-0.038	-0.216
-396.150	-91.655	0.015	0.004
-395.136	51.667	0.281	0.267
-394.121	-171.969	-0.088	0.003
-393.106	800.000	0.107	-0.330
-392.092	-4.681	0.098	0.068
-391.077	-200.000	0.046	0.427
-390.063	-200.000	0.026	0.267
-389.048	-57.852	0.298	0.130
-388.033	-55.350	-0.196	-0.088
-387.019	-104.933	-0.360	-0.082
-386.004	50.961	0.100	0.095
-384.990	379.927	-0.098	-0.201
-383.975	-200.000	0.006	-0.380
-382.960	14.407	0.108	-0.084
-381.946	593.267	-0.100	-0.246
-380.931	-200.000	0.015	0.077
-379.917	-21.073	-0.165	0.101
-378.902	233.617	-0.263	-0.432
-377.888	33.738	-0.210	-0.182
-376.873	226.415	0.167	0.270
-375.858	-138.869	-0.205	0.022
-374.844	-91.995	0.213	-0.060
-373.829	297.001	-0.043	0.078
-372.815	-200.000	0.013	0.147
-371.800	-127.368	0.163	-0.024
-370.785	583.146	-0.148	0.363
-369.771	-58.661	-0.101	-0.044
-368.756	-200.000	-0.026	0.182
-367.742	77.066	-0.072	-0.076
-366.727	323.574	0.036	-0.069
-365.712	33.338	-0.041	-0.036
-364.698	-75.451	-0.171	0.061
-363.683	192.110	0.149	-0.224
-362.669	84.901	0.248	-0.271
-361.654	-83.535	0.279	0.089
-360.639	322.102	0.054	0.103
-359.625	-189.475	-0.092	0.001
-358.610	217.072	0.091	0.145
-357.596	-66.360	-0.187	-0.074
-356.581	174.920	0.078	-0.113
-355.566	190.129	0.043	0.064
-354.552	-120.223	-0.284	-0.048
-353.537	-18.407	-0.240	0.149
-352.523	-200.000	0.063	0.301
-351.508	49.137	0.112	-0.105
-350.493	800.000	-0.100	0.297
-349.479	-89.719	0.041	0.012
-348.464	-150.393	-0.237	-0.018
-347.450	-116.430	0.339	0.062
-346.435	-200.000	-0.022	-0.202
-345.420	800.000	0.070	-0.229
-344.406	212.582	0.164	-0.257
-343.391	-24.480	-0.298	0.177
-342.377	-152.354	0.203	-0.015
-341.362	-159.153	-0.010	-0.001
-340.348	800.000	-0.026	-0.105
-339.333	18.969	-0.126	-0.101
-338.318	-50.843	-0.309	0.145
-337.304	28.632	-0.220	0.185
-336.289	401.816	0.028	0.059
-335.275	-127.668	0.207	-0.030
-334.260	800.000	0.035	-0.150
-333.245	-83.749	0.140	-0.045
-332.231	-200.000	0.075	0.395
-331.216	-200.000	0.039	-0.304
-330.202	338.817	-0.095	-0.185
-329.187	-19.312	0.212	0.131
-328.172	207.497	-0.203	-0.315
-327.158	-144.001	0.270	0.025
-326.143	145.020	0.041	0.054
-325.129	-73.302	-0.245	0.089
-324.114	-158.736	-0.080	0.005
-323.099	-200.000	0.020	0.259
-322.085	-200.000	0.029	-0.282
-321.070	-74.045	-0.199	-0.072
-320.056	800.000	0.107	-0.313
-319.041	-95.770	0.047	-0.013
-318.026	-100.395	-0.190	-0.047
-317.012	-65.223	-0.220	-0.088
-315.997	-107.671	-0.328	-0.071
-314.983	800.000	0.024	-0.102
-313.968	-150.292	-0.078	0.006
-312.953	-135.333	-0.193	-0.023
-311.939	800.000	0.109	0.349
-310.924	-86.166	-0.232	0.071
-309.910	-88.630	-0.124	-0.037
-308.895	800.000	-0.023	-0.073
-307.880	800.000	-0.034	-0.097
-306.866	-75.016	0.312	0.111
-305.851	800.000	0.087	0.359
-304.837	140.709	0.053	0.070
-303.822	115.222	-0.181	0.220
-302.807	-122.258	0.340	0.055
-301.793	-62.767	0.113	-0.047
-300.778	573.517	0.127	-0.308
-299.764	70.223	-0.118	-0.121
-298.749	-200.000	-0.044	-0.388
-297.735	-137.132	-0.260	0.029
-296.720	-19.625	-0.122	0.075
-295.705	294.405	-0.093	0.170
-294.691	-11.334	0.125	-0.082
-293.676	800.000	-0.071	-0.197
-292.662	-100.216	0.166	0.041
-291.647	-158.723	0.121	0.007
-290.632	265.229	0.158	-0.273
-289.618	-49.844	-0.182	0.086
-288.603	-51.924	-0.223	0.103
-287.589	127.059	0.161	-0.203
-286.574	-0.978	0.317	-0.223
-285.559	-155.485	-0.269	0.017
-284.545	-200.000	-0.125	0.000
-283.530	800.000	0.032	0.136
-282.516	414.895	0.096	0.203
-281.501	-23.196	0.316	-0.189
-280.486	170.265	-0.133	-0.190
-279.472	30.327	0.326	-0.277
-278.457	105.609	-0.104	-0.122
-277.443	-84.900	-0.180	0.056
-276.428	-200.000	0.015	0.081
-275.413	110.129	-0.202	0.240
-274.399	-200.000	0.040	0.216
-273.384	171.106	0.284	-0.405
-272.370	-80.220	-0.044	-0.014
-271.355	800.000	-0.097	0.346
-270.340	171.029	-0.210	0.298
-269.326	458.552	0.050	0.110
-268.311	-200.000	0.009	-0.099
-267.297	-200.000	0.009	-0.199
-266.282	209.202	-0.126	-0.196
-265.267	-120.851	0.132	0.022
-264.253	11.064	-0.063	0.048
-263.238	-60.002	-0.396	-0.168
-262.224	-200.000	0.009	0.055
-261.209	-18.280	-0.188	-0.117
-260.195	-200.000	0.003	-0.145
-259.180	714.621	0.076	-0.200
-258.165	182.011	-0.108	0.157
-257.151	-25.715	-0.262	0.154
-256.136	106.529	-0.246	0.290
-255.122	-125.358	-0.203	0.031
-254.107	-108.281	-0.189	-0.040
-253.092	191.164	0.072	0.107
-252.078	-77.274	0.123	0.043
-251.063	-170.712	-0.366	0.013
-250.049	-0.445	0.282	0.199
-249.034	608.912	0.141	-0.349
-248.019	139.251	-0.122	-0.160
-247.005	-200.000	-0.002	0.139
-245.990	-200.000	-0.020	0.373
-244.976	-125.841	-0.052	-0.008
-243.961	351.724	0.053	0.105
-242.946	3.262	0.172	-0.124
-241.932	800.000	0.034	0.110
-240.917	-159.155	0.041	0.002
-239.903	-109.144	0.076	-0.016
-238.888	-19.144	0.182	-0.112
-237.873	188.599	-0.100	-0.149
-236.859	-120.095	-0.034	-0.006
-235.844	87.898	0.103	-0.113
-234.830	-20.402	0.224	-0.137
-233.815	-139.491	-0.095	0.010
-232.800	-185.913	0.188	0.003
-231.786	30.679	0.165	-0.140
-230.771	-200.000	-0.019	-0.471
-229.757	121.285	0.148	-0.183
-228.742	0.801	0.207	-0.147
-227.727	-54.418	0.181	-0.081
-226.713	251.806	-0.125	0.211
-225.698	197.360	0.156	0.236
-224.684	100.834	-0.223	0.257
-223.669	-200.000	-0.030	-0.222
-222.655	78.101	0.189	-0.199
-221.640	-43.796	-0.232	0.116
-220.625	800.000	0.141	0.506
-219.611	-41.063	0.350	0.179
-218.596	-85.627	-0.086	0.026
-217.582	304.458	0.088	-0.161
-216.567	59.964	-0.165	0.162
-215.552	-137.509	-0.237	-0.027
-214.538	232.622	0.059	-0.097
-213.523	78.502	-0.148	-0.156
-212.509	247.724	0.125	-0.209
-211.494	800.000	-0.049	-0.134
-210.479	800.000	0.087	-0.303
-209.465	340.785	0.058	0.112
-208.450	-200.000	-0.011	0.144
-207.436	-170.374	0.170	-0.006
-206.421	27.063	0.266	0.221
-205.406	24.234	0.296	0.242
-204.392	62.833	-0.126	-0.124
-203.377	77.343	-0.147	0.155
-202.363	800.000	0.052	0.158
-201.348	170.410	0.082	0.117
-200.333	198.766	0.116	0.177
-199.319	147.074	-0.329	-0.438
-198.304	-7.505	0.302	0.202
-197.290	800.000	-0.070	0.211
-196.275	-18.702	0.225	0.139
-195.260	161.688	-0.092	-0.127
-194.246	-152.987	0.313	-0.022
-193.231	-55.265	-0.192	0.085
-192.217	76.879	-0.248	-0.260
-191.202	38.590	-0.232	0.205
-190.187	-138.153	0.304	0.033
-189.173	-91.035	0.089	-0.025
-188.158	-59.153	-0.107	-0.046
-187.144	256.205	-0.078	-0.133
-186.129	-200.000	-0.005	-0.179
-185.114	-27.627	-0.097	0.055
-184.100	-200.000	-0.159	0.000
-183.085	-133.289	-0.108	-0.013
-182.071	-200.000	0.004	0.052
-181.056	66.761	-0.186	0.187
-180.042	-84.507	0.102	0.032
-179.027	35.313	-0.196	0.170
-178.012	-200.000	0.004	-0.100
-176.998	642.671	0.150	0.378
-175.983	-47.194	-0.093	-0.045
-174.969	800.000	0.024	0.090
-173.954	724.539	-0.158	0.416
-172.939	22.233	0.123	0.100
-171.925	63.752	0.110	0.109
-170.910	331.612	0.142	0.270
-169.896	-79.996	-0.161	0.053
-168.881	2.679	0.129	-0.092
-167.866	6.082	0.190	-0.140
-166.852	-107.791	0.177	-0.038
-165.837	800.000	-0.008	-0.022
-164.823	272.658	-0.091	0.159
-163.808	800.000	-0.029	0.091
-162.793	-40.815	-0.033	0.017
-161.779	800.000	-0.062	-0.181
-160.764	-54.560	0.141	-0.063
-159.750	-27.917	-0.163	0.094
-158.735	-80.346	-0.249	-0.082
-157.720	800.000	0.103	-0.439
-156.706	140.855	-0.176	0.231
-155.691	-82.572	0.342	0.110
-154.677	635.373	-0.123	-0.309
-153.662	800.000	-0.093	0.285
-152.647	-40.063	0.409	-0.211
-151.633	800.000	-0.068	-0.277
-150.618	-34.620	-0.015	0.008
-149.604	-88.397	0.169	0.050
-148.589	24.007	0.234	0.190
-147.574	-69.525	0.084	0.032
-146.560	-133.116	0.176	0.022
-145.545	491.047	0.055	0.125
-144.531	95.120	0.059	0.067
-143.516	-200.000	-0.052	0.464
-142.502	17.630	-0.161	0.126
-141.487	36.426	-0.063	0.055
-140.472	-189.074	0.116	0.001
-139.458	477.001	0.152	0.340
-138.443	96.629	0.228	0.258
-137.429	-14.359	0.266	-0.169
-136.414	800.000	0.035	-0.129
-135.399	-200.000	-0.053	0.293
-134.385	-152.129	0.302	0.022
-133.370	608.265	0.037	0.091
-132.356	-200.000	-0.015	0.170
-131.341	-200.000	-0.045	-0.245
-130.326	40.922	0.148	-0.132
-129.312	-159.197	-0.202	0.011
-128.297	88.330	-0.233	0.256
-127.283	600.898	0.154	-0.378
-126.268	800.000	0.075	-0.209
-125.253	215.783	0.236	0.371
-124.239	-200.000	0.018	-0.324
-123.224	103.301	0.121	0.140
-122.210	-200.000	-0.042	-0.239
-121.195	-200.000	-0.020	0.580
-120.180	800.000	0.025	0.093
-119.166	800.000	0.033	0.100
-118.151	-61.926	-0.361	0.149
-117.137	-190.588	-0.355	-0.004
-116.122	800.000	-0.045	-0.153
-115.107	-90.188	-0.286	-0.082
-114.093	707.139	0.025	-0.065
-113.078	-122.085	-0.187	-0.030
-112.064	-200.000	0.002	0.075
-111.049	800.000	0.010	-0.039
-110.034	8.368	-0.160	-0.119
-109.020	-4.381	0.092	0.063
-108.005	800.000	-0.101	0.365
-106.991	127.874	-0.105	0.131
-105.976	-92.355	-0.170	0.047
-104.962	281.220	-0.048	0.084
-103.947	216.734	0.059	-0.093
-102.932	-200.000	0.053	0.238
-101.918	-52.309	0.305	-0.139
-100.903	800.000	0.087	0.240
-99.889	-80.929	-0.117	-0.038
-98.874	-57.009	0.204	0.089
-97.859	-102.269	-0.357	-0.085
-96.845	413.538	0.034	0.071
-95.830	27.398	-0.079	0.065
-94.816	-101.749	0.106	-0.025
-93.801	-156.882	0.549	0.033
-92.786	16.582	0.070	0.055
-91.772	-200.000	0.047	0.388
-90.757	-200.000	0.089	0.404
-89.743	-60.682	-0.087	0.036
-88.728	88.533	0.059	-0.065
-87.713	223.330	0.119	-0.189
-86.699	-29.290	0.179	-0.101
-85.684	-105.763	0.253	-0.056
-84.670	-133.694	-0.056	-0.007
-83.655	-70.598	0.118	-0.044
-82.640	15.439	-0.286	0.221
-81.626	163.876	-0.168	0.233
-80.611	-18.447	0.236	-0.145
-79.597	250.258	0.174	0.292
-78.582	-200.000	-0.086	0.422
-77.567	-37.701	-0.388	-0.204
-76.553	-150.389	0.212	-0.016
-75.538	-25.182	-0.277	0.162
-74.524	-54.793	-0.242	-0.108
-73.509	-55.552	0.134	-0.059
-72.494	-144.946	0.197	-0.018
-71.480	129.858	-0.170	0.215
-70.465	-135.766	0.630	-0.073
-69.451	-100.443	0.330	0.080
-68.436	71.329	-0.163	0.167
-67.422	25.717	0.308	-0.253
-66.407	-156.579	-0.237	0.014
-65.392	588.750	0.019	-0.047
-64.378	44.627	0.144	0.130
-63.363	150.008	0.035	0.047
-62.349	-200.000	0.004	0.231
-61.334	-14.744	-1.141	-0.722
-60.319	208.579	0.456	0.702
-59.305	112.758	-0.455	-0.543
-58.290	172.281	0.866	1.227
-57.276	800.000	0.525	1.544
-56.261	-200.000	94.984	589.246
-55.246	668.295	1369.778	3489.528
-54.232	199.847	2541.915	3841.956
-53.217	120.009	2160.545	2638.860
-52.203	43.128	1707.344	1534.319
-51.188	35.735	1520.529	1316.025
-50.173	33.304	1493.640	1276.327
-49.159	52.250	1542.553	1448.382
-48.144	54.218	1559.613	1477.833
-47.130	35.830	1519.667	1315.720
-46.115	32.765	1504.793	1281.993
-45.100	32.520	1501.867	1277.785
-44.086	32.518	1500.016	1276.150
-43.071	32.438	1498.330	1274.123
-42.057	32.463	1496.555	1272.729
-41.042	32.393	1495.250	1271.095
-40.027	32.356	1493.424	1269.248
-39.013	32.460	1491.778	1268.500
-37.998	32.369	1491.190	1267.331
-36.984	32.459	1489.458	1266.415
-35.969	32.550	1488.097	1265.823
-34.954	32.429	1486.992	1264.021
-33.940	32.499	1485.060	1262.798
-32.925	32.381	1484.312	1261.317
-31.911	32.495	1482.455	1260.456
-30.896	32.484	1481.471	1259.490
-29.881	32.487	1479.920	1258.146
-28.867	32.499	1478.561	1257.018
-27.852	32.553	1476.929	1255.941
-26.838	32.470	1475.916	1254.480
-25.823	32.458	1474.027	1252.740
-24.809	32.514	1472.513	1251.779
-23.794	32.435	1471.439	1250.289
-22.779	32.457	1470.029	1249.191
-21.765	32.512	1468.895	1248.543
-20.750	32.486	1467.693	1247.296
-19.736	32.461	1466.512	1246.078
-18.721	32.419	1465.310	1244.733
-17.706	32.400	1464.647	1243.993
-16.692	32.411	1463.175	1242.766
-15.677	32.423	1462.649	1242.344
-14.663	32.474	1461.245	1241.445
-13.648	32.510	1460.118	1240.671
-12.633	32.471	1459.259	1239.635
-11.619	32.427	1458.556	1238.700
-10.604	32.387	1458.012	1237.925
-9.590	32.324	1457.255	1236.819
-8.575	32.311	1456.324	1235.898
-7.560	32.309	1455.660	1235.268
-6.546	32.400	1454.559	1234.882
-5.531	32.377	1453.348	1233.653
-4.517	32.412	1452.544	1233.153
-3.502	32.295	1451.439	1231.403
-2.487	32.391	1450.119	1230.860
-1.473	32.337	1449.444	1229.884
-0.458	32.359	1448.006	1228.759
0.556	31.499	1438.129	1218.143
1.571	28.499	1412.576	1177.164
2.586	25.151	1352.217	1106.156
3.600	23.467	1270.103	1029.125
4.615	22.003	1224.062	983.534
5.629	18.933	1168.304	922.212
6.644	11.456	1084.711	818.776
7.659	5.519	1045.482	760.322
8.673	4.816	1039.726	752.671
9.688	4.737	1037.191	750.392
10.702	4.569	1036.115	748.736
11.717	4.628	1033.604	747.138
12.731	6.737	1035.641	758.687
13.746	13.657	1045.288	799.155
14.761	18.788	1051.060	828.302
15.775	18.686	1050.192	827.053
16.790	17.748	1047.853	820.628
17.804	16.591	1045.993	813.535
18.819	15.690	1043.988	807.580
19.834	15.312	1042.442	804.499
20.848	14.958	1041.716	802.170
21.863	14.745	1040.753	800.340
22.877	14.453	1040.293	798.516
23.892	14.345	1039.462	797.290
24.907	14.209	1038.928	796.161
25.921	14.356	1038.001	796.083
26.936	14.375	1037.074	795.390
27.950	14.338	1036.391	794.617
28.965	14.394	1034.759	793.563
29.980	14.366	1034.246	792.965
30.994	14.519	1033.153	792.786
32.009	14.689	1031.584	792.321
33.023	14.564	1031.548	791.630
34.038	14.627	1030.363	790.949
35.053	14.516	1029.325	789.557
36.067	14.546	1028.196	788.760
37.082	14.444	1027.696	787.825
38.096	14.426	1027.152	787.253
39.111	14.623	1025.725	787.019
40.126	14.661	1024.815	786.430
41.140	14.370	1024.290	784.586
42.155	14.269	1023.297	783.282
43.169	14.204	1022.099	781.991
44.184	14.153	1020.598	780.532
45.199	14.172	1019.817	779.957
46.213	14.132	1018.932	779.022
47.228	14.249	1017.864	778.687
48.242	14.323	1016.888	778.214
49.257	14.490	1015.965	778.223
50.271	14.314	1015.037	776.621
51.286	14.486	1014.328	776.808
52.301	14.476	1013.805	776.296
53.315	14.454	1012.824	775.371
54.330	14.420	1011.913	774.449
55.344	14.307	1010.915	773.091
56.359	14.283	1009.976	772.192
57.374	14.253	1009.567	771.676
58.388	14.282	1008.451	770.888
59.403	14.261	1007.606	770.075
60.417	14.095	1006.985	768.765
61.432	14.186	1005.916	768.302
62.447	14.259	1005.211	768.032
63.461	14.165	1004.742	767.171
64.476	14.202	1003.200	766.095
65.490	14.116	1002.748	765.290
66.505	14.094	1001.783	764.382
67.520	14.105	1001.330	764.021
68.534	14.124	1000.392	763.322
69.549	14.188	999.711	763.031
70.563	14.281	998.562	762.510
71.578	14.178	998.328	761.793
72.593	14.080	997.511	760.654
73.607	13.967	996.243	759.106
74.622	14.079	994.930	758.546
75.636	14.041	994.482	757.968
76.651	14.134	993.687	757.718
77.666	14.125	992.818	756.944
78.680	14.074	992.089	756.093
79.695	13.976	992.206	755.666
80.709	14.086	991.171	755.311
81.724	14.158	990.724	755.233
82.739	14.255	989.508	754.680
83.753	14.231	989.235	754.294
84.768	14.299	988.528	753.996
85.782	14.403	987.331	753.485
86.797	14.526	986.903	753.650
87.812	14.604	985.943	753.204
88.826	14.543	985.069	752.193
89.841	14.441	984.471	751.212
90.855	14.419	983.541	750.335
91.870	14.424	982.928	749.821
92.884	14.641	982.264	750.225
93.899	14.458	981.559	748.798
94.914	14.503	980.358	748.019
95.928	14.565	979.991	747.948
96.943	14.602	979.154	747.410
97.957	14.573	978.392	746.632
98.972	14.501	977.701	745.716
99.987	14.495	976.986	745.081
101.001	14.632	976.223	745.041
102.016	14.527	975.722	744.126
103.030	14.544	974.275	743.033
104.045	14.414	973.530	741.819
105.060	14.648	972.332	741.884
106.074	14.509	971.212	740.343
107.089	14.351	970.957	739.382
108.103	14.193	969.642	737.615
109.118	14.160	968.714	736.700
110.133	14.210	968.057	736.354
111.147	14.234	967.110	735.676
112.162	14.259	966.326	735.126
113.176	14.186	965.758	734.306
114.191	14.249	964.831	733.813
115.206	14.346	963.757	733.358
116.220	14.380	962.930	732.815
117.235	14.326	962.228	731.978
118.249	14.253	961.497	731.037
119.264	14.298	960.523	730.429
120.279	14.194	959.880	729.421
121.293	14.148	959.185	728.623
122.308	14.193	957.729	727.651
123.322	14.204	957.107	727.162
124.337	14.137	956.488	726.335
125.352	14.061	955.433	725.139
126.366	14.058	954.217	724.138
127.381	14.176	952.925	723.609
128.395	14.067	952.037	722.394
129.410	14.209	950.981	722.144
130.424	14.249	950.118	721.601
131.439	14.321	948.899	720.924
132.454	14.157	948.657	719.965
133.468	14.250	948.079	719.867
134.483	14.230	947.359	719.167
135.497	14.299	946.352	718.637
136.512	14.339	945.667	718.225
137.527	14.224	945.126	717.255
138.541	14.204	944.165	716.377
139.556	14.282	943.747	716.332
140.570	14.378	942.748	715.924
141.585	14.544	941.543	715.656
142.600	14.490	941.673	715.460
143.614	14.518	940.789	714.845
144.629	14.478	940.217	714.176
145.643	14.741	939.284	714.532
146.658	14.625	938.211	713.155
147.673	14.517	937.572	712.144
148.687	14.522	936.846	711.554
149.702	14.370	936.015	710.213
150.716	14.380	934.767	709.244
151.731	14.387	933.663	708.373
152.746	14.407	933.247	708.082
153.760	14.428	932.544	707.574
154.775	14.468	932.330	707.518
155.789	14.464	931.649	706.920
156.804	14.452	930.565	705.985
157.819	14.456	929.867	705.410
158.833	14.503	929.296	705.114
159.848	14.591	928.860	705.092
160.862	14.741	927.778	704.839
161.877	14.630	927.654	704.217
162.892	14.599	926.186	702.907
163.906	14.505	925.372	701.831
164.921	14.503	924.691	701.248
165.935	14.424	923.651	700.062
166.950	14.524	922.632	699.651
167.964	14.499	921.912	698.938
168.979	14.479	920.763	697.920
169.994	14.557	919.679	697.362
171.008	14.529	919.048	696.705
172.023	14.434	918.567	695.881
173.037	14.753	917.746	696.527
174.052	14.668	917.330	695.796
175.067	14.703	916.470	695.230
176.081	14.568	915.806	694.105
177.096	14.541	914.544	692.973
178.110	14.459	914.039	692.190
179.125	14.519	913.358	691.859
180.140	14.577	912.545	691.421
181.154	14.605	911.764	690.884
182.169	14.645	911.390	690.706
183.183	14.731	910.734	690.503
184.198	14.934	909.548	690.383
185.213	14.782	909.340	689.536
186.227	14.741	908.898	688.971
187.242	14.816	908.245	688.726
188.256	14.899	907.710	688.600
189.271	14.900	906.963	687.974
190.286	14.921	906.167	687.399
191.300	14.695	905.482	685.891
192.315	14.654	904.449	684.878
193.329	14.332	904.132	683.258
194.344	14.442	903.221	682.957
195.359	14.559	902.556	682.874
196.373	14.719	902.369	683.325
197.388	14.945	901.266	683.354
198.402	14.854	901.303	682.949
199.417	15.011	900.782	683.137
200.432	14.995	900.616	682.884
201.446	15.185	899.897	683.054
202.461	15.140	899.568	682.562
203.475	15.109	899.281	682.154
204.490	15.295	897.939	681.833
205.504	15.034	897.485	680.368
206.519	15.115	896.458	679.856
207.534	14.949	895.889	678.695
208.548	14.984	895.098	678.176
209.563	15.158	894.518	678.381
210.577	15.012	894.154	677.455
211.592	15.033	893.176	676.739
212.607	15.067	893.105	676.759
213.621	15.187	892.622	676.819
214.636	15.208	891.238	675.796
215.650	15.339	890.623	675.797
216.665	15.100	890.319	674.546
217.680	15.210	890.132	674.785
218.694	15.374	889.301	674.754
219.709	15.351	889.042	674.408
220.723	15.281	888.056	673.317
221.738	15.306	887.410	672.869
222.753	15.423	886.510	672.594
223.767	15.251	886.146	671.572
224.782	15.188	885.186	670.531
225.796	15.402	884.618	670.900
226.811	15.462	883.701	670.382
227.826	15.368	883.296	669.640
228.840	15.253	882.738	668.702
229.855	15.306	881.852	668.180
230.869	15.409	881.107	667.967
231.884	15.378	880.674	667.458
232.899	15.257	880.208	666.562
233.913	15.251	879.381	665.856
234.928	15.273	878.510	665.224
235.942	15.155	878.198	664.459
236.957	15.207	876.996	663.699
237.972	15.354	876.120	663.557
238.986	15.269	875.817	662.933
240.001	15.341	875.149	662.653
241.015	15.179	874.967	661.817
242.030	15.234	874.289	661.465
243.045	15.342	873.671	661.362
244.059	15.565	872.531	661.319
245.074	15.329	872.315	660.170
246.088	15.416	871.620	659.925
247.103	15.594	870.380	659.629
248.117	15.584	870.651	659.735
249.132	15.529	870.168	659.095
250.147	15.773	869.370	659.388
251.161	15.941	868.697	659.478
252.176	15.890	868.515	659.083
253.190	15.788	868.012	658.244
254.205	15.841	867.193	657.772
255.220	16.108	866.390	658.145
256.234	16.075	865.530	657.308
257.249	16.021	864.846	656.519
258.263	15.996	864.697	656.250
259.278	15.895	864.315	655.508
260.293	15.821	863.684	654.684
261.307	16.146	862.854	655.259
262.322	16.140	862.232	654.707
263.336	16.230	861.582	654.505
264.351	16.139	861.365	653.928
265.366	16.162	860.619	653.392
266.380	16.141	860.186	652.924
267.395	16.301	859.196	652.735
268.409	16.096	858.578	651.415
269.424	15.997	858.027	650.556
270.439	16.015	857.289	650.010
271.453	15.980	856.791	649.438
272.468	16.132	855.652	649.102
273.482	16.098	854.862	648.317
274.497	15.936	854.615	647.449
275.512	16.041	854.135	647.431
276.526	16.176	852.842	646.912
277.541	16.136	852.704	646.597
278.555	16.176	852.052	646.199
279.570	16.290	851.296	646.006
280.585	16.251	851.301	645.801
281.599	16.205	850.635	645.061
282.614	16.282	849.747	644.628
283.628	16.201	848.892	643.611
284.643	16.271	848.530	643.549
285.657	16.217	848.378	643.170
286.672	16.300	847.668	642.891
287.687	16.237	847.303	642.318
288.701	16.214	847.018	641.954
289.716	16.333	846.153	641.695
290.730	16.332	845.397	641.061
291.745	16.407	844.775	640.817
292.760	16.294	844.274	639.952
293.774	16.408	843.838	639.999
294.789	16.427	843.463	639.730
295.803	16.620	842.504	639.674
296.818	16.339	842.015	638.185
297.833	16.412	841.046	637.671
298.847	16.441	840.657	637.427
299.862	16.442	839.557	636.541
300.876	16.567	839.198	636.683
301.891	16.418	839.096	635.987
302.906	16.485	838.387	635.644
303.920	16.659	837.441	635.527
304.935	16.723	837.011	635.383
305.949	16.656	836.411	634.622
306.964	16.728	835.932	634.473
307.979	16.676	835.058	633.556
308.993	16.754	834.696	633.517
310.008	16.951	833.974	633.649
311.022	16.754	833.537	632.527
312.037	16.771	833.441	632.462
313.052	16.717	832.724	631.661
314.066	16.685	831.886	630.847
315.081	16.569	831.491	630.063
316.095	16.497	830.735	629.163
317.110	16.647	830.149	629.222
318.125	16.653	829.618	628.788
319.139	16.664	829.224	628.474
320.154	16.575	828.864	627.815
321.168	16.571	828.190	627.235
322.183	16.620	827.911	627.148
323.197	16.805	827.068	627.140
324.212	16.732	826.302	626.234
325.227	16.795	825.836	626.057
326.241	16.706	825.658	625.538
327.256	16.675	825.246	625.057
328.270	16.670	824.293	624.262
329.285	16.662	823.844	623.837
330.300	16.680	823.255	623.401
331.314	16.748	822.970	623.383
332.329	16.652	822.289	622.457
333.343	16.728	821.631	622.184
334.358	16.899	820.984	622.264
335.373	16.941	820.516	622.011
336.387	16.880	819.832	621.212
337.402	16.940	819.559	621.171
338.416	17.007	819.059	620.980
339.431	17.053	818.383	620.584
340.446	17.155	817.811	620.466
341.460	17.075	817.312	619.741
342.475	17.242	816.459	619.647
343.489	17.257	816.224	619.470
344.504	17.254	815.884	619.146
345.519	17.261	815.250	618.637
346.533	17.305	814.759	618.370
347.548	17.284	814.518	618.054
348.562	17.302	813.286	617.129
349.577	17.145	813.204	616.444
350.592	17.239	812.517	616.210
351.606	17.234	812.018	615.760
352.621	16.982	811.535	614.426
353.635	17.178	811.009	614.682
354.650	17.115	810.948	614.354
355.665	17.050	810.661	613.844
356.679	17.304	809.975	614.192
357.694	17.342	809.057	613.578
358.708	17.288	808.659	613.024
359.723	17.267	808.294	612.620
360.738	17.242	807.883	612.163
361.752	17.302	807.605	612.114
362.767	17.399	806.576	611.629
363.781	17.314	806.679	611.349
364.796	17.411	806.438	611.459
365.810	17.382	805.991	610.961
366.825	17.546	805.177	610.881
367.840	17.622	805.050	611.000
368.854	17.521	804.748	610.358
369.869	17.601	804.298	610.249
370.883	17.638	803.566	609.771
371.898	17.490	802.993	608.751
372.913	17.524	802.459	608.415
373.927	17.602	801.710	608.071
374.942	17.827	800.871	608.183
375.956	17.734	800.555	607.558
376.971	17.683	799.834	606.777
377.986	17.669	799.738	606.602
379.000	17.788	799.343	606.670
380.015	17.865	798.752	606.441
381.029	17.837	798.032	605.742
382.044	17.905	797.417	605.464
383.059	17.827	797.144	604.925
384.073	17.752	796.644	604.225
385.088	17.828	795.794	603.798
386.102	17.788	795.417	603.316
387.117	17.758	794.740	602.644
388.132	17.601	794.446	601.812
389.146	17.788	793.952	602.047
390.161	17.648	794.020	601.549
391.175	17.806	793.696	601.806
392.190	17.945	792.806	601.568
393.205	17.781	792.306	600.560
394.219	17.861	791.809	600.412
395.234	17.805	791.099	599.623
396.248	17.786	790.711	599.210
397.263	17.786	790.446	598.955
398.278	17.573	790.217	597.979
399.292	17.729	789.509	597.938
400.307	17.767	788.848	597.518
401.321	17.707	788.807	597.225
402.336	17.688	788.408	596.805
403.350	17.732	788.097	596.669
404.365	17.698	787.710	596.204
405.380	17.831	787.246	596.265
406.394	17.984	786.605	596.263
407.409	18.056	786.317	596.240
408.423	18.179	785.399	595.920
409.438	18.057	785.452	595.483
410.453	18.282	784.873	595.776
411.467	18.263	784.594	595.445
412.482	18.274	784.200	595.131
413.496	18.317	783.333	594.568
414.511	18.184	783.585	594.245
415.526	18.384	783.028	594.467
416.540	18.276	782.435	593.587
417.555	18.427	781.816	593.590
418.569	18.414	781.236	593.052
419.584	18.230	781.199	592.335
420.599	18.425	780.578	592.486
421.613	156.235	1369.542	1794.785
422.628	134.830	1455.383	1794.914
