DTS Sentinel unit serial number:	SN413079Multiplexer serial number:	ORYXHardware model number:	OX4-SRSoftware version number:	ORYX F/W v4.00 Oryx Data Collector v3.7.2.0data status	okinstallation	princeton_trtdifferential loss correction	single-endedforward channel	channel 3reverse channel	N/Adate	2019/09/16time	10:52:34forward acquisition time	60.00reverse acquisition time	0.00gamma	496.2192k internal	0.2301k external	0.2301temperature offset calibration	0.9946default loss term (dB/km)	0.3790temperature slope calibration	1.0000multiplexer offset coefficient	1.0000multiplexer slope coefficient	1.0000fibre end	0.00T internal ref (°C)	36.45T ext. ref 1 (°C)	12.71T ext. ref 2 (°C)	34.27length (m)	temperature (°C)	Stokes	anti-Stokes-747.200	-17.636	0.148	0.095
-746.185	76.806	-0.271	0.293
-745.171	421.050	0.079	0.174
-744.156	-200.000	-0.016	0.174
-743.142	-117.445	-0.159	0.029
-742.127	304.721	0.061	0.116
-741.112	185.873	0.223	0.338
-740.098	110.673	-0.155	0.190
-739.083	-200.000	0.020	-0.329
-738.069	590.200	0.199	0.501
-737.054	-77.635	0.275	0.097
-736.039	-114.707	-0.508	-0.099
-735.025	731.558	-0.102	0.277
-734.010	8.474	-0.074	-0.057
-732.996	-114.935	-0.213	-0.041
-731.981	20.655	-0.073	-0.060
-730.966	-94.654	0.044	-0.012
-729.952	-1.214	0.092	0.066
-728.937	-69.941	-0.102	-0.040
-727.923	-87.712	0.289	-0.089
-726.908	-29.343	-0.040	-0.023
-725.894	-83.385	-0.116	-0.038
-724.879	221.984	-0.261	-0.428
-723.864	115.810	-0.147	-0.183
-722.850	21.793	0.137	-0.114
-721.835	-72.854	0.229	0.086
-720.821	-103.900	-0.126	-0.030
-719.806	-39.996	-0.259	-0.138
-718.791	800.000	-0.077	-0.324
-717.777	-93.937	0.331	-0.093
-716.762	39.966	-0.197	-0.180
-715.748	-200.000	-0.038	-0.189
-714.733	-200.000	-0.069	-0.358
-713.718	237.357	0.113	0.191
-712.704	88.784	0.091	-0.103
-711.689	-52.597	-0.164	-0.077
-710.675	19.717	0.049	-0.040
-709.660	7.400	0.178	0.136
-708.645	-108.886	-0.350	0.076
-707.631	80.838	-0.163	0.179
-706.616	-25.930	0.066	0.039
-705.602	-30.550	-0.085	0.049
-704.587	-200.000	-0.039	-0.183
-703.572	14.323	0.063	-0.050
-702.558	181.989	-0.190	0.284
-701.543	-52.297	0.083	-0.039
-700.529	-108.467	-0.237	-0.052
-699.514	149.804	0.060	0.083
-698.499	62.952	-0.082	0.083
-697.485	-114.607	-0.127	-0.025
-696.470	-99.586	-0.151	-0.039
-695.456	-42.285	-0.479	-0.249
-694.441	205.430	0.148	-0.233
-693.426	800.000	0.086	0.285
-692.412	-170.227	-0.128	0.005
-691.397	-34.680	-0.101	0.056
-690.383	-200.000	0.003	-0.082
-689.368	800.000	-0.111	0.396
-688.354	-143.873	-0.190	0.018
-687.339	-133.244	0.206	0.026
-686.324	-44.563	-0.100	0.051
-685.310	2.906	-0.102	-0.075
-684.295	800.000	-0.031	0.095
-683.281	-79.264	-0.330	-0.114
-682.266	-200.000	-0.008	-0.349
-681.251	709.874	0.056	-0.150
-680.237	165.742	-0.109	-0.157
-679.222	106.988	0.182	-0.220
-678.208	800.000	-0.027	0.079
-677.193	-103.175	-0.324	0.078
-676.178	353.475	-0.093	-0.187
-675.164	-53.393	-0.065	0.030
-674.149	-78.941	0.128	0.044
-673.135	-48.060	-0.182	0.089
-672.120	-71.144	0.091	0.035
-671.105	204.884	-0.050	-0.079
-670.091	-119.838	-0.085	-0.015
-669.076	-200.000	-0.077	-0.525
-668.062	-200.000	0.020	-0.227
-667.047	87.756	-0.187	-0.211
-666.032	-31.503	-0.236	-0.135
-665.018	247.675	0.164	-0.281
-664.003	-35.060	0.080	-0.044
-662.989	623.498	-0.087	0.224
-661.974	0.124	0.178	0.129
-660.959	-169.494	0.132	-0.005
-659.945	476.300	0.180	0.413
-658.930	800.000	0.058	0.200
-657.916	645.547	-0.198	-0.515
-656.901	-102.082	-0.390	-0.095
-655.886	583.255	-0.074	-0.185
-654.872	800.000	-0.094	-0.351
-653.857	177.954	0.143	-0.212
-652.843	-84.093	0.220	-0.071
-651.828	-139.188	-0.333	-0.036
-650.814	-200.000	-0.024	-0.242
-649.799	-126.498	-0.297	0.045
-648.784	-200.000	0.024	-0.113
-647.770	-75.919	0.189	-0.068
-646.755	223.109	0.082	0.135
-645.741	-74.763	0.268	0.098
-644.726	-135.259	0.484	-0.059
-643.711	-122.596	0.221	0.036
-642.697	-70.935	-0.196	-0.075
-641.682	277.244	0.148	-0.266
-640.668	130.498	0.167	0.217
-639.653	-189.421	-0.299	-0.004
-638.638	800.000	-0.151	-0.577
-637.624	-136.963	-0.083	-0.010
-636.609	-128.992	0.189	0.027
-635.595	586.460	-0.044	0.111
-634.580	-104.325	-0.126	-0.030
-633.565	-200.000	0.011	-0.115
-632.551	-200.000	-0.069	-0.362
-631.536	-200.000	-0.001	0.108
-630.522	-102.825	-0.079	0.019
-629.507	396.575	0.014	0.030
-628.492	-179.413	0.067	-0.001
-627.478	32.484	-0.330	0.289
-626.463	-76.787	0.089	0.032
-625.449	105.446	0.034	-0.041
-624.434	800.000	-0.061	0.255
-623.419	71.944	-0.230	-0.242
-622.405	-107.082	0.114	-0.026
-621.390	-87.481	-0.217	-0.067
-620.376	-200.000	-0.015	-0.191
-619.361	-140.888	0.128	0.013
-618.346	-200.000	-0.023	0.274
-617.332	604.467	-0.141	0.356
-616.317	800.000	0.064	0.222
-615.303	800.000	-0.094	-0.268
-614.288	-37.617	0.202	0.109
-613.273	-135.989	-0.322	0.038
-612.259	-92.083	-0.109	-0.031
-611.244	800.000	0.064	-0.184
-610.230	800.000	0.044	0.185
-609.215	14.191	0.108	-0.086
-608.201	208.539	-0.185	-0.293
-607.186	339.280	-0.152	0.301
-606.171	84.766	-0.098	-0.109
-605.157	56.202	-0.055	0.054
-604.142	54.895	0.106	-0.104
-603.128	5.853	-0.132	0.099
-602.113	53.310	-0.188	-0.182
-601.098	-200.000	-0.063	0.366
-600.084	210.919	0.091	0.146
-599.069	2.143	0.140	0.103
-598.055	-144.160	-0.387	-0.037
-597.040	-133.452	-0.235	-0.030
-596.025	-168.937	0.492	-0.019
-595.011	800.000	-0.075	-0.327
-593.996	-16.018	-0.067	-0.043
-592.982	-20.590	0.257	-0.160
-591.967	1.902	-0.106	0.077
-590.952	51.722	0.051	-0.049
-589.938	587.457	0.091	-0.227
-588.923	67.034	-0.024	0.025
-587.909	-97.614	-0.126	0.033
-586.894	-93.685	-0.181	-0.051
-585.879	99.017	0.246	-0.287
-584.865	-50.730	-0.162	0.077
-583.850	-200.000	-0.008	0.356
-582.836	-20.460	-0.322	0.200
-581.821	-200.000	0.002	-0.320
-580.806	50.449	-0.119	-0.114
-579.792	-62.266	-0.293	-0.124
-578.777	-10.838	0.302	0.202
-577.763	-200.000	-0.032	-0.215
-576.748	119.016	-0.114	-0.143
-575.733	8.412	0.095	-0.072
-574.719	-27.015	-0.394	0.233
-573.704	-50.050	-0.321	-0.154
-572.690	246.919	-0.160	0.274
-571.675	800.000	-0.069	-0.231
-570.661	631.290	-0.042	0.106
-569.646	-200.000	-0.050	-0.414
-568.631	-200.000	-0.006	-0.196
-567.617	17.443	-0.155	-0.124
-566.602	-60.184	0.151	0.065
-565.588	-200.000	-0.036	0.259
-564.573	-200.000	0.023	-0.201
-563.558	-92.338	0.390	0.111
-562.544	-84.961	-0.176	-0.056
-561.529	-83.465	-0.364	0.118
-560.515	-200.000	-0.036	0.269
-559.500	-141.932	0.191	-0.019
-558.485	-7.841	0.157	0.107
-557.471	628.904	0.079	-0.203
-556.456	-200.000	-0.084	-0.401
-555.442	18.759	0.195	-0.158
-554.427	-200.000	-0.002	0.253
-553.412	800.000	0.089	-0.248
-552.398	-200.000	-0.054	0.280
-551.383	-200.000	-0.039	-0.307
-550.369	-23.882	0.182	-0.110
-549.354	-128.998	-0.236	0.034
-548.339	203.328	-0.193	-0.302
-547.325	-5.673	-0.207	0.143
-546.310	43.668	0.358	-0.332
-545.296	-23.653	-0.317	0.192
-544.281	41.282	-0.088	0.081
-543.266	-98.605	0.177	-0.046
-542.252	404.887	-0.168	-0.358
-541.237	-1.558	0.140	0.100
-540.223	-15.287	-0.171	0.111
-539.208	-200.000	-0.002	0.032
-538.193	800.000	-0.030	0.098
-537.179	-23.816	0.206	0.125
-536.164	-90.063	-0.269	-0.079
-535.150	-111.987	0.125	-0.026
-534.135	101.158	0.054	-0.064
-533.121	-78.799	0.262	-0.091
-532.106	-200.000	0.001	0.357
-531.091	0.944	-0.081	0.059
-530.077	-34.364	0.310	-0.172
-529.062	800.000	0.090	0.275
-528.048	800.000	0.075	-0.279
-527.033	-56.002	-0.034	-0.015
-526.018	-85.938	0.176	0.055
-525.004	9.234	0.110	-0.084
-523.989	-176.304	-0.147	0.004
-522.975	-200.000	-0.040	0.237
-521.960	4.220	-0.210	0.156
-520.945	114.272	0.017	-0.021
-519.931	290.569	0.149	-0.274
-518.916	7.507	0.135	-0.102
-517.902	319.138	0.054	-0.104
-516.887	239.220	0.141	0.237
-515.872	-101.320	-0.233	0.058
-514.858	65.447	-0.197	0.202
-513.843	33.596	0.204	-0.179
-512.829	-90.982	0.019	0.005
-511.814	354.044	-0.101	0.202
-510.799	-138.913	-0.238	0.026
-509.785	-134.760	-0.166	-0.020
-508.770	540.999	-0.023	0.055
-507.756	201.529	-0.106	0.165
-506.741	195.241	0.202	0.310
-505.726	61.083	0.199	0.199
-504.712	800.000	-0.106	0.365
-503.697	172.816	-0.088	0.128
-502.683	55.765	-0.062	-0.061
-501.668	-82.220	0.207	0.068
-500.653	800.000	0.128	-0.404
-499.639	195.480	0.111	-0.170
-498.624	17.691	-0.202	0.162
-497.610	800.000	-0.035	0.117
-496.595	-34.035	-0.077	-0.043
-495.581	125.089	0.087	0.111
-494.566	223.379	0.136	0.221
-493.551	800.000	0.057	-0.188
-492.537	-4.261	0.250	-0.174
-491.522	-31.599	0.242	0.137
-490.508	144.804	-0.189	0.254
-489.493	339.998	0.065	-0.129
-488.478	204.869	0.036	0.057
-487.464	-17.403	-0.198	0.126
-486.449	-47.153	0.296	0.146
-485.435	-200.000	0.093	0.440
-484.420	224.679	-0.160	0.261
-483.405	800.000	0.038	0.129
-482.391	125.752	-0.313	-0.400
-481.376	11.855	-0.429	0.333
-480.362	26.623	-0.199	0.168
-479.347	-53.116	-0.176	0.082
-478.332	344.764	0.192	-0.380
-477.318	-200.000	-0.003	0.101
-476.303	-193.591	0.153	0.001
-475.289	212.903	-0.155	0.246
-474.274	132.167	-0.074	0.097
-473.259	800.000	-0.039	-0.147
-472.245	-151.303	-0.140	0.011
-471.230	-182.922	0.264	0.005
-470.216	95.351	0.187	0.215
-469.201	-110.288	0.045	0.010
-468.186	-47.081	-0.577	0.284
-467.172	485.525	-0.058	-0.132
-466.157	-200.000	-0.234	-0.000
-465.143	800.000	-0.049	-0.151
-464.128	-20.670	-0.135	0.084
-463.113	-11.242	0.130	-0.086
-462.099	129.119	-0.151	-0.194
-461.084	800.000	0.041	0.166
-460.070	3.070	0.182	-0.134
-459.055	-200.000	0.039	-0.182
-458.040	192.620	-0.030	0.046
-457.026	800.000	0.089	-0.359
-456.011	-95.547	-0.331	-0.089
-454.997	-135.075	0.081	0.010
-453.982	547.658	0.172	-0.415
-452.968	391.110	-0.097	-0.203
-451.953	279.996	-0.049	0.088
-450.938	-83.311	-0.324	0.105
-449.924	800.000	0.104	0.305
-448.909	186.832	-0.096	0.145
-447.895	60.798	0.257	0.257
-446.880	-200.000	0.006	-0.274
-445.865	-167.827	0.183	0.007
-444.851	-11.299	0.121	0.080
-443.836	800.000	-0.058	0.203
-442.822	-157.540	-0.268	-0.016
-441.807	-69.838	0.096	-0.037
-440.792	-1.518	0.375	0.266
-439.778	-110.130	0.173	-0.036
-438.763	104.017	0.253	-0.300
-437.749	800.000	-0.083	-0.357
-436.734	355.889	-0.149	0.299
-435.719	26.369	-0.242	-0.204
-434.705	-200.000	0.019	-0.381
-433.690	-85.742	0.250	0.078
-432.676	-26.916	-0.029	-0.017
-431.661	-200.000	0.030	0.204
-430.646	293.741	-0.071	-0.131
-429.632	118.161	-0.120	-0.150
-428.617	-200.000	-0.006	-0.046
-427.603	800.000	-0.096	-0.314
-426.588	589.637	-0.032	0.078
-425.573	-200.000	0.049	0.265
-424.559	269.786	0.166	-0.294
-423.544	-101.906	-0.073	0.018
-422.530	-200.000	0.012	0.146
-421.515	181.129	-0.076	0.113
-420.500	-200.000	-0.038	0.230
-419.486	53.959	0.111	0.107
-418.471	783.273	-0.052	-0.142
-417.457	282.393	-0.117	0.211
-416.442	-200.000	-0.003	-0.031
-415.428	-92.529	0.224	-0.063
-414.413	26.237	0.339	-0.285
-413.398	-86.079	0.117	0.036
-412.384	9.609	0.244	0.186
-411.369	-200.000	-0.049	-0.234
-410.355	-200.000	0.041	-0.273
-409.340	271.110	-0.157	0.279
-408.325	-187.299	0.086	-0.001
-407.311	-180.088	0.292	0.006
-406.296	329.393	-0.040	-0.077
-405.282	-200.000	-0.006	0.203
-404.267	-18.779	0.148	-0.093
-403.252	800.000	-0.050	0.158
-402.238	0.679	-0.193	-0.139
-401.223	482.637	-0.066	-0.151
-400.209	-200.000	-0.010	-0.128
-399.194	205.884	0.211	-0.330
-398.179	-200.000	-0.012	0.098
-397.165	34.062	-0.032	-0.028
-396.150	-28.873	0.118	0.068
-395.136	-200.000	0.013	0.140
-394.121	800.000	0.040	0.143
-393.106	-200.000	-0.043	0.218
-392.092	-95.857	-0.097	0.026
-391.077	330.111	0.132	-0.255
-390.063	56.021	0.204	-0.200
-389.048	-7.463	-0.235	-0.160
-388.033	-33.031	-0.068	-0.038
-387.019	-200.000	-0.078	-0.360
-386.004	53.548	0.160	0.154
-384.990	800.000	0.040	0.148
-383.975	104.496	0.077	0.092
-382.960	61.484	0.024	-0.024
-381.946	-200.000	0.004	-0.313
-380.931	-62.720	-0.407	-0.170
-379.917	-22.440	-0.241	-0.146
-378.902	513.675	-0.101	-0.238
-377.888	15.868	-0.200	0.158
-376.873	391.620	-0.019	-0.040
-375.858	18.396	-0.195	-0.156
-374.844	-96.907	-0.145	-0.038
-373.829	800.000	0.024	0.104
-372.815	-200.000	-0.004	-0.096
-371.800	278.780	0.065	-0.116
-370.785	-27.875	0.141	0.082
-369.771	18.873	-0.064	0.052
-368.756	78.034	-0.042	-0.045
-367.742	596.228	-0.101	-0.251
-366.727	-200.000	0.079	0.408
-365.712	123.392	0.146	0.184
-364.698	692.318	0.085	0.223
-363.683	-200.000	0.004	0.102
-362.669	-49.261	0.309	0.148
-361.654	-70.727	0.122	0.046
-360.639	800.000	-0.031	-0.115
-359.625	-200.000	0.013	-0.184
-358.610	800.000	0.120	0.373
-357.596	-90.547	0.125	-0.036
-356.581	-200.000	-0.026	-0.229
-355.566	362.882	0.076	0.154
-354.552	-127.715	0.108	-0.016
-353.537	-41.130	0.213	-0.110
-352.523	556.808	-0.109	0.263
-351.508	-200.000	-0.011	0.097
-350.493	293.080	-0.054	0.100
-349.479	-54.354	0.229	-0.104
-348.464	-200.000	-0.000	0.017
-347.450	800.000	-0.025	0.079
-346.435	-45.611	-0.157	-0.078
-345.420	191.418	-0.114	-0.172
-344.406	91.335	-0.130	-0.146
-343.391	592.060	-0.051	-0.126
-342.377	114.480	0.051	0.063
-341.362	-98.122	0.169	-0.044
-340.348	800.000	0.029	-0.115
-339.333	32.837	0.095	0.083
-338.318	282.621	0.193	0.347
-337.304	-200.000	0.003	0.033
-336.289	150.690	-0.228	0.311
-335.275	-35.493	-0.032	0.018
-334.260	420.597	-0.079	-0.171
-333.245	-58.839	0.046	0.020
-332.231	100.168	0.154	-0.179
-331.216	80.274	-0.293	0.316
-330.202	-200.000	0.012	0.412
-329.187	-106.322	-0.034	-0.008
-328.172	46.151	0.034	-0.031
-327.158	102.174	-0.176	-0.206
-326.143	-110.583	0.168	-0.035
-325.129	-46.500	-0.147	0.072
-324.114	57.441	-0.218	0.213
-323.099	-200.000	0.014	-0.155
-322.085	800.000	-0.027	0.109
-321.070	800.000	0.108	0.349
-320.056	107.642	0.101	-0.121
-319.041	-184.974	-0.264	0.004
-318.026	-34.228	0.079	-0.044
-317.012	-103.273	-0.182	-0.043
-315.997	-153.454	0.199	-0.014
-314.983	58.194	-0.109	-0.107
-313.968	-152.699	-0.198	-0.014
-312.953	87.941	0.125	0.139
-311.939	-200.000	0.021	0.264
-310.924	-120.320	0.161	-0.027
-309.910	-107.341	0.397	0.088
-308.895	310.067	-0.163	0.305
-307.880	-139.928	-0.209	0.022
-306.866	259.951	-0.067	0.116
-305.851	330.967	-0.084	-0.162
-304.837	414.015	0.192	-0.410
-303.822	244.264	-0.177	0.298
-302.807	800.000	0.122	0.395
-301.793	-200.000	0.001	-0.156
-300.778	128.071	-0.231	-0.295
-299.764	-77.642	0.232	0.080
-298.749	-188.350	0.189	0.002
-297.735	446.836	-0.068	-0.150
-296.720	-82.610	-0.148	-0.048
-295.705	-200.000	0.014	0.424
-294.691	219.422	0.115	-0.184
-293.676	-129.583	0.167	0.023
-292.662	574.309	0.039	0.094
-291.647	-33.724	-0.200	-0.110
-290.632	-27.792	0.282	0.164
-289.618	-200.000	0.030	0.186
-288.603	31.611	-0.185	-0.159
-287.589	655.735	-0.041	-0.105
-286.574	-73.180	-0.266	0.097
-285.559	321.220	-0.100	-0.191
-284.545	-200.000	0.018	0.383
-283.530	-200.000	0.008	0.148
-282.516	-30.416	-0.133	0.076
-281.501	33.243	0.044	-0.038
-280.486	427.133	0.144	-0.311
-279.472	800.000	0.045	0.126
-278.457	440.874	-0.105	-0.231
-277.443	122.353	0.122	0.153
-276.428	-94.084	0.164	-0.045
-275.413	22.734	0.326	0.267
-274.399	-11.480	0.073	0.048
-273.384	-144.234	0.216	0.020
-272.370	800.000	0.086	0.282
-271.355	-4.935	-0.082	0.057
-270.340	-77.765	0.059	0.020
-269.326	-200.000	-0.016	-0.234
-268.311	35.286	0.043	0.037
-267.297	-121.892	0.176	-0.029
-266.282	317.731	0.072	0.135
-265.267	11.831	0.191	-0.147
-264.253	4.020	-0.171	0.125
-263.238	687.930	-0.132	-0.345
-262.224	-200.000	-0.012	0.115
-261.209	-200.000	-0.015	-0.212
-260.195	158.208	0.125	-0.173
-259.180	-200.000	0.050	-0.226
-258.165	593.402	0.124	0.306
-257.151	-23.439	-0.171	0.103
-256.136	125.954	0.073	0.093
-255.122	154.377	0.156	-0.214
-254.107	-134.766	-0.167	0.020
-253.092	80.355	0.025	0.027
-252.078	272.732	-0.060	0.106
-251.063	270.094	0.132	0.232
-250.049	800.000	0.058	-0.169
-249.034	-14.481	-0.142	-0.091
-248.019	-16.747	0.090	-0.057
-247.005	277.128	-0.074	0.132
-245.990	800.000	-0.020	-0.063
-244.976	800.000	0.061	0.171
-243.961	66.808	0.222	-0.226
-242.946	-4.328	-0.052	-0.036
-241.932	-200.000	0.001	-0.047
-240.917	-123.361	-0.260	0.042
-239.903	-36.800	0.180	0.097
-238.888	800.000	-0.074	-0.266
-237.873	-200.000	-0.023	-0.109
-236.859	800.000	-0.079	-0.299
-235.844	-153.948	-0.296	0.020
-234.830	-200.000	-0.011	-0.056
-233.815	-200.000	0.067	-0.418
-232.800	-200.000	0.046	0.333
-231.786	-43.052	-0.288	-0.146
-230.771	227.531	0.181	-0.293
-229.757	295.143	0.184	-0.336
-228.742	-200.000	0.025	0.162
-227.727	-135.698	0.268	-0.032
-226.713	75.541	-0.330	0.348
-225.698	201.700	-0.070	-0.108
-224.684	-49.731	0.278	-0.132
-223.669	-31.669	0.167	-0.093
-222.655	-200.000	-0.001	0.303
-221.640	-135.209	0.018	-0.002
-220.625	176.354	-0.112	-0.162
-219.611	288.943	-0.049	0.088
-218.596	710.811	0.136	-0.358
-217.582	-45.322	-0.078	0.039
-216.567	800.000	-0.121	0.335
-215.552	456.764	0.157	-0.347
-214.538	207.205	0.180	-0.281
-213.523	56.046	-0.167	0.162
-212.509	144.225	0.079	-0.105
-211.494	-36.411	-0.058	0.031
-210.479	-170.220	-0.269	0.009
-209.465	51.387	-0.103	-0.097
-208.450	-21.491	0.222	0.135
-207.436	-155.679	0.183	0.012
-206.421	-70.804	-0.366	0.138
-205.406	113.915	-0.252	0.306
-204.392	-41.707	-0.183	0.094
-203.377	-200.000	-0.005	0.358
-202.363	36.509	-0.083	-0.073
-201.348	-79.416	0.188	-0.064
-200.333	315.807	0.022	0.041
-199.319	83.575	-0.140	-0.152
-198.304	78.842	-0.153	0.163
-197.290	-19.403	-0.170	0.105
-196.275	75.918	-0.188	-0.199
-195.260	-127.377	0.226	0.033
-194.246	-90.794	0.196	-0.056
-193.231	315.051	0.106	0.200
-192.217	800.000	0.049	-0.136
-191.202	637.871	-0.112	-0.285
-190.187	-127.644	-0.064	-0.009
-189.173	300.507	-0.019	0.035
-188.158	59.608	-0.156	-0.153
-187.144	-107.272	0.421	0.092
-186.129	1.530	0.228	0.163
-185.114	-200.000	-0.063	0.289
-184.100	115.734	-0.027	0.033
-183.085	-147.984	0.331	-0.027
-182.071	-69.187	-0.122	-0.047
-181.056	800.000	-0.078	-0.332
-180.042	83.692	0.201	0.218
-179.027	51.450	-0.245	-0.232
-178.012	-70.805	0.329	0.124
-176.998	-128.228	0.083	-0.012
-175.983	82.281	0.187	-0.202
-174.969	-49.270	0.137	0.065
-173.954	800.000	-0.079	-0.235
-172.939	-116.917	-0.132	-0.024
-171.925	132.236	0.096	0.123
-170.910	249.339	0.232	0.392
-169.896	143.881	-0.027	-0.036
-168.881	-200.000	0.009	0.468
-167.866	500.321	-0.100	-0.229
-166.852	200.659	0.113	0.172
-165.837	-200.000	0.031	0.146
-164.823	363.505	0.110	-0.220
-163.808	-161.417	0.104	-0.005
-162.793	292.364	0.069	0.125
-161.779	-129.888	-0.341	-0.047
-160.764	-33.563	0.174	0.096
-159.750	-200.000	-0.016	-0.375
-158.735	-143.607	-0.106	-0.010
-157.720	-90.547	-0.110	0.032
-156.706	4.439	0.413	-0.302
-155.691	310.655	-0.095	-0.177
-154.677	-200.000	0.001	-0.070
-153.662	-99.759	0.276	0.069
-152.647	-79.402	-0.127	0.043
-151.633	22.663	-0.156	0.127
-150.618	-200.000	-0.011	0.202
-149.604	-200.000	-0.038	0.268
-148.589	189.895	-0.221	0.330
-147.574	-96.814	0.347	0.091
-146.560	-200.000	0.011	-0.065
-145.545	223.771	0.130	0.209
-144.531	-155.852	0.154	0.010
-143.516	-10.950	-0.125	0.082
-142.502	30.475	-0.197	0.168
-141.487	-6.041	-0.126	0.086
-140.472	-70.461	-0.262	-0.099
-139.458	-95.372	0.068	-0.018
-138.443	196.895	0.218	-0.330
-137.429	130.703	-0.268	-0.342
-136.414	17.368	-0.149	0.118
-135.399	712.311	0.062	-0.163
-134.385	800.000	0.050	-0.197
-133.370	-53.284	0.128	-0.058
-132.356	677.151	-0.186	0.481
-131.341	-200.000	-0.020	0.258
-130.326	-200.000	-0.022	-0.258
-129.312	-94.666	0.214	0.058
-128.297	-44.846	-0.108	0.054
-127.283	800.000	-0.029	0.082
-126.268	70.143	-0.173	-0.178
-125.253	-25.432	0.253	-0.149
-124.239	800.000	-0.108	-0.388
-123.224	0.044	0.235	-0.166
-122.210	109.669	-0.229	-0.273
-121.195	156.698	-0.172	-0.236
-120.180	189.859	0.089	0.133
-119.166	381.482	-0.084	0.171
-118.151	-16.461	0.173	-0.109
-117.137	116.815	0.220	0.269
-116.122	186.487	-0.095	-0.140
-115.107	-32.413	0.162	-0.090
-114.093	110.309	0.230	-0.275
-113.078	314.598	-0.080	0.149
-112.064	-200.000	0.045	0.437
-111.049	-143.960	-0.461	0.043
-110.034	-81.502	0.206	-0.067
-109.020	130.595	0.106	0.135
-108.005	-7.711	0.206	-0.138
-106.991	-200.000	0.077	0.355
-105.976	800.000	-0.075	0.262
-104.962	148.978	-0.108	0.145
-103.947	-82.798	-0.325	0.104
-102.932	-29.206	-0.411	-0.234
-101.918	17.591	-0.139	0.110
-100.903	-158.946	0.247	0.014
-99.889	17.320	-0.205	-0.162
-98.874	202.326	-0.186	-0.285
-97.859	-29.194	0.087	-0.049
-96.845	-113.109	-0.179	-0.035
-95.830	-9.067	-0.358	0.238
-94.816	73.336	0.155	0.161
-93.801	37.834	-0.137	-0.121
-92.786	-111.268	-0.462	-0.094
-91.772	-41.257	-0.068	0.035
-90.757	-176.344	0.098	-0.003
-89.743	-46.377	0.240	0.117
-88.728	-104.714	-0.010	-0.002
-87.713	-29.313	-0.253	0.144
-86.699	111.417	0.163	-0.196
-85.684	261.456	-0.098	-0.168
-84.670	417.621	0.104	-0.220
-83.655	91.906	-0.048	0.054
-82.640	13.288	0.047	0.036
-81.626	395.904	0.033	0.069
-80.611	-200.000	-0.004	-0.102
-79.597	118.449	0.175	0.215
-78.582	23.111	0.027	0.022
-77.567	-200.000	0.021	-0.360
-76.553	46.242	0.267	-0.245
-75.538	360.201	-0.082	-0.162
-74.524	-47.223	-0.151	-0.073
-73.509	412.712	0.140	0.295
-72.494	-139.353	-0.415	-0.044
-71.480	200.261	0.135	0.206
-70.465	0.257	0.074	-0.053
-69.451	-105.219	0.130	-0.029
-68.436	791.646	-0.023	-0.064
-67.422	-64.822	0.282	-0.113
-66.407	91.123	-0.078	0.087
-65.392	-43.096	0.159	0.080
-64.378	800.000	-0.035	-0.103
-63.363	-180.125	0.353	-0.007
-62.349	-93.643	-0.167	-0.046
-61.334	-13.068	-1.155	-0.745
-60.319	-16.706	0.268	0.168
-59.305	-200.000	-0.269	-1.299
-58.290	77.250	0.520	0.549
-57.276	506.758	0.523	1.205
-56.261	-200.000	88.395	503.294
-55.246	434.944	1428.240	3081.846
-54.232	141.333	2644.379	3473.156
-53.217	108.393	2266.491	2684.415
-52.203	46.139	1780.947	1636.821
-51.188	39.337	1583.465	1406.856
-50.173	36.984	1554.981	1364.947
-49.159	53.630	1600.983	1524.607
-48.144	57.113	1620.820	1568.352
-47.130	39.947	1578.752	1406.790
-46.115	36.672	1563.343	1369.859
-45.100	36.541	1559.375	1365.409
-44.086	36.606	1557.565	1364.226
-43.071	36.552	1555.556	1362.033
-42.057	36.414	1554.063	1359.701
-41.042	36.391	1552.248	1357.898
-40.027	36.469	1551.403	1357.649
-39.013	36.377	1549.759	1355.509
-37.998	36.492	1548.158	1354.866
-36.984	36.462	1547.057	1353.635
-35.969	36.481	1545.612	1352.454
-34.954	36.420	1544.025	1350.580
-33.940	36.444	1542.929	1349.735
-32.925	36.444	1541.166	1348.142
-31.911	36.496	1540.404	1347.783
-30.896	36.550	1538.707	1346.624
-29.881	36.582	1537.703	1345.910
-28.867	36.564	1536.194	1344.410
-27.852	36.467	1534.286	1342.015
-26.838	36.507	1532.756	1340.900
-25.823	36.513	1530.910	1339.277
-24.809	36.533	1529.706	1338.307
-23.794	36.495	1528.359	1336.811
-22.779	36.472	1527.089	1335.489
-21.765	36.537	1525.685	1334.656
-20.750	36.421	1525.002	1333.210
-19.736	36.517	1523.424	1332.437
-18.721	36.497	1522.584	1331.515
-17.706	36.415	1521.529	1329.973
-16.692	36.446	1520.437	1329.174
-15.677	36.481	1519.309	1328.383
-14.663	36.474	1517.977	1327.111
-13.648	36.370	1517.410	1325.851
-12.633	36.400	1516.089	1324.849
-11.619	36.370	1515.133	1323.753
-10.604	36.338	1514.117	1322.600
-9.590	36.335	1513.547	1322.024
-8.575	36.404	1512.781	1321.777
-7.560	36.430	1511.707	1320.964
-6.546	36.484	1510.932	1320.602
-5.531	36.430	1510.531	1319.831
-4.517	36.389	1509.082	1318.233
-3.502	36.402	1508.049	1317.366
-2.487	36.392	1506.539	1315.929
-1.473	36.376	1505.843	1315.156
-0.458	36.454	1504.064	1314.085
0.556	34.938	1495.291	1305.216
1.571	32.714	1469.449	1267.612
2.586	29.437	1406.840	1192.357
3.600	27.598	1321.252	1108.549
4.615	25.553	1273.415	1056.320
5.629	23.263	1217.588	997.039
6.644	17.965	1134.347	900.924
7.659	13.621	1093.686	846.416
8.673	12.804	1088.663	838.298
9.688	12.831	1085.040	835.572
10.702	12.598	1083.341	833.010
11.717	12.617	1081.903	831.925
12.731	14.742	1083.961	844.186
13.746	19.444	1090.176	872.792
14.761	20.624	1089.888	878.452
15.775	18.398	1086.140	864.135
16.790	17.042	1083.784	855.355
17.804	15.913	1081.002	847.403
18.819	15.068	1078.651	841.242
19.834	14.494	1077.699	837.542
20.848	14.145	1076.340	834.659
21.863	13.837	1075.716	832.557
22.877	13.571	1074.850	830.480
23.892	13.411	1074.147	829.064
24.907	13.304	1073.172	827.700
25.921	13.408	1072.518	827.647
26.936	13.366	1071.483	826.564
27.950	13.394	1070.754	826.068
28.965	13.474	1069.517	825.441
29.980	13.548	1068.234	824.742
30.994	13.643	1067.024	824.209
32.009	13.643	1066.159	823.469
33.023	13.635	1065.580	822.909
34.038	13.747	1064.493	822.551
35.053	13.511	1063.716	820.711
36.067	13.578	1062.792	820.257
37.082	13.546	1061.541	819.057
38.096	13.575	1061.170	818.842
39.111	13.591	1060.192	818.093
40.126	13.545	1059.515	817.272
41.140	13.448	1058.517	815.952
42.155	13.433	1057.207	814.797
43.169	13.408	1056.175	813.809
44.184	13.243	1055.362	812.297
45.199	13.333	1054.223	811.790
46.213	13.304	1053.222	810.806
47.228	13.317	1051.932	809.806
48.242	13.475	1050.421	809.343
49.257	13.528	1049.693	808.967
50.271	13.476	1048.780	807.942
51.286	13.488	1047.871	807.226
52.301	13.456	1047.417	806.651
53.315	13.461	1046.338	805.771
54.330	13.326	1045.831	804.656
55.344	13.378	1044.736	803.994
56.359	13.299	1043.753	802.782
57.374	13.418	1042.933	802.657
58.388	13.254	1042.231	801.249
59.403	13.309	1040.907	800.428
60.417	13.349	1040.271	800.064
61.432	13.385	1039.162	799.311
62.447	13.307	1038.750	798.546
63.461	13.189	1037.779	797.164
64.476	13.271	1037.216	797.056
65.490	13.268	1035.785	795.871
66.505	13.217	1034.823	794.816
67.520	13.233	1034.255	794.385
68.534	13.381	1033.417	794.381
69.549	13.211	1033.216	793.340
70.563	13.230	1032.078	792.487
71.578	13.225	1031.616	792.039
72.593	13.193	1030.575	791.015
73.607	13.144	1029.878	790.179
74.622	13.119	1028.637	789.037
75.636	13.145	1027.930	788.548
76.651	13.091	1027.034	787.534
77.666	13.231	1026.427	787.663
78.680	13.193	1025.490	786.694
79.695	13.138	1025.531	786.397
80.709	13.274	1024.138	785.903
81.724	13.306	1023.249	785.305
82.739	13.291	1022.456	784.556
83.753	13.339	1022.007	784.370
84.768	13.412	1020.923	783.815
85.782	13.505	1020.595	783.932
86.797	13.461	1019.898	783.118
87.812	13.514	1018.590	782.295
88.826	13.503	1017.471	781.317
89.841	13.426	1016.953	780.486
90.855	13.494	1015.981	779.992
91.870	13.549	1015.143	779.538
92.884	13.547	1014.798	779.193
93.899	13.504	1014.173	778.442
94.914	13.672	1012.812	778.118
95.928	13.640	1012.336	777.531
96.943	13.638	1011.669	776.944
97.957	13.479	1010.878	775.524
98.972	13.539	1009.880	774.968
99.987	13.615	1009.039	774.612
101.001	13.677	1008.361	774.311
102.016	13.574	1008.138	773.589
103.030	13.531	1006.484	772.050
104.045	13.488	1005.700	771.181
105.060	13.459	1004.908	770.370
106.074	13.564	1003.669	769.842
107.089	13.472	1002.703	768.606
108.103	13.316	1001.811	767.128
109.118	13.318	1001.215	766.615
110.133	13.276	1000.231	765.598
111.147	13.268	999.604	765.014
112.162	13.326	997.854	763.876
113.176	13.355	997.662	763.795
114.191	13.417	996.433	763.074
115.206	13.347	995.843	762.229
116.220	13.393	994.983	761.715
117.235	13.398	993.760	760.736
118.249	13.416	993.432	760.502
119.264	13.375	992.331	759.402
120.279	13.331	991.189	758.258
121.293	13.251	990.546	757.335
122.308	13.362	990.115	757.445
123.322	13.207	989.220	755.984
124.337	13.291	987.622	755.082
125.352	13.255	986.519	754.003
126.366	13.143	986.013	753.040
127.381	13.280	984.491	752.436
128.395	13.311	983.124	751.463
129.410	13.300	982.341	750.749
130.424	13.311	981.619	750.181
131.439	13.355	980.301	749.307
132.454	13.361	979.941	748.993
133.468	13.395	979.125	748.459
134.483	13.361	978.658	747.883
135.497	13.447	977.509	747.326
136.512	13.424	977.264	746.967
137.527	13.478	976.397	746.484
138.541	13.384	975.675	745.443
139.556	13.401	974.604	744.633
140.570	13.365	974.298	744.173
141.585	13.483	973.427	743.970
142.600	13.514	972.773	743.544
143.614	13.605	971.524	742.933
144.629	13.504	970.823	741.876
145.643	13.613	970.089	741.738
146.658	13.644	969.442	741.319
147.673	13.568	968.282	740.024
148.687	13.528	967.278	739.013
149.702	13.567	966.566	738.580
150.716	13.355	965.840	737.012
151.731	13.402	964.843	736.397
152.746	13.279	964.589	735.593
153.760	13.379	963.449	735.099
154.775	13.410	962.899	734.755
155.789	13.370	962.206	733.983
156.804	13.410	961.382	733.467
157.819	13.454	960.137	732.646
158.833	13.575	959.786	732.851
159.848	13.601	959.046	732.333
160.862	13.758	958.081	732.225
161.877	13.748	957.328	731.541
162.892	13.592	956.739	730.341
163.906	13.436	955.952	728.984
164.921	13.465	955.324	728.573
165.935	13.453	953.818	727.307
166.950	13.640	952.890	727.352
167.964	13.574	951.923	726.261
168.979	13.590	951.163	725.686
169.994	13.563	950.288	724.838
171.008	13.585	949.375	724.172
172.023	13.761	948.428	724.156
173.037	13.718	947.930	723.524
174.052	13.739	947.060	722.888
175.067	13.764	946.231	722.298
176.081	13.637	945.509	721.132
177.096	13.476	944.806	719.831
178.110	13.564	943.841	719.416
179.125	13.767	943.071	719.644
180.140	13.676	942.442	718.708
181.154	13.715	941.550	718.133
182.169	13.735	940.844	717.619
183.183	13.740	940.510	717.319
184.198	13.770	939.607	716.696
185.213	13.829	938.606	716.125
186.227	13.625	938.636	715.204
187.242	13.911	937.970	715.864
188.256	13.990	937.156	715.524
189.271	13.965	936.481	714.836
190.286	13.902	935.807	713.986
191.300	13.793	934.562	712.508
192.315	13.758	934.065	711.914
193.329	13.613	933.606	710.880
194.344	13.695	932.268	710.147
195.359	13.789	931.678	710.040
196.373	13.832	931.352	709.911
197.388	13.878	930.897	709.698
198.402	13.832	930.930	709.464
199.417	13.907	930.191	709.160
200.432	13.968	929.754	709.024
201.446	14.038	929.264	708.886
202.461	14.096	928.795	708.711
203.475	14.139	928.153	708.344
204.490	14.106	927.537	707.670
205.504	14.143	926.648	707.087
206.519	14.108	925.710	706.157
207.534	13.984	925.327	705.278
208.548	14.068	924.365	704.837
209.563	13.959	924.053	704.078
210.577	14.151	922.944	703.981
211.592	14.136	922.276	703.348
212.607	14.140	922.050	703.130
213.621	14.303	921.118	703.043
214.636	14.277	920.328	702.269
215.650	14.299	919.878	701.957
216.665	14.180	919.219	700.891
217.680	14.299	918.690	700.926
218.694	14.249	918.431	700.455
219.709	14.265	917.930	700.077
220.723	14.390	917.027	699.855
221.738	14.419	916.169	699.258
222.753	14.348	915.505	698.389
223.767	14.313	914.818	697.658
224.782	14.435	913.803	697.333
225.796	14.388	913.343	696.725
226.811	14.477	912.787	696.613
227.826	14.489	911.721	695.784
228.840	14.473	911.340	695.365
229.855	14.409	910.415	694.334
230.869	14.371	909.969	693.775
231.884	14.297	909.568	693.096
232.899	14.330	908.465	692.331
233.913	14.354	908.015	692.030
234.928	14.343	907.154	691.267
235.942	14.489	906.220	691.097
236.957	14.414	905.443	690.132
237.972	14.374	904.941	689.523
238.986	14.383	904.279	688.996
240.001	14.457	903.688	688.793
241.015	14.456	902.938	688.154
242.030	14.564	902.089	687.890
243.045	14.247	902.121	686.546
244.059	14.387	901.525	686.610
245.074	14.483	900.523	686.182
246.088	14.547	900.063	686.035
247.103	14.685	899.144	685.837
248.117	14.607	898.840	685.226
249.132	14.586	898.195	684.587
250.147	14.855	897.253	684.912
251.161	14.908	896.709	684.651
252.176	14.855	896.358	684.107
253.190	14.892	895.623	683.636
254.205	14.803	895.243	682.924
255.220	14.928	894.461	682.776
256.234	14.996	893.817	682.502
257.249	15.015	893.151	682.009
258.263	14.990	892.882	681.641
259.278	14.998	891.725	680.733
260.293	14.979	891.321	680.286
261.307	15.026	890.736	679.969
262.322	15.153	890.195	680.014
263.336	15.074	889.472	679.081
264.351	15.100	889.086	678.830
265.366	15.131	888.370	678.349
266.380	15.234	887.758	678.240
267.395	15.236	886.671	677.358
268.409	15.135	886.208	676.535
269.424	14.987	885.850	675.603
270.439	15.018	885.038	675.051
271.453	15.218	884.191	675.150
272.468	15.124	883.257	674.000
273.482	15.008	882.883	673.188
274.497	15.100	882.129	672.921
275.512	15.099	881.449	672.341
276.526	15.082	880.684	671.627
277.541	15.118	880.097	671.265
278.555	15.199	879.457	671.041
279.570	15.197	878.894	670.545
280.585	15.214	878.352	670.142
281.599	15.317	877.745	670.029
282.614	15.325	877.278	669.648
283.628	15.233	876.995	669.006
284.643	15.277	876.441	668.696
285.657	15.285	875.537	667.979
286.672	15.226	875.050	667.315
287.687	15.370	874.545	667.443
288.701	15.380	874.033	667.032
289.716	15.414	873.137	666.427
290.730	15.349	872.813	665.861
291.745	15.393	872.089	665.424
292.760	15.370	871.493	664.819
293.774	15.524	870.600	664.689
294.789	15.573	869.946	664.324
295.803	15.667	869.382	664.207
296.818	15.548	869.268	663.590
297.833	15.398	868.470	662.331
298.847	15.363	867.962	661.747
299.862	15.418	867.421	661.492
300.876	15.555	866.348	661.156
301.891	15.613	865.173	660.430
302.906	15.723	864.998	660.669
303.920	15.684	864.454	660.040
304.935	15.586	864.235	659.433
305.949	15.688	863.419	659.151
306.964	15.800	862.430	658.775
307.979	15.733	862.211	658.287
308.993	15.851	861.348	658.033
310.008	15.679	860.985	657.023
311.022	15.794	860.424	656.986
312.037	15.748	860.148	656.539
313.052	15.861	859.308	656.279
314.066	15.778	858.401	655.205
315.081	15.811	858.115	655.058
316.095	15.729	857.761	654.412
317.110	15.660	856.977	653.485
318.125	15.838	856.341	653.636
319.139	15.691	855.799	652.591
320.154	15.609	855.546	652.025
321.168	15.549	855.118	651.406
322.183	15.720	854.483	651.531
323.197	15.802	853.933	651.368
324.212	15.750	853.275	650.608
325.227	15.858	852.361	650.270
326.241	15.842	852.034	649.901
327.256	15.801	851.397	649.202
328.270	15.792	850.984	648.793
329.285	15.888	850.158	648.477
330.300	15.988	849.699	648.453
331.314	15.973	848.991	647.798
332.329	15.977	848.263	647.200
333.343	15.788	848.109	646.299
334.358	15.886	847.917	646.473
335.373	15.901	847.169	645.904
336.387	16.129	846.328	646.080
337.402	15.993	845.896	645.171
338.416	16.013	845.383	644.798
339.431	16.151	844.611	644.681
340.446	16.252	843.934	644.491
341.460	16.214	843.358	643.852
342.475	16.261	843.076	643.756
343.489	16.320	842.487	643.476
344.504	16.279	842.023	642.908
345.519	16.204	841.610	642.249
346.533	16.333	841.149	642.333
347.548	16.337	840.510	641.801
348.562	16.332	839.929	641.283
349.577	16.346	839.388	640.867
350.592	16.097	838.998	639.568
351.606	16.245	838.462	639.665
352.621	16.248	838.028	639.286
353.635	16.278	837.427	638.885
354.650	16.293	836.956	638.528
355.665	16.294	836.611	638.212
356.679	16.263	836.449	637.916
357.694	16.314	835.547	637.362
358.708	16.348	834.843	636.896
359.723	16.416	834.404	636.763
360.738	16.468	833.755	636.404
361.752	16.360	833.487	635.739
362.767	16.469	833.153	635.839
363.781	16.412	832.787	635.288
364.796	16.505	832.344	635.244
365.810	16.575	832.036	635.216
366.825	16.543	831.596	634.702
367.840	16.574	831.069	634.359
368.854	16.632	830.375	633.993
369.869	16.719	829.672	633.726
370.883	16.550	829.133	632.626
371.898	16.744	828.464	632.785
372.913	16.625	828.158	632.050
373.927	16.688	827.824	631.972
374.942	16.622	827.319	631.284
375.956	16.751	826.365	630.982
376.971	16.655	825.958	630.257
377.986	16.817	824.983	630.060
379.000	16.767	824.600	629.527
380.015	16.909	824.063	629.587
381.029	16.712	823.876	628.660
382.044	16.805	823.081	628.340
383.059	16.842	822.481	627.963
384.073	16.966	821.930	627.946
385.088	16.881	821.303	627.097
386.102	16.882	821.024	626.833
387.117	16.753	820.344	625.784
388.132	16.812	819.692	625.447
389.146	16.819	819.532	625.296
390.161	16.883	818.935	625.023
391.175	16.913	818.700	624.895
392.190	16.933	818.497	624.762
393.205	16.834	817.907	623.892
394.219	16.931	817.470	623.857
395.234	16.897	816.813	623.176
396.248	16.771	816.434	622.371
397.263	16.813	816.108	622.220
398.278	16.775	815.709	621.723
399.292	16.659	815.108	620.784
400.307	16.783	814.704	620.875
401.321	17.141	813.846	621.479
402.336	16.882	813.792	620.433
403.350	16.829	813.305	619.813
404.365	16.982	813.005	620.090
405.380	17.006	812.263	619.554
406.394	17.149	811.715	619.606
407.409	17.163	811.627	619.533
408.423	17.248	811.140	619.416
409.438	17.345	810.360	619.120
410.453	17.324	809.971	618.692
411.467	17.313	810.001	618.617
412.482	17.199	809.287	617.605
413.496	17.345	808.628	617.576
414.511	17.358	808.278	617.304
415.526	17.244	808.282	616.838
416.540	17.183	807.905	616.274
417.555	17.396	807.159	616.420
418.569	17.352	806.940	616.041
419.584	17.386	806.342	615.653
420.599	17.423	805.651	615.203
421.613	99.773	1280.121	1425.145
422.628	85.632	1349.279	1425.267
