DTS Sentinel unit serial number:	SN413079Multiplexer serial number:	ORYXHardware model number:	OX4-SRSoftware version number:	ORYX F/W v4.00 Oryx Data Collector v3.7.2.0data status	okinstallation	princeton_trtdifferential loss correction	single-endedforward channel	channel 3reverse channel	N/Adate	2019/09/15time	02:12:35forward acquisition time	60.00reverse acquisition time	0.00gamma	496.2192k internal	0.2321k external	0.2321temperature offset calibration	0.9967default loss term (dB/km)	0.3790temperature slope calibration	1.0000multiplexer offset coefficient	1.0000multiplexer slope coefficient	1.0000fibre end	0.00T internal ref (°C)	31.67T ext. ref 1 (°C)	4.56T ext. ref 2 (°C)	26.24length (m)	temperature (°C)	Stokes	anti-Stokes-747.200	-35.952	-0.190	0.104
-746.185	-200.000	-0.001	-0.057
-745.171	-169.166	-0.355	-0.013
-744.156	-200.000	-0.048	0.435
-743.142	176.549	-0.098	-0.144
-742.127	167.297	0.139	0.199
-741.112	-161.791	0.282	-0.014
-740.098	785.984	0.078	0.217
-739.083	-200.000	0.037	0.551
-738.069	401.225	0.026	0.055
-737.054	69.382	0.228	-0.237
-736.039	-118.252	-0.350	0.063
-735.025	-57.053	0.146	0.065
-734.010	100.380	-0.099	-0.116
-732.996	-200.000	-0.067	0.384
-731.981	502.149	0.100	0.233
-730.966	68.889	-0.063	0.065
-729.952	110.599	-0.132	0.160
-728.937	18.101	-0.070	-0.057
-727.923	-58.079	-0.189	0.083
-726.908	-91.050	-0.182	-0.053
-725.894	-142.186	0.320	-0.032
-724.879	397.537	-0.043	-0.090
-723.864	800.000	0.053	-0.194
-722.850	39.962	0.102	0.092
-721.835	-200.000	0.000	-0.273
-720.821	-26.526	-0.149	-0.088
-719.806	-161.820	-0.077	-0.004
-718.791	-141.443	-0.168	0.017
-717.777	-41.512	0.107	-0.056
-716.762	-190.088	0.336	0.004
-715.748	-95.407	0.207	-0.056
-714.733	82.295	0.091	-0.100
-713.718	-45.885	-0.339	-0.169
-712.704	-86.007	0.169	-0.053
-711.689	-62.381	0.076	0.032
-710.675	-130.080	-0.254	-0.035
-709.660	-200.000	0.075	0.402
-708.645	-46.716	0.093	-0.046
-707.631	134.105	0.101	-0.133
-706.616	52.991	0.163	-0.158
-705.602	-200.000	-0.009	-0.267
-704.587	8.082	-0.346	-0.262
-703.572	1.618	-0.275	-0.200
-702.558	-132.946	0.124	0.016
-701.543	137.715	-0.041	0.054
-700.529	130.586	0.132	0.171
-699.514	27.223	0.190	0.161
-698.499	-153.074	-0.315	-0.022
-697.485	-182.146	0.163	-0.003
-696.470	-139.259	-0.125	-0.014
-695.456	-151.361	-0.380	0.029
-694.441	-124.367	0.028	0.004
-693.426	134.550	-0.226	-0.296
-692.412	-1.033	-0.180	-0.128
-691.397	-200.000	-0.015	0.102
-690.383	-47.520	0.106	0.052
-689.368	109.589	0.173	-0.209
-688.354	-17.018	0.244	0.155
-687.339	-105.800	0.211	0.048
-686.324	800.000	-0.063	0.212
-685.310	136.501	-0.074	-0.098
-684.295	7.421	-0.249	0.188
-683.281	-57.871	-0.229	-0.101
-682.266	25.811	0.202	0.170
-681.251	20.447	0.236	0.192
-680.237	-12.427	-0.200	0.132
-679.222	-66.433	-0.139	0.056
-678.208	361.810	-0.207	0.418
-677.193	-25.928	0.192	0.114
-676.178	87.301	-0.340	-0.379
-675.164	-16.537	-0.159	0.102
-674.149	73.746	0.069	0.073
-673.135	-12.590	-0.275	-0.181
-672.120	-15.246	0.116	0.075
-671.105	111.762	0.175	0.212
-670.091	175.747	-0.144	0.210
-669.076	-23.177	0.187	-0.114
-668.062	208.065	-0.206	-0.324
-667.047	-29.872	-0.114	0.065
-666.032	-53.315	0.120	0.055
-665.018	94.857	-0.048	-0.055
-664.003	-70.758	-0.156	-0.059
-662.989	-68.553	-0.196	-0.076
-661.974	5.797	-0.132	0.098
-660.959	430.972	0.005	-0.012
-659.945	115.234	0.156	0.191
-658.930	-200.000	0.001	0.068
-657.916	71.333	0.251	-0.262
-656.901	537.351	-0.026	-0.062
-655.886	800.000	-0.039	-0.124
-654.872	750.862	-0.083	-0.227
-653.857	-10.888	0.038	-0.025
-652.843	-13.121	0.178	-0.117
-651.828	64.654	0.078	-0.079
-650.814	19.405	0.277	0.224
-649.799	274.628	-0.045	-0.080
-648.784	-71.080	0.253	0.096
-647.770	-200.000	-0.002	-0.119
-646.755	800.000	-0.032	0.141
-645.741	-85.657	0.175	0.055
-644.726	800.000	-0.087	-0.274
-643.711	-77.921	0.249	-0.087
-642.697	-90.830	-0.112	0.032
-641.682	-200.000	0.033	-0.247
-640.668	-28.450	-0.182	-0.105
-639.653	260.792	0.194	-0.338
-638.638	90.164	0.184	-0.207
-637.624	0.160	0.126	-0.090
-636.609	-43.384	-0.086	-0.044
-635.595	11.404	-0.269	-0.207
-634.580	262.132	-0.080	-0.140
-633.565	-40.016	-0.109	0.057
-632.551	-200.000	-0.002	0.075
-631.536	311.013	0.042	-0.078
-630.522	36.701	-0.226	-0.201
-629.507	-127.887	0.154	0.022
-628.492	152.480	0.261	0.358
-627.478	87.046	-0.171	-0.191
-626.463	-74.354	-0.018	-0.006
-625.449	-84.089	0.411	0.131
-624.434	-200.000	-0.041	0.277
-623.419	-38.300	0.364	0.194
-622.405	-200.000	-0.003	0.110
-621.390	800.000	-0.030	0.111
-620.376	-46.502	0.229	0.113
-619.361	498.213	-0.012	-0.027
-618.346	-173.264	-0.217	-0.007
-617.332	-43.740	-0.070	0.036
-616.317	-28.047	-0.243	-0.141
-615.303	-82.858	0.194	-0.063
-614.288	58.553	0.026	0.026
-613.273	-153.353	0.156	-0.011
-612.259	298.894	-0.074	-0.136
-611.244	89.677	-0.070	0.079
-610.230	99.596	0.067	-0.078
-609.215	254.371	0.124	-0.214
-608.201	311.400	0.118	-0.222
-607.186	485.016	0.130	-0.298
-606.171	-111.843	0.287	0.058
-605.157	800.000	0.076	-0.222
-604.142	-88.029	0.313	-0.094
-603.128	68.928	-0.137	-0.141
-602.113	18.490	0.027	0.022
-601.098	100.079	0.155	0.180
-600.084	-102.773	0.203	-0.048
-599.069	-148.959	0.441	-0.036
-598.055	-29.930	-0.220	0.126
-597.040	800.000	0.038	0.159
-596.025	-102.458	-0.209	0.050
-595.011	-87.583	0.140	-0.042
-593.996	-200.000	-0.006	-0.273
-592.982	-74.619	-0.412	-0.149
-591.967	24.621	-0.209	0.174
-590.952	200.436	0.124	-0.191
-589.938	352.366	0.072	-0.144
-588.923	131.964	-0.160	-0.207
-587.909	-200.000	-0.003	0.018
-586.894	10.299	-0.187	-0.143
-585.879	233.299	0.039	-0.064
-584.865	-200.000	0.022	0.211
-583.850	62.330	-0.104	0.104
-582.836	9.921	0.087	0.066
-581.821	-12.555	0.127	-0.083
-580.806	748.261	-0.092	0.250
-579.792	800.000	0.044	-0.122
-578.777	88.169	-0.164	-0.182
-577.763	-33.401	-0.153	-0.085
-576.748	22.009	-0.102	-0.083
-575.733	389.924	-0.058	-0.121
-574.719	-2.820	-0.065	-0.046
-573.704	80.398	-0.211	0.228
-572.690	-200.000	-0.014	-0.198
-571.675	-1.496	-0.100	-0.071
-570.661	-200.000	-0.006	-0.531
-569.646	31.126	-0.176	0.152
-568.631	-40.491	0.055	-0.029
-567.617	499.834	-0.123	0.286
-566.602	-69.450	0.204	0.078
-565.588	-192.436	0.185	-0.002
-564.573	-51.303	-0.231	0.109
-563.558	-19.714	-0.158	-0.098
-562.544	-22.677	-0.188	0.114
-561.529	-123.770	-0.204	-0.032
-560.515	-200.000	-0.057	-0.323
-559.500	-68.817	-0.141	0.055
-558.485	-47.590	0.152	-0.074
-557.471	-200.000	0.014	0.137
-556.456	96.629	0.068	-0.078
-555.442	121.234	0.228	0.285
-554.427	-200.000	0.081	-0.379
-553.412	18.275	0.199	0.159
-552.398	-15.761	0.233	-0.149
-551.383	158.439	0.126	-0.175
-550.369	95.866	0.043	-0.049
-549.354	-191.698	0.310	-0.003
-548.339	2.680	-0.093	0.067
-547.325	424.528	-0.056	0.121
-546.310	62.425	0.116	-0.116
-545.296	91.244	-0.075	-0.084
-544.281	800.000	-0.054	-0.233
-543.266	-200.000	-0.009	0.199
-542.252	318.952	-0.044	0.085
-541.237	-200.000	-0.057	-0.450
-540.223	-47.371	-0.230	0.112
-539.208	185.304	0.127	0.189
-538.193	-200.000	-0.013	-0.265
-537.179	359.989	-0.170	-0.340
-536.164	165.112	0.197	0.279
-535.150	154.792	-0.128	0.176
-534.135	-200.000	0.010	0.100
-533.121	27.315	-0.258	-0.218
-532.106	52.891	-0.108	0.104
-531.091	213.298	-0.143	0.227
-530.077	416.867	-0.076	0.162
-529.062	-32.167	-0.153	-0.086
-528.048	-156.491	0.303	-0.019
-527.033	-200.000	-0.001	0.137
-526.018	-200.000	-0.009	-0.125
-525.004	-200.000	-0.024	0.148
-523.989	-65.689	0.077	-0.031
-522.975	11.070	0.175	0.134
-521.960	-78.405	-0.440	-0.151
-520.945	-18.421	0.296	0.185
-519.931	800.000	-0.048	-0.197
-518.916	-48.177	0.131	0.064
-517.902	19.129	-0.169	0.136
-516.887	-49.213	-0.559	-0.268
-515.872	800.000	-0.044	0.156
-514.858	107.109	-0.090	-0.107
-513.843	-200.000	0.005	-0.099
-512.829	-85.837	-0.293	-0.091
-511.814	649.065	0.069	-0.176
-510.799	32.996	-0.191	-0.166
-509.785	-1.772	-0.115	0.081
-508.770	2.810	-0.167	-0.121
-507.756	23.509	-0.140	0.115
-506.741	-58.589	0.104	0.045
-505.726	-199.847	0.428	-0.002
-504.712	-200.000	-0.032	0.197
-503.697	156.150	-0.106	0.146
-502.683	-94.482	-0.089	-0.024
-501.668	122.492	-0.040	0.050
-500.653	362.262	0.155	0.311
-499.639	678.197	-0.059	-0.154
-498.624	-135.609	-0.172	-0.020
-497.610	352.268	-0.144	0.285
-496.595	330.847	-0.066	0.127
-495.581	366.032	0.108	0.218
-494.566	765.053	-0.139	-0.377
-493.551	178.735	0.128	-0.187
-492.537	-200.000	-0.016	-0.229
-491.522	141.361	0.160	-0.212
-490.508	303.161	-0.068	0.127
-489.493	558.710	-0.115	0.278
-488.478	-67.059	-0.244	-0.096
-487.464	149.459	0.138	0.186
-486.449	-200.000	-0.016	-0.147
-485.435	162.145	-0.146	-0.205
-484.420	-124.790	-0.291	0.045
-483.405	-200.000	0.020	-0.099
-482.391	-200.000	0.002	0.218
-481.376	124.157	-0.431	0.541
-480.362	-200.000	-0.028	0.232
-479.347	800.000	0.034	-0.135
-478.332	36.963	-0.128	-0.114
-477.318	-200.000	-0.022	0.098
-476.303	-148.778	-0.244	0.020
-475.289	-151.086	0.076	-0.006
-474.274	-125.684	0.151	0.023
-473.259	34.532	-0.087	-0.076
-472.245	-55.733	-0.196	0.088
-471.230	800.000	0.148	0.422
-470.216	-185.347	0.055	-0.001
-469.201	374.980	0.119	-0.242
-468.186	-72.135	0.187	-0.069
-467.172	800.000	-0.049	-0.208
-466.157	-200.000	0.094	0.419
-465.143	124.108	0.063	0.079
-464.128	189.778	0.166	0.249
-463.113	800.000	0.035	-0.117
-462.099	83.235	-0.006	-0.006
-461.084	473.786	0.082	-0.184
-460.070	800.000	0.073	0.278
-459.055	18.573	0.098	-0.078
-458.040	152.169	-0.068	-0.093
-457.026	-200.000	-0.009	0.175
-456.011	30.142	-0.066	0.056
-454.997	129.310	-0.192	-0.246
-453.982	-200.000	-0.003	-0.328
-452.968	-155.103	-0.146	0.010
-451.953	-57.665	0.345	-0.151
-450.938	43.977	0.149	-0.136
-449.924	443.533	-0.081	-0.177
-448.909	800.000	0.054	-0.213
-447.895	-104.049	0.140	0.033
-446.880	-135.531	0.038	0.005
-445.865	800.000	-0.068	0.201
-444.851	-93.002	-0.164	-0.046
-443.836	50.244	-0.069	0.065
-442.822	86.910	-0.101	0.111
-441.807	49.834	-0.290	0.273
-440.792	800.000	0.037	0.155
-439.778	553.036	-0.139	0.333
-438.763	-97.329	-0.128	0.033
-437.749	-118.697	-0.289	-0.051
-436.734	-200.000	0.006	0.112
-435.719	-176.484	0.280	-0.007
-434.705	219.057	-0.096	-0.154
-433.690	1.784	-0.163	-0.117
-432.676	-90.104	-0.167	0.048
-431.661	-171.218	-0.184	-0.006
-430.646	-131.166	0.147	0.020
-429.632	670.521	-0.127	-0.329
-428.617	-111.130	-0.182	0.037
-427.603	29.264	0.234	0.198
-426.588	262.936	-0.114	0.197
-425.573	172.185	0.105	-0.151
-424.559	-200.000	-0.006	0.038
-423.544	24.858	0.256	0.212
-422.530	221.082	-0.175	0.280
-421.515	-139.778	0.196	-0.021
-420.500	-77.016	0.209	0.073
-419.486	16.604	0.164	0.129
-418.471	-52.395	-0.233	-0.107
-417.457	-12.348	0.267	0.174
-416.442	-76.691	0.145	0.051
-415.428	-60.218	-0.193	-0.082
-414.413	-179.219	0.271	-0.006
-413.398	-200.000	0.078	0.347
-412.384	-50.503	-0.168	-0.079
-411.369	-200.000	0.040	-0.231
-410.355	-142.955	0.420	-0.041
-409.340	-89.047	0.088	-0.026
-408.325	162.214	0.131	-0.183
-407.311	523.255	0.088	-0.205
-406.296	-165.204	-0.224	-0.010
-405.282	-101.977	-0.373	-0.090
-404.267	-200.000	0.022	0.178
-403.252	-179.427	-0.306	0.007
-402.238	-200.000	0.015	0.094
-401.223	-63.607	-0.146	0.060
-400.209	12.330	-0.057	-0.044
-399.194	-103.782	-0.275	-0.064
-398.179	-200.000	-0.090	0.443
-397.165	-200.000	0.012	0.226
-396.150	-144.743	0.385	-0.035
-395.136	508.085	0.098	-0.228
-394.121	-85.006	-0.214	-0.067
-393.106	-200.000	-0.038	-0.170
-392.092	-72.912	-0.251	-0.092
-391.077	-80.866	0.214	-0.071
-390.063	-200.000	-0.036	-0.178
-389.048	-129.042	0.137	-0.019
-388.033	-85.964	-0.379	-0.117
-387.019	375.932	0.207	0.422
-386.004	54.218	0.155	0.149
-384.990	291.787	0.082	-0.148
-383.975	-200.000	-0.031	-0.197
-382.960	-18.256	0.223	-0.139
-381.946	-54.051	-0.218	-0.099
-380.931	121.990	-0.157	0.195
-379.917	-200.000	0.049	0.389
-378.902	48.094	-0.101	-0.094
-377.888	95.117	-0.211	-0.239
-376.873	-58.933	0.183	-0.079
-375.858	-110.069	0.206	0.043
-374.844	756.449	-0.094	-0.253
-373.829	-107.001	0.058	-0.013
-372.815	-74.443	0.273	-0.098
-371.800	118.184	0.153	0.188
-370.785	-30.219	0.240	-0.136
-369.771	-200.000	0.037	-0.188
-368.756	199.885	-0.151	-0.232
-367.742	117.090	-0.123	-0.151
-366.727	-200.000	0.036	0.307
-365.712	75.853	-0.045	-0.047
-364.698	-54.558	-0.220	0.099
-363.683	264.063	0.199	0.345
-362.669	-123.281	-0.118	-0.019
-361.654	292.724	0.117	0.213
-360.639	71.981	-0.179	-0.186
-359.625	800.000	0.073	0.221
-358.610	800.000	0.094	0.263
-357.596	-177.497	-0.119	0.003
-356.581	-90.107	0.217	-0.063
-355.566	93.901	-0.379	-0.427
-354.552	76.080	0.169	0.178
-353.537	75.858	-0.255	0.269
-352.523	89.685	0.108	0.120
-351.508	-182.195	-0.179	0.003
-350.493	-177.459	-0.339	-0.008
-349.479	-200.000	0.054	0.307
-348.464	136.957	-0.052	0.068
-347.450	39.985	0.189	0.169
-346.435	-153.862	-0.195	0.013
-345.420	-16.273	0.137	-0.087
-344.406	503.310	0.067	0.155
-343.391	-130.280	0.138	-0.019
-342.377	-28.158	0.107	0.061
-341.362	105.473	0.205	0.241
-340.348	306.484	-0.175	0.324
-339.333	244.771	0.128	-0.214
-338.318	480.165	0.067	0.151
-337.304	-200.000	0.021	-0.176
-336.289	213.772	0.094	0.149
-335.275	-200.000	0.020	-0.338
-334.260	-200.000	-0.026	-0.238
-333.245	658.457	-0.103	0.263
-332.231	16.048	0.142	0.111
-331.216	-200.000	0.000	-0.199
-330.202	-28.051	0.287	-0.165
-329.187	-78.079	0.210	0.072
-328.172	-14.271	-0.144	-0.093
-327.158	-51.801	-0.372	0.172
-326.143	-200.000	0.002	0.055
-325.129	-188.312	0.042	-0.001
-324.114	-164.720	-0.226	0.010
-323.099	-32.272	0.212	0.118
-322.085	190.126	-0.134	0.201
-321.070	-135.423	-0.280	-0.033
-320.056	-18.365	0.306	-0.190
-319.041	-97.999	-0.164	-0.042
-318.026	-83.501	-0.186	-0.059
-317.012	-36.221	0.345	0.185
-315.997	-200.000	-0.019	0.262
-314.983	-46.827	-0.495	0.241
-313.968	800.000	0.068	0.219
-312.953	-5.990	0.122	0.083
-311.939	-88.055	0.350	-0.104
-310.924	-54.416	-0.131	0.059
-309.910	-48.587	-0.206	0.099
-308.895	-200.000	0.036	0.177
-307.880	521.629	0.178	0.415
-306.866	-189.642	-0.344	-0.004
-305.851	210.067	0.096	-0.149
-304.837	150.258	-0.086	-0.115
-303.822	268.806	0.104	0.181
-302.807	399.170	0.134	-0.279
-301.793	-1.013	-0.131	0.092
-300.778	-9.049	-0.101	-0.067
-299.764	-200.000	-0.053	0.235
-298.749	220.823	-0.149	0.237
-297.735	-200.000	-0.066	0.381
-296.720	-200.000	-0.056	-0.371
-295.705	138.391	0.075	-0.098
-294.691	-107.946	0.308	0.066
-293.676	800.000	-0.032	0.094
-292.662	586.951	0.039	-0.095
-291.647	33.862	-0.106	0.092
-290.632	-200.000	0.012	-0.162
-289.618	-200.000	0.019	-0.156
-288.603	-155.559	-0.096	0.006
-287.589	-112.048	0.325	0.065
-286.574	-107.179	-0.124	0.027
-285.559	-38.702	0.174	-0.091
-284.545	-179.166	0.224	0.005
-283.530	-132.865	-0.237	0.030
-282.516	-144.685	0.184	-0.017
-281.501	-127.724	-0.177	0.025
-280.486	-112.819	-0.230	-0.045
-279.472	-153.109	-0.235	0.016
-278.457	-187.687	-0.290	-0.004
-277.443	-97.124	0.096	0.025
-276.428	616.309	0.124	0.307
-275.413	-156.893	0.229	-0.014
-274.399	112.516	0.262	-0.314
-273.384	800.000	-0.068	0.209
-272.370	102.697	-0.051	0.060
-271.355	800.000	0.046	0.156
-270.340	434.532	0.096	0.207
-269.326	-158.179	0.036	0.002
-268.311	434.722	0.034	0.073
-267.297	-101.816	-0.323	-0.077
-266.282	-68.105	0.057	-0.022
-265.267	-200.000	-0.021	0.145
-264.253	-69.052	-0.214	0.082
-263.238	-87.694	0.298	-0.089
-262.224	7.005	-0.076	0.056
-261.209	-186.453	0.300	-0.004
-260.195	78.128	0.126	-0.133
-259.180	-163.636	0.374	-0.017
-258.165	152.797	0.014	0.019
-257.151	14.025	-0.253	-0.195
-256.136	324.388	-0.068	-0.129
-255.122	136.453	-0.077	-0.099
-254.107	305.256	0.165	0.303
-253.092	-95.636	0.061	-0.016
-252.078	-13.392	0.120	0.077
-251.063	273.198	0.156	0.274
-250.049	115.219	0.207	0.250
-249.034	-12.853	0.227	0.147
-248.019	-112.443	-0.231	-0.046
-247.005	16.920	0.267	-0.210
-245.990	-163.442	-0.172	0.008
-244.976	-200.000	0.086	-0.585
-243.961	0.988	0.313	-0.223
-242.946	-9.637	-0.231	-0.152
-241.932	353.374	-0.142	0.279
-240.917	-153.153	0.270	0.019
-239.903	-105.066	-0.175	0.040
-238.888	-88.218	0.311	-0.092
-237.873	98.163	-0.167	-0.191
-236.859	-200.000	0.007	-0.086
-235.844	-94.471	-0.309	0.083
-234.830	9.647	0.296	-0.222
-233.815	255.524	-0.019	0.032
-232.800	3.808	0.160	-0.116
-231.786	-164.042	-0.131	-0.006
-230.771	-81.223	0.125	0.041
-229.757	-68.337	-0.096	0.037
-228.742	137.752	0.124	-0.161
-227.727	-200.000	0.034	-0.249
-226.713	-114.224	0.147	-0.028
-225.698	125.779	-0.075	-0.094
-224.684	-74.462	-0.103	0.037
-223.669	-51.198	-0.071	-0.033
-222.655	26.853	-0.156	-0.129
-221.640	800.000	-0.045	0.135
-220.625	313.050	0.017	-0.032
-219.611	68.616	-0.065	0.066
-218.596	528.351	0.112	-0.262
-217.582	-55.899	0.171	-0.076
-216.567	-1.986	-0.167	-0.116
-215.552	-29.485	-0.161	0.091
-214.538	-200.000	-0.014	-0.224
-213.523	-24.649	0.222	0.131
-212.509	-4.394	0.163	0.112
-211.494	268.352	0.058	-0.101
-210.479	800.000	0.019	0.073
-209.465	786.041	0.031	0.084
-208.450	-30.752	-0.181	0.101
-207.436	-77.258	-0.256	-0.088
-206.421	-156.734	0.213	-0.013
-205.406	221.804	-0.187	-0.297
-204.392	-200.000	0.052	-0.257
-203.377	378.675	0.177	0.359
-202.363	-87.612	0.135	0.040
-201.348	800.000	-0.072	0.202
-200.333	-33.225	0.136	0.075
-199.319	59.335	0.232	-0.226
-198.304	-200.000	-0.010	0.074
-197.290	-156.669	-0.265	0.016
-196.275	25.901	-0.111	-0.091
-195.260	113.214	0.262	0.314
-194.246	75.647	0.074	-0.077
-193.231	-111.416	0.154	0.031
-192.217	29.122	0.024	-0.020
-191.202	290.582	-0.046	0.083
-190.187	34.464	-0.178	0.154
-189.173	392.984	-0.094	0.193
-188.158	-45.346	0.119	-0.059
-187.144	-136.017	-0.251	0.029
-186.129	-200.000	-0.026	-0.277
-185.114	-98.952	-0.055	-0.014
-184.100	-178.282	0.415	-0.010
-183.085	-80.267	-0.191	0.063
-182.071	-200.000	-0.004	0.027
-181.056	-200.000	-0.004	0.119
-180.042	36.551	-0.273	0.238
-179.027	12.041	0.195	0.148
-178.012	-107.642	-0.280	-0.061
-176.998	74.404	0.211	-0.219
-175.983	800.000	0.050	-0.153
-174.969	13.498	-0.125	0.096
-173.954	321.505	-0.249	-0.467
-172.939	-117.369	0.321	0.058
-171.925	24.096	-0.104	-0.085
-170.910	-56.273	-0.221	0.097
-169.896	217.219	0.144	-0.227
-168.881	-200.000	0.037	-0.173
-167.866	-200.000	0.022	0.152
-166.852	800.000	0.046	0.190
-165.837	-44.285	-0.153	0.076
-164.823	-200.000	-0.019	0.215
-163.808	98.447	0.145	-0.165
-162.793	48.344	0.098	0.091
-161.779	-59.632	-0.221	-0.093
-160.764	-143.362	0.261	-0.025
-159.750	-126.968	-0.114	-0.017
-158.735	579.523	0.044	0.107
-157.720	-117.356	-0.250	0.045
-156.706	-161.312	0.526	0.027
-155.691	-41.028	0.151	-0.077
-154.677	-66.523	-0.277	0.108
-153.662	-56.421	0.216	-0.095
-152.647	-27.461	0.299	-0.172
-151.633	35.114	-0.098	-0.084
-150.618	100.423	0.102	-0.117
-149.604	-3.478	0.246	-0.169
-148.589	800.000	0.052	0.191
-147.574	-145.784	-0.190	-0.017
-146.560	-17.011	0.273	0.170
-145.545	150.493	0.146	-0.196
-144.531	387.728	-0.115	-0.235
-143.516	-86.230	0.135	0.041
-142.502	22.418	-0.130	0.105
-141.487	-83.214	-0.186	0.059
-140.472	60.544	0.158	-0.154
-139.458	800.000	0.014	-0.050
-138.443	800.000	-0.045	-0.133
-137.429	-46.028	0.121	-0.059
-136.414	-136.821	-0.211	-0.024
-135.399	-13.911	0.109	-0.069
-134.385	-200.000	-0.045	-0.319
-133.370	142.917	0.282	0.370
-132.356	-22.173	-0.139	-0.083
-131.341	-74.249	0.234	-0.084
-130.326	216.198	-0.130	-0.203
-129.312	663.776	-0.108	-0.276
-128.297	-200.000	0.032	0.153
-127.283	-35.324	0.193	0.103
-126.268	800.000	0.048	0.130
-125.253	11.538	0.177	0.134
-124.239	-6.064	0.039	-0.026
-123.224	-115.175	-0.190	0.036
-122.210	241.145	-0.181	0.298
-121.195	205.472	0.107	0.164
-120.180	402.177	-0.054	-0.111
-119.166	-41.869	-0.054	-0.027
-118.151	369.214	0.074	-0.147
-117.137	280.536	-0.100	0.175
-116.122	-129.008	-0.246	0.034
-115.107	131.975	0.135	-0.171
-114.093	-200.000	0.005	0.135
-113.078	-200.000	-0.065	-0.380
-112.064	-200.000	-0.083	-0.359
-111.049	38.675	0.196	-0.172
-110.034	-9.278	0.139	-0.091
-109.020	-53.305	0.529	-0.239
-108.005	84.924	0.187	-0.202
-106.991	169.905	-0.331	0.467
-105.976	-99.724	-0.220	-0.054
-104.962	-200.000	-0.030	0.142
-103.947	77.552	0.022	-0.023
-102.932	-200.000	0.015	-0.078
-101.918	242.002	-0.034	-0.056
-100.903	-136.499	0.166	0.019
-99.889	38.954	-0.197	-0.173
-98.874	800.000	0.044	0.145
-97.859	702.292	-0.091	-0.236
-96.845	-3.690	-0.187	0.128
-95.830	43.237	-0.129	0.116
-94.816	-200.000	0.007	-0.160
-93.801	-5.716	0.288	-0.195
-92.786	800.000	-0.143	0.396
-91.772	-200.000	0.021	0.110
-90.757	53.941	0.153	-0.145
-89.743	-55.921	-0.203	-0.089
-88.728	-136.275	0.171	-0.020
-87.713	-27.794	0.136	0.078
-86.699	661.821	0.088	-0.224
-85.684	-200.000	0.001	0.211
-84.670	-113.876	-0.170	0.033
-83.655	-200.000	0.000	-0.056
-82.640	-200.000	-0.000	0.391
-81.626	-106.350	-0.288	0.063
-80.611	196.893	-0.067	-0.100
-79.597	-110.871	-0.127	0.026
-78.582	319.048	-0.081	-0.152
-77.567	738.056	-0.143	0.377
-76.553	-200.000	-0.039	-0.398
-75.538	168.954	0.276	-0.387
-74.524	33.994	0.210	-0.180
-73.509	160.093	-0.145	-0.199
-72.494	-16.425	-0.207	0.129
-71.480	129.419	-0.099	-0.125
-70.465	800.000	0.071	-0.255
-69.451	-200.000	0.002	-0.021
-68.436	544.801	0.012	-0.028
-67.422	-200.000	-0.026	-0.150
-66.407	460.340	0.078	-0.172
-65.392	16.250	-0.356	-0.276
-64.378	262.942	-0.163	0.278
-63.363	-200.000	-0.007	0.235
-62.349	-200.000	-0.032	0.456
-61.334	223.716	-0.706	-1.121
-60.319	-25.023	0.589	0.344
-59.305	771.923	-0.381	-1.023
-58.290	145.240	0.766	1.008
-57.276	544.389	0.578	1.358
-56.261	-200.000	96.920	604.907
-55.246	638.610	1381.066	3454.364
-54.232	197.227	2558.791	3840.418
-53.217	119.576	2159.625	2630.982
-52.203	42.588	1701.338	1523.035
-51.188	34.936	1513.087	1302.607
-50.173	32.369	1487.217	1263.077
-49.159	52.418	1536.610	1442.250
-48.144	54.209	1553.669	1470.413
-47.130	35.136	1513.672	1304.264
-46.115	31.921	1499.010	1269.857
-45.100	31.773	1495.525	1265.852
-44.086	31.841	1493.142	1264.244
-43.071	31.749	1491.288	1262.004
-42.057	31.716	1489.426	1260.158
-41.042	31.655	1488.666	1259.057
-40.027	31.683	1487.284	1258.024
-39.013	31.593	1485.887	1256.187
-37.998	31.712	1484.331	1255.622
-36.984	31.696	1483.058	1254.390
-35.969	31.751	1481.716	1253.569
-34.954	31.676	1480.426	1251.929
-33.940	31.684	1479.330	1251.002
-32.925	31.711	1477.780	1249.825
-31.911	31.733	1475.963	1248.384
-30.896	31.771	1475.014	1247.783
-29.881	31.739	1473.541	1246.276
-28.867	31.689	1472.372	1244.904
-27.852	31.706	1470.768	1243.612
-26.838	31.733	1469.848	1242.967
-25.823	31.729	1467.829	1241.183
-24.809	31.806	1465.989	1240.089
-23.794	31.718	1464.915	1238.549
-22.779	31.687	1463.827	1237.374
-21.765	31.726	1462.805	1236.720
-20.750	31.753	1461.370	1235.636
-19.736	31.676	1460.700	1234.510
-18.721	31.575	1459.970	1233.179
-17.706	31.702	1458.276	1232.533
-16.692	31.567	1456.953	1230.479
-15.677	31.626	1456.186	1230.170
-14.663	31.686	1455.075	1229.582
-13.648	31.745	1453.907	1228.931
-12.633	31.642	1453.804	1228.119
-11.619	31.549	1452.904	1226.698
-10.604	31.604	1451.616	1225.924
-9.590	31.668	1450.694	1225.515
-8.575	31.591	1450.027	1224.396
-7.560	31.648	1448.849	1223.728
-6.546	31.602	1448.243	1222.870
-5.531	31.579	1447.070	1221.676
-4.517	31.590	1445.857	1220.679
-3.502	31.598	1444.944	1219.908
-2.487	31.542	1444.237	1218.898
-1.473	31.643	1443.140	1218.581
-0.458	31.665	1441.725	1217.483
0.556	30.257	1431.921	1205.883
1.571	27.235	1406.711	1165.222
2.586	23.805	1347.022	1094.593
3.600	22.070	1266.134	1018.716
4.615	20.809	1220.566	974.913
5.629	17.931	1165.026	915.067
6.644	10.723	1083.053	814.573
7.659	5.234	1044.612	758.976
8.673	4.746	1038.303	751.966
9.688	4.501	1036.047	749.088
10.702	4.517	1034.387	747.898
11.717	4.476	1032.217	746.066
12.731	6.540	1033.496	756.842
13.746	13.218	1043.019	796.009
14.761	18.190	1049.115	824.617
15.775	18.314	1048.393	824.576
16.790	17.365	1045.769	817.876
17.804	16.280	1043.810	811.061
18.819	15.427	1042.316	805.736
19.834	14.944	1040.598	802.020
20.848	14.639	1039.619	799.733
21.863	14.415	1039.381	798.409
22.877	14.222	1038.557	796.782
23.892	14.011	1037.555	794.930
24.907	13.847	1037.042	793.686
25.921	13.974	1035.736	793.219
26.936	14.002	1035.246	792.910
27.950	14.094	1034.020	792.337
28.965	13.972	1033.481	791.273
29.980	14.048	1031.985	790.422
30.994	14.249	1031.083	790.616
32.009	14.250	1030.158	789.841
33.023	14.292	1029.506	789.471
34.038	14.281	1028.848	788.843
35.053	14.263	1027.674	787.789
36.067	14.182	1026.482	786.424
37.082	13.997	1025.592	784.798
38.096	14.226	1024.804	785.204
39.111	14.183	1024.216	784.483
40.126	14.251	1023.136	783.907
41.140	14.239	1022.305	783.141
42.155	13.984	1020.884	780.789
43.169	13.826	1020.573	779.739
44.184	14.013	1018.621	779.055
45.199	13.908	1017.576	777.693
46.213	13.887	1017.073	777.143
47.228	13.994	1015.898	776.674
48.242	13.993	1015.105	775.998
49.257	14.117	1014.221	775.831
50.271	14.050	1013.300	774.747
51.286	14.163	1012.062	774.258
52.301	14.078	1011.477	773.344
53.315	14.244	1010.354	773.189
54.330	14.113	1009.997	772.237
55.344	13.940	1008.920	770.545
56.359	13.838	1008.145	769.411
57.374	13.948	1007.382	769.269
58.388	14.013	1006.307	768.684
59.403	13.808	1005.853	767.322
60.417	13.974	1004.651	767.103
61.432	13.670	1004.937	765.847
62.447	13.775	1003.760	765.370
63.461	13.808	1002.701	764.643
64.476	13.724	1001.945	763.613
65.490	13.781	1000.699	762.857
66.505	13.865	999.702	762.415
67.520	13.781	999.322	761.676
68.534	13.834	998.605	761.305
69.549	13.862	997.909	760.833
70.563	13.740	997.261	759.716
71.578	13.759	996.358	759.045
72.593	13.659	995.618	757.957
73.607	13.718	994.401	757.231
74.622	13.684	993.543	756.360
75.636	13.701	992.338	755.453
76.651	13.773	991.266	754.895
77.666	13.771	990.817	754.479
78.680	13.642	990.808	753.817
79.695	13.680	990.111	753.393
80.709	13.719	989.787	753.258
81.724	13.816	988.953	752.998
82.739	13.880	987.821	752.360
83.753	13.809	987.518	751.738
84.768	14.013	986.606	751.903
85.782	14.093	985.892	751.654
86.797	14.326	984.929	751.904
87.812	14.355	984.323	751.505
88.826	14.165	983.518	749.969
89.841	14.185	981.995	748.832
90.855	14.160	981.529	748.297
91.870	14.236	980.759	747.985
92.884	14.243	980.127	747.466
93.899	14.183	979.866	746.932
94.914	14.174	978.733	745.961
95.928	14.227	978.399	745.880
96.943	14.176	977.698	745.051
97.957	14.182	976.932	744.429
98.972	14.295	975.587	743.845
99.987	14.066	975.505	742.693
101.001	14.222	974.134	742.275
102.016	14.236	973.265	741.613
103.030	14.125	972.396	740.390
104.045	14.169	971.913	740.153
105.060	14.270	970.688	739.603
106.074	14.158	969.937	738.467
107.089	14.117	968.973	737.486
108.103	13.888	968.391	735.965
109.118	13.762	967.814	734.903
110.133	13.934	966.454	734.566
111.147	13.845	965.947	733.723
112.162	13.922	964.741	733.079
113.176	13.879	963.915	732.198
114.191	13.995	963.451	732.294
115.206	13.970	962.171	731.145
116.220	13.942	961.394	730.368
117.235	13.985	960.376	729.717
118.249	13.867	959.527	728.492
119.264	13.991	958.909	728.500
120.279	13.890	958.142	727.409
121.293	13.953	957.464	727.105
122.308	13.817	956.626	725.812
123.322	13.812	955.769	725.075
124.337	13.816	954.937	724.395
125.352	13.850	953.486	723.381
126.366	13.771	952.573	722.282
127.381	13.776	951.686	721.566
128.395	13.822	950.949	721.141
129.410	13.949	949.542	720.562
130.424	13.774	948.844	719.212
131.439	13.954	947.706	719.064
132.454	13.896	947.173	718.345
133.468	14.024	946.805	718.555
134.483	13.923	946.138	717.549
135.497	14.022	945.457	717.396
136.512	13.991	944.322	716.340
137.527	14.028	943.695	715.959
138.541	14.116	942.691	715.512
139.556	14.087	942.275	715.009
140.570	14.014	941.436	713.995
141.585	14.110	940.767	713.835
142.600	14.288	939.960	713.927
143.614	14.292	939.259	713.345
144.629	14.235	938.440	712.419
145.643	14.300	937.949	712.260
146.658	14.324	937.361	711.852
147.673	14.185	935.881	710.070
148.687	14.140	935.146	709.260
149.702	14.182	933.996	708.504
150.716	14.074	933.534	707.631
151.731	14.046	932.798	706.890
152.746	14.122	932.231	706.720
153.760	14.123	931.134	705.834
154.775	14.153	930.759	705.615
155.789	14.017	929.980	704.383
156.804	14.034	929.551	704.067
157.819	14.160	928.737	703.922
158.833	14.240	927.959	703.611
159.848	14.205	927.173	702.802
160.862	14.406	926.376	702.987
161.877	14.269	925.884	701.969
162.892	14.255	924.824	701.045
163.906	14.206	923.889	700.069
164.921	14.253	923.342	699.791
165.935	14.181	922.156	698.526
166.950	14.123	921.171	697.479
167.964	14.336	920.473	697.778
168.979	14.258	919.578	696.714
169.994	14.178	918.587	695.567
171.008	14.153	917.930	694.902
172.023	14.264	916.919	694.539
173.037	14.425	916.233	694.628
174.052	14.379	915.696	693.968
175.067	14.405	915.047	693.525
176.081	14.334	914.099	692.450
177.096	14.083	913.346	690.773
178.110	14.069	912.623	690.109
179.125	14.252	911.917	690.274
180.140	14.296	911.129	689.796
181.154	14.400	910.191	689.454
182.169	14.459	909.836	689.370
183.183	14.429	909.168	688.680
184.198	14.354	908.678	687.937
185.213	14.395	907.662	687.277
186.227	14.546	907.258	687.531
187.242	14.595	906.850	687.364
188.256	14.513	905.991	686.314
189.271	14.624	905.210	686.116
190.286	14.743	904.590	686.077
191.300	14.568	903.737	684.651
192.315	14.280	903.496	683.224
193.329	14.159	902.501	681.918
194.344	14.263	901.830	681.773
195.359	14.241	901.376	681.280
196.373	14.277	901.250	681.272
197.388	14.538	900.213	681.496
198.402	14.580	900.030	681.469
199.417	14.569	899.595	681.033
200.432	14.804	898.829	681.353
201.446	14.782	898.488	680.945
202.461	14.857	898.301	681.047
203.475	14.830	897.756	680.463
204.490	14.859	897.033	679.976
205.504	14.748	895.751	678.493
206.519	14.753	894.998	677.883
207.534	14.569	894.799	676.925
208.548	14.639	893.989	676.537
209.563	14.698	893.348	676.227
210.577	14.794	892.505	675.920
211.592	14.739	891.713	675.039
212.607	14.766	891.552	674.964
213.621	14.903	890.665	674.786
214.636	14.855	890.039	674.061
215.650	14.842	889.752	673.728
216.665	14.842	888.957	673.069
217.680	14.980	888.481	673.201
218.694	14.946	888.414	672.955
219.709	15.058	887.602	672.731
220.723	14.968	886.995	671.850
221.738	14.953	886.191	671.122
222.753	14.955	885.474	670.529
223.767	15.075	884.509	670.219
224.782	15.057	883.781	669.534
225.796	15.136	883.244	669.384
226.811	15.309	882.568	669.505
227.826	15.038	882.290	668.152
228.840	15.065	881.399	667.526
229.855	14.926	880.711	666.392
230.869	15.081	879.860	666.307
231.884	14.961	879.471	665.476
232.899	14.887	879.061	664.814
233.913	15.023	877.867	664.392
234.928	14.949	877.580	663.819
235.942	14.977	876.561	663.103
236.957	14.964	875.664	662.313
237.972	14.900	875.504	661.881
238.986	14.870	874.966	661.297
240.001	15.023	874.192	661.257
241.015	14.909	873.311	660.085
242.030	14.980	872.959	660.038
243.045	15.007	872.320	659.604
244.059	15.090	871.611	659.334
245.074	15.177	870.911	659.089
246.088	15.152	870.430	658.568
247.103	15.327	869.652	658.609
248.117	15.354	869.143	658.273
249.132	15.301	868.842	657.778
250.147	15.507	868.294	658.112
251.161	15.497	867.953	657.756
252.176	15.513	867.229	657.214
253.190	15.558	866.402	656.703
254.205	15.593	865.750	656.286
255.220	15.673	865.023	655.991
256.234	15.753	864.479	655.832
257.249	15.754	863.869	655.314
258.263	15.763	863.444	654.971
259.278	15.726	862.738	654.231
260.293	15.729	862.202	653.778
261.307	15.832	861.608	653.674
262.322	15.826	861.162	653.250
263.336	15.769	860.584	652.533
264.351	15.809	859.972	652.166
265.366	15.938	859.334	652.126
266.380	16.027	859.009	652.167
267.395	15.973	858.099	651.207
268.409	15.741	857.775	650.010
269.424	15.806	856.606	649.315
270.439	15.873	855.716	648.842
271.453	15.898	855.070	648.392
272.468	15.740	854.629	647.391
273.482	15.693	854.039	646.706
274.497	15.785	853.095	646.290
275.512	15.801	852.764	646.041
276.526	15.844	851.959	645.538
277.541	15.854	851.316	645.032
278.555	15.886	851.022	644.874
279.570	15.905	850.419	644.435
280.585	15.916	850.021	644.120
281.599	15.952	849.457	643.773
282.614	16.044	848.640	643.448
283.628	15.974	847.728	642.431
284.643	15.992	847.170	642.020
285.657	15.921	846.688	641.327
286.672	15.890	846.485	641.000
287.687	16.012	845.967	641.013
288.701	15.971	845.739	640.629
289.716	16.039	845.137	640.375
290.730	16.102	844.181	639.832
291.745	16.022	843.648	639.070
292.760	16.055	842.900	638.571
293.774	16.140	842.156	638.272
294.789	16.148	841.756	637.943
295.803	16.172	841.246	637.590
296.818	16.062	840.796	636.778
297.833	16.123	840.099	636.421
298.847	16.107	839.065	635.522
299.862	16.063	838.655	634.992
300.876	16.215	837.747	634.820
301.891	16.278	836.977	634.416
302.906	16.200	836.520	633.722
303.920	16.315	836.292	633.922
304.935	16.345	835.691	633.525
305.949	16.384	835.043	633.122
306.964	16.407	834.428	632.689
307.979	16.403	833.813	632.150
308.993	16.483	833.110	631.861
310.008	16.404	833.062	631.475
311.022	16.409	832.517	631.021
312.037	16.492	831.900	630.809
313.052	16.408	831.434	630.086
314.066	16.374	830.837	629.453
315.081	16.348	829.553	628.325
316.095	16.365	829.387	628.206
317.110	16.287	829.501	627.948
318.125	16.168	829.061	627.119
319.139	16.186	828.347	626.590
320.154	16.316	827.663	626.498
321.168	16.354	826.825	625.950
322.183	16.367	826.475	625.677
323.197	16.485	826.178	625.833
324.212	16.508	825.447	625.308
325.227	16.439	824.941	624.618
326.241	16.503	824.481	624.449
327.256	16.409	823.623	623.398
328.270	16.525	823.051	623.338
329.285	16.393	823.173	622.888
330.300	16.390	822.449	622.272
331.314	16.387	821.822	621.733
332.329	16.433	821.180	621.362
333.343	16.458	820.315	620.742
334.358	16.440	820.246	620.570
335.373	16.622	819.523	620.638
336.387	16.649	819.058	620.329
337.402	16.630	818.562	619.827
338.416	16.764	817.839	619.716
339.431	16.770	817.143	619.156
340.446	16.865	816.805	619.193
341.460	16.933	816.082	618.836
342.475	16.882	815.474	618.135
343.489	16.976	815.089	618.133
344.504	16.938	814.805	617.724
345.519	16.957	814.295	617.350
346.533	17.001	813.792	617.076
347.548	16.960	813.216	616.433
348.562	16.809	812.908	615.596
349.577	16.778	812.386	615.035
350.592	16.805	811.267	614.231
351.606	16.835	810.634	613.807
352.621	16.827	810.644	613.731
353.635	16.771	810.299	613.211
354.650	16.905	810.032	613.442
355.665	16.907	809.354	612.879
356.679	16.862	809.296	612.619
357.694	16.934	808.457	612.189
358.708	17.058	807.658	611.979
359.723	16.996	807.144	611.313
360.738	17.086	806.517	611.109
361.752	17.120	806.196	610.933
362.767	16.936	806.104	610.146
363.781	17.045	805.327	609.897
364.796	17.185	805.020	610.111
365.810	17.164	804.575	609.646
366.825	17.170	804.332	609.429
367.840	17.268	804.108	609.556
368.854	17.428	803.226	609.407
369.869	17.305	802.757	608.558
370.883	17.317	802.334	608.224
371.898	17.163	801.825	607.236
372.913	17.514	800.657	607.550
373.927	17.421	800.379	606.953
374.942	17.551	800.038	607.105
375.956	17.441	799.410	606.184
376.971	17.439	799.327	606.060
377.986	17.477	798.327	605.383
379.000	17.454	798.032	605.023
380.015	17.503	797.739	604.921
381.029	17.500	797.053	604.336
382.044	17.451	796.456	603.658
383.059	17.516	796.207	603.646
384.073	17.563	795.426	603.167
385.088	17.540	794.783	602.544
386.102	17.484	794.358	601.970
387.117	17.384	793.751	601.105
388.132	17.447	793.183	600.844
389.146	17.507	793.064	600.910
390.161	17.399	792.701	600.204
391.175	17.711	792.063	600.764
392.190	17.701	791.893	600.550
393.205	17.557	791.376	599.597
394.219	17.537	790.616	598.896
395.234	17.501	790.086	598.317
396.248	17.451	789.783	597.858
397.263	17.575	789.197	597.797
398.278	17.309	788.990	596.655
399.292	17.465	788.257	596.594
400.307	17.588	787.719	596.564
401.321	17.550	787.680	596.350
402.336	17.422	787.545	595.747
403.350	17.488	787.132	595.613
404.365	17.443	786.766	595.123
405.380	17.733	786.450	595.846
406.394	17.767	785.450	595.155
407.409	17.768	785.233	594.941
408.423	17.896	785.073	595.212
409.438	17.764	784.761	594.465
410.453	17.820	784.050	594.069
411.467	17.891	783.572	593.898
412.482	17.951	783.233	593.799
413.496	18.006	782.513	593.391
414.511	18.027	782.526	593.423
415.526	18.071	781.942	593.081
416.540	18.073	781.545	592.733
417.555	17.974	780.951	591.886
418.569	18.188	780.218	592.020
419.584	17.984	780.297	591.323
420.599	18.091	779.409	590.966
421.613	155.827	1368.529	1793.072
422.628	134.444	1454.380	1793.198
