DTS Sentinel unit serial number:	SN413079Multiplexer serial number:	ORYXHardware model number:	OX4-SRSoftware version number:	ORYX F/W v4.00 Oryx Data Collector v3.7.2.0data status	okinstallation	princeton_trtdifferential loss correction	single-endedforward channel	channel 3reverse channel	N/Adate	2019/09/19time	05:32:34forward acquisition time	60.00reverse acquisition time	0.00gamma	496.2192k internal	0.2349k external	0.2349temperature offset calibration	0.9994default loss term (dB/km)	0.3790temperature slope calibration	1.0000multiplexer offset coefficient	1.0000multiplexer slope coefficient	1.0000fibre end	0.00T internal ref (°C)	19.37T ext. ref 1 (°C)	0.60T ext. ref 2 (°C)	12.94length (m)	temperature (°C)	Stokes	anti-Stokes-747.200	8.770	-0.267	-0.201
-746.185	-93.597	0.336	0.093
-745.171	800.000	-0.026	0.087
-744.156	-200.000	0.339	-0.001
-743.142	96.866	0.136	-0.155
-742.127	-9.646	0.029	-0.019
-741.112	-66.336	-0.215	0.085
-740.098	-200.000	0.012	0.279
-739.083	-60.492	0.267	0.113
-738.069	352.455	-0.184	0.364
-737.054	209.632	-0.283	0.442
-736.039	800.000	0.039	0.117
-735.025	91.108	0.107	0.120
-734.010	82.352	-0.119	-0.129
-732.996	-163.040	-0.050	-0.002
-731.981	-127.783	-0.540	-0.078
-730.966	221.073	-0.213	-0.341
-729.952	-41.055	-0.528	-0.272
-728.937	736.068	0.036	-0.096
-727.923	-90.505	-0.556	0.161
-726.908	41.893	-0.230	-0.208
-725.894	221.033	0.140	-0.225
-724.879	-6.149	0.297	0.203
-723.864	39.703	-0.137	-0.123
-722.850	-64.907	-0.092	0.037
-721.835	-200.000	0.013	0.146
-720.821	-108.611	-0.395	0.085
-719.806	-16.522	-0.273	-0.173
-718.791	25.580	-0.077	-0.064
-717.777	60.825	0.252	0.249
-716.762	28.689	0.254	0.214
-715.748	-71.850	-0.039	0.014
-714.733	-200.000	0.008	-0.152
-713.718	-99.240	-0.207	-0.052
-712.704	800.000	-0.072	0.295
-711.689	-68.466	-0.280	-0.108
-710.675	-32.804	-0.221	0.123
-709.660	-110.862	0.232	0.048
-708.645	-30.916	-0.140	-0.079
-707.631	123.221	0.017	0.021
-706.616	141.087	-0.124	0.164
-705.602	-200.000	0.001	-0.108
-704.587	131.273	-0.218	-0.279
-703.572	133.127	0.065	0.084
-702.558	-92.076	0.163	0.046
-701.543	-68.981	-0.227	-0.087
-700.529	-173.312	-0.045	-0.001
-699.514	61.251	0.220	0.218
-698.499	109.017	-0.104	-0.124
-697.485	79.720	0.028	0.029
-696.470	-97.342	-0.226	0.059
-695.456	32.783	-0.220	-0.190
-694.441	-38.984	-0.378	-0.198
-693.426	800.000	0.103	-0.343
-692.412	139.440	0.224	-0.293
-691.397	220.903	-0.158	-0.253
-690.383	123.593	-0.181	0.226
-689.368	-200.000	0.010	-0.126
-688.354	-96.434	-0.158	-0.042
-687.339	48.607	-0.169	-0.158
-686.324	-200.000	0.013	0.094
-685.310	31.187	0.293	-0.250
-684.295	68.329	0.144	-0.147
-683.281	-179.645	0.408	0.009
-682.266	-200.000	0.005	0.141
-681.251	42.835	-0.195	-0.177
-680.237	-47.032	0.174	0.085
-679.222	296.883	0.130	-0.237
-678.208	12.002	-0.178	-0.136
-677.193	-86.554	0.288	0.088
-676.178	20.956	0.029	-0.023
-675.164	-200.000	-0.043	-0.338
-674.149	800.000	-0.037	-0.132
-673.135	53.749	0.068	0.065
-672.120	-112.004	0.205	-0.041
-671.105	-164.052	-0.159	-0.007
-670.091	104.774	-0.207	-0.243
-669.076	26.538	0.110	-0.092
-668.062	-122.175	-0.016	-0.003
-667.047	294.245	-0.040	-0.073
-666.032	6.375	-0.429	-0.318
-665.018	1.184	0.209	0.149
-664.003	92.001	-0.190	0.213
-662.989	-1.260	-0.063	0.044
-661.974	56.794	0.185	0.179
-660.959	-200.000	0.014	0.086
-659.945	-187.438	0.165	0.002
-658.930	520.712	-0.080	0.188
-657.916	-90.107	0.153	0.044
-656.901	225.763	0.361	-0.583
-655.886	-42.616	-0.170	0.086
-654.872	303.608	0.093	0.172
-653.857	166.615	0.228	0.322
-652.843	366.986	-0.163	0.327
-651.828	287.111	-0.028	0.050
-650.814	800.000	-0.116	-0.364
-649.799	-200.000	-0.074	-0.330
-648.784	52.500	0.104	-0.099
-647.770	193.785	-0.066	-0.099
-646.755	530.565	-0.082	0.193
-645.741	183.587	0.175	0.258
-644.726	368.535	-0.169	-0.339
-643.711	0.363	-0.196	-0.139
-642.697	143.186	0.205	0.271
-641.682	437.846	-0.121	0.262
-640.668	231.850	-0.069	-0.113
-639.653	50.926	-0.166	-0.156
-638.638	800.000	0.040	0.124
-637.624	-200.000	0.036	0.344
-636.609	204.381	0.115	-0.177
-635.595	107.215	0.072	-0.085
-634.580	-145.934	-0.561	-0.049
-633.565	420.280	0.095	-0.202
-632.551	-200.000	-0.065	0.347
-631.536	-127.160	-0.178	-0.026
-630.522	-200.000	-0.020	0.166
-629.507	667.460	-0.133	0.342
-628.492	-89.938	-0.152	-0.044
-627.478	-11.799	-0.045	0.029
-626.463	544.448	-0.016	0.037
-625.449	800.000	-0.033	0.132
-624.434	-200.000	0.015	0.106
-623.419	-2.164	0.120	0.084
-622.405	-200.000	-0.004	0.218
-621.390	302.330	-0.191	-0.351
-620.376	-200.000	-0.055	-0.334
-619.361	-108.641	0.338	0.072
-618.346	-134.371	0.266	0.032
-617.332	26.582	0.254	0.211
-616.317	33.406	0.208	-0.179
-615.303	98.217	-0.057	0.065
-614.288	127.231	0.214	-0.270
-613.273	800.000	-0.087	-0.332
-612.259	-200.000	-0.017	0.128
-611.244	-200.000	-0.006	0.248
-610.230	-200.000	-0.004	0.023
-609.215	800.000	0.039	0.170
-608.201	-76.730	0.073	-0.026
-607.186	124.181	0.014	0.017
-606.171	130.981	-0.140	0.179
-605.157	-103.063	-0.131	0.031
-604.142	151.576	-0.111	0.151
-603.128	116.964	0.117	0.143
-602.113	-200.000	-0.021	0.223
-601.098	-200.000	0.083	0.373
-600.084	165.687	0.085	0.119
-599.069	-200.000	0.041	0.357
-598.055	547.919	0.153	0.364
-597.040	-142.787	0.345	-0.033
-596.025	800.000	-0.060	-0.208
-595.011	-200.000	0.026	-0.221
-593.996	-167.801	0.225	0.009
-592.982	157.053	0.108	0.149
-591.967	193.053	-0.062	0.093
-590.952	800.000	-0.058	-0.207
-589.938	800.000	-0.069	-0.210
-588.923	800.000	0.066	-0.182
-587.909	426.991	0.025	-0.053
-586.894	81.182	-0.189	0.202
-585.879	-22.724	-0.062	0.037
-584.865	-121.443	-0.185	-0.031
-583.850	295.517	0.038	-0.069
-582.836	-133.043	-0.053	0.007
-581.821	-51.495	0.200	0.093
-580.806	22.639	0.099	-0.081
-579.792	-97.288	-0.295	0.076
-578.777	5.917	0.108	0.080
-577.763	25.173	0.360	-0.296
-576.748	-148.811	-0.048	-0.004
-575.733	457.260	-0.075	0.164
-574.719	-112.104	0.279	-0.056
-573.704	145.463	0.055	0.073
-572.690	-18.018	-0.207	-0.129
-571.675	153.793	0.097	0.132
-570.661	-200.000	-0.072	-0.616
-569.646	413.411	0.079	-0.167
-568.631	-122.236	-0.169	-0.027
-567.617	152.784	0.070	-0.094
-566.602	-200.000	0.021	-0.224
-565.588	17.419	0.077	-0.061
-564.573	8.379	-0.045	0.033
-563.558	-200.000	0.056	-0.274
-562.544	-19.872	-0.377	-0.231
-561.529	202.742	-0.317	-0.485
-560.515	49.097	-0.280	-0.261
-559.500	91.878	0.074	0.083
-558.485	-175.144	-0.350	0.010
-557.471	-139.281	0.162	-0.017
-556.456	-32.748	-0.053	0.029
-555.442	49.598	0.065	-0.061
-554.427	-31.382	-0.203	-0.113
-553.412	290.671	0.190	-0.343
-552.398	-62.425	-0.175	-0.072
-551.383	72.054	-0.169	0.174
-550.369	147.508	0.145	-0.194
-549.354	-50.316	-0.401	0.188
-548.339	65.010	0.173	-0.173
-547.325	800.000	0.077	-0.238
-546.310	491.655	-0.020	-0.046
-545.296	-83.928	0.044	-0.014
-544.281	-15.563	-0.345	-0.218
-543.266	-200.000	0.013	-0.088
-542.252	-28.728	-0.112	0.064
-541.237	10.923	0.235	0.178
-540.223	-179.786	-0.216	-0.005
-539.208	-54.444	-0.097	-0.044
-538.193	-3.231	0.321	0.221
-537.179	126.983	0.115	0.145
-536.164	159.509	0.035	0.049
-535.150	-76.172	0.103	-0.036
-534.135	-200.000	0.010	-0.069
-533.121	-47.895	0.143	-0.069
-532.106	192.586	0.110	0.165
-531.091	218.491	0.094	-0.148
-530.077	800.000	-0.118	-0.464
-529.062	-200.000	0.006	0.080
-528.048	800.000	-0.034	-0.096
-527.033	-159.258	0.191	0.011
-526.018	-200.000	-0.021	-0.169
-525.004	113.930	0.139	0.167
-523.989	-122.223	-0.122	0.020
-522.975	52.634	-0.189	0.179
-521.960	-56.745	0.075	0.033
-520.945	-71.933	-0.059	-0.022
-519.931	-61.178	0.131	-0.055
-518.916	-200.000	0.049	0.283
-517.902	800.000	-0.074	-0.231
-516.887	800.000	0.056	-0.236
-515.872	146.761	-0.073	0.098
-514.858	800.000	0.038	-0.128
-513.843	593.622	-0.029	-0.070
-512.829	-200.000	0.012	0.213
-511.814	202.527	-0.126	-0.193
-510.799	50.368	0.294	0.275
-509.785	83.220	0.094	-0.102
-508.770	-163.080	-0.449	0.021
-507.756	73.918	-0.168	-0.174
-506.741	147.460	0.160	0.213
-505.726	-92.067	-0.277	0.078
-504.712	-200.000	0.011	0.303
-503.697	69.641	-0.234	0.239
-502.683	114.083	-0.272	-0.328
-501.668	-57.168	0.272	-0.118
-500.653	-59.672	-0.297	-0.126
-499.639	-200.000	0.009	-0.200
-498.624	291.171	-0.083	-0.150
-497.610	47.340	0.181	-0.167
-496.595	321.743	-0.092	0.174
-495.581	-39.125	-0.197	-0.102
-494.566	103.276	-0.330	0.383
-493.551	800.000	0.049	-0.141
-492.537	419.436	0.084	-0.179
-491.522	-123.743	0.316	0.050
-490.508	297.124	-0.037	0.068
-489.493	-85.850	-0.051	-0.016
-488.478	-177.537	0.292	0.007
-487.464	130.630	0.099	-0.126
-486.449	-200.000	-0.058	0.332
-485.435	125.634	-0.119	0.148
-484.420	-116.604	0.306	0.056
-483.405	-3.402	-0.094	-0.065
-482.391	240.467	0.139	-0.228
-481.376	37.229	-0.140	-0.122
-480.362	-57.975	0.142	0.061
-479.347	-29.418	-0.274	-0.155
-478.332	464.212	-0.154	-0.341
-477.318	800.000	-0.053	0.190
-476.303	241.518	-0.159	-0.262
-475.289	-200.000	-0.046	0.353
-474.274	19.767	0.213	0.169
-473.259	-51.657	-0.040	-0.018
-472.245	147.792	0.101	-0.134
-471.230	46.867	-0.127	-0.117
-470.216	-113.997	0.205	-0.039
-469.201	-167.075	0.442	0.018
-468.186	800.000	0.062	0.171
-467.172	12.790	0.092	-0.070
-466.157	-200.000	-0.001	-0.032
-465.143	-200.000	-0.036	0.252
-464.128	125.257	-0.139	-0.173
-463.113	-31.819	0.138	-0.077
-462.099	800.000	-0.078	-0.239
-461.084	420.960	0.095	-0.202
-460.070	-186.222	-0.335	-0.005
-459.055	146.985	-0.182	0.242
-458.040	800.000	0.044	-0.163
-457.026	800.000	-0.022	0.072
-456.011	-121.066	-0.069	-0.011
-454.997	-200.000	0.063	0.325
-453.982	41.325	0.130	0.116
-452.968	-146.516	-0.207	0.018
-451.953	-200.000	-0.001	-0.229
-450.938	-145.798	-0.164	-0.014
-449.924	98.601	-0.143	-0.163
-448.909	130.837	-0.184	-0.233
-447.895	-200.000	0.024	0.162
-446.880	800.000	-0.064	0.218
-445.865	30.008	-0.252	0.212
-444.851	252.906	0.073	0.122
-443.836	-13.179	-0.165	-0.106
-442.822	-115.897	-0.249	0.046
-441.807	-17.192	-0.257	-0.160
-440.792	800.000	-0.051	0.216
-439.778	751.743	0.084	0.223
-438.763	48.271	-0.202	0.187
-437.749	192.213	0.074	0.111
-436.734	486.542	-0.174	-0.390
-435.719	-148.208	-0.294	-0.024
-434.705	-101.523	0.264	-0.063
-433.690	385.295	0.164	0.334
-432.676	207.134	-0.086	-0.132
-431.661	800.000	0.022	-0.078
-430.646	800.000	0.029	-0.090
-429.632	18.642	-0.248	-0.196
-428.617	44.792	-0.024	-0.022
-427.603	69.487	0.246	0.250
-426.588	102.940	-0.099	-0.115
-425.573	-100.102	-0.242	0.060
-424.559	-48.589	-0.190	-0.090
-423.544	348.792	-0.230	-0.447
-422.530	800.000	-0.064	0.232
-421.515	140.493	-0.190	0.248
-420.500	-200.000	-0.043	-0.259
-419.486	4.740	0.069	-0.050
-418.471	125.180	-0.135	0.167
-417.457	-165.964	0.089	-0.004
-416.442	-174.134	0.092	0.003
-415.428	-200.000	0.014	0.494
-414.413	25.021	-0.095	-0.078
-413.398	10.308	0.243	0.182
-412.384	-71.192	0.411	-0.152
-411.369	-200.000	-0.033	-0.172
-410.355	-1.762	-0.234	0.162
-409.340	157.939	0.073	-0.100
-408.325	-200.000	-0.006	-0.065
-407.311	635.818	0.027	0.067
-406.296	84.732	-0.108	-0.117
-405.282	-200.000	0.001	-0.008
-404.267	-168.653	0.100	-0.004
-403.252	75.782	0.110	-0.115
-402.238	-200.000	-0.046	-0.402
-401.223	82.806	0.115	-0.123
-400.209	-103.480	-0.040	0.009
-399.194	-200.000	0.015	0.151
-398.179	-200.000	0.005	0.071
-397.165	-200.000	-0.015	-0.267
-396.150	-200.000	0.032	0.238
-395.136	-21.860	0.083	-0.049
-394.121	-135.882	-0.314	-0.037
-393.106	-200.000	0.003	0.116
-392.092	78.801	0.075	-0.079
-391.077	-77.822	0.313	-0.107
-390.063	-76.984	-0.100	0.034
-389.048	-79.169	0.149	-0.050
-388.033	800.000	0.035	0.147
-387.019	255.373	-0.140	-0.237
-386.004	800.000	-0.042	0.148
-384.990	-89.298	0.212	0.062
-383.975	-16.023	0.156	0.098
-382.960	-200.000	-0.006	0.191
-381.946	57.913	-0.152	-0.147
-380.931	-105.434	-0.259	-0.058
-379.917	208.932	0.131	-0.202
-378.902	55.124	0.034	-0.032
-377.888	540.838	-0.022	0.052
-376.873	9.542	0.164	0.122
-375.858	800.000	-0.084	-0.298
-374.844	-96.071	-0.077	-0.020
-373.829	-200.000	-0.087	-0.472
-372.815	-155.912	-0.203	0.013
-371.800	47.767	-0.141	0.130
-370.785	-92.051	0.245	-0.068
-369.771	-163.246	0.044	0.002
-368.756	800.000	0.129	-0.389
-367.742	800.000	-0.072	0.227
-366.727	381.393	-0.126	-0.255
-365.712	-200.000	0.021	0.371
-364.698	28.748	-0.049	-0.041
-363.683	146.656	0.065	0.086
-362.669	-86.801	-0.490	-0.147
-361.654	-105.334	0.577	-0.129
-360.639	800.000	0.045	-0.161
-359.625	241.390	0.167	0.274
-358.610	-59.402	-0.234	-0.099
-357.596	800.000	0.069	0.237
-356.581	25.547	0.252	-0.206
-355.566	33.022	-0.090	0.077
-354.552	369.789	0.103	-0.205
-353.537	221.555	0.078	-0.123
-352.523	-138.711	0.217	-0.023
-351.508	-126.834	-0.314	-0.046
-350.493	6.297	-0.197	-0.143
-349.479	-200.000	-0.018	0.195
-348.464	-58.250	-0.211	-0.090
-347.450	19.677	-0.410	-0.324
-346.435	-105.997	-0.096	0.021
-345.420	-133.888	-0.105	0.013
-344.406	166.087	0.044	0.061
-343.391	-82.664	0.239	-0.076
-342.377	290.755	0.080	-0.142
-341.362	-128.698	0.192	-0.027
-340.348	-58.203	0.031	0.013
-339.333	-67.822	0.099	0.038
-338.318	-200.000	0.304	0.001
-337.304	666.766	-0.052	-0.132
-336.289	-113.242	0.062	0.012
-335.275	-159.537	-0.296	-0.016
-334.260	-9.575	-0.349	0.229
-333.245	52.079	0.184	0.173
-332.231	794.910	-0.098	0.266
-331.216	614.352	0.035	-0.085
-330.202	137.835	-0.181	-0.232
-329.187	-68.692	0.483	-0.183
-328.172	800.000	-0.049	-0.169
-327.158	638.329	-0.211	-0.527
-326.143	-51.984	-0.244	0.111
-325.129	-16.809	0.185	0.115
-324.114	-27.263	0.310	0.177
-323.099	-30.232	0.206	-0.115
-322.085	546.467	0.089	0.209
-321.070	-9.853	-0.452	0.296
-320.056	-200.000	-0.003	0.149
-319.041	-82.230	0.167	0.054
-318.026	396.795	-0.044	-0.090
-317.012	708.569	0.107	-0.277
-315.997	511.299	0.058	0.133
-314.983	-83.878	0.065	0.020
-313.968	-140.235	0.220	-0.023
-312.953	98.893	0.179	0.202
-311.939	-11.661	0.370	-0.239
-310.924	800.000	-0.050	-0.142
-309.910	-107.422	-0.185	-0.040
-308.895	-200.000	0.013	0.126
-307.880	-200.000	-0.028	-0.225
-306.866	-152.151	0.295	0.021
-305.851	129.951	-0.067	-0.084
-304.837	-46.453	0.265	-0.128
-303.822	-200.000	-0.009	-0.130
-302.807	-92.474	0.255	0.070
-301.793	384.305	-0.063	-0.127
-300.778	112.445	0.232	0.275
-299.764	-81.903	-0.142	0.045
-298.749	229.110	0.052	-0.083
-297.735	49.533	-0.135	0.124
-296.720	81.970	0.099	-0.105
-295.705	-60.654	-0.281	0.117
-294.691	-51.479	-0.140	0.064
-293.676	-101.473	-0.228	0.054
-292.662	-200.000	0.029	0.291
-291.647	-109.727	-0.212	-0.044
-290.632	-200.000	-0.058	-0.349
-289.618	-46.623	0.231	-0.111
-288.603	-26.605	0.236	0.136
-287.589	-200.000	-0.033	0.141
-286.574	-200.000	-0.003	0.499
-285.559	56.478	-0.097	-0.092
-284.545	-200.000	-0.000	-0.010
-283.530	-106.221	0.410	0.090
-282.516	139.717	0.122	-0.158
-281.501	127.977	0.285	0.356
-280.486	-147.810	0.219	0.018
-279.472	-136.103	-0.150	-0.017
-278.457	-81.402	0.319	0.103
-277.443	-10.676	-0.251	-0.163
-276.428	132.215	0.195	0.247
-275.413	189.352	0.199	-0.292
-274.399	81.286	0.284	0.301
-273.384	423.598	0.072	0.153
-272.370	-32.037	-0.102	-0.056
-271.355	15.636	0.175	-0.135
-270.340	288.979	-0.335	-0.596
-269.326	-114.317	0.150	-0.028
-268.311	9.942	0.130	0.097
-267.297	-111.997	0.131	0.026
-266.282	-98.507	0.343	-0.086
-265.267	150.758	0.058	0.077
-264.253	-7.100	-0.398	-0.265
-263.238	10.844	0.184	0.138
-262.224	800.000	0.057	-0.191
-261.209	194.277	-0.130	0.193
-260.195	72.205	0.194	0.198
-259.180	277.405	-0.063	-0.110
-258.165	201.592	-0.127	-0.191
-257.151	40.491	-0.327	0.289
-256.136	-76.344	0.155	-0.054
-255.122	-153.204	-0.219	-0.015
-254.107	-128.897	0.281	-0.039
-253.092	-68.590	0.086	0.033
-252.078	-62.781	-0.368	-0.150
-251.063	-41.431	0.231	-0.116
-250.049	-66.952	0.230	-0.089
-249.034	-33.508	0.360	0.195
-248.019	-200.000	-0.080	-0.526
-247.005	-81.657	0.442	-0.142
-245.990	77.747	-0.060	0.063
-244.976	35.963	-0.271	0.233
-243.961	800.000	-0.049	0.199
-242.946	13.036	0.227	0.172
-241.932	-200.000	-0.018	0.092
-240.917	0.410	-0.063	0.044
-239.903	800.000	0.095	0.261
-238.888	-96.157	-0.187	-0.049
-237.873	800.000	0.072	0.238
-236.859	-78.262	0.221	0.074
-235.844	-76.922	0.167	0.057
-234.830	-60.536	-0.128	-0.053
-233.815	800.000	-0.167	0.464
-232.800	180.861	-0.229	0.329
-231.786	412.791	-0.032	0.067
-230.771	-33.686	-0.182	0.099
-229.757	-62.041	-0.097	0.040
-228.742	215.228	0.211	0.327
-227.727	-47.394	0.188	-0.090
-226.713	-93.194	-0.056	0.015
-225.698	125.013	0.096	-0.119
-224.684	69.977	0.123	0.124
-223.669	11.792	-0.143	-0.107
-222.655	221.191	-0.035	0.055
-221.640	-75.409	0.277	0.097
-220.625	332.204	-0.018	-0.034
-219.611	14.784	0.245	0.187
-218.596	-200.000	-0.044	0.214
-217.582	-38.162	0.212	0.110
-216.567	-59.710	-0.077	0.032
-215.552	493.469	0.047	-0.106
-214.538	-41.424	-0.237	0.119
-213.523	221.729	0.216	-0.340
-212.509	800.000	0.020	-0.063
-211.494	-200.000	0.035	0.217
-210.479	-200.000	0.042	0.187
-209.465	82.290	-0.039	-0.041
-208.450	-200.000	0.025	0.305
-207.436	-67.431	0.271	0.104
-206.421	32.096	-0.154	-0.130
-205.406	-200.000	0.009	0.200
-204.392	800.000	0.113	-0.418
-203.377	29.252	-0.032	0.026
-202.363	-200.000	0.003	0.118
-201.348	-200.000	0.048	0.313
-200.333	-73.470	-0.251	-0.089
-199.319	-56.585	0.224	0.097
-198.304	33.028	-0.055	-0.047
-197.290	41.100	-0.122	-0.108
-196.275	91.446	-0.194	-0.214
-195.260	800.000	-0.091	0.324
-194.246	17.117	0.098	-0.076
-193.231	-126.702	-0.421	0.061
-192.217	149.657	0.092	-0.122
-191.202	-86.396	0.277	0.083
-190.187	256.256	-0.190	0.318
-189.173	92.170	0.229	0.252
-188.158	-114.027	-0.146	-0.028
-187.144	-113.259	-0.178	-0.034
-186.129	-92.636	-0.045	-0.012
-185.114	470.277	0.043	-0.095
-184.100	-200.000	-0.009	-0.114
-183.085	-200.000	-0.001	0.148
-182.071	-200.000	0.012	-0.067
-181.056	-37.280	-0.032	0.017
-180.042	399.996	-0.057	0.116
-179.027	-101.446	-0.143	0.034
-178.012	800.000	-0.049	-0.190
-176.998	800.000	0.037	-0.106
-175.983	304.645	0.185	-0.335
-174.969	-15.519	-0.179	-0.112
-173.954	103.982	-0.103	0.118
-172.939	-200.000	-0.039	0.292
-171.925	-175.569	0.131	-0.003
-170.910	100.926	-0.268	0.305
-169.896	-17.494	0.115	0.070
-168.881	-200.000	0.014	0.123
-167.866	-73.283	-0.285	0.102
-166.852	56.304	-0.175	0.166
-165.837	-80.286	0.252	0.082
-164.823	800.000	-0.095	0.318
-163.808	35.976	-0.112	-0.096
-162.793	-65.845	-0.339	0.132
-161.779	800.000	0.094	0.367
-160.764	800.000	-0.072	0.219
-159.750	240.865	0.154	0.252
-158.735	-49.562	0.324	-0.151
-157.720	157.148	0.111	-0.150
-156.706	-47.935	0.245	-0.116
-155.691	92.453	0.161	-0.177
-154.677	280.199	0.033	-0.058
-153.662	269.348	-0.237	-0.406
-152.647	575.044	-0.088	-0.210
-151.633	298.955	0.016	-0.028
-150.618	-200.000	-0.004	0.256
-149.604	194.301	-0.055	0.081
-148.589	11.965	-0.275	-0.206
-147.574	-200.000	0.009	-0.107
-146.560	-20.312	-0.174	0.105
-145.545	-50.326	-0.211	-0.097
-144.531	-45.027	0.280	-0.136
-143.516	462.122	-0.098	-0.213
-142.502	800.000	-0.079	0.316
-141.487	-139.569	-0.190	-0.020
-140.472	88.267	0.047	-0.051
-139.458	227.187	0.084	-0.133
-138.443	800.000	0.056	0.155
-137.429	-107.825	-0.220	0.047
-136.414	-33.204	0.155	-0.084
-135.399	425.763	0.084	-0.177
-134.385	-200.000	-0.017	-0.083
-133.370	6.252	0.315	0.228
-132.356	278.265	0.076	-0.133
-131.341	300.240	0.144	0.260
-130.326	-50.583	-0.343	-0.158
-129.312	800.000	0.058	-0.164
-128.297	429.401	-0.088	0.186
-127.283	-9.061	-0.118	-0.077
-126.268	109.809	-0.216	0.253
-125.253	125.778	-0.112	0.138
-124.239	-105.002	-0.207	-0.046
-123.224	-200.000	0.017	-0.417
-122.210	763.974	-0.025	0.066
-121.195	727.831	0.051	0.133
-120.180	-42.798	0.073	-0.036
-119.166	-200.000	0.030	0.152
-118.151	-80.094	0.242	-0.079
-117.137	-5.865	-0.034	-0.023
-116.122	456.110	0.106	-0.230
-115.107	-9.672	0.167	-0.109
-114.093	-200.000	-0.020	0.429
-113.078	309.775	0.093	-0.170
-112.064	-64.812	-0.101	0.040
-111.049	-37.174	0.242	0.126
-110.034	332.671	-0.058	0.110
-109.020	-63.097	0.305	0.123
-108.005	800.000	0.119	-0.347
-106.991	-50.888	0.222	0.102
-105.976	109.076	0.163	-0.190
-104.962	-161.268	0.283	-0.014
-103.947	800.000	0.056	0.239
-102.932	198.459	-0.140	0.209
-101.918	601.600	-0.063	0.153
-100.903	-13.847	0.265	0.167
-99.889	-200.000	0.021	0.106
-98.874	-136.965	0.118	-0.013
-97.859	18.563	-0.097	0.075
-96.845	-102.999	0.271	0.063
-95.830	654.630	-0.027	0.066
-94.816	-191.925	0.085	-0.001
-93.801	800.000	0.052	0.164
-92.786	-128.841	-0.103	0.014
-91.772	-200.000	-0.041	0.277
-90.757	-181.154	0.173	0.003
-89.743	-79.308	0.131	-0.043
-88.728	800.000	0.041	0.113
-87.713	117.411	-0.116	0.138
-86.699	45.229	0.143	-0.129
-85.684	102.967	0.018	0.021
-84.670	95.002	0.183	-0.202
-83.655	-173.499	0.277	0.008
-82.640	206.099	-0.065	0.099
-81.626	-200.000	-0.032	-0.234
-80.611	77.799	0.301	0.312
-79.597	-65.264	0.195	0.076
-78.582	-142.674	0.293	0.028
-77.567	800.000	0.092	0.272
-76.553	800.000	-0.043	-0.163
-75.538	-67.930	0.185	-0.070
-74.524	198.581	0.211	0.314
-73.509	103.129	0.156	-0.178
-72.494	-31.048	0.066	0.036
-71.480	800.000	0.097	0.390
-70.465	-200.000	-0.016	0.430
-69.451	-94.798	0.214	-0.056
-68.436	-151.036	0.039	-0.003
-67.422	-200.000	0.004	0.154
-66.407	-107.721	0.227	-0.048
-65.392	-23.736	-0.190	0.111
-64.378	279.381	0.017	-0.030
-63.363	-85.434	-0.179	-0.054
-62.349	20.891	-0.032	-0.025
-61.334	19.928	-1.577	-1.236
-60.319	74.474	1.108	1.132
-59.305	212.726	-0.914	-1.402
-58.290	149.562	0.967	1.273
-57.276	203.041	1.020	1.532
-56.261	-200.000	136.018	625.656
-55.246	343.960	1639.241	3124.844
-54.232	138.200	2773.244	3535.701
-53.217	81.665	2176.681	2289.758
-52.203	29.049	1697.815	1399.965
-51.188	22.189	1523.457	1209.137
-50.173	20.674	1503.742	1183.147
-49.159	44.081	1579.284	1407.430
-48.144	39.952	1589.380	1387.452
-47.130	22.190	1539.129	1221.391
-46.115	19.621	1523.700	1191.402
-45.100	19.511	1519.621	1187.409
-44.086	19.411	1518.037	1185.435
-43.071	19.282	1516.194	1183.069
-42.057	19.346	1514.579	1182.198
-41.042	19.329	1513.466	1181.166
-40.027	19.415	1511.390	1180.086
-39.013	19.323	1510.106	1178.407
-37.998	19.310	1509.320	1177.660
-36.984	19.330	1508.167	1176.851
-35.969	19.361	1506.404	1175.639
-34.954	19.298	1505.274	1174.278
-33.940	19.271	1504.179	1173.199
-32.925	19.361	1502.526	1172.472
-31.911	19.395	1500.699	1171.231
-30.896	19.346	1500.015	1170.318
-29.881	19.458	1498.617	1169.941
-28.867	19.376	1497.486	1168.456
-27.852	19.415	1495.762	1167.330
-26.838	19.419	1495.027	1166.736
-25.823	19.447	1492.958	1165.264
-24.809	19.407	1491.959	1164.166
-23.794	19.364	1490.445	1162.653
-22.779	19.402	1489.228	1161.910
-21.765	19.500	1487.918	1161.502
-20.750	19.446	1486.607	1160.066
-19.736	19.415	1485.548	1158.987
-18.721	19.382	1484.926	1158.233
-17.706	19.363	1483.468	1156.926
-16.692	19.446	1482.541	1156.713
-15.677	19.351	1481.598	1155.291
-14.663	19.379	1480.346	1154.457
-13.648	19.416	1479.143	1153.723
-12.633	19.349	1478.620	1152.823
-11.619	19.395	1477.687	1152.357
-10.604	19.320	1476.857	1151.163
-9.590	19.461	1475.412	1150.932
-8.575	19.367	1475.402	1150.251
-7.560	19.329	1474.399	1149.170
-6.546	19.470	1473.336	1149.232
-5.531	19.306	1472.372	1147.345
-4.517	19.407	1470.985	1146.890
-3.502	19.368	1470.267	1146.028
-2.487	19.330	1469.219	1144.912
-1.473	19.357	1468.488	1144.477
-0.458	19.331	1467.458	1143.451
0.556	18.469	1457.062	1132.099
1.571	15.146	1433.213	1091.844
2.586	11.695	1371.536	1023.202
3.600	10.120	1287.150	950.912
4.615	9.291	1243.742	914.048
5.629	8.306	1187.927	867.599
6.644	4.333	1109.118	789.781
7.659	1.275	1075.521	750.681
8.673	0.715	1070.444	744.315
9.688	0.623	1066.935	741.355
10.702	0.555	1065.896	740.235
11.717	0.507	1063.296	738.128
12.731	1.914	1063.150	744.838
13.746	7.015	1069.150	773.986
14.761	13.247	1078.300	811.209
15.775	16.812	1082.592	831.900
16.790	16.918	1081.611	831.595
17.804	16.004	1079.313	825.278
18.819	15.161	1077.772	819.904
19.834	14.647	1076.002	815.970
20.848	14.527	1075.248	814.742
21.863	14.297	1074.630	813.079
22.877	13.995	1073.918	810.993
23.892	13.757	1073.196	809.214
24.907	13.620	1072.528	807.973
25.921	13.728	1071.517	807.663
26.936	13.867	1070.314	807.362
27.950	13.838	1069.908	806.845
28.965	13.729	1069.414	805.870
29.980	13.837	1068.150	805.370
30.994	13.997	1067.096	805.281
32.009	14.037	1066.346	804.835
33.023	13.868	1065.734	803.484
34.038	13.971	1065.236	803.539
35.053	14.015	1064.067	802.799
36.067	13.857	1063.392	801.452
37.082	13.929	1062.164	800.805
38.096	13.943	1061.461	800.271
39.111	13.821	1061.039	799.296
40.126	13.871	1059.833	798.557
41.140	13.732	1058.974	797.171
42.155	13.792	1058.076	796.714
43.169	13.750	1056.753	795.445
44.184	13.729	1055.857	794.600
45.199	13.783	1054.432	793.715
46.213	13.711	1053.880	792.882
47.228	13.788	1053.056	792.560
48.242	13.849	1051.685	791.749
49.257	13.873	1050.471	790.880
50.271	13.854	1050.085	790.429
51.286	13.874	1048.955	789.605
52.301	13.936	1047.843	788.993
53.315	13.820	1047.343	787.998
54.330	13.862	1046.769	787.695
55.344	13.781	1045.818	786.526
56.359	13.846	1044.539	785.799
57.374	13.852	1043.674	785.107
58.388	13.767	1042.789	783.971
59.403	13.775	1041.889	783.261
60.417	13.733	1040.987	782.320
61.432	13.732	1040.321	781.742
62.447	13.843	1039.661	781.703
63.461	13.838	1038.627	780.833
64.476	13.793	1037.289	779.545
65.490	13.717	1037.454	779.242
66.505	13.720	1035.982	778.081
67.520	13.712	1035.301	777.464
68.534	13.836	1034.223	777.168
69.549	13.647	1033.958	776.015
70.563	13.695	1033.269	775.651
71.578	13.725	1032.375	775.053
72.593	13.688	1031.602	774.234
73.607	13.724	1030.683	773.643
74.622	13.626	1029.646	772.338
75.636	13.723	1028.460	771.829
76.651	13.648	1027.913	771.006
77.666	13.689	1027.332	770.689
78.680	13.682	1026.256	769.781
79.695	13.503	1026.322	768.935
80.709	13.577	1025.669	768.718
81.724	13.710	1024.498	768.387
82.739	13.779	1023.454	767.857
83.753	13.782	1022.460	767.059
84.768	13.852	1022.040	766.999
85.782	13.929	1020.785	766.342
86.797	13.824	1020.045	765.238
87.812	13.866	1019.503	764.954
88.826	13.804	1018.781	764.062
89.841	13.803	1017.983	763.388
90.855	13.896	1016.959	762.984
91.870	13.762	1016.077	761.636
92.884	13.872	1015.815	761.877
93.899	13.891	1015.018	761.301
94.914	13.928	1013.887	760.554
95.928	13.909	1013.454	760.075
96.943	13.892	1012.548	759.253
97.957	13.803	1011.795	758.212
98.972	13.864	1011.191	757.972
99.987	13.783	1010.465	756.989
101.001	13.888	1009.678	756.814
102.016	13.865	1008.850	756.022
103.030	13.873	1007.798	755.200
104.045	13.903	1006.653	754.414
105.060	13.938	1006.007	754.019
106.074	13.909	1004.918	753.008
107.089	13.945	1003.999	752.414
108.103	13.772	1003.374	751.098
109.118	13.876	1002.039	750.502
110.133	13.882	1001.323	749.924
111.147	13.805	1000.420	748.837
112.162	13.807	999.680	748.223
113.176	13.899	998.676	747.820
114.191	13.861	997.635	746.804
115.206	13.869	997.015	746.312
116.220	13.850	996.289	745.615
117.235	13.879	995.062	744.761
118.249	13.873	994.583	744.312
119.264	13.761	993.722	743.098
120.279	13.745	992.970	742.398
121.293	13.796	991.863	741.731
122.308	13.856	991.402	741.592
123.322	13.887	990.294	740.833
124.337	13.873	989.179	739.873
125.352	13.798	987.813	738.452
126.366	13.774	986.851	737.559
127.381	13.905	985.753	737.254
128.395	13.814	985.066	736.273
129.410	13.712	983.825	734.831
130.424	13.801	983.095	734.613
131.439	13.724	982.247	733.572
132.454	13.822	981.361	733.280
133.468	13.862	980.000	732.374
134.483	13.740	980.350	732.033
135.497	13.800	979.008	731.230
136.512	13.764	978.341	730.509
137.527	13.897	977.734	730.575
138.541	13.882	976.744	729.705
139.556	13.890	976.083	729.184
140.570	13.733	975.852	728.258
141.585	14.007	974.604	728.461
142.600	14.000	974.123	728.007
143.614	13.951	973.134	726.988
144.629	14.052	972.299	726.742
145.643	14.078	971.825	726.436
146.658	14.106	970.816	725.743
147.673	13.945	969.938	724.319
148.687	14.141	968.602	724.112
149.702	14.107	968.615	723.907
150.716	13.962	967.715	722.541
151.731	13.975	966.402	721.553
152.746	14.014	966.001	721.360
153.760	13.967	965.490	720.711
154.775	13.958	964.557	719.911
155.789	14.050	963.619	719.542
156.804	14.094	962.931	719.159
157.819	13.980	962.547	718.315
158.833	14.103	961.210	717.787
159.848	14.103	960.846	717.448
160.862	14.321	959.642	717.426
161.877	14.270	958.841	716.546
162.892	14.096	958.528	715.497
163.906	14.031	957.292	714.234
164.921	14.055	956.858	713.947
165.935	14.053	955.656	712.982
166.950	13.935	955.093	711.992
167.964	14.118	953.789	711.738
168.979	14.214	952.488	711.115
169.994	14.265	951.541	710.564
171.008	14.242	950.430	709.576
172.023	14.225	949.899	709.043
173.037	14.177	949.356	708.369
174.052	14.254	948.588	708.060
175.067	14.398	947.388	707.714
176.081	14.208	947.311	706.786
177.096	14.256	945.885	705.864
178.110	14.229	945.262	705.223
179.125	14.206	945.084	704.928
180.140	14.282	943.990	704.372
181.154	14.259	943.466	703.821
182.169	14.227	942.886	703.194
183.183	14.381	941.893	703.040
184.198	14.364	941.213	702.398
185.213	14.392	940.091	701.615
186.227	14.469	939.717	701.602
187.242	14.487	939.602	701.527
188.256	14.329	938.920	700.292
189.271	14.449	938.005	700.050
190.286	14.509	937.265	699.687
191.300	14.473	936.381	698.817
192.315	14.210	935.740	697.176
193.329	14.311	935.445	697.316
194.344	14.326	934.647	696.723
195.359	14.336	933.910	696.154
196.373	14.452	932.998	695.896
197.388	14.473	932.896	695.846
198.402	14.569	932.181	695.649
199.417	14.442	932.059	694.968
200.432	14.765	930.891	695.381
201.446	14.617	931.001	694.784
202.461	14.787	929.989	694.674
203.475	14.710	930.107	694.383
204.490	14.672	928.970	693.313
205.504	14.566	927.943	692.046
206.519	14.594	927.427	691.717
207.534	14.713	926.711	691.614
208.548	14.747	925.693	690.935
209.563	14.651	925.205	690.113
210.577	14.754	924.075	689.632
211.592	14.731	923.940	689.379
212.607	14.717	923.128	688.651
213.621	14.853	922.825	688.927
214.636	14.735	922.291	687.979
215.650	14.842	921.716	687.929
216.665	14.752	921.388	687.253
217.680	14.848	920.546	686.961
218.694	14.802	919.864	686.201
219.709	14.821	919.898	686.243
220.723	15.030	918.580	686.057
221.738	15.020	918.010	685.531
222.753	14.836	917.357	684.229
223.767	15.024	916.286	684.137
224.782	15.069	915.578	683.734
225.796	15.014	915.068	683.067
226.811	15.000	914.369	682.427
227.826	15.022	913.780	682.018
228.840	15.066	912.812	681.414
229.855	14.904	912.717	680.621
230.869	14.940	912.125	680.267
231.884	14.900	911.375	679.487
232.899	14.985	910.537	679.144
233.913	15.136	909.415	678.861
234.928	15.006	909.258	678.157
235.942	15.069	908.260	677.607
236.957	15.013	907.699	676.900
237.972	15.091	906.622	676.355
238.986	14.926	906.593	675.604
240.001	15.024	905.753	675.315
241.015	14.982	905.052	674.564
242.030	15.159	903.984	674.422
243.045	15.113	903.706	673.969
244.059	15.154	903.128	673.644
245.074	15.187	902.569	673.298
246.088	15.194	901.303	672.322
247.103	15.335	900.721	672.395
248.117	15.261	900.391	671.792
249.132	15.294	899.802	671.425
250.147	15.409	899.376	671.508
251.161	15.418	898.415	670.768
252.176	15.513	897.396	670.329
253.190	15.497	896.706	669.687
254.205	15.706	895.976	669.915
255.220	15.482	895.906	668.912
256.234	15.520	895.076	668.386
257.249	15.565	894.817	668.313
258.263	15.488	893.962	667.310
259.278	15.583	893.585	667.345
260.293	15.535	892.964	666.633
261.307	15.809	892.030	666.962
262.322	15.660	891.284	665.753
263.336	15.823	890.798	665.978
264.351	15.649	890.737	665.183
265.366	15.723	889.532	664.520
266.380	15.754	889.377	664.465
267.395	15.850	888.189	663.900
268.409	15.730	887.518	662.864
269.424	15.730	887.192	662.564
270.439	15.730	886.779	662.198
271.453	15.837	885.152	661.345
272.468	15.765	884.772	660.719
273.482	15.777	884.045	660.165
274.497	15.701	884.083	659.835
275.512	15.717	883.225	659.201
276.526	15.821	882.185	658.773
277.541	15.858	881.296	658.193
278.555	15.694	881.267	657.472
279.570	15.947	880.363	657.729
280.585	15.972	879.794	657.342
281.599	15.818	879.241	656.272
282.614	16.001	878.249	656.185
283.628	15.996	877.819	655.786
284.643	16.017	877.382	655.484
285.657	15.908	876.953	654.683
286.672	16.001	876.170	654.399
287.687	15.920	876.093	653.968
288.701	15.996	875.441	653.721
289.716	15.994	874.651	653.064
290.730	15.957	874.451	652.717
291.745	16.019	873.664	652.308
292.760	16.093	872.572	651.722
293.774	16.085	872.293	651.425
294.789	16.206	871.794	651.462
295.803	16.095	870.896	650.307
296.818	16.199	870.340	650.234
297.833	16.204	869.565	649.616
298.847	16.095	869.293	648.936
299.862	16.135	868.195	648.215
300.876	16.137	867.765	647.842
301.891	16.267	866.967	647.688
302.906	16.205	866.208	646.826
303.920	16.152	865.607	646.117
304.935	16.371	864.632	646.171
305.949	16.356	864.294	645.803
306.964	16.410	863.497	645.355
307.979	16.261	863.329	644.606
308.993	16.448	863.143	645.124
310.008	16.384	862.543	644.373
311.022	16.541	861.538	644.162
312.037	16.409	860.978	643.187
313.052	16.405	860.557	642.798
314.066	16.404	859.993	642.315
315.081	16.400	859.356	641.768
316.095	16.472	858.826	641.591
317.110	16.598	857.973	641.374
318.125	16.398	857.858	640.474
319.139	16.495	856.861	640.038
320.154	16.547	856.782	640.121
321.168	16.482	855.905	639.163
322.183	16.492	855.625	638.935
323.197	16.609	855.457	639.192
324.212	16.558	854.435	638.182
325.227	16.500	854.348	637.840
326.241	16.620	853.597	637.676
327.256	16.402	853.180	636.489
328.270	16.494	852.375	636.178
329.285	16.603	851.687	636.016
330.300	16.609	851.022	635.486
331.314	16.628	850.553	635.152
332.329	16.549	849.831	634.261
333.343	16.520	849.698	633.995
334.358	16.636	848.658	633.598
335.373	16.719	848.142	633.468
336.387	16.600	847.490	632.480
337.402	16.800	847.013	632.814
338.416	16.711	846.631	632.139
339.431	16.738	845.699	631.489
340.446	16.803	845.192	631.298
341.460	16.938	844.626	631.323
342.475	16.861	844.398	630.810
343.489	16.824	843.571	629.998
344.504	16.996	842.943	630.112
345.519	16.946	842.582	629.600
346.533	17.141	841.591	629.526
347.548	16.965	841.231	628.551
348.562	17.043	840.687	628.376
349.577	17.010	840.304	627.911
350.592	16.886	839.991	627.163
351.606	16.866	839.811	626.899
352.621	16.844	839.148	626.269
353.635	16.859	838.636	625.887
354.650	16.893	838.289	625.696
355.665	17.095	837.579	625.856
356.679	17.113	837.124	625.529
357.694	17.107	836.658	625.101
358.708	16.967	836.358	624.307
359.723	17.102	835.535	624.135
360.738	17.127	834.918	623.711
361.752	17.078	834.597	623.235
362.767	17.020	834.336	622.772
363.781	17.083	834.376	622.977
364.796	17.219	833.336	622.645
365.810	17.157	832.841	621.994
366.825	17.073	832.442	621.331
367.840	17.257	831.880	621.532
368.854	17.272	831.918	621.558
369.869	17.371	831.020	621.195
370.883	17.219	830.565	620.244
371.898	17.313	829.987	620.102
372.913	17.284	829.184	619.339
373.927	17.347	828.852	619.267
374.942	17.422	827.973	618.829
375.956	17.472	827.211	618.387
376.971	17.515	826.788	618.172
377.986	17.577	825.934	617.702
379.000	17.615	825.585	617.525
380.015	17.622	825.192	617.201
381.029	17.580	824.691	616.622
382.044	17.412	824.429	615.761
383.059	17.584	823.479	615.620
384.073	17.476	823.347	615.078
385.088	17.452	822.720	614.468
386.102	17.547	821.961	614.190
387.117	17.687	821.370	614.196
388.132	17.569	821.351	613.702
389.146	17.601	820.638	613.231
390.161	17.701	820.389	613.350
391.175	17.430	820.136	612.132
392.190	17.689	819.349	612.423
393.205	17.685	818.975	612.075
394.219	17.706	818.817	611.977
395.234	17.653	818.099	611.197
396.248	17.677	817.631	610.879
397.263	17.467	816.981	609.587
398.278	17.567	816.703	609.683
399.292	17.621	816.590	609.739
400.307	17.807	815.530	609.556
401.321	17.655	815.443	608.895
402.336	17.623	814.987	608.388
403.350	17.703	814.410	608.188
404.365	17.630	814.263	607.762
405.380	17.849	813.366	607.822
406.394	17.885	812.767	607.446
407.409	17.759	812.704	606.899
408.423	17.884	812.334	607.013
409.438	17.810	811.756	606.265
410.453	17.891	811.290	606.150
411.467	17.985	810.625	605.933
412.482	17.916	810.601	605.616
413.496	18.122	810.034	605.870
414.511	18.138	809.554	605.513
415.526	18.145	808.879	604.979
416.540	17.994	809.201	604.634
417.555	18.173	808.152	604.429
418.569	18.052	807.713	603.617
419.584	18.158	807.218	603.570
420.599	18.096	807.105	603.212
421.613	116.180	1300.503	1492.889
422.628	100.461	1372.347	1492.973
