DTS Sentinel unit serial number:	SN413079Multiplexer serial number:	ORYXHardware model number:	OX4-SRSoftware version number:	ORYX F/W v4.00 Oryx Data Collector v3.7.2.0data status	okinstallation	princeton_trtdifferential loss correction	single-endedforward channel	channel 3reverse channel	N/Adate	2019/09/12time	05:50:11forward acquisition time	60.00reverse acquisition time	0.00gamma	496.2192k internal	0.2321k external	0.2321temperature offset calibration	1.0033default loss term (dB/km)	0.3790temperature slope calibration	1.0000multiplexer offset coefficient	1.0000multiplexer slope coefficient	1.0000fibre end	0.00T internal ref (°C)	32.06T ext. ref 1 (°C)	1.58T ext. ref 2 (°C)	27.54length (m)	temperature (°C)	Stokes	anti-Stokes-747.200	-139.835	-0.426	-0.046
-746.185	132.333	-0.158	0.206
-745.171	50.424	-0.351	0.335
-744.156	338.374	-0.073	0.143
-743.142	61.117	-0.248	0.249
-742.127	-21.374	-0.167	0.103
-741.112	-30.251	-0.112	0.065
-740.098	-200.000	-0.035	0.303
-739.083	800.000	0.064	-0.220
-738.069	129.372	0.191	0.247
-737.054	268.538	-0.128	-0.226
-736.039	800.000	-0.061	-0.258
-735.025	-200.000	-0.008	0.326
-734.010	59.361	-0.100	-0.099
-732.996	118.789	-0.157	0.196
-731.981	-9.568	-0.166	-0.112
-730.966	23.351	-0.074	0.062
-729.952	-90.758	-0.265	0.077
-728.937	617.850	-0.185	-0.469
-727.923	800.000	-0.165	-0.516
-726.908	129.375	0.163	-0.210
-725.894	168.619	-0.109	0.156
-724.879	-118.139	0.190	0.034
-723.864	-10.651	-0.143	-0.095
-722.850	-24.942	0.056	-0.034
-721.835	-200.000	0.062	-0.362
-720.821	40.989	-0.398	-0.363
-719.806	-74.280	0.097	0.035
-718.791	-57.278	-0.193	0.086
-717.777	-167.288	-0.037	0.001
-716.762	44.448	-0.208	-0.193
-715.748	-200.000	0.182	0.000
-714.733	-63.580	0.040	-0.017
-713.718	-51.493	-0.441	0.208
-712.704	77.340	0.152	-0.164
-711.689	-197.268	-0.300	-0.002
-710.675	-200.000	-0.022	-0.399
-709.660	181.133	-0.155	-0.230
-708.645	-200.000	0.035	-0.223
-707.631	-91.946	0.305	-0.087
-706.616	-87.560	-0.274	0.084
-705.602	-107.349	0.237	-0.052
-704.587	-189.011	-0.370	0.004
-703.572	-200.000	0.036	-0.294
-702.558	-88.663	0.070	-0.021
-701.543	31.661	0.207	-0.180
-700.529	-66.658	-0.265	-0.106
-699.514	41.238	0.252	-0.230
-698.499	144.329	-0.256	0.344
-697.485	-169.976	-0.128	0.005
-696.470	-152.204	0.074	-0.005
-695.456	4.468	-0.297	-0.220
-694.441	-200.000	0.013	0.273
-693.426	-149.949	0.386	0.030
-692.412	156.793	0.160	-0.223
-691.397	581.846	0.099	0.245
-690.383	-200.000	0.006	0.066
-689.368	-52.741	0.136	0.063
-688.354	680.986	0.178	-0.467
-687.339	106.079	-0.198	0.236
-686.324	-144.066	-0.145	0.014
-685.310	-13.860	-0.224	0.146
-684.295	240.195	-0.102	0.172
-683.281	-200.000	-0.021	0.130
-682.266	-84.623	-0.125	0.040
-681.251	333.913	-0.079	-0.154
-680.237	-200.000	0.019	0.226
-679.222	-12.756	-0.418	-0.274
-678.208	-200.000	0.051	-0.332
-677.193	-200.000	0.030	0.171
-676.178	-98.175	0.178	-0.046
-675.164	-68.897	-0.328	0.128
-674.149	-49.661	-0.234	0.112
-673.135	800.000	0.097	0.384
-672.120	49.048	-0.099	-0.094
-671.105	16.994	-0.301	-0.241
-670.091	187.600	0.055	0.083
-669.076	527.537	0.058	-0.138
-668.062	-200.000	0.003	0.097
-667.047	-28.489	-0.296	-0.172
-666.032	800.000	-0.033	0.136
-665.018	-50.495	0.145	-0.069
-664.003	41.040	-0.194	-0.176
-662.989	-129.143	-0.025	0.004
-661.974	800.000	0.093	-0.264
-660.959	-3.875	0.161	-0.112
-659.945	-178.109	-0.265	-0.006
-658.930	62.623	-0.086	0.086
-657.916	-200.000	-0.015	0.136
-656.901	800.000	-0.061	-0.252
-655.886	69.230	-0.268	0.278
-654.872	-34.494	0.264	-0.146
-653.857	56.772	-0.120	-0.118
-652.843	225.922	-0.124	0.202
-651.828	-11.841	0.106	0.070
-650.814	-11.400	0.037	0.024
-649.799	292.860	-0.080	0.147
-648.784	-200.000	-0.070	-0.424
-647.770	-133.823	-0.284	0.036
-646.755	474.866	0.093	-0.212
-645.741	261.141	-0.104	-0.182
-644.726	66.002	-0.124	-0.127
-643.711	800.000	0.104	-0.325
-642.697	800.000	0.059	0.241
-641.682	-44.990	-0.268	0.134
-640.668	-188.499	0.342	-0.004
-639.653	6.884	-0.235	-0.176
-638.638	-200.000	-0.048	-0.586
-637.624	265.088	-0.164	-0.288
-636.609	-127.452	0.252	-0.037
-635.595	-200.000	-0.019	0.129
-634.580	-78.082	-0.117	0.041
-633.565	-200.000	-0.005	0.146
-632.551	-87.573	0.331	0.101
-631.536	800.000	0.094	-0.314
-630.522	-200.000	-0.039	-0.174
-629.507	95.987	0.299	0.344
-628.492	800.000	0.050	-0.188
-627.478	454.555	-0.206	0.460
-626.463	78.581	0.239	-0.257
-625.449	-120.822	-0.536	-0.091
-624.434	-110.887	0.103	-0.021
-623.419	48.353	0.159	0.150
-622.405	61.297	0.053	-0.053
-621.390	-69.052	0.129	0.050
-620.376	800.000	-0.004	-0.013
-619.361	800.000	0.023	-0.081
-618.346	295.761	-0.207	-0.381
-617.332	800.000	0.085	-0.357
-616.317	28.349	0.218	-0.186
-615.303	-82.289	-0.332	0.109
-614.288	655.361	-0.186	0.479
-613.273	-200.000	0.023	-0.177
-612.259	-21.775	0.317	-0.194
-611.244	-121.328	-0.065	-0.011
-610.230	-200.000	-0.015	-0.099
-609.215	68.500	-0.039	0.040
-608.201	-55.096	-0.125	0.057
-607.186	-49.979	-0.232	0.111
-606.171	211.402	-0.155	0.245
-605.157	-200.000	0.044	0.316
-604.142	91.297	0.040	0.046
-603.128	-64.786	0.251	-0.102
-602.113	415.623	-0.117	-0.251
-601.098	25.498	0.279	0.233
-600.084	477.721	0.097	0.221
-599.069	668.347	-0.026	-0.068
-598.055	-76.782	0.163	0.057
-597.040	-200.000	0.007	0.237
-596.025	-28.752	0.181	0.105
-595.011	-200.000	-0.022	0.465
-593.996	-150.143	-0.169	-0.013
-592.982	-94.505	-0.238	-0.065
-591.967	109.804	-0.212	-0.255
-590.952	176.111	-0.092	0.134
-589.938	-200.000	-0.031	-0.220
-588.923	233.880	0.097	-0.161
-587.909	78.484	-0.109	0.117
-586.894	-6.975	0.278	-0.190
-585.879	-35.317	0.136	0.074
-584.865	-107.299	0.273	-0.060
-583.850	262.775	-0.107	-0.187
-582.836	-200.000	0.025	0.284
-581.821	-87.309	-0.301	-0.092
-580.806	-200.000	-0.078	0.565
-579.792	-36.225	-0.331	-0.179
-578.777	-200.000	-0.029	0.290
-577.763	800.000	0.022	-0.084
-576.748	232.509	0.017	-0.029
-575.733	151.446	-0.096	0.131
-574.719	-200.000	-0.051	-0.392
-573.704	256.252	-0.023	0.040
-572.690	-113.976	0.195	-0.038
-571.675	-30.454	-0.152	0.086
-570.661	-29.428	0.045	0.026
-569.646	800.000	0.059	-0.169
-568.631	-113.341	-0.151	0.030
-567.617	-71.963	-0.406	0.152
-566.602	800.000	0.063	-0.197
-565.588	32.371	-0.100	-0.087
-564.573	-200.000	-0.008	0.171
-563.558	-200.000	-0.001	-0.228
-562.544	619.537	-0.104	-0.262
-561.529	274.290	-0.053	-0.094
-560.515	-25.457	-0.297	0.176
-559.500	-200.000	0.027	-0.129
-558.485	-177.370	-0.308	0.008
-557.471	-84.403	-0.131	0.042
-556.456	-169.173	-0.058	-0.002
-555.442	582.524	0.076	0.187
-554.427	-200.000	-0.009	-0.103
-553.412	-200.000	0.036	0.297
-552.398	43.808	-0.112	-0.103
-551.383	-30.367	0.244	-0.139
-550.369	800.000	-0.091	0.267
-549.354	32.865	-0.247	-0.215
-548.339	-200.000	0.008	-0.165
-547.325	-31.468	-0.124	0.070
-546.310	-200.000	-0.051	-0.258
-545.296	-143.808	0.102	-0.010
-544.281	-143.806	-0.435	0.041
-543.266	-103.777	0.168	-0.039
-542.252	541.100	0.049	0.117
-541.237	-200.000	0.035	0.160
-540.223	313.768	-0.244	-0.461
-539.208	23.755	0.263	-0.217
-538.193	-135.215	0.252	0.030
-537.179	36.032	0.171	0.151
-536.164	-15.811	-0.201	-0.128
-535.150	-90.428	0.118	0.034
-534.135	-95.062	0.169	-0.046
-533.121	-16.969	-0.160	0.102
-532.106	-75.603	-0.178	0.064
-531.091	383.964	-0.060	0.125
-530.077	222.694	-0.075	-0.121
-529.062	3.975	0.006	0.004
-528.048	-151.549	0.139	-0.010
-527.033	79.640	0.125	-0.134
-526.018	-44.449	0.184	0.092
-525.004	9.674	-0.159	0.120
-523.989	187.875	0.062	0.093
-522.975	-200.000	0.004	0.053
-521.960	-139.796	0.399	0.042
-520.945	81.657	-0.171	0.185
-519.931	-111.264	-0.059	0.012
-518.916	-166.508	-0.188	-0.008
-517.902	105.539	0.258	0.306
-516.887	313.771	-0.079	-0.148
-515.872	-69.211	-0.360	-0.139
-514.858	-98.706	0.439	-0.112
-513.843	485.256	0.149	-0.340
-512.829	70.145	0.065	-0.067
-511.814	-94.846	0.213	0.058
-510.799	142.899	0.037	-0.049
-509.785	800.000	-0.104	0.426
-508.770	43.883	-0.133	0.122
-507.756	-43.221	-0.332	0.168
-506.741	-33.749	-0.203	0.112
-505.726	12.462	-0.149	-0.115
-504.712	800.000	0.093	-0.331
-503.697	-59.533	0.284	-0.122
-502.683	-200.000	-0.085	0.375
-501.668	800.000	-0.062	-0.195
-500.653	-200.000	0.024	-0.131
-499.639	-36.095	0.290	0.157
-498.624	800.000	0.059	0.209
-497.610	150.765	-0.112	-0.153
-496.595	91.863	-0.124	-0.140
-495.581	54.606	0.142	0.137
-494.566	108.757	-0.187	-0.224
-493.551	-77.748	-0.364	-0.126
-492.537	-200.000	-0.033	-0.234
-491.522	-200.000	0.005	0.289
-490.508	-133.153	0.261	-0.033
-489.493	157.911	0.128	-0.177
-488.478	800.000	0.038	0.106
-487.464	-3.357	-0.287	-0.200
-486.449	-91.398	0.268	-0.077
-485.435	-200.000	-0.009	-0.501
-484.420	800.000	0.092	0.371
-483.405	-200.000	0.037	0.205
-482.391	-14.989	-0.183	0.117
-481.376	25.355	-0.084	-0.070
-480.362	-91.935	0.006	0.002
-479.347	-118.719	-0.148	-0.026
-478.332	-33.496	-0.091	0.051
-477.318	-200.000	0.013	0.268
-476.303	40.676	-0.077	0.069
-475.289	124.685	0.319	0.402
-474.274	800.000	-0.017	0.049
-473.259	-200.000	0.005	-0.028
-472.245	68.373	0.071	-0.073
-471.230	800.000	-0.006	0.028
-470.216	-200.000	0.060	0.323
-469.201	-33.781	0.073	-0.040
-468.186	-200.000	0.015	0.382
-467.172	-200.000	-0.059	-0.455
-466.157	717.502	0.069	-0.184
-465.143	-93.310	0.333	-0.092
-464.128	79.759	0.044	-0.047
-463.113	-32.856	0.081	-0.045
-462.099	-200.000	0.006	-0.093
-461.084	800.000	0.036	0.105
-460.070	-24.560	-0.064	0.038
-459.055	-200.000	0.033	0.186
-458.040	-116.875	-0.027	-0.005
-457.026	-44.446	-0.172	0.086
-456.011	-200.000	-0.008	0.195
-454.997	96.041	-0.179	-0.204
-453.982	-93.849	-0.164	0.045
-452.968	106.825	-0.252	-0.299
-451.953	51.351	-0.006	-0.006
-450.938	800.000	-0.081	-0.300
-449.924	800.000	0.010	-0.036
-448.909	-57.071	-0.431	0.190
-447.895	56.814	-0.243	-0.237
-446.880	92.872	-0.043	0.048
-445.865	9.149	-0.117	0.089
-444.851	800.000	0.050	0.169
-443.836	441.113	0.106	0.233
-442.822	36.589	0.323	0.285
-441.807	-46.753	-0.053	0.026
-440.792	-121.085	-0.207	0.035
-439.778	800.000	0.070	0.252
-438.763	800.000	0.089	-0.277
-437.749	157.681	-0.071	-0.098
-436.734	69.811	-0.260	0.268
-435.719	800.000	-0.048	0.151
-434.705	45.659	0.276	0.254
-433.690	-200.000	0.017	-0.117
-432.676	800.000	0.012	0.038
-431.661	-87.716	-0.158	0.048
-430.646	-98.466	-0.205	0.052
-429.632	800.000	-0.036	0.120
-428.617	-50.920	-0.069	-0.032
-427.603	-148.472	-0.064	0.005
-426.588	-200.000	-0.004	0.184
-425.573	145.129	0.131	0.175
-424.559	40.762	-0.053	-0.048
-423.544	17.157	0.023	-0.018
-422.530	-200.000	-0.023	-0.239
-421.515	184.892	-0.230	-0.340
-420.500	276.886	-0.094	-0.166
-419.486	800.000	-0.045	-0.193
-418.471	-22.989	0.162	-0.098
-417.457	-57.747	0.299	-0.131
-416.442	800.000	-0.069	-0.225
-415.428	781.666	-0.119	-0.326
-414.413	-10.413	0.157	0.104
-413.398	-200.000	-0.008	0.371
-412.384	229.851	0.114	0.186
-411.369	800.000	-0.083	-0.249
-410.355	49.052	-0.202	-0.189
-409.340	-200.000	-0.012	-0.096
-408.325	-55.320	0.054	0.024
-407.311	32.019	-0.083	0.072
-406.296	-8.728	0.104	0.069
-405.282	-200.000	-0.001	0.111
-404.267	-139.006	-0.457	0.049
-403.252	-80.302	0.067	0.022
-402.238	-16.853	0.137	0.087
-401.223	-105.948	-0.250	0.056
-400.209	549.416	0.107	-0.257
-399.194	215.471	-0.101	0.159
-398.179	-21.053	-0.145	-0.089
-397.165	122.805	-0.105	-0.131
-396.150	169.489	-0.262	-0.373
-395.136	-164.589	-0.436	0.020
-394.121	92.554	-0.205	0.230
-393.106	107.104	0.118	0.140
-392.092	-200.000	0.034	-0.215
-391.077	-40.477	0.413	-0.214
-390.063	-200.000	0.010	0.233
-389.048	-31.455	-0.057	-0.032
-388.033	254.534	-0.174	-0.297
-387.019	-200.000	0.000	-0.155
-386.004	-161.800	0.385	-0.020
-384.990	289.113	-0.150	-0.271
-383.975	-200.000	0.010	-0.127
-382.960	-77.979	-0.188	-0.064
-381.946	-42.139	-0.085	-0.044
-380.931	-200.000	-0.035	-0.362
-379.917	-200.000	0.025	-0.364
-378.902	-200.000	-0.220	0.000
-377.888	38.173	0.327	0.290
-376.873	83.213	0.093	-0.100
-375.858	-23.995	0.233	0.139
-374.844	800.000	0.159	0.485
-373.829	-50.331	-0.314	0.148
-372.815	-200.000	0.002	-0.074
-371.800	200.332	0.116	-0.178
-370.785	-0.745	0.250	0.176
-369.771	800.000	0.052	-0.206
-368.756	-200.000	0.006	0.054
-367.742	800.000	-0.037	0.149
-366.727	613.351	0.126	0.313
-365.712	-200.000	0.010	0.344
-364.698	-200.000	-0.009	0.231
-363.683	-80.794	0.111	0.037
-362.669	-42.266	0.325	0.166
-361.654	-200.000	-0.005	-0.206
-360.639	800.000	-0.058	-0.172
-359.625	35.906	0.250	0.219
-358.610	-200.000	-0.005	0.246
-357.596	152.755	0.195	0.265
-356.581	-3.602	-0.273	-0.189
-355.566	-121.835	0.560	-0.092
-354.552	235.198	0.225	-0.369
-353.537	-200.000	-0.043	0.238
-352.523	-200.000	-0.000	-0.084
-351.508	-150.335	-0.090	-0.007
-350.493	-161.633	-0.120	0.006
-349.479	-122.840	-0.099	-0.016
-348.464	143.965	0.056	0.074
-347.450	-46.709	0.177	0.086
-346.435	202.819	-0.040	0.062
-345.420	-200.000	-0.000	0.027
-344.406	-116.278	0.090	-0.017
-343.391	26.664	0.013	-0.011
-342.377	159.874	0.120	0.166
-341.362	-152.271	0.160	0.011
-340.348	55.650	-0.279	0.269
-339.333	671.576	0.074	-0.191
-338.318	245.145	0.063	-0.105
-337.304	98.328	0.351	-0.402
-336.289	-23.577	0.064	0.038
-335.275	151.035	0.142	-0.192
-334.260	254.474	0.180	-0.306
-333.245	392.819	-0.112	0.231
-332.231	59.136	-0.092	-0.090
-331.216	309.985	-0.073	-0.136
-330.202	78.197	-0.171	0.182
-329.187	-80.570	-0.199	0.066
-328.172	103.275	-0.113	0.131
-327.158	800.000	0.179	0.501
-326.143	-124.093	0.432	0.067
-325.129	0.218	-0.173	-0.123
-324.114	-72.111	0.272	0.100
-323.099	-73.187	0.166	-0.061
-322.085	281.875	-0.130	0.231
-321.070	-113.615	0.139	0.027
-320.056	-40.620	-0.147	-0.076
-319.041	-25.636	0.071	0.042
-318.026	-39.973	-0.275	0.143
-317.012	800.000	0.059	0.181
-315.997	-28.498	0.046	-0.026
-314.983	15.969	-0.035	-0.028
-313.968	44.112	0.091	-0.083
-312.953	534.350	-0.053	0.124
-311.939	16.341	-0.146	0.114
-310.924	-200.000	0.001	0.141
-309.910	-15.326	-0.134	0.085
-308.895	35.697	0.144	-0.126
-307.880	800.000	0.025	-0.072
-306.866	386.657	-0.148	-0.304
-305.851	-200.000	-0.032	-0.473
-304.837	154.582	0.138	0.189
-303.822	178.571	-0.079	0.114
-302.807	-12.846	0.188	-0.122
-301.793	800.000	-0.072	0.234
-300.778	-23.804	-0.171	0.101
-299.764	800.000	-0.015	-0.043
-298.749	216.439	0.186	-0.294
-297.735	800.000	0.105	0.323
-296.720	-78.211	-0.134	0.046
-295.705	-179.314	0.277	0.006
-294.691	-105.966	0.127	-0.028
-293.676	116.734	-0.005	0.007
-292.662	-200.000	-0.012	-0.086
-291.647	800.000	0.089	-0.326
-290.632	-118.668	0.162	-0.028
-289.618	705.940	-0.043	0.113
-288.603	-200.000	-0.021	-0.173
-287.589	-200.000	0.005	0.044
-286.574	151.679	-0.137	0.185
-285.559	800.000	-0.070	0.282
-284.545	41.458	-0.365	-0.328
-283.530	-200.000	0.037	0.218
-282.516	74.329	0.143	0.149
-281.501	-35.348	0.144	0.078
-280.486	-200.000	-0.023	0.281
-279.472	-200.000	-0.057	0.295
-278.457	-200.000	-0.031	-0.247
-277.443	-63.398	-0.085	-0.035
-276.428	260.678	0.105	0.180
-275.413	676.508	0.035	-0.089
-274.399	800.000	0.078	-0.262
-273.384	375.286	0.071	0.144
-272.370	-19.146	0.165	0.102
-271.355	57.642	0.144	-0.140
-270.340	-4.364	-0.155	0.107
-269.326	161.663	0.165	-0.229
-268.311	341.000	-0.155	-0.300
-267.297	-68.165	-0.202	-0.078
-266.282	20.107	0.162	0.129
-265.267	-131.230	-0.222	-0.029
-264.253	601.193	-0.073	0.180
-263.238	-200.000	0.025	0.206
-262.224	34.621	-0.273	0.236
-261.209	198.147	-0.013	-0.020
-260.195	56.859	0.317	-0.306
-259.180	-169.584	0.222	-0.008
-258.165	-139.119	0.105	-0.011
-257.151	429.052	0.118	-0.252
-256.136	221.507	0.041	0.065
-255.122	-5.752	0.308	-0.209
-254.107	-130.614	0.153	-0.020
-253.092	519.024	0.042	-0.098
-252.078	160.552	-0.052	0.072
-251.063	72.642	-0.194	0.201
-250.049	800.000	-0.059	0.179
-249.034	226.212	-0.049	0.078
-248.019	-200.000	-0.051	-0.256
-247.005	250.409	-0.093	-0.156
-245.990	3.647	0.284	0.206
-244.976	302.297	0.190	0.348
-243.961	-8.169	-0.289	-0.193
-242.946	27.933	0.119	0.100
-241.932	417.116	-0.084	0.178
-240.917	655.689	0.076	-0.194
-239.903	-49.137	0.303	-0.144
-238.888	-0.003	0.275	-0.194
-237.873	478.136	0.031	-0.070
-236.859	-200.000	0.031	-0.167
-235.844	-67.980	0.193	0.075
-234.830	548.414	-0.154	0.365
-233.815	-37.980	-0.242	-0.128
-232.800	2.596	-0.206	-0.148
-231.786	-31.420	0.327	-0.182
-230.771	-200.000	-0.034	0.162
-229.757	-114.332	-0.381	-0.073
-228.742	42.791	-0.104	-0.093
-227.727	-121.736	-0.224	0.037
-226.713	-40.466	0.148	-0.076
-225.698	103.809	-0.149	0.173
-224.684	375.884	0.036	0.073
-223.669	78.670	-0.081	0.085
-222.655	-91.628	-0.083	0.023
-221.640	-200.000	-0.025	0.128
-220.625	358.361	0.121	-0.239
-219.611	-200.000	-0.003	0.161
-218.596	-109.752	0.277	-0.058
-217.582	159.327	0.064	-0.088
-216.567	-21.260	-0.174	-0.105
-215.552	782.714	0.154	0.419
-214.538	159.261	-0.163	-0.224
-213.523	-112.926	-0.026	0.005
-212.509	-127.605	-0.173	-0.025
-211.494	-200.000	0.014	-0.243
-210.479	-200.000	-0.035	-0.189
-209.465	199.942	0.208	-0.317
-208.450	-200.000	-0.018	0.323
-207.436	-58.413	0.133	0.057
-206.421	-35.976	0.124	-0.066
-205.406	-200.000	-0.001	-0.357
-204.392	-169.858	-0.213	-0.008
-203.377	-200.000	0.013	-0.057
-202.363	-54.343	-0.309	0.139
-201.348	800.000	0.042	-0.118
-200.333	-116.491	0.207	0.038
-199.319	800.000	0.073	-0.217
-198.304	-131.175	0.402	0.053
-197.290	-123.020	0.195	-0.031
-196.275	-200.000	-0.077	0.381
-195.260	800.000	-0.043	-0.141
-194.246	-175.515	0.292	-0.008
-193.231	-200.000	-0.011	0.080
-192.217	800.000	-0.059	-0.246
-191.202	124.259	0.060	-0.074
-190.187	-36.833	0.272	0.144
-189.173	191.312	0.086	0.128
-188.158	42.087	0.212	0.190
-187.144	-118.405	-0.033	0.006
-186.129	-90.193	0.303	0.087
-185.114	-43.380	-0.474	0.237
-184.100	-148.215	-0.340	-0.028
-183.085	-90.931	0.076	0.022
-182.071	-200.000	-0.111	-0.594
-181.056	800.000	-0.086	0.282
-180.042	239.427	0.038	-0.063
-179.027	353.066	-0.141	-0.277
-178.012	121.164	-0.214	-0.263
-176.998	-200.000	0.051	-0.334
-175.983	-200.000	-0.004	-0.066
-174.969	151.945	-0.095	-0.128
-173.954	398.891	0.112	0.233
-172.939	82.890	-0.140	-0.150
-171.925	170.124	-0.216	0.306
-170.910	30.331	0.260	0.220
-169.896	290.379	-0.054	0.096
-168.881	-19.088	0.404	0.248
-167.866	114.747	-0.057	0.069
-166.852	96.711	-0.244	0.276
-165.837	111.636	0.105	0.125
-164.823	-176.803	0.061	0.002
-163.808	-5.860	0.095	-0.064
-162.793	-200.000	-0.046	0.311
-161.779	-29.669	0.237	0.134
-160.764	-146.865	0.394	0.034
-159.750	-159.264	-0.534	-0.030
-158.735	-200.000	-0.063	-0.383
-157.720	800.000	-0.012	-0.041
-156.706	-200.000	-0.006	0.279
-155.691	259.894	0.151	0.258
-154.677	-136.357	0.260	-0.030
-153.662	-200.000	0.019	0.109
-152.647	-47.228	-0.275	0.132
-151.633	-65.355	0.219	0.087
-150.618	-95.816	0.076	-0.020
-149.604	-7.377	-0.206	0.137
-148.589	189.547	-0.047	-0.069
-147.574	19.120	-0.069	-0.055
-146.560	-82.468	0.221	0.071
-145.545	-200.000	0.011	-0.247
-144.531	28.902	-0.154	-0.129
-143.516	-121.208	-0.371	-0.061
-142.502	509.608	0.179	0.410
-141.487	-73.398	0.331	-0.120
-140.472	364.703	-0.054	-0.107
-139.458	800.000	0.057	0.185
-138.443	-184.517	0.105	0.002
-137.429	-200.000	-0.001	-0.178
-136.414	110.822	0.285	0.338
-135.399	97.745	-0.062	0.070
-134.385	-160.311	-0.361	-0.019
-133.370	56.498	-0.173	0.166
-132.356	483.788	-0.128	0.288
-131.341	-37.111	0.131	-0.069
-130.326	-200.000	0.114	0.545
-129.312	93.294	-0.079	0.088
-128.297	-68.242	0.079	-0.030
-127.283	633.210	-0.026	0.064
-126.268	158.940	0.155	-0.213
-125.253	-15.695	0.212	-0.134
-124.239	334.385	-0.186	-0.355
-123.224	30.326	0.251	-0.211
-122.210	-200.000	-0.003	-0.256
-121.195	800.000	-0.078	0.235
-120.180	-139.376	-0.340	-0.036
-119.166	-95.844	-0.125	0.033
-118.151	35.582	-0.059	-0.051
-117.137	800.000	-0.108	0.362
-116.122	-126.107	-0.218	0.032
-115.107	147.921	-0.190	-0.253
-114.093	-76.246	0.011	-0.004
-113.078	48.910	0.078	0.072
-112.064	-162.926	-0.432	-0.021
-111.049	1.764	-0.125	-0.089
-110.034	123.409	-0.045	0.055
-109.020	288.141	0.175	0.312
-108.005	74.990	0.113	0.118
-106.991	194.024	0.045	0.067
-105.976	800.000	0.054	0.168
-104.962	162.226	0.111	0.153
-103.947	117.861	-0.232	-0.282
-102.932	-93.015	0.129	-0.036
-101.918	-176.061	0.226	-0.006
-100.903	-85.247	0.131	-0.040
-99.889	-151.095	0.117	-0.009
-98.874	115.150	0.166	0.199
-97.859	-200.000	-0.433	-0.002
-96.845	800.000	0.099	0.418
-95.830	-44.065	0.228	-0.113
-94.816	-68.455	-0.054	-0.021
-93.801	20.815	0.087	-0.069
-92.786	13.881	0.144	-0.110
-91.772	-160.021	0.293	0.016
-90.757	157.463	0.223	-0.305
-89.743	47.899	0.206	0.189
-88.728	270.604	-0.029	-0.050
-87.713	-27.681	0.125	0.071
-86.699	800.000	0.085	0.342
-85.684	-45.226	0.203	0.099
-84.670	252.701	0.116	0.195
-83.655	-200.000	-0.037	-0.217
-82.640	-38.802	0.390	-0.202
-81.626	317.438	-0.071	0.133
-80.611	-185.962	-0.225	0.003
-79.597	-200.000	-0.015	-0.139
-78.582	-107.943	0.450	0.096
-77.567	216.723	-0.109	0.170
-76.553	39.459	0.223	0.197
-75.538	800.000	0.094	-0.364
-74.524	-79.703	-0.038	-0.013
-73.509	198.423	-0.095	0.143
-72.494	187.711	-0.084	-0.123
-71.480	-119.867	-0.097	0.017
-70.465	800.000	0.085	-0.308
-69.451	-56.775	0.124	0.054
-68.436	-200.000	-0.025	-0.475
-67.422	-200.000	0.031	0.205
-66.407	4.871	-0.127	0.092
-65.392	51.152	-0.129	-0.120
-64.378	-152.777	0.324	-0.023
-63.363	-97.820	0.237	0.060
-62.349	-200.000	0.006	0.068
-61.334	108.022	-0.961	-1.127
-60.319	76.323	0.479	0.499
-59.305	767.122	-0.329	-0.881
-58.290	223.389	0.410	0.650
-57.276	401.780	0.725	1.499
-56.261	-200.000	96.270	596.946
-55.246	565.362	1371.030	3270.773
-54.232	161.343	2548.766	3506.977
-53.217	112.286	2161.900	2572.129
-52.203	42.757	1706.475	1529.262
-51.188	35.270	1520.061	1311.190
-50.173	32.793	1493.983	1271.967
-49.159	51.817	1542.355	1443.889
-48.144	53.590	1560.401	1472.874
-47.130	35.476	1519.634	1312.020
-46.115	32.396	1505.083	1278.516
-45.100	32.315	1501.533	1274.900
-44.086	32.235	1500.130	1273.118
-43.071	32.118	1498.078	1270.535
-42.057	32.078	1496.283	1268.693
-41.042	32.195	1494.613	1268.015
-40.027	32.106	1493.668	1266.562
-39.013	31.996	1492.236	1264.553
-37.998	31.955	1490.863	1263.063
-36.984	32.121	1489.605	1263.064
-35.969	32.131	1488.289	1261.967
-34.954	32.082	1486.815	1260.335
-33.940	32.100	1485.549	1259.336
-32.925	32.116	1483.828	1257.936
-31.911	32.006	1483.355	1256.745
-30.896	32.122	1481.399	1255.815
-29.881	32.234	1479.624	1255.009
-28.867	32.157	1478.755	1253.705
-27.852	32.087	1477.627	1252.236
-26.838	32.061	1476.197	1250.797
-25.823	32.152	1474.526	1249.938
-24.809	32.023	1472.839	1247.604
-23.794	32.113	1470.973	1246.573
-22.779	32.063	1470.372	1245.683
-21.765	32.062	1469.260	1244.684
-20.750	32.193	1467.865	1244.318
-19.736	32.047	1466.694	1242.311
-18.721	32.082	1465.379	1241.379
-17.706	32.080	1464.541	1240.605
-16.692	32.125	1463.463	1239.942
-15.677	32.080	1462.478	1238.759
-14.663	32.033	1461.361	1237.456
-13.648	32.073	1460.398	1236.856
-12.633	31.941	1459.986	1235.584
-11.619	31.998	1458.985	1235.065
-10.604	32.089	1457.636	1234.474
-9.590	31.976	1457.486	1233.551
-8.575	32.119	1455.790	1233.007
-7.560	32.034	1455.163	1231.869
-6.546	31.942	1454.840	1230.944
-5.531	31.958	1453.805	1230.124
-4.517	31.853	1452.835	1228.564
-3.502	31.974	1451.320	1228.027
-2.487	31.947	1450.769	1227.340
-1.473	31.989	1449.194	1226.231
-0.458	32.007	1447.990	1225.282
0.556	31.966	1438.430	1214.706
1.571	29.221	1413.584	1176.128
2.586	26.007	1358.406	1110.365
3.600	24.564	1278.947	1036.954
4.615	23.202	1232.047	991.217
5.629	19.579	1173.275	924.493
6.644	9.716	1086.636	807.009
7.659	2.666	1045.174	742.115
8.673	1.806	1039.589	733.941
9.688	1.676	1036.666	731.188
10.702	1.463	1035.107	729.006
11.717	1.356	1033.208	727.092
12.731	4.409	1035.698	743.412
13.746	14.079	1049.948	800.325
14.761	22.257	1060.952	848.257
15.775	24.503	1063.385	860.971
16.790	24.980	1063.118	862.977
17.804	24.867	1061.862	861.336
18.819	24.775	1061.049	860.158
19.834	24.862	1060.254	859.856
20.848	25.021	1060.136	860.447
21.863	24.977	1060.161	860.179
22.877	24.846	1060.036	859.375
23.892	24.892	1059.213	858.849
24.907	24.939	1058.217	858.192
25.921	24.878	1057.323	857.099
26.936	24.863	1056.801	856.529
27.950	24.923	1055.168	855.417
28.965	24.819	1054.389	854.215
29.980	24.731	1052.980	852.574
30.994	24.647	1051.757	851.111
32.009	24.954	1050.913	851.815
33.023	25.081	1050.406	851.933
34.038	24.796	1049.237	849.553
35.053	24.789	1048.620	848.947
36.067	24.998	1047.724	849.137
37.082	24.903	1047.122	848.122
38.096	24.977	1046.280	847.719
39.111	25.172	1045.550	847.974
40.126	25.263	1044.707	847.644
41.140	25.113	1043.850	846.165
42.155	24.859	1041.918	843.325
43.169	24.523	1041.112	841.015
44.184	24.449	1040.294	839.936
45.199	24.565	1039.146	839.481
46.213	24.631	1037.942	838.741
47.228	24.573	1037.381	837.941
48.242	24.727	1036.441	837.829
49.257	24.882	1035.369	837.617
50.271	24.855	1034.595	836.790
51.286	24.942	1034.163	836.770
52.301	24.967	1033.421	836.212
53.315	24.919	1033.054	835.620
54.330	25.029	1032.409	835.534
55.344	24.779	1031.516	833.575
56.359	24.879	1030.212	832.912
57.374	24.884	1029.655	832.413
58.388	24.745	1028.673	830.896
59.403	24.711	1027.994	830.120
60.417	24.791	1026.644	829.323
61.432	24.437	1026.477	827.475
62.447	24.457	1025.965	827.081
63.461	24.843	1024.796	827.854
64.476	24.670	1024.349	826.620
65.490	24.717	1023.328	825.941
66.505	24.563	1022.418	824.422
67.520	24.539	1022.050	823.940
68.534	24.838	1021.091	824.471
69.549	24.608	1019.899	822.381
70.563	24.250	1019.025	819.956
71.578	24.172	1018.145	818.815
72.593	24.229	1017.203	818.246
73.607	24.078	1015.594	816.188
74.622	24.036	1015.184	815.592
75.636	24.345	1015.013	816.800
76.651	24.583	1013.696	816.755
77.666	24.389	1013.336	815.506
78.680	24.325	1012.535	814.497
79.695	24.363	1011.590	813.840
80.709	24.464	1010.880	813.657
81.724	24.556	1010.438	813.648
82.739	24.541	1009.349	812.633
83.753	24.433	1009.091	811.860
84.768	24.805	1008.216	812.773
85.782	25.138	1007.473	813.617
86.797	25.144	1007.329	813.453
87.812	25.297	1005.704	812.764
88.826	24.931	1005.101	810.548
89.841	25.007	1004.230	810.114
90.855	25.090	1003.605	809.914
91.870	25.254	1002.872	809.994
92.884	25.040	1002.302	808.495
93.899	25.029	1001.206	807.492
94.914	25.027	999.825	806.296
95.928	25.124	999.376	806.298
96.943	25.153	998.589	805.724
97.957	24.847	997.266	803.212
98.972	24.631	996.111	801.240
99.987	24.469	995.021	799.568
101.001	24.599	994.263	799.468
102.016	24.888	994.109	800.567
103.030	24.990	993.193	800.216
104.045	24.851	992.273	798.784
105.060	24.524	990.998	796.227
106.074	24.593	989.375	795.161
107.089	24.622	988.641	794.628
108.103	24.934	988.391	795.745
109.118	24.998	987.837	795.512
110.133	24.588	986.490	792.537
111.147	24.637	985.278	791.712
112.162	24.578	983.979	790.337
113.176	24.290	983.061	788.257
114.191	24.412	982.661	788.406
115.206	24.518	981.734	788.059
116.220	24.278	980.561	785.992
117.235	24.003	979.836	784.127
118.249	24.200	979.204	784.421
119.264	24.383	978.398	784.511
120.279	24.254	977.375	783.053
121.293	24.244	976.805	782.483
122.308	24.391	975.696	782.172
123.322	24.365	975.162	781.559
124.337	24.264	973.787	779.948
125.352	24.066	972.988	778.370
126.366	23.717	971.329	775.451
127.381	23.394	969.848	772.793
128.395	24.136	969.540	775.714
129.410	24.590	969.647	777.707
130.424	24.775	969.184	778.070
131.439	24.837	967.891	777.234
132.454	24.827	966.979	776.389
133.468	24.816	966.284	775.716
134.483	24.702	965.487	774.512
135.497	24.747	965.196	774.405
136.512	24.960	964.349	774.577
137.527	25.028	963.461	774.092
138.541	25.041	962.716	773.479
139.556	25.071	961.741	772.757
140.570	25.065	961.068	772.121
141.585	25.037	960.323	771.336
142.600	25.160	959.488	771.127
143.614	25.124	958.666	770.240
144.629	25.195	958.046	769.979
145.643	25.459	957.427	770.547
146.658	25.190	956.277	768.403
147.673	25.125	954.999	767.030
148.687	24.999	953.757	765.424
149.702	24.895	952.880	764.208
150.716	24.918	951.732	763.318
151.731	24.774	951.275	762.272
152.746	24.804	950.751	761.910
153.760	25.054	950.022	762.325
154.775	25.165	949.483	762.297
155.789	25.195	948.452	761.528
156.804	25.252	947.473	760.917
157.819	25.132	946.373	759.456
158.833	25.139	945.708	758.888
159.848	25.305	945.201	759.116
160.862	25.401	944.129	758.593
161.877	25.269	943.180	757.203
162.892	25.138	942.307	755.884
163.906	25.284	941.073	755.441
164.921	25.279	940.402	754.816
165.935	25.186	939.369	753.529
166.950	25.397	938.149	753.367
167.964	25.256	937.697	752.349
168.979	25.213	936.363	751.032
169.994	25.060	935.659	749.761
171.008	24.906	934.749	748.323
172.023	25.177	933.898	748.706
173.037	25.356	933.195	748.821
174.052	25.189	931.919	747.035
175.067	24.892	931.082	745.065
176.081	24.959	930.294	744.645
177.096	24.825	929.744	743.583
178.110	24.966	928.837	743.376
179.125	24.790	927.882	741.819
180.140	24.516	926.396	739.428
181.154	24.587	925.555	738.984
182.169	24.630	925.884	739.361
183.183	24.873	925.087	739.665
184.198	25.234	924.765	740.833
185.213	25.144	924.068	739.834
186.227	25.049	923.373	738.824
187.242	25.157	922.850	738.783
188.256	25.336	922.369	739.070
189.271	25.331	921.404	738.210
190.286	25.436	920.695	738.007
191.300	25.276	919.619	736.423
192.315	24.505	918.567	732.355
193.329	23.792	916.741	727.917
194.344	23.260	916.182	725.229
195.359	24.006	916.050	728.114
196.373	24.837	916.694	731.962
197.388	25.120	916.361	732.788
198.402	25.104	915.718	732.143
199.417	25.152	914.959	731.669
200.432	25.177	914.096	731.014
201.446	25.066	913.794	730.259
202.461	24.566	913.371	727.816
203.475	24.846	912.445	728.154
204.490	24.309	911.212	724.924
205.504	23.076	909.260	718.301
206.519	23.608	909.107	720.277
207.534	24.462	909.544	724.024
208.548	24.685	908.610	724.122
209.563	24.940	908.750	725.201
210.577	25.048	907.784	724.802
211.592	24.840	906.720	723.051
212.607	25.165	907.039	724.553
213.621	25.286	906.529	724.571
214.636	25.265	905.738	723.791
215.650	25.221	905.326	723.217
216.665	25.231	904.850	722.814
217.680	25.175	904.375	722.144
218.694	25.379	903.221	721.980
219.709	24.989	902.560	719.819
220.723	24.712	901.816	718.053
221.738	24.903	901.411	718.433
222.753	24.948	900.832	718.086
223.767	24.883	900.292	717.332
224.782	25.036	899.559	717.300
225.796	25.262	899.304	717.936
226.811	25.318	898.447	717.411
227.826	24.954	897.116	714.832
228.840	24.163	895.664	710.460
229.855	24.245	894.762	710.006
230.869	24.392	894.680	710.464
231.884	23.961	893.514	707.762
232.899	24.061	893.294	707.923
233.913	24.877	893.681	711.413
234.928	25.071	893.150	711.697
235.942	24.918	892.365	710.402
236.957	24.983	891.641	710.019
237.972	24.621	890.513	707.626
238.986	24.483	890.264	706.819
240.001	24.728	889.292	706.954
241.015	24.724	888.863	706.532
242.030	24.789	888.454	706.402
243.045	25.199	887.362	707.087
244.059	25.125	887.173	706.584
245.074	25.253	887.046	706.923
246.088	25.059	886.576	705.723
247.103	24.740	885.137	703.260
248.117	24.725	884.683	702.778
249.132	25.287	884.747	704.977
250.147	25.691	884.383	706.211
251.161	25.742	884.359	706.328
252.176	25.944	883.601	706.450
253.190	25.943	882.947	705.864
254.205	25.692	883.045	704.895
255.220	26.052	882.654	705.929
256.234	26.139	881.437	705.233
257.249	25.978	880.852	704.076
258.263	25.849	880.336	703.098
259.278	25.924	879.228	702.443
260.293	26.002	879.245	702.698
261.307	26.134	878.483	702.538
262.322	26.014	877.790	701.455
263.336	25.790	877.427	700.233
264.351	25.360	875.990	697.356
265.366	24.291	873.790	691.400
266.380	23.939	872.529	688.978
267.395	24.709	873.538	692.699
268.409	25.550	873.610	695.951
269.424	25.506	872.663	694.965
270.439	25.592	872.249	694.906
271.453	25.805	872.013	695.478
272.468	25.786	870.968	694.509
273.482	25.927	870.741	694.810
274.497	26.034	870.214	694.741
275.512	25.846	868.894	692.903
276.526	25.265	867.793	689.732
277.541	25.374	867.560	689.905
278.555	25.800	867.477	691.412
279.570	25.646	866.966	690.352
280.585	25.578	865.820	689.120
281.599	25.547	865.630	688.788
282.614	25.666	864.894	688.597
283.628	25.174	863.667	685.677
284.643	24.875	863.286	684.172
285.657	25.315	863.017	685.578
286.672	25.214	861.984	684.312
287.687	24.719	861.259	681.792
288.701	25.032	861.266	682.929
289.716	25.404	861.152	684.196
290.730	25.123	859.886	682.058
291.745	24.998	859.192	680.972
292.760	24.932	858.304	679.958
293.774	24.546	858.250	678.390
294.789	25.677	858.438	682.774
295.803	26.446	858.141	685.392
296.818	26.425	857.821	684.994
297.833	26.317	857.671	684.407
298.847	26.070	856.224	682.257
299.862	25.715	855.658	680.405
300.876	25.915	855.320	680.829
301.891	26.249	854.725	681.557
302.906	26.290	854.494	681.468
303.920	25.936	852.684	678.631
304.935	25.827	852.186	677.764
305.949	26.206	851.855	678.868
306.964	26.292	852.013	679.254
307.979	26.118	851.024	677.754
308.993	26.007	850.797	677.096
310.008	26.421	850.504	678.357
311.022	26.487	849.603	677.824
312.037	26.051	849.659	676.174
313.052	26.007	849.048	675.465
314.066	25.977	847.906	674.383
315.081	25.265	846.333	670.415
316.095	24.466	845.318	666.568
317.110	25.052	845.663	668.971
318.125	25.913	845.375	671.895
319.139	25.377	844.736	669.330
320.154	24.287	842.994	663.833
321.168	23.878	841.965	661.445
322.183	24.476	842.219	663.809
323.197	25.483	842.533	667.744
324.212	25.711	842.138	668.218
325.227	25.956	841.848	668.835
326.241	26.109	841.471	669.044
327.256	25.854	840.553	667.310
328.270	25.923	840.089	667.138
329.285	25.694	839.758	665.969
330.300	25.675	838.307	664.691
331.314	25.487	837.835	663.563
332.329	25.638	837.053	663.441
333.343	26.023	837.055	664.804
334.358	26.300	836.939	665.674
335.373	26.217	836.066	664.616
336.387	26.188	835.959	664.365
337.402	26.384	835.663	664.792
338.416	26.693	834.994	665.337
339.431	26.606	834.514	664.576
340.446	26.636	834.121	664.312
341.460	26.824	833.817	664.700
342.475	26.723	832.904	663.543
343.489	26.576	832.096	662.304
344.504	26.598	832.011	662.258
345.519	26.934	831.548	663.059
346.533	27.132	831.119	663.383
347.548	27.000	831.020	662.763
348.562	27.104	830.126	662.369
349.577	26.958	829.525	661.300
350.592	26.869	829.108	660.586
351.606	27.058	828.294	660.564
352.621	26.918	828.186	659.912
353.635	26.786	827.447	658.783
354.650	26.715	826.893	658.028
355.665	26.507	825.360	655.995
356.679	25.334	824.285	650.834
357.694	25.258	823.804	650.120
358.708	25.887	823.963	652.467
359.723	25.879	823.338	651.887
360.738	26.022	823.194	652.230
361.752	26.495	823.006	653.734
362.767	26.547	822.423	653.401
363.781	26.793	822.623	654.390
364.796	27.246	822.127	655.569
365.810	27.281	821.780	655.362
366.825	27.417	821.425	655.512
367.840	27.302	821.600	655.180
368.854	27.154	820.811	653.958
369.869	26.748	819.540	651.430
370.883	26.587	818.927	650.307
371.898	26.714	818.272	650.184
372.913	26.470	817.941	648.989
373.927	26.609	817.201	648.843
374.942	26.817	816.709	649.137
375.956	26.956	816.093	649.089
376.971	27.028	815.414	648.749
377.986	27.114	815.089	648.740
379.000	27.222	814.493	648.594
380.015	27.431	814.093	648.963
381.029	27.103	813.448	647.224
382.044	27.104	812.592	646.488
383.059	27.241	812.650	646.963
384.073	27.167	812.003	646.127
385.088	27.407	811.455	646.489
386.102	27.351	810.609	645.559
387.117	27.177	809.831	644.263
388.132	27.065	809.415	643.479
389.146	26.918	808.535	642.202
390.161	26.184	808.073	639.181
391.175	26.330	807.637	639.296
392.190	26.845	807.859	641.238
393.205	26.942	806.763	640.655
394.219	25.916	805.331	635.841
395.234	24.302	803.034	628.292
396.248	23.479	802.367	624.816
397.263	24.539	803.216	629.156
398.278	26.505	804.226	636.818
399.292	26.932	804.631	638.586
400.307	26.527	803.941	636.559
401.321	26.414	803.077	635.422
402.336	26.569	802.728	635.633
403.350	26.836	802.843	636.605
404.365	27.374	802.651	638.284
405.380	27.629	802.373	638.898
406.394	27.771	802.563	639.491
407.409	27.875	802.206	639.515
408.423	28.096	801.144	639.384
409.438	27.844	800.605	638.018
410.453	27.861	800.520	637.951
411.467	27.931	800.231	637.911
412.482	27.848	799.508	636.989
413.496	27.822	798.685	636.186
414.511	28.076	798.437	636.814
415.526	28.007	797.975	636.152
416.540	28.072	797.905	636.265
417.555	28.025	797.200	635.482
418.569	27.661	796.508	633.611
419.584	27.667	795.667	632.907
420.599	27.653	795.293	632.506
421.613	110.259	1285.905	1459.027
422.628	94.918	1357.384	1459.124
