DTS Sentinel unit serial number:	SN413079Multiplexer serial number:	ORYXHardware model number:	OX4-SRSoftware version number:	ORYX F/W v4.00 Oryx Data Collector v3.7.2.0data status	okinstallation	princeton_trtdifferential loss correction	single-endedforward channel	channel 3reverse channel	N/Adate	2019/09/14time	05:04:35forward acquisition time	60.00reverse acquisition time	0.00gamma	496.2192k internal	0.2337k external	0.2337temperature offset calibration	1.0052default loss term (dB/km)	0.3790temperature slope calibration	1.0000multiplexer offset coefficient	1.0000multiplexer slope coefficient	1.0000fibre end	0.00T internal ref (°C)	26.89T ext. ref 1 (°C)	3.39T ext. ref 2 (°C)	21.99length (m)	temperature (°C)	Stokes	anti-Stokes-747.200	-49.965	0.226	0.107
-746.185	-7.161	-0.268	0.182
-745.171	800.000	0.099	0.362
-744.156	61.586	-0.189	0.188
-743.142	800.000	-0.023	0.065
-742.127	22.789	0.204	0.168
-741.112	-200.000	0.042	-0.192
-740.098	800.000	-0.137	0.398
-739.083	69.636	0.514	-0.531
-738.069	-200.000	-0.056	-0.296
-737.054	800.000	0.086	-0.277
-736.039	-44.228	-0.276	0.139
-735.025	551.169	0.102	0.246
-734.010	-20.810	-0.307	-0.189
-732.996	326.964	-0.085	-0.163
-731.981	-16.902	-0.093	-0.059
-730.966	17.548	-0.117	-0.093
-729.952	-16.833	-0.118	-0.075
-728.937	-200.000	0.008	-0.122
-727.923	-120.155	-0.181	0.031
-726.908	-132.943	-0.199	-0.025
-725.894	165.113	-0.102	0.145
-724.879	-200.000	-0.051	-0.233
-723.864	178.747	-0.080	-0.117
-722.850	-200.000	0.057	-0.257
-721.835	-66.784	0.191	-0.076
-720.821	43.662	-0.068	-0.062
-719.806	-70.282	-0.117	-0.045
-718.791	307.160	-0.102	-0.190
-717.777	-48.476	-0.286	-0.138
-716.762	-95.847	-0.387	0.104
-715.748	-97.257	0.192	-0.050
-714.733	278.661	0.207	-0.369
-713.718	-120.606	-0.319	0.054
-712.704	-200.000	0.009	0.131
-711.689	-200.000	0.008	0.145
-710.675	17.831	-0.119	0.095
-709.660	800.000	-0.085	-0.253
-708.645	-90.992	0.206	-0.059
-707.631	-200.000	0.007	-0.244
-706.616	-39.061	-0.195	0.103
-705.602	103.135	-0.037	-0.043
-704.587	800.000	0.125	-0.455
-703.572	28.175	0.051	0.043
-702.558	43.182	0.277	-0.253
-701.543	108.407	-0.155	-0.185
-700.529	19.912	-0.351	0.284
-699.514	4.867	-0.155	0.114
-698.499	-77.211	-0.280	-0.098
-697.485	-200.000	0.010	0.192
-696.470	800.000	0.016	-0.057
-695.456	-200.000	-0.049	0.345
-694.441	-42.818	-0.412	-0.210
-693.426	13.507	0.211	-0.164
-692.412	-146.723	-0.080	0.007
-691.397	-118.993	-0.200	0.035
-690.383	-200.000	-0.021	-0.157
-689.368	-113.679	0.028	-0.006
-688.354	95.913	0.178	0.204
-687.339	453.642	-0.033	0.073
-686.324	-18.247	-0.304	-0.190
-685.310	800.000	0.033	0.123
-684.295	-43.991	-0.192	-0.097
-683.281	39.421	0.231	0.207
-682.266	-116.687	-0.077	0.014
-681.251	245.568	-0.163	-0.275
-680.237	800.000	0.091	-0.351
-679.222	800.000	-0.041	-0.126
-678.208	88.272	0.087	-0.097
-677.193	159.110	0.117	-0.163
-676.178	26.676	0.090	0.075
-675.164	753.004	-0.137	0.371
-674.149	124.658	-0.172	-0.217
-673.135	800.000	0.065	0.187
-672.120	-200.000	0.040	-0.331
-671.105	93.955	-0.099	0.113
-670.091	53.309	0.172	-0.165
-669.076	800.000	-0.086	-0.292
-668.062	-200.000	-0.039	-0.216
-667.047	337.493	-0.173	-0.337
-666.032	800.000	-0.076	0.223
-665.018	-200.000	0.030	-0.149
-664.003	291.696	-0.125	-0.227
-662.989	22.624	-0.302	-0.247
-661.974	196.804	0.062	0.094
-660.959	-160.919	-0.418	-0.022
-659.945	-76.295	-0.166	0.059
-658.930	89.493	-0.026	-0.029
-657.916	-68.692	-0.258	-0.100
-656.901	-124.359	-0.117	0.018
-655.886	-97.260	0.130	0.034
-654.872	-200.000	-0.039	-0.215
-653.857	687.298	-0.044	-0.116
-652.843	21.776	0.182	0.148
-651.828	37.249	-0.291	-0.258
-650.814	234.953	0.110	-0.181
-649.799	383.176	-0.129	-0.265
-648.784	475.805	0.099	0.224
-647.770	-200.000	0.008	-0.092
-646.755	79.401	0.183	-0.197
-645.741	84.168	0.086	-0.094
-644.726	-59.679	-0.305	-0.131
-643.711	50.439	0.145	-0.137
-642.697	-200.000	-0.111	0.000
-641.682	-122.168	-0.133	-0.022
-640.668	3.223	0.197	0.143
-639.653	13.898	0.164	-0.127
-638.638	-5.582	-0.226	0.155
-637.624	-200.000	-0.025	-0.128
-636.609	133.311	-0.235	-0.303
-635.595	-200.000	-0.001	-0.073
-634.580	800.000	0.047	0.183
-633.565	-15.684	-0.176	-0.112
-632.551	-8.464	0.171	0.115
-631.536	-60.280	-0.176	-0.075
-630.522	800.000	-0.068	0.284
-629.507	212.364	-0.149	0.235
-628.492	61.397	-0.215	-0.214
-627.478	-7.081	0.143	0.097
-626.463	661.789	0.083	-0.214
-625.449	800.000	-0.030	-0.100
-624.434	85.631	0.157	-0.172
-623.419	-200.000	0.012	0.108
-622.405	-60.728	0.269	-0.114
-621.390	29.157	0.119	-0.101
-620.376	-97.904	0.080	-0.021
-619.361	-200.000	0.018	0.136
-618.346	393.289	0.067	0.139
-617.332	-188.472	0.399	0.005
-616.317	-200.000	-0.029	-0.377
-615.303	333.457	-0.194	0.375
-614.288	0.843	0.184	0.132
-613.273	-200.000	0.025	0.263
-612.259	152.761	-0.097	0.132
-611.244	-200.000	0.055	0.405
-610.230	36.184	-0.300	-0.264
-609.215	-113.698	0.214	0.042
-608.201	800.000	0.022	0.084
-607.186	800.000	0.056	0.163
-606.171	-160.777	-0.293	-0.015
-605.157	-200.000	0.015	-0.184
-604.142	800.000	-0.077	0.321
-603.128	-200.000	-0.005	0.091
-602.113	-122.441	0.387	-0.063
-601.098	-145.272	-0.239	0.022
-600.084	71.904	0.037	0.038
-599.069	-113.675	0.084	0.016
-598.055	-32.867	-0.230	-0.127
-597.040	332.613	0.080	-0.154
-596.025	-45.727	-0.213	0.105
-595.011	251.966	0.098	0.166
-593.996	-0.455	0.247	-0.175
-592.982	545.963	0.090	-0.215
-591.967	-89.372	0.279	-0.082
-590.952	-153.295	-0.146	-0.010
-589.938	96.114	0.147	-0.168
-588.923	60.260	0.251	0.248
-587.909	-151.775	-0.134	0.010
-586.894	34.690	0.301	-0.262
-585.879	40.441	-0.259	0.232
-584.865	-44.456	-0.369	0.184
-583.850	-200.000	0.052	-0.238
-582.836	257.317	0.094	-0.161
-581.821	-152.597	-0.380	-0.027
-580.806	-101.097	-0.167	-0.041
-579.792	313.064	-0.079	0.147
-578.777	93.457	-0.260	-0.294
-577.763	-43.547	0.089	0.045
-576.748	11.584	-0.256	0.196
-575.733	106.903	-0.265	-0.314
-574.719	-200.000	-0.027	-0.206
-573.704	526.343	-0.136	0.319
-572.690	437.003	-0.031	-0.067
-571.675	244.297	0.125	-0.209
-570.661	-165.308	-0.252	0.011
-569.646	3.611	-0.081	-0.059
-568.631	194.395	-0.072	-0.109
-567.617	-23.989	0.319	-0.190
-566.602	51.722	0.124	-0.118
-565.588	-35.653	0.274	0.148
-564.573	-109.819	0.221	-0.046
-563.558	-26.583	-0.170	-0.099
-562.544	193.518	0.118	-0.178
-561.529	-111.809	-0.253	-0.051
-560.515	69.419	0.189	0.193
-559.500	-7.210	0.085	-0.057
-558.485	-200.000	0.001	-0.151
-557.471	-88.918	0.163	0.048
-556.456	16.035	0.075	0.059
-555.442	800.000	0.070	0.196
-554.427	100.736	0.187	-0.216
-553.412	30.508	0.046	0.039
-552.398	385.722	0.110	0.225
-551.383	800.000	-0.113	-0.367
-550.369	-147.503	-0.103	0.009
-549.354	-59.459	-0.304	0.130
-548.339	-34.624	0.371	0.202
-547.325	-93.164	0.200	0.055
-546.310	-3.140	0.199	-0.138
-545.296	-200.000	-0.006	-0.045
-544.281	800.000	-0.108	0.338
-543.266	-200.000	0.003	-0.145
-542.252	-60.587	0.375	0.158
-541.237	88.894	0.050	-0.056
-540.223	-200.000	0.055	0.396
-539.208	-200.000	-0.007	-0.099
-538.193	512.926	0.052	0.121
-537.179	-16.505	-0.095	-0.060
-536.164	-200.000	0.044	-0.247
-535.150	-164.113	-0.085	0.004
-534.135	800.000	0.162	-0.507
-533.121	-10.364	0.237	-0.156
-532.106	-107.224	-0.359	-0.079
-531.091	-81.506	0.189	-0.062
-530.077	6.044	0.115	0.085
-529.062	-97.674	-0.261	0.067
-528.048	80.421	-0.060	-0.065
-527.033	-200.000	-0.083	-0.485
-526.018	152.075	0.272	-0.369
-525.004	113.463	-0.229	0.277
-523.989	-133.787	-0.204	-0.025
-522.975	60.960	0.076	-0.075
-521.960	-67.037	0.129	-0.051
-520.945	167.149	-0.134	0.190
-519.931	-184.301	-0.186	0.003
-518.916	-109.234	-0.065	-0.014
-517.902	-93.396	-0.244	-0.067
-516.887	800.000	0.095	0.292
-515.872	143.471	-0.379	-0.502
-514.858	-126.461	-0.114	-0.017
-513.843	27.248	-0.223	0.187
-512.829	-87.257	-0.122	0.037
-511.814	-162.367	0.262	-0.013
-510.799	-13.893	0.167	0.107
-509.785	800.000	-0.085	0.304
-508.770	460.819	-0.121	0.268
-507.756	132.134	-0.295	0.377
-506.741	-188.761	-0.067	-0.001
-505.726	684.721	0.110	-0.284
-504.712	558.596	0.015	0.037
-503.697	-60.327	0.191	-0.081
-502.683	-25.357	-0.174	0.102
-501.668	138.910	0.143	0.187
-500.653	142.949	0.111	0.146
-499.639	-13.677	-0.051	0.033
-498.624	-200.000	-0.010	-0.132
-497.610	-70.018	-0.132	-0.050
-496.595	227.472	-0.183	-0.296
-495.581	-66.836	-0.403	0.158
-494.566	-200.000	0.019	0.225
-493.551	214.399	-0.064	0.101
-492.537	-200.000	0.007	0.034
-491.522	125.517	-0.411	-0.516
-490.508	413.023	-0.158	-0.334
-489.493	800.000	0.133	-0.418
-488.478	116.454	0.104	-0.127
-487.464	800.000	0.017	-0.054
-486.449	-165.698	-0.185	-0.008
-485.435	-90.919	0.045	0.013
-484.420	131.771	0.177	0.226
-483.405	-200.000	0.025	-0.183
-482.391	-10.903	0.012	0.008
-481.376	233.738	-0.070	-0.115
-480.362	90.210	0.141	-0.157
-479.347	-179.063	0.389	-0.009
-478.332	-57.381	-0.078	0.034
-477.318	-96.962	-0.229	0.060
-476.303	392.886	0.127	-0.262
-475.289	358.127	-0.071	-0.141
-474.274	87.506	-0.159	0.175
-473.259	-21.526	-0.326	0.197
-472.245	-60.592	0.088	-0.037
-471.230	74.494	0.083	-0.087
-470.216	-200.000	0.004	-0.071
-469.201	113.490	-0.196	-0.237
-468.186	-123.981	0.129	0.020
-467.172	-200.000	0.007	0.074
-466.157	-134.654	-0.064	0.008
-465.143	239.616	0.140	0.232
-464.128	-200.000	-0.042	-0.273
-463.113	-200.000	-0.039	0.340
-462.099	-200.000	-0.006	0.260
-461.084	-121.038	0.509	-0.085
-460.070	24.758	-0.126	0.104
-459.055	800.000	-0.050	0.193
-458.040	63.281	0.375	-0.373
-457.026	-33.727	0.292	0.160
-456.011	-200.000	0.015	-0.187
-454.997	-100.609	-0.205	0.050
-453.982	182.426	0.161	0.236
-452.968	572.874	0.011	0.028
-451.953	91.615	-0.452	0.504
-450.938	24.011	0.166	-0.136
-449.924	-200.000	-0.011	-0.381
-448.909	-200.000	-0.031	0.334
-447.895	800.000	-0.090	0.257
-446.880	-133.660	0.147	0.018
-445.865	-200.000	-0.028	0.344
-444.851	-34.063	-0.229	0.125
-443.836	7.768	0.154	-0.115
-442.822	524.992	0.016	-0.038
-441.807	-133.503	0.329	0.041
-440.792	486.214	0.118	-0.266
-439.778	36.950	0.147	-0.129
-438.763	35.900	0.220	-0.192
-437.749	62.489	0.218	-0.216
-436.734	514.451	-0.181	0.418
-435.719	332.547	-0.190	0.364
-434.705	800.000	0.053	0.159
-433.690	-78.321	-0.060	-0.021
-432.676	-200.000	0.002	0.034
-431.661	-66.855	-0.147	-0.058
-430.646	150.663	0.063	0.085
-429.632	303.968	-0.136	0.249
-428.617	800.000	0.151	0.424
-427.603	-22.298	0.218	-0.131
-426.588	-122.274	-0.062	-0.010
-425.573	107.547	0.019	-0.023
-424.559	31.246	0.252	0.214
-423.544	-49.432	0.106	-0.050
-422.530	-39.772	-0.360	0.187
-421.515	-200.000	0.015	0.231
-420.500	49.088	-0.260	-0.242
-419.486	49.178	-0.096	0.090
-418.471	332.308	-0.100	-0.190
-417.457	-20.591	-0.211	0.129
-416.442	-134.105	-0.320	0.039
-415.428	-200.000	0.028	0.225
-414.413	57.779	-0.159	-0.154
-413.398	-135.484	-0.159	0.019
-412.384	-147.174	-0.182	0.015
-411.369	14.326	0.174	-0.134
-410.355	-135.566	-0.188	-0.022
-409.340	-117.386	0.129	-0.023
-408.325	487.295	-0.047	-0.107
-407.311	-200.000	0.005	-0.030
-406.296	800.000	-0.201	-0.580
-405.282	-36.617	-0.298	-0.159
-404.267	800.000	-0.061	-0.192
-403.252	-125.893	-0.486	-0.073
-402.238	39.446	-0.198	-0.176
-401.223	-90.023	0.227	0.066
-400.209	-46.291	-0.053	-0.026
-399.194	-79.622	-0.166	-0.056
-398.179	-58.557	0.224	0.096
-397.165	-200.000	-0.024	-0.347
-396.150	-15.375	-0.113	0.071
-395.136	-200.000	-0.065	0.425
-394.121	-43.970	-0.243	-0.121
-393.106	-82.212	0.159	0.051
-392.092	-97.577	0.160	-0.041
-391.077	-46.728	-0.156	0.075
-390.063	-37.727	0.078	0.041
-389.048	-145.027	-0.300	0.027
-388.033	145.137	-0.268	0.355
-387.019	152.845	0.114	0.154
-386.004	-200.000	0.025	0.169
-384.990	37.849	-0.040	0.035
-383.975	-93.044	-0.299	0.082
-382.960	-76.614	0.294	-0.102
-381.946	-200.000	0.008	0.260
-380.931	-171.052	0.139	-0.005
-379.917	-1.815	0.138	-0.096
-378.902	326.689	-0.038	0.072
-377.888	-76.973	0.230	0.080
-376.873	13.011	0.148	0.114
-375.858	-57.283	-0.262	-0.114
-374.844	-47.790	0.220	-0.105
-373.829	-200.000	0.011	-0.115
-372.815	265.584	0.138	-0.238
-371.800	7.066	-0.175	-0.129
-370.785	-19.974	0.178	0.109
-369.771	124.594	0.148	-0.185
-368.756	-157.666	-0.403	-0.024
-367.742	51.700	-0.192	0.181
-366.727	800.000	0.056	-0.225
-365.712	-200.000	-0.023	-0.176
-364.698	800.000	-0.090	-0.264
-363.683	-181.034	0.221	0.004
-362.669	-35.981	0.261	-0.139
-361.654	-52.722	0.080	0.037
-360.639	324.804	-0.024	0.045
-359.625	-33.785	-0.401	0.219
-358.610	80.757	0.333	0.355
-357.596	44.234	0.171	0.155
-356.581	124.626	0.155	0.193
-355.566	-88.577	0.363	0.107
-354.552	44.386	-0.163	0.148
-353.537	41.147	-0.044	-0.040
-352.523	25.238	0.078	-0.064
-351.508	328.745	-0.177	-0.335
-350.493	-119.822	0.049	-0.008
-349.479	-200.000	-0.011	-0.065
-348.464	84.443	0.043	-0.046
-347.450	-137.646	0.394	0.044
-346.435	62.701	-0.094	-0.093
-345.420	5.634	0.140	-0.102
-344.406	-82.899	0.033	0.010
-343.391	800.000	-0.078	-0.243
-342.377	170.988	0.139	-0.197
-341.362	88.417	-0.099	-0.109
-340.348	61.927	-0.121	0.119
-339.333	-200.000	-0.046	0.000
-338.318	30.639	0.230	-0.195
-337.304	-167.417	0.410	0.016
-336.289	470.806	-0.088	0.195
-335.275	-200.000	-0.020	0.100
-334.260	-46.476	0.107	-0.052
-333.245	42.416	-0.084	-0.076
-332.231	800.000	0.102	0.280
-331.216	104.545	-0.214	-0.248
-330.202	800.000	0.027	0.076
-329.187	-24.428	-0.191	-0.112
-328.172	336.525	-0.069	-0.133
-327.158	80.264	-0.053	0.056
-326.143	77.118	0.047	-0.049
-325.129	471.226	0.145	-0.323
-324.114	71.773	-0.115	-0.118
-323.099	-39.538	-0.037	-0.019
-322.085	800.000	0.099	-0.288
-321.070	461.638	-0.063	-0.139
-320.056	66.441	0.155	-0.155
-319.041	-164.193	-0.151	-0.007
-318.026	-144.049	0.279	-0.026
-317.012	-117.078	-0.079	-0.014
-315.997	18.383	0.374	-0.295
-314.983	-200.000	-0.027	-0.186
-313.968	-15.101	0.319	-0.201
-312.953	-35.033	0.368	0.198
-311.939	-62.767	-0.416	0.170
-310.924	-29.194	-0.190	-0.108
-309.910	137.426	-0.112	-0.145
-308.895	-5.356	0.059	0.040
-307.880	228.703	-0.184	-0.296
-306.866	-200.000	0.001	-0.244
-305.851	-124.071	-0.118	-0.018
-304.837	-27.083	-0.268	-0.154
-303.822	800.000	-0.046	0.189
-302.807	800.000	0.083	-0.275
-301.793	800.000	0.137	-0.381
-300.778	800.000	0.060	-0.215
-299.764	800.000	0.074	-0.255
-298.749	55.803	0.123	-0.118
-297.735	-49.412	0.158	-0.074
-296.720	-133.382	-0.058	0.007
-295.705	263.768	0.072	0.124
-294.691	-100.277	0.223	0.055
-293.676	-55.710	0.143	-0.063
-292.662	-121.099	0.436	-0.072
-291.647	589.962	-0.075	0.182
-290.632	800.000	0.052	0.186
-289.618	-200.000	0.023	0.120
-288.603	-83.221	0.162	0.051
-287.589	-80.404	0.185	0.061
-286.574	105.101	0.160	0.187
-285.559	800.000	-0.075	0.226
-284.545	-200.000	0.001	-0.062
-283.530	-17.204	-0.065	0.041
-282.516	87.113	-0.052	0.056
-281.501	215.147	0.215	0.336
-280.486	-159.778	-0.239	-0.013
-279.472	800.000	0.013	0.044
-278.457	48.010	0.083	-0.077
-277.443	242.521	-0.204	0.337
-276.428	41.382	-0.157	0.140
-275.413	60.896	-0.109	-0.107
-274.399	-129.953	0.296	0.040
-273.384	416.154	0.152	-0.319
-272.370	269.292	0.128	-0.222
-271.355	21.602	-0.227	0.182
-270.340	248.112	-0.181	0.302
-269.326	658.076	-0.041	0.104
-268.311	-2.918	-0.119	-0.082
-267.297	126.727	0.057	0.071
-266.282	143.934	0.168	0.221
-265.267	298.875	0.027	0.048
-264.253	-200.000	-0.025	0.324
-263.238	800.000	0.098	-0.337
-262.224	-200.000	0.052	0.350
-261.209	800.000	0.117	0.372
-260.195	-101.162	0.134	0.032
-259.180	-21.867	-0.136	0.082
-258.165	614.437	0.081	-0.200
-257.151	-147.512	0.163	-0.014
-256.136	800.000	-0.053	0.204
-255.122	-200.000	-0.022	-0.233
-254.107	-46.023	-0.047	0.023
-253.092	635.532	0.064	-0.161
-252.078	309.075	0.192	0.354
-251.063	-85.846	0.165	0.050
-250.049	346.879	-0.129	0.249
-249.034	-60.211	0.178	0.075
-248.019	-200.000	-0.064	0.341
-247.005	357.765	-0.052	0.103
-245.990	-85.370	0.128	0.039
-244.976	-28.840	0.289	-0.164
-243.961	218.565	-0.138	-0.216
-242.946	203.812	-0.171	-0.261
-241.932	672.477	0.090	0.228
-240.917	-61.041	-0.035	-0.015
-239.903	166.442	0.227	-0.316
-238.888	-30.710	0.236	0.131
-237.873	-61.130	-0.114	0.047
-236.859	121.001	0.247	0.302
-235.844	-200.000	0.012	-0.405
-234.830	366.811	0.097	0.193
-233.815	15.236	-0.141	-0.109
-232.800	103.004	0.008	-0.010
-231.786	280.438	-0.048	-0.085
-230.771	427.441	-0.190	0.403
-229.757	-200.000	0.063	0.379
-228.742	800.000	0.044	0.166
-227.727	698.827	-0.100	0.257
-226.713	-200.000	-0.011	0.155
-225.698	-31.344	0.118	-0.065
-224.684	-167.075	-0.091	0.004
-223.669	-200.000	0.063	-0.404
-222.655	-125.868	-0.091	-0.014
-221.640	-200.000	0.083	-0.378
-220.625	142.037	0.202	-0.264
-219.611	-136.194	-0.154	-0.018
-218.596	-107.263	-0.335	0.073
-217.582	-106.480	0.186	0.041
-216.567	476.254	0.085	0.188
-215.552	2.650	-0.262	0.187
-214.538	-3.616	0.113	0.077
-213.523	584.991	-0.179	-0.433
-212.509	800.000	0.031	-0.117
-211.494	800.000	-0.060	-0.237
-210.479	105.526	-0.292	0.339
-209.465	-199.052	0.347	-0.002
-208.450	207.577	-0.177	0.272
-207.436	630.185	-0.090	0.223
-206.421	800.000	-0.016	0.048
-205.406	33.187	0.175	0.149
-204.392	-200.000	-0.006	-0.160
-203.377	-200.000	0.015	-0.114
-202.363	55.798	0.374	0.357
-201.348	-55.510	-0.184	0.081
-200.333	-200.000	-0.057	0.432
-199.319	232.724	-0.160	0.258
-198.304	-41.502	-0.054	-0.028
-197.290	169.801	0.239	0.336
-196.275	800.000	-0.045	0.133
-195.260	-200.000	-0.054	-0.254
-194.246	-72.973	0.110	0.040
-193.231	754.735	0.113	0.301
-192.217	-131.067	-0.230	-0.030
-191.202	-162.130	0.047	0.002
-190.187	-96.374	-0.105	0.027
-189.173	356.698	0.163	0.320
-188.158	-69.590	-0.285	0.107
-187.144	118.848	0.060	0.073
-186.129	-156.222	0.167	0.010
-185.114	100.607	-0.313	0.357
-184.100	-200.000	0.011	-0.251
-183.085	-200.000	-0.009	-0.356
-182.071	-200.000	-0.004	-0.385
-181.056	-92.767	0.129	-0.035
-180.042	800.000	0.027	-0.096
-179.027	38.337	0.119	-0.104
-178.012	-47.851	-0.227	0.108
-176.998	14.850	0.247	0.190
-175.983	-19.100	0.079	-0.048
-174.969	197.191	-0.119	0.178
-173.954	-61.899	-0.015	0.006
-172.939	114.209	0.162	0.194
-171.925	-140.495	-0.242	-0.025
-170.910	388.405	-0.085	0.173
-169.896	-173.770	0.343	0.010
-168.881	43.984	-0.305	0.274
-167.866	-200.000	-0.027	-0.145
-166.852	-200.000	-0.003	0.191
-165.837	-33.811	-0.233	-0.126
-164.823	23.143	-0.116	0.093
-163.808	595.356	0.054	-0.130
-162.793	800.000	-0.051	-0.204
-161.779	-1.694	-0.275	0.190
-160.764	-200.000	0.030	-0.152
-159.750	638.781	-0.086	-0.215
-158.735	-84.981	-0.113	-0.035
-157.720	36.921	0.203	-0.176
-156.706	-7.645	0.170	-0.113
-155.691	49.103	-0.073	-0.067
-154.677	-200.000	0.013	-0.075
-153.662	-182.433	-0.242	0.004
-152.647	-69.527	0.085	0.032
-151.633	11.289	-0.216	-0.162
-150.618	524.287	0.071	-0.164
-149.604	-191.062	0.255	0.003
-148.589	74.195	-0.141	0.145
-147.574	-183.227	-0.142	0.002
-146.560	22.077	0.080	-0.064
-145.545	296.700	-0.058	0.104
-144.531	-200.000	0.031	0.245
-143.516	290.840	-0.081	0.145
-142.502	-200.000	-0.018	0.239
-141.487	-17.515	-0.195	0.120
-140.472	-200.000	-0.065	-0.289
-139.458	-152.422	0.342	0.024
-138.443	800.000	-0.099	-0.287
-137.429	174.295	-0.023	0.033
-136.414	22.003	0.282	0.225
-135.399	-25.366	0.220	-0.127
-134.385	-90.485	-0.283	-0.080
-133.370	-110.761	-0.193	0.039
-132.356	-135.662	0.263	0.031
-131.341	137.606	-0.051	-0.065
-130.326	-200.000	0.029	0.206
-129.312	-105.358	0.390	0.087
-128.297	-118.209	0.203	0.035
-127.283	800.000	-0.070	0.197
-126.268	-84.273	0.307	0.095
-125.253	-200.000	-0.032	0.170
-124.239	800.000	-0.094	-0.285
-123.224	28.334	-0.285	-0.236
-122.210	429.471	-0.043	0.090
-121.195	-200.000	-0.028	-0.129
-120.180	83.030	-0.120	-0.128
-119.166	452.528	0.074	-0.160
-118.151	54.419	0.195	0.184
-117.137	-77.722	-0.077	0.026
-116.122	93.819	0.082	-0.091
-115.107	800.000	0.031	0.111
-114.093	118.596	0.172	0.207
-113.078	-174.636	0.072	0.002
-112.064	-17.627	0.191	-0.118
-111.049	-22.667	0.395	0.234
-110.034	-3.016	0.226	-0.154
-109.020	707.825	0.062	0.161
-108.005	28.297	-0.167	0.138
-106.991	84.515	0.259	0.277
-105.976	25.273	0.211	0.171
-104.962	-78.841	-0.074	-0.025
-103.947	-200.000	0.006	-0.131
-102.932	-200.000	-0.025	0.130
-101.918	95.745	0.029	-0.032
-100.903	257.376	0.193	0.325
-99.889	177.869	-0.243	-0.346
-98.874	19.192	0.046	0.036
-97.859	10.013	0.320	0.238
-96.845	205.346	-0.069	0.105
-95.830	-200.000	0.038	-0.202
-94.816	-113.540	-0.255	0.049
-93.801	-200.000	-0.002	-0.168
-92.786	-75.963	-0.221	-0.077
-91.772	-73.830	-0.162	-0.058
-90.757	-43.804	-0.090	-0.045
-89.743	-112.257	0.223	-0.044
-88.728	125.263	0.191	-0.236
-87.713	310.494	0.069	-0.126
-86.699	-42.940	-0.023	0.011
-85.684	-20.050	0.317	0.191
-84.670	-118.135	0.180	-0.031
-83.655	130.453	0.121	-0.152
-82.640	298.719	-0.057	-0.102
-81.626	-63.654	-0.158	0.063
-80.611	-40.414	0.181	0.092
-79.597	-80.260	-0.255	-0.084
-78.582	-200.000	0.035	-0.199
-77.567	-6.845	0.315	0.210
-76.553	-160.625	0.141	0.007
-75.538	-61.415	0.179	-0.073
-74.524	-200.000	-0.008	0.257
-73.509	800.000	-0.026	-0.084
-72.494	-142.022	-0.292	-0.028
-71.480	415.192	0.123	-0.256
-70.465	-78.197	-0.173	-0.058
-69.451	120.403	-0.219	-0.266
-68.436	-200.000	-0.051	0.347
-67.422	-76.444	0.303	-0.104
-66.407	-30.834	0.385	-0.213
-65.392	-200.000	-0.016	-0.110
-64.378	70.458	-0.049	0.049
-63.363	50.441	-0.130	0.120
-62.349	-102.130	0.055	-0.013
-61.334	41.475	-0.860	-0.761
-60.319	-19.381	0.560	0.340
-59.305	702.151	-0.406	-1.045
-58.290	213.519	0.711	1.097
-57.276	278.535	0.955	1.663
-56.261	-200.000	116.290	661.361
-55.246	533.854	1531.740	3545.775
-54.232	176.548	2705.934	3842.798
-53.217	108.454	2182.949	2545.911
-52.203	37.833	1701.392	1476.864
-51.188	29.997	1517.487	1263.959
-50.173	27.779	1492.617	1228.282
-49.159	52.392	1552.522	1447.152
-48.144	50.333	1566.761	1446.266
-47.130	30.308	1522.223	1269.825
-46.115	27.119	1507.025	1235.457
-45.100	27.013	1503.288	1231.628
-44.086	26.912	1501.832	1229.696
-43.071	26.857	1499.502	1227.370
-42.057	26.947	1498.072	1226.759
-41.042	26.795	1496.931	1224.746
-40.027	26.862	1495.143	1223.692
-39.013	26.915	1493.535	1222.680
-37.998	26.715	1492.724	1220.624
-36.984	26.904	1491.307	1220.690
-35.969	26.883	1490.178	1219.576
-34.954	26.923	1488.634	1218.533
-33.940	26.877	1487.426	1217.185
-32.925	26.869	1485.613	1215.597
-31.911	26.863	1485.108	1215.096
-30.896	26.943	1483.476	1214.251
-29.881	26.997	1482.015	1213.366
-28.867	26.931	1480.971	1212.020
-27.852	26.959	1479.754	1211.166
-26.838	26.966	1478.191	1209.883
-25.823	26.966	1476.769	1208.674
-24.809	26.957	1475.307	1207.366
-23.794	27.010	1473.624	1206.295
-22.779	26.924	1472.122	1204.447
-21.765	26.980	1471.360	1204.150
-20.750	26.892	1470.621	1202.913
-19.736	26.967	1469.465	1202.415
-18.721	26.910	1467.917	1200.726
-17.706	26.803	1467.527	1199.646
-16.692	26.902	1466.230	1199.197
-15.677	26.856	1465.359	1198.131
-14.663	26.900	1464.271	1197.488
-13.648	26.811	1463.101	1195.892
-12.633	26.863	1462.388	1195.604
-11.619	26.838	1461.808	1194.921
-10.604	26.799	1461.058	1194.004
-9.590	26.846	1459.780	1193.221
-8.575	26.891	1459.092	1192.904
-7.560	26.868	1458.009	1191.822
-6.546	26.898	1457.228	1191.336
-5.531	26.888	1456.423	1190.564
-4.517	26.820	1455.472	1189.289
-3.502	26.839	1454.423	1188.512
-2.487	26.891	1453.015	1187.656
-1.473	26.907	1452.200	1187.044
-0.458	26.934	1450.438	1185.734
0.556	27.046	1441.092	1174.446
1.571	24.177	1416.261	1135.842
2.586	20.920	1354.718	1066.495
3.600	19.207	1271.626	991.141
4.615	17.988	1227.303	949.735
5.629	15.500	1170.767	892.698
6.644	8.945	1088.917	797.704
7.659	3.927	1052.576	746.838
8.673	3.457	1047.266	740.745
9.688	3.365	1043.913	737.869
10.702	3.286	1042.510	736.434
11.717	3.442	1040.634	735.789
12.731	5.225	1041.264	744.675
13.746	11.636	1050.589	782.041
14.761	17.849	1058.071	817.387
15.775	19.650	1059.592	827.121
16.790	19.179	1058.124	823.652
17.804	18.120	1056.262	817.068
18.819	17.239	1054.268	811.253
19.834	16.739	1053.151	807.936
20.848	16.631	1052.228	806.643
21.863	16.419	1051.498	805.000
22.877	16.226	1050.845	803.509
23.892	16.114	1050.272	802.470
24.907	16.019	1049.153	801.091
25.921	16.164	1048.194	800.974
26.936	16.013	1047.809	799.892
27.950	16.039	1046.910	799.261
28.965	16.197	1045.458	798.827
29.980	16.236	1044.258	798.027
30.994	16.300	1043.275	797.506
32.009	16.322	1042.860	797.224
33.023	16.421	1042.246	797.148
34.038	16.386	1041.341	796.221
35.053	16.181	1040.617	794.630
36.067	16.130	1039.519	793.482
37.082	16.151	1038.342	792.615
38.096	16.177	1037.680	792.160
39.111	16.202	1037.070	791.744
40.126	16.312	1036.256	791.564
41.140	16.205	1034.679	789.791
42.155	16.030	1033.685	788.144
43.169	15.928	1032.858	786.968
44.184	15.910	1031.122	785.492
45.199	15.844	1030.496	784.637
46.213	15.805	1029.858	783.899
47.228	15.878	1028.997	783.514
48.242	16.058	1028.014	783.532
49.257	16.263	1026.744	783.448
50.271	16.178	1025.804	782.267
51.286	16.152	1025.078	781.523
52.301	16.255	1024.180	781.249
53.315	16.131	1023.384	779.999
54.330	16.091	1022.425	779.014
55.344	15.932	1021.851	777.770
56.359	16.013	1020.917	777.366
57.374	15.957	1020.196	776.489
58.388	15.982	1018.699	775.399
59.403	15.908	1018.330	774.705
60.417	15.853	1017.278	773.584
61.432	15.897	1016.616	773.218
62.447	15.782	1015.805	772.003
63.461	15.770	1015.059	771.313
64.476	15.751	1014.387	770.647
65.490	15.641	1013.559	769.447
66.505	15.846	1012.420	769.449
67.520	15.892	1011.230	768.689
68.534	15.732	1011.059	767.758
69.549	15.814	1009.942	767.216
70.563	15.806	1009.123	766.489
71.578	15.669	1008.878	765.611
72.593	15.496	1008.057	764.135
73.607	15.737	1006.712	764.141
74.622	15.597	1005.721	762.685
75.636	15.633	1004.951	762.200
76.651	15.665	1004.152	761.670
77.666	15.704	1003.654	761.402
78.680	15.640	1003.014	760.561
79.695	15.653	1002.615	760.251
80.709	15.646	1001.953	759.649
81.724	15.819	1000.829	759.512
82.739	15.818	1000.197	758.961
83.753	15.803	999.898	758.599
84.768	16.160	998.508	759.082
85.782	16.252	997.877	758.947
86.797	16.339	997.258	758.801
87.812	16.417	996.342	758.385
88.826	16.232	995.776	757.059
89.841	16.154	995.002	756.055
90.855	16.227	994.524	755.951
91.870	16.203	993.457	754.967
92.884	16.209	992.909	754.509
93.899	16.459	992.277	755.079
94.914	16.297	991.267	753.524
95.928	16.325	990.277	752.829
96.943	16.397	990.061	752.918
97.957	16.412	988.598	751.806
98.972	16.301	988.133	750.891
99.987	16.229	987.666	750.151
101.001	16.377	986.706	750.010
102.016	16.325	985.888	749.091
103.030	16.335	984.826	748.266
104.045	16.385	983.648	747.523
105.060	16.297	983.164	746.700
106.074	16.349	981.948	745.941
107.089	16.144	980.834	744.124
108.103	15.839	980.196	742.230
109.118	15.926	978.846	741.526
110.133	15.853	978.184	740.637
111.147	15.781	977.556	739.781
112.162	15.792	976.678	739.097
113.176	15.880	975.661	738.650
114.191	15.947	975.145	738.485
115.206	16.013	974.082	737.905
116.220	15.952	973.392	737.050
117.235	15.925	972.367	736.090
118.249	16.062	971.840	736.225
119.264	15.977	971.101	735.231
120.279	15.881	970.496	734.287
121.293	15.788	969.664	733.188
122.308	15.865	968.501	732.576
123.322	15.798	967.503	731.470
124.337	15.678	966.838	730.379
125.352	15.851	965.400	729.980
126.366	15.794	964.313	728.844
127.381	15.774	963.208	727.859
128.395	15.650	962.477	726.705
129.410	15.660	961.677	726.079
130.424	15.827	960.004	725.473
131.439	15.705	960.012	724.888
132.454	15.867	958.860	724.654
133.468	15.918	958.129	724.256
134.483	15.978	957.684	724.115
135.497	16.056	956.864	723.764
136.512	15.850	956.169	722.289
137.527	15.872	955.444	721.771
138.541	16.031	954.307	721.529
139.556	16.052	954.095	721.398
140.570	15.998	953.153	720.391
141.585	16.017	952.608	719.997
142.600	16.087	952.716	720.314
143.614	16.298	951.748	720.418
144.629	16.285	950.625	719.450
145.643	16.258	950.236	718.973
146.658	16.345	948.901	718.270
147.673	16.355	947.775	717.398
148.687	16.191	946.973	716.031
149.702	16.077	946.431	715.075
150.716	15.999	945.472	713.957
151.731	16.081	944.400	713.431
152.746	16.076	943.857	712.935
153.760	15.944	943.439	711.998
154.775	16.182	942.220	712.022
155.789	16.069	941.697	711.087
156.804	16.295	940.624	711.167
157.819	16.263	940.026	710.517
158.833	16.243	939.598	710.044
159.848	16.421	939.067	710.327
160.862	16.415	937.961	709.404
161.877	16.387	937.499	708.875
162.892	16.207	936.542	707.335
163.906	16.139	935.425	706.142
164.921	16.127	934.588	705.398
165.935	15.984	933.643	704.023
166.950	16.092	932.496	703.547
167.964	16.258	931.959	703.774
168.979	16.166	930.716	702.390
169.994	16.147	929.962	701.679
171.008	16.091	929.276	700.866
172.023	16.270	928.391	700.880
173.037	16.417	927.277	700.586
174.052	16.408	927.350	700.542
175.067	16.515	926.459	700.253
176.081	16.260	925.236	698.211
177.096	16.107	924.415	696.896
178.110	16.116	923.482	696.167
179.125	16.228	922.722	695.996
180.140	16.245	921.992	695.452
181.154	16.273	921.396	695.057
182.169	16.278	921.248	694.907
183.183	16.445	920.395	694.887
184.198	16.412	919.818	694.254
185.213	16.489	919.078	693.951
186.227	16.437	918.753	693.433
187.242	16.564	918.042	693.352
188.256	16.515	917.892	692.979
189.271	16.678	916.802	692.760
190.286	16.757	916.117	692.504
191.300	16.467	915.216	690.576
192.315	16.108	914.492	688.507
193.329	16.149	913.348	687.750
194.344	16.184	912.631	687.293
195.359	16.183	912.550	687.164
196.373	16.391	912.055	687.578
197.388	16.401	911.543	687.175
198.402	16.616	911.169	687.703
199.417	16.734	910.797	687.840
200.432	16.802	910.203	687.610
201.446	16.911	909.574	687.513
202.461	16.906	909.716	687.539
203.475	16.980	909.315	687.475
204.490	17.035	908.093	686.715
205.504	16.864	907.354	685.401
206.519	16.759	906.039	683.926
207.534	16.640	905.367	682.877
208.548	16.529	904.904	682.020
209.563	16.643	904.344	681.996
210.577	16.678	903.707	681.598
211.592	16.770	902.795	681.219
212.607	16.814	902.796	681.338
213.621	16.981	902.385	681.639
214.636	16.855	901.156	680.143
215.650	16.887	900.675	679.847
216.665	16.932	899.992	679.452
217.680	16.951	899.876	679.380
218.694	16.903	899.459	678.815
219.709	17.068	898.460	678.660
220.723	16.908	898.336	677.866
221.738	17.076	897.261	677.668
222.753	16.948	897.067	676.951
223.767	16.941	895.891	675.975
224.782	17.077	895.468	676.138
225.796	17.157	894.932	675.990
226.811	17.146	893.943	675.140
227.826	17.323	892.842	674.949
228.840	17.087	892.512	673.706
229.855	17.000	892.164	673.039
230.869	16.886	891.439	671.980
231.884	17.043	890.458	671.803
232.899	16.987	890.265	671.377
233.913	16.913	889.056	670.114
234.928	16.842	888.194	669.122
235.942	16.896	887.802	668.982
236.957	16.785	887.035	667.906
237.972	16.930	886.286	667.855
238.986	16.823	886.138	667.263
240.001	16.958	884.861	666.771
241.015	17.106	884.146	666.755
242.030	16.947	883.802	665.813
243.045	16.977	883.384	665.559
244.059	17.014	882.803	665.207
245.074	17.131	882.115	665.086
246.088	17.056	881.648	664.382
247.103	17.209	880.786	664.274
248.117	17.253	880.315	664.032
249.132	17.328	879.696	663.798
250.147	17.489	879.732	664.394
251.161	17.540	879.392	664.279
252.176	17.710	878.365	664.105
253.190	17.641	877.902	663.428
254.205	17.708	877.247	663.136
255.220	17.750	876.364	662.573
256.234	17.770	875.760	662.136
257.249	17.931	874.854	662.015
258.263	17.743	874.701	661.111
259.278	17.700	874.405	660.663
260.293	17.801	874.086	660.756
261.307	17.977	872.850	660.441
262.322	17.945	872.569	660.049
263.336	17.991	872.006	659.740
264.351	18.069	870.793	659.067
265.366	18.033	870.488	658.637
266.380	17.990	869.959	658.013
267.395	18.015	869.326	657.571
268.409	17.950	868.525	656.660
269.424	17.853	867.737	655.631
270.439	17.815	867.302	655.101
271.453	17.882	866.053	654.357
272.468	17.754	865.675	653.523
273.482	17.746	865.121	653.013
274.497	17.815	864.375	652.657
275.512	17.899	863.397	652.184
276.526	17.887	862.710	651.561
277.541	17.793	862.275	650.817
278.555	17.921	861.317	650.521
279.570	17.915	861.442	650.536
280.585	18.022	860.751	650.365
281.599	18.074	860.240	650.119
282.614	17.977	859.378	649.041
283.628	17.953	859.095	648.677
284.643	17.898	858.178	647.721
285.657	17.901	858.488	647.906
286.672	18.055	857.267	647.512
287.687	17.954	856.958	646.838
288.701	18.093	856.656	647.082
289.716	18.026	855.786	646.111
290.730	18.077	854.912	645.588
291.745	17.997	854.466	644.891
292.760	18.071	853.494	644.381
293.774	17.936	853.624	643.913
294.789	18.311	852.765	644.621
295.803	18.249	852.320	643.993
296.818	18.021	851.405	642.387
297.833	18.073	850.982	642.209
298.847	18.070	850.475	641.758
299.862	18.108	849.222	640.898
300.876	18.170	849.050	640.942
301.891	18.214	848.190	640.400
302.906	18.315	847.797	640.426
303.920	18.405	847.026	640.124
304.935	18.509	846.657	640.175
305.949	18.532	845.931	639.657
306.964	18.490	845.306	638.972
307.979	18.365	844.758	638.035
308.993	18.542	844.166	638.188
310.008	18.481	843.769	637.607
311.022	18.333	843.678	636.929
312.037	18.521	842.797	636.906
313.052	18.389	842.130	635.857
314.066	18.266	841.202	634.646
315.081	18.338	840.957	634.668
316.095	18.303	840.150	633.876
317.110	18.236	839.469	633.058
318.125	18.301	839.388	633.179
319.139	18.361	838.644	632.783
320.154	18.271	838.424	632.231
321.168	18.353	837.620	631.870
322.183	18.398	836.950	631.478
323.197	18.355	836.861	631.195
324.212	18.372	836.216	630.716
325.227	18.423	835.590	630.374
326.241	18.477	834.932	630.019
327.256	18.398	834.281	629.184
328.270	18.430	833.948	628.993
329.285	18.340	833.475	628.253
330.300	18.343	832.818	627.710
331.314	18.358	832.409	627.405
332.329	18.381	831.959	627.092
333.343	18.457	831.123	626.683
334.358	18.525	830.970	626.761
335.373	18.647	830.075	626.477
336.387	18.533	829.531	625.596
337.402	18.685	828.625	625.412
338.416	18.750	828.425	625.441
339.431	18.852	827.941	625.392
340.446	18.751	827.824	624.881
341.460	18.854	827.106	624.658
342.475	18.994	826.389	624.571
343.489	19.074	826.082	624.571
344.504	18.992	825.403	623.705
345.519	19.050	825.184	623.695
346.533	19.066	824.392	623.101
347.548	19.071	824.059	622.813
348.562	18.894	823.472	621.671
349.577	18.770	822.708	620.593
350.592	18.704	822.322	620.007
351.606	18.750	821.286	619.337
352.621	18.629	821.056	618.675
353.635	18.738	820.568	618.642
354.650	18.779	820.615	618.771
355.665	18.896	819.822	618.540
356.679	18.889	819.448	618.179
357.694	18.987	818.981	618.124
358.708	18.922	818.340	617.353
359.723	18.993	817.875	617.201
360.738	18.972	817.399	616.713
361.752	18.910	817.058	616.177
362.767	18.931	816.515	615.788
363.781	19.162	816.268	616.376
364.796	19.141	816.117	616.133
365.810	19.215	815.172	615.627
366.825	19.393	815.022	616.097
367.840	19.314	814.963	615.716
368.854	19.324	814.260	615.164
369.869	19.359	813.655	614.778
370.883	19.263	812.797	613.735
371.898	19.376	812.108	613.562
372.913	19.384	812.135	613.557
373.927	19.476	811.045	613.005
374.942	19.433	810.458	612.353
375.956	19.269	810.374	611.656
376.971	19.349	809.444	611.183
377.986	19.442	809.211	611.283
379.000	19.549	808.625	611.164
380.015	19.555	808.620	611.128
381.029	19.721	807.389	610.730
382.044	19.513	807.007	609.653
383.059	19.597	806.271	609.337
384.073	19.695	805.920	609.366
385.088	19.645	805.226	608.611
386.102	19.479	804.937	607.753
387.117	19.377	804.137	606.735
388.132	19.354	803.774	606.329
389.146	19.427	802.977	605.930
390.161	19.480	803.025	606.099
391.175	19.532	802.939	606.160
392.190	19.613	802.202	605.835
393.205	19.529	801.612	605.043
394.219	19.510	801.487	604.829
395.234	19.564	800.670	604.346
396.248	19.491	800.055	603.574
397.263	19.263	799.926	602.627
398.278	19.397	799.132	602.444
399.292	19.341	798.606	601.796
400.307	19.342	798.454	601.634
401.321	19.336	798.060	601.262
402.336	19.391	797.747	601.164
403.350	19.493	797.036	600.932
404.365	19.529	796.797	600.821
405.380	19.441	796.604	600.316
406.394	19.920	795.811	601.330
407.409	19.852	795.437	600.761
408.423	19.898	795.095	600.608
409.438	20.030	794.666	600.688
410.453	19.981	794.389	600.258
411.467	19.902	793.893	599.556
412.482	19.997	793.636	599.638
413.496	19.966	793.111	599.078
414.511	20.113	792.825	599.319
415.526	19.990	792.662	598.716
416.540	19.960	792.102	598.138
417.555	20.005	791.432	597.735
418.569	20.068	790.925	597.514
419.584	20.013	790.313	596.811
420.599	20.032	790.024	596.606
421.613	161.818	1370.380	1796.613
422.628	140.190	1454.905	1796.741
