DTS Sentinel unit serial number:	SN413079Multiplexer serial number:	ORYXHardware model number:	OX4-SRSoftware version number:	ORYX F/W v4.00 Oryx Data Collector v3.7.2.0data status	okinstallation	princeton_trtdifferential loss correction	single-endedforward channel	channel 3reverse channel	N/Adate	2019/09/11time	11:46:11forward acquisition time	60.00reverse acquisition time	0.00gamma	496.2192k internal	0.2293k external	0.2293temperature offset calibration	0.9935default loss term (dB/km)	0.3790temperature slope calibration	1.0000multiplexer offset coefficient	1.0000multiplexer slope coefficient	1.0000fibre end	0.00T internal ref (°C)	38.67T ext. ref 1 (°C)	0.18T ext. ref 2 (°C)	36.48length (m)	temperature (°C)	Stokes	anti-Stokes-747.200	-200.000	-0.004	0.146
-746.185	-67.319	-0.295	-0.119
-745.171	-76.412	0.213	-0.077
-744.156	-157.361	-0.271	-0.017
-743.142	440.356	0.095	-0.212
-742.127	800.000	-0.111	0.333
-741.112	609.305	0.028	0.071
-740.098	233.895	-0.149	0.250
-739.083	-96.357	-0.417	-0.113
-738.069	-200.000	-0.025	-0.151
-737.054	-88.814	-0.228	0.069
-736.039	-105.285	-0.387	-0.090
-735.025	-94.659	0.138	-0.038
-734.010	713.230	0.083	-0.226
-732.996	11.503	-0.128	-0.100
-731.981	-106.728	-0.278	0.063
-730.966	-18.050	-0.353	0.226
-729.952	-200.000	0.010	-0.196
-728.937	47.617	-0.098	-0.094
-727.923	-200.000	-0.052	-0.241
-726.908	800.000	-0.096	-0.323
-725.894	10.038	-0.333	0.259
-724.879	137.253	-0.171	0.228
-723.864	117.124	0.122	-0.153
-722.850	-43.382	0.089	0.046
-721.835	786.890	0.128	0.358
-720.821	734.508	-0.072	-0.197
-719.806	410.646	-0.072	0.155
-718.791	-200.000	0.014	0.167
-717.777	-152.339	-0.502	-0.037
-716.762	-200.000	-0.020	-0.211
-715.748	800.000	0.087	-0.291
-714.733	-10.327	-0.133	0.090
-713.718	-120.531	0.333	-0.058
-712.704	214.936	-0.063	-0.102
-711.689	-200.000	-0.008	0.157
-710.675	88.070	0.089	0.101
-709.660	72.000	-0.141	0.150
-708.645	-200.000	0.037	0.236
-707.631	116.474	0.174	0.218
-706.616	-156.986	-0.267	-0.017
-705.602	531.496	-0.109	-0.264
-704.587	-140.215	0.111	-0.012
-703.572	-49.289	0.252	0.123
-702.558	800.000	-0.028	0.089
-701.543	30.466	-0.176	0.154
-700.529	-200.000	-0.033	-0.173
-699.514	108.310	0.137	0.167
-698.499	-58.860	0.148	0.065
-697.485	-33.455	-0.193	0.109
-696.470	-200.000	0.043	0.250
-695.456	329.695	-0.104	-0.203
-694.441	-18.772	0.226	0.144
-693.426	-51.840	-0.457	-0.217
-692.412	-88.298	-0.315	-0.096
-691.397	-200.000	0.013	-0.113
-690.383	107.463	-0.137	-0.166
-689.368	-200.000	0.024	-0.274
-688.354	-59.144	0.318	0.140
-687.339	308.800	-0.042	-0.081
-686.324	800.000	-0.109	-0.416
-685.310	-142.348	0.220	-0.022
-684.295	188.242	0.026	-0.040
-683.281	37.751	-0.139	0.126
-682.266	-200.000	-0.020	-0.164
-681.251	210.649	-0.077	-0.123
-680.237	-122.948	0.204	-0.034
-679.222	-9.257	-0.200	-0.136
-678.208	800.000	-0.038	-0.158
-677.193	-39.547	0.160	0.086
-676.178	800.000	-0.047	0.173
-675.164	-143.080	-0.180	0.018
-674.149	-200.000	0.026	-0.151
-673.135	418.385	0.086	-0.188
-672.120	-63.855	-0.127	0.053
-671.105	-102.399	-0.165	-0.040
-670.091	-73.571	0.134	0.050
-669.076	-71.722	0.058	-0.022
-668.062	-86.478	0.264	0.083
-667.047	242.126	0.136	0.232
-666.032	-200.000	0.019	-0.351
-665.018	658.913	0.029	-0.076
-664.003	-6.036	0.194	-0.135
-662.989	123.093	0.118	0.150
-661.974	131.455	0.057	-0.074
-660.959	-80.571	-0.191	-0.065
-659.945	39.771	0.126	-0.115
-658.930	800.000	-0.024	0.082
-657.916	-174.717	0.094	-0.003
-656.901	-66.525	-0.344	-0.139
-655.886	-145.736	-0.413	-0.038
-654.872	52.993	0.278	-0.271
-653.857	95.127	0.028	-0.032
-652.843	-200.000	-0.012	0.112
-651.828	175.919	0.096	0.142
-650.814	-200.000	-0.001	-0.098
-649.799	-148.052	0.460	-0.039
-648.784	-118.491	0.093	-0.017
-647.770	-101.751	-0.252	-0.062
-646.755	-112.962	0.349	0.070
-645.741	-62.720	-0.319	0.135
-644.726	-129.186	-0.160	0.023
-643.711	11.289	0.109	-0.085
-642.697	207.748	0.129	-0.206
-641.682	11.019	-0.133	0.104
-640.668	155.612	-0.114	0.161
-639.653	-200.000	-0.014	-0.345
-638.638	-137.286	-0.039	0.005
-637.624	-17.079	-0.119	-0.076
-636.609	135.083	0.128	-0.169
-635.595	-147.104	0.076	-0.007
-634.580	800.000	-0.011	0.047
-633.565	-137.699	0.313	-0.036
-632.551	-200.000	-0.024	0.214
-631.536	425.184	0.014	-0.030
-630.522	-100.838	0.256	0.064
-629.507	-139.840	0.145	-0.016
-628.492	-138.734	0.094	-0.010
-627.478	-140.893	0.016	0.002
-626.463	800.000	-0.049	0.209
-625.449	23.311	-0.115	-0.096
-624.434	-139.821	-0.209	0.023
-623.419	565.633	0.022	-0.055
-622.405	157.005	-0.057	0.080
-621.390	55.997	-0.178	0.176
-620.376	182.447	-0.121	0.181
-619.361	-35.970	-0.272	-0.150
-618.346	-172.801	-0.134	-0.004
-617.332	17.884	0.070	-0.057
-616.317	-33.297	-0.049	0.027
-615.303	800.000	-0.091	-0.378
-614.288	25.682	-0.437	-0.370
-613.273	-190.443	0.357	0.004
-612.259	800.000	0.179	0.600
-611.244	84.040	0.118	-0.131
-610.230	395.288	0.174	-0.370
-609.215	-200.000	-0.050	-0.245
-608.201	781.424	0.139	0.387
-607.186	800.000	-0.074	0.258
-606.171	-200.000	0.001	0.136
-605.157	267.406	-0.238	-0.423
-604.142	-87.788	-0.186	-0.057
-603.128	-200.000	0.027	-0.119
-602.113	75.081	-0.104	-0.111
-601.098	449.816	0.055	-0.124
-600.084	106.609	-0.085	0.103
-599.069	434.557	0.063	0.140
-598.055	24.085	-0.300	0.252
-597.040	-200.000	-0.229	0.001
-596.025	-200.000	-0.055	0.419
-595.011	-51.136	0.008	-0.004
-593.996	-119.525	0.343	0.061
-592.982	388.421	0.041	0.087
-591.967	-93.113	0.355	0.100
-590.952	-200.000	0.061	-0.350
-589.938	-34.949	0.079	0.044
-588.923	-40.403	0.179	0.095
-587.909	512.477	-0.077	-0.182
-586.894	414.536	0.210	-0.455
-585.879	282.508	0.098	0.178
-584.865	-200.000	-0.001	-0.080
-583.850	255.406	-0.076	0.132
-582.836	77.255	-0.027	-0.029
-581.821	53.630	0.310	-0.302
-580.806	-15.182	-0.436	-0.284
-579.792	407.135	-0.078	-0.167
-578.777	-124.726	0.221	0.035
-577.763	64.293	0.192	-0.197
-576.748	-169.684	-0.175	-0.006
-575.733	-200.000	0.032	-0.773
-574.719	-200.000	0.020	0.127
-573.704	-141.015	-0.200	0.021
-572.690	1.577	-0.109	0.080
-571.675	188.369	-0.154	-0.234
-570.661	-7.866	-0.162	-0.111
-569.646	212.046	0.056	-0.090
-568.631	236.569	0.084	-0.140
-567.617	-200.000	-0.007	-0.113
-566.602	-165.796	0.168	0.007
-565.588	-200.000	0.061	0.372
-564.573	295.010	0.125	0.232
-563.558	-94.248	0.277	-0.077
-562.544	-163.631	-0.184	0.009
-561.529	-95.421	0.080	0.022
-560.515	20.740	0.120	-0.099
-559.500	483.967	0.152	-0.352
-558.485	92.890	-0.163	-0.187
-557.471	-61.522	-0.053	-0.023
-556.456	81.696	0.241	-0.264
-555.442	800.000	-0.144	-0.605
-554.427	-137.393	-0.080	-0.009
-553.412	69.673	0.276	-0.289
-552.398	-200.000	-0.015	-0.221
-551.383	800.000	-0.027	-0.099
-550.369	-200.000	-0.010	0.202
-549.354	-200.000	0.032	-0.333
-548.339	-51.540	0.153	-0.073
-547.325	-161.002	-0.227	-0.012
-546.310	-200.000	0.026	-0.127
-545.296	-46.642	0.049	-0.025
-544.281	-200.000	-0.003	0.181
-543.266	-12.692	0.041	-0.027
-542.252	800.000	0.065	0.226
-541.237	-200.000	0.015	-0.101
-540.223	221.279	0.172	0.281
-539.208	63.168	0.032	-0.033
-538.193	-1.379	0.105	0.075
-537.179	448.747	0.059	0.131
-536.164	34.520	-0.178	0.158
-535.150	-89.156	0.094	-0.028
-534.135	23.111	0.145	-0.120
-533.121	-200.000	0.014	0.072
-532.106	-139.907	-0.316	-0.034
-531.091	94.778	0.069	-0.080
-530.077	154.428	-0.126	-0.176
-529.062	428.052	0.113	-0.248
-528.048	-33.802	-0.222	0.124
-527.033	290.039	0.011	0.020
-526.018	208.418	-0.013	-0.021
-525.004	-30.331	-0.391	0.225
-523.989	449.113	0.040	0.090
-522.975	-44.049	-0.141	-0.072
-521.960	-200.000	-0.053	0.344
-520.945	-170.217	0.206	-0.007
-519.931	800.000	0.083	0.238
-518.916	800.000	0.041	0.148
-517.902	-26.492	0.196	-0.116
-516.887	106.877	0.138	-0.166
-515.872	63.609	0.053	0.054
-514.858	-200.000	-0.008	-0.343
-513.843	123.792	-0.212	-0.269
-512.829	-124.100	-0.179	-0.028
-511.814	-200.000	0.029	0.143
-510.799	-54.636	-0.423	-0.194
-509.785	33.704	0.239	-0.211
-508.770	-153.775	-0.187	-0.013
-507.756	457.200	-0.151	0.339
-506.741	-47.719	0.250	0.123
-505.726	-32.847	-0.199	0.112
-504.712	-177.273	-0.205	-0.005
-503.697	800.000	0.049	0.166
-502.683	52.109	-0.134	0.130
-501.668	-76.725	0.405	0.144
-500.653	522.057	0.044	0.105
-499.639	65.661	-0.203	-0.208
-498.624	-200.000	-0.018	0.098
-497.610	-36.303	-0.238	0.130
-496.595	-200.000	0.015	-0.158
-495.581	-117.716	0.313	0.057
-494.566	123.639	-0.080	-0.102
-493.551	104.737	-0.152	-0.181
-492.537	800.000	-0.052	-0.154
-491.522	123.680	0.233	-0.296
-490.508	-151.661	0.444	-0.033
-489.493	-121.191	-0.211	0.036
-488.478	-94.615	-0.275	-0.076
-487.464	-200.000	0.041	-0.267
-486.449	800.000	-0.021	-0.077
-485.435	-200.000	-0.041	0.285
-484.420	3.524	0.104	0.077
-483.405	-64.421	0.074	-0.030
-482.391	-126.818	-0.233	0.035
-481.376	31.558	0.193	-0.168
-480.362	-7.020	-0.082	-0.056
-479.347	595.175	0.061	-0.154
-478.332	800.000	-0.043	0.154
-477.318	77.581	0.048	0.052
-476.303	800.000	0.050	-0.159
-475.289	-200.000	0.042	0.250
-474.274	-84.882	-0.061	0.019
-473.259	-92.221	0.413	0.118
-472.245	91.885	-0.238	0.271
-471.230	-133.336	0.217	-0.028
-470.216	-66.573	0.214	-0.086
-469.201	-83.004	0.211	-0.069
-468.186	196.249	0.176	-0.271
-467.172	-200.000	-0.018	-0.088
-466.157	800.000	0.033	-0.120
-465.143	-200.000	-0.035	0.272
-464.128	-200.000	0.047	0.426
-463.113	-91.251	-0.082	-0.024
-462.099	-29.472	-0.082	-0.048
-461.084	-142.952	-0.212	-0.021
-460.070	-200.000	-0.024	-0.221
-459.055	599.580	-0.027	0.068
-458.040	-114.145	-0.172	0.034
-457.026	50.235	-0.319	0.305
-456.011	800.000	-0.053	-0.199
-454.997	15.118	-0.087	0.069
-453.982	-128.960	0.082	0.012
-452.968	-149.552	-0.240	-0.019
-451.953	517.790	0.080	0.189
-450.938	120.317	0.099	0.124
-449.924	800.000	-0.016	0.046
-448.909	-200.000	0.003	0.019
-447.895	800.000	0.036	-0.141
-446.880	-36.684	0.361	0.196
-445.865	681.703	0.053	-0.141
-444.851	-56.994	-0.041	0.018
-443.836	238.329	-0.083	0.139
-442.822	-15.848	0.336	-0.217
-441.807	-82.186	0.278	-0.092
-440.792	-187.630	0.406	0.005
-439.778	-200.000	-0.170	-0.001
-438.763	-73.423	0.363	0.134
-437.749	-200.000	-0.010	0.323
-436.734	-153.260	-0.377	-0.027
-435.719	-14.856	-0.251	-0.163
-434.705	-200.000	0.010	0.096
-433.690	-61.607	0.223	-0.095
-432.676	-200.000	-0.021	-0.165
-431.661	476.279	-0.012	0.026
-430.646	800.000	-0.044	-0.169
-429.632	4.213	0.095	-0.070
-428.617	-148.697	-0.365	-0.030
-427.603	68.185	-0.168	-0.174
-426.588	-21.800	0.140	0.086
-425.573	112.500	0.145	0.177
-424.559	227.609	-0.167	0.275
-423.544	-109.337	0.308	0.066
-422.530	27.611	0.293	0.249
-421.515	-56.873	-0.340	-0.152
-420.500	-180.304	-0.164	-0.003
-419.486	409.875	0.075	0.161
-418.471	68.389	0.203	0.210
-417.457	-200.000	0.041	0.255
-416.442	355.961	-0.064	0.129
-415.428	607.766	-0.192	0.485
-414.413	223.051	-0.072	-0.118
-413.398	332.717	0.020	0.039
-412.384	526.774	-0.030	0.071
-411.369	-200.000	-0.002	-0.182
-410.355	7.234	0.073	-0.055
-409.340	-98.090	-0.384	0.100
-408.325	373.101	-0.041	-0.084
-407.311	800.000	0.064	0.227
-406.296	-86.160	-0.113	-0.035
-405.282	-27.618	-0.164	0.096
-404.267	30.398	0.282	0.243
-403.252	-100.896	-0.070	-0.017
-402.238	571.655	-0.093	-0.229
-401.223	-11.834	0.138	-0.092
-400.209	-24.199	0.270	-0.163
-399.194	-130.926	0.105	0.014
-398.179	131.472	0.035	-0.046
-397.165	206.435	0.067	0.105
-396.150	-88.837	-0.246	0.074
-395.136	79.196	-0.220	0.238
-394.121	800.000	-0.067	0.208
-393.106	-74.785	-0.168	0.061
-392.092	593.683	0.183	0.456
-391.077	-100.710	0.017	0.004
-390.063	-200.000	0.001	-0.009
-389.048	-200.000	-0.044	-0.276
-388.033	94.838	-0.182	0.209
-387.019	-200.000	-0.013	0.241
-386.004	103.933	-0.197	-0.233
-384.990	-110.665	-0.170	-0.036
-383.975	-106.576	-0.061	-0.014
-382.960	-101.546	0.374	0.092
-381.946	14.949	-0.150	0.119
-380.931	-122.562	0.078	-0.013
-379.917	-20.836	0.154	-0.095
-378.902	-29.686	-0.185	-0.107
-377.888	-200.000	0.011	0.091
-376.873	351.529	-0.096	0.191
-375.858	-111.735	-0.302	-0.062
-374.844	-200.000	0.012	0.202
-373.829	-200.000	0.056	-0.351
-372.815	-96.379	0.285	0.076
-371.800	800.000	-0.059	0.211
-370.785	799.266	-0.056	0.157
-369.771	-69.956	-0.303	-0.116
-368.756	-200.000	-0.056	0.293
-367.742	212.851	0.085	0.135
-366.727	-68.684	0.257	0.100
-365.712	-113.040	0.249	0.050
-364.698	-200.000	-0.005	0.128
-363.683	130.627	-0.163	0.211
-362.669	800.000	0.050	0.200
-361.654	-53.725	0.174	-0.080
-360.639	71.552	0.154	-0.161
-359.625	9.856	0.178	-0.136
-358.610	-3.969	0.124	-0.087
-357.596	483.490	-0.140	0.320
-356.581	21.042	-0.032	-0.026
-355.566	800.000	-0.012	0.047
-354.552	-167.781	0.150	0.006
-353.537	-200.000	0.048	-0.294
-352.523	-147.630	0.142	0.012
-351.508	132.656	0.168	0.219
-350.493	-200.000	-0.007	0.139
-349.479	-147.317	-0.143	0.012
-348.464	-137.344	-0.381	-0.044
-347.450	-151.740	-0.249	0.018
-346.435	14.099	-0.057	0.045
-345.420	74.203	-0.370	-0.391
-344.406	87.145	-0.228	-0.254
-343.391	722.526	0.144	-0.387
-342.377	15.576	-0.219	-0.173
-341.362	-200.000	0.016	-0.142
-340.348	-88.236	0.199	-0.060
-339.333	-200.000	-0.012	0.316
-338.318	388.718	0.103	0.216
-337.304	-133.028	0.224	-0.029
-336.289	800.000	-0.066	-0.209
-335.275	-6.197	0.072	-0.050
-334.260	-34.974	-0.199	-0.109
-333.245	-33.886	0.204	0.113
-332.231	-200.000	0.016	-0.226
-331.216	12.548	0.293	-0.228
-330.202	-34.890	-0.088	-0.049
-329.187	-21.785	-0.048	0.030
-328.172	475.531	-0.061	-0.139
-327.158	80.538	0.227	0.246
-326.143	156.427	0.267	0.370
-325.129	-200.000	-0.013	-0.297
-324.114	-117.438	-0.149	-0.027
-323.099	91.295	0.037	-0.041
-322.085	191.949	-0.163	0.248
-321.070	800.000	0.055	0.193
-320.056	91.144	-0.239	-0.270
-319.041	136.997	0.018	-0.024
-318.026	14.946	0.110	-0.087
-317.012	800.000	-0.049	0.166
-315.997	-127.051	0.437	0.065
-314.983	-65.259	0.093	-0.038
-313.968	10.323	0.032	-0.025
-312.953	473.485	-0.093	-0.212
-311.939	351.930	-0.206	-0.410
-310.924	-36.072	0.145	0.079
-309.910	800.000	0.019	0.054
-308.895	-114.741	0.298	0.057
-307.880	-85.084	0.386	0.122
-306.866	611.915	0.172	0.434
-305.851	-200.000	0.071	0.314
-304.837	155.931	0.133	-0.185
-303.822	-95.197	-0.287	0.078
-302.807	800.000	-0.042	-0.150
-301.793	-37.278	0.082	0.044
-300.778	285.780	0.016	-0.029
-299.764	-158.227	-0.117	0.007
-298.749	312.352	0.090	-0.170
-297.735	-200.000	0.007	0.248
-296.720	282.418	-0.149	-0.269
-295.705	-200.000	-0.006	-0.101
-294.691	-200.000	0.048	0.461
-293.676	11.404	-0.063	-0.048
-292.662	91.994	-0.358	-0.405
-291.647	-153.184	0.011	0.001
-290.632	1.690	-0.164	-0.119
-289.618	356.402	0.154	-0.309
-288.603	-200.000	0.061	-0.494
-287.589	-32.960	0.122	0.068
-286.574	-108.685	0.359	0.077
-285.559	800.000	0.026	-0.103
-284.545	367.796	0.123	0.250
-283.530	-200.000	-0.031	-0.215
-282.516	-48.503	0.292	-0.141
-281.501	50.882	0.148	0.140
-280.486	-7.167	0.081	0.055
-279.472	-120.758	0.313	-0.053
-278.457	-200.000	0.010	0.078
-277.443	278.227	0.075	-0.134
-276.428	-121.685	0.139	-0.023
-275.413	227.491	-0.249	0.408
-274.399	800.000	-0.048	0.202
-273.384	-84.913	-0.176	-0.056
-272.370	-42.211	-0.423	0.217
-271.355	11.011	0.154	0.118
-270.340	159.656	-0.175	0.244
-269.326	-200.000	-0.006	-0.204
-268.311	-9.734	-0.092	-0.061
-267.297	-200.000	-0.083	-0.375
-266.282	-69.278	-0.155	-0.060
-265.267	-43.564	-0.242	-0.123
-264.253	312.798	0.020	-0.037
-263.238	-200.000	0.078	0.376
-262.224	106.852	0.159	0.189
-261.209	299.379	0.109	0.201
-260.195	800.000	-0.075	0.257
-259.180	-200.000	0.003	-0.188
-258.165	67.074	0.110	-0.112
-257.151	81.662	-0.057	0.062
-256.136	95.892	0.207	0.237
-255.122	-200.000	-0.010	-0.156
-254.107	-130.535	-0.263	0.036
-253.092	84.296	-0.055	0.061
-252.078	-105.655	0.408	0.093
-251.063	-132.392	0.156	0.020
-250.049	-200.000	-0.020	0.352
-249.034	-200.000	-0.010	-0.286
-248.019	-9.811	0.193	-0.129
-247.005	-50.134	0.093	0.044
-245.990	-152.331	0.044	0.003
-244.976	-200.000	-0.040	0.368
-243.961	-190.494	0.337	0.004
-242.946	-200.000	-0.009	-0.148
-241.932	800.000	-0.057	0.240
-240.917	-146.664	0.171	0.015
-239.903	-111.015	-0.069	-0.014
-238.888	198.169	0.159	0.244
-237.873	-77.556	0.230	-0.080
-236.859	-77.543	0.072	0.025
-235.844	-15.515	-0.185	-0.118
-234.830	103.674	0.184	-0.217
-233.815	-108.043	0.087	-0.019
-232.800	-156.993	0.122	-0.008
-231.786	12.996	-0.227	-0.176
-230.771	-163.425	-0.098	-0.005
-229.757	-3.976	-0.143	0.099
-228.742	-169.561	-0.068	-0.002
-227.727	306.691	0.128	0.239
-226.713	126.316	0.291	-0.369
-225.698	-90.195	-0.148	-0.043
-224.684	-200.000	-0.026	-0.179
-223.669	-44.665	0.113	0.056
-222.655	-105.932	-0.153	-0.035
-221.640	211.138	-0.103	-0.163
-220.625	-15.406	0.264	0.169
-219.611	-178.224	-0.273	-0.006
-218.596	-17.114	-0.087	-0.055
-217.582	-104.538	0.136	0.031
-216.567	-200.000	-0.005	0.106
-215.552	-200.000	0.036	-0.294
-214.538	-8.122	-0.062	-0.042
-213.523	164.095	0.169	0.239
-212.509	-152.109	-0.154	-0.011
-211.494	-103.018	-0.253	0.060
-210.479	-200.000	0.019	0.162
-209.465	-191.946	-0.234	-0.002
-208.450	-104.511	0.186	0.043
-207.436	215.828	0.018	0.028
-206.421	-200.000	0.006	0.257
-205.406	-107.967	-0.020	-0.004
-204.392	121.029	-0.199	-0.248
-203.377	82.316	0.207	-0.225
-202.363	800.000	-0.040	-0.135
-201.348	-164.981	-0.284	0.013
-200.333	-43.364	-0.213	0.108
-199.319	-2.582	0.245	-0.172
-198.304	-165.384	-0.278	0.012
-197.290	-120.667	0.053	-0.009
-196.275	18.752	-0.256	0.205
-195.260	29.228	-0.222	-0.188
-194.246	36.517	0.205	-0.181
-193.231	-200.000	-0.008	-0.119
-192.217	-104.660	-0.124	-0.029
-191.202	-104.508	-0.254	-0.059
-190.187	-200.000	0.036	-0.276
-189.173	800.000	-0.124	-0.401
-188.158	79.066	-0.332	0.357
-187.144	-145.331	-0.289	-0.026
-186.129	-116.362	0.216	-0.040
-185.114	-58.702	0.103	0.045
-184.100	653.820	-0.093	-0.240
-183.085	3.724	0.069	0.051
-182.071	84.493	0.254	0.279
-181.056	-43.931	0.352	0.177
-180.042	126.824	-0.223	0.283
-179.027	-60.753	-0.370	-0.157
-178.012	664.552	0.077	-0.199
-176.998	30.992	0.042	0.036
-175.983	281.431	0.298	0.534
-174.969	-141.633	-0.126	0.013
-173.954	800.000	0.039	-0.130
-172.939	-153.212	0.135	0.009
-171.925	264.287	0.193	-0.336
-170.910	67.995	-0.347	-0.355
-169.896	198.748	-0.208	0.319
-168.881	-200.000	-0.051	0.323
-167.866	13.259	-0.395	-0.306
-166.852	742.042	-0.137	0.368
-165.837	16.505	-0.220	0.174
-164.823	159.818	-0.128	0.178
-163.808	300.475	0.140	-0.259
-162.793	-111.324	-0.285	0.058
-161.779	71.481	0.160	-0.167
-160.764	-121.045	0.224	0.038
-159.750	-103.458	0.267	0.063
-158.735	800.000	-0.027	-0.109
-157.720	800.000	-0.121	0.492
-156.706	-124.082	-0.215	-0.034
-155.691	67.989	-0.265	0.271
-154.677	59.975	-0.211	0.208
-153.662	438.802	0.091	0.200
-152.647	-198.627	-0.300	-0.002
-151.633	696.769	0.089	-0.235
-150.618	-200.000	0.053	-0.459
-149.604	523.411	0.077	-0.181
-148.589	-141.037	0.199	0.020
-147.574	800.000	-0.047	-0.191
-146.560	-200.000	0.030	-0.451
-145.545	108.514	-0.056	-0.066
-144.531	83.496	0.201	0.219
-143.516	-153.667	-0.277	-0.019
-142.502	800.000	-0.021	-0.064
-141.487	-200.000	0.017	-0.155
-140.472	-58.579	0.243	-0.105
-139.458	-162.688	-0.099	-0.005
-138.443	-121.066	0.179	-0.030
-137.429	142.061	0.122	-0.161
-136.414	-28.721	0.184	0.106
-135.399	-91.138	-0.054	0.015
-134.385	-200.000	-0.009	-0.125
-133.370	-12.998	-0.157	-0.102
-132.356	116.025	0.017	0.021
-131.341	60.501	0.341	0.338
-130.326	223.653	0.091	-0.146
-129.312	-92.754	0.130	-0.036
-128.297	368.551	0.084	0.170
-127.283	-6.767	0.279	-0.189
-126.268	58.745	-0.185	0.181
-125.253	-76.053	-0.231	-0.082
-124.239	400.578	0.145	-0.303
-123.224	132.942	0.057	-0.074
-122.210	52.466	0.129	0.123
-121.195	-200.000	0.007	0.122
-120.180	-158.906	0.067	0.004
-119.166	410.324	-0.022	0.046
-118.151	-83.649	-0.082	-0.026
-117.137	12.212	0.118	-0.091
-116.122	36.517	-0.142	0.126
-115.107	486.477	0.147	-0.336
-114.093	206.603	-0.094	0.146
-113.078	800.000	-0.156	-0.436
-112.064	71.586	0.141	-0.146
-111.049	-200.000	-0.369	-0.001
-110.034	64.763	0.236	0.238
-109.020	-143.933	0.216	-0.020
-108.005	48.538	-0.062	0.058
-106.991	-36.245	0.101	-0.054
-105.976	8.747	-0.355	-0.267
-104.962	-115.759	-0.426	0.080
-103.947	-158.680	-0.268	-0.015
-102.932	800.000	0.017	0.074
-101.918	-92.069	0.201	0.057
-100.903	-137.733	-0.214	-0.024
-99.889	-118.129	-0.174	-0.031
-98.874	71.602	0.190	-0.197
-97.859	-200.000	-0.016	0.129
-96.845	800.000	-0.070	0.201
-95.830	169.725	0.215	0.306
-94.816	235.374	0.149	0.245
-93.801	-138.298	0.166	0.018
-92.786	-196.387	0.297	-0.002
-91.772	29.055	-0.198	0.167
-90.757	-47.993	-0.058	-0.028
-89.743	-82.211	-0.508	-0.165
-88.728	-37.691	-0.192	0.102
-87.713	-55.004	0.203	-0.091
-86.699	132.441	-0.083	-0.107
-85.684	-200.000	0.007	0.164
-84.670	196.114	-0.167	-0.254
-83.655	55.338	0.053	0.051
-82.640	800.000	0.107	-0.394
-81.626	580.302	-0.100	-0.245
-80.611	-200.000	0.039	0.308
-79.597	-81.592	-0.120	0.039
-78.582	21.412	-0.065	-0.053
-77.567	96.163	-0.196	0.224
-76.553	-181.913	0.237	0.005
-75.538	11.874	0.035	-0.027
-74.524	-72.154	0.089	-0.033
-73.509	800.000	0.072	0.218
-72.494	-200.000	-0.013	0.113
-71.480	-24.349	0.159	0.094
-70.465	47.949	0.135	0.126
-69.451	356.962	-0.113	0.225
-68.436	-73.059	-0.365	-0.133
-67.422	127.453	0.108	-0.137
-66.407	-144.655	-0.295	-0.027
-65.392	-200.000	0.066	-0.395
-64.378	800.000	-0.032	0.088
-63.363	-128.733	0.226	0.032
-62.349	-158.482	0.485	0.028
-61.334	21.654	-0.843	-0.684
-60.319	-81.484	0.377	0.123
-59.305	-200.000	-0.013	-1.022
-58.290	800.000	0.362	1.070
-57.276	539.309	0.587	1.390
-56.261	-200.000	79.754	497.935
-55.246	564.582	1366.623	3298.705
-54.232	180.859	2609.013	3817.070
-53.217	122.107	2274.044	2827.998
-52.203	48.786	1802.130	1683.736
-51.188	41.734	1605.768	1449.308
-50.173	39.326	1576.066	1405.278
-49.159	55.733	1614.781	1558.438
-48.144	60.255	1634.267	1609.789
-47.130	42.352	1597.922	1446.459
-46.115	38.947	1584.015	1409.422
-45.100	38.877	1580.435	1405.676
-44.086	38.776	1578.526	1403.201
-43.071	38.684	1577.010	1401.135
-42.057	38.693	1575.270	1399.598
-41.042	38.573	1573.594	1397.199
-40.027	38.702	1571.270	1396.000
-39.013	38.568	1570.289	1394.122
-37.998	38.651	1569.042	1393.551
-36.984	38.730	1567.489	1392.677
-35.969	38.633	1566.687	1391.220
-34.954	38.627	1565.321	1389.905
-33.940	38.697	1563.304	1388.560
-32.925	38.691	1561.927	1387.235
-31.911	38.628	1560.949	1385.867
-30.896	38.782	1559.325	1385.459
-29.881	38.736	1558.284	1384.152
-28.867	38.766	1556.659	1382.867
-27.852	38.790	1555.276	1381.750
-26.838	38.724	1554.221	1380.298
-25.823	38.755	1552.076	1378.553
-24.809	38.733	1550.450	1376.901
-23.794	38.747	1549.368	1375.985
-22.779	38.795	1547.682	1374.764
-21.765	38.814	1546.855	1374.109
-20.750	38.767	1545.493	1372.516
-19.736	38.704	1544.360	1371.015
-18.721	38.728	1543.055	1369.970
-17.706	38.721	1542.261	1369.161
-16.692	38.587	1541.335	1367.350
-15.677	38.708	1540.019	1366.975
-14.663	38.564	1539.442	1365.402
-13.648	38.648	1538.031	1364.683
-12.633	38.547	1536.576	1362.637
-11.619	38.505	1536.392	1362.127
-10.604	38.587	1535.057	1361.459
-9.590	38.633	1533.770	1360.585
-8.575	38.618	1533.201	1359.916
-7.560	38.644	1532.006	1358.988
-6.546	38.626	1531.268	1358.154
-5.531	38.628	1530.388	1357.333
-4.517	38.504	1530.112	1356.174
-3.502	38.597	1528.395	1355.239
-2.487	38.574	1527.271	1354.029
-1.473	38.580	1526.179	1353.050
-0.458	38.673	1524.722	1352.346
0.556	36.920	1516.147	1343.369
1.571	34.803	1489.367	1305.086
2.586	31.817	1425.372	1229.353
3.600	30.256	1338.956	1145.091
4.615	28.389	1289.792	1091.837
5.629	23.151	1228.322	1009.895
6.644	10.990	1132.696	866.782
7.659	1.764	1084.935	782.906
8.673	0.446	1078.740	771.626
9.688	0.101	1076.341	768.081
10.702	0.072	1074.347	766.441
11.717	0.112	1072.428	765.212
12.731	4.174	1077.820	789.718
13.746	15.348	1094.902	859.726
14.761	22.190	1103.804	901.867
15.775	22.509	1102.720	902.539
16.790	22.266	1101.990	900.619
17.804	22.002	1101.165	898.514
18.819	21.905	1100.156	897.115
19.834	21.963	1099.114	896.482
20.848	22.140	1098.844	897.082
21.863	22.123	1098.540	896.672
22.877	22.012	1098.438	895.941
23.892	22.181	1097.173	895.689
24.907	21.952	1096.531	893.922
25.921	22.056	1095.665	893.664
26.936	21.984	1094.962	892.647
27.950	22.051	1093.815	891.975
28.965	21.956	1092.580	890.405
29.980	21.773	1091.166	888.246
30.994	21.822	1089.675	887.200
32.009	21.990	1088.638	887.129
33.023	22.177	1087.961	887.441
34.038	21.828	1087.191	884.974
35.053	21.833	1086.161	884.083
36.067	22.177	1085.376	885.098
37.082	22.009	1084.950	883.828
38.096	22.091	1084.232	883.575
39.111	22.179	1083.339	883.213
40.126	22.418	1082.234	883.436
41.140	22.246	1080.765	881.296
42.155	21.957	1079.707	878.906
43.169	21.803	1078.680	877.224
44.184	21.753	1077.129	875.634
45.199	21.891	1076.072	875.389
46.213	21.814	1075.390	874.373
47.228	21.718	1074.501	873.092
48.242	21.891	1073.462	873.033
49.257	21.971	1072.652	872.694
50.271	21.875	1072.501	872.018
51.286	22.062	1071.527	872.077
52.301	22.049	1071.022	871.525
53.315	22.096	1070.480	871.235
54.330	22.050	1069.642	870.251
55.344	22.042	1068.481	869.191
56.359	21.968	1067.534	867.975
57.374	22.018	1067.142	867.828
58.388	21.854	1065.482	865.590
59.403	21.603	1065.186	864.037
60.417	21.852	1063.961	864.194
61.432	21.749	1063.431	863.180
62.447	21.733	1062.709	862.439
63.461	21.911	1061.887	862.571
64.476	21.867	1061.442	861.918
65.490	21.973	1060.247	861.391
66.505	21.801	1059.228	859.641
67.520	21.710	1058.487	858.521
68.534	21.808	1057.499	858.120
69.549	21.761	1056.488	856.995
70.563	21.360	1055.477	854.142
71.578	21.342	1054.624	853.284
72.593	21.333	1053.908	852.586
73.607	21.339	1051.966	850.972
74.622	21.184	1051.786	849.997
75.636	21.467	1051.109	850.749
76.651	21.662	1050.448	851.087
77.666	21.561	1049.320	849.607
78.680	21.440	1048.483	848.269
79.695	21.525	1047.570	847.868
80.709	21.594	1046.941	847.615
81.724	21.626	1046.226	847.115
82.739	21.706	1045.119	846.531
83.753	21.566	1044.804	845.523
84.768	21.816	1044.407	846.335
85.782	22.222	1043.338	847.352
86.797	22.269	1042.819	847.083
87.812	22.198	1041.638	845.704
88.826	22.049	1040.987	844.386
89.841	22.141	1039.795	843.787
90.855	22.207	1039.293	843.623
91.870	22.234	1038.345	842.907
92.884	22.224	1037.811	842.352
93.899	22.239	1036.323	841.138
94.914	22.120	1035.638	839.941
95.928	22.237	1034.851	839.790
96.943	22.279	1033.855	839.107
97.957	21.852	1032.787	836.127
98.972	21.836	1031.583	835.005
99.987	21.609	1030.593	833.049
101.001	21.526	1030.243	832.299
102.016	21.915	1029.784	833.700
103.030	21.976	1028.556	832.925
104.045	21.916	1027.567	831.765
105.060	21.828	1026.017	830.021
106.074	21.611	1024.554	827.735
107.089	21.551	1024.259	827.142
108.103	21.997	1023.784	828.793
109.118	22.042	1023.233	828.483
110.133	21.817	1021.622	826.044
111.147	21.739	1020.886	825.013
112.162	21.613	1019.335	823.094
113.176	21.436	1018.057	821.157
114.191	21.541	1017.382	821.034
115.206	21.513	1017.197	820.678
116.220	21.364	1015.484	818.526
117.235	21.288	1014.504	817.311
118.249	21.299	1014.144	817.000
119.264	21.379	1013.029	816.399
120.279	21.229	1011.986	814.790
121.293	21.284	1011.355	814.462
122.308	21.434	1010.650	814.522
123.322	21.434	1009.652	813.649
124.337	21.400	1008.604	812.572
125.352	21.291	1007.281	810.927
126.366	20.905	1005.341	807.508
127.381	20.651	1004.276	805.404
128.395	21.154	1004.150	807.561
129.410	21.851	1003.988	810.580
130.424	21.960	1002.764	810.025
131.439	22.002	1001.922	809.466
132.454	21.725	1001.313	807.627
133.468	21.852	1000.227	807.263
134.483	21.819	999.180	806.196
135.497	21.942	998.557	806.186
136.512	22.072	998.189	806.417
137.527	22.147	997.667	806.267
138.541	22.153	996.569	805.336
139.556	22.247	995.792	805.063
140.570	22.301	994.365	804.088
141.585	22.173	993.882	803.040
142.600	22.329	993.132	803.078
143.614	22.211	992.029	801.574
144.629	22.432	991.167	801.815
145.643	22.468	991.188	801.925
146.658	22.381	990.114	800.589
147.673	22.149	988.904	798.485
148.687	22.125	987.401	797.094
149.702	21.999	986.513	795.735
150.716	21.842	985.435	794.086
151.731	21.950	984.417	793.683
152.746	21.964	983.747	793.135
153.760	22.141	983.340	793.535
154.775	22.285	982.094	793.108
155.789	22.320	981.134	792.419
156.804	22.231	980.370	791.334
157.819	22.310	978.485	790.096
158.833	22.395	978.182	790.166
159.848	22.404	977.984	789.973
160.862	22.505	976.785	789.388
161.877	22.276	975.974	787.639
162.892	22.215	974.956	786.476
163.906	22.364	973.965	786.270
164.921	22.346	973.402	785.666
165.935	22.263	972.403	784.422
166.950	22.170	971.275	783.027
167.964	22.312	970.180	782.706
168.979	22.227	969.301	781.549
169.994	22.217	967.687	780.137
171.008	22.044	967.039	778.777
172.023	22.216	966.394	778.950
173.037	22.312	965.731	778.771
174.052	22.309	964.150	777.415
175.067	21.998	963.150	775.166
176.081	21.998	962.291	774.409
177.096	22.080	962.005	774.472
178.110	22.175	960.894	773.927
179.125	21.904	959.514	771.552
180.140	21.639	958.932	769.854
181.154	21.669	958.355	769.454
182.169	21.841	957.579	769.517
183.183	21.974	957.361	769.856
184.198	22.336	956.892	770.998
185.213	22.238	956.046	769.821
186.227	22.279	955.050	769.130
187.242	22.207	955.435	769.056
188.256	22.350	954.398	768.776
189.271	22.240	953.619	767.603
190.286	22.341	952.644	767.191
191.300	22.272	951.643	766.014
192.315	21.744	950.483	762.716
193.329	21.246	948.339	758.764
194.344	20.666	947.868	755.803
195.359	20.989	948.528	757.666
196.373	21.751	948.567	760.939
197.388	22.201	948.083	762.437
198.402	22.243	947.061	761.727
199.417	22.023	946.667	760.392
200.432	22.106	946.123	760.245
201.446	21.958	945.765	759.253
202.461	21.594	944.963	756.966
203.475	21.886	943.726	757.169
204.490	21.471	942.501	754.330
205.504	20.359	940.513	747.886
206.519	20.626	940.268	748.774
207.534	21.589	941.092	753.511
208.548	21.675	940.406	753.264
209.563	22.101	940.282	754.930
210.577	22.031	939.781	754.161
211.592	21.901	938.436	752.457
212.607	22.208	938.143	753.471
213.621	22.345	937.723	753.653
214.636	22.273	937.072	752.756
215.650	22.398	936.529	752.786
216.665	22.288	936.037	751.857
217.680	22.392	935.190	751.552
218.694	22.514	934.663	751.586
219.709	22.006	934.014	748.827
220.723	21.792	932.902	746.959
221.738	21.882	932.492	746.948
222.753	22.130	931.890	747.457
223.767	22.054	931.295	746.590
224.782	22.236	930.209	746.423
225.796	22.357	929.890	746.617
226.811	22.429	929.209	746.308
227.826	22.120	927.888	743.873
228.840	21.388	926.181	739.345
229.855	21.138	925.831	737.942
230.869	21.393	925.821	738.948
231.884	21.260	924.157	736.993
232.899	21.206	923.767	736.390
233.913	22.001	924.403	740.184
234.928	22.204	923.741	740.444
235.942	21.943	923.040	738.718
236.957	22.090	922.358	738.726
237.972	21.766	921.356	736.497
238.986	21.558	920.551	734.913
240.001	21.725	919.953	735.074
241.015	21.809	919.303	734.840
242.030	21.908	918.790	734.781
243.045	21.915	918.336	734.381
244.059	22.073	917.762	734.519
245.074	22.190	917.159	734.458
246.088	22.320	916.001	734.009
247.103	21.912	915.397	731.759
248.117	21.842	914.768	730.900
249.132	22.393	914.850	733.194
250.147	22.690	914.744	734.281
251.161	22.860	913.999	734.327
252.176	22.978	913.081	734.016
253.190	23.051	912.836	734.056
254.205	22.943	912.303	733.113
255.220	23.236	911.853	733.901
256.234	23.249	910.968	733.177
257.249	23.068	910.604	732.070
258.263	22.940	909.752	730.794
259.278	22.882	909.366	730.180
260.293	22.943	908.812	729.920
261.307	23.153	908.113	730.160
262.322	22.970	907.507	728.854
263.336	22.887	906.659	727.767
264.351	22.424	905.483	724.854
265.366	21.402	903.321	718.859
266.380	20.927	902.365	716.082
267.395	21.788	902.729	719.847
268.409	22.541	902.688	722.839
269.424	22.519	902.356	722.420
270.439	22.617	901.489	722.064
271.453	22.750	901.191	722.307
272.468	22.778	900.319	721.658
273.482	22.986	899.706	721.952
274.497	23.131	899.321	722.170
275.512	23.053	898.396	721.048
276.526	22.350	897.051	717.038
277.541	22.560	896.689	717.543
278.555	22.880	896.282	718.455
279.570	22.717	895.921	717.439
280.585	22.509	894.816	715.646
281.599	22.490	894.571	715.310
282.614	22.769	894.136	716.032
283.628	22.223	893.105	712.928
284.643	21.904	892.315	710.941
285.657	22.350	892.436	712.782
286.672	22.202	891.281	711.199
287.687	21.708	890.075	708.177
288.701	22.116	890.103	709.783
289.716	22.435	889.952	710.889
290.730	22.216	888.743	708.980
291.745	22.055	888.112	707.763
292.760	21.921	887.024	706.293
293.774	21.769	886.432	705.150
294.789	22.845	886.817	709.719
295.803	23.407	886.985	712.049
296.818	23.273	886.686	711.210
297.833	23.417	886.377	711.475
298.847	23.136	884.868	709.076
299.862	22.734	884.098	706.785
300.876	22.853	883.539	706.752
301.891	23.226	883.078	707.813
302.906	23.298	882.229	707.357
303.920	23.097	881.189	705.661
304.935	22.807	880.838	704.161
305.949	23.084	880.693	705.087
306.964	23.333	880.195	705.617
307.979	23.178	878.979	703.965
308.993	23.137	878.662	703.483
310.008	23.373	878.222	704.007
311.022	23.439	877.947	703.986
312.037	23.242	877.513	702.795
313.052	23.140	876.659	701.642
314.066	23.031	876.050	700.664
315.081	22.341	874.586	696.699
316.095	21.656	872.948	692.625
317.110	22.107	873.348	694.664
318.125	22.961	873.517	698.111
319.139	22.689	872.402	696.086
320.154	21.573	870.502	690.111
321.168	20.934	869.601	686.821
322.183	21.543	870.249	689.670
323.197	22.553	870.181	693.532
324.212	22.841	870.246	694.658
325.227	23.070	869.506	694.904
326.241	23.128	869.238	694.858
327.256	23.067	868.615	694.058
328.270	22.863	868.014	692.716
329.285	22.851	867.235	691.986
330.300	22.728	866.630	690.959
331.314	22.566	865.724	689.544
332.329	22.499	865.249	688.843
333.343	22.942	864.789	690.147
334.358	23.181	864.772	691.003
335.373	23.020	863.960	689.667
336.387	23.179	863.464	689.829
337.402	23.532	862.974	690.750
338.416	23.713	862.496	691.011
339.431	23.526	862.049	689.867
340.446	23.641	861.492	689.805
341.460	23.864	860.896	690.132
342.475	23.726	860.618	689.314
343.489	23.517	859.642	687.661
344.504	23.565	858.967	687.245
345.519	23.786	858.958	688.033
346.533	24.080	858.625	688.845
347.548	24.122	857.669	688.181
348.562	24.072	857.457	687.755
349.577	23.913	857.113	686.805
350.592	23.935	856.593	686.410
351.606	24.044	855.625	685.994
352.621	24.053	855.051	685.510
353.635	23.769	854.899	684.231
354.650	23.735	854.150	683.442
355.665	23.439	853.291	681.557
356.679	22.499	851.352	676.338
357.694	22.263	850.636	674.806
358.708	22.798	851.120	677.183
359.723	22.848	850.091	676.496
360.738	23.089	850.016	677.297
361.752	23.647	849.616	679.056
362.767	23.687	849.592	679.130
363.781	23.957	849.538	680.059
364.796	24.279	849.246	680.995
365.810	24.345	848.733	680.773
366.825	24.415	848.516	680.806
367.840	24.284	847.995	679.830
368.854	24.134	847.669	678.937
369.869	23.685	846.572	676.288
370.883	23.616	845.933	675.455
371.898	23.666	845.096	674.919
372.913	23.673	844.262	674.220
373.927	23.647	843.939	673.803
374.942	23.919	843.084	674.092
375.956	23.916	842.714	673.724
376.971	24.005	841.966	673.405
377.986	24.157	841.616	673.640
379.000	24.301	841.630	674.136
380.015	24.123	841.095	672.974
381.029	24.106	839.956	671.939
382.044	24.116	839.050	671.191
383.059	24.220	838.729	671.269
384.073	24.089	839.084	671.001
385.088	24.307	837.970	670.869
386.102	24.278	837.380	670.229
387.117	24.296	836.483	669.520
388.132	24.101	836.069	668.396
389.146	23.811	835.393	666.709
390.161	23.408	834.019	664.044
391.175	23.361	834.386	664.101
392.190	23.883	834.264	665.901
393.205	24.032	833.302	665.631
394.219	22.999	831.971	660.651
395.234	21.388	829.563	652.670
396.248	20.613	828.372	648.785
397.263	21.763	829.215	653.679
398.278	23.415	830.573	660.857
399.292	23.896	830.607	662.619
400.307	23.590	829.994	660.933
401.321	23.700	829.401	660.810
402.336	23.573	829.155	660.084
403.350	23.957	829.012	661.340
404.365	24.342	828.815	662.556
405.380	24.611	828.734	663.431
406.394	24.885	828.195	663.957
407.409	25.093	827.728	664.292
408.423	25.163	827.041	663.942
409.438	24.891	826.887	662.755
410.453	24.701	826.658	661.807
411.467	25.019	825.886	662.309
412.482	25.057	825.359	661.966
413.496	24.904	825.107	661.142
414.511	24.974	824.752	661.056
415.526	25.142	823.702	660.774
416.540	25.033	823.530	660.177
417.555	24.951	823.079	659.456
418.569	24.594	822.176	657.362
419.584	24.540	821.665	656.695
420.599	24.718	821.379	657.062
421.613	147.183	1361.394	1769.294
422.628	128.133	1440.083	1769.399
