DTS Sentinel unit serial number:	SN413079Multiplexer serial number:	ORYXHardware model number:	OX4-SRSoftware version number:	ORYX F/W v4.00 Oryx Data Collector v3.7.2.0data status	okinstallation	princeton_trtdifferential loss correction	single-endedforward channel	channel 3reverse channel	N/Adate	2019/09/19time	09:32:34forward acquisition time	60.00reverse acquisition time	0.00gamma	496.2192k internal	0.2344k external	0.2344temperature offset calibration	0.9965default loss term (dB/km)	0.3790temperature slope calibration	1.0000multiplexer offset coefficient	1.0000multiplexer slope coefficient	1.0000fibre end	0.00T internal ref (°C)	22.87T ext. ref 1 (°C)	0.63T ext. ref 2 (°C)	19.31length (m)	temperature (°C)	Stokes	anti-Stokes-747.200	-34.324	0.156	-0.086
-746.185	-27.270	0.048	-0.028
-745.171	-33.953	-0.080	-0.044
-744.156	65.681	-0.190	0.193
-743.142	-200.000	-0.016	0.161
-742.127	-200.000	0.042	0.369
-741.112	8.416	-0.299	0.225
-740.098	295.027	-0.078	0.143
-739.083	-66.405	0.232	-0.092
-738.069	-200.000	-0.035	0.210
-737.054	-200.000	0.007	-0.155
-736.039	351.761	-0.054	-0.107
-735.025	-193.910	0.573	-0.005
-734.010	-47.199	-0.127	-0.062
-732.996	161.526	-0.112	-0.156
-731.981	311.767	-0.213	0.399
-730.966	416.933	0.106	-0.225
-729.952	262.516	0.124	-0.214
-728.937	45.965	-0.130	0.120
-727.923	41.552	-0.185	-0.167
-726.908	27.382	-0.400	0.336
-725.894	-40.667	0.280	0.145
-724.879	-129.875	-0.253	0.035
-723.864	22.427	-0.051	0.041
-722.850	-6.086	-0.069	0.047
-721.835	-97.880	-0.254	-0.066
-720.821	167.526	-0.291	-0.413
-719.806	530.200	-0.079	-0.186
-718.791	-120.374	-0.379	-0.065
-717.777	22.070	-0.185	-0.151
-716.762	318.623	-0.156	-0.295
-715.748	701.273	0.057	-0.151
-714.733	4.461	0.112	0.082
-713.718	800.000	-0.075	-0.295
-712.704	-200.000	0.025	-0.191
-711.689	190.005	0.063	-0.095
-710.675	-200.000	-0.002	-0.262
-709.660	125.021	-0.194	0.244
-708.645	60.576	0.172	-0.170
-707.631	738.982	-0.128	-0.342
-706.616	379.139	0.160	0.327
-705.602	247.583	-0.190	0.320
-704.587	-43.930	-0.379	0.190
-703.572	116.598	0.136	0.167
-702.558	59.678	0.163	-0.161
-701.543	8.879	0.103	-0.077
-700.529	-200.000	0.002	-0.217
-699.514	-200.000	-0.077	0.571
-698.499	-117.343	0.252	-0.046
-697.485	-97.712	-0.438	0.113
-696.470	218.876	0.097	-0.154
-695.456	-103.167	-0.179	0.042
-694.441	-14.060	-0.130	-0.084
-693.426	800.000	0.086	-0.295
-692.412	-85.573	0.411	-0.128
-691.397	800.000	-0.012	0.043
-690.383	681.260	-0.046	-0.120
-689.368	32.895	-0.155	-0.134
-688.354	322.652	-0.072	-0.137
-687.339	-124.488	-0.236	0.037
-686.324	132.037	-0.168	0.216
-685.310	800.000	-0.085	-0.284
-684.295	-200.000	-0.028	-0.299
-683.281	-153.637	0.093	-0.006
-682.266	208.997	0.041	-0.064
-681.251	364.247	-0.121	0.242
-680.237	-3.242	-0.050	0.035
-679.222	-3.764	0.056	0.039
-678.208	-18.205	0.169	-0.105
-677.193	176.698	-0.134	0.194
-676.178	-21.977	-0.239	0.145
-675.164	-158.594	0.318	-0.018
-674.149	224.831	0.073	0.118
-673.135	72.794	-0.215	0.224
-672.120	754.955	-0.030	-0.082
-671.105	263.992	0.114	-0.198
-670.091	800.000	0.053	-0.154
-669.076	-195.911	0.055	0.000
-668.062	318.160	-0.050	-0.095
-667.047	52.790	-0.179	-0.170
-666.032	445.441	-0.095	-0.208
-665.018	438.375	0.168	0.366
-664.003	112.623	-0.213	0.258
-662.989	278.912	0.082	0.146
-661.974	-150.865	0.399	-0.030
-660.959	-200.000	-0.054	-0.248
-659.945	-200.000	0.037	-0.219
-658.930	-105.489	-0.190	0.043
-657.916	-200.000	0.012	0.135
-656.901	-114.030	0.132	-0.026
-655.886	-61.064	-0.294	0.124
-654.872	800.000	0.084	-0.243
-653.857	800.000	-0.022	-0.084
-652.843	155.938	-0.074	-0.102
-651.828	-88.706	0.306	-0.091
-650.814	800.000	-0.051	0.168
-649.799	800.000	-0.039	-0.153
-648.784	-85.918	-0.112	-0.034
-647.770	-77.248	0.179	0.062
-646.755	-98.538	0.162	0.041
-645.741	33.258	-0.191	0.165
-644.726	195.500	0.149	-0.225
-643.711	10.217	0.161	-0.122
-642.697	-200.000	-0.003	0.103
-641.682	800.000	-0.063	-0.201
-640.668	-200.000	-0.020	0.205
-639.653	-173.935	-0.118	-0.003
-638.638	250.689	-0.235	-0.398
-637.624	-169.272	-0.144	0.005
-636.609	-113.331	-0.360	0.071
-635.595	-200.000	-0.046	0.310
-634.580	496.122	0.116	0.265
-633.565	-72.500	-0.117	0.043
-632.551	7.951	-0.178	-0.133
-631.536	-193.649	0.162	-0.001
-630.522	5.076	0.079	0.058
-629.507	225.604	-0.119	-0.192
-628.492	323.275	-0.115	-0.218
-627.478	7.839	0.004	0.003
-626.463	-200.000	-0.056	0.412
-625.449	-46.809	0.166	-0.081
-624.434	14.507	-0.182	0.142
-623.419	-112.374	-0.141	0.028
-622.405	262.921	-0.212	0.367
-621.390	327.045	0.098	0.188
-620.376	35.150	-0.026	0.023
-619.361	-200.000	-0.025	0.112
-618.346	138.397	-0.073	0.095
-617.332	-48.094	-0.151	0.073
-616.317	172.266	-0.093	0.133
-615.303	-112.188	0.234	0.047
-614.288	116.183	0.091	-0.112
-613.273	-104.964	0.579	-0.132
-612.259	45.018	-0.201	0.184
-611.244	33.263	0.077	-0.066
-610.230	-200.000	0.056	-0.343
-609.215	-74.221	-0.223	0.080
-608.201	-21.273	-0.278	-0.169
-607.186	157.566	-0.147	-0.203
-606.171	729.779	0.066	0.176
-605.157	145.475	-0.064	0.085
-604.142	-200.000	0.007	0.156
-603.128	97.411	-0.136	-0.156
-602.113	-0.337	0.522	-0.369
-601.098	34.590	-0.343	0.298
-600.084	96.774	-0.121	-0.138
-599.069	679.403	0.023	0.060
-598.055	89.175	-0.133	-0.148
-597.040	378.885	0.098	-0.199
-596.025	162.468	-0.137	0.192
-595.011	227.466	0.254	-0.411
-593.996	76.689	0.339	-0.358
-592.982	78.398	-0.082	0.088
-591.967	-122.846	-0.158	0.025
-590.952	-100.182	0.431	0.107
-589.938	-157.630	-0.285	-0.017
-588.923	537.439	0.083	-0.196
-587.909	-12.244	-0.132	-0.086
-586.894	176.538	-0.068	-0.099
-585.879	373.686	0.151	0.306
-584.865	19.468	-0.152	0.122
-583.850	-162.645	0.242	0.012
-582.836	36.318	-0.101	-0.088
-581.821	-200.000	-0.020	0.185
-580.806	-200.000	-0.051	0.263
-579.792	12.045	-0.061	0.047
-578.777	-25.323	0.284	0.167
-577.763	-89.158	0.141	-0.041
-576.748	86.531	-0.061	0.067
-575.733	-111.415	-0.358	0.072
-574.719	-163.561	0.090	0.004
-573.704	728.384	0.093	0.247
-572.690	619.425	-0.109	-0.271
-571.675	197.940	0.055	-0.083
-570.661	270.754	-0.092	0.160
-569.646	101.232	0.152	-0.175
-568.631	-107.549	-0.090	0.020
-567.617	-14.072	0.172	0.110
-566.602	-6.457	0.229	-0.155
-565.588	-58.696	-0.189	0.081
-564.573	-200.000	0.074	-0.373
-563.558	-21.610	-0.272	-0.165
-562.544	32.241	0.254	-0.218
-561.529	119.309	0.009	-0.011
-560.515	800.000	0.111	0.455
-559.500	298.910	0.150	-0.274
-558.485	-200.000	0.025	-0.146
-557.471	800.000	-0.100	-0.431
-556.456	19.983	0.078	-0.062
-555.442	-75.166	0.096	0.034
-554.427	-74.214	-0.441	0.158
-553.412	55.941	-0.148	0.142
-552.398	3.043	-0.143	-0.103
-551.383	1.522	0.344	0.246
-550.369	344.235	-0.077	0.151
-549.354	143.596	0.154	0.203
-548.339	-200.000	0.024	0.341
-547.325	-200.000	-0.036	0.350
-546.310	-121.106	-0.355	0.059
-545.296	359.253	0.012	0.023
-544.281	-111.102	-0.072	-0.015
-543.266	800.000	-0.100	0.277
-542.252	-30.341	-0.263	-0.148
-541.237	-200.000	-0.011	0.167
-540.223	-110.477	-0.073	-0.015
-539.208	1.245	0.192	-0.137
-538.193	120.318	-0.105	0.129
-537.179	-25.379	-0.266	-0.156
-536.164	98.654	-0.200	0.229
-535.150	-59.926	-0.405	0.172
-534.135	162.840	-0.273	-0.381
-533.121	-95.238	0.099	-0.027
-532.106	-200.000	-0.058	-0.357
-531.091	557.376	-0.119	0.285
-530.077	3.016	-0.133	0.096
-529.062	-132.410	-0.250	-0.032
-528.048	-144.429	0.532	-0.049
-527.033	744.682	0.056	-0.149
-526.018	114.184	0.194	-0.234
-525.004	61.304	-0.229	-0.226
-523.989	-4.747	0.187	-0.128
-522.975	637.862	0.025	-0.063
-521.960	-200.000	-0.099	-0.432
-520.945	40.826	0.126	-0.113
-519.931	-131.689	-0.205	0.027
-518.916	-200.000	-0.007	0.092
-517.902	-83.126	-0.069	0.022
-516.887	-149.565	0.144	-0.011
-515.872	-198.269	0.265	-0.002
-514.858	-32.914	0.316	0.174
-513.843	75.300	-0.104	-0.109
-512.829	252.340	0.043	0.073
-511.814	-105.916	0.167	0.037
-510.799	53.221	0.158	-0.150
-509.785	-200.000	0.000	0.046
-508.770	125.155	0.055	-0.069
-507.756	-24.806	-0.290	0.171
-506.741	3.089	0.062	-0.045
-505.726	800.000	-0.026	-0.092
-504.712	-200.000	0.001	0.385
-503.697	79.113	0.204	-0.217
-502.683	17.171	0.225	-0.177
-501.668	800.000	-0.053	-0.147
-500.653	260.194	0.111	0.189
-499.639	-39.545	0.134	-0.070
-498.624	-35.524	0.234	0.126
-497.610	189.970	-0.078	0.117
-496.595	-200.000	-0.164	0.000
-495.581	-84.227	-0.571	0.179
-494.566	142.017	-0.211	0.277
-493.551	-19.791	-0.104	-0.064
-492.537	-200.000	-0.010	0.143
-491.522	-121.932	0.166	0.027
-490.508	-72.377	0.258	0.095
-489.493	800.000	0.095	0.370
-488.478	-200.000	-0.022	-0.114
-487.464	-162.425	-0.361	0.018
-486.449	-21.565	-0.141	-0.085
-485.435	94.664	0.181	-0.204
-484.420	800.000	-0.022	0.087
-483.405	-142.495	-0.426	0.041
-482.391	800.000	0.094	-0.309
-481.376	-200.000	0.008	-0.294
-480.362	-18.716	-0.185	-0.114
-479.347	-122.853	-0.351	0.056
-478.332	-159.692	0.131	-0.007
-477.318	-106.775	0.116	0.025
-476.303	-38.791	0.249	0.130
-475.289	-25.287	-0.037	-0.022
-474.274	47.112	-0.057	0.053
-473.259	18.938	-0.164	0.130
-472.245	134.757	0.125	-0.161
-471.230	47.018	-0.202	-0.186
-470.216	68.087	-0.062	0.063
-469.201	52.886	0.166	0.157
-468.186	14.630	0.247	-0.191
-467.172	211.865	-0.144	-0.224
-466.157	576.392	-0.133	-0.322
-465.143	-200.000	0.020	0.458
-464.128	-63.934	0.234	-0.095
-463.113	-200.000	-0.070	-0.476
-462.099	302.817	-0.040	-0.073
-461.084	28.860	-0.123	-0.103
-460.070	-136.191	-0.261	0.030
-459.055	-62.538	0.074	0.030
-458.040	-1.434	0.102	0.071
-457.026	23.324	-0.173	-0.141
-456.011	146.401	0.172	0.228
-454.997	-119.483	0.168	-0.029
-453.982	-63.924	-0.313	0.127
-452.968	-200.000	0.074	-0.423
-451.953	-13.380	0.249	-0.160
-450.938	91.289	-0.091	0.101
-449.924	-65.737	0.153	0.060
-448.909	112.101	0.186	0.223
-447.895	9.303	-0.409	-0.306
-446.880	-200.000	-0.004	-0.020
-445.865	-145.065	0.133	0.012
-444.851	-200.000	-0.006	-0.252
-443.836	47.156	-0.173	-0.159
-442.822	-145.843	-0.102	-0.009
-441.807	5.057	0.066	0.048
-440.792	69.120	-0.111	-0.112
-439.778	569.275	0.128	0.307
-438.763	0.792	0.228	0.162
-437.749	-49.689	-0.295	-0.139
-436.734	-200.000	-0.054	-0.468
-435.719	800.000	0.031	-0.111
-434.705	0.011	-0.099	0.070
-433.690	-200.000	0.051	0.265
-432.676	251.120	0.065	0.109
-431.661	65.035	0.130	0.130
-430.646	-138.732	-0.567	0.061
-429.632	-127.334	-0.126	-0.018
-428.617	800.000	-0.069	0.266
-427.603	800.000	0.051	0.143
-426.588	122.346	-0.038	-0.047
-425.573	-140.012	-0.510	0.053
-424.559	123.275	0.175	0.216
-423.544	290.639	0.048	0.086
-422.530	132.324	0.058	0.074
-421.515	-200.000	-0.000	0.327
-420.500	401.537	0.161	-0.333
-419.486	108.275	0.077	0.091
-418.471	184.464	0.056	-0.082
-417.457	114.245	0.296	0.356
-416.442	94.851	0.262	0.294
-415.428	201.723	0.121	0.184
-414.413	172.303	0.211	-0.300
-413.398	-200.000	-0.019	-0.112
-412.384	-54.965	-0.148	-0.066
-411.369	44.326	-0.066	0.060
-410.355	158.204	-0.120	0.164
-409.340	180.778	0.090	-0.130
-408.325	800.000	0.051	0.141
-407.311	-88.213	0.255	-0.075
-406.296	51.289	0.165	-0.155
-405.282	120.070	-0.066	0.081
-404.267	63.300	0.144	-0.143
-403.252	149.015	0.164	0.219
-402.238	-200.000	0.042	-0.245
-401.223	189.382	0.099	-0.146
-400.209	-200.000	0.003	0.196
-399.194	311.567	0.086	0.159
-398.179	256.929	-0.143	0.242
-397.165	190.492	0.049	-0.073
-396.150	388.861	0.194	0.397
-395.136	58.077	-0.150	0.145
-394.121	-58.882	-0.082	0.035
-393.106	33.547	-0.086	-0.074
-392.092	800.000	-0.032	-0.104
-391.077	34.654	0.066	-0.057
-390.063	-132.466	-0.193	0.025
-389.048	258.391	-0.035	0.059
-388.033	141.961	0.232	0.303
-387.019	-174.089	-0.233	-0.007
-386.004	-200.000	-0.015	0.066
-384.990	67.187	-0.186	0.187
-383.975	-46.419	0.329	0.159
-382.960	-85.063	-0.324	-0.100
-381.946	800.000	0.059	0.190
-380.931	37.615	0.060	0.052
-379.917	-121.177	-0.468	-0.077
-378.902	-136.070	0.208	0.024
-377.888	-200.000	-0.029	0.246
-376.873	13.299	-0.104	0.079
-375.858	55.127	0.166	0.158
-374.844	-32.310	0.269	0.148
-373.829	272.981	0.071	0.125
-372.815	109.329	-0.221	0.261
-371.800	-19.351	0.044	-0.027
-370.785	575.401	-0.079	-0.191
-369.771	-88.498	0.336	-0.099
-368.756	575.786	-0.104	-0.250
-367.742	296.924	0.074	-0.133
-366.727	199.324	-0.117	0.177
-365.712	146.487	0.045	-0.060
-364.698	-2.099	-0.260	-0.180
-363.683	-39.994	-0.195	0.100
-362.669	800.000	-0.052	-0.157
-361.654	324.782	-0.012	0.022
-360.639	-63.499	-0.057	-0.023
-359.625	-48.330	-0.210	-0.100
-358.610	230.066	0.193	0.310
-357.596	-200.000	0.003	-0.156
-356.581	-29.324	0.389	-0.219
-355.566	-42.250	0.092	0.047
-354.552	-172.031	-0.132	-0.004
-353.537	316.498	-0.102	-0.190
-352.523	-114.694	-0.203	0.038
-351.508	-75.914	-0.106	0.037
-350.493	116.726	0.127	-0.154
-349.479	121.302	-0.183	0.224
-348.464	800.000	-0.041	0.115
-347.450	216.520	0.139	0.217
-346.435	64.250	0.296	0.293
-345.420	332.136	0.075	-0.143
-344.406	-51.952	0.139	0.064
-343.391	28.045	0.086	0.072
-342.377	4.826	-0.129	-0.093
-341.362	257.210	-0.191	-0.324
-340.348	-18.641	-0.494	-0.303
-339.333	-68.698	0.096	0.037
-338.318	84.571	0.066	-0.071
-337.304	-200.000	-0.025	-0.200
-336.289	-143.481	0.265	0.025
-335.275	-76.275	0.145	0.050
-334.260	276.518	-0.205	-0.358
-333.245	-22.078	0.217	0.130
-332.231	149.057	0.172	0.230
-331.216	240.696	0.201	0.330
-330.202	102.452	-0.046	0.053
-329.187	34.513	0.075	0.065
-328.172	-7.250	-0.327	0.219
-327.158	13.038	-0.137	-0.104
-326.143	253.108	0.209	0.351
-325.129	524.239	0.175	0.406
-324.114	298.863	-0.183	-0.332
-323.099	16.317	-0.095	-0.074
-322.085	-6.172	-0.315	0.212
-321.070	-85.564	0.396	-0.121
-320.056	90.874	0.242	-0.267
-319.041	793.228	0.049	-0.132
-318.026	184.715	0.165	0.240
-317.012	591.434	-0.061	0.148
-315.997	-56.081	-0.303	0.133
-314.983	-123.338	0.351	-0.055
-313.968	-200.000	-0.016	-0.322
-312.953	-25.027	-0.056	0.033
-311.939	-200.000	-0.007	-0.170
-310.924	-55.930	-0.128	0.056
-309.910	81.623	0.112	0.119
-308.895	-159.815	-0.326	0.018
-307.880	800.000	-0.096	-0.264
-306.866	-2.118	0.112	-0.077
-305.851	800.000	-0.083	-0.228
-304.837	-83.900	-0.441	-0.138
-303.822	83.979	0.215	-0.231
-302.807	197.665	-0.198	0.298
-301.793	88.651	0.189	0.206
-300.778	800.000	0.081	-0.276
-299.764	-200.000	0.011	-0.139
-298.749	-10.791	-0.139	0.090
-297.735	-61.162	0.363	-0.150
-296.720	-178.863	-0.082	-0.002
-295.705	45.867	-0.077	-0.070
-294.691	-192.309	0.100	-0.001
-293.676	160.411	0.050	-0.068
-292.662	151.029	0.037	0.049
-291.647	-108.465	-0.098	-0.021
-290.632	333.892	-0.172	-0.327
-289.618	-32.541	0.443	-0.243
-288.603	674.106	0.065	-0.165
-287.589	97.837	0.243	0.275
-286.574	-2.840	-0.203	0.140
-285.559	218.248	-0.093	0.145
-284.545	-141.593	-0.113	-0.011
-283.530	115.658	0.096	0.115
-282.516	-200.000	0.083	-0.364
-281.501	-138.725	0.299	-0.032
-280.486	40.928	0.128	0.113
-279.472	-40.153	-0.102	0.052
-278.457	-200.000	-0.015	0.126
-277.443	-200.000	-0.016	-0.270
-276.428	-80.710	-0.297	-0.097
-275.413	155.537	0.100	-0.135
-274.399	62.581	0.174	0.171
-273.384	-200.000	0.026	-0.128
-272.370	228.841	-0.116	0.185
-271.355	-136.040	-0.231	0.027
-270.340	164.182	0.283	-0.392
-269.326	344.933	-0.167	-0.323
-268.311	800.000	0.048	0.186
-267.297	800.000	0.036	0.131
-266.282	-29.860	-0.070	-0.039
-265.267	800.000	-0.083	-0.234
-264.253	37.432	-0.231	0.201
-263.238	511.862	0.095	-0.217
-262.224	-37.089	0.122	0.064
-261.209	-94.927	-0.158	-0.042
-260.195	-133.505	0.329	-0.041
-259.180	-109.894	0.324	0.067
-258.165	478.693	-0.060	0.133
-257.151	-42.805	0.374	-0.187
-256.136	-124.614	-0.173	-0.026
-255.122	88.172	0.203	-0.221
-254.107	800.000	0.097	-0.297
-253.092	-71.541	-0.380	-0.140
-252.078	-200.000	-0.014	-0.206
-251.063	46.870	0.121	-0.110
-250.049	50.048	0.380	-0.352
-249.034	-200.000	-0.015	-0.065
-248.019	307.980	0.184	0.336
-247.005	-142.752	0.094	0.009
-245.990	-14.483	-0.450	0.284
-244.976	-41.618	0.372	0.187
-243.961	-196.000	-0.092	-0.001
-242.946	429.863	-0.078	0.166
-241.932	92.889	0.207	-0.230
-240.917	545.824	0.100	0.234
-239.903	-200.000	0.008	-0.137
-238.888	87.829	-0.208	-0.226
-237.873	-163.215	0.338	-0.016
-236.859	16.099	-0.122	-0.094
-235.844	-34.856	-0.121	0.065
-234.830	-113.935	0.259	0.049
-233.815	-152.137	-0.268	0.019
-232.800	800.000	0.130	-0.393
-231.786	737.078	0.017	-0.044
-230.771	161.326	-0.211	-0.289
-229.757	33.630	0.144	0.123
-228.742	23.551	0.176	-0.142
-227.727	800.000	0.058	0.163
-226.713	508.072	-0.034	-0.078
-225.698	-200.000	-0.003	-0.225
-224.684	-200.000	-0.001	0.276
-223.669	-200.000	-0.038	-0.244
-222.655	-135.982	-0.155	0.018
-221.640	706.742	0.097	0.251
-220.625	-61.207	-0.037	-0.015
-219.611	246.583	0.138	0.228
-218.596	-119.791	-0.271	-0.046
-217.582	387.515	0.079	-0.160
-216.567	-168.882	-0.397	0.015
-215.552	271.734	0.216	0.373
-214.538	800.000	0.045	0.187
-213.523	-138.618	0.132	0.014
-212.509	-14.663	-0.087	-0.055
-211.494	86.514	-0.110	0.119
-210.479	-30.416	-0.074	-0.041
-209.465	133.353	0.042	-0.053
-208.450	391.313	0.089	0.181
-207.436	-100.627	-0.331	0.080
-206.421	100.124	-0.213	0.242
-205.406	62.929	0.394	0.387
-204.392	-11.341	-0.030	0.020
-203.377	298.918	-0.096	0.173
-202.363	800.000	0.017	0.048
-201.348	84.296	-0.110	0.118
-200.333	-200.000	0.007	-0.321
-199.319	232.087	-0.048	0.077
-198.304	-68.166	-0.317	-0.121
-197.290	-42.772	0.125	-0.062
-196.275	327.691	0.212	0.399
-195.260	-117.816	0.212	0.037
-194.246	-52.870	-0.153	0.069
-193.231	-33.408	0.120	0.065
-192.217	800.000	0.043	0.144
-191.202	-160.503	-0.126	0.007
-190.187	51.198	-0.033	-0.031
-189.173	-150.976	-0.056	0.004
-188.158	-86.234	0.328	-0.099
-187.144	19.719	0.037	-0.029
-186.129	99.648	0.115	0.131
-185.114	-6.750	-0.219	-0.146
-184.100	256.503	-0.072	-0.121
-183.085	196.508	-0.153	-0.229
-182.071	800.000	0.043	-0.181
-181.056	44.585	0.222	0.200
-180.042	800.000	0.032	-0.136
-179.027	151.065	-0.094	0.125
-178.012	400.247	0.152	0.312
-176.998	15.486	-0.068	0.052
-175.983	-180.140	0.234	0.005
-174.969	739.662	0.064	-0.169
-173.954	225.242	-0.120	0.190
-172.939	-106.729	0.345	0.075
-171.925	-200.000	0.009	0.154
-170.910	-105.596	0.073	0.016
-169.896	-93.901	0.133	-0.036
-168.881	214.981	-0.082	0.127
-167.866	203.063	0.175	0.264
-166.852	423.633	-0.031	0.066
-165.837	85.641	0.128	0.137
-164.823	-172.604	0.345	0.011
-163.808	416.776	0.058	-0.122
-162.793	121.946	0.147	-0.179
-161.779	-168.654	-0.150	0.006
-160.764	428.339	-0.127	-0.268
-159.750	57.271	-0.185	-0.177
-158.735	-74.288	0.142	-0.050
-157.720	253.649	0.055	0.092
-156.706	67.487	0.122	0.122
-155.691	95.311	-0.241	-0.269
-154.677	65.479	0.140	-0.139
-153.662	-200.000	-0.062	-0.488
-152.647	-27.356	-0.258	0.147
-151.633	800.000	-0.038	-0.107
-150.618	-79.285	0.168	0.056
-149.604	-37.064	0.111	0.058
-148.589	269.328	-0.243	-0.417
-147.574	-66.071	0.147	0.057
-146.560	800.000	0.009	-0.025
-145.545	587.360	0.074	0.179
-144.531	-200.000	-0.025	0.338
-143.516	662.949	-0.061	0.153
-142.502	45.943	-0.111	-0.100
-141.487	-200.000	-0.027	0.243
-140.472	-17.066	0.284	-0.175
-139.458	-50.210	0.027	0.012
-138.443	-121.991	-0.465	0.075
-137.429	296.839	0.084	-0.151
-136.414	-47.578	-0.272	0.129
-135.399	398.426	0.105	0.215
-134.385	108.810	0.064	0.075
-133.370	-200.000	0.032	-0.147
-132.356	-33.508	-0.238	-0.128
-131.341	-57.827	0.366	0.157
-130.326	-137.634	-0.295	0.032
-129.312	308.827	0.139	-0.254
-128.297	-200.000	-0.059	-0.418
-127.283	-100.105	0.453	0.110
-126.268	-200.000	0.047	-0.260
-125.253	124.860	0.090	-0.111
-124.239	332.010	0.123	-0.233
-123.224	285.877	-0.117	0.205
-122.210	-129.250	-0.346	0.047
-121.195	-130.596	0.215	-0.028
-120.180	255.872	-0.068	-0.114
-119.166	-200.000	-0.030	0.171
-118.151	215.335	-0.135	0.209
-117.137	-67.515	0.236	0.090
-116.122	240.917	0.146	0.238
-115.107	800.000	-0.040	-0.111
-114.093	-36.128	0.170	0.090
-113.078	-65.652	-0.322	-0.126
-112.064	45.344	-0.250	-0.225
-111.049	-37.671	-0.261	0.135
-110.034	787.459	0.055	0.148
-109.020	243.922	0.193	-0.317
-108.005	-106.278	0.131	0.029
-106.991	-27.451	-0.248	0.141
-105.976	116.679	0.126	-0.151
-104.962	-170.868	-0.287	0.010
-103.947	67.229	0.116	-0.116
-102.932	31.982	0.536	-0.450
-101.918	800.000	0.084	0.326
-100.903	279.718	0.025	-0.044
-99.889	41.827	0.151	-0.134
-98.874	229.354	0.112	0.178
-97.859	117.865	-0.050	0.060
-96.845	177.365	-0.114	0.162
-95.830	800.000	-0.094	-0.386
-94.816	-110.202	-0.115	0.023
-93.801	18.654	0.086	0.067
-92.786	800.000	-0.066	0.183
-91.772	8.638	0.169	-0.124
-90.757	59.222	-0.078	-0.074
-89.743	82.939	-0.087	0.093
-88.728	-76.762	-0.301	-0.103
-87.713	-200.000	0.063	0.362
-86.699	-200.000	0.016	0.087
-85.684	493.607	0.039	0.088
-84.670	446.527	-0.114	0.244
-83.655	-124.494	-0.383	0.058
-82.640	800.000	0.075	0.216
-81.626	-103.962	0.259	0.059
-80.611	-174.974	-0.221	0.006
-79.597	-104.049	0.336	-0.076
-78.582	42.070	0.129	0.114
-77.567	42.207	-0.170	0.151
-76.553	-116.483	0.383	0.069
-75.538	-58.204	-0.201	0.085
-74.524	92.676	0.145	0.159
-73.509	274.236	0.129	0.223
-72.494	306.555	0.147	0.267
-71.480	321.322	0.049	-0.092
-70.465	-156.184	0.226	-0.014
-69.451	-196.253	0.403	-0.003
-68.436	800.000	0.056	-0.157
-67.422	-64.641	0.210	-0.083
-66.407	-94.228	0.237	-0.063
-65.392	-36.163	0.058	-0.031
-64.378	149.754	-0.192	-0.254
-63.363	179.540	0.069	-0.099
-62.349	-200.000	0.017	0.088
-61.334	161.989	-0.945	-1.290
-60.319	129.896	0.704	0.878
-59.305	543.750	-0.557	-1.295
-58.290	195.783	0.880	1.303
-57.276	800.000	0.404	1.392
-56.261	-200.000	123.648	633.683
-55.246	392.346	1575.128	3189.367
-54.232	140.164	2751.777	3535.114
-53.217	93.825	2206.072	2435.300
-52.203	33.763	1717.585	1455.164
-51.188	25.926	1533.338	1245.129
-50.173	24.018	1509.866	1213.030
-49.159	47.393	1580.899	1434.504
-48.144	44.744	1593.187	1427.072
-47.130	25.939	1542.764	1252.676
-46.115	23.168	1526.241	1220.129
-45.100	22.886	1522.964	1215.519
-44.086	22.983	1521.378	1214.875
-43.071	22.852	1518.834	1211.897
-42.057	22.772	1517.501	1210.236
-41.042	22.824	1515.711	1209.116
-40.027	22.834	1514.378	1208.071
-39.013	22.914	1512.517	1207.088
-37.998	22.871	1511.306	1205.776
-36.984	22.808	1511.065	1205.108
-35.969	22.872	1508.998	1203.850
-34.954	22.866	1507.422	1202.505
-33.940	22.839	1506.366	1201.428
-32.925	22.858	1505.170	1200.559
-31.911	22.895	1503.538	1199.459
-30.896	22.955	1502.393	1198.905
-29.881	22.964	1501.173	1197.947
-28.867	22.996	1499.255	1196.583
-27.852	22.989	1497.567	1195.138
-26.838	22.837	1496.602	1193.293
-25.823	22.794	1495.090	1191.755
-24.809	22.875	1493.689	1191.138
-23.794	22.865	1492.138	1189.787
-22.779	22.826	1491.114	1188.659
-21.765	22.960	1489.489	1188.213
-20.750	22.960	1488.887	1187.691
-19.736	22.871	1487.648	1186.053
-18.721	22.888	1486.685	1185.354
-17.706	22.862	1485.677	1184.329
-16.692	22.847	1484.296	1183.083
-15.677	22.873	1483.181	1182.323
-14.663	22.957	1481.773	1181.714
-13.648	22.844	1481.570	1180.746
-12.633	22.871	1480.666	1180.159
-11.619	22.908	1479.934	1179.778
-10.604	22.853	1478.854	1178.503
-9.590	22.813	1478.102	1177.593
-8.575	22.787	1477.492	1176.881
-7.560	22.839	1476.158	1176.123
-6.546	22.944	1475.360	1176.139
-5.531	22.878	1474.641	1175.078
-4.517	22.771	1473.515	1173.423
-3.502	22.875	1472.416	1173.190
-2.487	22.827	1472.072	1172.552
-1.473	22.864	1470.806	1171.742
-0.458	22.938	1468.828	1170.612
0.556	21.637	1459.996	1160.771
1.571	19.164	1435.944	1125.409
2.586	16.130	1374.023	1057.785
3.600	14.727	1290.131	984.845
4.615	13.812	1246.119	945.947
5.629	11.998	1189.652	893.122
6.644	6.063	1106.593	800.530
7.659	1.282	1069.991	750.386
8.673	0.768	1065.072	744.341
9.688	0.484	1062.229	740.892
10.702	0.623	1060.265	740.139
11.717	0.644	1057.982	738.583
12.731	2.464	1058.943	748.085
13.746	8.421	1067.816	783.572
14.761	14.426	1074.586	818.027
15.775	16.812	1077.813	832.142
16.790	16.639	1076.814	830.448
17.804	15.771	1074.499	824.339
18.819	14.988	1072.428	818.845
19.834	14.408	1071.396	815.152
20.848	14.328	1070.064	813.676
21.863	14.038	1069.724	811.925
22.877	13.728	1068.597	809.485
23.892	13.597	1067.630	808.046
24.907	13.441	1066.793	806.581
25.921	13.517	1066.143	806.387
26.936	13.490	1065.418	805.637
27.950	13.514	1064.931	805.312
28.965	13.489	1064.127	804.511
29.980	13.520	1063.289	803.956
30.994	13.566	1062.202	803.286
32.009	13.595	1061.080	802.506
33.023	13.614	1060.508	802.098
34.038	13.558	1059.491	800.986
35.053	13.691	1058.486	800.799
36.067	13.810	1057.488	800.544
37.082	13.738	1056.542	799.412
38.096	13.716	1056.114	798.911
39.111	13.664	1055.377	798.032
40.126	13.595	1054.187	796.728
41.140	13.606	1053.531	796.217
42.155	13.622	1051.846	794.948
43.169	13.454	1051.808	794.043
44.184	13.513	1050.343	793.151
45.199	13.399	1049.220	791.688
46.213	13.566	1047.900	791.417
47.228	13.486	1047.292	790.506
48.242	13.612	1045.827	789.933
49.257	13.577	1045.280	789.282
50.271	13.509	1044.169	788.052
51.286	13.444	1043.865	787.441
52.301	13.555	1042.505	786.874
53.315	13.655	1041.502	786.522
54.330	13.571	1040.602	785.373
55.344	13.710	1039.649	785.243
56.359	13.484	1039.161	783.739
57.374	13.584	1037.981	783.250
58.388	13.491	1037.355	782.270
59.403	13.413	1036.798	781.413
60.417	13.535	1035.847	781.203
61.432	13.438	1035.065	780.085
62.447	13.372	1034.336	779.156
63.461	13.389	1033.105	778.239
64.476	13.500	1032.126	777.953
65.490	13.378	1031.294	776.685
66.505	13.351	1030.699	776.041
67.520	13.485	1029.803	775.928
68.534	13.460	1029.203	775.289
69.549	13.446	1028.356	774.520
70.563	13.426	1027.328	773.584
71.578	13.384	1026.925	773.014
72.593	13.386	1026.098	772.330
73.607	13.530	1024.702	771.881
74.622	13.439	1023.974	770.843
75.636	13.500	1023.722	770.869
76.651	13.382	1022.355	769.224
77.666	13.381	1021.771	768.713
78.680	13.416	1020.900	768.152
79.695	13.517	1020.192	768.017
80.709	13.451	1020.088	767.568
81.724	13.522	1018.916	766.947
82.739	13.569	1017.921	766.345
83.753	13.563	1017.522	765.951
84.768	13.510	1016.754	765.060
85.782	13.492	1016.009	764.347
86.797	13.593	1015.052	764.023
87.812	13.630	1014.270	763.539
88.826	13.624	1013.189	762.632
89.841	13.508	1012.425	761.456
90.855	13.637	1011.547	761.317
91.870	13.595	1010.789	760.489
92.884	13.617	1009.932	759.879
93.899	13.766	1009.385	760.082
94.914	13.860	1008.539	759.806
95.928	13.826	1007.734	758.978
96.943	13.725	1007.354	758.165
97.957	13.810	1006.268	757.669
98.972	13.641	1005.564	756.299
99.987	13.517	1005.170	755.371
101.001	13.627	1004.380	755.211
102.016	13.610	1003.632	754.506
103.030	13.617	1002.344	753.502
104.045	13.643	1001.432	752.869
105.060	13.696	999.954	751.931
106.074	13.714	999.251	751.414
107.089	13.674	998.458	750.570
108.103	13.575	997.748	749.523
109.118	13.635	996.518	748.805
110.133	13.579	996.107	748.177
111.147	13.585	995.222	747.472
112.162	13.572	994.354	746.697
113.176	13.609	993.093	745.851
114.191	13.667	992.210	745.383
115.206	13.551	991.593	744.333
116.220	13.621	990.808	743.992
117.235	13.595	990.253	743.391
118.249	13.716	988.717	742.716
119.264	13.664	988.348	742.140
120.279	13.515	987.876	741.050
121.293	13.652	986.471	740.543
122.308	13.633	985.852	739.927
123.322	13.529	985.071	738.814
124.337	13.634	983.857	738.304
125.352	13.523	982.986	737.091
126.366	13.533	981.524	735.973
127.381	13.486	980.812	735.169
128.395	13.429	979.719	734.031
129.410	13.525	978.699	733.627
130.424	13.578	977.579	732.957
131.439	13.591	976.742	732.323
132.454	13.510	975.934	731.292
133.468	13.593	975.349	731.158
134.483	13.526	974.563	730.207
135.497	13.582	974.074	730.025
136.512	13.584	973.009	729.169
137.527	13.644	972.143	728.721
138.541	13.572	971.395	727.778
139.556	13.418	970.917	726.680
140.570	13.551	970.140	726.619
141.585	13.610	969.126	726.052
142.600	13.736	968.761	726.268
143.614	13.798	967.740	725.706
144.629	13.606	967.617	724.713
145.643	13.842	966.248	724.653
146.658	13.767	965.101	723.403
147.673	13.757	964.425	722.787
148.687	13.695	963.657	721.878
149.702	13.816	962.547	721.509
150.716	13.715	961.815	720.455
151.731	13.783	960.594	719.773
152.746	13.739	960.412	719.381
153.760	13.750	959.497	718.680
154.775	13.773	958.953	718.311
155.789	13.895	957.601	717.759
156.804	13.855	957.471	717.425
157.819	13.699	957.008	716.343
158.833	13.908	955.937	716.381
159.848	13.958	955.088	715.894
160.862	13.914	954.891	715.497
161.877	13.945	954.069	714.948
162.892	13.892	953.301	714.085
163.906	13.908	952.013	713.124
164.921	13.971	951.083	712.635
165.935	13.935	950.233	711.782
166.950	13.874	949.426	710.853
167.964	13.938	948.117	710.084
168.979	14.032	947.078	709.641
169.994	13.899	946.219	708.367
171.008	13.980	945.747	708.296
172.023	14.173	944.652	708.238
173.037	13.916	944.593	707.037
174.052	14.122	943.593	707.099
175.067	14.078	942.747	706.218
176.081	14.064	941.824	705.402
177.096	13.914	941.320	704.329
178.110	13.942	940.622	703.861
179.125	14.171	939.588	703.997
180.140	14.136	938.975	703.327
181.154	13.969	938.452	702.164
182.169	14.129	937.515	702.077
183.183	14.217	936.911	701.936
184.198	14.073	936.231	700.756
185.213	14.133	935.707	700.557
186.227	14.114	935.221	700.048
187.242	14.180	934.782	699.937
188.256	14.243	933.894	699.474
189.271	14.254	933.077	698.848
190.286	14.208	932.284	697.996
191.300	14.206	931.680	697.475
192.315	13.995	931.070	696.073
193.329	14.110	929.935	695.644
194.344	14.151	929.381	695.339
195.359	14.127	928.971	694.869
196.373	14.321	928.192	695.037
197.388	14.104	927.804	693.778
198.402	14.233	927.283	693.865
199.417	14.355	927.004	694.105
200.432	14.256	926.458	693.223
201.446	14.430	925.932	693.489
202.461	14.399	925.725	693.146
203.475	14.416	925.173	692.742
204.490	14.500	923.976	692.131
205.504	14.406	923.370	691.227
206.519	14.494	922.761	691.075
207.534	14.404	921.859	689.966
208.548	14.511	920.533	689.354
209.563	14.486	920.402	689.092
210.577	14.386	919.728	688.115
211.592	14.528	918.872	688.000
212.607	14.583	918.633	687.985
213.621	14.540	917.880	687.182
214.636	14.619	917.179	686.921
215.650	14.620	916.492	686.352
216.665	14.511	916.208	685.632
217.680	14.655	915.516	685.645
218.694	14.631	915.070	685.149
219.709	14.635	914.631	684.779
220.723	14.580	914.004	684.022
221.738	14.541	913.338	683.302
222.753	14.651	912.689	683.208
223.767	14.681	911.623	682.472
224.782	14.652	910.852	681.717
225.796	14.778	910.220	681.695
226.811	14.797	909.605	681.253
227.826	14.859	908.689	680.760
228.840	14.773	908.244	680.013
229.855	14.722	907.612	679.273
230.869	14.849	906.489	678.889
231.884	14.779	906.158	678.297
232.899	14.645	905.610	677.283
233.913	14.851	904.801	677.454
234.928	14.775	904.097	676.559
235.942	14.692	903.542	675.749
236.957	14.776	902.844	675.505
237.972	14.664	902.000	674.363
238.986	14.811	901.276	674.356
240.001	14.885	900.746	674.198
241.015	14.984	900.272	674.181
242.030	14.824	899.807	673.128
243.045	14.894	898.829	672.620
244.059	15.047	898.217	672.716
245.074	14.979	897.804	672.073
246.088	15.007	896.777	671.361
247.103	15.173	895.950	671.347
248.117	14.940	895.964	670.362
249.132	14.945	895.454	669.943
250.147	15.223	894.291	670.126
251.161	15.121	893.908	669.371
252.176	15.070	893.407	668.734
253.190	15.178	892.250	668.239
254.205	15.206	891.907	668.035
255.220	15.225	891.082	667.432
256.234	15.272	890.379	667.034
257.249	15.263	890.089	666.724
258.263	15.273	889.703	666.414
259.278	15.314	888.918	665.930
260.293	15.377	888.251	665.621
261.307	15.417	887.922	665.472
262.322	15.449	887.315	665.086
263.336	15.538	886.217	664.556
264.351	15.455	885.860	663.904
265.366	15.415	885.411	663.347
266.380	15.407	884.933	662.901
267.395	15.570	883.873	662.689
268.409	15.539	883.256	662.047
269.424	15.455	882.584	661.156
270.439	15.524	881.704	660.707
271.453	15.586	880.693	660.137
272.468	15.502	880.474	659.584
273.482	15.481	879.825	658.955
274.497	15.563	879.257	658.793
275.512	15.526	878.151	657.761
276.526	15.665	877.315	657.621
277.541	15.568	876.934	656.898
278.555	15.535	876.215	656.174
279.570	15.561	875.861	655.950
280.585	15.595	875.355	655.647
281.599	15.721	874.877	655.724
282.614	15.770	873.990	655.190
283.628	15.731	873.144	654.347
284.643	15.811	872.608	654.198
285.657	15.911	872.135	654.175
286.672	15.832	871.787	653.549
287.687	15.721	871.197	652.619
288.701	15.865	870.639	652.702
289.716	15.737	870.474	652.022
290.730	15.795	870.003	651.838
291.745	15.884	869.112	651.454
292.760	15.755	868.113	650.150
293.774	15.820	867.500	649.884
294.789	15.895	867.330	649.989
295.803	15.968	866.547	649.626
296.818	15.872	866.172	648.918
297.833	15.965	865.287	648.556
298.847	15.942	864.581	647.883
299.862	16.001	864.044	647.647
300.876	15.892	863.592	646.834
301.891	15.899	862.758	646.177
302.906	15.974	861.722	645.631
303.920	16.048	861.206	645.473
304.935	16.191	860.839	645.687
305.949	16.195	860.307	645.247
306.964	16.238	859.499	644.749
307.979	16.153	858.879	643.903
308.993	16.222	858.554	643.864
310.008	16.257	857.754	643.339
311.022	16.306	857.157	643.024
312.037	16.124	857.066	642.205
313.052	16.207	856.626	642.134
314.066	16.123	855.871	641.192
315.081	16.250	854.781	640.799
316.095	16.233	854.216	640.257
317.110	16.227	853.927	639.960
318.125	16.154	853.602	639.381
319.139	16.204	853.287	639.280
320.154	16.293	852.673	639.099
321.168	16.228	851.958	638.262
322.183	16.239	851.325	637.773
323.197	16.290	851.098	637.736
324.212	16.254	850.248	636.909
325.227	16.265	850.018	636.721
326.241	16.366	849.596	636.732
327.256	16.188	848.929	635.504
328.270	16.336	848.260	635.503
329.285	16.269	847.643	634.733
330.300	16.357	846.913	634.463
331.314	16.391	846.364	634.120
332.329	16.352	845.700	633.423
333.343	16.374	845.093	632.992
334.358	16.501	844.453	632.935
335.373	16.569	843.843	632.675
336.387	16.453	843.570	631.981
337.402	16.457	843.212	631.669
338.416	16.571	842.286	631.345
339.431	16.550	841.968	630.974
340.446	16.590	841.512	630.724
341.460	16.609	840.867	630.257
342.475	16.491	840.125	629.206
343.489	16.793	839.571	629.861
344.504	16.670	838.828	628.789
345.519	16.659	838.687	628.587
346.533	16.706	837.923	628.134
347.548	16.780	837.708	628.191
348.562	16.806	837.351	627.962
349.577	16.638	836.383	626.560
350.592	16.615	835.790	625.975
351.606	16.714	835.554	626.110
352.621	16.744	835.160	625.869
353.635	16.552	835.038	625.011
354.650	16.747	834.302	625.126
355.665	16.752	834.011	624.870
356.679	16.814	833.105	624.367
357.694	16.847	832.783	624.190
358.708	16.841	832.308	623.758
359.723	16.779	831.475	622.851
360.738	16.811	831.226	622.728
361.752	16.890	830.511	622.424
362.767	17.024	829.800	622.329
363.781	16.939	829.859	622.006
364.796	17.055	829.162	621.852
365.810	17.135	829.114	622.057
366.825	16.940	828.591	620.896
367.840	16.992	828.209	620.745
368.854	16.961	827.769	620.245
369.869	16.993	827.326	619.976
370.883	17.027	826.179	619.186
371.898	17.080	825.748	619.003
372.913	17.242	824.801	618.828
373.927	17.107	824.550	618.090
374.942	17.151	823.857	617.679
375.956	17.202	823.506	617.545
376.971	17.400	822.183	617.216
377.986	17.278	822.122	616.675
379.000	17.316	821.613	616.376
380.015	17.401	821.312	616.404
381.029	17.217	820.857	615.340
382.044	17.351	820.145	615.239
383.059	17.489	819.154	614.939
384.073	17.384	819.336	614.640
385.088	17.418	818.498	614.080
386.102	17.131	818.538	613.022
387.117	17.352	817.653	613.099
388.132	17.350	816.960	612.520
389.146	17.303	816.653	612.064
390.161	17.468	816.035	612.142
391.175	17.437	815.841	611.829
392.190	17.457	815.294	611.437
393.205	17.525	814.737	611.209
394.219	17.396	814.878	610.799
395.234	17.563	813.890	610.602
396.248	17.339	813.772	609.656
397.263	17.426	813.209	609.492
398.278	17.254	813.056	608.709
399.292	17.296	812.477	608.372
400.307	17.324	812.212	608.219
401.321	17.554	811.389	608.372
402.336	17.583	810.916	608.066
403.350	17.543	810.687	607.696
404.365	17.600	809.727	607.127
405.380	17.460	809.538	606.433
406.394	17.532	809.243	606.415
407.409	17.553	808.925	606.199
408.423	17.751	808.251	606.344
409.438	17.708	807.835	605.825
410.453	17.774	807.164	605.503
411.467	17.691	806.740	604.836
412.482	17.724	806.465	604.695
413.496	17.727	805.799	604.151
414.511	17.746	805.552	603.979
415.526	17.949	805.289	604.449
416.540	17.833	805.290	603.985
417.555	17.842	804.545	603.404
418.569	17.839	804.037	602.959
419.584	18.008	803.184	602.861
420.599	18.020	802.760	602.532
421.613	114.478	1297.325	1487.930
422.628	98.817	1369.353	1488.000
