DTS Sentinel unit serial number:	SN413079Multiplexer serial number:	ORYXHardware model number:	OX4-SRSoftware version number:	ORYX F/W v4.00 Oryx Data Collector v3.7.2.0data status	okinstallation	princeton_trtdifferential loss correction	single-endedforward channel	channel 3reverse channel	N/Adate	2019/09/16time	14:40:35forward acquisition time	60.00reverse acquisition time	0.00gamma	496.2192k internal	0.2293k external	0.2293temperature offset calibration	0.9941default loss term (dB/km)	0.3790temperature slope calibration	1.0000multiplexer offset coefficient	1.0000multiplexer slope coefficient	1.0000fibre end	0.00T internal ref (°C)	41.69T ext. ref 1 (°C)	14.31T ext. ref 2 (°C)	35.96length (m)	temperature (°C)	Stokes	anti-Stokes-747.200	-127.433	-0.277	-0.041
-746.185	-200.000	-0.029	0.146
-745.171	-81.175	-0.203	-0.069
-744.156	-94.793	-0.228	0.063
-743.142	69.765	-0.209	0.220
-742.127	572.699	-0.163	0.407
-741.112	134.293	-0.146	0.194
-740.098	451.438	0.037	-0.084
-739.083	-103.535	0.354	0.085
-738.069	-134.076	0.140	-0.018
-737.054	-79.089	-0.449	0.156
-736.039	-200.000	-0.029	-0.222
-735.025	452.817	0.033	0.075
-734.010	-76.812	-0.074	-0.027
-732.996	166.092	0.100	-0.145
-731.981	183.889	-0.146	-0.221
-730.966	-97.683	-0.214	-0.057
-729.952	-1.094	-0.100	-0.072
-728.937	23.378	0.209	-0.176
-727.923	462.595	-0.055	-0.125
-726.908	-200.000	0.174	-0.001
-725.894	63.577	-0.148	-0.151
-724.879	100.082	0.087	-0.103
-723.864	-200.000	0.004	-0.070
-722.850	-134.907	0.240	0.030
-721.835	800.000	-0.047	-0.187
-720.821	-157.909	-0.161	-0.010
-719.806	484.538	0.059	0.137
-718.791	210.283	0.036	-0.058
-717.777	-140.739	-0.107	0.011
-716.762	19.413	-0.355	0.292
-715.748	-114.676	-0.364	0.071
-714.733	-200.000	0.039	0.222
-713.718	349.478	-0.033	0.067
-712.704	-115.317	-0.309	0.060
-711.689	-9.746	0.126	-0.086
-710.675	411.249	0.032	-0.069
-709.660	54.690	0.362	0.357
-708.645	34.213	-0.107	0.096
-707.631	800.000	0.021	0.074
-706.616	-65.690	-0.155	0.064
-705.602	-126.892	0.059	-0.009
-704.587	325.879	-0.042	-0.083
-703.572	-145.259	0.058	0.005
-702.558	-114.916	0.243	0.047
-701.543	1.692	0.134	-0.099
-700.529	-56.215	-0.240	0.109
-699.514	19.089	0.317	0.260
-698.499	-16.239	0.191	-0.124
-697.485	486.408	0.082	-0.191
-696.470	-1.545	-0.141	-0.102
-695.456	-200.000	-0.011	0.056
-694.441	-32.181	0.245	-0.140
-693.426	29.250	0.196	-0.170
-692.412	334.633	-0.112	-0.221
-691.397	208.972	-0.068	-0.108
-690.383	243.336	-0.103	-0.176
-689.368	-200.000	-0.000	-0.090
-688.354	800.000	-0.076	0.267
-687.339	128.305	-0.248	-0.322
-686.324	119.798	0.161	0.203
-685.310	-72.330	0.155	0.059
-684.295	12.758	-0.290	-0.229
-683.281	21.051	-0.238	0.197
-682.266	-31.712	-0.060	0.034
-681.251	800.000	-0.033	0.129
-680.237	84.825	-0.131	0.146
-679.222	800.000	0.109	-0.341
-678.208	383.900	-0.063	-0.133
-677.193	-200.000	-0.010	0.053
-676.178	-61.199	-0.230	0.099
-675.164	-7.989	0.065	-0.045
-674.149	-135.904	-0.158	0.019
-673.135	405.133	-0.197	0.424
-672.120	-105.687	-0.605	-0.140
-671.105	-77.089	-0.238	0.085
-670.091	82.744	-0.116	0.129
-669.076	-58.424	0.154	-0.068
-668.062	-62.847	-0.317	-0.134
-667.047	434.628	0.074	-0.163
-666.032	800.000	-0.040	-0.144
-665.018	-85.942	0.128	-0.040
-664.003	-6.938	-0.269	-0.187
-662.989	-118.001	-0.202	0.037
-661.974	800.000	0.026	-0.095
-660.959	116.495	0.116	-0.145
-659.945	73.826	0.184	-0.196
-658.930	84.316	0.040	-0.045
-657.916	110.176	0.185	0.227
-656.901	-70.861	-0.124	-0.048
-655.886	-200.000	-0.050	-0.312
-654.872	-112.537	-0.302	-0.061
-653.857	-151.398	-0.069	0.005
-652.843	-200.000	-0.019	0.170
-651.828	-114.800	0.284	0.055
-650.814	100.182	-0.168	0.199
-649.799	-139.607	0.250	0.027
-648.784	307.134	-0.062	0.117
-647.770	712.944	-0.057	-0.155
-646.755	-200.000	0.014	-0.208
-645.741	-127.792	-0.261	-0.038
-644.726	800.000	0.058	0.176
-643.711	-0.893	-0.016	0.011
-642.697	-163.830	0.199	0.010
-641.682	-23.013	-0.294	0.181
-640.668	800.000	-0.040	-0.170
-639.653	293.392	0.147	0.274
-638.638	-86.074	0.114	-0.036
-637.624	12.852	-0.158	0.124
-636.609	24.305	-0.069	-0.058
-635.595	-200.000	0.047	-0.221
-634.580	-200.000	0.063	-0.308
-633.565	-65.716	0.271	-0.111
-632.551	-117.014	0.266	0.049
-631.536	-200.000	-0.013	0.328
-630.522	375.023	0.111	-0.231
-629.507	123.452	0.012	0.015
-628.492	47.234	0.045	-0.043
-627.478	-113.411	-0.265	-0.053
-626.463	-55.307	-0.145	0.066
-625.449	203.689	-0.173	0.273
-624.434	158.526	-0.256	-0.362
-623.419	-42.891	-0.028	0.015
-622.405	478.765	0.095	0.219
-621.390	-19.388	-0.174	0.110
-620.376	208.137	-0.039	0.062
-619.361	-35.250	0.075	-0.041
-618.346	472.192	0.031	-0.072
-617.332	-200.000	-0.027	-0.256
-616.317	306.307	0.193	0.365
-615.303	-173.011	0.610	0.019
-614.288	-192.751	-0.061	-0.001
-613.273	-45.899	0.166	-0.083
-612.259	-4.675	-0.216	0.151
-611.244	-155.213	0.118	-0.008
-610.230	800.000	0.063	-0.275
-609.215	-22.850	0.162	-0.099
-608.201	292.662	-0.124	-0.231
-607.186	32.047	-0.028	-0.025
-606.171	278.396	-0.044	-0.080
-605.157	-96.412	-0.430	-0.116
-604.142	348.931	-0.038	0.076
-603.128	-24.653	-0.253	-0.153
-602.113	53.545	0.083	0.081
-601.098	155.031	0.103	0.145
-600.084	257.438	-0.172	-0.301
-599.069	-141.824	0.226	0.023
-598.055	70.650	0.041	0.044
-597.040	195.153	-0.171	0.265
-596.025	-200.000	0.196	-0.000
-595.011	-200.000	-0.020	0.225
-593.996	13.488	-0.313	-0.247
-592.982	-84.714	-0.117	0.037
-591.967	-120.012	0.121	-0.021
-590.952	-200.000	0.016	0.090
-589.938	-97.819	0.329	-0.086
-588.923	188.109	0.060	-0.091
-587.909	800.000	-0.117	-0.344
-586.894	-80.852	0.408	0.138
-585.879	145.880	-0.148	-0.202
-584.865	243.625	-0.170	-0.289
-583.850	800.000	-0.035	0.111
-582.836	-200.000	-0.031	0.258
-581.821	-73.158	-0.284	-0.106
-580.806	-10.461	0.172	0.116
-579.792	800.000	-0.032	-0.094
-578.777	-132.566	0.316	0.041
-577.763	556.544	0.159	0.391
-576.748	136.231	0.102	-0.135
-575.733	-127.209	0.322	0.048
-574.719	-29.516	-0.235	-0.137
-573.704	-13.775	0.153	-0.100
-572.690	406.496	0.099	-0.212
-571.675	279.557	-0.116	-0.211
-570.661	-7.832	0.232	-0.159
-569.646	107.469	-0.276	0.334
-568.631	-64.854	0.152	0.062
-567.617	-54.556	0.415	-0.191
-566.602	-200.000	0.003	0.027
-565.588	85.822	0.150	0.167
-564.573	-172.161	0.275	-0.009
-563.558	43.162	-0.101	-0.094
-562.544	800.000	0.021	-0.072
-561.529	114.902	-0.041	0.051
-560.515	520.157	-0.109	-0.260
-559.500	23.596	-0.172	-0.143
-558.485	-52.276	0.143	-0.067
-557.471	-200.000	-0.043	-0.422
-556.456	453.025	-0.128	-0.289
-555.442	-87.819	-0.249	0.076
-554.427	-200.000	-0.006	-0.181
-553.412	-128.858	0.157	0.022
-552.398	72.580	-0.141	-0.149
-551.383	790.569	0.027	-0.076
-550.369	-200.000	0.018	0.200
-549.354	-106.470	-0.231	-0.052
-548.339	-111.352	-0.296	0.061
-547.325	-84.112	-0.408	0.131
-546.310	-116.365	-0.157	0.029
-545.296	128.053	0.174	-0.225
-544.281	201.308	-0.203	-0.317
-543.266	104.412	-0.271	-0.323
-542.252	-10.059	-0.071	-0.048
-541.237	800.000	-0.058	-0.247
-540.223	-91.460	0.288	0.083
-539.208	-99.094	-0.220	-0.056
-538.193	21.439	-0.153	-0.126
-537.179	-62.457	0.111	-0.047
-536.164	-49.724	0.164	-0.079
-535.150	-104.298	0.336	0.079
-534.135	-136.508	0.316	-0.037
-533.121	5.459	0.086	-0.064
-532.106	-28.786	-0.100	-0.059
-531.091	376.630	-0.217	0.450
-530.077	248.357	-0.074	0.127
-529.062	55.848	-0.080	-0.079
-528.048	152.635	0.263	0.364
-527.033	-125.693	-0.236	0.036
-526.018	-163.120	-0.295	0.014
-525.004	-12.956	-0.255	0.168
-523.989	-173.071	0.187	0.006
-522.975	-200.000	0.034	-0.236
-521.960	-21.583	0.039	-0.024
-520.945	5.105	-0.123	0.092
-519.931	37.417	0.136	0.122
-518.916	-200.000	0.022	0.120
-517.902	192.217	-0.196	0.299
-516.887	-22.423	0.311	-0.191
-515.872	118.722	-0.165	0.207
-514.858	264.880	-0.087	-0.154
-513.843	-135.890	0.249	-0.030
-512.829	-200.000	-0.026	0.132
-511.814	42.427	0.161	0.148
-510.799	-129.408	-0.278	-0.039
-509.785	581.312	-0.107	-0.265
-508.770	83.252	-0.172	0.190
-507.756	-155.347	0.208	0.014
-506.741	-30.648	-0.185	-0.106
-505.726	62.783	-0.118	0.120
-504.712	-200.000	0.040	-0.337
-503.697	-176.996	-0.165	0.004
-502.683	-75.661	0.302	0.109
-501.668	-200.000	-0.145	0.001
-500.653	44.358	-0.248	0.231
-499.639	509.681	0.051	-0.120
-498.624	184.464	0.164	-0.247
-497.610	293.613	-0.094	-0.173
-496.595	597.364	-0.072	0.180
-495.581	85.753	-0.029	0.032
-494.566	-108.800	0.242	0.053
-493.551	299.700	-0.068	0.127
-492.537	285.382	0.048	-0.087
-491.522	-177.801	-0.454	-0.011
-490.508	-200.000	0.018	0.143
-489.493	-117.540	-0.253	0.046
-488.478	-140.120	-0.193	-0.021
-487.464	800.000	0.037	-0.146
-486.449	-121.936	0.122	-0.020
-485.435	-174.359	-0.205	0.006
-484.420	-130.231	-0.035	0.005
-483.405	-128.081	0.356	-0.052
-482.391	-96.361	-0.085	0.023
-481.376	387.815	-0.055	-0.116
-480.362	123.614	0.185	0.235
-479.347	75.434	0.125	-0.133
-478.332	-94.253	0.220	0.061
-477.318	34.122	0.107	0.094
-476.303	606.101	-0.076	-0.192
-475.289	181.937	-0.265	0.395
-474.274	-150.066	-0.195	-0.015
-473.259	-200.000	0.004	0.147
-472.245	-76.353	-0.371	0.132
-471.230	202.238	0.143	0.223
-470.216	-200.000	0.010	-0.235
-469.201	-200.000	-0.028	0.145
-468.186	-133.815	-0.095	-0.012
-467.172	-185.452	0.159	-0.002
-466.157	205.257	-0.074	-0.117
-465.143	123.597	-0.120	-0.152
-464.128	-126.370	0.129	0.019
-463.113	463.860	-0.075	-0.169
-462.099	-147.308	0.222	-0.019
-461.084	-69.454	0.306	0.119
-460.070	800.000	0.032	-0.113
-459.055	87.552	0.118	0.132
-458.040	87.662	-0.177	-0.199
-457.026	-138.023	-0.244	-0.028
-456.011	-200.000	0.001	0.004
-454.997	363.835	0.139	-0.283
-453.982	177.293	0.116	0.171
-452.968	32.440	-0.209	-0.182
-451.953	800.000	-0.143	-0.524
-450.938	-200.000	-0.004	-0.104
-449.924	-13.109	-0.186	-0.123
-448.909	-28.836	-0.152	0.088
-447.895	21.605	-0.190	0.156
-446.880	189.394	-0.069	-0.104
-445.865	549.834	-0.103	0.250
-444.851	656.909	-0.059	0.153
-443.836	-200.000	0.006	0.543
-442.822	196.280	-0.161	0.248
-441.807	-200.000	0.020	0.225
-440.792	-109.500	0.116	-0.025
-439.778	800.000	0.120	0.521
-438.763	31.776	-0.113	0.098
-437.749	-55.631	0.083	0.038
-436.734	-102.768	-0.259	-0.062
-435.719	16.236	0.146	-0.117
-434.705	160.520	0.115	-0.163
-433.690	-200.000	-0.027	0.187
-432.676	-65.755	-0.176	0.071
-431.661	229.996	-0.189	-0.312
-430.646	-200.000	0.035	-0.473
-429.632	-22.075	0.136	0.083
-428.617	-33.360	-0.268	-0.150
-427.603	-48.750	-0.330	0.160
-426.588	-200.000	-0.030	0.136
-425.573	-41.867	-0.102	0.053
-424.559	-55.142	0.150	0.068
-423.544	328.556	-0.232	-0.450
-422.530	35.606	0.264	0.234
-421.515	-200.000	-0.003	-0.358
-420.500	-79.094	0.106	0.037
-419.486	-200.000	-0.018	-0.081
-418.471	-33.106	-0.241	0.135
-417.457	294.960	0.015	-0.027
-416.442	-126.397	0.237	-0.036
-415.428	439.504	0.068	-0.149
-414.413	-131.572	0.149	0.020
-413.398	450.041	0.054	0.120
-412.384	-200.000	0.029	-0.218
-411.369	800.000	-0.025	0.073
-410.355	126.889	0.172	-0.220
-409.340	-200.000	0.020	-0.189
-408.325	-79.488	0.331	0.113
-407.311	-39.546	0.124	-0.065
-406.296	-16.137	0.233	0.150
-405.282	-194.988	0.054	-0.000
-404.267	-192.539	0.057	-0.001
-403.252	-200.000	-0.002	0.016
-402.238	172.606	0.306	0.444
-401.223	-200.000	0.015	0.090
-400.209	-66.029	0.161	0.065
-399.194	55.292	-0.099	-0.096
-398.179	269.245	-0.060	-0.106
-397.165	-8.386	-0.290	0.197
-396.150	-46.070	-0.252	-0.125
-395.136	-200.000	-0.026	0.259
-394.121	280.767	-0.119	-0.214
-393.106	91.520	0.158	0.179
-392.092	76.511	0.159	-0.170
-391.077	-168.982	0.152	-0.006
-390.063	-77.807	-0.148	0.052
-389.048	-133.689	0.246	-0.031
-388.033	-60.164	0.152	0.065
-387.019	39.328	-0.236	-0.213
-386.004	-200.000	0.007	-0.616
-384.990	-200.000	-0.034	-0.158
-383.975	-200.000	0.089	0.484
-382.960	575.970	-0.131	0.324
-381.946	72.590	0.124	-0.131
-380.931	800.000	0.023	-0.072
-379.917	-123.194	-0.306	-0.049
-378.902	-75.353	0.169	-0.061
-377.888	-200.000	0.062	-0.443
-376.873	363.029	-0.061	-0.124
-375.858	76.700	-0.175	-0.187
-374.844	-121.387	-0.264	-0.044
-373.829	14.387	0.143	-0.113
-372.815	-79.241	0.265	0.091
-371.800	451.256	0.142	-0.317
-370.785	800.000	0.038	0.166
-369.771	-200.000	0.023	-0.205
-368.756	-200.000	-0.028	0.418
-367.742	-10.404	-0.101	-0.067
-366.727	-161.466	0.240	0.012
-365.712	-5.954	0.179	0.124
-364.698	-200.000	-0.017	0.253
-363.683	480.128	0.063	-0.145
-362.669	-20.200	-0.130	0.081
-361.654	-95.763	-0.100	0.027
-360.639	-127.925	0.295	0.043
-359.625	-68.362	-0.081	-0.032
-358.610	75.340	-0.209	-0.222
-357.596	800.000	0.018	-0.060
-356.581	189.858	0.057	-0.086
-355.566	143.823	0.182	0.245
-354.552	-28.267	0.087	0.050
-353.537	76.045	-0.180	-0.192
-352.523	61.981	0.159	0.159
-351.508	151.428	0.194	0.266
-350.493	271.869	0.143	0.254
-349.479	-200.000	-0.016	0.135
-348.464	800.000	0.137	-0.435
-347.450	-79.490	-0.323	-0.110
-346.435	-200.000	0.115	0.508
-345.420	-135.016	-0.291	0.035
-344.406	118.235	-0.246	-0.305
-343.391	800.000	0.043	-0.159
-342.377	-79.996	-0.061	-0.021
-341.362	-16.565	0.121	-0.077
-340.348	800.000	-0.009	-0.035
-339.333	-126.052	0.333	0.050
-338.318	686.931	0.078	-0.206
-337.304	156.282	-0.222	-0.308
-336.289	-200.000	0.031	-0.158
-335.275	151.930	-0.060	-0.082
-334.260	63.830	0.104	-0.105
-333.245	-156.444	0.414	0.026
-332.231	-200.000	0.019	-0.137
-331.216	-25.213	-0.124	0.074
-330.202	12.378	-0.019	0.015
-329.187	-121.863	0.167	0.028
-328.172	-51.358	-0.300	-0.141
-327.158	-200.000	-0.010	-0.047
-326.143	800.000	0.058	-0.166
-325.129	377.591	-0.101	0.207
-324.114	-77.690	0.295	0.103
-323.099	15.665	-0.013	0.011
-322.085	-200.000	-0.022	0.369
-321.070	-200.000	0.084	0.401
-320.056	326.500	-0.083	-0.159
-319.041	108.863	-0.234	0.281
-318.026	627.181	0.067	0.170
-317.012	-200.000	0.007	0.193
-315.997	-115.454	0.200	0.038
-314.983	-157.265	-0.071	0.004
-313.968	10.143	0.194	-0.148
-312.953	232.456	0.089	-0.147
-311.939	-37.482	0.465	0.250
-310.924	800.000	0.063	-0.180
-309.910	710.656	0.023	-0.061
-308.895	-91.627	0.237	0.068
-307.880	800.000	0.109	0.353
-306.866	800.000	-0.094	-0.294
-305.851	-200.000	-0.326	0.001
-304.837	-200.000	0.028	0.139
-303.822	424.816	-0.120	-0.261
-302.807	51.236	0.102	-0.097
-301.793	23.796	0.271	-0.224
-300.778	800.000	-0.038	-0.141
-299.764	-57.960	0.168	0.074
-298.749	800.000	0.064	-0.189
-297.735	-68.955	-0.400	0.155
-296.720	-173.664	-0.318	0.010
-295.705	-166.574	-0.060	-0.002
-294.691	93.208	-0.273	0.310
-293.676	-12.928	-0.283	0.185
-292.662	449.936	0.034	-0.076
-291.647	-51.477	-0.232	-0.109
-290.632	252.368	-0.149	-0.256
-289.618	-83.357	-0.136	0.044
-288.603	-8.757	0.365	0.246
-287.589	-93.535	-0.062	0.017
-286.574	9.100	0.122	0.093
-285.559	-158.387	-0.322	-0.019
-284.545	36.155	0.107	-0.095
-283.530	-96.647	-0.231	-0.061
-282.516	-43.540	0.040	0.021
-281.501	-100.566	-0.163	-0.041
-280.486	-200.000	0.022	-0.178
-279.472	15.590	0.144	0.114
-278.457	379.550	-0.058	0.120
-277.443	-9.076	-0.055	-0.037
-276.428	-200.000	0.064	-0.390
-275.413	800.000	0.064	-0.189
-274.399	59.870	-0.164	0.162
-273.384	-153.832	0.288	-0.020
-272.370	-200.000	-0.021	-0.214
-271.355	-74.742	-0.125	-0.045
-270.340	-85.315	-0.182	0.057
-269.326	-200.000	-0.019	0.180
-268.311	218.926	-0.135	-0.216
-267.297	84.953	-0.214	0.236
-266.282	-49.662	-0.075	0.036
-265.267	84.969	-0.091	0.100
-264.253	-200.000	-0.013	-0.258
-263.238	-145.022	-0.165	-0.015
-262.224	3.778	0.192	-0.141
-261.209	29.747	-0.322	-0.275
-260.195	-151.285	-0.136	-0.010
-259.180	320.319	0.030	0.057
-258.165	-24.407	-0.364	0.218
-257.151	199.270	0.048	0.074
-256.136	77.552	-0.102	0.109
-255.122	388.248	-0.165	0.344
-254.107	220.372	-0.104	-0.168
-253.092	367.277	0.033	-0.067
-252.078	-28.962	0.305	0.176
-251.063	-200.000	0.013	-0.125
-250.049	-32.099	-0.254	-0.143
-249.034	138.357	0.153	0.201
-248.019	435.583	0.027	0.058
-247.005	-200.000	0.002	0.388
-245.990	-142.369	0.311	-0.031
-244.976	-47.806	0.188	0.092
-243.961	37.837	-0.204	-0.182
-242.946	-200.000	0.001	0.071
-241.932	800.000	-0.062	-0.193
-240.917	-74.195	0.242	0.088
-239.903	800.000	0.039	-0.132
-238.888	-200.000	-0.034	-0.250
-237.873	324.045	-0.094	0.180
-236.859	800.000	-0.108	-0.424
-235.844	-140.714	-0.339	0.035
-234.830	-10.108	-0.091	-0.061
-233.815	800.000	0.035	0.100
-232.800	149.554	0.148	0.201
-231.786	6.958	-0.030	-0.022
-230.771	255.862	0.090	-0.155
-229.757	-200.000	0.013	0.240
-228.742	51.530	-0.141	-0.135
-227.727	-200.000	-0.028	0.127
-226.713	16.629	0.175	0.139
-225.698	33.086	-0.112	0.097
-224.684	-111.530	-0.217	0.044
-223.669	-4.252	0.329	0.228
-222.655	-200.000	0.005	-0.041
-221.640	103.637	-0.035	0.042
-220.625	240.667	-0.025	0.042
-219.611	-121.828	-0.322	-0.053
-218.596	51.764	-0.012	-0.011
-217.582	-40.043	0.251	-0.131
-216.567	-81.780	0.164	-0.054
-215.552	-35.042	-0.251	0.137
-214.538	71.672	-0.092	0.096
-213.523	-141.947	-0.099	-0.010
-212.509	-77.632	0.217	-0.075
-211.494	-200.000	-0.068	0.330
-210.479	-200.000	0.012	0.123
-209.465	29.466	-0.141	-0.120
-208.450	139.636	0.138	0.182
-207.436	-200.000	-0.002	-0.038
-206.421	-84.419	-0.134	-0.042
-205.406	800.000	0.025	0.098
-204.392	-66.583	0.155	-0.062
-203.377	130.276	0.052	0.067
-202.363	54.235	0.069	-0.066
-201.348	196.549	0.137	0.210
-200.333	800.000	-0.126	-0.399
-199.319	-54.882	0.297	0.134
-198.304	-200.000	-0.044	0.207
-197.290	800.000	-0.011	0.038
-196.275	151.802	-0.061	-0.083
-195.260	-23.564	-0.267	-0.160
-194.246	-200.000	0.016	0.287
-193.231	146.068	0.182	0.245
-192.217	800.000	-0.035	0.126
-191.202	-29.115	-0.227	-0.130
-190.187	-169.940	0.278	0.010
-189.173	97.326	-0.071	0.081
-188.158	88.395	0.051	-0.056
-187.144	-69.860	0.396	-0.151
-186.129	-32.765	0.274	0.153
-185.114	-109.896	-0.139	0.029
-184.100	-200.000	0.057	0.324
-183.085	-57.583	0.228	-0.100
-182.071	-155.993	0.679	-0.043
-181.056	-106.731	0.289	0.064
-180.042	575.757	0.123	0.300
-179.027	23.381	-0.193	0.159
-178.012	800.000	0.071	-0.288
-176.998	672.945	-0.010	-0.025
-175.983	-44.988	-0.133	0.066
-174.969	-200.000	-0.002	0.066
-173.954	-129.757	0.240	0.033
-172.939	-200.000	0.020	0.278
-171.925	-200.000	-0.014	-0.067
-170.910	675.113	0.117	0.305
-169.896	-26.606	0.247	-0.145
-168.881	67.083	-0.084	0.086
-167.866	259.488	-0.206	0.355
-166.852	800.000	-0.108	0.320
-165.837	-110.376	-0.115	-0.024
-164.823	-29.410	0.059	0.034
-163.808	-200.000	0.015	0.333
-162.793	-20.440	-0.295	0.181
-161.779	-70.067	-0.036	0.014
-160.764	-137.614	0.394	0.044
-159.750	372.632	0.038	0.077
-158.735	-134.765	0.192	0.023
-157.720	-80.246	0.084	0.028
-156.706	800.000	-0.111	-0.377
-155.691	47.297	-0.120	-0.112
-154.677	59.186	0.125	-0.123
-153.662	-73.496	0.433	-0.158
-152.647	-199.669	-0.330	0.002
-151.633	151.931	0.168	0.229
-150.618	-200.000	-0.046	-0.236
-149.604	12.340	-0.108	0.083
-148.589	-3.663	0.154	0.107
-147.574	-19.356	-0.151	0.093
-146.560	761.686	-0.056	0.151
-145.545	-44.135	0.084	0.042
-144.531	97.733	0.108	-0.124
-143.516	-128.020	0.049	-0.007
-142.502	-82.641	-0.156	-0.051
-141.487	220.039	0.199	0.318
-140.472	-112.851	0.233	-0.046
-139.458	248.884	0.096	-0.162
-138.443	94.309	-0.124	0.140
-137.429	438.863	0.149	-0.325
-136.414	209.556	0.053	0.083
-135.399	6.912	0.168	0.125
-134.385	-193.037	0.089	0.001
-133.370	89.317	-0.207	-0.230
-132.356	37.162	0.169	0.149
-131.341	217.288	-0.130	0.206
-130.326	230.313	0.176	-0.288
-129.312	-200.000	-0.014	0.285
-128.297	202.013	-0.017	0.026
-127.283	421.926	0.152	0.327
-126.268	-143.223	-0.183	-0.018
-125.253	267.624	0.122	-0.213
-124.239	-132.843	-0.184	0.023
-123.224	-12.361	0.186	-0.121
-122.210	244.432	0.036	-0.060
-121.195	-200.000	0.020	0.168
-120.180	-59.401	0.166	-0.071
-119.166	-200.000	-0.068	0.516
-118.151	-153.030	-0.186	0.013
-117.137	80.769	0.069	0.074
-116.122	-200.000	-0.007	-0.298
-115.107	-115.021	0.284	0.054
-114.093	-200.000	0.010	-0.445
-113.078	-200.000	-0.021	0.163
-112.064	-200.000	0.002	-0.116
-111.049	-200.000	0.038	-0.275
-110.034	-72.022	0.071	0.026
-109.020	-200.000	0.036	-0.158
-108.005	616.975	-0.072	-0.180
-106.991	-158.830	0.313	0.018
-105.976	74.582	0.330	0.347
-104.962	-200.000	0.019	0.191
-103.947	92.502	0.297	-0.335
-102.932	-200.000	-0.011	0.184
-101.918	248.246	0.042	0.071
-100.903	358.310	-0.157	0.312
-99.889	-200.000	0.017	-0.079
-98.874	-90.759	-0.047	-0.013
-97.859	177.735	-0.089	0.130
-96.845	-200.000	-0.018	-0.149
-95.830	58.985	0.206	-0.202
-94.816	80.138	0.164	0.176
-93.801	800.000	-0.061	-0.260
-92.786	-114.399	-0.079	0.015
-91.772	89.333	0.216	0.240
-90.757	537.068	0.138	0.328
-89.743	-11.725	-0.174	-0.114
-88.728	-17.426	-0.294	0.184
-87.713	-200.000	0.001	0.555
-86.699	34.804	-0.137	0.120
-85.684	-133.146	0.093	0.012
-84.670	40.063	-0.052	-0.047
-83.655	275.898	-0.096	-0.171
-82.640	39.068	0.025	0.022
-81.626	-200.000	-0.014	0.221
-80.611	648.486	0.077	0.198
-79.597	-181.149	0.130	0.003
-78.582	-111.903	0.198	-0.040
-77.567	129.470	0.060	0.077
-76.553	62.034	-0.187	-0.186
-75.538	-2.371	0.159	-0.111
-74.524	800.000	0.071	-0.237
-73.509	-111.769	0.152	0.031
-72.494	-82.831	0.162	-0.052
-71.480	694.268	-0.019	0.049
-70.465	-171.556	-0.134	-0.004
-69.451	-85.333	-0.286	-0.089
-68.436	-3.560	-0.119	0.082
-67.422	-200.000	0.006	-0.090
-66.407	83.975	0.216	-0.235
-65.392	-161.314	0.254	-0.013
-64.378	800.000	0.112	-0.341
-63.363	-86.142	-0.250	0.077
-62.349	-137.717	0.153	0.017
-61.334	257.060	-0.453	-0.776
-60.319	-52.424	0.429	0.198
-59.305	800.000	0.143	-0.610
-58.290	142.725	0.628	0.831
-57.276	800.000	0.539	1.575
-56.261	-200.000	76.373	528.728
-55.246	539.470	1321.335	3131.306
-54.232	146.204	2550.242	3408.607
-53.217	118.589	2250.762	2767.455
-52.203	52.671	1771.018	1685.230
-51.188	45.126	1567.561	1438.676
-50.173	42.421	1537.585	1392.382
-49.159	58.736	1573.546	1539.397
-48.144	64.486	1593.490	1599.051
-47.130	45.564	1557.067	1431.883
-46.115	41.902	1542.209	1392.731
-45.100	41.699	1539.523	1388.839
-44.086	41.729	1537.130	1386.834
-43.071	41.602	1535.004	1383.983
-42.057	41.577	1533.399	1382.306
-41.042	41.544	1531.823	1380.602
-40.027	41.549	1530.162	1379.088
-39.013	41.574	1528.748	1377.928
-37.998	41.649	1527.287	1377.077
-36.984	41.712	1525.671	1375.994
-35.969	41.671	1524.560	1374.659
-34.954	41.689	1523.588	1373.849
-33.940	41.668	1521.913	1372.143
-32.925	41.690	1520.470	1370.940
-31.911	41.769	1518.678	1369.811
-30.896	41.837	1517.468	1369.128
-29.881	41.778	1516.080	1367.415
-28.867	41.783	1514.845	1366.284
-27.852	41.706	1513.659	1364.632
-26.838	41.743	1512.018	1363.352
-25.823	41.785	1510.061	1361.822
-24.809	41.673	1508.688	1359.764
-23.794	41.702	1507.159	1358.530
-22.779	41.658	1506.069	1357.193
-21.765	41.685	1505.186	1356.533
-20.750	41.843	1503.802	1356.303
-19.736	41.734	1502.937	1354.728
-18.721	41.782	1501.645	1353.832
-17.706	41.658	1501.102	1352.454
-16.692	41.701	1499.541	1351.280
-15.677	41.754	1498.382	1350.540
-14.663	41.663	1497.614	1349.184
-13.648	41.579	1496.911	1347.926
-12.633	41.660	1496.001	1347.599
-11.619	41.677	1494.830	1346.608
-10.604	41.681	1493.921	1345.763
-9.590	41.527	1493.374	1344.182
-8.575	41.620	1492.508	1343.970
-7.560	41.635	1491.365	1342.991
-6.546	41.707	1490.012	1342.202
-5.531	41.626	1489.632	1341.262
-4.517	41.588	1488.782	1340.190
-3.502	41.600	1487.834	1339.363
-2.487	41.491	1487.099	1337.915
-1.473	41.630	1485.385	1337.252
-0.458	41.576	1484.177	1335.749
0.556	39.759	1474.292	1324.557
1.571	36.259	1446.238	1276.139
2.586	31.547	1382.814	1190.179
3.600	29.166	1297.641	1102.537
4.615	27.223	1248.466	1049.461
5.629	24.753	1195.178	990.911
6.644	19.708	1113.754	897.205
7.659	15.153	1072.473	841.056
8.673	14.492	1066.345	832.875
9.688	14.298	1063.746	829.806
10.702	14.149	1062.574	828.075
11.717	14.311	1060.375	827.090
12.731	16.105	1062.279	837.422
13.746	20.283	1068.305	862.918
14.761	21.185	1067.097	866.347
15.775	18.464	1062.722	849.252
16.790	16.907	1059.949	839.259
17.804	15.886	1057.057	831.854
18.819	14.845	1055.701	825.573
19.834	14.334	1054.085	821.718
20.848	14.036	1052.802	819.174
21.863	13.669	1052.124	816.770
22.877	13.371	1051.178	814.497
23.892	13.179	1050.307	812.802
24.907	13.185	1049.459	812.107
25.921	13.225	1048.570	811.542
26.936	13.241	1048.358	811.386
27.950	13.242	1047.261	810.466
28.965	13.264	1045.981	809.511
29.980	13.376	1045.158	809.353
30.994	13.374	1043.878	808.278
32.009	13.487	1042.766	807.897
33.023	13.437	1042.224	807.162
34.038	13.421	1041.323	806.317
35.053	13.387	1040.459	805.411
36.067	13.347	1039.477	804.383
37.082	13.285	1038.427	803.203
38.096	13.375	1037.705	803.006
39.111	13.272	1036.910	801.821
40.126	13.407	1035.846	801.580
41.140	13.269	1035.298	800.419
42.155	13.257	1033.745	799.087
43.169	13.133	1033.199	797.999
44.184	13.162	1031.970	797.118
45.199	13.035	1031.195	795.835
46.213	13.066	1030.093	795.064
47.228	13.110	1029.184	794.505
48.242	13.282	1028.148	794.460
49.257	13.209	1027.111	793.241
50.271	13.292	1026.226	792.884
51.286	13.215	1025.574	791.939
52.301	13.269	1024.772	791.511
53.315	13.274	1023.964	790.841
54.330	13.337	1022.521	789.958
55.344	13.209	1021.750	788.678
56.359	13.230	1020.794	787.973
57.374	13.155	1020.275	787.146
58.388	13.195	1019.282	786.498
59.403	13.149	1018.409	785.537
60.417	13.132	1018.502	785.459
61.432	13.130	1017.358	784.497
62.447	13.163	1016.175	783.670
63.461	13.131	1015.789	783.155
64.476	13.060	1014.625	781.851
65.490	12.989	1013.769	780.786
66.505	13.203	1012.723	780.923
67.520	13.152	1012.060	780.099
68.534	13.134	1011.530	779.539
69.549	13.197	1010.362	778.865
70.563	13.279	1010.030	778.929
71.578	13.051	1009.534	777.403
72.593	13.099	1008.255	776.575
73.607	12.970	1007.622	775.412
74.622	12.910	1006.776	774.413
75.636	13.025	1005.495	773.897
76.651	12.925	1004.915	772.913
77.666	12.960	1004.017	772.317
78.680	13.061	1003.074	771.996
79.695	12.912	1002.947	771.132
80.709	12.979	1002.519	771.051
81.724	12.998	1001.755	770.483
82.739	13.157	1000.649	770.305
83.753	13.064	999.867	769.201
84.768	13.122	999.533	769.149
85.782	13.238	998.693	768.971
86.797	13.225	997.835	768.185
87.812	13.415	996.730	768.145
88.826	13.337	995.867	767.051
89.841	13.189	995.541	766.045
90.855	13.208	994.502	765.268
91.870	13.263	993.520	764.701
92.884	13.467	992.587	764.857
93.899	13.347	992.286	764.003
94.914	13.322	991.496	763.211
95.928	13.400	990.937	763.071
96.943	13.413	990.155	762.463
97.957	13.393	989.474	761.778
98.972	13.388	988.067	760.603
99.987	13.406	987.365	760.081
101.001	13.342	986.909	759.368
102.016	13.420	985.973	758.936
103.030	13.250	984.916	757.277
104.045	13.350	984.200	757.120
105.060	13.397	982.718	756.128
106.074	13.382	981.869	755.339
107.089	13.243	981.481	754.338
108.103	13.280	980.614	753.776
109.118	13.122	979.586	752.197
110.133	13.207	978.771	751.893
111.147	13.180	977.913	751.045
112.162	13.271	976.969	750.665
113.176	13.061	976.733	749.462
114.191	13.135	975.676	748.923
115.206	13.327	974.473	748.804
116.220	13.232	974.204	748.098
117.235	13.163	973.508	747.187
118.249	13.080	972.833	746.228
119.264	13.202	971.438	745.641
120.279	13.234	970.576	745.057
121.293	13.221	969.604	744.190
122.308	13.227	969.117	743.776
123.322	13.103	968.567	742.727
124.337	13.120	967.474	741.900
125.352	13.003	966.432	740.511
126.366	12.972	964.705	738.984
127.381	13.124	964.130	739.161
128.395	13.093	963.006	738.096
129.410	13.133	962.095	737.509
130.424	13.147	960.927	736.608
131.439	13.306	960.069	736.594
132.454	13.207	959.272	735.479
133.468	13.308	958.476	735.252
134.483	13.373	957.829	734.979
135.497	13.161	957.274	733.547
136.512	13.348	956.643	733.830
137.527	13.358	955.832	733.188
138.541	13.193	955.207	731.911
139.556	13.349	954.106	731.694
140.570	13.335	953.569	731.153
141.585	13.364	952.242	730.201
142.600	13.444	952.346	730.570
143.614	13.393	951.673	729.764
144.629	13.448	950.550	729.079
145.643	13.493	950.207	728.948
146.658	13.393	948.992	727.515
147.673	13.489	947.814	726.966
148.687	13.382	947.013	725.820
149.702	13.207	946.798	724.823
150.716	13.275	945.487	724.055
151.731	13.268	944.628	723.299
152.746	13.363	944.006	723.177
153.760	13.367	943.266	722.562
154.775	13.362	942.424	721.830
155.789	13.295	942.002	721.153
156.804	13.451	941.095	721.075
157.819	13.387	940.224	720.063
158.833	13.328	939.992	719.566
159.848	13.618	938.827	719.868
160.862	13.542	938.305	719.077
161.877	13.588	937.558	718.641
162.892	13.424	936.670	717.186
163.906	13.440	935.991	716.672
164.921	13.296	935.147	715.339
165.935	13.275	934.324	714.555
166.950	13.421	933.164	714.235
167.964	13.458	931.944	713.397
168.979	13.446	931.148	712.675
169.994	13.462	929.950	711.761
171.008	13.413	929.647	711.257
172.023	13.567	928.771	711.183
173.037	13.508	927.891	710.197
174.052	13.517	927.231	709.663
175.067	13.615	926.577	709.522
176.081	13.690	925.374	708.859
177.096	13.404	925.072	707.340
178.110	13.496	923.827	706.722
179.125	13.522	923.479	706.503
180.140	13.387	923.321	705.742
181.154	13.491	921.969	705.088
182.169	13.648	921.459	705.306
183.183	13.713	920.769	704.991
184.198	13.771	919.693	704.350
185.213	13.726	919.086	703.635
186.227	13.778	918.315	703.203
187.242	13.853	918.004	703.220
188.256	13.756	917.676	702.493
189.271	13.830	916.802	702.078
190.286	13.851	915.564	701.155
191.300	13.712	915.384	700.367
192.315	13.520	914.709	698.981
193.329	13.464	913.905	698.069
194.344	13.582	913.109	697.895
195.359	13.650	912.243	697.458
196.373	13.712	912.132	697.569
197.388	13.765	911.354	697.136
198.402	13.814	910.908	696.941
199.417	13.822	910.777	696.813
200.432	13.829	910.410	696.498
201.446	13.870	909.876	696.202
202.461	13.947	909.499	696.175
203.475	13.995	908.876	695.835
204.490	13.976	908.300	695.251
205.504	13.968	907.380	694.455
206.519	13.939	906.495	693.594
207.534	13.921	905.618	692.787
208.548	13.922	904.974	692.239
209.563	13.993	904.061	691.775
210.577	13.978	903.248	691.029
211.592	13.961	903.077	690.763
212.607	13.953	902.633	690.331
213.621	14.087	902.178	690.477
214.636	14.162	901.110	689.911
215.650	14.134	900.320	689.129
216.665	14.086	900.012	688.635
217.680	14.135	899.527	688.403
218.694	14.098	899.020	687.802
219.709	14.180	898.360	687.577
220.723	14.051	898.129	686.803
221.738	14.134	896.960	686.193
222.753	14.115	896.026	685.338
223.767	14.165	895.541	685.114
224.782	14.097	895.224	684.529
225.796	14.336	893.928	684.462
226.811	14.399	893.531	684.356
227.826	14.347	892.750	683.484
228.840	14.239	892.276	682.615
229.855	14.191	891.593	681.839
230.869	14.244	890.733	681.334
231.884	14.218	890.072	680.666
232.899	14.167	889.287	679.793
233.913	14.130	888.684	679.121
234.928	14.130	888.192	678.687
235.942	14.233	887.398	678.441
236.957	14.226	886.547	677.700
237.972	14.232	885.789	677.087
238.986	14.238	885.137	676.551
240.001	14.373	884.435	676.503
241.015	14.387	883.643	675.893
242.030	14.173	883.329	674.729
243.045	14.299	882.248	674.352
244.059	14.412	881.721	674.347
245.074	14.490	881.215	674.216
246.088	14.418	880.639	673.425
247.103	14.387	880.479	673.117
248.117	14.471	879.998	673.031
249.132	14.529	879.087	672.508
250.147	14.627	878.761	672.591
251.161	14.654	877.965	672.033
252.176	14.767	877.221	671.857
253.190	14.668	876.803	671.079
254.205	14.838	875.976	671.070
255.220	14.858	875.562	670.776
256.234	14.827	874.669	669.907
257.249	14.818	874.240	669.482
258.263	14.782	873.482	668.698
259.278	14.867	873.038	668.640
260.293	14.733	872.761	667.834
261.307	14.821	871.969	667.520
262.322	14.972	871.191	667.469
263.336	14.964	870.858	667.120
264.351	14.935	870.306	666.524
265.366	14.999	869.533	666.126
266.380	15.011	869.150	665.823
267.395	14.894	868.281	664.632
268.409	15.048	867.422	664.528
269.424	14.963	866.569	663.481
270.439	15.050	866.285	663.546
271.453	15.009	865.300	662.571
272.468	14.890	864.810	661.666
273.482	14.865	864.319	661.133
274.497	14.880	863.845	660.773
275.512	14.914	862.999	660.201
276.526	14.942	862.286	659.709
277.541	15.055	861.482	659.478
278.555	15.143	860.436	658.966
279.570	15.109	860.313	658.680
280.585	15.032	859.982	658.068
281.599	15.018	859.423	657.525
282.614	15.256	858.292	657.537
283.628	15.107	857.985	656.657
284.643	14.950	857.795	655.838
285.657	15.181	856.819	655.940
286.672	15.231	856.401	655.755
287.687	15.204	856.010	655.294
288.701	15.164	855.375	654.592
289.716	15.250	854.859	654.476
290.730	15.324	854.121	654.143
291.745	15.328	853.587	653.690
292.760	15.246	853.298	653.093
293.774	15.373	852.297	652.764
294.789	15.304	851.687	651.969
295.803	15.360	851.183	651.743
296.818	15.302	850.411	650.868
297.833	15.219	850.063	650.223
298.847	15.289	849.456	649.974
299.862	15.383	848.654	649.667
300.876	15.460	847.769	649.230
301.891	15.408	847.101	648.460
302.906	15.459	846.606	648.220
303.920	15.589	845.858	648.089
304.935	15.561	845.374	647.554
305.949	15.707	844.649	647.503
306.964	15.531	843.853	646.161
307.979	15.609	843.405	646.060
308.993	15.627	842.941	645.715
310.008	15.739	842.429	645.695
311.022	15.676	842.120	645.162
312.037	15.677	841.448	644.591
313.052	15.522	841.234	643.777
314.066	15.660	840.310	643.540
315.081	15.281	839.876	641.702
316.095	15.520	839.330	642.143
317.110	15.533	838.950	641.846
318.125	15.558	837.856	641.045
319.139	15.738	837.464	641.377
320.154	15.647	837.459	640.966
321.168	15.594	836.967	640.334
322.183	15.568	836.320	639.681
323.197	15.690	835.141	639.187
324.212	15.591	835.191	638.792
325.227	15.761	834.336	638.730
326.241	15.705	833.896	638.121
327.256	15.776	833.369	637.930
328.270	15.633	832.885	636.962
329.285	15.698	832.091	636.546
330.300	15.650	831.750	636.047
331.314	15.917	830.973	636.404
332.329	15.620	830.806	635.099
333.343	15.776	829.839	634.892
334.358	15.750	829.704	634.636
335.373	15.834	828.952	634.320
336.387	15.932	828.143	634.014
337.402	15.815	828.123	633.501
338.416	15.888	827.159	632.984
339.431	15.898	826.815	632.700
340.446	15.925	826.333	632.377
341.460	15.942	825.489	631.740
342.475	16.097	825.040	631.920
343.489	16.094	824.480	631.426
344.504	16.130	823.708	630.911
345.519	16.349	822.986	631.120
346.533	16.165	822.851	630.277
347.548	16.225	822.183	629.931
348.562	16.240	821.836	629.664
349.577	16.083	821.358	628.657
350.592	16.221	820.518	628.475
351.606	16.101	820.235	627.754
352.621	16.041	820.068	627.350
353.635	16.218	819.325	627.381
354.650	16.078	819.327	626.810
355.665	16.131	818.727	626.492
356.679	16.118	818.021	625.848
357.694	16.248	817.852	626.144
358.708	16.235	817.297	625.616
359.723	16.198	816.524	624.833
360.738	16.280	815.621	624.388
361.752	16.406	815.383	624.619
362.767	16.212	815.224	623.725
363.781	16.222	814.973	623.512
364.796	16.331	814.291	623.339
365.810	16.601	813.842	623.936
366.825	16.582	813.437	623.500
367.840	16.648	812.947	623.313
368.854	16.551	812.732	622.736
369.869	16.476	812.467	622.201
370.883	16.531	811.603	621.685
371.898	16.477	811.394	621.273
372.913	16.345	810.840	620.310
373.927	16.501	810.139	620.290
374.942	16.411	809.810	619.653
375.956	16.526	808.686	619.158
376.971	16.635	808.345	619.243
377.986	16.655	807.750	618.806
379.000	16.690	807.116	618.391
380.015	16.741	806.738	618.235
381.029	16.762	805.903	617.615
382.044	16.777	805.365	617.204
383.059	16.627	805.194	616.472
384.073	16.830	804.715	616.790
385.088	16.835	803.888	616.121
386.102	16.709	803.668	615.436
387.117	16.724	802.928	614.871
388.132	16.630	802.367	614.045
389.146	16.728	802.511	614.456
390.161	16.802	801.510	613.904
391.175	16.771	801.605	613.810
392.190	16.835	800.937	613.476
393.205	16.821	800.357	612.928
394.219	16.792	800.145	612.606
395.234	16.898	799.308	612.295
396.248	16.762	799.061	611.560
397.263	16.788	798.600	611.247
398.278	16.838	797.997	610.912
399.292	16.696	797.299	609.813
400.307	16.708	797.254	609.765
401.321	16.766	796.552	609.383
402.336	16.759	796.532	609.288
403.350	16.885	796.189	609.428
404.365	16.875	795.783	609.024
405.380	16.861	795.230	608.497
406.394	16.923	794.758	608.304
407.409	17.124	794.337	608.650
408.423	16.988	793.762	607.668
409.438	17.102	793.309	607.675
410.453	17.142	793.231	607.708
411.467	17.113	792.394	606.905
412.482	17.382	791.921	607.452
413.496	17.240	791.518	606.583
414.511	17.218	791.211	606.214
415.526	17.229	790.660	605.778
416.540	17.165	790.726	605.547
417.555	17.142	790.197	605.005
418.569	17.277	789.578	604.957
419.584	17.439	789.079	605.100
420.599	17.334	788.443	604.186
421.613	90.356	1259.832	1360.523
422.628	76.791	1328.533	1360.645
