DTS Sentinel unit serial number:	SN413079Multiplexer serial number:	ORYXHardware model number:	OX4-SRSoftware version number:	ORYX F/W v4.00 Oryx Data Collector v3.7.2.0data status	okinstallation	princeton_trtdifferential loss correction	single-endedforward channel	channel 3reverse channel	N/Adate	2019/09/12time	18:20:04forward acquisition time	15.00reverse acquisition time	0.00gamma	496.2192k internal	0.2317k external	0.2317temperature offset calibration	1.0095default loss term (dB/km)	0.3790temperature slope calibration	1.0000multiplexer offset coefficient	1.0000multiplexer slope coefficient	1.0000fibre end	0.00T internal ref (°C)	33.44T ext. ref 1 (°C)	2.91T ext. ref 2 (°C)	28.04length (m)	temperature (°C)	Stokes	anti-Stokes-747.200	-200.000	-0.081	0.607
-746.185	-86.000	0.871	-0.273
-745.171	800.000	-0.140	-0.469
-744.156	226.628	0.106	0.175
-743.142	-115.149	0.575	0.110
-742.127	56.125	-0.159	0.156
-741.112	-51.518	-0.078	-0.037
-740.098	-200.000	-0.030	0.240
-739.083	-38.186	0.241	0.130
-738.069	204.310	-0.413	0.648
-737.054	287.554	-0.397	-0.728
-736.039	800.000	0.101	0.384
-735.025	117.140	0.331	-0.412
-734.010	800.000	-0.158	0.446
-732.996	-97.183	-0.563	0.149
-731.981	800.000	0.185	0.678
-730.966	-50.052	-0.662	0.318
-729.952	-169.111	-0.500	-0.019
-728.937	-72.553	-0.275	-0.103
-727.923	133.154	0.292	-0.382
-726.908	17.631	0.169	0.136
-725.894	-124.857	-0.507	0.079
-724.879	41.098	0.634	0.580
-723.864	205.130	-0.103	-0.161
-722.850	-15.089	-0.214	-0.138
-721.835	393.679	-0.389	-0.820
-720.821	299.388	-0.111	0.207
-719.806	-153.535	-0.730	-0.051
-718.791	54.563	0.295	-0.288
-717.777	53.246	0.142	0.138
-716.762	-200.000	0.061	-0.454
-715.748	800.000	0.358	1.071
-714.733	-200.000	-0.038	-0.798
-713.718	420.763	-0.296	-0.641
-712.704	-16.388	-0.320	-0.205
-711.689	540.710	0.310	0.746
-710.675	800.000	-0.037	-0.161
-709.660	-200.000	0.071	-0.433
-708.645	-200.000	0.022	-0.628
-707.631	-57.767	0.118	-0.052
-706.616	188.490	-0.111	0.168
-705.602	484.895	-0.155	-0.357
-704.587	-200.000	0.021	-0.932
-703.572	-156.418	0.351	-0.022
-702.558	800.000	-0.043	0.138
-701.543	32.421	0.052	-0.045
-700.529	800.000	-0.135	-0.480
-699.514	-200.000	0.074	-0.495
-698.499	-97.404	-1.040	0.274
-697.485	302.952	0.165	0.309
-696.470	-88.486	0.706	-0.213
-695.456	-48.589	-0.475	-0.231
-694.441	-200.000	-0.124	-0.665
-693.426	-81.709	0.375	-0.124
-692.412	-29.554	-0.232	-0.134
-691.397	78.974	0.493	0.533
-690.383	-200.000	0.127	-0.911
-689.368	463.375	-0.147	-0.331
-688.354	-200.000	0.143	0.981
-687.339	754.370	-0.076	0.207
-686.324	800.000	0.047	0.145
-685.310	654.906	-0.268	-0.695
-684.295	75.575	0.375	-0.400
-683.281	-151.444	-0.572	0.043
-682.266	284.339	-0.323	-0.587
-681.251	289.658	0.418	-0.766
-680.237	-189.147	0.844	0.010
-679.222	668.113	-0.250	0.654
-678.208	235.200	-0.276	-0.460
-677.193	-200.000	-0.018	-0.438
-676.178	-111.805	-0.305	-0.062
-675.164	92.206	0.849	0.966
-674.149	800.000	0.130	0.471
-673.135	-17.222	-0.074	0.047
-672.120	-15.431	-0.392	0.253
-671.105	-200.000	-0.139	-0.725
-670.091	800.000	-0.078	-0.335
-669.076	341.091	-0.355	0.699
-668.062	-142.658	-0.605	-0.060
-667.047	800.000	-0.189	0.577
-666.032	-175.898	0.433	-0.012
-665.018	-200.000	-0.065	-0.501
-664.003	-200.000	-0.033	-0.754
-662.989	4.684	-0.528	0.391
-661.974	-200.000	0.129	-0.614
-660.959	-7.792	0.601	0.409
-659.945	-55.840	-0.897	0.404
-658.930	-200.000	0.042	0.923
-657.916	800.000	-0.085	0.338
-656.901	-114.653	0.971	0.187
-655.886	-11.749	-0.611	-0.405
-654.872	-200.000	0.050	0.402
-653.857	-200.000	0.155	-1.640
-652.843	-39.751	-0.293	0.155
-651.828	30.736	0.441	0.381
-650.814	-200.000	0.133	-0.943
-649.799	-69.093	0.178	-0.069
-648.784	-123.960	0.313	-0.050
-647.770	800.000	0.135	0.438
-646.755	241.201	0.248	-0.417
-645.741	-85.465	-0.441	0.139
-644.726	800.000	-0.297	0.893
-643.711	8.812	0.422	-0.321
-642.697	175.858	0.218	-0.319
-641.682	-81.829	-0.280	-0.093
-640.668	-200.000	-0.015	-0.417
-639.653	69.201	0.542	-0.562
-638.638	158.214	0.268	0.375
-637.624	-200.000	0.007	0.774
-636.609	-16.954	0.236	0.151
-635.595	61.618	-0.092	0.092
-634.580	19.228	-0.824	0.667
-633.565	-17.311	-0.466	0.296
-632.551	134.855	-0.382	0.500
-631.536	12.909	0.224	0.174
-630.522	11.614	-0.412	0.319
-629.507	492.877	0.160	-0.369
-628.492	76.241	-0.389	-0.415
-627.478	800.000	-0.062	0.233
-626.463	241.539	-0.329	-0.554
-625.449	-200.000	0.090	0.725
-624.434	-135.705	0.799	0.095
-623.419	-148.661	-0.636	-0.052
-622.405	-103.293	1.077	0.256
-621.390	167.745	0.499	0.714
-620.376	58.290	0.526	0.519
-619.361	218.427	0.341	-0.549
-618.346	-200.000	0.111	-0.868
-617.332	800.000	0.018	-0.057
-616.317	800.000	0.088	-0.293
-615.303	-41.822	-0.702	0.363
-614.288	-92.180	-0.292	0.083
-613.273	114.161	-0.535	-0.656
-612.259	193.830	-0.243	-0.371
-611.244	-39.831	-0.362	0.191
-610.230	162.425	0.393	0.556
-609.215	-200.000	-0.005	-0.028
-608.201	-200.000	0.044	-0.307
-607.186	86.817	-0.553	0.614
-606.171	364.019	-0.053	0.108
-605.157	616.931	-0.130	-0.328
-604.142	-16.889	-0.193	0.123
-603.128	309.086	-0.164	-0.309
-602.113	1.996	-0.238	-0.173
-601.098	-59.897	0.111	0.048
-600.084	271.890	0.173	0.306
-599.069	388.470	-0.187	-0.390
-598.055	-200.000	-0.024	-0.619
-597.040	119.499	-0.536	-0.668
-596.025	363.566	-0.097	0.195
-595.011	-2.185	0.406	-0.287
-593.996	-80.476	0.630	-0.212
-592.982	-200.000	-0.055	0.836
-591.967	-170.477	-0.494	0.017
-590.952	519.373	-0.192	-0.452
-589.938	48.439	-0.279	-0.263
-588.923	-100.600	-0.164	-0.041
-587.909	77.780	0.386	0.414
-586.894	12.320	-0.319	-0.247
-585.879	184.241	-0.147	-0.219
-584.865	-10.334	0.545	-0.364
-583.850	-200.000	-0.054	0.658
-582.836	775.925	-0.141	-0.386
-581.821	194.303	-0.138	0.210
-580.806	107.706	-0.263	-0.315
-579.792	117.871	-0.208	0.258
-578.777	-40.978	-0.234	-0.122
-577.763	-60.148	0.579	-0.248
-576.748	58.120	-0.318	-0.313
-575.733	-200.000	-0.306	-1.508
-574.719	-127.446	-0.326	0.048
-573.704	-41.717	-0.601	0.311
-572.690	10.319	0.670	-0.512
-571.675	10.430	0.316	-0.242
-570.661	-79.898	-0.465	0.157
-569.646	-84.213	-0.368	0.117
-568.631	88.079	0.250	0.279
-567.617	111.734	0.536	-0.651
-566.602	454.643	0.544	-1.212
-565.588	-200.000	-0.015	0.184
-564.573	-27.663	0.353	-0.206
-563.558	580.743	-0.056	-0.138
-562.544	-200.000	0.000	0.516
-561.529	-30.549	0.571	-0.325
-560.515	-0.198	0.725	0.519
-559.500	-200.000	0.053	0.686
-558.485	-27.221	-0.392	-0.229
-557.471	-36.465	0.397	-0.215
-556.456	75.096	0.511	0.542
-555.442	-76.401	-0.160	0.057
-554.427	-107.094	0.650	-0.144
-553.412	-107.071	-0.125	-0.028
-552.398	800.000	-0.410	1.179
-551.383	-200.000	-0.028	-0.879
-550.369	-119.339	-0.689	0.121
-549.354	265.936	-0.089	0.157
-548.339	-200.000	-0.047	-0.554
-547.325	416.787	-0.119	-0.255
-546.310	-91.186	0.097	-0.028
-545.296	-53.769	0.490	0.224
-544.281	800.000	-0.124	0.447
-543.266	-126.528	-0.360	-0.054
-542.252	-35.029	-0.183	0.100
-541.237	3.159	-0.534	-0.390
-540.223	800.000	0.156	-0.436
-539.208	-200.000	0.016	-0.604
-538.193	266.807	-0.155	0.272
-537.179	-48.519	-0.453	-0.219
-536.164	27.357	0.568	0.480
-535.150	26.754	-0.145	0.122
-534.135	325.560	0.584	1.122
-533.121	148.744	0.514	0.697
-532.106	-47.480	0.352	0.172
-531.091	-92.228	0.529	0.150
-530.077	-135.185	0.559	0.067
-529.062	6.054	-0.378	0.281
-528.048	-83.561	0.096	0.031
-527.033	-70.889	-0.455	-0.172
-526.018	-38.569	-0.696	-0.369
-525.004	193.089	-0.282	-0.428
-523.989	-200.000	0.029	0.333
-522.975	-200.000	0.069	-0.428
-521.960	-3.530	0.833	-0.581
-520.945	-200.000	-0.031	0.435
-519.931	-200.000	-0.122	-0.690
-518.916	800.000	0.165	0.643
-517.902	68.597	-0.162	0.167
-516.887	-200.000	-0.104	-1.101
-515.872	222.116	-0.499	-0.805
-514.858	-92.527	0.600	0.169
-513.843	16.449	-0.278	-0.220
-512.829	800.000	0.147	-0.516
-511.814	596.656	0.364	0.905
-510.799	532.984	-0.211	0.501
-509.785	42.298	-0.082	0.075
-508.770	172.632	-0.055	-0.079
-507.756	-81.457	0.699	0.231
-506.741	-123.591	-0.985	0.157
-505.726	169.993	0.154	0.222
-504.712	-200.000	-0.105	0.714
-503.697	800.000	0.120	0.409
-502.683	-200.000	-0.016	-0.207
-501.668	199.647	-0.110	0.169
-500.653	-119.410	-0.927	-0.162
-499.639	-200.000	0.005	0.282
-498.624	73.095	0.401	0.420
-497.610	-123.770	-0.174	0.028
-496.595	-34.247	-0.297	-0.163
-495.581	-52.212	-0.667	0.310
-494.566	-9.662	0.580	0.387
-493.551	147.251	-0.094	0.127
-492.537	-65.122	-0.619	-0.250
-491.522	-60.688	0.867	0.368
-490.508	-200.000	-0.076	-1.126
-489.493	27.370	-0.819	0.690
-488.478	425.824	-0.251	0.543
-487.464	-166.548	-0.716	-0.030
-486.449	-57.437	0.199	-0.088
-485.435	-102.577	0.243	-0.058
-484.420	-42.161	-0.495	0.254
-483.405	800.000	0.307	0.860
-482.391	341.698	-0.098	0.191
-481.376	82.595	-0.015	-0.017
-480.362	288.414	-0.236	-0.428
-479.347	1.053	0.425	0.305
-478.332	79.445	-0.263	0.283
-477.318	351.504	-0.409	-0.811
-476.303	-200.000	0.020	-0.469
-475.289	557.120	0.268	-0.647
-474.274	787.361	0.043	-0.118
-473.259	142.747	0.539	0.718
-472.245	-200.000	-0.069	0.442
-471.230	-134.652	-0.234	0.029
-470.216	-200.000	-0.032	-0.333
-469.201	-66.443	-0.615	0.245
-468.186	-43.162	0.158	-0.080
-467.172	31.707	-0.586	-0.505
-466.157	-73.317	-0.905	0.331
-465.143	82.750	0.525	0.571
-464.128	364.258	0.130	0.262
-463.113	44.397	0.410	-0.377
-462.099	224.658	0.244	0.396
-461.084	48.178	-0.577	0.540
-460.070	136.971	-0.151	0.198
-459.055	300.506	-0.060	0.110
-458.040	-44.697	-0.827	-0.413
-457.026	181.897	0.404	-0.596
-456.011	29.312	0.278	0.236
-454.997	-115.730	0.381	-0.072
-453.982	800.000	0.082	0.265
-452.968	-74.489	-0.464	-0.168
-451.953	800.000	0.103	0.392
-450.938	-120.581	0.522	0.088
-449.924	-114.788	0.488	0.093
-448.909	560.397	-0.185	0.448
-447.895	-55.789	-1.071	-0.479
-446.880	304.349	0.343	0.637
-445.865	800.000	-0.035	-0.140
-444.851	330.627	0.249	0.480
-443.836	-82.086	-0.301	-0.098
-442.822	-153.930	0.707	-0.048
-441.807	10.633	-0.425	-0.324
-440.792	-63.057	0.718	-0.297
-439.778	214.600	0.330	-0.523
-438.763	252.996	0.219	-0.374
-437.749	17.179	-0.216	-0.171
-436.734	-46.981	-0.248	0.121
-435.719	-95.265	0.293	-0.079
-434.705	86.591	-0.297	0.328
-433.690	-25.534	-0.716	-0.423
-432.676	84.653	-0.110	0.120
-431.661	-136.377	0.407	-0.047
-430.646	-200.000	-0.006	-0.274
-429.632	-12.429	-0.765	-0.500
-428.617	118.661	-0.218	-0.269
-427.603	21.351	0.807	0.656
-426.588	52.695	0.578	-0.553
-425.573	-200.000	-0.213	-1.035
-424.559	-128.499	0.550	-0.078
-423.544	70.162	-0.392	-0.404
-422.530	154.521	0.375	-0.514
-421.515	65.949	0.107	0.108
-420.500	347.310	0.129	0.254
-419.486	800.000	-0.199	0.611
-418.471	458.651	0.055	-0.123
-417.457	800.000	0.212	0.730
-416.442	34.384	0.535	-0.467
-415.428	-156.245	1.085	-0.068
-414.413	716.860	-0.077	0.205
-413.398	122.821	-0.360	-0.450
-412.384	-108.947	-0.752	-0.160
-411.369	-95.648	-0.702	-0.188
-410.355	65.922	0.405	-0.410
-409.340	800.000	0.174	-0.621
-408.325	506.175	-0.478	1.108
-407.311	-86.134	0.286	-0.088
-406.296	-200.000	0.072	-0.680
-405.282	101.972	0.244	-0.285
-404.267	-200.000	-0.014	0.414
-403.252	-66.725	1.398	0.553
-402.238	145.996	0.530	0.710
-401.223	57.512	-0.191	-0.186
-400.209	117.614	-0.514	0.632
-399.194	-134.553	-0.238	-0.029
-398.179	-200.000	0.046	-0.285
-397.165	83.555	0.440	0.480
-396.150	91.103	0.416	0.466
-395.136	43.624	-0.526	0.480
-394.121	19.344	-0.564	0.452
-393.106	-135.620	-0.871	0.103
-392.092	142.258	-0.287	0.381
-391.077	-62.769	1.235	0.511
-390.063	751.578	0.126	0.341
-389.048	-90.827	0.344	-0.099
-388.033	800.000	-0.123	-0.396
-387.019	-98.967	-0.488	-0.124
-386.004	87.916	-0.333	0.369
-384.990	-159.147	-0.626	0.035
-383.975	-95.146	-0.162	-0.044
-382.960	96.547	-0.208	0.237
-381.946	362.725	0.191	-0.383
-380.931	-71.140	0.451	0.169
-379.917	-46.554	-0.186	0.091
-378.902	-115.945	-0.815	-0.152
-377.888	-200.000	-0.027	-0.342
-376.873	-71.007	-0.655	0.246
-375.858	-112.220	0.245	0.049
-374.844	-91.534	-0.978	0.278
-373.829	-40.862	-0.167	-0.086
-372.815	-121.942	0.354	-0.058
-371.800	-200.000	-0.082	-0.447
-370.785	31.988	0.698	-0.600
-369.771	-200.000	-0.022	0.133
-368.756	347.425	0.126	-0.248
-367.742	688.390	-0.091	0.238
-366.727	-88.212	0.202	-0.060
-365.712	-121.910	0.546	-0.090
-364.698	800.000	0.124	0.480
-363.683	-27.029	-0.425	-0.247
-362.669	20.872	-0.320	0.259
-361.654	498.009	-0.331	0.759
-360.639	611.162	-0.237	-0.591
-359.625	800.000	-0.254	0.728
-358.610	800.000	0.305	1.123
-357.596	74.900	-0.074	-0.077
-356.581	800.000	0.150	-0.487
-355.566	800.000	-0.223	-0.656
-354.552	-96.158	-0.435	0.115
-353.537	91.713	0.340	0.382
-352.523	41.607	0.348	0.314
-351.508	800.000	-0.265	0.772
-350.493	122.487	-0.786	0.979
-349.479	-119.241	0.510	0.089
-348.464	-133.918	-0.160	0.020
-347.450	135.736	-0.299	-0.388
-346.435	24.647	0.425	0.351
-345.420	405.673	-0.237	-0.499
-344.406	-144.988	-0.230	-0.021
-343.391	531.702	-0.306	0.722
-342.377	550.762	-0.176	0.422
-341.362	1.723	0.096	-0.069
-340.348	-200.000	-0.105	0.719
-339.333	-28.887	-0.415	-0.237
-338.318	131.277	0.518	-0.663
-337.304	-10.875	0.751	-0.494
-336.289	80.275	-0.162	0.174
-335.275	-20.104	0.268	0.164
-334.260	-18.912	-0.402	-0.249
-333.245	-55.446	0.200	0.089
-332.231	-200.000	0.054	-0.293
-331.216	-53.563	0.492	-0.224
-330.202	35.347	0.346	-0.302
-329.187	0.835	0.423	0.302
-328.172	211.724	0.319	0.500
-327.158	89.727	-0.532	-0.591
-326.143	-200.000	0.058	-0.324
-325.129	10.957	0.820	0.624
-324.114	-200.000	-0.013	-0.359
-323.099	443.082	-0.277	-0.604
-322.085	171.497	-0.071	0.101
-321.070	-200.000	0.080	-0.672
-320.056	66.684	0.270	-0.274
-319.041	-81.777	0.117	-0.038
-318.026	800.000	0.012	-0.050
-317.012	68.128	-0.436	-0.444
-315.997	-13.862	-0.779	-0.501
-314.983	-200.000	-0.014	-0.171
-313.968	-93.960	-0.339	0.093
-312.953	-157.344	-0.243	0.015
-311.939	20.398	0.974	0.783
-310.924	-5.656	-0.920	0.628
-309.910	-80.428	-0.288	0.096
-308.895	-146.041	-0.446	-0.039
-307.880	-200.000	0.105	0.967
-306.866	130.442	-0.594	-0.757
-305.851	67.069	-0.538	0.546
-304.837	-200.000	0.031	0.378
-303.822	-145.593	0.802	0.072
-302.807	-200.000	-0.068	-0.393
-301.793	-83.044	-0.194	-0.062
-300.778	348.530	-0.383	-0.752
-299.764	-143.487	0.128	0.012
-298.749	-200.000	0.042	0.263
-297.735	328.501	-0.213	-0.407
-296.720	8.250	-0.464	0.347
-295.705	-200.000	-0.059	-0.703
-294.691	800.000	-0.177	-0.583
-293.676	-200.000	-0.011	0.167
-292.662	283.836	0.193	0.345
-291.647	197.950	-0.121	0.184
-290.632	80.327	-0.321	-0.343
-289.618	-200.000	0.127	1.168
-288.603	129.842	-0.493	0.627
-287.589	-75.697	-0.460	-0.162
-286.574	149.461	0.345	0.465
-285.559	32.734	0.411	0.353
-284.545	474.236	0.267	-0.598
-283.530	-106.106	-0.702	0.157
-282.516	800.000	-0.094	-0.337
-281.501	-140.649	-0.177	-0.018
-280.486	800.000	0.116	0.412
-279.472	26.858	-0.293	0.244
-278.457	-25.066	0.149	-0.088
-277.443	332.209	0.282	0.540
-276.428	162.140	-0.565	-0.787
-275.413	262.831	-0.233	0.402
-274.399	121.151	-0.274	-0.339
-273.384	-200.000	0.042	0.454
-272.370	800.000	0.061	0.171
-271.355	-134.159	-0.868	0.106
-270.340	-200.000	0.105	-0.593
-269.326	-200.000	-0.094	0.557
-268.311	-200.000	-0.012	-0.271
-267.297	-86.600	-0.233	-0.071
-266.282	-111.597	0.939	-0.189
-265.267	-115.637	-0.640	-0.119
-264.253	800.000	-0.188	-0.742
-263.238	-200.000	0.011	0.965
-262.224	451.533	0.184	-0.405
-261.209	800.000	0.291	-1.240
-260.195	-11.547	-0.366	-0.239
-259.180	126.991	0.358	-0.451
-258.165	-110.296	0.979	-0.202
-257.151	-32.581	1.068	0.591
-256.136	26.986	-0.151	0.126
-255.122	48.042	0.265	0.246
-254.107	37.191	-0.120	-0.105
-253.092	800.000	0.106	-0.426
-252.078	-42.613	0.626	0.316
-251.063	800.000	0.263	-0.762
-250.049	1.126	0.777	-0.554
-249.034	-116.809	0.248	0.045
-248.019	800.000	0.140	0.414
-247.005	538.816	-0.185	0.436
-245.990	-200.000	0.048	-0.405
-244.976	508.187	-0.187	-0.431
-243.961	800.000	0.139	-0.472
-242.946	224.000	0.306	-0.490
-241.932	-200.000	0.144	0.781
-240.917	-76.604	0.513	0.179
-239.903	800.000	-0.065	-0.264
-238.888	-19.875	0.916	-0.562
-237.873	-95.440	0.165	0.044
-236.859	36.304	0.608	0.532
-235.844	-63.598	0.532	-0.217
-234.830	150.778	-0.597	-0.805
-233.815	800.000	-0.192	0.616
-232.800	78.415	0.430	-0.455
-231.786	-14.981	-0.207	0.132
-230.771	-200.000	0.039	-0.781
-229.757	178.260	0.323	0.468
-228.742	41.160	0.242	-0.217
-227.727	-200.000	0.226	-1.147
-226.713	-107.351	0.872	-0.190
-225.698	302.790	0.568	1.044
-224.684	209.630	-0.303	-0.471
-223.669	635.594	0.214	-0.538
-222.655	-153.708	0.937	-0.064
-221.640	-133.094	0.361	-0.045
-220.625	87.120	-0.388	0.425
-219.611	-162.581	-0.591	-0.029
-218.596	-200.000	0.133	-0.759
-217.582	800.000	-0.142	-0.483
-216.567	269.657	0.352	-0.613
-215.552	-18.253	0.690	0.428
-214.538	365.699	0.328	0.655
-213.523	-14.333	-0.360	0.230
-212.509	-57.909	-0.863	0.374
-211.494	-200.000	0.140	-0.617
-210.479	168.743	-0.173	-0.244
-209.465	229.889	0.095	0.154
-208.450	-119.840	0.515	0.088
-207.436	-83.679	-0.431	0.136
-206.421	-51.784	-0.424	-0.196
-205.406	-75.110	0.388	0.137
-204.392	-11.138	0.302	0.197
-203.377	0.237	1.106	0.782
-202.363	-138.301	-0.668	0.073
-201.348	-146.481	-0.615	-0.053
-200.333	-36.701	-0.430	0.229
-199.319	-133.790	0.656	0.081
-198.304	800.000	0.267	0.830
-197.290	13.114	0.794	-0.609
-196.275	46.408	0.673	0.619
-195.260	552.806	-0.192	0.456
-194.246	-61.781	0.670	0.278
-193.231	28.428	-0.370	-0.310
-192.217	-6.342	0.781	-0.528
-191.202	800.000	0.103	0.296
-190.187	-56.744	0.754	-0.331
-189.173	-120.479	-0.581	0.098
-188.158	97.793	0.196	-0.223
-187.144	-138.771	-0.206	0.022
-186.129	-168.010	-0.822	0.032
-185.114	162.010	-0.271	0.376
-184.100	-106.968	1.200	0.263
-183.085	285.292	0.052	-0.092
-182.071	-200.000	0.025	0.560
-181.056	-33.513	-0.359	0.196
-180.042	393.247	-0.227	0.469
-179.027	43.774	0.283	-0.256
-178.012	-111.086	0.617	0.125
-176.998	-38.926	-0.411	0.214
-175.983	-87.449	-0.319	0.096
-174.969	-90.883	-0.438	-0.125
-173.954	800.000	0.256	-0.741
-172.939	-9.674	-0.560	0.370
-171.925	541.103	-0.360	-0.848
-170.910	93.519	-0.585	-0.656
-169.896	-200.000	-0.037	-0.522
-168.881	800.000	0.016	-0.065
-167.866	21.833	-0.167	-0.135
-166.852	-116.545	-0.646	-0.118
-165.837	-15.150	-0.157	0.099
-164.823	-158.352	0.235	-0.014
-163.808	-16.012	0.314	-0.198
-162.793	-200.000	-0.139	-1.144
-161.779	800.000	-0.232	0.911
-160.764	-129.520	-0.460	-0.063
-159.750	-61.643	0.451	-0.187
-158.735	-6.353	-0.152	-0.103
-157.720	72.992	-0.499	0.516
-156.706	233.030	-0.660	1.073
-155.691	800.000	0.256	-0.800
-154.677	-200.000	0.074	-0.409
-153.662	180.896	-0.196	-0.285
-152.647	31.221	0.224	-0.190
-151.633	800.000	0.123	0.413
-150.618	5.979	0.185	-0.135
-149.604	-38.690	0.231	-0.121
-148.589	-100.284	-0.457	0.112
-147.574	-5.674	1.082	-0.733
-146.560	-200.000	-0.083	-0.436
-145.545	11.062	-0.368	0.278
-144.531	-199.832	0.832	0.004
-143.516	90.072	-0.239	0.265
-142.502	-53.892	-0.571	0.257
-141.487	556.713	-0.317	0.755
-140.472	674.104	-0.115	0.294
-139.458	-36.930	0.128	0.068
-138.443	184.019	0.176	-0.258
-137.429	-158.221	-0.309	-0.018
-136.414	-200.000	-0.098	-0.443
-135.399	44.338	-0.157	-0.142
-134.385	136.908	0.310	0.401
-133.370	46.968	0.379	0.349
-132.356	-200.000	-0.067	-0.372
-131.341	273.647	0.409	0.714
-130.326	800.000	-0.162	-0.444
-129.312	712.548	0.282	0.737
-128.297	127.626	0.108	0.136
-127.283	-200.000	0.019	0.290
-126.268	-20.397	0.785	0.477
-125.253	44.329	-0.250	0.227
-124.239	800.000	0.267	0.757
-123.224	186.396	-0.169	0.249
-122.210	800.000	-0.103	-0.329
-121.195	-94.899	-0.737	0.197
-120.180	-70.745	-0.405	-0.151
-119.166	10.955	0.348	0.263
-118.151	-134.209	0.103	0.012
-117.137	-200.000	0.108	-0.562
-116.122	518.229	-0.182	0.420
-115.107	316.450	0.142	-0.265
-114.093	-200.000	-0.008	-0.383
-113.078	140.399	0.401	0.523
-112.064	-200.000	0.058	0.538
-111.049	350.819	-0.278	0.544
-110.034	-49.240	0.757	0.357
-109.020	416.077	0.157	0.330
-108.005	46.425	-0.162	0.148
-106.991	228.714	0.130	-0.209
-105.976	134.859	-0.810	-1.038
-104.962	212.356	-0.191	0.298
-103.947	-48.633	0.070	-0.033
-102.932	-200.000	-0.054	-0.866
-101.918	8.566	-0.553	0.411
-100.903	-21.042	0.441	0.266
-99.889	-200.000	-0.057	0.430
-98.874	421.989	-0.316	0.669
-97.859	-26.704	0.462	0.267
-96.845	800.000	-0.210	0.613
-95.830	-72.962	0.556	-0.202
-94.816	-71.830	0.215	0.079
-93.801	-200.000	-0.162	1.115
-92.786	-200.000	-0.055	0.535
-91.772	127.897	-0.393	0.493
-90.757	-73.515	0.233	-0.084
-89.743	800.000	-0.248	-0.695
-88.728	269.556	0.133	-0.230
-87.713	-98.529	0.675	0.170
-86.699	-43.082	-0.458	0.229
-85.684	440.240	0.152	-0.329
-84.670	-70.690	-0.465	0.173
-83.655	-41.526	0.475	0.241
-82.640	11.798	-0.359	0.272
-81.626	-65.213	0.429	0.170
-80.611	57.168	0.647	0.623
-79.597	225.964	-0.213	0.341
-78.582	188.622	0.062	-0.092
-77.567	-71.873	-0.332	0.122
-76.553	306.076	0.277	-0.509
-75.538	543.313	-0.025	0.059
-74.524	783.930	-0.116	0.313
-73.509	800.000	0.182	0.646
-72.494	-26.412	0.801	0.463
-71.480	134.546	-0.559	-0.716
-70.465	-200.000	-0.134	-0.622
-69.451	-116.037	0.596	-0.109
-68.436	800.000	-0.150	0.558
-67.422	-28.016	0.514	-0.293
-66.407	356.225	0.452	-0.887
-65.392	-200.000	-0.141	0.662
-64.378	17.364	0.201	0.157
-63.363	-200.000	-0.005	0.133
-62.349	-106.241	0.527	0.116
-61.334	-49.543	-1.609	-0.755
-60.319	-40.025	0.397	-0.204
-59.305	-200.000	-0.017	-1.154
-58.290	310.103	0.600	1.107
-57.276	216.210	0.808	1.266
-56.261	-200.000	94.987	569.013
-55.246	639.641	1369.453	3433.357
-54.232	198.940	2543.719	3839.078
-53.217	117.845	2154.670	2614.817
-52.203	44.064	1700.446	1536.065
-51.188	36.578	1513.130	1316.087
-50.173	34.342	1487.060	1278.380
-49.159	54.436	1538.856	1460.500
-48.144	55.411	1556.808	1484.142
-47.130	36.847	1515.608	1319.868
-46.115	33.612	1500.574	1284.853
-45.100	33.754	1495.685	1281.575
-44.086	33.439	1495.992	1279.656
-43.071	33.499	1493.029	1277.474
-42.057	33.379	1491.634	1275.422
-41.042	33.733	1489.351	1275.800
-40.027	33.406	1488.911	1273.179
-39.013	33.328	1488.016	1271.836
-37.998	33.305	1485.468	1269.451
-36.984	33.555	1486.588	1272.036
-35.969	33.397	1484.946	1269.522
-34.954	33.325	1482.965	1267.295
-33.940	33.447	1481.131	1266.493
-32.925	33.659	1479.065	1266.095
-31.911	33.424	1478.489	1263.983
-30.896	33.529	1477.359	1263.668
-29.881	33.501	1475.275	1261.650
-28.867	33.562	1474.260	1261.135
-27.852	33.780	1472.518	1261.041
-26.838	33.566	1471.126	1258.380
-25.823	33.654	1469.856	1257.830
-24.809	33.594	1467.552	1255.411
-23.794	33.496	1466.057	1253.435
-22.779	33.249	1465.958	1251.661
-21.765	33.555	1464.434	1252.338
-20.750	33.439	1463.332	1250.579
-19.736	33.595	1462.538	1250.879
-18.721	33.292	1462.176	1248.520
-17.706	33.408	1460.919	1248.159
-16.692	33.462	1459.028	1246.852
-15.677	33.260	1459.488	1245.867
-14.663	33.405	1457.928	1245.438
-13.648	33.283	1456.634	1243.479
-12.633	33.455	1455.510	1243.601
-11.619	33.321	1454.716	1241.998
-10.604	33.334	1453.606	1241.086
-9.590	33.273	1453.678	1240.694
-8.575	33.252	1451.911	1239.003
-7.560	33.376	1451.550	1239.457
-6.546	33.525	1450.208	1239.238
-5.531	33.495	1449.821	1238.660
-4.517	33.308	1448.814	1236.530
-3.502	33.168	1448.488	1235.286
-2.487	33.297	1447.602	1235.321
-1.473	33.494	1445.977	1235.169
-0.458	33.256	1444.104	1231.975
0.556	34.109	1435.679	1220.605
1.571	31.330	1409.212	1180.465
2.586	27.505	1349.749	1107.354
3.600	25.717	1269.299	1031.030
4.615	24.180	1223.878	985.552
5.629	20.927	1166.396	922.000
6.644	11.803	1080.527	809.129
7.659	4.378	1040.955	743.949
8.673	3.366	1034.057	734.134
9.688	2.808	1031.720	729.755
10.702	2.595	1029.740	727.283
11.717	2.873	1027.843	727.193
12.731	6.113	1030.905	744.664
13.746	15.567	1044.439	799.568
14.761	23.340	1054.636	844.513
15.775	25.119	1057.257	855.029
16.790	25.711	1055.879	856.656
17.804	25.896	1055.002	856.750
18.819	25.834	1053.467	855.132
19.834	25.570	1053.920	854.172
20.848	25.704	1053.062	854.034
21.863	25.879	1052.557	854.379
22.877	26.065	1051.980	854.717
23.892	25.737	1052.092	853.182
24.907	25.545	1052.127	852.222
25.921	25.659	1050.128	851.070
26.936	25.563	1049.547	850.069
27.950	25.610	1048.819	849.625
28.965	25.213	1048.508	847.423
29.980	25.456	1046.270	846.686
30.994	25.491	1045.276	845.971
32.009	26.041	1042.790	846.466
33.023	25.718	1043.678	845.591
34.038	25.693	1043.042	844.883
35.053	25.675	1041.821	843.736
36.067	25.640	1041.187	842.984
37.082	25.965	1040.115	843.563
38.096	25.618	1040.114	841.866
39.111	25.958	1039.169	842.613
40.126	25.982	1038.544	842.147
41.140	25.965	1036.522	840.349
42.155	25.267	1036.124	836.702
43.169	25.545	1034.097	836.285
44.184	25.311	1033.040	834.269
45.199	25.331	1033.752	834.862
46.213	25.384	1031.764	833.428
47.228	25.182	1031.706	832.369
48.242	25.609	1030.216	833.074
49.257	25.644	1029.802	832.826
50.271	25.726	1029.262	832.697
51.286	25.713	1029.033	832.377
52.301	25.734	1027.635	831.267
53.315	25.768	1027.248	831.042
54.330	25.965	1026.030	830.887
55.344	25.824	1025.930	830.085
56.359	25.686	1024.441	828.171
57.374	25.906	1024.085	828.823
58.388	25.575	1023.702	826.916
59.403	25.491	1022.512	825.496
60.417	25.792	1021.625	826.087
61.432	25.519	1021.396	824.579
62.447	25.568	1020.695	824.163
63.461	25.541	1019.584	823.070
64.476	25.502	1018.996	822.343
65.490	25.289	1019.296	821.538
66.505	25.258	1017.814	820.129
67.520	25.422	1017.086	820.219
68.534	25.203	1016.725	818.856
69.549	25.644	1014.372	818.896
70.563	24.950	1014.228	815.549
71.578	25.119	1013.306	815.502
72.593	25.139	1011.885	814.380
73.607	25.038	1010.892	813.050
74.622	24.941	1010.426	812.163
75.636	25.038	1009.843	812.061
76.651	25.331	1009.158	812.768
77.666	25.014	1008.420	810.665
78.680	25.065	1007.954	810.448
79.695	25.306	1006.365	810.188
80.709	25.516	1006.148	810.888
81.724	25.524	1005.391	810.246
82.739	25.537	1004.526	809.535
83.753	25.565	1003.693	808.917
84.768	25.657	1003.300	808.940
85.782	25.518	1004.130	808.917
86.797	26.163	1001.825	809.882
87.812	26.369	1000.665	809.793
88.826	25.899	1000.236	807.272
89.841	25.923	999.821	806.971
90.855	26.248	999.254	807.895
91.870	26.153	997.701	806.145
92.884	25.877	998.232	805.267
93.899	26.236	996.356	805.283
94.914	26.089	995.305	803.712
95.928	26.293	994.549	803.934
96.943	25.861	994.428	801.843
97.957	25.850	992.410	800.101
98.972	25.929	992.172	800.186
99.987	25.822	990.745	798.492
101.001	25.557	990.721	797.228
102.016	25.902	990.321	798.362
103.030	26.047	989.130	797.974
104.045	25.865	987.622	795.879
105.060	25.632	987.666	794.819
106.074	25.549	986.711	793.613
107.089	25.944	985.398	794.225
108.103	26.151	984.909	794.672
109.118	26.065	983.695	793.244
110.133	25.570	983.740	791.034
111.147	25.313	983.267	789.454
112.162	25.294	981.435	787.832
113.176	25.337	980.064	786.849
114.191	25.327	979.846	786.562
115.206	25.373	978.518	785.625
116.220	25.338	978.134	785.094
117.235	25.112	976.715	782.901
118.249	25.341	976.257	783.464
119.264	25.426	975.661	783.285
120.279	25.075	974.563	780.808
121.293	25.066	973.275	779.666
122.308	25.327	973.205	780.677
123.322	25.389	972.200	780.070
124.337	25.139	972.379	779.060
125.352	25.157	970.993	777.958
126.366	24.729	969.202	774.599
127.381	24.899	966.852	773.388
128.395	25.373	966.687	775.234
129.410	25.671	966.792	776.534
130.424	25.758	965.797	776.044
131.439	25.713	965.483	775.526
132.454	25.475	965.024	774.065
133.468	25.873	963.458	774.451
134.483	25.612	962.840	772.766
135.497	25.683	962.908	773.057
136.512	26.295	961.330	774.343
137.527	26.292	960.797	773.836
138.541	25.986	960.802	772.457
139.556	25.611	960.214	770.313
140.570	26.131	958.677	771.234
141.585	26.030	958.151	770.310
142.600	26.217	956.969	770.092
143.614	25.929	956.685	768.566
144.629	25.819	955.878	767.382
145.643	26.211	955.653	768.802
146.658	26.017	954.578	767.045
147.673	25.970	952.663	765.238
148.687	26.030	952.030	764.917
149.702	26.061	950.809	764.000
150.716	26.112	949.710	763.265
151.731	25.694	949.361	761.148
152.746	25.991	948.068	761.298
153.760	26.193	946.934	761.173
154.775	26.230	947.211	761.483
155.789	26.020	945.748	759.356
156.804	26.175	945.688	759.894
157.819	26.093	943.921	758.060
158.833	26.250	942.911	757.842
159.848	26.081	942.696	756.895
160.862	26.219	942.487	757.238
161.877	26.484	941.062	757.136
162.892	26.117	940.383	754.985
163.906	26.036	939.398	753.789
164.921	26.402	937.513	753.737
165.935	26.092	937.854	752.653
166.950	25.767	937.294	750.779
167.964	26.359	936.070	752.199
168.979	26.032	935.364	750.203
169.994	26.170	933.349	749.093
171.008	26.013	932.764	747.906
172.023	26.417	931.699	748.661
173.037	26.512	931.062	748.478
174.052	26.034	930.870	746.276
175.067	26.294	929.305	746.029
176.081	25.991	928.720	744.247
177.096	25.978	928.335	743.817
178.110	25.991	927.543	743.170
179.125	26.092	926.255	742.488
180.140	25.472	925.798	739.507
181.154	25.630	924.981	739.437
182.169	26.004	923.822	739.979
183.183	26.075	924.465	740.722
184.198	26.172	923.816	740.532
185.213	26.084	923.046	739.490
186.227	26.392	921.005	739.048
187.242	26.378	921.463	739.291
188.256	26.473	920.402	738.766
189.271	26.311	920.072	737.772
190.286	26.617	919.802	738.739
191.300	26.292	918.702	736.466
192.315	25.306	917.914	731.751
193.329	24.931	916.610	729.121
194.344	24.594	914.674	726.150
195.359	25.479	914.367	729.431
196.373	25.839	915.528	731.758
197.388	26.009	916.084	732.827
198.402	26.423	914.350	733.056
199.417	26.867	912.688	733.451
200.432	26.456	912.771	731.791
201.446	26.177	913.104	730.864
202.461	25.890	912.178	728.900
203.475	26.219	911.264	729.434
204.490	25.971	910.372	727.654
205.504	24.521	908.548	720.288
206.519	24.838	908.931	721.807
207.534	25.890	908.432	725.585
208.548	25.848	908.806	725.650
209.563	26.067	907.928	725.767
210.577	26.229	906.620	725.306
211.592	26.119	905.547	723.943
212.607	26.490	905.438	725.277
213.621	26.613	905.687	725.907
214.636	26.774	904.591	725.608
215.650	26.435	904.992	724.508
216.665	26.683	903.466	724.214
217.680	26.586	903.504	723.793
218.694	26.445	902.845	722.640
219.709	26.061	902.961	721.132
220.723	25.792	901.474	718.806
221.738	26.184	900.764	719.740
222.753	26.464	899.449	719.739
223.767	26.049	899.331	717.932
224.782	25.983	898.630	717.048
225.796	26.668	898.192	719.352
226.811	26.603	898.350	719.158
227.826	26.436	896.052	716.593
228.840	25.329	896.189	712.253
229.855	25.427	894.172	710.974
230.869	25.422	894.015	710.766
231.884	25.258	893.301	709.485
232.899	25.234	893.776	709.705
233.913	25.889	893.888	712.321
234.928	26.279	892.297	712.531
235.942	25.915	892.203	710.957
236.957	25.797	892.060	710.315
237.972	26.078	889.935	709.664
238.986	25.979	889.532	708.890
240.001	26.117	888.181	708.292
241.015	25.773	888.954	707.497
242.030	25.955	888.234	707.576
243.045	26.248	886.919	707.611
244.059	26.396	886.077	707.458
245.074	26.608	886.183	708.309
246.088	26.585	885.638	707.720
247.103	25.949	885.700	705.220
248.117	26.097	884.663	704.910
249.132	26.684	884.146	706.727
250.147	26.844	883.717	706.947
251.161	27.089	884.241	708.256
252.176	27.487	883.924	709.491
253.190	27.263	883.097	707.892
254.205	27.095	882.412	706.627
255.220	27.513	881.893	707.776
256.234	26.961	881.507	705.258
257.249	27.288	880.944	706.014
258.263	27.193	880.112	704.916
259.278	26.934	880.482	704.145
260.293	27.231	878.735	703.835
261.307	27.147	879.966	704.435
262.322	27.210	876.923	702.181
263.336	27.212	876.101	701.468
264.351	27.059	875.403	700.256
265.366	25.807	874.166	694.381
266.380	25.464	872.816	691.926
267.395	26.346	872.975	695.385
268.409	27.139	873.564	698.844
269.424	26.741	872.551	696.442
270.439	26.537	873.602	696.437
271.453	27.035	871.383	696.515
272.468	27.309	869.389	695.907
273.482	27.220	869.997	695.992
274.497	27.398	869.956	696.581
275.512	27.244	869.331	695.427
276.526	26.539	868.349	691.889
277.541	27.199	866.887	693.180
278.555	27.170	867.407	693.424
279.570	26.858	867.327	692.107
280.585	26.892	866.293	691.351
281.599	26.918	865.776	690.975
282.614	26.974	865.557	690.953
283.628	26.912	864.185	689.562
284.643	26.368	863.207	686.656
285.657	26.566	863.702	687.738
286.672	26.795	862.476	687.571
287.687	26.260	861.922	685.040
288.701	26.593	861.486	685.896
289.716	26.771	861.495	686.516
290.730	26.344	860.758	684.254
291.745	26.641	859.319	684.171
292.760	26.324	858.598	682.338
293.774	26.281	858.112	681.730
294.789	26.649	859.680	684.305
295.803	27.294	859.084	686.203
296.818	27.332	859.478	686.603
297.833	27.894	857.462	687.046
298.847	27.487	856.691	684.839
299.862	26.973	855.993	682.287
300.876	27.458	854.829	683.118
301.891	27.450	854.529	682.789
302.906	27.634	854.895	683.709
303.920	27.938	852.811	683.122
304.935	27.126	852.676	679.915
305.949	27.327	852.956	680.831
306.964	27.616	853.040	681.919
307.979	27.390	851.991	680.177
308.993	27.433	850.582	679.152
310.008	27.731	850.712	680.305
311.022	28.097	849.993	681.032
312.037	27.392	850.363	678.642
313.052	27.228	850.167	677.816
314.066	27.431	848.143	676.896
315.081	26.823	846.718	673.440
316.095	25.763	846.443	669.224
317.110	26.448	846.188	671.507
318.125	27.452	845.853	674.907
319.139	26.618	845.431	671.418
320.154	25.471	844.063	666.027
321.168	25.334	842.551	664.266
322.183	26.015	842.911	667.010
323.197	26.703	843.023	669.583
324.212	26.992	842.655	670.301
325.227	27.302	841.944	670.819
326.241	27.407	842.200	671.349
327.256	27.355	841.620	670.639
328.270	26.924	840.814	668.346
329.285	26.952	840.256	667.950
330.300	26.954	839.389	667.208
331.314	26.389	839.039	664.795
332.329	26.703	838.254	665.268
333.343	26.989	838.435	666.402
334.358	27.648	836.783	667.442
335.373	27.934	835.842	667.678
336.387	27.632	836.321	666.896
337.402	27.655	836.228	666.848
338.416	27.715	836.389	667.137
339.431	28.012	835.358	667.340
340.446	27.874	835.483	666.878
341.460	28.233	834.684	667.490
342.475	27.950	834.511	666.260
343.489	27.878	832.766	664.547
344.504	28.036	832.255	664.652
345.519	28.131	832.529	665.158
346.533	28.669	831.742	666.428
347.548	28.150	831.219	664.065
348.562	28.173	830.956	663.879
349.577	28.317	830.687	664.127
350.592	28.274	829.517	662.979
351.606	28.229	829.248	662.541
352.621	28.201	828.531	661.810
353.635	28.290	827.676	661.388
354.650	28.369	826.237	660.464
355.665	27.898	826.045	658.554
356.679	26.909	824.669	653.838
357.694	27.070	824.092	653.902
358.708	27.279	824.374	654.820
359.723	27.402	823.483	654.498
360.738	27.440	823.913	654.917
361.752	27.779	822.799	655.190
362.767	27.803	823.265	655.591
363.781	28.095	823.253	656.570
364.796	28.711	823.000	658.523
365.810	28.277	822.579	656.569
366.825	28.588	823.099	658.044
367.840	29.137	821.392	658.585
368.854	28.697	821.436	656.989
369.869	28.102	820.533	654.079
370.883	27.577	820.944	652.470
371.898	27.936	819.997	652.942
372.913	27.950	818.698	651.903
373.927	28.166	817.508	651.666
374.942	28.049	817.403	651.107
375.956	28.190	817.419	651.565
376.971	28.440	816.533	651.690
377.986	28.644	815.769	651.748
379.000	28.506	815.892	651.296
380.015	28.210	816.085	650.344
381.029	28.371	815.293	650.227
382.044	28.350	814.351	649.341
383.059	28.672	813.261	649.556
384.073	28.282	813.377	648.211
385.088	28.712	811.461	648.144
386.102	28.588	811.351	647.560
387.117	28.269	810.984	646.086
388.132	28.158	810.479	645.234
389.146	28.250	809.489	644.711
390.161	27.719	809.539	642.825
391.175	27.779	808.444	642.110
392.190	28.497	808.877	644.923
393.205	28.302	808.617	643.974
394.219	27.273	806.644	638.733
395.234	25.615	805.671	632.086
396.248	25.167	803.661	628.882
397.263	25.941	804.316	632.055
398.278	27.750	806.190	639.822
399.292	27.966	805.531	639.997
400.307	27.904	804.128	638.610
401.321	27.876	803.476	637.938
402.336	27.648	804.227	637.682
403.350	28.234	803.273	638.914
404.365	28.383	803.551	639.597
405.380	28.668	803.878	640.798
406.394	29.089	803.445	641.863
407.409	29.435	803.151	642.778
408.423	29.262	803.135	642.104
409.438	28.984	801.934	640.123
410.453	29.174	801.935	640.726
411.467	29.709	800.296	641.216
412.482	29.110	800.670	639.379
413.496	29.298	800.218	639.615
414.511	29.391	799.820	639.561
415.526	29.103	799.014	637.865
416.540	29.476	798.651	638.809
417.555	29.234	797.959	637.361
418.569	29.052	797.812	636.560
419.584	28.826	797.521	635.488
420.599	28.612	797.785	634.904
421.613	159.308	1370.648	1792.826
422.628	138.176	1454.096	1792.940
