DTS Sentinel unit serial number:	SN413079Multiplexer serial number:	ORYXHardware model number:	OX4-SRSoftware version number:	ORYX F/W v4.00 Oryx Data Collector v3.7.2.0data status	okinstallation	princeton_trtdifferential loss correction	single-endedforward channel	channel 3reverse channel	N/Adate	2019/09/13time	18:56:34forward acquisition time	60.00reverse acquisition time	0.00gamma	496.2192k internal	0.2321k external	0.2321temperature offset calibration	1.0101default loss term (dB/km)	0.3790temperature slope calibration	1.0000multiplexer offset coefficient	1.0000multiplexer slope coefficient	1.0000fibre end	0.00T internal ref (°C)	32.12T ext. ref 1 (°C)	3.98T ext. ref 2 (°C)	25.36length (m)	temperature (°C)	Stokes	anti-Stokes-747.200	-200.000	0.016	0.167
-746.185	-26.790	-0.256	-0.151
-745.171	-24.388	-0.214	-0.129
-744.156	-114.509	0.221	-0.043
-743.142	-45.682	0.209	0.105
-742.127	-141.176	-0.163	-0.017
-741.112	-75.144	-0.049	-0.018
-740.098	-52.136	-0.262	-0.123
-739.083	113.011	-0.171	0.209
-738.069	-108.197	-0.127	0.028
-737.054	-200.000	-0.035	-0.265
-736.039	31.233	-0.276	-0.239
-735.025	-62.559	0.247	0.104
-734.010	-27.725	-0.066	0.038
-732.996	693.205	-0.093	-0.247
-731.981	297.444	-0.130	0.241
-730.966	-72.955	-0.212	0.079
-729.952	-34.426	0.203	-0.112
-728.937	325.985	-0.110	-0.212
-727.923	-128.773	0.303	0.043
-726.908	116.001	0.305	0.378
-725.894	800.000	0.086	-0.269
-724.879	-200.000	0.002	0.119
-723.864	-48.687	0.219	-0.106
-722.850	176.258	-0.078	-0.114
-721.835	-200.000	-0.018	0.216
-720.821	-102.277	0.226	0.055
-719.806	800.000	-0.071	-0.239
-718.791	359.687	-0.110	-0.223
-717.777	-8.592	-0.158	-0.107
-716.762	-125.315	0.304	0.047
-715.748	139.145	-0.066	-0.087
-714.733	800.000	-0.034	-0.105
-713.718	742.701	0.041	-0.111
-712.704	562.979	0.009	-0.023
-711.689	-200.000	0.018	-0.185
-710.675	-2.339	0.092	0.065
-709.660	-200.000	0.014	-0.298
-708.645	-125.902	0.284	-0.043
-707.631	-200.000	-0.011	-0.176
-706.616	-80.720	-0.158	-0.053
-705.602	180.239	0.061	-0.091
-704.587	275.054	0.164	-0.293
-703.572	-18.608	0.077	-0.048
-702.558	39.249	-0.080	0.072
-701.543	144.236	-0.058	0.078
-700.529	-99.193	0.263	-0.067
-699.514	-178.946	-0.185	-0.004
-698.499	-163.794	0.046	0.002
-697.485	800.000	-0.009	0.030
-696.470	73.489	-0.066	0.070
-695.456	124.056	0.143	0.181
-694.441	-200.000	-0.014	-0.217
-693.426	-150.396	-0.188	0.015
-692.412	194.261	0.052	-0.080
-691.397	0.364	0.235	0.169
-690.383	-184.341	0.356	0.006
-689.368	-69.354	-0.416	0.161
-688.354	-102.274	-0.226	0.055
-687.339	-113.242	-0.191	0.038
-686.324	-184.039	-0.160	-0.003
-685.310	-200.000	0.003	-0.241
-684.295	85.953	-0.230	-0.255
-683.281	118.935	-0.273	-0.340
-682.266	611.846	-0.118	-0.298
-681.251	427.942	0.104	-0.227
-680.237	20.245	-0.144	-0.117
-679.222	800.000	-0.092	0.310
-678.208	639.872	-0.176	0.453
-677.193	-29.912	0.029	0.017
-676.178	-74.074	-0.209	-0.076
-675.164	102.193	-0.103	0.122
-674.149	187.719	-0.177	0.267
-673.135	-28.556	-0.138	-0.080
-672.120	-93.572	-0.116	-0.032
-671.105	238.196	-0.065	-0.109
-670.091	46.061	-0.079	-0.073
-669.076	-162.010	-0.092	-0.005
-668.062	104.231	-0.103	-0.123
-667.047	-54.109	0.284	0.130
-666.032	-31.642	0.250	0.141
-665.018	800.000	-0.094	-0.310
-664.003	-200.000	0.032	-0.215
-662.989	527.793	0.074	-0.176
-661.974	96.137	-0.113	-0.130
-660.959	-51.605	-0.402	-0.189
-659.945	-94.517	-0.114	-0.031
-658.930	800.000	-0.020	-0.075
-657.916	800.000	0.022	0.092
-656.901	-200.000	0.030	-0.228
-655.886	132.691	0.048	-0.062
-654.872	499.067	0.050	-0.117
-653.857	207.647	-0.182	0.286
-652.843	-125.649	0.252	-0.038
-651.828	22.420	0.169	-0.139
-650.814	-25.775	-0.289	0.171
-649.799	-200.000	-0.004	-0.421
-648.784	-31.916	-0.197	0.111
-647.770	-200.000	0.037	-0.226
-646.755	-55.590	0.059	0.027
-645.741	-28.098	0.066	0.039
-644.726	19.476	0.186	-0.150
-643.711	458.253	0.078	0.174
-642.697	464.244	-0.118	0.267
-641.682	-44.267	0.250	0.126
-640.668	-111.129	0.307	0.063
-639.653	-49.073	-0.296	0.142
-638.638	-200.000	0.045	0.205
-637.624	-137.848	0.389	0.044
-636.609	-111.310	0.121	0.025
-635.595	-174.232	0.146	0.004
-634.580	-200.000	-0.085	-0.403
-633.565	-84.080	0.052	-0.016
-632.551	-81.108	0.229	0.076
-631.536	-14.540	-0.114	-0.074
-630.522	-112.964	-0.134	-0.027
-629.507	800.000	-0.056	-0.241
-628.492	340.110	0.023	0.046
-627.478	530.641	0.101	-0.239
-626.463	409.732	0.055	-0.118
-625.449	242.846	-0.179	-0.301
-624.434	18.668	0.259	0.208
-623.419	344.733	-0.017	0.034
-622.405	-106.366	0.356	0.080
-621.390	-130.196	-0.192	0.026
-620.376	697.350	-0.111	0.294
-619.361	268.476	-0.159	-0.280
-618.346	-200.000	-0.019	-0.297
-617.332	92.722	-0.274	-0.311
-616.317	-36.275	0.170	0.092
-615.303	-111.550	0.034	-0.007
-614.288	283.676	0.184	0.332
-613.273	193.128	0.247	-0.375
-612.259	-200.000	0.044	-0.352
-611.244	-131.314	0.225	-0.030
-610.230	227.405	-0.276	-0.452
-609.215	-200.000	0.007	-0.148
-608.201	219.552	-0.182	0.293
-607.186	-1.089	-0.249	-0.177
-606.171	-200.000	0.006	-0.155
-605.157	106.297	-0.378	-0.450
-604.142	-184.822	0.357	-0.006
-603.128	326.975	-0.026	0.050
-602.113	-6.748	-0.075	-0.051
-601.098	-8.510	-0.310	0.209
-600.084	273.638	-0.053	0.095
-599.069	19.703	0.055	0.044
-598.055	479.794	-0.100	-0.227
-597.040	-200.000	0.004	-0.059
-596.025	-75.389	-0.357	0.128
-595.011	682.681	-0.077	0.202
-593.996	-200.000	-0.007	0.095
-592.982	93.968	-0.148	-0.169
-591.967	-112.218	0.152	-0.031
-590.952	800.000	0.032	0.134
-589.938	-31.329	-0.262	0.148
-588.923	80.249	-0.131	-0.142
-587.909	-10.065	-0.254	0.170
-586.894	-113.412	0.318	0.063
-585.879	-200.000	-0.086	-0.467
-584.865	800.000	-0.044	0.159
-583.850	-200.000	0.009	0.200
-582.836	-48.505	0.166	0.080
-581.821	23.095	-0.123	0.102
-580.806	-30.477	0.176	0.100
-579.792	-182.772	-0.274	-0.005
-578.777	-76.590	0.323	-0.114
-577.763	800.000	-0.047	-0.168
-576.748	158.807	-0.106	0.148
-575.733	152.808	0.120	-0.165
-574.719	-200.000	0.010	-0.282
-573.704	-80.790	0.157	-0.052
-572.690	781.866	-0.011	-0.030
-571.675	28.104	0.333	0.282
-570.661	203.331	0.081	0.126
-569.646	-200.000	-0.056	0.297
-568.631	346.211	-0.090	0.178
-567.617	-26.060	0.201	-0.119
-566.602	27.665	-0.039	-0.033
-565.588	800.000	0.088	-0.257
-564.573	147.451	0.113	-0.152
-563.558	2.702	0.160	0.116
-562.544	29.095	-0.124	0.105
-561.529	-29.958	0.318	0.181
-560.515	800.000	0.068	0.201
-559.500	800.000	0.102	-0.291
-558.485	162.404	-0.061	-0.085
-557.471	-83.231	0.215	-0.069
-556.456	-105.478	0.336	0.076
-555.442	-122.129	-0.275	0.045
-554.427	800.000	0.097	-0.285
-553.412	-200.000	-0.049	-0.383
-552.398	-200.000	0.009	0.124
-551.383	154.650	0.200	0.275
-550.369	-20.285	-0.090	0.056
-549.354	26.982	-0.089	0.075
-548.339	800.000	0.080	0.235
-547.325	518.415	0.028	-0.066
-546.310	-171.567	0.057	0.002
-545.296	-115.489	0.205	-0.039
-544.281	-28.914	-0.190	-0.109
-543.266	800.000	0.031	0.129
-542.252	9.950	-0.189	-0.144
-541.237	-109.107	-0.202	0.043
-540.223	177.520	-0.189	-0.276
-539.208	230.447	-0.117	-0.192
-538.193	39.068	-0.264	-0.237
-537.179	-154.313	0.054	0.004
-536.164	-105.324	0.302	-0.069
-535.150	-200.000	0.016	-0.135
-534.135	800.000	0.089	0.273
-533.121	-193.962	0.418	0.003
-532.106	-54.664	0.139	0.063
-531.091	-96.621	-0.182	-0.048
-530.077	104.760	-0.139	-0.164
-529.062	37.812	-0.192	0.171
-528.048	800.000	-0.057	0.241
-527.033	800.000	0.068	-0.253
-526.018	117.811	-0.227	-0.280
-525.004	540.887	0.124	0.296
-523.989	170.714	-0.134	0.193
-522.975	83.947	0.171	0.187
-521.960	-58.385	-0.171	0.074
-520.945	-199.931	-0.341	-0.002
-519.931	387.366	-0.086	0.178
-518.916	-5.614	0.132	-0.091
-517.902	429.295	0.073	-0.159
-516.887	267.099	-0.100	0.175
-515.872	800.000	-0.044	-0.142
-514.858	-40.476	-0.244	-0.127
-513.843	800.000	-0.083	0.287
-512.829	800.000	0.092	0.267
-511.814	-95.205	0.098	-0.027
-510.799	26.056	0.209	-0.175
-509.785	-47.916	0.066	0.032
-508.770	227.463	0.042	-0.068
-507.756	-162.444	-0.164	0.008
-506.741	526.116	0.054	-0.128
-505.726	-137.393	0.311	0.035
-504.712	375.473	-0.097	0.198
-503.697	586.255	0.113	0.278
-502.683	-161.031	0.355	-0.019
-501.668	158.034	-0.176	0.245
-500.653	800.000	-0.066	-0.263
-499.639	112.504	0.158	0.191
-498.624	-167.831	-0.235	-0.009
-497.610	-103.570	-0.255	0.060
-496.595	-41.879	-0.030	0.015
-495.581	-136.195	-0.250	-0.029
-494.566	800.000	0.068	-0.211
-493.551	133.957	0.133	-0.173
-492.537	126.237	0.205	-0.259
-491.522	304.792	0.025	-0.047
-490.508	-133.808	0.205	0.026
-489.493	-172.171	-0.160	0.005
-488.478	-56.572	-0.302	-0.134
-487.464	-183.939	0.108	-0.002
-486.449	248.497	0.197	-0.333
-485.435	800.000	0.094	0.323
-484.420	-21.345	-0.197	0.120
-483.405	-28.810	-0.317	0.183
-482.391	-7.106	-0.081	0.055
-481.376	-105.604	-0.118	0.027
-480.362	328.922	-0.046	-0.088
-479.347	-64.228	-0.173	0.070
-478.332	800.000	0.039	-0.133
-477.318	-200.000	-0.116	-0.000
-476.303	46.920	-0.081	0.075
-475.289	765.537	-0.053	0.144
-474.274	19.805	-0.217	-0.174
-473.259	-166.795	0.281	-0.012
-472.245	65.763	0.115	-0.117
-471.230	-94.579	-0.173	-0.047
-470.216	-87.448	-0.063	0.019
-469.201	189.835	-0.063	0.094
-468.186	-66.745	-0.350	0.138
-467.172	590.515	0.046	0.113
-466.157	228.784	-0.115	0.187
-465.143	-200.000	-0.028	0.295
-464.128	9.387	-0.280	0.212
-463.113	35.124	-0.053	0.046
-462.099	-94.842	0.397	0.108
-461.084	-118.152	0.071	0.013
-460.070	-20.202	-0.226	0.139
-459.055	247.543	-0.089	0.149
-458.040	-100.950	-0.111	-0.027
-457.026	28.501	0.264	-0.223
-456.011	800.000	-0.053	-0.211
-454.997	-200.000	0.037	0.302
-453.982	290.397	-0.066	-0.119
-452.968	145.630	-0.120	0.161
-451.953	613.009	0.006	0.014
-450.938	-48.924	-0.169	-0.081
-449.924	-4.778	-0.343	0.237
-448.909	414.522	0.092	0.195
-447.895	-200.000	-0.066	0.311
-446.880	575.436	-0.081	0.198
-445.865	67.935	-0.121	0.124
-444.851	573.258	0.118	0.287
-443.836	-72.970	-0.253	-0.093
-442.822	0.148	0.052	0.037
-441.807	29.369	0.361	-0.306
-440.792	-82.282	-0.237	0.077
-439.778	-200.000	0.009	0.164
-438.763	-119.105	-0.161	-0.028
-437.749	-72.097	0.226	0.084
-436.734	-102.028	-0.349	-0.084
-435.719	-37.857	0.059	-0.032
-434.705	462.401	-0.064	0.143
-433.690	-69.036	0.048	-0.019
-432.676	249.268	-0.150	0.254
-431.661	800.000	-0.068	0.205
-430.646	-28.297	0.432	0.249
-429.632	-200.000	0.011	0.167
-428.617	196.739	-0.055	-0.084
-427.603	34.289	-0.114	0.099
-426.588	800.000	-0.086	0.257
-425.573	6.670	-0.285	-0.212
-424.559	800.000	-0.035	0.128
-423.544	104.389	0.167	0.197
-422.530	-200.000	-0.076	0.360
-421.515	308.408	-0.091	0.169
-420.500	-26.534	0.205	-0.120
-419.486	8.482	0.220	-0.165
-418.471	233.380	0.069	0.114
-417.457	523.080	-0.072	-0.169
-416.442	-200.000	0.061	-0.290
-415.428	99.918	-0.087	0.101
-414.413	154.492	0.145	0.198
-413.398	173.924	-0.103	0.148
-412.384	-84.772	0.316	-0.099
-411.369	-200.000	0.009	-0.062
-410.355	-200.000	0.014	0.163
-409.340	-85.221	0.130	0.040
-408.325	156.078	-0.124	0.171
-407.311	110.639	0.036	-0.043
-406.296	-82.993	-0.364	-0.117
-405.282	21.498	0.171	-0.139
-404.267	586.033	-0.070	-0.172
-403.252	800.000	0.014	0.043
-402.238	203.437	-0.108	-0.167
-401.223	473.590	-0.059	-0.133
-400.209	280.117	0.120	-0.214
-399.194	126.901	-0.257	0.325
-398.179	-200.000	0.027	-0.217
-397.165	-200.000	0.022	0.288
-396.150	-200.000	-0.016	-0.117
-395.136	-200.000	-0.016	0.202
-394.121	35.408	0.312	-0.273
-393.106	-200.000	-0.024	0.225
-392.092	-5.286	0.372	0.255
-391.077	800.000	-0.061	0.169
-390.063	219.729	-0.184	-0.294
-389.048	605.421	-0.114	-0.284
-388.033	-85.166	0.198	-0.062
-387.019	44.492	-0.044	-0.041
-386.004	23.385	0.210	-0.172
-384.990	-7.217	-0.290	-0.196
-383.975	-200.000	-0.005	0.229
-382.960	-54.030	-0.170	0.077
-381.946	42.847	0.237	0.216
-380.931	800.000	0.054	0.164
-379.917	-144.576	0.124	0.011
-378.902	559.479	-0.082	-0.198
-377.888	-81.645	-0.123	0.040
-376.873	-13.501	-0.228	-0.147
-375.858	-200.000	-0.014	0.073
-374.844	465.249	0.164	0.366
-373.829	115.811	0.047	-0.057
-372.815	148.512	0.049	0.065
-371.800	-36.508	-0.028	-0.015
-370.785	800.000	-0.051	-0.147
-369.771	76.806	-0.117	0.124
-368.756	56.128	0.280	-0.271
-367.742	-200.000	-0.176	0.000
-366.727	-134.951	0.132	-0.016
-365.712	269.623	0.089	-0.156
-364.698	689.913	0.034	0.089
-363.683	-200.000	0.022	0.257
-362.669	-103.865	0.285	-0.066
-361.654	-117.798	0.207	-0.037
-360.639	800.000	-0.055	-0.186
-359.625	-57.393	-0.015	-0.006
-358.610	-99.547	0.160	0.040
-357.596	-46.128	-0.449	0.220
-356.581	-200.000	0.051	-0.281
-355.566	-106.952	-0.181	-0.040
-354.552	-181.287	0.155	0.003
-353.537	-108.326	-0.213	-0.046
-352.523	9.236	0.281	0.212
-351.508	69.647	-0.166	-0.170
-350.493	-200.000	0.036	0.187
-349.479	-18.395	-0.208	0.129
-348.464	-7.343	-0.166	0.112
-347.450	-147.262	0.158	-0.013
-346.435	-200.000	-0.018	0.155
-345.420	-52.125	-0.204	0.094
-344.406	13.513	0.213	-0.164
-343.391	128.659	-0.216	-0.273
-342.377	541.409	-0.073	-0.174
-341.362	800.000	0.076	-0.227
-340.348	56.834	-0.168	0.163
-339.333	-79.560	-0.107	0.036
-338.318	149.743	-0.129	0.173
-337.304	-42.334	-0.227	0.115
-336.289	-82.873	-0.232	0.075
-335.275	33.809	0.392	-0.339
-334.260	800.000	-0.111	-0.337
-333.245	-97.714	-0.208	0.053
-332.231	-200.000	0.034	-0.223
-331.216	181.612	0.169	-0.247
-330.202	28.046	0.207	-0.173
-329.187	240.842	0.088	0.145
-328.172	645.133	-0.037	-0.094
-327.158	-200.000	0.013	0.335
-326.143	-27.258	0.158	-0.092
-325.129	316.433	0.190	-0.357
-324.114	-136.952	0.210	0.024
-323.099	287.594	-0.119	0.214
-322.085	-97.093	-0.190	-0.049
-321.070	140.412	-0.127	-0.166
-320.056	-200.000	0.005	0.099
-319.041	4.260	0.250	-0.182
-318.026	-200.000	0.004	-0.116
-317.012	41.219	-0.178	0.160
-315.997	748.558	0.094	-0.253
-314.983	-0.702	-0.226	-0.159
-313.968	72.703	-0.267	-0.277
-312.953	-93.797	0.298	0.082
-311.939	610.709	-0.054	-0.133
-310.924	219.284	0.131	0.209
-309.910	-200.000	-0.030	-0.194
-308.895	-200.000	0.022	0.262
-307.880	800.000	0.081	0.303
-306.866	-41.203	0.127	0.065
-305.851	-47.096	0.131	-0.064
-304.837	277.603	0.091	-0.162
-303.822	529.410	0.157	-0.369
-302.807	258.015	0.058	-0.100
-301.793	-4.759	0.314	-0.215
-300.778	169.996	0.030	-0.042
-299.764	119.280	0.145	0.179
-298.749	-200.000	0.006	0.133
-297.735	12.310	-0.102	-0.078
-296.720	559.513	-0.040	-0.097
-295.705	-200.000	-0.011	-0.281
-294.691	524.918	0.072	0.167
-293.676	-115.286	-0.225	-0.042
-292.662	421.455	-0.034	-0.072
-291.647	94.220	-0.121	-0.137
-290.632	290.934	0.034	0.061
-289.618	21.437	-0.064	0.052
-288.603	-100.507	-0.033	-0.008
-287.589	-134.224	0.150	-0.018
-286.574	-200.000	-0.010	0.071
-285.559	800.000	-0.022	-0.091
-284.545	33.911	0.274	-0.237
-283.530	-40.136	0.217	-0.112
-282.516	800.000	0.090	-0.328
-281.501	-51.239	0.173	0.080
-280.486	673.286	0.055	0.141
-279.472	190.077	0.083	0.123
-278.457	209.084	0.124	0.193
-277.443	-7.072	0.210	-0.142
-276.428	-200.000	0.051	0.291
-275.413	29.722	-0.082	-0.070
-274.399	59.086	0.024	-0.024
-273.384	92.861	-0.211	-0.237
-272.370	33.387	-0.211	-0.182
-271.355	22.935	0.171	-0.139
-270.340	26.385	0.177	-0.147
-269.326	341.437	0.125	-0.243
-268.311	-200.000	0.009	-0.177
-267.297	800.000	0.107	0.342
-266.282	-200.000	-0.019	-0.282
-265.267	-61.266	0.089	0.037
-264.253	800.000	0.019	-0.073
-263.238	-200.000	0.048	-0.373
-262.224	-178.095	0.210	-0.005
-261.209	800.000	0.019	0.070
-260.195	-0.948	-0.269	-0.189
-259.180	-200.000	-0.023	0.192
-258.165	-135.233	0.280	-0.033
-257.151	800.000	-0.044	-0.124
-256.136	-179.257	0.352	-0.008
-255.122	455.489	0.112	0.247
-254.107	-200.000	-0.026	0.223
-253.092	-95.742	0.114	0.030
-252.078	800.000	-0.068	0.274
-251.063	304.003	-0.108	-0.199
-250.049	206.466	0.195	-0.301
-249.034	-96.921	-0.205	-0.053
-248.019	184.652	0.194	-0.285
-247.005	45.234	0.044	0.040
-245.990	-14.366	0.373	-0.238
-244.976	-173.293	0.214	0.006
-243.961	800.000	0.009	0.032
-242.946	31.563	-0.089	-0.075
-241.932	102.591	-0.060	0.070
-240.917	69.324	0.154	0.157
-239.903	204.550	-0.034	-0.053
-238.888	-54.806	-0.346	0.155
-237.873	-85.731	-0.112	0.034
-236.859	-30.510	0.056	0.032
-235.844	-200.000	0.013	0.094
-234.830	-180.942	0.160	0.003
-233.815	-200.000	0.014	0.063
-232.800	-168.109	-0.217	-0.008
-231.786	-147.990	0.138	0.011
-230.771	-18.383	0.283	0.175
-229.757	-200.000	0.010	-0.077
-228.742	196.688	0.076	0.114
-227.727	-65.871	0.146	0.058
-226.713	351.591	-0.050	-0.098
-225.698	110.039	-0.144	-0.171
-224.684	-64.375	-0.333	0.134
-223.669	54.157	-0.315	-0.300
-222.655	140.861	-0.283	0.371
-221.640	-55.428	0.088	0.039
-220.625	-34.961	-0.318	0.172
-219.611	9.995	0.011	-0.008
-218.596	91.235	0.180	0.200
-217.582	-200.000	0.044	0.403
-216.567	800.000	-0.066	0.200
-215.552	246.989	-0.201	-0.335
-214.538	749.490	-0.048	-0.129
-213.523	181.926	-0.114	0.166
-212.509	115.307	-0.199	0.240
-211.494	23.965	0.048	0.039
-210.479	6.372	-0.133	-0.098
-209.465	523.671	-0.055	0.127
-208.450	-81.227	-0.145	-0.048
-207.436	-137.812	-0.172	-0.019
-206.421	94.079	-0.156	0.175
-205.406	-200.000	0.018	0.154
-204.392	246.699	0.093	0.155
-203.377	51.171	0.022	-0.020
-202.363	800.000	0.087	0.293
-201.348	24.815	0.026	0.021
-200.333	-95.916	0.266	0.070
-199.319	652.302	-0.229	-0.582
-198.304	-88.344	0.139	0.041
-197.290	800.000	0.091	0.309
-196.275	571.134	-0.112	0.270
-195.260	112.815	0.229	0.274
-194.246	-65.730	0.146	0.058
-193.231	-99.934	0.224	0.055
-192.217	419.906	-0.058	0.122
-191.202	-112.647	-0.241	-0.047
-190.187	-200.000	-0.007	0.055
-189.173	142.911	-0.186	0.244
-188.158	-200.000	0.015	0.214
-187.144	-82.994	0.179	0.057
-186.129	-33.156	0.109	0.060
-185.114	-115.620	0.381	0.071
-184.100	84.321	-0.369	-0.399
-183.085	-126.960	-0.342	-0.050
-182.071	211.829	-0.230	0.358
-181.056	21.723	0.135	-0.108
-180.042	310.105	-0.066	0.123
-179.027	-200.000	-0.046	-0.226
-178.012	-200.000	0.010	0.075
-176.998	59.145	0.122	0.119
-175.983	355.693	-0.141	-0.277
-174.969	-37.050	0.243	-0.129
-173.954	134.467	-0.302	-0.387
-172.939	66.112	0.132	0.132
-171.925	-87.909	0.208	-0.062
-170.910	-33.294	-0.194	0.106
-169.896	-87.860	-0.193	-0.057
-168.881	-8.834	0.351	-0.232
-167.866	235.810	-0.181	-0.296
-166.852	-126.077	-0.323	-0.048
-165.837	-200.000	-0.014	0.076
-164.823	-185.917	0.139	0.002
-163.808	203.881	-0.107	-0.163
-162.793	-41.432	-0.284	-0.145
-161.779	1.586	0.396	0.281
-160.764	754.150	0.033	0.087
-159.750	800.000	0.047	-0.167
-158.735	-127.653	-0.152	0.022
-157.720	-110.737	0.110	0.022
-156.706	-25.632	0.072	0.042
-155.691	-200.000	0.041	0.240
-154.677	49.013	-0.185	-0.172
-153.662	94.812	0.051	0.057
-152.647	-200.000	0.000	0.073
-151.633	-200.000	0.027	-0.210
-150.618	9.192	0.402	-0.300
-149.604	-124.391	-0.171	-0.026
-148.589	188.074	0.179	0.264
-147.574	-111.120	0.118	-0.024
-146.560	-104.040	-0.181	-0.042
-145.545	800.000	0.030	-0.118
-144.531	-64.603	0.215	-0.086
-143.516	-43.970	0.298	-0.148
-142.502	373.038	-0.100	-0.201
-141.487	18.802	0.234	0.185
-140.472	33.178	-0.165	-0.142
-139.458	13.680	0.210	-0.161
-138.443	-78.016	-0.235	-0.080
-137.429	-200.000	-0.024	0.209
-136.414	-32.257	-0.105	-0.058
-135.399	5.236	0.228	0.166
-134.385	-115.849	-0.361	-0.067
-133.370	-176.037	0.548	0.014
-132.356	800.000	0.070	0.240
-131.341	231.910	0.087	-0.140
-130.326	-200.000	-0.007	0.133
-129.312	-134.521	-0.362	0.044
-128.297	-72.102	0.269	-0.099
-127.283	26.119	0.107	-0.088
-126.268	-200.000	-0.009	0.185
-125.253	-104.074	0.286	0.066
-124.239	-200.000	0.010	-0.189
-123.224	800.000	0.050	-0.184
-122.210	217.709	0.081	-0.127
-121.195	800.000	0.060	0.258
-120.180	-13.827	-0.325	-0.207
-119.166	21.836	-0.344	0.276
-118.151	-200.000	0.012	-0.198
-117.137	77.070	-0.040	0.041
-116.122	-200.000	-0.005	-0.132
-115.107	-200.000	0.041	0.373
-114.093	-79.106	-0.187	-0.062
-113.078	800.000	-0.073	0.207
-112.064	60.069	0.335	-0.326
-111.049	0.917	-0.269	-0.190
-110.034	587.839	-0.052	-0.126
-109.020	-26.487	0.241	0.139
-108.005	-200.000	-0.028	0.258
-106.991	181.260	0.208	-0.302
-105.976	18.280	0.105	0.083
-104.962	-200.000	0.041	0.279
-103.947	-0.114	0.341	0.239
-102.932	-200.000	-0.015	-0.115
-101.918	-132.211	-0.220	0.028
-100.903	167.421	-0.156	0.218
-99.889	-12.475	0.330	0.213
-98.874	-200.000	0.055	0.301
-97.859	10.618	0.315	-0.237
-96.845	-98.202	0.044	-0.011
-95.830	741.745	-0.105	0.278
-94.816	-75.853	-0.147	-0.051
-93.801	-60.992	-0.476	0.198
-92.786	24.955	-0.089	-0.073
-91.772	-35.699	0.201	-0.108
-90.757	-200.000	0.014	0.225
-89.743	-200.000	0.066	-0.475
-88.728	-188.842	0.278	-0.003
-87.713	-23.241	0.064	-0.038
-86.699	-139.393	0.159	-0.017
-85.684	31.752	0.249	0.211
-84.670	-200.000	-0.024	0.208
-83.655	263.264	-0.199	-0.341
-82.640	23.526	-0.097	-0.079
-81.626	29.914	-0.140	-0.117
-80.611	-154.347	0.216	-0.014
-79.597	24.395	-0.128	0.104
-78.582	-132.189	-0.246	0.031
-77.567	-133.796	0.314	0.039
-76.553	-200.000	0.013	-0.219
-75.538	14.639	-0.214	-0.164
-74.524	658.599	-0.078	-0.197
-73.509	800.000	-0.050	0.152
-72.494	-200.000	-0.008	0.088
-71.480	225.295	0.108	-0.173
-70.465	800.000	0.116	-0.320
-69.451	-34.812	0.117	-0.063
-68.436	98.899	0.045	0.051
-67.422	-200.000	0.003	0.135
-66.407	-5.461	0.046	0.031
-65.392	30.763	-0.152	0.128
-64.378	45.587	-0.305	-0.277
-63.363	-171.840	0.310	-0.010
-62.349	800.000	0.032	0.096
-61.334	42.238	-0.862	-0.771
-60.319	125.562	0.438	0.544
-59.305	800.000	-0.248	-0.831
-58.290	598.888	0.477	1.164
-57.276	800.000	0.505	1.687
-56.261	-200.000	97.481	613.152
-55.246	638.103	1380.085	3450.722
-54.232	198.022	2555.686	3842.428
-53.217	120.595	2155.698	2634.681
-52.203	43.026	1701.661	1526.577
-51.188	35.390	1514.378	1306.759
-50.173	32.972	1487.802	1267.571
-49.159	52.543	1538.043	1444.376
-48.144	54.210	1555.537	1472.119
-47.130	35.526	1514.451	1307.535
-46.115	32.366	1500.479	1274.062
-45.100	32.225	1496.575	1269.747
-44.086	32.147	1494.907	1267.750
-43.071	32.102	1492.689	1265.520
-42.057	32.043	1491.633	1264.174
-41.042	32.109	1489.896	1263.094
-40.027	32.131	1488.283	1261.828
-39.013	32.162	1486.848	1260.768
-37.998	32.080	1486.120	1259.551
-36.984	32.065	1484.984	1258.434
-35.969	32.086	1483.413	1257.198
-34.954	32.216	1481.584	1256.469
-33.940	32.096	1480.464	1254.665
-32.925	32.186	1478.513	1253.562
-31.911	32.151	1477.595	1252.502
-30.896	32.226	1475.661	1251.310
-29.881	32.286	1474.711	1250.853
-28.867	32.222	1473.278	1249.161
-27.852	32.143	1472.394	1247.838
-26.838	32.187	1471.027	1246.921
-25.823	32.165	1469.757	1245.653
-24.809	32.230	1467.355	1243.996
-23.794	32.179	1466.442	1242.839
-22.779	32.192	1465.122	1241.757
-21.765	32.111	1464.229	1240.417
-20.750	32.112	1462.840	1239.191
-19.736	32.101	1461.940	1238.309
-18.721	32.074	1460.993	1237.283
-17.706	32.130	1459.331	1236.192
-16.692	32.131	1457.908	1234.942
-15.677	32.125	1457.083	1234.155
-14.663	32.080	1456.399	1233.231
-13.648	31.966	1455.717	1231.861
-12.633	32.097	1454.210	1231.396
-11.619	32.066	1453.747	1230.749
-10.604	32.104	1452.639	1230.010
-9.590	32.191	1451.661	1229.704
-8.575	32.115	1450.879	1228.495
-7.560	32.077	1450.422	1227.812
-6.546	32.086	1449.246	1226.824
-5.531	32.056	1448.248	1225.737
-4.517	31.992	1447.665	1224.776
-3.502	32.052	1446.179	1223.863
-2.487	32.098	1445.181	1223.268
-1.473	32.128	1444.173	1222.560
-0.458	32.081	1443.123	1221.319
0.556	33.040	1433.068	1208.629
1.571	29.130	1406.211	1161.267
2.586	24.760	1343.704	1083.154
3.600	22.582	1261.241	1004.197
4.615	20.946	1215.447	958.657
5.629	17.953	1159.827	898.976
6.644	10.568	1078.036	799.245
7.659	4.948	1039.004	743.491
8.673	4.005	1033.585	735.074
9.688	3.998	1030.658	732.892
10.702	3.889	1029.533	731.510
11.717	4.038	1027.301	730.565
12.731	5.873	1029.064	740.420
13.746	13.134	1038.855	781.881
14.761	19.602	1047.053	818.743
15.775	20.909	1048.090	825.677
16.790	20.395	1046.059	821.576
17.804	19.262	1043.898	814.455
18.819	18.483	1041.951	809.186
19.834	17.971	1041.216	806.130
20.848	17.975	1040.012	805.142
21.863	17.702	1040.045	803.812
22.877	17.517	1039.178	802.197
23.892	17.406	1037.773	800.520
24.907	17.164	1037.409	799.031
25.921	17.215	1036.508	798.505
26.936	17.350	1035.730	798.467
27.950	17.333	1034.823	797.619
28.965	17.223	1033.879	796.306
29.980	17.389	1032.245	795.752
30.994	17.592	1031.661	796.183
32.009	17.646	1031.001	795.853
33.023	17.690	1029.953	795.181
34.038	17.706	1029.259	794.646
35.053	17.564	1028.461	793.302
36.067	17.513	1027.250	792.060
37.082	17.495	1026.579	791.389
38.096	17.501	1025.634	790.618
39.111	17.558	1025.409	790.639
40.126	17.587	1024.613	790.091
41.140	17.502	1023.158	788.506
42.155	17.294	1022.002	786.579
43.169	17.160	1021.070	785.176
44.184	16.988	1020.193	783.635
45.199	17.088	1018.986	783.101
46.213	17.061	1018.203	782.304
47.228	17.136	1017.108	781.740
48.242	17.312	1016.218	781.795
49.257	17.507	1015.332	781.941
50.271	17.489	1014.658	781.272
51.286	17.479	1013.758	780.461
52.301	17.626	1012.989	780.473
53.315	17.586	1012.233	779.641
54.330	17.395	1011.458	778.103
55.344	17.189	1010.707	776.512
56.359	17.131	1009.790	775.475
57.374	17.102	1009.111	774.752
58.388	17.289	1008.156	774.805
59.403	17.038	1007.550	773.125
60.417	17.244	1006.167	772.934
61.432	16.981	1006.174	771.675
62.447	17.186	1005.164	771.760
63.461	17.003	1004.133	770.072
64.476	16.900	1003.614	769.137
65.490	16.954	1002.092	768.147
66.505	16.808	1001.765	767.167
67.520	17.002	1000.838	767.268
68.534	16.914	1000.266	766.363
69.549	17.025	999.161	765.952
70.563	17.087	998.393	765.575
71.578	16.927	997.815	764.343
72.593	16.733	996.859	762.668
73.607	16.804	996.037	762.290
74.622	16.681	995.042	760.908
75.636	16.686	994.412	760.385
76.651	16.865	993.715	760.586
77.666	16.777	992.455	759.160
78.680	16.898	992.103	759.365
79.695	16.769	992.151	758.756
80.709	16.928	990.941	758.477
81.724	16.995	990.324	758.235
82.739	17.064	989.360	757.737
83.753	17.215	988.781	757.901
84.768	17.327	988.427	758.064
85.782	17.532	987.847	758.465
86.797	17.685	987.217	758.594
87.812	17.755	986.408	758.219
88.826	17.416	985.505	755.952
89.841	17.480	984.523	755.413
90.855	17.494	983.618	754.717
91.870	17.476	983.465	754.453
92.884	17.555	982.650	754.107
93.899	17.777	981.446	754.098
94.914	17.601	980.718	752.695
95.928	17.788	980.229	753.081
96.943	17.843	979.254	752.507
97.957	17.614	978.491	750.846
98.972	17.526	977.930	749.960
99.987	17.489	977.228	749.193
101.001	17.630	976.449	749.149
102.016	17.599	975.550	748.257
103.030	17.640	974.429	747.512
104.045	17.652	973.495	746.783
105.060	17.693	972.719	746.298
106.074	17.666	971.474	745.159
107.089	17.364	970.705	743.184
108.103	17.190	969.554	741.477
109.118	16.950	968.961	739.913
110.133	17.079	967.905	739.603
111.147	17.040	967.040	738.708
112.162	17.059	966.386	738.223
113.176	16.955	965.571	737.085
114.191	17.292	964.220	737.452
115.206	17.267	963.526	736.744
116.220	17.169	963.406	736.163
117.235	17.141	962.615	735.374
118.249	17.224	961.195	734.582
119.264	17.123	960.743	733.735
120.279	17.093	959.740	732.775
121.293	16.977	959.137	731.750
122.308	17.010	958.245	731.147
123.322	16.773	957.035	729.138
124.337	16.948	956.075	729.096
125.352	16.816	955.006	727.649
126.366	16.805	954.005	726.772
127.381	16.779	952.937	725.784
128.395	16.896	951.880	725.414
129.410	16.820	951.181	724.494
130.424	16.829	950.496	723.945
131.439	16.966	949.322	723.572
132.454	17.080	948.790	723.589
133.468	17.255	947.936	723.619
134.483	17.220	947.507	723.078
135.497	17.160	946.712	722.154
136.512	17.209	946.127	721.853
137.527	17.114	945.532	720.932
138.541	17.245	944.837	720.891
139.556	17.175	943.897	719.817
140.570	17.107	943.386	719.072
141.585	17.415	942.187	719.397
142.600	17.478	942.021	719.473
143.614	17.525	941.492	719.202
144.629	17.669	940.419	718.930
145.643	17.695	940.032	718.678
146.658	17.653	939.049	717.688
147.673	17.527	937.870	716.192
148.687	17.374	937.019	714.838
149.702	17.240	936.065	713.483
150.716	17.199	935.333	712.691
151.731	17.177	934.409	711.832
152.746	17.138	933.851	711.181
153.760	17.233	933.482	711.234
154.775	17.154	932.676	710.227
155.789	17.487	931.206	710.432
156.804	17.351	931.338	709.903
157.819	17.523	930.306	709.771
158.833	17.418	929.874	708.941
159.848	17.541	929.437	709.056
160.862	17.763	928.573	709.260
161.877	17.696	927.967	708.457
162.892	17.500	926.708	706.618
163.906	17.349	925.692	705.154
164.921	17.225	924.885	703.965
165.935	17.325	923.508	703.268
166.950	17.333	922.721	702.639
167.964	17.426	921.922	702.352
168.979	17.475	920.830	701.659
169.994	17.324	919.793	700.187
171.008	17.347	919.314	699.854
172.023	17.469	918.074	699.350
173.037	17.494	918.124	699.427
174.052	17.706	916.976	699.362
175.067	17.635	916.596	698.720
176.081	17.570	914.765	696.994
177.096	17.262	914.394	695.390
178.110	17.069	914.049	694.278
179.125	17.374	913.103	694.744
180.140	17.358	912.381	694.069
181.154	17.457	911.609	693.822
182.169	17.471	911.373	693.639
183.183	17.646	910.979	693.992
184.198	17.697	910.252	693.583
185.213	17.659	909.625	692.890
186.227	17.683	908.805	692.299
187.242	17.704	908.282	691.925
188.256	17.985	907.004	692.031
189.271	17.927	906.911	691.662
190.286	17.875	906.293	690.920
191.300	17.737	905.124	689.410
192.315	17.415	903.976	687.175
193.329	17.137	903.543	685.660
194.344	17.148	903.060	685.279
195.359	17.216	902.772	685.273
196.373	17.602	901.533	685.828
197.388	17.617	901.406	685.729
198.402	17.814	901.358	686.423
199.417	17.684	901.047	685.606
200.432	18.054	900.486	686.603
201.446	18.066	900.027	686.243
202.461	18.224	899.662	686.538
203.475	18.150	899.608	686.138
204.490	18.244	898.120	685.317
205.504	17.998	897.707	683.959
206.519	17.871	896.566	682.519
207.534	17.790	895.536	681.352
208.548	17.807	895.019	680.966
209.563	17.849	894.341	680.558
210.577	17.883	893.898	680.296
211.592	17.800	893.454	679.567
212.607	17.993	893.137	680.037
213.621	18.196	892.697	680.445
214.636	18.148	891.484	679.272
215.650	17.930	891.038	678.004
216.665	18.135	890.240	678.151
217.680	18.052	890.197	677.731
218.694	18.261	889.663	678.092
219.709	18.079	889.420	677.126
220.723	18.121	888.711	676.692
221.738	18.147	887.835	676.067
222.753	18.154	886.888	675.312
223.767	18.239	886.234	675.092
224.782	18.259	885.597	674.627
225.796	18.410	885.117	674.796
226.811	18.346	884.422	673.954
227.826	18.306	883.707	673.192
228.840	18.254	882.936	672.342
229.855	18.172	882.115	671.334
230.869	18.176	881.762	671.021
231.884	18.154	881.028	670.320
232.899	18.159	880.683	670.015
233.913	18.057	879.366	668.558
234.928	17.953	878.854	667.701
235.942	17.937	878.428	667.257
236.957	17.927	877.416	666.390
237.972	17.978	876.753	666.024
238.986	17.926	876.305	665.425
240.001	17.821	875.947	664.684
241.015	17.985	874.982	664.532
242.030	18.026	874.348	664.150
243.045	18.216	873.439	664.139
244.059	18.359	873.005	664.304
245.074	18.217	872.753	663.504
246.088	18.259	872.436	663.364
247.103	18.428	871.995	663.628
248.117	18.376	871.421	662.928
249.132	18.538	870.477	662.779
250.147	18.771	870.199	663.410
251.161	18.909	869.512	663.360
252.176	18.931	869.639	663.481
253.190	18.926	868.551	662.574
254.205	19.153	868.145	663.081
255.220	19.153	867.067	662.199
256.234	19.111	866.502	661.545
257.249	19.019	866.138	660.858
258.263	19.083	865.573	660.612
259.278	18.984	865.095	659.808
260.293	19.092	864.640	659.817
261.307	19.214	863.876	659.644
262.322	19.162	863.696	659.249
263.336	19.152	862.815	658.479
264.351	19.182	862.180	658.051
265.366	19.202	861.665	657.677
266.380	19.135	861.017	656.867
267.395	19.177	860.492	656.571
268.409	19.169	859.653	655.841
269.424	18.974	858.634	654.266
270.439	19.044	858.076	654.048
271.453	18.960	857.325	653.098
272.468	19.090	856.285	652.742
273.482	18.880	856.157	651.790
274.497	18.945	855.946	651.816
275.512	18.989	854.703	650.979
276.526	19.003	854.025	650.458
277.541	18.974	853.745	650.080
278.555	19.008	853.371	649.863
279.570	19.065	853.053	649.779
280.585	19.326	852.559	650.332
281.599	19.360	851.324	649.460
282.614	19.292	850.551	648.558
283.628	19.092	850.301	647.557
284.643	18.973	849.754	646.634
285.657	19.114	849.060	646.579
286.672	18.951	849.043	645.897
287.687	19.101	848.201	645.760
288.701	19.116	847.494	645.222
289.716	19.105	847.512	645.139
290.730	19.213	846.250	644.525
291.745	19.189	845.985	644.174
292.760	19.320	844.929	643.804
293.774	19.265	844.698	643.366
294.789	19.369	844.217	643.331
295.803	19.454	843.809	643.278
296.818	19.308	843.018	642.074
297.833	19.256	842.107	641.132
298.847	19.158	841.554	640.290
299.862	19.250	840.945	640.112
300.876	19.251	840.401	639.642
301.891	19.398	839.723	639.617
302.906	19.466	839.241	639.446
303.920	19.597	838.126	639.022
304.935	19.815	837.860	639.570
305.949	19.630	837.554	638.595
306.964	19.707	836.904	638.330
307.979	19.543	836.328	637.227
308.993	19.579	835.564	636.721
310.008	19.692	835.182	636.792
311.022	19.726	834.740	636.524
312.037	19.666	834.247	635.872
313.052	19.625	833.233	634.890
314.066	19.372	832.718	633.512
315.081	19.390	831.854	632.864
316.095	19.362	831.562	632.485
317.110	19.410	830.818	632.038
318.125	19.486	830.220	631.805
319.139	19.356	830.197	631.256
320.154	19.319	829.507	630.539
321.168	19.609	828.552	630.819
322.183	19.503	828.240	630.138
323.197	19.438	828.072	629.716
324.212	19.573	827.203	629.493
325.227	19.537	826.939	629.105
326.241	19.448	826.487	628.382
327.256	19.506	825.666	627.914
328.270	19.369	825.159	626.972
329.285	19.448	824.725	626.873
330.300	19.502	824.142	626.571
331.314	19.459	823.448	625.832
332.329	19.457	822.917	625.366
333.343	19.617	822.161	625.318
334.358	19.750	822.043	625.652
335.373	19.773	821.757	625.464
336.387	19.864	820.997	625.159
337.402	19.714	820.588	624.251
338.416	19.840	819.854	624.091
339.431	19.958	819.693	624.338
340.446	19.950	818.980	623.712
341.460	20.185	818.660	624.256
342.475	20.228	818.037	623.881
343.489	20.243	817.692	623.618
344.504	20.090	817.382	622.778
345.519	20.259	816.640	622.762
346.533	20.488	815.616	622.749
347.548	20.283	815.903	622.178
348.562	20.110	815.116	620.900
349.577	20.064	814.258	620.029
350.592	19.946	813.602	619.054
351.606	19.777	813.267	618.139
352.621	19.757	812.778	617.642
353.635	19.887	811.766	617.281
354.650	19.940	811.588	617.280
355.665	19.935	811.472	617.118
356.679	20.034	811.011	617.067
357.694	20.145	810.546	617.055
358.708	20.226	810.070	616.923
359.723	20.073	809.258	615.710
360.738	20.161	808.593	615.459
361.752	20.098	808.399	615.033
362.767	20.294	807.991	615.366
363.781	20.217	808.387	615.339
364.796	20.391	807.565	615.276
365.810	20.559	806.959	615.352
366.825	20.560	806.549	614.990
367.840	20.790	806.506	615.715
368.854	20.586	805.711	614.333
369.869	20.394	805.455	613.406
370.883	20.392	804.829	612.869
371.898	20.471	803.958	612.430
372.913	20.473	803.563	612.082
373.927	20.560	803.007	611.910
374.942	20.592	802.245	611.389
375.956	20.567	801.344	610.558
376.971	20.630	800.887	610.377
377.986	20.738	800.727	610.582
379.000	20.774	800.391	610.397
380.015	20.711	799.769	609.648
381.029	20.812	799.533	609.768
382.044	20.686	799.194	609.012
383.059	20.700	798.301	608.327
384.073	20.850	797.750	608.379
385.088	20.771	797.316	607.719
386.102	20.710	796.570	606.884
387.117	20.570	795.824	605.774
388.132	20.304	795.511	604.557
389.146	20.432	794.836	604.434
390.161	20.415	794.705	604.221
391.175	20.713	794.151	604.784
392.190	20.777	794.080	604.897
393.205	20.572	793.900	603.995
394.219	20.527	793.025	603.121
395.234	20.595	792.406	602.832
396.248	20.513	791.906	602.114
397.263	20.364	791.460	601.207
398.278	20.365	790.511	600.436
399.292	20.467	790.250	600.535
400.307	20.227	790.191	599.609
401.321	20.245	789.895	599.394
402.336	20.386	789.408	599.457
403.350	20.615	788.855	599.776
404.365	20.480	788.781	599.199
405.380	20.772	788.154	599.677
406.394	20.810	787.906	599.566
407.409	20.739	787.707	599.117
408.423	21.083	786.846	599.589
409.438	21.205	786.414	599.626
410.453	21.062	786.074	598.825
411.467	21.234	785.649	599.036
412.482	21.129	785.241	598.313
413.496	21.290	784.932	598.577
414.511	21.385	784.475	598.498
415.526	21.263	784.328	597.918
416.540	21.201	783.762	597.222
417.555	21.229	782.953	596.648
418.569	21.173	782.604	596.138
419.584	21.176	781.965	595.610
420.599	21.311	781.294	595.505
421.613	161.075	1369.237	1795.048
422.628	139.222	1454.943	1795.162
