DTS Sentinel unit serial number:	SN413079Multiplexer serial number:	ORYXHardware model number:	OX4-SRSoftware version number:	ORYX F/W v4.00 Oryx Data Collector v3.7.2.0data status	okinstallation	princeton_trtdifferential loss correction	single-endedforward channel	channel 3reverse channel	N/Adate	2019/09/12time	04:26:10forward acquisition time	60.00reverse acquisition time	0.00gamma	496.2192k internal	0.2324k external	0.2324temperature offset calibration	1.0071default loss term (dB/km)	0.3790temperature slope calibration	1.0000multiplexer offset coefficient	1.0000multiplexer slope coefficient	1.0000fibre end	0.00T internal ref (°C)	31.69T ext. ref 1 (°C)	2.24T ext. ref 2 (°C)	25.89length (m)	temperature (°C)	Stokes	anti-Stokes-747.200	800.000	0.059	-0.192
-746.185	-200.000	-0.062	0.355
-745.171	70.482	-0.070	0.073
-744.156	-149.441	0.188	0.015
-743.142	186.899	-0.101	0.152
-742.127	-122.872	-0.474	0.077
-741.112	189.411	-0.014	0.021
-740.098	-136.518	-0.285	0.033
-739.083	-122.154	0.154	0.026
-738.069	-200.000	0.121	0.691
-737.054	-151.302	-0.252	0.019
-736.039	4.542	-0.226	0.167
-735.025	-127.531	-0.229	0.034
-734.010	-200.000	-0.005	-0.118
-732.996	263.863	-0.104	0.183
-731.981	533.612	0.059	-0.142
-730.966	725.025	-0.137	0.368
-729.952	149.773	0.223	-0.305
-728.937	48.742	-0.225	-0.213
-727.923	-68.583	0.119	-0.047
-726.908	150.607	-0.254	-0.347
-725.894	-200.000	-0.006	0.206
-724.879	144.564	-0.124	0.167
-723.864	-200.000	-0.079	-0.424
-722.850	144.330	-0.122	-0.164
-721.835	800.000	0.037	-0.153
-720.821	643.948	-0.168	-0.432
-719.806	-126.960	0.163	-0.024
-718.791	-90.121	-0.295	-0.087
-717.777	-138.479	0.188	0.021
-716.762	553.851	-0.092	-0.223
-715.748	60.505	0.095	-0.095
-714.733	-200.000	0.052	0.235
-713.718	84.450	-0.067	-0.074
-712.704	-28.772	-0.397	-0.230
-711.689	334.932	0.229	-0.447
-710.675	79.265	0.326	0.352
-709.660	57.794	0.199	0.196
-708.645	107.683	-0.091	-0.109
-707.631	800.000	0.032	0.136
-706.616	115.844	-0.108	-0.133
-705.602	42.637	-0.056	-0.052
-704.587	17.907	0.220	0.177
-703.572	51.966	0.199	-0.191
-702.558	-141.449	-0.199	0.020
-701.543	735.256	0.041	-0.111
-700.529	-200.000	0.015	-0.245
-699.514	-23.764	-0.233	-0.141
-698.499	582.415	0.071	-0.176
-697.485	57.325	0.240	0.236
-696.470	-200.000	-0.027	0.134
-695.456	-200.000	0.027	-0.136
-694.441	800.000	-0.106	-0.358
-693.426	-149.054	0.096	-0.008
-692.412	255.823	-0.042	-0.072
-691.397	800.000	0.044	-0.170
-690.383	398.433	0.127	0.268
-689.368	-21.156	0.201	0.124
-688.354	-126.986	-0.357	-0.053
-687.339	800.000	0.144	-0.414
-686.324	-200.000	-0.009	-0.193
-685.310	-76.454	0.281	-0.099
-684.295	214.166	0.136	-0.218
-683.281	-10.546	-0.261	0.174
-682.266	61.042	-0.142	0.142
-681.251	4.719	-0.107	-0.079
-680.237	465.861	0.033	0.074
-679.222	-13.621	-0.179	-0.117
-678.208	-92.743	-0.214	0.060
-677.193	510.537	-0.212	-0.496
-676.178	-0.733	0.235	-0.168
-675.164	-77.063	0.249	0.087
-674.149	800.000	-0.068	-0.248
-673.135	5.169	-0.294	-0.218
-672.120	-128.680	-0.407	0.058
-671.105	-93.941	0.143	-0.040
-670.091	434.542	0.099	-0.217
-669.076	125.870	0.058	-0.074
-668.062	-61.887	-0.657	-0.277
-667.047	91.031	0.163	0.184
-666.032	800.000	-0.048	0.163
-665.018	-21.574	-0.152	-0.093
-664.003	-139.203	-0.058	0.006
-662.989	-68.136	-0.181	-0.071
-661.974	297.815	-0.027	-0.050
-660.959	-153.049	-0.344	-0.024
-659.945	-79.286	-0.104	0.035
-658.930	-167.106	-0.053	0.002
-657.916	168.895	-0.195	0.280
-656.901	50.807	-0.226	0.215
-655.886	800.000	-0.020	0.057
-654.872	-11.313	0.181	0.120
-653.857	-2.117	-0.166	0.117
-652.843	-74.027	-0.147	-0.054
-651.828	259.751	-0.168	-0.291
-650.814	-58.450	0.153	0.067
-649.799	-200.000	-0.035	-0.304
-648.784	142.215	0.090	-0.120
-647.770	168.611	0.125	-0.179
-646.755	-188.458	-0.204	-0.003
-645.741	-98.188	-0.122	-0.032
-644.726	-146.716	0.116	-0.010
-643.711	-200.000	0.013	-0.144
-642.697	-45.252	0.172	-0.086
-641.682	-27.905	-0.371	0.216
-640.668	-200.000	0.018	0.398
-639.653	-48.953	0.225	0.109
-638.638	42.782	0.155	-0.142
-637.624	-183.502	-0.232	0.004
-636.609	-28.134	-0.186	-0.108
-635.595	-200.000	-0.018	-0.161
-634.580	-45.450	0.230	-0.115
-633.565	-200.000	0.021	-0.175
-632.551	14.088	-0.184	-0.144
-631.536	-132.122	-0.399	0.052
-630.522	-30.786	0.176	-0.100
-629.507	34.119	-0.092	0.081
-628.492	69.534	0.038	-0.040
-627.478	61.407	-0.261	-0.261
-626.463	281.235	-0.029	-0.053
-625.449	800.000	-0.046	-0.152
-624.434	-89.334	-0.218	0.064
-623.419	-143.589	0.060	-0.006
-622.405	800.000	-0.048	0.150
-621.390	-200.000	0.060	0.418
-620.376	289.349	-0.041	-0.074
-619.361	182.718	0.026	-0.039
-618.346	163.578	-0.088	-0.124
-617.332	-129.407	-0.226	-0.032
-616.317	-88.922	0.196	-0.058
-615.303	-113.772	-0.140	0.027
-614.288	-18.611	-0.140	-0.088
-613.273	-86.322	0.239	-0.074
-612.259	-136.445	0.047	0.005
-611.244	138.609	-0.206	0.271
-610.230	800.000	0.016	0.054
-609.215	-132.405	-0.102	0.013
-608.201	-19.305	0.020	0.012
-607.186	-92.153	-0.215	-0.061
-606.171	-120.035	0.061	-0.011
-605.157	-200.000	-0.023	0.147
-604.142	746.224	0.081	-0.220
-603.128	800.000	-0.094	-0.323
-602.113	800.000	0.086	-0.362
-601.098	-143.255	-0.317	-0.031
-600.084	-200.000	0.012	0.059
-599.069	-22.020	-0.293	-0.179
-598.055	201.372	-0.237	0.367
-597.040	202.755	-0.122	-0.190
-596.025	-104.271	-0.367	0.086
-595.011	87.017	0.173	0.192
-593.996	307.559	0.169	-0.316
-592.982	-200.000	-0.057	-0.323
-591.967	-138.750	-0.347	-0.038
-590.952	-87.281	0.127	0.039
-589.938	133.574	-0.340	0.441
-588.923	611.961	0.095	-0.238
-587.909	66.404	0.079	0.080
-586.894	110.607	0.175	0.211
-585.879	-200.000	-0.024	-0.268
-584.865	-129.312	-0.185	-0.026
-583.850	43.380	-0.385	0.353
-582.836	800.000	0.098	-0.307
-581.821	-200.000	-0.046	-0.459
-580.806	201.051	-0.100	-0.155
-579.792	-7.753	0.323	0.219
-578.777	88.732	-0.092	-0.102
-577.763	3.352	-0.408	-0.298
-576.748	-200.000	0.026	0.219
-575.733	-39.296	-0.261	0.137
-574.719	-200.000	0.008	0.220
-573.704	187.116	-0.037	0.055
-572.690	-55.358	0.189	0.085
-571.675	345.841	-0.076	-0.149
-570.661	-34.941	-0.402	-0.220
-569.646	-200.000	0.025	-0.186
-568.631	-121.322	0.118	-0.020
-567.617	-16.279	0.133	-0.085
-566.602	216.227	0.157	-0.250
-565.588	-200.000	0.054	-0.322
-564.573	800.000	0.034	-0.111
-563.558	80.216	-0.122	-0.132
-562.544	55.549	0.238	-0.231
-561.529	241.942	-0.070	0.117
-560.515	-200.000	-0.011	0.394
-559.500	-36.292	-0.192	0.104
-558.485	-117.570	-0.091	0.016
-557.471	-177.844	0.310	-0.007
-556.456	202.240	-0.027	-0.042
-555.442	182.599	0.168	-0.249
-554.427	-200.000	-0.082	0.410
-553.412	800.000	-0.009	0.032
-552.398	-55.409	0.076	0.034
-551.383	-114.276	0.573	0.111
-550.369	-200.000	-0.022	-0.217
-549.354	-200.000	-0.016	-0.184
-548.339	-151.298	0.086	0.006
-547.325	-200.000	-0.001	-0.147
-546.310	-104.511	-0.265	0.061
-545.296	63.370	-0.022	-0.022
-544.281	-200.000	0.001	-0.078
-543.266	-57.314	-0.046	0.020
-542.252	-200.000	0.019	-0.211
-541.237	445.213	-0.177	-0.390
-540.223	309.465	-0.065	-0.123
-539.208	43.615	-0.120	0.110
-538.193	-176.493	0.246	-0.006
-537.179	800.000	-0.050	-0.147
-536.164	606.289	-0.122	0.305
-535.150	-117.768	-0.508	0.091
-534.135	16.703	0.124	-0.098
-533.121	622.671	-0.037	-0.093
-532.106	81.838	-0.176	0.191
-531.091	618.558	-0.027	0.067
-530.077	-60.804	-0.418	-0.177
-529.062	-191.952	-0.270	0.003
-528.048	800.000	-0.018	0.056
-527.033	-200.000	-0.028	-0.379
-526.018	-4.873	0.227	-0.156
-525.004	388.946	-0.050	0.103
-523.989	419.526	0.093	0.200
-522.975	27.659	0.198	-0.166
-521.960	147.769	-0.231	-0.312
-520.945	-141.539	0.373	-0.038
-519.931	-145.902	0.161	0.014
-518.916	3.025	-0.227	-0.165
-517.902	800.000	0.099	-0.279
-516.887	-181.081	-0.314	-0.006
-515.872	800.000	-0.064	0.188
-514.858	-200.000	-0.061	0.305
-513.843	-200.000	-0.021	-0.162
-512.829	-67.376	-0.047	0.018
-511.814	126.358	-0.067	0.085
-510.799	-200.000	-0.002	-0.385
-509.785	-13.614	-0.127	-0.082
-508.770	-122.153	0.064	0.010
-507.756	-97.596	0.189	0.049
-506.741	104.768	0.241	-0.285
-505.726	-49.641	0.036	-0.017
-504.712	204.374	0.110	0.171
-503.697	800.000	0.088	0.359
-502.683	19.201	0.456	0.366
-501.668	93.512	-0.082	0.092
-500.653	-67.120	-0.074	0.029
-499.639	76.959	0.166	0.176
-498.624	41.241	-0.128	-0.116
-497.610	12.393	-0.236	-0.182
-496.595	15.460	-0.080	-0.063
-495.581	-122.958	0.315	-0.051
-494.566	394.663	-0.035	0.072
-493.551	800.000	0.091	-0.298
-492.537	800.000	-0.080	0.248
-491.522	179.706	0.163	-0.238
-490.508	-1.069	0.106	-0.075
-489.493	-172.260	0.032	-0.001
-488.478	-173.782	0.151	-0.004
-487.464	-61.870	-0.359	0.150
-486.449	26.979	0.091	-0.076
-485.435	0.462	0.167	-0.119
-484.420	-31.235	-0.067	0.038
-483.405	-108.430	-0.316	-0.068
-482.391	-200.000	0.026	0.116
-481.376	212.212	0.065	-0.103
-480.362	423.353	-0.094	-0.202
-479.347	-8.060	-0.201	-0.136
-478.332	800.000	0.031	0.091
-477.318	414.325	0.085	-0.180
-476.303	-128.997	0.291	-0.041
-475.289	279.671	-0.108	0.193
-474.274	800.000	-0.086	0.255
-473.259	60.796	0.094	0.093
-472.245	-170.392	0.133	-0.005
-471.230	-7.467	0.234	0.158
-470.216	-87.068	-0.217	0.066
-469.201	-87.753	-0.221	-0.066
-468.186	97.876	0.171	0.196
-467.172	-83.359	0.218	-0.070
-466.157	236.429	0.105	-0.173
-465.143	287.692	0.100	0.181
-464.128	-200.000	-0.006	-0.062
-463.113	10.772	0.255	0.195
-462.099	-95.316	0.306	0.082
-461.084	-200.000	0.013	0.160
-460.070	-143.170	-0.118	0.011
-459.055	420.723	0.126	0.270
-458.040	800.000	0.073	0.274
-457.026	-200.000	-0.017	0.076
-456.011	-119.586	0.316	0.055
-454.997	-200.000	0.009	0.343
-453.982	-32.822	0.458	0.254
-452.968	-200.000	-0.058	0.273
-451.953	-200.000	-0.037	0.200
-450.938	-105.908	-0.181	-0.041
-449.924	-177.496	-0.156	0.004
-448.909	-200.000	0.014	0.125
-447.895	-149.737	-0.253	0.020
-446.880	-175.565	-0.242	0.007
-445.865	6.399	-0.124	-0.092
-444.851	-81.308	-0.140	0.046
-443.836	800.000	0.081	0.292
-442.822	-200.000	-0.077	0.430
-441.807	-8.366	0.262	0.176
-440.792	-200.000	0.006	-0.343
-439.778	99.452	0.060	0.069
-438.763	-119.395	0.192	-0.033
-437.749	52.461	-0.275	0.262
-436.734	228.629	-0.071	0.115
-435.719	4.015	-0.181	0.132
-434.705	235.858	0.151	0.249
-433.690	102.660	-0.208	-0.243
-432.676	42.097	0.143	0.129
-431.661	-65.228	-0.145	-0.058
-430.646	-5.069	0.065	0.045
-429.632	-200.000	0.014	0.081
-428.617	-13.421	0.143	0.092
-427.603	523.959	0.077	-0.182
-426.588	-63.720	0.271	-0.111
-425.573	67.408	-0.257	0.261
-424.559	229.882	0.198	-0.323
-423.544	-200.000	-0.010	-0.289
-422.530	800.000	0.022	-0.070
-421.515	-200.000	-0.009	0.500
-420.500	-129.580	-0.172	0.024
-419.486	-200.000	-0.017	0.123
-418.471	104.166	0.111	-0.130
-417.457	-200.000	-0.012	-0.205
-416.442	57.221	-0.163	0.159
-415.428	-178.278	0.142	-0.003
-414.413	-39.132	-0.050	-0.026
-413.398	-15.649	0.295	-0.187
-412.384	122.431	-0.099	0.123
-411.369	131.660	-0.098	0.125
-410.355	103.011	0.223	0.260
-409.340	-78.365	-0.216	0.074
-408.325	755.414	-0.104	-0.280
-407.311	365.535	-0.136	0.273
-406.296	-135.979	0.198	-0.023
-405.282	56.614	-0.067	0.065
-404.267	-88.214	0.066	-0.020
-403.252	265.850	0.179	0.311
-402.238	75.265	0.302	-0.317
-401.223	-200.000	0.001	-0.211
-400.209	456.149	-0.060	-0.134
-399.194	257.829	0.138	0.236
-398.179	-104.776	-0.110	0.025
-397.165	-43.860	0.228	-0.114
-396.150	-200.000	0.014	0.146
-395.136	800.000	0.029	-0.090
-394.121	112.862	-0.141	0.170
-393.106	407.856	0.064	0.134
-392.092	234.191	0.042	-0.068
-391.077	-23.406	-0.321	0.192
-390.063	-43.976	0.254	-0.127
-389.048	92.587	0.082	-0.092
-388.033	71.387	-0.193	-0.200
-387.019	324.700	-0.163	-0.310
-386.004	-47.756	-0.162	0.078
-384.990	173.058	-0.291	0.418
-383.975	561.532	-0.181	-0.436
-382.960	-60.377	0.222	-0.094
-381.946	2.088	-0.070	-0.050
-380.931	-139.972	-0.143	-0.015
-379.917	-54.413	-0.133	-0.060
-378.902	-12.191	-0.303	0.197
-377.888	-172.181	0.194	-0.006
-376.873	-118.274	-0.142	0.025
-375.858	166.504	-0.168	0.237
-374.844	-49.321	-0.118	-0.056
-373.829	-49.434	-0.462	-0.219
-372.815	-157.892	0.239	0.014
-371.800	-191.148	-0.142	-0.001
-370.785	-76.340	0.107	0.038
-369.771	-53.507	0.033	-0.015
-368.756	221.529	0.144	0.230
-367.742	565.971	0.081	-0.196
-366.727	57.150	-0.314	-0.305
-365.712	-200.000	-0.014	0.126
-364.698	-102.531	0.459	0.109
-363.683	-22.193	-0.093	-0.056
-362.669	800.000	0.113	-0.396
-361.654	-156.908	0.466	-0.028
-360.639	-198.725	-0.383	-0.002
-359.625	800.000	0.037	0.125
-358.610	-112.253	0.284	-0.057
-357.596	-139.711	0.204	0.022
-356.581	137.266	-0.104	0.135
-355.566	31.663	-0.041	0.035
-354.552	526.883	-0.104	-0.243
-353.537	800.000	-0.176	0.539
-352.523	337.224	0.117	0.227
-351.508	-86.116	0.399	0.123
-350.493	-6.599	0.196	-0.132
-349.479	-84.807	-0.223	0.070
-348.464	800.000	-0.077	0.255
-347.450	96.775	-0.137	-0.156
-346.435	800.000	-0.044	-0.149
-345.420	-200.000	-0.014	0.155
-344.406	13.910	-0.115	-0.089
-343.391	-200.000	0.005	0.075
-342.377	-87.809	0.313	-0.094
-341.362	-200.000	-0.011	0.107
-340.348	-200.000	0.007	0.278
-339.333	3.587	0.141	-0.102
-338.318	-200.000	0.027	0.146
-337.304	-62.252	-0.200	-0.083
-336.289	-39.400	0.053	0.028
-335.275	-200.000	0.082	-0.433
-334.260	-45.359	-0.082	-0.041
-333.245	257.532	0.119	0.204
-332.231	62.534	-0.261	-0.259
-331.216	-79.697	-0.245	-0.082
-330.202	-200.000	0.023	-0.108
-329.187	800.000	-0.039	0.113
-328.172	-107.596	-0.132	0.029
-327.158	183.292	-0.121	0.177
-326.143	50.298	-0.118	0.110
-325.129	-200.000	0.083	-0.365
-324.114	-200.000	-0.017	0.568
-323.099	69.698	0.208	-0.213
-322.085	800.000	0.050	0.162
-321.070	526.413	-0.083	0.193
-320.056	-70.722	-0.202	0.076
-319.041	538.743	-0.081	0.192
-318.026	-200.000	0.023	0.237
-317.012	61.484	0.188	0.185
-315.997	99.941	0.154	-0.177
-314.983	-111.100	-0.232	0.047
-313.968	176.983	0.071	0.103
-312.953	-200.000	-0.046	0.236
-311.939	-200.000	-0.014	0.079
-310.924	-26.842	0.244	0.142
-309.910	800.000	-0.070	-0.239
-308.895	35.424	0.274	0.239
-307.880	339.765	0.141	0.273
-306.866	-35.869	-0.125	0.067
-305.851	-127.209	0.387	0.056
-304.837	800.000	-0.016	0.045
-303.822	-131.173	0.185	0.024
-302.807	-130.940	0.153	-0.020
-301.793	146.046	-0.159	0.212
-300.778	-121.893	-0.328	0.054
-299.764	-118.128	0.238	-0.042
-298.749	7.913	-0.211	0.157
-297.735	336.471	0.025	-0.048
-296.720	119.096	0.139	0.170
-295.705	106.383	0.277	0.326
-294.691	-81.886	0.179	-0.058
-293.676	526.896	-0.194	-0.454
-292.662	-200.000	0.016	-0.091
-291.647	-119.636	0.261	-0.045
-290.632	-6.633	-0.341	0.230
-289.618	431.341	0.102	-0.219
-288.603	419.267	-0.063	0.134
-287.589	541.286	0.179	0.424
-286.574	16.784	-0.349	0.273
-285.559	-67.875	0.091	-0.035
-284.545	-165.305	0.079	0.003
-283.530	-31.310	-0.061	-0.034
-282.516	-200.000	-0.010	0.211
-281.501	-200.000	-0.002	-0.251
-280.486	17.219	0.229	-0.180
-279.472	800.000	0.032	0.114
-278.457	-190.032	0.145	-0.002
-277.443	-200.000	0.018	-0.090
-276.428	391.194	-0.069	0.142
-275.413	-38.905	0.213	-0.111
-274.399	-148.117	0.081	-0.007
-273.384	19.794	0.253	-0.202
-272.370	20.859	0.249	0.200
-271.355	-140.414	-0.010	0.001
-270.340	-41.239	-0.106	0.054
-269.326	115.539	-0.101	-0.122
-268.311	29.524	-0.203	-0.171
-267.297	-89.722	0.159	-0.046
-266.282	49.784	0.341	-0.319
-265.267	-200.000	-0.021	0.348
-264.253	-163.582	-0.083	0.004
-263.238	126.425	-0.127	0.159
-262.224	-29.816	-0.212	-0.120
-261.209	-200.000	-0.032	-0.165
-260.195	-95.289	0.280	-0.075
-259.180	-124.069	-0.300	-0.047
-258.165	197.142	-0.113	0.171
-257.151	-10.878	0.166	-0.108
-256.136	-157.383	-0.246	0.015
-255.122	-164.919	0.105	-0.005
-254.107	-113.072	0.126	-0.025
-253.092	-200.000	0.015	-0.069
-252.078	-4.752	-0.283	-0.193
-251.063	-79.548	0.483	-0.161
-250.049	255.939	0.110	0.186
-249.034	89.942	0.065	0.072
-248.019	-200.000	0.048	-0.217
-247.005	610.700	0.209	-0.516
-245.990	-99.375	0.150	-0.037
-244.976	61.824	-0.158	0.156
-243.961	-200.000	-0.004	-0.045
-242.946	50.937	-0.151	0.141
-241.932	-200.000	-0.003	0.219
-240.917	42.927	0.392	0.354
-239.903	800.000	0.097	-0.399
-238.888	-86.723	-0.160	0.048
-237.873	-50.346	0.436	0.204
-236.859	241.088	-0.121	0.200
-235.844	-200.000	0.049	-0.352
-234.830	-109.298	0.077	-0.016
-233.815	-200.000	-0.067	0.000
-232.800	-32.741	-0.304	-0.167
-231.786	-200.000	0.029	-0.139
-230.771	15.094	0.140	-0.108
-229.757	-89.109	0.165	-0.048
-228.742	-43.289	0.207	-0.104
-227.727	-2.085	0.165	0.115
-226.713	-200.000	0.002	-0.146
-225.698	-129.516	0.368	0.050
-224.684	525.042	-0.095	0.222
-223.669	-113.817	0.444	-0.085
-222.655	-200.000	-0.019	0.084
-221.640	369.152	-0.194	-0.389
-220.625	800.000	0.049	-0.148
-219.611	-165.743	-0.178	0.008
-218.596	-200.000	0.051	-0.388
-217.582	-77.491	0.231	0.079
-216.567	-53.537	-0.190	-0.086
-215.552	426.656	0.175	-0.372
-214.538	-2.248	0.088	0.061
-213.523	-32.585	0.024	-0.013
-212.509	23.138	-0.219	-0.178
-211.494	-64.914	0.265	0.106
-210.479	-200.000	0.002	0.060
-209.465	317.015	-0.037	0.070
-208.450	89.192	0.172	-0.189
-207.436	-84.716	-0.178	-0.055
-206.421	-200.000	0.022	-0.103
-205.406	43.686	0.334	-0.302
-204.392	-102.298	0.290	-0.069
-203.377	-63.185	-0.241	-0.098
-202.363	175.725	-0.137	0.196
-201.348	-36.538	0.242	-0.129
-200.333	-7.527	-0.257	-0.172
-199.319	12.684	0.136	-0.104
-198.304	-114.367	-0.045	-0.009
-197.290	-144.405	0.356	0.033
-196.275	800.000	-0.081	0.298
-195.260	254.266	-0.042	0.070
-194.246	193.249	0.075	-0.113
-193.231	273.820	0.141	-0.246
-192.217	-7.376	-0.139	-0.093
-191.202	-66.021	-0.189	-0.074
-190.187	800.000	0.066	0.271
-189.173	8.239	-0.145	0.107
-188.158	-129.284	-0.306	-0.042
-187.144	-112.572	0.278	0.055
-186.129	-190.415	0.134	0.001
-185.114	-94.521	0.183	-0.049
-184.100	401.061	-0.182	-0.377
-183.085	305.145	-0.063	-0.116
-182.071	-200.000	0.027	-0.149
-181.056	-3.581	-0.087	-0.060
-180.042	-81.310	-0.312	0.102
-179.027	-54.162	-0.119	-0.053
-178.012	127.548	0.195	0.244
-176.998	800.000	0.094	0.319
-175.983	732.467	0.104	0.275
-174.969	71.025	-0.113	0.116
-173.954	800.000	0.051	-0.151
-172.939	19.431	-0.210	0.166
-171.925	-200.000	0.008	0.064
-170.910	-27.063	-0.433	0.249
-169.896	-3.258	-0.180	-0.124
-168.881	-200.000	0.018	-0.078
-167.866	-200.000	-0.001	-0.029
-166.852	-109.117	-0.084	0.018
-165.837	313.988	-0.102	0.190
-164.823	104.688	-0.154	0.179
-163.808	-70.337	0.282	-0.105
-162.793	-200.000	-0.042	0.273
-161.779	-117.651	-0.176	-0.031
-160.764	-112.153	0.109	0.022
-159.750	234.418	-0.110	0.179
-158.735	-63.607	0.107	-0.043
-157.720	264.135	-0.105	-0.180
-156.706	-57.530	-0.113	0.049
-155.691	27.160	-0.147	0.121
-154.677	-67.360	0.062	0.024
-153.662	83.341	-0.080	0.086
-152.647	-2.964	0.096	0.066
-151.633	-60.533	0.208	-0.087
-150.618	-124.871	0.109	0.017
-149.604	197.923	0.068	0.102
-148.589	-114.199	0.141	0.027
-147.574	647.014	-0.087	0.220
-146.560	-200.000	0.023	-0.103
-145.545	-80.707	0.327	0.107
-144.531	-111.266	0.389	0.078
-143.516	-53.653	-0.059	0.026
-142.502	800.000	-0.056	-0.176
-141.487	-117.814	0.128	-0.023
-140.472	-200.000	0.055	-0.593
-139.458	-200.000	-0.011	0.202
-138.443	80.158	-0.055	-0.058
-137.429	-34.940	0.264	0.142
-136.414	461.259	-0.108	0.237
-135.399	800.000	-0.022	0.070
-134.385	-48.561	-0.163	0.077
-133.370	291.898	-0.155	0.278
-132.356	-139.541	-0.314	-0.033
-131.341	-64.566	-0.120	0.048
-130.326	-6.804	-0.205	-0.137
-129.312	58.707	0.105	0.101
-128.297	248.672	0.199	-0.332
-127.283	-73.264	0.228	0.082
-126.268	-130.212	-0.528	-0.071
-125.253	-200.000	-0.022	0.185
-124.239	-179.380	0.224	-0.005
-123.224	-102.211	0.179	0.042
-122.210	132.086	0.096	0.122
-121.195	-96.948	0.141	0.036
-120.180	-94.759	-0.319	0.085
-119.166	2.900	0.140	-0.100
-118.151	-172.754	-0.134	-0.004
-117.137	305.247	-0.060	-0.110
-116.122	4.706	0.323	0.234
-115.107	264.546	-0.065	-0.112
-114.093	-200.000	0.057	-0.349
-113.078	-121.085	0.133	-0.022
-112.064	123.097	-0.127	-0.156
-111.049	-122.372	0.135	0.022
-110.034	800.000	-0.128	0.403
-109.020	488.235	-0.025	0.057
-108.005	326.535	0.146	0.276
-106.991	-145.857	0.285	-0.025
-105.976	-144.264	-0.126	0.012
-104.962	-90.984	0.305	0.086
-103.947	800.000	0.058	0.170
-102.932	-200.000	0.071	-0.422
-101.918	632.022	-0.140	-0.349
-100.903	-119.568	0.148	-0.025
-99.889	-200.000	-0.004	0.215
-98.874	-128.403	-0.378	-0.053
-97.859	661.866	0.091	0.231
-96.845	-166.532	0.183	0.008
-95.830	-200.000	0.044	0.313
-94.816	166.833	0.150	0.209
-93.801	-200.000	-0.002	-0.074
-92.786	-75.577	0.158	0.055
-91.772	-98.605	0.162	-0.041
-90.757	284.943	-0.160	0.283
-89.743	800.000	0.083	0.329
-88.728	-72.369	0.393	0.143
-87.713	-200.000	0.031	-0.240
-86.699	-112.379	0.111	0.022
-85.684	42.463	0.315	-0.282
-84.670	460.265	0.158	0.347
-83.655	-200.000	-0.014	0.065
-82.640	-32.100	0.110	0.060
-81.626	97.038	0.156	0.176
-80.611	-132.412	0.134	0.017
-79.597	-92.608	-0.140	0.039
-78.582	144.270	0.245	-0.321
-77.567	-19.148	0.105	-0.064
-76.553	-200.000	0.369	0.001
-75.538	64.322	0.265	-0.263
-74.524	-56.864	0.032	0.014
-73.509	-40.732	0.255	-0.130
-72.494	246.546	0.044	0.073
-71.480	35.618	-0.080	0.069
-70.465	-200.000	-0.035	0.178
-69.451	69.669	-0.075	0.076
-68.436	447.176	0.156	0.337
-67.422	57.741	-0.040	0.039
-66.407	-87.557	0.252	0.075
-65.392	-73.404	0.175	0.063
-64.378	-50.108	0.191	-0.089
-63.363	-14.117	0.333	-0.211
-62.349	-200.000	-0.021	-0.411
-61.334	67.536	-0.986	-0.989
-60.319	-36.689	0.677	0.357
-59.305	-200.000	0.071	-0.851
-58.290	800.000	0.442	1.331
-57.276	316.514	0.937	1.740
-56.261	-200.000	97.687	597.517
-55.246	541.352	1376.222	3221.608
-54.232	161.169	2555.138	3508.936
-53.217	111.533	2153.942	2552.428
-52.203	42.297	1697.069	1515.109
-51.188	34.884	1509.528	1297.559
-50.173	32.493	1483.093	1258.817
-49.159	51.885	1533.153	1433.603
-48.144	53.682	1550.474	1461.961
-47.130	35.116	1509.660	1299.038
-46.115	31.950	1495.369	1265.373
-45.100	31.838	1491.662	1261.437
-44.086	31.807	1489.923	1259.708
-43.071	31.729	1487.472	1257.059
-42.057	31.644	1486.496	1255.613
-41.042	31.725	1484.909	1254.766
-40.027	31.706	1483.667	1253.540
-39.013	31.767	1481.963	1252.458
-37.998	31.653	1480.871	1250.727
-36.984	31.734	1479.534	1250.089
-35.969	31.744	1477.907	1248.727
-34.954	31.724	1476.467	1247.333
-33.940	31.615	1475.777	1245.974
-32.925	31.729	1474.145	1245.304
-31.911	31.694	1472.833	1243.915
-30.896	31.782	1471.331	1243.177
-29.881	31.799	1470.201	1242.288
-28.867	31.726	1469.287	1240.983
-27.852	31.659	1467.256	1238.775
-26.838	31.787	1466.187	1238.667
-25.823	31.745	1464.441	1236.870
-24.809	31.809	1462.538	1235.634
-23.794	31.697	1461.502	1233.969
-22.779	31.631	1460.303	1232.475
-21.765	31.642	1459.843	1232.113
-20.750	31.711	1458.711	1231.558
-19.736	31.702	1457.068	1230.062
-18.721	31.671	1456.293	1229.156
-17.706	31.716	1454.974	1228.291
-16.692	31.655	1453.726	1226.789
-15.677	31.680	1452.227	1225.641
-14.663	31.704	1451.588	1225.205
-13.648	31.631	1450.701	1223.933
-12.633	31.689	1449.544	1223.287
-11.619	31.733	1448.558	1222.691
-10.604	31.589	1448.453	1221.617
-9.590	31.606	1447.464	1220.846
-8.575	31.779	1446.382	1221.012
-7.560	31.646	1445.717	1219.538
-6.546	31.568	1444.617	1218.052
-5.531	31.582	1443.948	1217.534
-4.517	31.606	1443.125	1216.947
-3.502	31.569	1442.143	1215.830
-2.487	31.567	1440.835	1214.666
-1.473	31.618	1440.075	1214.304
-0.458	31.610	1438.444	1212.827
0.556	32.164	1428.710	1201.447
1.571	29.545	1404.228	1164.264
2.586	26.604	1348.467	1100.094
3.600	25.596	1270.206	1030.388
4.615	24.387	1224.741	986.732
5.629	21.070	1167.454	922.977
6.644	11.198	1081.070	806.005
7.659	3.521	1039.579	738.368
8.673	2.363	1033.886	728.744
9.688	2.238	1030.727	725.863
10.702	2.177	1029.023	724.307
11.717	2.202	1027.215	723.091
12.731	5.932	1032.047	744.137
13.746	15.918	1045.511	801.530
14.761	23.300	1054.627	843.751
15.775	25.129	1057.103	854.380
16.790	25.533	1056.557	855.787
17.804	25.425	1055.610	854.430
18.819	25.144	1055.133	852.635
19.834	25.303	1054.519	852.818
20.848	25.522	1054.117	853.461
21.863	25.518	1054.190	853.421
22.877	25.510	1053.793	852.988
23.892	25.525	1052.799	852.180
24.907	25.470	1051.779	851.015
25.921	25.386	1051.570	850.377
26.936	25.528	1050.326	849.964
27.950	25.467	1048.808	848.374
28.965	25.480	1047.940	847.658
29.980	25.411	1046.362	845.980
30.994	25.195	1045.671	844.330
32.009	25.441	1044.921	844.811
33.023	25.693	1043.969	845.149
34.038	25.455	1042.657	842.894
35.053	25.244	1042.463	841.675
36.067	25.346	1042.046	841.741
37.082	25.437	1041.209	841.415
38.096	25.503	1040.552	841.121
39.111	25.780	1039.759	841.700
40.126	25.854	1038.797	841.189
41.140	25.715	1037.308	839.263
42.155	25.412	1036.391	837.033
43.169	25.116	1035.316	834.713
44.184	25.061	1033.743	833.118
45.199	25.153	1033.321	833.132
46.213	25.015	1031.965	831.321
47.228	25.110	1031.362	831.205
48.242	25.307	1030.657	831.477
49.257	25.343	1030.268	831.256
50.271	25.404	1029.173	830.581
51.286	25.556	1028.727	830.849
52.301	25.561	1028.043	830.245
53.315	25.636	1026.988	829.665
54.330	25.516	1026.850	828.928
55.344	25.394	1025.896	827.524
56.359	25.450	1024.626	826.681
57.374	25.437	1024.147	826.165
58.388	25.343	1022.931	824.676
59.403	25.196	1022.352	823.462
60.417	25.267	1021.646	823.146
61.432	25.172	1020.299	821.553
62.447	25.125	1020.012	821.037
63.461	25.263	1019.176	820.919
64.476	25.281	1018.632	820.494
65.490	25.300	1017.482	819.581
66.505	25.165	1016.781	818.328
67.520	25.207	1015.712	817.584
68.534	25.250	1015.146	817.255
69.549	25.192	1014.388	816.308
70.563	24.997	1012.847	814.111
71.578	24.825	1012.142	812.688
72.593	24.838	1011.497	812.160
73.607	24.546	1010.399	809.880
74.622	24.593	1009.318	809.156
75.636	24.886	1008.902	810.075
76.651	25.125	1007.896	810.279
77.666	24.876	1007.386	808.671
78.680	24.827	1006.439	807.618
79.695	24.903	1005.985	807.525
80.709	24.941	1005.241	807.029
81.724	25.073	1004.486	806.945
82.739	25.054	1003.609	806.082
83.753	25.258	1002.507	806.042
84.768	25.355	1002.242	806.194
85.782	25.666	1002.110	807.413
86.797	25.910	1000.907	807.466
87.812	25.785	1000.483	806.492
88.826	25.614	998.873	804.357
89.841	25.591	998.836	804.153
90.855	25.694	997.629	803.573
91.870	25.662	997.129	802.957
92.884	25.798	995.945	802.536
93.899	25.563	995.265	800.871
94.914	25.545	994.347	799.980
95.928	25.552	994.068	799.716
96.943	25.562	993.186	798.984
97.957	25.442	991.542	797.057
98.972	25.313	990.173	795.314
99.987	25.002	989.431	793.271
101.001	25.125	988.790	793.230
102.016	25.332	988.605	793.926
103.030	25.593	987.260	793.931
104.045	25.231	986.583	791.719
105.060	25.190	985.509	790.603
106.074	24.979	984.636	788.905
107.089	25.100	983.079	788.122
108.103	25.539	983.097	789.993
109.118	25.590	982.561	789.718
110.133	25.244	981.395	787.195
111.147	25.188	980.425	786.098
112.162	25.081	979.548	784.861
113.176	24.990	977.802	782.991
114.191	25.089	977.425	783.052
115.206	25.200	976.069	782.384
116.220	24.901	975.303	780.396
117.235	24.756	974.718	779.229
118.249	24.861	973.797	778.880
119.264	24.882	973.179	778.408
120.279	24.887	972.025	777.439
121.293	24.724	971.373	776.138
122.308	24.899	971.061	776.582
123.322	24.864	970.144	775.625
124.337	24.775	969.016	774.269
125.352	24.718	967.640	772.859
126.366	24.351	966.040	769.928
127.381	24.031	964.944	767.606
128.395	24.584	964.522	769.584
129.410	25.315	964.581	772.710
130.424	25.343	963.913	772.229
131.439	25.441	962.554	771.493
132.454	25.251	961.867	770.058
133.468	25.349	961.148	769.833
134.483	25.289	959.936	768.537
135.497	25.305	959.494	768.187
136.512	25.525	958.659	768.387
137.527	25.653	957.814	768.189
138.541	25.595	957.442	767.575
139.556	25.807	956.364	767.548
140.570	25.615	956.188	766.520
141.585	25.616	955.235	765.692
142.600	25.792	954.494	765.778
143.614	25.600	953.593	764.174
144.629	25.723	952.736	763.941
145.643	25.767	952.356	763.756
146.658	25.770	951.310	762.864
147.673	25.732	949.484	761.171
148.687	25.464	948.992	759.574
149.702	25.546	947.847	758.939
150.716	25.482	946.795	757.760
151.731	25.399	945.654	756.427
152.746	25.510	945.207	756.474
153.760	25.591	944.902	756.500
154.775	25.693	944.325	756.400
155.789	25.810	942.867	755.656
156.804	25.801	942.164	754.988
157.819	25.725	941.116	753.763
158.833	25.732	940.327	753.096
159.848	25.840	939.763	753.030
160.862	25.978	938.850	752.808
161.877	25.899	937.917	751.662
162.892	25.622	937.374	750.004
163.906	25.792	936.438	749.898
164.921	25.781	935.428	748.977
165.935	25.675	934.596	747.806
166.950	25.831	933.683	747.657
167.964	25.651	933.198	746.455
168.979	25.621	932.349	745.585
169.994	25.725	930.774	744.690
171.008	25.472	929.923	742.896
172.023	25.767	929.251	743.512
173.037	25.862	928.508	743.245
174.052	25.775	927.120	741.709
175.067	25.486	926.393	739.874
176.081	25.526	925.750	739.458
177.096	25.626	924.950	739.164
178.110	25.593	924.200	738.362
179.125	25.351	923.009	736.354
180.140	25.132	922.207	734.755
181.154	25.163	921.367	734.144
182.169	25.126	921.739	734.226
183.183	25.381	921.290	734.844
184.198	25.814	920.243	735.714
185.213	25.715	920.026	735.072
186.227	25.689	919.197	734.237
187.242	25.702	918.727	733.849
188.256	25.792	917.894	733.489
189.271	25.847	917.517	733.344
190.286	25.878	917.012	733.004
191.300	25.727	915.653	731.238
192.315	25.171	913.592	727.275
193.329	24.399	912.567	723.268
194.344	24.018	911.853	721.092
195.359	24.645	912.276	723.905
196.373	25.427	912.511	727.192
197.388	25.638	912.182	727.720
198.402	25.596	911.127	726.642
199.417	25.668	910.554	726.415
200.432	25.674	910.184	726.077
201.446	25.452	909.932	724.916
202.461	25.209	909.097	723.210
203.475	25.313	908.426	723.028
204.490	24.900	906.833	720.038
205.504	23.811	904.835	714.014
206.519	24.120	904.949	715.283
207.534	25.149	905.219	719.564
208.548	25.315	904.685	719.741
209.563	25.608	904.613	720.797
210.577	25.573	903.693	719.857
211.592	25.187	903.473	718.075
212.607	25.582	903.061	719.262
213.621	25.897	902.505	720.017
214.636	25.817	901.795	719.065
215.650	25.820	901.357	718.667
216.665	25.841	900.274	717.821
217.680	26.013	900.004	718.227
218.694	25.836	899.615	717.148
219.709	25.545	898.573	715.099
220.723	25.273	897.988	713.488
221.738	25.578	897.043	713.884
222.753	25.651	896.425	713.619
223.767	25.629	896.083	713.199
224.782	25.626	895.393	712.574
225.796	25.893	894.853	713.136
226.811	25.995	894.147	712.913
227.826	25.489	893.026	709.959
228.840	24.824	891.126	705.763
229.855	24.793	890.781	705.305
230.869	24.967	890.689	705.857
231.884	24.476	889.766	703.128
232.899	24.563	889.287	703.029
233.913	25.390	889.290	706.224
234.928	25.555	889.337	706.848
235.942	25.542	888.119	705.767
236.957	25.466	887.702	705.073
237.972	25.130	887.039	703.165
238.986	25.071	886.207	702.215
240.001	25.363	885.517	702.749
241.015	25.227	885.062	701.793
242.030	25.432	884.038	701.719
243.045	25.610	883.544	701.959
244.059	25.585	883.017	701.383
245.074	25.992	882.420	702.430
246.088	25.645	882.556	701.127
247.103	25.316	880.906	698.473
248.117	25.488	880.276	698.581
249.132	25.937	880.755	700.645
250.147	26.390	880.568	702.192
251.161	26.398	879.750	701.511
252.176	26.602	879.387	701.948
253.190	26.376	879.475	701.080
254.205	26.582	878.427	700.980
255.220	26.809	878.344	701.732
256.234	26.735	877.274	700.530
257.249	26.666	876.677	699.724
258.263	26.526	876.139	698.691
259.278	26.554	875.282	698.054
260.293	26.575	874.959	697.818
261.307	26.658	874.545	697.742
262.322	26.585	873.666	696.701
263.336	26.301	873.223	695.194
264.351	25.908	872.085	692.716
265.366	24.762	869.873	686.500
266.380	24.352	869.184	684.324
267.395	25.473	869.439	688.763
268.409	26.158	869.398	691.294
269.424	26.088	868.733	690.437
270.439	26.091	868.738	690.389
271.453	26.342	867.861	690.592
272.468	26.459	866.984	690.280
273.482	26.406	867.166	690.161
274.497	26.627	866.251	690.215
275.512	26.365	865.607	688.642
276.526	26.029	863.815	685.878
277.541	26.025	863.905	685.872
278.555	26.454	863.824	687.379
279.570	26.385	862.406	685.927
280.585	26.088	862.087	684.489
281.599	26.175	861.664	684.419
282.614	26.261	861.449	684.516
283.628	25.854	860.110	681.852
284.643	25.341	859.514	679.376
285.657	25.692	859.501	680.634
286.672	25.671	858.523	679.719
287.687	25.143	857.601	676.938
288.701	25.690	857.547	678.900
289.716	25.987	857.179	679.668
290.730	25.644	856.063	677.432
291.745	25.566	855.489	676.622
292.760	25.355	854.857	675.270
293.774	25.201	854.467	674.323
294.789	26.214	854.873	678.391
295.803	26.837	854.820	680.630
296.818	26.945	853.923	680.259
297.833	26.969	853.889	680.261
298.847	26.766	852.726	678.517
299.862	26.341	851.653	676.013
300.876	26.551	851.234	676.403
301.891	26.947	850.856	677.524
302.906	26.952	850.563	677.247
303.920	26.629	849.458	675.106
304.935	26.398	848.794	673.658
305.949	26.776	848.398	674.690
306.964	26.870	847.901	674.587
307.979	26.748	847.187	673.505
308.993	26.692	846.862	672.979
310.008	26.997	846.472	673.740
311.022	26.932	846.413	673.392
312.037	26.904	845.527	672.525
313.052	26.735	844.632	671.127
314.066	26.480	844.230	669.806
315.081	25.769	843.035	666.167
316.095	24.966	841.702	662.089
317.110	25.643	841.579	664.435
318.125	26.448	842.120	667.776
319.139	25.981	841.060	665.153
320.154	24.864	839.346	659.627
321.168	24.525	838.296	657.493
322.183	25.233	838.362	660.094
323.197	26.149	839.004	663.911
324.212	26.460	838.552	664.638
325.227	26.379	838.659	664.367
326.241	26.630	838.151	664.826
327.256	26.521	837.095	663.530
328.270	26.295	836.848	662.446
329.285	26.349	835.817	661.770
330.300	26.159	834.957	660.336
331.314	26.101	834.041	659.342
332.329	25.963	833.874	658.646
333.343	26.574	833.732	660.708
334.358	26.840	833.036	661.065
335.373	26.788	832.507	660.398
336.387	26.746	831.885	659.694
337.402	27.046	831.813	660.671
338.416	27.213	831.310	660.820
339.431	27.230	830.448	660.136
340.446	27.280	830.030	659.930
341.460	27.306	830.037	659.971
342.475	27.350	829.239	659.436
343.489	27.148	828.517	658.071
344.504	27.059	827.995	657.276
345.519	27.368	827.725	658.123
346.533	27.595	827.120	658.404
347.548	27.587	827.276	658.442
348.562	27.602	826.600	657.900
349.577	27.589	825.935	657.262
350.592	27.445	825.464	656.310
351.606	27.429	824.756	655.633
352.621	27.486	824.334	655.446
353.635	27.415	823.650	654.587
354.650	27.281	823.558	653.975
355.665	26.989	822.454	651.993
356.679	25.819	821.216	646.754
357.694	25.870	819.791	645.759
358.708	26.497	820.004	648.115
359.723	26.477	819.403	647.511
360.738	26.554	819.631	647.911
361.752	27.023	819.667	649.559
362.767	27.211	818.860	649.532
363.781	27.580	818.528	650.528
364.796	27.781	818.626	651.266
365.810	27.902	818.238	651.334
366.825	28.078	817.637	651.425
367.840	27.976	817.308	650.742
368.854	27.834	816.865	649.828
369.869	27.267	815.903	646.988
370.883	27.010	815.717	645.868
371.898	27.233	814.862	645.926
372.913	27.215	813.848	645.002
373.927	27.207	813.537	644.667
374.942	27.391	813.085	644.907
375.956	27.562	812.169	644.727
376.971	27.587	811.963	644.595
377.986	27.663	811.318	644.294
379.000	27.935	811.082	645.011
380.015	27.859	810.574	644.283
381.029	27.634	810.101	643.053
382.044	27.647	809.657	642.692
383.059	27.789	808.520	642.231
384.073	27.829	808.557	642.343
385.088	27.736	808.056	641.563
386.102	27.867	807.053	641.171
387.117	27.701	806.363	639.981
388.132	27.623	805.832	639.232
389.146	27.381	805.114	637.758
390.161	26.757	804.327	634.891
391.175	26.840	803.910	634.797
392.190	27.498	804.091	637.186
393.205	27.417	803.529	636.403
394.219	26.568	801.828	632.035
395.234	24.867	799.507	624.225
396.248	24.055	798.664	620.681
397.263	25.177	799.092	624.869
398.278	27.132	800.568	632.786
399.292	27.359	800.992	633.855
400.307	27.040	800.336	632.168
401.321	27.040	799.492	631.445
402.336	27.099	799.399	631.523
403.350	27.515	799.372	632.890
404.365	27.797	799.270	633.734
405.380	28.151	798.883	634.597
406.394	28.533	798.672	635.699
407.409	28.614	798.496	635.781
408.423	28.508	797.790	634.799
409.438	28.432	797.154	633.972
410.453	28.529	796.590	633.805
411.467	28.643	796.104	633.754
412.482	28.723	795.804	633.735
413.496	28.499	795.434	632.610
414.511	28.625	794.911	632.573
415.526	28.627	794.593	632.271
416.540	28.580	794.372	631.877
417.555	28.641	793.649	631.458
418.569	28.146	793.213	629.353
419.584	28.186	792.243	628.663
420.599	28.234	791.730	628.366
421.613	112.149	1286.226	1460.989
422.628	96.548	1358.283	1461.095
