DTS Sentinel unit serial number:	SN413079Multiplexer serial number:	ORYXHardware model number:	OX4-SRSoftware version number:	ORYX F/W v4.00 Oryx Data Collector v3.7.2.0data status	okinstallation	princeton_trtdifferential loss correction	single-endedforward channel	channel 3reverse channel	N/Adate	2019/09/12time	20:11:04forward acquisition time	15.00reverse acquisition time	0.00gamma	496.2192k internal	0.2324k external	0.2324temperature offset calibration	1.0118default loss term (dB/km)	0.3790temperature slope calibration	1.0000multiplexer offset coefficient	1.0000multiplexer slope coefficient	1.0000fibre end	0.00T internal ref (°C)	31.62T ext. ref 1 (°C)	3.45T ext. ref 2 (°C)	26.16length (m)	temperature (°C)	Stokes	anti-Stokes-747.200	30.354	0.194	-0.168
-746.185	-96.202	0.813	0.218
-745.171	-200.000	0.072	-0.783
-744.156	252.686	0.313	-0.538
-743.142	-90.928	0.722	-0.210
-742.127	-149.474	-1.060	0.085
-741.112	-137.345	-0.840	0.096
-740.098	-122.064	-0.645	0.107
-739.083	50.994	0.554	0.530
-738.069	-100.256	-0.713	0.179
-737.054	122.397	-0.276	-0.349
-736.039	348.611	-0.166	0.331
-735.025	-138.350	0.869	-0.097
-734.010	39.287	-0.308	-0.278
-732.996	-200.000	-0.092	-0.431
-731.981	-200.000	-0.001	-0.092
-730.966	-116.430	-0.564	-0.105
-729.952	800.000	0.117	0.494
-728.937	-137.631	0.290	0.033
-727.923	800.000	-0.118	-0.413
-726.908	99.126	0.336	-0.392
-725.894	231.492	0.291	0.481
-724.879	130.451	0.247	-0.319
-723.864	-200.000	0.022	-0.110
-722.850	44.990	0.688	0.639
-721.835	433.739	0.224	0.491
-720.821	8.033	0.531	-0.402
-719.806	-22.761	-0.502	0.306
-718.791	243.958	0.136	-0.230
-717.777	-104.607	0.681	0.158
-716.762	-23.127	0.289	-0.176
-715.748	-200.000	-0.560	-0.002
-714.733	247.160	-0.078	0.133
-713.718	800.000	0.209	-0.788
-712.704	-200.000	-0.085	-0.392
-711.689	-200.000	0.000	-0.572
-710.675	-111.991	-0.136	-0.028
-709.660	-130.411	0.421	0.058
-708.645	-200.000	-0.027	-0.413
-707.631	-113.801	0.250	-0.049
-706.616	418.883	-0.100	-0.216
-705.602	-200.000	0.067	0.759
-704.587	190.634	-0.168	0.254
-703.572	800.000	0.119	-0.337
-702.558	417.435	-0.269	-0.580
-701.543	250.520	0.489	-0.837
-700.529	-200.000	0.183	0.894
-699.514	-50.736	0.193	0.091
-698.499	-125.260	0.383	0.059
-697.485	-94.538	-0.833	-0.229
-696.470	-200.000	-0.089	0.515
-695.456	2.925	0.680	-0.498
-694.441	67.351	0.703	-0.722
-693.426	-51.168	-0.708	0.334
-692.412	-200.000	0.096	-0.595
-691.397	-80.603	0.497	0.167
-690.383	11.801	-0.563	-0.436
-689.368	20.586	0.280	0.228
-688.354	21.168	-0.588	0.481
-687.339	642.427	-0.224	-0.575
-686.324	-18.687	0.492	0.309
-685.310	259.377	-0.125	-0.218
-684.295	800.000	-0.130	0.545
-683.281	34.648	-0.589	-0.518
-682.266	102.566	0.354	-0.417
-681.251	-143.070	0.580	0.056
-680.237	-182.232	0.505	-0.010
-679.222	-142.016	1.006	-0.101
-678.208	-200.000	0.043	-0.275
-677.193	-200.000	0.026	0.147
-676.178	-106.976	-0.574	-0.128
-675.164	0.363	0.310	-0.223
-674.149	52.009	-0.355	-0.340
-673.135	-69.523	-1.047	0.404
-672.120	-197.398	1.066	-0.007
-671.105	-7.445	-0.273	0.186
-670.091	122.086	-0.229	0.288
-669.076	-77.644	0.591	-0.206
-668.062	20.706	0.624	-0.509
-667.047	-47.046	-0.533	-0.262
-666.032	180.940	-0.221	0.326
-665.018	144.716	0.127	-0.171
-664.003	-200.000	-0.055	0.974
-662.989	694.969	0.079	0.208
-661.974	60.113	0.480	0.478
-660.959	-200.000	-0.040	-0.678
-659.945	-59.107	0.571	-0.248
-658.930	216.730	0.396	0.633
-657.916	-180.382	0.418	0.009
-656.901	-200.000	0.048	-0.313
-655.886	1.209	-0.487	-0.352
-654.872	800.000	-0.088	0.373
-653.857	-200.000	0.038	1.054
-652.843	298.422	-0.213	-0.394
-651.828	-67.472	-0.048	-0.019
-650.814	56.028	-0.342	0.334
-649.799	-150.364	-0.172	0.013
-648.784	-111.657	-0.433	0.088
-647.770	700.194	-0.245	-0.649
-646.755	800.000	-0.216	-0.735
-645.741	-39.226	-0.250	-0.132
-644.726	25.698	-1.054	0.883
-643.711	-200.000	-0.092	-0.811
-642.697	800.000	-0.191	0.823
-641.682	-132.936	-0.168	-0.022
-640.668	-90.690	0.449	0.130
-639.653	799.332	-0.145	-0.403
-638.638	18.826	-0.601	-0.484
-637.624	-121.915	0.531	0.088
-636.609	-112.374	-0.352	0.071
-635.595	693.860	-0.114	0.300
-634.580	-200.000	-0.133	0.758
-633.565	147.288	0.478	0.647
-632.551	-172.810	-0.916	-0.029
-631.536	-47.372	0.690	-0.337
-630.522	39.183	0.313	0.281
-629.507	0.506	0.193	0.139
-628.492	-200.000	0.960	0.004
-627.478	800.000	-0.204	0.606
-626.463	-200.000	0.094	-0.578
-625.449	377.705	-0.069	0.143
-624.434	22.264	-0.415	-0.341
-623.419	380.746	0.126	0.260
-622.405	-14.028	-0.459	0.297
-621.390	-50.121	-0.684	-0.326
-620.376	6.795	-0.488	-0.365
-619.361	-39.531	-0.203	-0.107
-618.346	800.000	-0.055	0.228
-617.332	-67.652	-0.428	-0.169
-616.317	-53.831	0.260	0.119
-615.303	-111.624	0.630	0.129
-614.288	124.725	-0.300	-0.380
-613.273	-37.205	-0.344	0.185
-612.259	-168.275	0.631	-0.024
-611.244	-200.000	-0.007	0.093
-610.230	-200.000	0.173	-0.920
-609.215	800.000	-0.130	-0.366
-608.201	800.000	-0.080	-0.300
-607.186	63.074	-0.278	-0.279
-606.171	-200.000	-0.037	-0.236
-605.157	186.328	0.372	0.556
-604.142	-137.278	-0.123	0.014
-603.128	-99.114	-0.725	-0.184
-602.113	-154.032	0.270	0.018
-601.098	549.375	0.341	0.820
-600.084	-8.115	0.079	-0.054
-599.069	-23.608	0.334	-0.201
-598.055	-200.000	-0.031	0.744
-597.040	-0.252	0.860	0.614
-596.025	181.561	0.228	0.336
-595.011	-172.169	0.237	0.008
-593.996	-200.000	-0.159	0.827
-592.982	800.000	-0.179	-0.546
-591.967	-109.126	-1.272	0.272
-590.952	77.946	0.112	-0.120
-589.938	-200.000	-0.023	-0.306
-588.923	-200.000	-0.021	-0.586
-587.909	-59.577	0.360	0.155
-586.894	12.836	-0.232	-0.180
-585.879	-200.000	-0.037	-0.218
-584.865	43.856	0.556	-0.511
-583.850	-200.000	0.057	-0.362
-582.836	41.096	0.145	0.132
-581.821	-53.822	0.794	-0.364
-580.806	63.476	0.312	-0.314
-579.792	-13.989	0.768	-0.497
-578.777	-9.627	-0.813	-0.544
-577.763	451.682	0.193	-0.427
-576.748	-55.333	-0.692	0.312
-575.733	118.806	-0.536	0.664
-574.719	100.329	-0.323	-0.375
-573.704	201.375	-0.258	-0.399
-572.690	-200.000	-0.168	-1.018
-571.675	-200.000	-0.112	0.581
-570.661	-47.366	0.571	0.279
-569.646	-200.000	0.111	-0.514
-568.631	51.371	0.570	0.542
-567.617	549.301	-0.168	0.404
-566.602	90.749	0.039	0.044
-565.588	113.930	0.185	0.226
-564.573	514.037	0.595	-1.392
-563.558	80.057	0.350	0.377
-562.544	-66.383	0.815	-0.325
-561.529	-142.943	0.936	0.091
-560.515	-111.815	-1.300	-0.263
-559.500	30.568	0.549	0.471
-558.485	-76.489	0.527	0.186
-557.471	-10.925	0.255	0.169
-556.456	-126.681	0.784	-0.116
-555.442	423.136	-0.230	-0.496
-554.427	800.000	0.086	0.287
-553.412	-93.054	-0.970	-0.271
-552.398	83.997	0.534	0.584
-551.383	214.586	-0.233	-0.370
-550.369	257.092	0.208	-0.358
-549.354	-3.058	0.143	0.100
-548.339	-118.647	-0.656	-0.116
-547.325	-166.043	1.176	-0.050
-546.310	-200.000	0.099	0.461
-545.296	800.000	0.167	-0.671
-544.281	775.319	-0.214	0.585
-543.266	187.712	0.566	0.847
-542.252	-200.000	0.050	0.465
-541.237	-200.000	-0.062	-0.912
-540.223	434.610	0.184	-0.401
-539.208	-111.011	0.518	-0.106
-538.193	-160.474	-1.099	-0.059
-537.179	-41.562	0.407	-0.209
-536.164	109.367	-0.159	0.190
-535.150	85.342	0.346	0.380
-534.135	-200.000	0.086	-0.480
-533.121	800.000	0.120	-0.347
-532.106	-98.503	-0.527	-0.135
-531.091	-60.685	-0.645	0.274
-530.077	-94.930	1.058	-0.287
-529.062	-197.858	0.839	0.005
-528.048	-200.000	-0.117	0.540
-527.033	-200.000	0.005	-0.341
-526.018	101.438	0.669	0.781
-525.004	-13.487	-0.437	-0.284
-523.989	-113.846	0.326	-0.064
-522.975	181.050	-0.234	0.344
-521.960	22.637	-0.176	0.145
-520.945	-87.323	-0.875	-0.266
-519.931	800.000	0.084	0.273
-518.916	-200.000	0.007	-0.064
-517.902	-13.534	-0.270	-0.175
-516.887	-200.000	0.049	-0.701
-515.872	-111.920	0.196	0.040
-514.858	-90.646	0.570	0.165
-513.843	800.000	-0.327	-1.124
-512.829	110.589	0.329	-0.396
-511.814	800.000	0.399	-1.162
-510.799	112.555	-0.261	-0.316
-509.785	227.252	-0.329	0.535
-508.770	61.411	0.183	-0.182
-507.756	205.935	0.058	0.090
-506.741	-92.815	-0.222	-0.062
-505.726	-102.446	-0.481	-0.115
-504.712	309.001	0.025	0.047
-503.697	-200.000	-0.044	0.587
-502.683	-200.000	0.061	0.371
-501.668	-200.000	0.138	0.619
-500.653	258.365	0.140	0.242
-499.639	499.514	0.112	-0.258
-498.624	-20.117	-0.482	-0.297
-497.610	-95.982	-0.809	0.215
-496.595	-62.171	-0.401	0.167
-495.581	-200.000	0.074	0.430
-494.566	741.126	-0.268	-0.719
-493.551	24.836	-0.888	-0.736
-492.537	-50.451	0.409	0.193
-491.522	-8.555	0.495	-0.332
-490.508	800.000	0.229	-0.897
-489.493	-200.000	0.016	-0.383
-488.478	-37.045	-0.355	-0.190
-487.464	-200.000	0.114	-0.849
-486.449	592.772	0.174	0.430
-485.435	-200.000	-0.057	-0.725
-484.420	-32.554	0.145	0.080
-483.405	-129.475	-0.198	0.027
-482.391	-4.225	-0.529	-0.366
-481.376	-116.021	-1.109	0.206
-480.362	-116.438	-0.432	-0.080
-479.347	-200.000	-0.075	-1.132
-478.332	-33.928	-0.557	0.306
-477.318	322.784	-0.169	0.322
-476.303	-200.000	-0.028	0.255
-475.289	103.400	0.217	0.254
-474.274	655.147	-0.357	0.916
-473.259	800.000	0.296	1.116
-472.245	131.028	-0.183	0.235
-471.230	-200.000	0.026	0.620
-470.216	751.851	-0.349	0.941
-469.201	800.000	-0.272	0.800
-468.186	-200.000	-0.025	0.120
-467.172	-200.000	0.014	-0.382
-466.157	800.000	-0.187	-0.594
-465.143	142.416	-0.287	0.381
-464.128	-150.789	0.526	0.040
-463.113	-140.080	-0.523	0.055
-462.099	-200.000	-0.002	-0.984
-461.084	-5.388	-0.371	0.254
-460.070	-124.524	0.769	-0.119
-459.055	272.452	0.314	0.554
-458.040	101.170	0.108	0.125
-457.026	180.472	0.275	0.403
-456.011	-88.188	0.257	0.077
-454.997	93.373	-0.522	0.589
-453.982	-64.788	0.586	0.237
-452.968	99.493	-0.205	0.237
-451.953	800.000	-0.118	0.335
-450.938	-84.925	-0.462	-0.145
-449.924	-21.545	0.468	-0.285
-448.909	-200.000	-0.008	0.732
-447.895	-125.469	0.722	0.110
-446.880	353.780	0.468	-0.927
-445.865	127.372	-0.430	-0.545
-444.851	800.000	0.199	0.818
-443.836	374.281	-0.334	0.678
-442.822	-70.032	-0.678	-0.257
-441.807	-47.328	-0.265	-0.129
-440.792	299.927	0.129	-0.236
-439.778	-39.211	0.818	-0.429
-438.763	-71.157	-0.538	-0.201
-437.749	-47.468	0.215	-0.104
-436.734	-138.977	-0.797	-0.086
-435.719	-200.000	0.014	-0.342
-434.705	-200.000	-0.048	-0.223
-433.690	-200.000	0.028	0.126
-432.676	91.093	-0.536	0.600
-431.661	-53.813	-0.856	0.389
-430.646	-19.867	-0.403	-0.248
-429.632	78.301	-0.143	-0.152
-428.617	-6.845	0.306	0.208
-427.603	296.748	0.100	0.182
-426.588	106.553	0.213	-0.252
-425.573	-8.719	-0.290	-0.194
-424.559	-200.000	-0.019	0.387
-423.544	136.146	-0.218	0.283
-422.530	-57.261	0.407	-0.178
-421.515	-97.454	-0.735	-0.190
-420.500	289.885	0.349	-0.632
-419.486	159.699	-0.414	0.574
-418.471	319.790	-0.385	0.728
-417.457	159.541	-0.653	0.906
-416.442	450.584	-0.198	0.436
-415.428	169.171	0.185	0.264
-414.413	-164.676	-0.063	0.003
-413.398	800.000	-0.254	0.707
-412.384	248.747	0.262	0.443
-411.369	798.121	-0.250	-0.686
-410.355	-67.518	0.581	-0.227
-409.340	-200.000	0.000	-0.606
-408.325	-66.625	0.367	-0.145
-407.311	-200.000	0.044	-0.801
-406.296	70.562	-0.765	-0.788
-405.282	455.831	0.094	0.208
-404.267	34.205	0.444	0.386
-403.252	47.758	-0.140	0.130
-402.238	-76.890	0.112	-0.039
-401.223	-38.415	0.475	-0.250
-400.209	800.000	-0.012	0.045
-399.194	131.338	-0.156	-0.200
-398.179	-200.000	-0.025	1.019
-397.165	-47.270	-0.404	-0.196
-396.150	42.646	0.645	-0.585
-395.136	-139.183	0.311	-0.033
-394.121	-138.595	0.453	-0.049
-393.106	85.142	0.403	0.440
-392.092	-97.948	0.850	0.218
-391.077	-37.060	0.607	0.324
-390.063	-99.140	0.495	0.125
-389.048	-18.762	-0.644	0.399
-388.033	800.000	0.071	-0.245
-387.019	379.640	0.259	0.527
-386.004	-75.270	-0.583	-0.207
-384.990	-147.183	0.952	-0.081
-383.975	-100.114	-0.423	0.105
-382.960	-120.531	-0.311	-0.053
-381.946	800.000	0.154	0.560
-380.931	179.408	-0.100	-0.145
-379.917	-86.400	-0.214	0.065
-378.902	92.164	0.146	0.164
-377.888	42.584	0.374	0.339
-376.873	138.902	-0.196	0.256
-375.858	800.000	0.081	-0.298
-374.844	-110.783	-0.833	-0.171
-373.829	353.660	0.184	0.364
-372.815	-200.000	0.072	-1.409
-371.800	-200.000	-0.079	-0.501
-370.785	-32.586	-0.304	0.168
-369.771	-22.799	-0.734	-0.441
-368.756	52.834	0.672	-0.639
-367.742	-79.933	0.498	0.166
-366.727	-79.221	0.150	-0.051
-365.712	11.781	-0.215	0.164
-364.698	386.139	-0.051	-0.106
-363.683	126.203	-0.169	-0.213
-362.669	-37.327	-0.096	0.051
-361.654	-200.000	-0.033	0.208
-360.639	-20.702	0.523	-0.319
-359.625	535.177	-0.080	-0.189
-358.610	-92.942	0.210	-0.058
-357.596	-41.912	-0.513	-0.262
-356.581	-153.873	-0.551	0.037
-355.566	541.306	0.159	-0.378
-354.552	-78.887	-0.758	0.257
-353.537	-144.091	0.950	0.089
-352.523	20.178	0.556	-0.446
-351.508	84.436	-0.395	-0.430
-350.493	-63.130	-0.536	0.220
-349.479	450.824	0.209	-0.458
-348.464	16.401	-0.483	0.379
-347.450	-200.000	0.044	-0.356
-346.435	11.247	-0.147	-0.112
-345.420	-7.078	0.910	0.614
-344.406	90.504	-0.251	0.279
-343.391	177.724	-0.231	0.335
-342.377	-63.202	0.256	0.105
-341.362	800.000	0.196	-0.593
-340.348	-24.756	-0.318	0.188
-339.333	104.688	-0.599	0.702
-338.318	53.971	-0.611	-0.584
-337.304	14.488	-0.415	-0.322
-336.289	38.832	0.380	-0.337
-335.275	293.447	-0.327	0.592
-334.260	217.132	-0.167	0.264
-333.245	-126.978	0.826	-0.121
-332.231	435.116	0.190	0.410
-331.216	220.878	-0.740	1.179
-330.202	-48.880	-0.104	-0.049
-329.187	312.722	-0.455	-0.849
-328.172	-200.000	0.042	0.265
-327.158	430.232	-0.421	0.905
-326.143	-104.876	-0.516	0.118
-325.129	-95.142	0.682	-0.183
-324.114	30.398	0.027	-0.023
-323.099	800.000	-0.143	-0.457
-322.085	33.775	-0.114	-0.098
-321.070	-112.447	0.724	-0.144
-320.056	-200.000	0.027	0.223
-319.041	-200.000	-0.028	-0.494
-318.026	48.114	-0.384	-0.357
-317.012	-120.829	-0.156	0.026
-315.997	-200.000	0.018	0.391
-314.983	-8.559	-0.276	0.184
-313.968	-99.943	0.793	-0.197
-312.953	72.514	-0.229	-0.238
-311.939	-200.000	0.020	-0.153
-310.924	-200.000	0.088	-0.916
-309.910	800.000	0.139	0.473
-308.895	800.000	0.097	0.294
-307.880	-168.121	0.351	-0.014
-306.866	197.635	-0.694	-1.052
-305.851	-114.435	1.243	0.237
-304.837	-200.000	0.083	0.558
-303.822	119.586	0.310	-0.381
-302.807	107.023	0.411	-0.484
-301.793	6.800	0.347	0.257
-300.778	800.000	0.110	-0.382
-299.764	-44.369	0.067	0.033
-298.749	65.112	0.500	0.501
-297.735	-93.970	0.648	-0.177
-296.720	800.000	0.085	-0.274
-295.705	-200.000	0.094	0.527
-294.691	-200.000	0.060	-0.651
-293.676	143.113	0.403	-0.532
-292.662	144.229	-0.376	-0.497
-291.647	-50.269	-0.692	-0.325
-290.632	-38.634	-0.304	-0.159
-289.618	-200.000	0.060	0.312
-288.603	-15.184	0.301	0.191
-287.589	-33.218	-0.175	0.096
-286.574	73.911	-0.689	0.716
-285.559	35.552	0.672	0.585
-284.545	-124.785	0.479	0.073
-283.530	-200.000	-0.013	-0.255
-282.516	-30.085	-0.148	-0.083
-281.501	-200.000	0.010	-0.158
-280.486	96.884	-0.586	0.666
-279.472	-159.943	0.387	0.021
-278.457	132.643	0.106	0.135
-277.443	199.763	-0.376	0.571
-276.428	132.774	-0.248	0.317
-275.413	-200.000	-0.144	-0.666
-274.399	-200.000	-0.002	0.431
-273.384	30.312	0.659	-0.558
-272.370	-56.972	-0.539	0.236
-271.355	177.489	-0.219	0.316
-270.340	82.776	-0.658	-0.709
-269.326	-200.000	-0.008	0.076
-268.311	-110.172	0.418	0.086
-267.297	49.415	0.528	-0.493
-266.282	84.587	-0.517	0.561
-265.267	737.548	-0.160	0.426
-264.253	210.675	-0.203	-0.316
-263.238	-58.202	0.472	0.204
-262.224	221.809	0.360	0.573
-261.209	218.322	0.215	0.340
-260.195	-109.440	-0.177	0.037
-259.180	79.663	-0.090	-0.095
-258.165	8.384	-0.304	-0.226
-257.151	212.276	-0.329	0.513
-256.136	98.481	0.467	-0.534
-255.122	-200.000	-0.093	-0.456
-254.107	95.660	0.212	-0.239
-253.092	-200.000	0.023	0.332
-252.078	177.085	0.288	-0.416
-251.063	586.112	0.132	-0.321
-250.049	-200.000	0.023	-0.337
-249.034	800.000	0.105	0.338
-248.019	86.166	-0.068	-0.074
-247.005	276.839	0.277	-0.488
-245.990	-23.613	0.473	0.281
-244.976	-146.206	0.447	0.039
-243.961	-166.131	-0.407	0.017
-242.946	76.490	-0.355	-0.372
-241.932	-200.000	-0.021	0.133
-240.917	8.627	-0.203	-0.151
-239.903	-128.645	-0.679	0.095
-238.888	27.960	-0.682	0.570
-237.873	-129.705	0.420	0.057
-236.859	-154.936	0.898	-0.059
-235.844	112.955	0.135	0.162
-234.830	-137.595	0.404	-0.045
-233.815	43.892	-0.455	0.413
-232.800	800.000	0.116	0.413
-231.786	51.609	1.163	1.094
-230.771	-13.431	-0.288	-0.185
-229.757	-200.000	-0.015	-0.082
-228.742	800.000	-0.097	0.404
-227.727	-30.659	0.572	-0.320
-226.713	-129.782	0.522	0.071
-225.698	-200.000	-0.001	0.232
-224.684	800.000	-0.110	-0.303
-223.669	142.902	0.123	0.162
-222.655	-74.626	-0.467	0.166
-221.640	-200.000	0.007	0.979
-220.625	-78.209	0.515	0.175
-219.611	-57.754	0.566	-0.245
-218.596	-28.730	0.580	-0.330
-217.582	367.226	0.729	-1.457
-216.567	-143.212	-0.196	0.019
-215.552	-69.284	-0.555	0.211
-214.538	68.001	-0.425	0.430
-213.523	29.789	-0.266	-0.224
-212.509	-158.888	0.493	0.028
-211.494	14.051	0.508	-0.391
-210.479	85.605	0.491	-0.533
-209.465	8.248	0.586	-0.435
-208.450	137.660	-0.120	-0.155
-207.436	-176.625	0.533	-0.014
-206.421	82.838	0.413	-0.444
-205.406	-69.895	-0.107	0.040
-204.392	800.000	0.205	0.693
-203.377	800.000	-0.118	0.414
-202.363	-111.950	-0.486	-0.097
-201.348	-200.000	-0.031	-0.248
-200.333	-200.000	-0.012	0.246
-199.319	278.918	-0.412	0.726
-198.304	267.627	-0.545	-0.942
-197.290	800.000	0.176	-0.670
-196.275	-128.881	-0.265	0.037
-195.260	120.380	0.553	-0.678
-194.246	-12.764	-0.358	0.231
-193.231	-104.664	-0.419	0.095
-192.217	383.264	-0.328	-0.667
-191.202	800.000	-0.084	-0.268
-190.187	240.694	-0.364	0.600
-189.173	65.556	-0.217	-0.217
-188.158	6.066	-0.726	0.531
-187.144	39.974	-0.661	-0.586
-186.129	140.896	0.484	-0.632
-185.114	-142.659	1.157	0.112
-184.100	-52.575	-0.650	0.296
-183.085	203.566	-0.278	-0.425
-182.071	-144.510	-1.051	0.096
-181.056	-112.428	-0.572	0.113
-180.042	-200.000	-0.011	0.448
-179.027	1.146	0.370	-0.262
-178.012	340.145	0.474	0.913
-176.998	1.671	-0.225	0.160
-175.983	-97.456	0.486	-0.125
-174.969	585.093	0.248	0.601
-173.954	-200.000	-0.083	-0.731
-172.939	740.530	0.559	1.483
-171.925	219.628	-0.088	0.139
-170.910	-90.179	-0.470	0.135
-169.896	-152.532	-0.341	-0.024
-168.881	58.834	0.274	0.266
-167.866	800.000	0.172	-0.587
-166.852	400.349	0.490	1.015
-165.837	-12.223	0.255	-0.165
-164.823	-40.968	-0.623	0.318
-163.808	-178.004	-0.553	-0.013
-162.793	-199.419	0.640	0.003
-161.779	800.000	0.099	0.387
-160.764	19.548	-0.196	0.156
-159.750	347.104	-0.390	0.758
-158.735	-200.000	0.181	0.879
-157.720	-200.000	-0.004	0.121
-156.706	62.095	0.183	0.180
-155.691	-97.117	0.602	0.155
-154.677	194.455	-0.109	-0.164
-153.662	-29.707	-0.160	-0.090
-152.647	800.000	-0.332	-1.209
-151.633	-157.422	0.119	0.007
-150.618	89.398	-0.175	0.193
-149.604	-31.765	-0.503	0.278
-148.589	-135.505	0.706	0.083
-147.574	549.503	0.225	0.531
-146.560	748.296	0.337	-0.897
-145.545	47.490	0.558	-0.513
-144.531	207.318	0.104	-0.160
-143.516	-200.000	0.050	0.577
-142.502	800.000	-0.064	-0.249
-141.487	-31.435	-0.234	0.130
-140.472	-93.349	-0.620	-0.170
-139.458	800.000	0.182	-0.743
-138.443	-200.000	0.047	-1.008
-137.429	-65.225	0.415	0.165
-136.414	54.288	0.214	-0.203
-135.399	-200.000	-0.021	-0.262
-134.385	132.163	-0.275	0.349
-133.370	-98.616	-0.390	0.098
-132.356	800.000	-0.113	-0.318
-131.341	131.595	-0.243	-0.308
-130.326	-10.556	-0.336	0.219
-129.312	-77.501	-0.334	0.114
-128.297	-46.277	0.572	0.277
-127.283	-82.448	-0.916	0.293
-126.268	79.523	0.274	-0.290
-125.253	-123.198	0.392	0.062
-124.239	369.138	0.527	1.051
-123.224	-20.872	0.189	0.114
-122.210	152.178	-0.125	-0.168
-121.195	497.569	-0.421	-0.954
-120.180	145.993	0.469	-0.620
-119.166	55.110	-0.513	-0.488
-118.151	-200.000	0.032	-0.439
-117.137	800.000	-0.194	0.548
-116.122	-156.099	0.427	-0.027
-115.107	252.332	-0.814	1.366
-114.093	-111.894	0.384	0.076
-113.078	59.527	-0.289	-0.280
-112.064	406.465	-0.259	0.539
-111.049	-128.892	0.253	0.035
-110.034	82.338	-0.466	-0.497
-109.020	800.000	-0.139	-0.452
-108.005	-50.796	-0.426	-0.197
-106.991	-96.489	-0.789	0.205
-105.976	11.900	0.660	0.500
-104.962	-169.480	-0.219	-0.008
-103.947	-57.254	-0.505	-0.219
-102.932	74.886	0.279	-0.289
-101.918	461.715	0.294	-0.645
-100.903	463.390	-0.100	0.219
-99.889	-39.178	0.100	0.052
-98.874	268.715	0.458	-0.790
-97.859	28.553	0.351	0.292
-96.845	25.218	0.257	-0.210
-95.830	211.746	-0.436	0.676
-94.816	143.010	-0.423	-0.553
-93.801	778.539	-0.171	-0.461
-92.786	800.000	0.186	-0.586
-91.772	-132.387	0.333	0.042
-90.757	-31.631	0.178	-0.098
-89.743	800.000	0.215	0.803
-88.728	800.000	0.261	-0.874
-87.713	-200.000	-0.144	-0.985
-86.699	-0.655	0.168	0.117
-85.684	275.290	0.099	0.173
-84.670	10.246	0.593	0.444
-83.655	554.852	-0.033	-0.079
-82.640	-5.730	0.010	-0.006
-81.626	-154.000	0.475	-0.032
-80.611	80.974	0.722	-0.767
-79.597	-200.000	0.069	-0.367
-78.582	229.616	-0.677	-1.087
-77.567	-70.298	0.509	-0.190
-76.553	-21.964	0.547	-0.327
-75.538	-200.000	-0.036	0.470
-74.524	121.206	-0.716	-0.877
-73.509	-123.502	0.147	-0.023
-72.494	129.083	-0.189	0.237
-71.480	114.622	0.071	0.085
-70.465	-200.000	-0.064	0.905
-69.451	37.456	0.237	-0.207
-68.436	795.694	0.453	-1.226
-67.422	-200.000	-0.070	0.561
-66.407	123.659	-0.484	-0.597
-65.392	-47.980	-0.702	0.334
-64.378	416.823	0.252	0.528
-63.363	14.464	-0.407	-0.312
-62.349	-13.056	-0.320	-0.205
-61.334	-100.019	-1.283	-0.314
-60.319	-63.690	0.735	0.296
-59.305	284.932	-0.957	-1.694
-58.290	193.898	0.898	1.337
-57.276	340.980	0.984	1.888
-56.261	-200.000	98.180	606.486
-55.246	616.511	1380.071	3402.078
-54.232	199.050	2551.310	3840.931
-53.217	116.567	2142.237	2581.843
-52.203	42.260	1687.229	1506.410
-51.188	34.925	1500.333	1290.247
-50.173	32.615	1474.027	1252.240
-49.159	53.256	1528.222	1438.541
-48.144	54.114	1544.163	1459.295
-47.130	35.050	1502.592	1292.829
-46.115	31.915	1488.485	1259.625
-45.100	31.583	1485.026	1254.420
-44.086	31.718	1483.949	1254.369
-43.071	31.716	1481.374	1252.125
-42.057	31.724	1478.213	1249.459
-41.042	31.425	1478.142	1247.357
-40.027	31.578	1477.188	1247.520
-39.013	31.674	1474.875	1246.155
-37.998	31.436	1474.770	1244.432
-36.984	31.305	1474.708	1243.459
-35.969	31.644	1471.220	1242.720
-34.954	31.450	1470.936	1241.144
-33.940	31.745	1468.789	1241.241
-32.925	31.749	1467.117	1239.800
-31.911	31.827	1466.705	1239.921
-30.896	31.752	1464.627	1237.621
-29.881	31.943	1462.825	1237.307
-28.867	31.788	1462.293	1235.787
-27.852	31.523	1461.149	1233.025
-26.838	31.683	1459.205	1232.390
-25.823	31.498	1458.382	1230.425
-24.809	31.778	1455.042	1229.396
-23.794	31.956	1453.754	1229.430
-22.779	31.695	1453.435	1227.396
-21.765	31.828	1452.438	1227.376
-20.750	31.722	1451.573	1225.905
-19.736	31.667	1450.076	1224.236
-18.721	31.381	1450.768	1222.896
-17.706	31.586	1447.666	1221.573
-16.692	31.425	1447.468	1220.306
-15.677	31.738	1445.758	1220.855
-14.663	31.653	1445.271	1219.840
-13.648	31.431	1444.280	1217.515
-12.633	31.552	1443.713	1217.776
-11.619	31.678	1442.966	1217.917
-10.604	31.664	1441.891	1216.869
-9.590	31.448	1442.450	1215.885
-8.575	31.513	1440.215	1214.377
-7.560	31.459	1439.017	1212.971
-6.546	31.896	1436.161	1213.340
-5.531	31.410	1437.595	1211.356
-4.517	31.675	1435.712	1211.434
-3.502	31.486	1435.736	1210.187
-2.487	31.770	1433.379	1209.986
-1.473	31.767	1432.765	1209.401
-0.458	31.470	1432.133	1206.903
0.556	32.882	1422.069	1195.164
1.571	30.008	1396.793	1155.914
2.586	26.228	1339.443	1085.687
3.600	24.657	1259.400	1011.827
4.615	23.153	1212.648	965.974
5.629	19.749	1157.849	904.464
6.644	11.146	1073.886	796.887
7.659	4.695	1034.077	736.804
8.673	3.918	1028.707	729.251
9.688	3.161	1026.003	723.708
10.702	3.269	1023.320	722.260
11.717	3.455	1022.311	722.356
12.731	6.642	1024.574	738.834
13.746	15.133	1036.956	787.793
14.761	22.263	1047.159	829.218
15.775	24.212	1047.555	838.639
16.790	24.013	1046.488	836.774
17.804	23.181	1045.838	832.272
18.819	23.080	1044.424	830.600
19.834	23.022	1042.616	828.818
20.848	22.723	1042.694	827.400
21.863	22.983	1043.398	829.105
22.877	23.075	1041.237	827.745
23.892	23.053	1040.638	827.097
24.907	22.482	1041.470	825.011
25.921	22.305	1040.133	823.048
26.936	22.432	1038.647	822.395
27.950	22.750	1036.916	822.430
28.965	22.596	1036.084	820.985
29.980	22.343	1036.162	819.796
30.994	22.518	1034.847	819.496
32.009	23.155	1032.399	820.438
33.023	23.009	1032.196	819.526
34.038	22.965	1032.150	819.217
35.053	22.759	1032.207	818.231
36.067	22.632	1030.286	816.051
37.082	22.586	1028.613	814.438
38.096	22.531	1028.444	813.980
39.111	22.784	1026.959	813.900
40.126	22.678	1026.471	812.950
41.140	22.642	1026.034	812.368
42.155	22.336	1024.552	809.715
43.169	22.127	1023.117	807.547
44.184	22.007	1021.800	805.886
45.199	22.032	1021.476	805.675
46.213	21.904	1019.638	803.570
47.228	21.944	1019.423	803.509
48.242	22.273	1019.763	805.216
49.257	22.766	1019.328	807.053
50.271	22.579	1018.809	805.717
51.286	22.785	1017.295	805.390
52.301	23.087	1016.576	806.127
53.315	22.838	1015.754	804.267
54.330	22.925	1015.065	804.048
55.344	23.163	1013.275	803.639
56.359	22.846	1012.770	801.727
57.374	22.175	1012.870	798.691
58.388	22.668	1011.589	799.846
59.403	22.240	1010.804	797.214
60.417	22.101	1011.006	796.674
61.432	22.061	1009.449	795.195
62.447	22.205	1008.186	794.778
63.461	21.993	1008.395	793.915
64.476	21.799	1007.630	792.364
65.490	22.040	1006.794	792.724
66.505	21.985	1005.411	791.319
67.520	22.251	1003.996	791.333
68.534	21.969	1004.386	790.299
69.549	22.233	1003.061	790.374
70.563	21.560	1002.743	787.030
71.578	21.995	1000.556	787.195
72.593	21.572	1000.933	785.524
73.607	21.466	997.901	782.598
74.622	21.406	997.715	782.116
75.636	21.498	997.792	782.517
76.651	21.670	997.130	782.698
77.666	21.557	995.924	781.178
78.680	21.627	995.372	780.988
79.695	21.854	995.669	782.168
80.709	21.676	993.278	779.427
81.724	21.637	994.805	780.383
82.739	21.857	993.113	779.964
83.753	21.993	992.485	780.006
84.768	22.682	991.712	782.389
85.782	23.061	991.342	783.705
86.797	23.664	991.313	786.284
87.812	22.760	991.191	782.115
88.826	23.020	990.147	782.373
89.841	23.127	988.998	781.870
90.855	23.063	988.354	781.006
91.870	23.128	988.276	781.163
92.884	23.198	986.498	779.997
93.899	22.929	986.065	778.400
94.914	22.673	985.708	776.923
95.928	23.090	984.526	777.758
96.943	22.708	984.968	776.357
97.957	22.803	982.124	774.464
98.972	22.671	981.769	773.535
99.987	22.562	981.073	772.441
101.001	23.292	979.930	774.665
102.016	22.908	978.968	772.161
103.030	22.553	978.841	770.440
104.045	22.979	977.910	771.499
105.060	23.131	976.227	770.765
106.074	22.862	975.941	769.300
107.089	22.534	975.152	767.180
108.103	22.547	973.992	766.256
109.118	22.239	973.274	764.288
110.133	21.853	971.273	760.974
111.147	21.972	970.877	761.113
112.162	21.845	969.833	759.676
113.176	22.084	967.964	759.175
114.191	21.895	969.049	759.144
115.206	22.263	967.696	759.608
116.220	21.921	967.416	757.841
117.235	21.915	966.308	756.881
118.249	21.699	965.750	755.445
119.264	21.536	965.020	754.104
120.279	21.764	963.081	753.506
121.293	21.502	963.922	752.969
122.308	21.641	961.507	751.611
123.322	21.353	960.747	749.715
124.337	21.451	960.171	749.619
125.352	21.382	958.044	747.597
126.366	21.407	957.182	746.968
127.381	21.238	956.245	745.449
128.395	21.314	956.934	746.244
129.410	21.834	955.618	747.367
130.424	21.592	955.255	745.988
131.439	21.827	953.948	745.898
132.454	21.918	953.774	746.084
133.468	22.040	953.133	746.036
134.483	22.100	952.218	745.508
135.497	22.063	951.290	744.558
136.512	22.008	951.142	744.144
137.527	22.282	949.371	743.850
138.541	22.142	949.149	743.020
139.556	22.192	948.344	742.533
140.570	22.130	948.162	742.063
141.585	22.326	947.587	742.376
142.600	22.609	947.164	743.172
143.614	22.395	947.412	742.397
144.629	23.109	945.508	743.845
145.643	23.184	945.325	743.949
146.658	23.155	943.477	742.309
147.673	22.735	943.155	740.228
148.687	22.415	942.230	738.094
149.702	22.427	939.822	736.195
150.716	22.092	939.937	734.819
151.731	22.462	937.548	734.427
152.746	21.972	937.920	732.609
153.760	22.287	937.414	733.462
154.775	22.120	936.740	732.175
155.789	22.563	935.067	732.645
156.804	23.025	935.013	734.457
157.819	22.763	934.147	732.627
158.833	22.406	933.595	730.645
159.848	22.688	933.000	731.284
160.862	23.116	932.335	732.474
161.877	23.012	931.851	731.596
162.892	22.533	930.257	728.302
163.906	22.318	929.401	726.678
164.921	22.237	929.196	726.120
165.935	22.057	926.564	723.258
166.950	22.076	926.905	723.540
167.964	22.416	925.413	723.706
168.979	22.664	923.795	723.396
169.994	22.531	923.560	722.601
171.008	22.271	921.839	720.126
172.023	22.340	921.268	719.898
173.037	22.544	921.195	720.613
174.052	23.267	919.796	722.407
175.067	23.217	919.316	721.763
176.081	22.336	919.011	717.863
177.096	21.905	917.674	715.000
178.110	21.946	916.886	714.491
179.125	21.698	916.323	712.979
180.140	22.108	915.401	713.867
181.154	21.851	915.309	712.687
182.169	22.193	915.041	713.803
183.183	22.661	914.282	715.045
184.198	22.763	913.902	715.098
185.213	22.559	912.833	713.375
186.227	22.827	912.052	713.787
187.242	22.857	911.745	713.603
188.256	22.864	911.223	713.160
189.271	22.855	910.593	712.566
190.286	23.302	910.293	714.071
191.300	23.229	908.489	712.301
192.315	22.311	907.850	708.043
193.329	21.739	907.394	705.322
194.344	21.544	906.517	703.796
195.359	21.796	905.878	704.248
196.373	22.124	906.032	705.625
197.388	22.767	904.770	707.157
198.402	23.011	904.940	708.202
199.417	22.921	904.810	707.678
200.432	23.242	904.747	708.854
201.446	22.945	904.383	707.315
202.461	23.232	904.095	708.176
203.475	23.499	902.584	707.995
204.490	23.261	902.893	707.225
205.504	22.682	901.124	703.470
206.519	22.675	900.618	702.984
207.534	22.516	899.704	701.574
208.548	22.997	898.512	702.494
209.563	22.818	898.838	701.976
210.577	22.632	898.227	700.697
211.592	22.581	897.036	699.503
212.607	23.106	896.852	701.382
213.621	23.456	896.199	702.197
214.636	23.302	895.583	701.043
215.650	23.046	895.225	699.684
216.665	23.159	895.568	700.340
217.680	22.978	895.067	699.168
218.694	23.096	893.728	698.527
219.709	23.184	893.916	698.960
220.723	23.260	892.478	698.073
221.738	22.876	891.576	695.795
222.753	22.873	891.395	695.578
223.767	22.762	889.916	693.926
224.782	22.814	889.707	693.907
225.796	23.287	888.932	695.099
226.811	23.428	888.402	695.177
227.826	22.941	888.085	692.957
228.840	22.982	886.336	691.690
229.855	22.868	885.545	690.566
230.869	22.561	885.865	689.552
231.884	22.573	884.879	688.771
232.899	22.582	884.024	688.082
233.913	22.744	883.563	688.294
234.928	22.651	883.171	687.566
235.942	22.302	882.733	685.804
236.957	22.069	881.145	683.599
237.972	22.259	880.345	683.659
238.986	22.273	880.045	683.419
240.001	22.549	878.670	683.361
241.015	22.313	879.005	682.647
242.030	22.153	878.409	681.503
243.045	22.366	878.691	682.489
244.059	22.880	877.079	683.164
245.074	22.600	876.552	681.612
246.088	22.504	876.007	680.757
247.103	22.817	876.379	682.195
248.117	23.038	874.744	681.713
249.132	23.690	874.899	684.285
250.147	23.778	874.488	684.246
251.161	24.164	874.751	685.876
252.176	23.947	874.517	684.797
253.190	24.350	872.949	685.058
254.205	24.399	873.169	685.358
255.220	24.302	873.262	684.996
256.234	24.008	872.943	683.557
257.249	24.078	871.591	682.706
258.263	23.819	871.083	681.255
259.278	23.821	871.184	681.280
260.293	23.655	869.608	679.351
261.307	23.773	868.819	679.129
262.322	24.317	868.344	680.772
263.336	24.054	867.404	678.975
264.351	23.893	867.584	678.440
265.366	24.079	866.831	678.500
266.380	23.851	866.682	677.455
267.395	24.125	865.654	677.633
268.409	23.932	864.425	675.878
269.424	23.916	864.613	675.906
270.439	24.037	863.334	675.305
271.453	23.836	863.192	674.371
272.468	23.550	862.446	672.643
273.482	23.435	861.999	671.802
274.497	23.942	860.203	672.258
275.512	24.045	859.363	671.932
276.526	23.936	858.721	670.958
277.541	23.599	859.070	669.898
278.555	23.855	857.489	669.571
279.570	24.240	858.439	671.707
280.585	24.239	858.549	671.728
281.599	24.366	856.320	670.403
282.614	23.942	856.038	668.529
283.628	23.786	855.373	667.366
284.643	23.514	854.563	665.652
285.657	23.405	854.763	665.341
286.672	23.407	854.697	665.236
287.687	23.617	852.980	664.629
288.701	23.616	853.039	664.613
289.716	24.116	851.520	665.238
290.730	23.645	852.332	664.054
291.745	23.695	851.713	663.698
292.760	23.822	850.921	663.495
293.774	23.468	851.321	662.427
294.789	24.287	850.553	664.826
295.803	24.458	849.821	664.834
296.818	24.381	848.853	663.729
297.833	23.545	848.558	660.331
298.847	23.644	847.087	659.495
299.862	23.347	846.686	658.020
300.876	23.531	846.370	658.399
301.891	24.029	845.753	659.708
302.906	23.994	845.145	659.048
303.920	24.319	844.552	659.730
304.935	24.488	844.540	660.285
305.949	25.155	843.524	661.898
306.964	24.586	843.881	660.015
307.979	24.005	843.358	657.403
308.993	24.080	841.614	656.261
310.008	24.361	840.888	656.672
311.022	24.376	841.270	656.969
312.037	24.179	840.955	655.940
313.052	24.080	839.911	654.702
314.066	23.596	839.021	652.171
315.081	23.539	837.662	650.849
316.095	23.246	837.615	649.680
317.110	23.519	836.554	649.801
318.125	23.738	836.205	650.273
319.139	23.251	836.168	648.405
320.154	23.504	834.962	648.336
321.168	23.226	834.362	646.795
322.183	22.981	834.729	646.128
323.197	23.420	834.362	647.391
324.212	23.653	833.134	647.230
325.227	23.330	832.834	645.765
326.241	23.736	831.715	646.317
327.256	23.842	830.944	646.047
328.270	23.483	830.621	644.433
329.285	23.245	830.703	643.573
330.300	23.354	829.753	643.176
331.314	23.056	829.751	642.037
332.329	23.530	828.188	642.489
333.343	24.017	828.188	644.194
334.358	23.861	828.333	643.685
335.373	24.247	827.972	644.745
336.387	24.024	827.117	643.214
337.402	24.015	826.937	642.984
338.416	23.989	826.360	642.386
339.431	24.483	826.107	643.915
340.446	24.492	825.969	643.784
341.460	24.826	824.702	643.942
342.475	24.725	824.895	643.670
343.489	25.038	823.549	643.690
344.504	24.881	823.592	643.100
345.519	24.838	823.720	642.990
346.533	24.952	822.612	642.477
347.548	25.166	821.778	642.535
348.562	24.874	821.364	641.108
349.577	24.740	820.100	639.585
350.592	24.285	820.435	638.162
351.606	24.371	819.067	637.351
352.621	24.358	818.510	636.812
353.635	23.858	818.742	635.151
354.650	24.135	817.678	635.257
355.665	24.362	817.632	635.975
356.679	24.190	817.234	634.995
357.694	24.130	817.587	635.002
358.708	24.581	816.373	635.607
359.723	24.146	815.642	633.436
360.738	24.191	814.671	632.785
361.752	24.103	815.057	632.717
362.767	24.044	814.675	632.153
363.781	24.529	813.515	632.916
364.796	24.989	814.057	634.915
365.810	25.106	814.000	635.228
366.825	24.977	813.180	634.075
367.840	25.195	812.750	634.454
368.854	25.026	811.964	633.190
369.869	24.792	810.932	631.500
370.883	24.425	810.418	629.750
371.898	24.585	810.354	630.208
372.913	24.918	809.678	630.802
373.927	25.181	808.726	630.929
374.942	24.946	808.156	629.602
375.956	24.803	807.525	628.551
376.971	24.736	807.401	628.165
377.986	25.118	807.116	629.228
379.000	25.196	807.155	629.477
380.015	25.381	806.204	629.329
381.029	25.165	805.969	628.331
382.044	24.743	805.524	626.451
383.059	25.009	805.085	626.985
384.073	25.394	803.696	627.194
385.088	25.220	803.353	626.262
386.102	24.881	802.412	624.291
387.117	24.373	801.869	622.045
388.132	24.119	801.543	620.850
389.146	24.316	800.962	621.032
390.161	24.491	800.853	621.500
391.175	24.950	799.776	622.207
392.190	25.272	799.937	623.395
393.205	24.826	799.204	621.219
394.219	24.765	798.235	620.199
395.234	24.208	797.662	617.771
396.248	24.205	797.041	617.224
397.263	24.435	796.424	617.487
398.278	24.415	795.451	616.609
399.292	24.612	794.465	616.470
400.307	24.181	795.215	615.508
401.321	23.934	795.298	614.666
402.336	23.574	795.859	613.799
403.350	24.331	793.896	614.840
404.365	24.502	793.727	615.245
405.380	25.080	793.406	616.933
406.394	25.291	793.660	617.800
407.409	25.591	794.024	619.063
408.423	25.525	793.598	618.448
409.438	25.594	792.836	618.039
410.453	25.657	792.219	617.719
411.467	25.264	792.290	616.371
412.482	25.444	791.124	616.025
413.496	25.310	790.903	615.339
414.511	25.481	791.109	616.033
415.526	25.690	789.834	615.699
416.540	25.591	789.816	615.292
417.555	25.240	789.390	613.706
418.569	25.387	788.010	613.079
419.584	25.690	787.667	613.792
420.599	25.189	788.799	612.909
421.613	161.975	1369.291	1794.589
422.628	140.301	1453.792	1794.608
