DTS Sentinel unit serial number:	SN413079Multiplexer serial number:	ORYXHardware model number:	OX4-SRSoftware version number:	ORYX F/W v4.00 Oryx Data Collector v3.7.2.0data status	okinstallation	princeton_trtdifferential loss correction	single-endedforward channel	channel 3reverse channel	N/Adate	2019/09/14time	18:44:34forward acquisition time	60.00reverse acquisition time	0.00gamma	496.2192k internal	0.2305k external	0.2305temperature offset calibration	1.0020default loss term (dB/km)	0.3790temperature slope calibration	1.0000multiplexer offset coefficient	1.0000multiplexer slope coefficient	1.0000fibre end	0.00T internal ref (°C)	36.12T ext. ref 1 (°C)	4.91T ext. ref 2 (°C)	29.86length (m)	temperature (°C)	Stokes	anti-Stokes-747.200	-169.666	0.151	0.006
-746.185	-32.267	-0.166	0.094
-745.171	800.000	0.113	-0.426
-744.156	-43.309	-0.243	-0.125
-743.142	-122.714	-0.098	-0.016
-742.127	86.741	-0.276	0.310
-741.112	800.000	0.039	-0.123
-740.098	167.543	0.056	0.080
-739.083	-200.000	-0.041	0.210
-738.069	145.172	-0.152	0.207
-737.054	-152.750	-0.401	0.029
-736.039	-33.272	0.098	0.055
-735.025	410.520	-0.077	-0.166
-734.010	127.778	-0.211	-0.273
-732.996	-200.000	-0.016	-0.173
-731.981	-116.620	0.205	-0.038
-730.966	-74.748	-0.189	-0.069
-729.952	-5.820	-0.248	0.173
-728.937	-56.871	-0.140	0.063
-727.923	-200.000	-0.005	-0.162
-726.908	-176.391	-0.087	0.002
-725.894	-91.156	0.284	-0.083
-724.879	-200.000	0.003	-0.262
-723.864	-200.000	0.019	-0.131
-722.850	475.919	0.079	-0.182
-721.835	-200.000	-0.031	-0.269
-720.821	-95.829	0.347	-0.094
-719.806	800.000	-0.021	-0.089
-718.791	138.675	-0.275	-0.368
-717.777	-110.172	0.202	-0.043
-716.762	-115.352	-0.382	0.073
-715.748	103.338	-0.157	-0.187
-714.733	-68.207	-0.140	-0.055
-713.718	243.429	-0.219	-0.373
-712.704	-12.576	0.025	0.017
-711.689	-164.445	0.058	-0.003
-710.675	-49.810	0.289	0.139
-709.660	-200.000	0.003	0.073
-708.645	-168.860	0.208	0.008
-707.631	800.000	-0.089	-0.295
-706.616	-200.000	0.001	-0.284
-705.602	8.781	0.162	0.124
-704.587	-200.000	-0.093	-0.550
-703.572	289.985	0.164	-0.302
-702.558	292.969	-0.100	-0.186
-701.543	-200.000	0.076	-0.452
-700.529	96.004	-0.257	-0.298
-699.514	168.348	-0.084	0.122
-698.499	6.871	-0.179	-0.135
-697.485	-95.550	-0.064	0.017
-696.470	-151.918	-0.400	-0.030
-695.456	-151.244	0.361	0.027
-694.441	-142.014	-0.289	-0.029
-693.426	-76.780	-0.127	0.045
-692.412	-111.787	-0.165	-0.034
-691.397	-35.514	-0.129	0.071
-690.383	-9.100	-0.064	0.044
-689.368	202.921	0.076	-0.119
-688.354	800.000	0.105	-0.314
-687.339	87.017	0.070	0.078
-686.324	133.927	-0.097	0.128
-685.310	703.704	0.062	-0.166
-684.295	11.401	-0.023	0.018
-683.281	-93.853	0.177	-0.049
-682.266	-200.000	-0.012	0.285
-681.251	-175.846	-0.185	0.005
-680.237	-200.000	0.047	0.480
-679.222	89.693	0.075	0.085
-678.208	-40.270	-0.235	0.124
-677.193	343.061	0.106	-0.210
-676.178	-1.370	0.139	-0.099
-675.164	-63.189	-0.132	0.055
-674.149	44.869	-0.321	-0.300
-673.135	62.990	-0.279	-0.284
-672.120	0.576	-0.129	-0.094
-671.105	-25.519	-0.113	-0.068
-670.091	-200.000	-0.017	-0.080
-669.076	-200.000	0.000	-0.063
-668.062	800.000	0.060	-0.253
-667.047	-153.926	-0.026	-0.002
-666.032	141.477	0.167	-0.225
-665.018	-200.000	0.012	0.079
-664.003	196.911	0.191	0.295
-662.989	15.899	-0.134	0.107
-661.974	-60.830	-0.108	0.046
-660.959	-46.570	-0.405	0.202
-659.945	194.793	-0.103	-0.158
-658.930	-127.443	0.131	-0.019
-657.916	443.136	-0.115	0.255
-656.901	-190.268	-0.331	0.004
-655.886	473.783	0.058	0.133
-654.872	-73.601	0.424	0.157
-653.857	173.167	-0.169	-0.246
-652.843	-200.000	-0.019	-0.212
-651.828	37.648	-0.153	-0.138
-650.814	164.921	-0.161	-0.231
-649.799	100.242	0.070	0.082
-648.784	-102.868	-0.364	0.088
-647.770	118.782	0.143	-0.179
-646.755	-114.970	-0.528	0.102
-645.741	-200.000	0.037	-0.212
-644.726	64.899	0.109	-0.111
-643.711	-200.000	0.021	-0.232
-642.697	-144.222	0.348	0.033
-641.682	-68.297	-0.118	-0.046
-640.668	800.000	-0.060	0.202
-639.653	78.186	0.121	0.131
-638.638	-130.271	-0.125	-0.017
-637.624	178.532	0.152	0.225
-636.609	225.888	0.100	0.165
-635.595	-68.219	-0.198	-0.078
-634.580	-155.293	-0.333	0.022
-633.565	242.138	-0.011	-0.019
-632.551	-66.588	-0.133	-0.054
-631.536	11.595	0.248	0.193
-630.522	-24.284	0.177	0.107
-629.507	800.000	0.054	0.190
-628.492	-42.211	0.167	0.086
-627.478	-200.000	-0.004	0.164
-626.463	-200.000	-0.027	0.401
-625.449	15.805	0.096	-0.076
-624.434	129.600	0.250	0.323
-623.419	130.749	0.173	0.225
-622.405	-61.153	0.144	0.061
-621.390	242.150	0.181	-0.307
-620.376	800.000	0.065	0.275
-619.361	-105.569	0.189	0.044
-618.346	-50.035	-0.270	0.130
-617.332	-28.783	-0.046	0.027
-616.317	-200.000	0.066	-0.310
-615.303	800.000	-0.027	-0.087
-614.288	-112.257	0.191	0.039
-613.273	131.335	-0.109	-0.142
-612.259	140.231	-0.273	0.364
-611.244	800.000	0.034	-0.143
-610.230	-200.000	0.014	-0.120
-609.215	-200.000	-0.002	-0.072
-608.201	761.879	0.097	-0.267
-607.186	58.513	0.285	0.283
-606.171	-200.000	0.028	0.136
-605.157	3.562	-0.463	0.342
-604.142	-200.000	0.059	0.266
-603.128	-194.218	-0.098	-0.001
-602.113	800.000	-0.088	0.263
-601.098	-113.338	-0.116	0.023
-600.084	322.573	-0.138	-0.265
-599.069	800.000	-0.049	-0.151
-598.055	723.804	0.113	-0.304
-597.040	800.000	-0.014	0.041
-596.025	363.922	-0.129	-0.262
-595.011	64.055	-0.282	-0.287
-593.996	-96.256	-0.262	-0.070
-592.982	-172.736	0.100	-0.003
-591.967	-91.294	0.380	0.110
-590.952	119.934	-0.027	0.034
-589.938	-200.000	-0.026	-0.179
-588.923	71.398	-0.290	-0.305
-587.909	252.680	-0.232	0.400
-586.894	357.672	-0.078	0.158
-585.879	-3.473	-0.021	-0.015
-584.865	96.179	-0.114	-0.132
-583.850	-200.000	0.037	-0.203
-582.836	392.985	-0.101	-0.212
-581.821	-147.757	-0.159	0.013
-580.806	22.872	-0.041	-0.034
-579.792	549.821	-0.070	-0.169
-578.777	-10.613	-0.300	-0.201
-577.763	-174.564	0.190	0.005
-576.748	-100.679	0.192	-0.048
-575.733	-106.704	-0.265	-0.059
-574.719	6.988	0.323	0.244
-573.704	800.000	0.068	0.243
-572.690	49.598	0.118	-0.113
-571.675	718.659	-0.047	-0.127
-570.661	-100.024	0.195	-0.049
-569.646	48.305	-0.130	-0.123
-568.631	-90.752	0.219	0.064
-567.617	800.000	-0.041	-0.125
-566.602	595.719	0.060	-0.149
-565.588	-200.000	0.044	0.000
-564.573	-200.000	-0.004	0.205
-563.558	13.875	-0.189	-0.149
-562.544	-93.721	0.247	-0.069
-561.529	800.000	-0.041	-0.148
-560.515	-56.340	-0.331	-0.149
-559.500	95.091	0.217	-0.249
-558.485	-126.835	-0.142	0.021
-557.471	800.000	0.042	-0.147
-556.456	644.807	-0.015	0.040
-555.442	164.110	-0.059	0.084
-554.427	69.233	-0.220	0.229
-553.412	-80.977	-0.067	-0.022
-552.398	-155.469	-0.081	0.005
-551.383	-126.865	-0.327	-0.049
-550.369	-91.507	-0.147	0.042
-549.354	-156.365	-0.209	-0.013
-548.339	1.287	-0.077	-0.056
-547.325	276.618	0.129	0.231
-546.310	-21.572	0.134	0.082
-545.296	226.471	0.157	-0.258
-544.281	761.557	-0.120	0.330
-543.266	800.000	-0.016	-0.066
-542.252	416.518	-0.183	0.395
-541.237	-19.037	0.191	-0.120
-540.223	112.315	-0.072	0.088
-539.208	-13.923	0.370	0.242
-538.193	157.951	-0.103	0.143
-537.179	304.516	0.149	-0.279
-536.164	76.396	-0.026	-0.028
-535.150	-20.460	0.234	-0.145
-534.135	-200.000	0.014	-0.155
-533.121	800.000	-0.072	-0.205
-532.106	800.000	-0.121	0.346
-531.091	83.003	0.226	-0.248
-530.077	143.720	-0.080	0.108
-529.062	-9.167	0.279	0.188
-528.048	-200.000	0.014	-0.163
-527.033	800.000	-0.089	-0.276
-526.018	-140.684	0.157	0.016
-525.004	-51.323	-0.260	0.123
-523.989	26.283	-0.163	-0.138
-522.975	800.000	0.048	-0.211
-521.960	14.888	0.146	-0.115
-520.945	-200.000	0.025	0.175
-519.931	-159.021	-0.219	0.013
-518.916	0.430	-0.114	-0.082
-517.902	-42.766	-0.118	0.061
-516.887	518.567	0.070	-0.164
-515.872	161.320	0.165	-0.232
-514.858	266.621	0.117	-0.206
-513.843	-200.000	0.021	0.184
-512.829	244.768	0.199	-0.338
-511.814	-102.331	0.076	0.018
-510.799	-149.401	-0.059	0.005
-509.785	297.082	-0.130	-0.240
-508.770	557.740	0.076	0.185
-507.756	117.955	0.160	0.199
-506.741	-100.397	0.267	-0.067
-505.726	-32.246	-0.245	-0.138
-504.712	-200.000	-0.019	0.217
-503.697	75.424	-0.148	-0.158
-502.683	-114.851	0.265	-0.051
-501.668	800.000	0.069	-0.289
-500.653	-200.000	0.014	0.089
-499.639	83.647	0.044	-0.049
-498.624	800.000	0.031	0.126
-497.610	-120.803	0.197	-0.034
-496.595	800.000	0.068	-0.219
-495.581	13.568	0.102	0.080
-494.566	25.872	-0.078	0.066
-493.551	-115.784	-0.188	-0.036
-492.537	60.275	-0.123	0.122
-491.522	60.043	0.231	-0.231
-490.508	124.259	0.035	-0.044
-489.493	281.524	-0.066	0.120
-488.478	35.825	-0.093	0.082
-487.464	800.000	-0.086	-0.368
-486.449	-61.721	-0.248	0.105
-485.435	78.862	0.163	0.175
-484.420	-200.000	0.047	0.297
-483.405	-200.000	-0.020	-0.175
-482.391	800.000	-0.103	-0.308
-481.376	-100.472	0.230	-0.057
-480.362	77.417	-0.078	-0.084
-479.347	-200.000	-0.023	-0.274
-478.332	76.728	0.033	-0.035
-477.318	-187.001	-0.166	0.002
-476.303	800.000	-0.042	-0.119
-475.289	-16.384	-0.152	0.097
-474.274	-200.000	-0.045	0.252
-473.259	418.316	-0.059	-0.127
-472.245	-104.785	-0.109	-0.025
-471.230	-94.156	0.251	0.069
-470.216	-153.815	-0.084	-0.006
-469.201	-4.149	-0.221	-0.154
-468.186	-200.000	-0.014	-0.128
-467.172	-100.866	-0.273	-0.068
-466.157	-33.386	-0.131	-0.073
-465.143	-79.154	-0.217	-0.074
-464.128	-119.973	0.111	-0.019
-463.113	515.812	0.196	-0.461
-462.099	32.833	-0.168	0.146
-461.084	-137.680	-0.227	0.026
-460.070	-51.865	0.157	0.074
-459.055	-200.000	-0.032	0.185
-458.040	-8.565	-0.129	-0.087
-457.026	-200.000	-0.084	0.399
-456.011	800.000	-0.014	0.058
-454.997	-200.000	0.012	-0.145
-453.982	-25.645	0.080	0.047
-452.968	95.505	-0.154	-0.176
-451.953	54.724	0.074	-0.072
-450.938	557.748	-0.144	-0.351
-449.924	-125.325	0.475	-0.073
-448.909	-100.485	0.169	0.042
-447.895	321.574	-0.039	0.075
-446.880	-85.755	0.350	-0.109
-445.865	95.489	-0.217	0.249
-444.851	-38.066	0.217	0.116
-443.836	-200.000	-0.022	-0.101
-442.822	-20.288	0.247	-0.153
-441.807	-102.371	-0.082	0.020
-440.792	606.464	-0.174	-0.437
-439.778	-200.000	0.001	-0.058
-438.763	-10.305	0.363	-0.242
-437.749	-107.332	0.297	0.066
-436.734	24.920	0.373	0.311
-435.719	88.137	-0.111	0.124
-434.705	-200.000	-0.011	-0.148
-433.690	-11.528	-0.108	0.071
-432.676	800.000	-0.131	0.452
-431.661	698.912	-0.021	-0.055
-430.646	121.033	0.084	-0.105
-429.632	475.456	0.125	0.284
-428.617	-200.000	0.050	0.223
-427.603	57.368	0.063	0.062
-426.588	766.075	0.097	-0.264
-425.573	-40.154	-0.074	0.039
-424.559	-176.516	0.174	-0.005
-423.544	134.693	-0.173	-0.225
-422.530	562.407	-0.180	0.437
-421.515	473.910	0.076	0.173
-420.500	-38.723	0.220	-0.117
-419.486	5.298	-0.124	-0.092
-418.471	655.141	-0.080	-0.208
-417.457	-66.364	-0.229	0.092
-416.442	123.920	0.093	0.117
-415.428	-35.598	0.258	-0.141
-414.413	280.156	-0.054	0.097
-413.398	-59.145	0.215	0.093
-412.384	-184.058	-0.305	0.005
-411.369	-117.866	0.298	-0.054
-410.355	180.669	0.276	0.407
-409.340	-45.713	-0.193	0.096
-408.325	-77.048	0.183	-0.064
-407.311	-200.000	0.007	-0.054
-406.296	-174.387	0.105	0.003
-405.282	127.545	-0.207	0.265
-404.267	800.000	-0.018	0.065
-403.252	12.301	-0.053	0.041
-402.238	-200.000	-0.003	-0.223
-401.223	-105.412	-0.458	0.105
-400.209	23.508	-0.052	-0.043
-399.194	-200.000	0.044	-0.240
-398.179	540.614	0.029	-0.069
-397.165	85.798	0.111	-0.123
-396.150	800.000	-0.012	0.041
-395.136	-37.159	0.078	-0.042
-394.121	2.188	-0.146	-0.106
-393.106	99.299	0.133	-0.155
-392.092	-49.959	-0.147	0.070
-391.077	-200.000	-0.010	-0.186
-390.063	1.614	0.145	-0.104
-389.048	-200.000	0.022	0.101
-388.033	274.821	0.051	-0.091
-387.019	78.530	-0.114	-0.122
-386.004	-200.000	-0.047	-0.274
-384.990	638.776	0.209	-0.534
-383.975	-16.018	-0.158	0.101
-382.960	-57.959	0.154	0.067
-381.946	-57.834	0.143	-0.063
-380.931	-23.131	-0.192	0.116
-379.917	800.000	-0.086	-0.265
-378.902	-88.913	0.125	-0.037
-377.888	54.299	-0.174	-0.168
-376.873	-75.617	-0.191	-0.068
-375.858	-200.000	-0.072	-0.391
-374.844	-9.998	0.253	-0.169
-373.829	-16.779	-0.138	-0.087
-372.815	-43.650	0.082	-0.041
-371.800	137.500	-0.242	0.317
-370.785	-82.539	-0.402	0.131
-369.771	-113.406	-0.248	-0.049
-368.756	-37.533	-0.056	0.030
-367.742	800.000	-0.091	-0.298
-366.727	-33.943	0.186	-0.102
-365.712	800.000	-0.047	0.161
-364.698	-46.044	-0.236	-0.117
-363.683	170.670	0.151	-0.217
-362.669	-69.564	-0.141	-0.054
-361.654	38.536	0.009	0.008
-360.639	-200.000	0.000	0.131
-359.625	-200.000	-0.009	-0.366
-358.610	166.366	0.076	-0.107
-357.596	-200.000	0.008	0.176
-356.581	-153.071	-0.238	-0.017
-355.566	12.981	-0.184	-0.143
-354.552	73.587	0.143	-0.151
-353.537	-105.642	0.436	0.099
-352.523	-200.000	-0.009	-0.061
-351.508	800.000	-0.012	0.036
-350.493	24.431	-0.215	0.178
-349.479	-135.450	0.225	-0.027
-348.464	494.840	-0.051	-0.118
-347.450	-55.812	0.165	0.074
-346.435	8.067	-0.173	0.130
-345.420	331.300	-0.090	0.174
-344.406	-200.000	-0.036	-0.240
-343.391	28.535	0.201	0.170
-342.377	-200.000	-0.054	0.255
-341.362	-27.696	0.298	0.173
-340.348	-55.584	-0.117	-0.053
-339.333	56.017	-0.234	0.228
-338.318	415.007	-0.082	0.175
-337.304	262.451	-0.090	-0.156
-336.289	-200.000	-0.071	0.399
-335.275	800.000	-0.022	0.088
-334.260	285.107	-0.163	0.294
-333.245	147.095	0.073	0.098
-332.231	800.000	-0.118	0.367
-331.216	800.000	0.099	0.307
-330.202	-200.000	0.048	0.275
-329.187	189.751	-0.286	-0.430
-328.172	-62.872	-0.150	0.062
-327.158	-200.000	0.005	0.135
-326.143	-200.000	0.012	0.201
-325.129	65.396	0.100	0.102
-324.114	-118.193	0.441	-0.079
-323.099	-49.444	0.077	0.037
-322.085	-151.185	0.118	0.009
-321.070	446.727	0.096	-0.212
-320.056	-20.556	0.168	0.103
-319.041	-5.909	-0.351	-0.241
-318.026	-45.825	0.287	-0.142
-317.012	-109.006	-0.080	-0.017
-315.997	-34.848	0.247	-0.135
-314.983	12.161	-0.109	0.084
-313.968	423.434	0.077	-0.166
-312.953	318.303	0.151	-0.287
-311.939	-73.828	0.324	-0.118
-310.924	300.041	0.112	0.206
-309.910	-63.811	0.289	-0.118
-308.895	541.681	-0.058	0.139
-307.880	341.430	-0.092	-0.180
-306.866	800.000	-0.042	-0.147
-305.851	780.156	0.079	-0.216
-304.837	-132.157	0.255	0.033
-303.822	800.000	-0.042	0.156
-302.807	-40.552	-0.227	0.118
-301.793	44.496	0.056	-0.052
-300.778	-18.044	-0.305	-0.191
-299.764	-200.000	0.001	0.183
-298.749	800.000	-0.033	-0.139
-297.735	303.956	-0.136	0.252
-296.720	593.607	-0.139	0.344
-295.705	91.133	-0.131	-0.147
-294.691	139.436	-0.059	-0.077
-293.676	52.378	0.158	-0.151
-292.662	-46.126	0.156	-0.077
-291.647	-49.579	-0.280	-0.133
-290.632	800.000	0.061	-0.175
-289.618	-200.000	-0.004	-0.259
-288.603	-160.590	-0.043	0.002
-287.589	-200.000	-0.028	0.217
-286.574	-78.847	-0.200	-0.068
-285.559	60.426	0.197	-0.195
-284.545	-69.011	0.212	0.082
-283.530	-84.118	0.372	-0.118
-282.516	215.245	-0.033	-0.052
-281.501	-200.000	-0.020	0.394
-280.486	116.232	0.081	-0.099
-279.472	-68.639	0.300	0.116
-278.457	-9.286	-0.226	-0.151
-277.443	-29.357	0.123	-0.070
-276.428	-200.000	-0.047	-0.376
-275.413	-57.076	-0.264	0.116
-274.399	-200.000	-0.005	0.091
-273.384	100.979	-0.125	-0.145
-272.370	-200.000	-0.026	0.175
-271.355	9.514	0.134	-0.102
-270.340	-72.508	-0.326	-0.120
-269.326	-18.278	-0.095	-0.059
-268.311	-200.000	-0.012	0.260
-267.297	800.000	0.061	-0.221
-266.282	-58.390	-0.179	-0.078
-265.267	800.000	0.041	0.169
-264.253	-133.476	0.126	0.016
-263.238	-72.405	0.236	-0.087
-262.224	-70.768	0.209	0.079
-261.209	-103.488	-0.110	0.026
-260.195	800.000	0.008	-0.023
-259.180	-200.000	-0.031	0.189
-258.165	-73.653	0.206	0.075
-257.151	800.000	-0.071	0.233
-256.136	-151.357	0.117	-0.009
-255.122	800.000	-0.087	-0.313
-254.107	517.630	0.102	-0.239
-253.092	85.038	0.116	0.127
-252.078	172.365	0.118	0.169
-251.063	-164.429	-0.069	-0.003
-250.049	257.723	-0.146	0.251
-249.034	-87.741	0.296	-0.089
-248.019	301.133	-0.123	0.228
-247.005	-133.248	-0.162	0.020
-245.990	-105.007	-0.050	-0.011
-244.976	387.850	-0.111	-0.229
-243.961	-36.378	-0.048	0.026
-242.946	-200.000	0.061	0.320
-241.932	800.000	-0.034	-0.100
-240.917	-162.204	0.131	-0.007
-239.903	26.950	0.166	0.139
-238.888	-200.000	0.004	-0.041
-237.873	65.154	0.221	0.223
-236.859	-88.827	0.025	-0.007
-235.844	-80.962	0.228	-0.075
-234.830	-84.674	-0.364	0.114
-233.815	800.000	-0.047	-0.146
-232.800	185.368	-0.035	-0.052
-231.786	257.298	-0.243	0.417
-230.771	800.000	0.007	-0.022
-229.757	800.000	-0.028	0.124
-228.742	-200.000	-0.015	-0.273
-227.727	25.667	-0.158	0.131
-226.713	-108.054	0.101	-0.022
-225.698	47.601	0.128	-0.119
-224.684	-46.007	-0.245	-0.120
-223.669	-103.758	-0.188	-0.044
-222.655	-138.580	0.168	0.018
-221.640	11.761	0.240	-0.184
-220.625	194.096	-0.169	0.256
-219.611	-15.723	-0.235	0.150
-218.596	7.892	-0.093	0.070
-217.582	800.000	0.133	0.540
-216.567	-200.000	-0.044	0.246
-215.552	-75.456	0.230	0.082
-214.538	-58.272	0.289	0.126
-213.523	-6.001	-0.150	0.102
-212.509	129.342	-0.280	0.356
-211.494	30.035	0.342	-0.290
-210.479	-154.461	0.136	-0.009
-209.465	-200.000	-0.035	0.210
-208.450	-96.248	-0.161	-0.043
-207.436	800.000	0.063	0.219
-206.421	800.000	-0.100	0.366
-205.406	-200.000	0.019	-0.092
-204.392	-147.445	-0.190	0.016
-203.377	800.000	-0.059	0.211
-202.363	194.731	0.118	-0.178
-201.348	-156.317	0.210	0.013
-200.333	-49.797	0.016	0.008
-199.319	14.519	-0.215	0.167
-198.304	-200.000	0.012	-0.372
-197.290	604.848	-0.046	0.113
-196.275	5.969	0.362	-0.267
-195.260	-6.680	0.110	0.074
-194.246	-106.354	-0.135	-0.030
-193.231	800.000	-0.057	0.204
-192.217	428.488	0.043	0.091
-191.202	-200.000	0.020	-0.146
-190.187	122.529	-0.066	-0.083
-189.173	-200.000	0.006	0.300
-188.158	-200.000	-0.003	0.154
-187.144	-200.000	0.021	-0.132
-186.129	14.435	-0.050	0.039
-185.114	-200.000	0.011	0.302
-184.100	-126.689	0.304	-0.045
-183.085	-129.907	-0.297	-0.041
-182.071	154.314	0.058	0.079
-181.056	-105.628	0.212	0.048
-180.042	15.324	-0.165	-0.129
-179.027	-106.020	0.181	-0.041
-178.012	-200.000	0.004	0.264
-176.998	225.260	0.066	0.107
-175.983	319.139	-0.093	-0.175
-174.969	104.313	-0.131	0.153
-173.954	215.712	-0.101	0.160
-172.939	-37.774	-0.348	-0.184
-171.925	235.330	-0.116	0.190
-170.910	24.447	0.088	-0.073
-169.896	47.093	0.290	-0.269
-168.881	-100.501	0.205	-0.050
-167.866	50.721	-0.142	-0.134
-166.852	-200.000	0.007	0.179
-165.837	6.448	0.106	-0.078
-164.823	43.959	-0.139	-0.127
-163.808	-200.000	0.041	0.220
-162.793	-200.000	-0.020	-0.197
-161.779	-68.341	0.225	0.087
-160.764	12.928	0.132	-0.102
-159.750	66.992	-0.063	-0.064
-158.735	41.323	0.192	0.173
-157.720	-200.000	-0.040	-0.293
-156.706	319.577	0.237	0.448
-155.691	800.000	-0.071	0.226
-154.677	-186.419	-0.254	-0.004
-153.662	86.518	-0.283	0.310
-152.647	93.958	0.100	0.112
-151.633	-200.000	0.044	-0.219
-150.618	-68.505	0.086	0.033
-149.604	-82.430	-0.113	0.037
-148.589	-1.008	-0.041	-0.029
-147.574	51.989	0.120	0.114
-146.560	800.000	0.059	-0.214
-145.545	-57.922	-0.202	0.088
-144.531	149.527	-0.158	0.213
-143.516	-29.087	-0.157	0.089
-142.502	216.819	-0.153	0.242
-141.487	50.900	0.573	0.539
-140.472	207.566	-0.132	0.205
-139.458	-200.000	-0.036	0.272
-138.443	-17.864	0.294	-0.183
-137.429	-200.000	-0.057	0.331
-136.414	291.720	-0.073	-0.133
-135.399	-93.803	-0.144	0.039
-134.385	-132.259	-0.096	0.012
-133.370	800.000	0.038	-0.108
-132.356	150.717	0.191	-0.258
-131.341	-167.776	0.133	-0.005
-130.326	139.963	0.165	-0.217
-129.312	-61.143	-0.292	0.122
-128.297	-200.000	-0.020	0.258
-127.283	-89.904	-0.166	0.048
-126.268	800.000	-0.033	-0.142
-125.253	-9.086	-0.421	-0.280
-124.239	-200.000	-0.076	0.364
-123.224	-113.420	0.218	0.042
-122.210	0.967	0.286	-0.203
-121.195	-200.000	-0.036	0.224
-120.180	-197.890	-0.410	-0.002
-119.166	107.893	0.160	-0.189
-118.151	355.930	-0.174	-0.344
-117.137	41.637	0.165	-0.148
-116.122	157.314	0.054	-0.075
-115.107	-91.962	0.267	0.075
-114.093	-108.789	0.181	-0.038
-113.078	107.606	0.130	0.153
-112.064	-98.022	0.077	-0.020
-111.049	583.614	0.086	0.209
-110.034	-60.725	-0.241	0.101
-109.020	381.548	-0.108	0.220
-108.005	-169.915	0.232	0.008
-106.991	-58.988	-0.141	0.060
-105.976	-200.000	0.071	-0.443
-104.962	-200.000	-0.042	0.464
-103.947	-95.854	-0.084	-0.022
-102.932	-112.737	0.230	-0.045
-101.918	141.008	0.072	-0.094
-100.903	288.559	-0.031	0.056
-99.889	140.056	0.065	-0.085
-98.874	119.885	0.124	-0.152
-97.859	572.985	-0.125	-0.302
-96.845	-84.323	0.095	0.030
-95.830	364.291	-0.091	0.182
-94.816	81.681	-0.081	0.087
-93.801	-200.000	0.029	-0.140
-92.786	494.591	-0.069	-0.157
-91.772	307.445	-0.076	0.141
-90.757	418.953	0.088	0.186
-89.743	57.727	0.130	0.127
-88.728	-100.169	0.198	0.049
-87.713	800.000	-0.044	0.146
-86.699	-130.674	-0.070	-0.009
-85.684	8.058	-0.128	-0.095
-84.670	-200.000	0.013	0.204
-83.655	-63.635	-0.209	0.085
-82.640	800.000	-0.117	0.410
-81.626	-174.794	-0.215	0.006
-80.611	744.458	0.128	0.341
-79.597	-200.000	0.029	0.231
-78.582	-137.835	0.258	0.029
-77.567	-1.127	-0.301	0.211
-76.553	800.000	0.050	-0.211
-75.538	-103.556	-0.177	0.041
-74.524	52.536	-0.065	-0.061
-73.509	220.579	0.164	-0.261
-72.494	265.331	-0.111	0.192
-71.480	-200.000	-0.038	0.209
-70.465	-120.901	-0.362	0.060
-69.451	130.125	-0.202	0.257
-68.436	319.637	0.130	0.244
-67.422	-25.646	-0.300	-0.175
-66.407	-78.748	0.141	0.048
-65.392	-181.247	0.381	-0.007
-64.378	-127.301	-0.255	0.037
-63.363	-129.110	-0.230	0.032
-62.349	169.719	-0.183	0.259
-61.334	43.050	-0.845	-0.764
-60.319	375.943	0.215	0.435
-59.305	264.167	-0.726	-1.251
-58.290	56.275	0.704	0.678
-57.276	409.908	0.762	1.601
-56.261	-200.000	93.416	556.717
-55.246	634.737	1374.294	3454.288
-54.232	189.437	2582.201	3834.887
-53.217	124.743	2197.514	2741.130
-52.203	46.797	1732.958	1595.214
-51.188	39.138	1542.449	1366.804
-50.173	36.808	1514.451	1326.003
-49.159	55.450	1563.354	1498.909
-48.144	59.132	1583.227	1543.515
-47.130	39.647	1538.967	1367.028
-46.115	36.362	1523.977	1331.061
-45.100	36.136	1520.412	1326.336
-44.086	36.163	1518.518	1324.823
-43.071	36.140	1516.295	1322.670
-42.057	36.075	1515.138	1321.165
-41.042	36.062	1513.610	1319.688
-40.027	36.082	1512.574	1318.870
-39.013	36.118	1510.726	1317.453
-37.998	35.993	1509.774	1315.716
-36.984	36.065	1508.293	1314.868
-35.969	36.085	1507.089	1313.899
-34.954	36.086	1505.591	1312.546
-33.940	36.100	1504.112	1311.299
-32.925	36.154	1502.653	1310.343
-31.911	36.124	1501.786	1309.332
-30.896	36.171	1500.463	1308.450
-29.881	36.158	1498.647	1306.724
-28.867	36.153	1497.580	1305.710
-27.852	36.204	1496.128	1304.731
-26.838	36.166	1494.494	1302.999
-25.823	36.176	1493.087	1301.793
-24.809	36.217	1490.599	1299.845
-23.794	36.150	1489.770	1298.617
-22.779	36.210	1488.468	1297.839
-21.765	36.180	1487.902	1297.090
-20.750	36.118	1487.074	1295.900
-19.736	36.161	1485.358	1294.640
-18.721	36.235	1484.327	1294.188
-17.706	36.169	1482.965	1292.505
-16.692	36.123	1481.969	1291.283
-15.677	36.182	1481.054	1290.824
-14.663	36.136	1480.244	1289.759
-13.648	36.066	1478.964	1288.126
-12.633	36.084	1478.104	1287.446
-11.619	36.151	1477.495	1287.316
-10.604	36.139	1476.358	1286.192
-9.590	36.136	1475.456	1285.331
-8.575	36.056	1474.918	1284.284
-7.560	36.080	1473.955	1283.553
-6.546	36.020	1473.312	1282.543
-5.531	36.139	1471.921	1282.073
-4.517	36.140	1471.024	1281.246
-3.502	36.157	1470.022	1280.436
-2.487	36.175	1468.662	1279.319
-1.473	36.023	1468.360	1277.998
-0.458	36.106	1466.619	1276.980
0.556	35.607	1457.361	1265.030
1.571	32.265	1429.182	1218.836
2.586	28.023	1366.124	1138.596
3.600	25.938	1281.540	1055.808
4.615	24.206	1234.193	1006.933
5.629	20.797	1177.500	942.180
6.644	12.457	1092.241	831.853
7.659	5.789	1050.669	767.571
8.673	4.965	1044.994	759.343
9.688	4.811	1042.513	756.723
10.702	4.874	1040.929	755.813
11.717	4.990	1038.831	754.784
12.731	7.195	1040.806	766.836
13.746	14.605	1051.405	810.700
14.761	19.836	1057.817	841.075
15.775	19.401	1055.858	837.329
16.790	18.431	1053.497	830.682
17.804	17.230	1051.931	823.560
18.819	16.306	1049.634	817.216
19.834	15.820	1048.075	813.583
20.848	15.687	1047.074	812.091
21.863	15.459	1046.714	810.637
22.877	15.304	1045.902	809.189
23.892	15.053	1044.770	807.034
24.907	15.036	1044.056	806.327
25.921	14.848	1044.123	805.401
26.936	14.986	1042.717	804.912
27.950	15.078	1041.466	804.317
28.965	15.125	1040.106	803.420
29.980	15.083	1039.329	802.546
30.994	15.152	1039.016	802.565
32.009	15.222	1038.172	802.174
33.023	15.491	1036.964	802.457
34.038	15.328	1036.097	800.937
35.053	15.305	1034.782	799.743
36.067	15.228	1034.001	798.697
37.082	15.198	1033.295	797.941
38.096	15.103	1032.782	797.019
39.111	15.316	1032.086	797.427
40.126	15.336	1030.947	796.571
41.140	15.198	1029.536	794.758
42.155	14.995	1028.706	793.085
43.169	14.889	1027.963	791.938
44.184	14.782	1027.199	790.771
45.199	14.849	1025.781	789.926
46.213	14.906	1024.547	789.175
47.228	14.954	1023.641	788.638
48.242	15.095	1022.693	788.501
49.257	15.134	1021.990	788.070
50.271	15.089	1021.228	787.201
51.286	15.170	1019.689	786.327
52.301	15.161	1019.309	785.921
53.315	15.099	1019.169	785.455
54.330	15.067	1018.107	784.416
55.344	15.054	1016.499	783.046
56.359	15.061	1015.408	782.170
57.374	15.043	1014.840	781.579
58.388	15.007	1013.513	780.320
59.403	14.762	1013.567	779.149
60.417	14.840	1012.393	778.543
61.432	14.840	1011.866	778.066
62.447	14.841	1010.970	777.312
63.461	14.827	1010.186	776.578
64.476	14.735	1009.337	775.429
65.490	14.742	1008.595	774.824
66.505	14.696	1007.576	773.757
67.520	14.736	1006.912	773.364
68.534	14.873	1005.895	773.150
69.549	14.682	1005.412	771.825
70.563	14.783	1004.594	771.597
71.578	14.866	1003.855	771.346
72.593	14.693	1002.727	769.614
73.607	14.589	1002.145	768.617
74.622	14.684	1001.156	768.230
75.636	14.690	999.822	767.164
76.651	14.686	999.603	766.909
77.666	14.735	998.525	766.240
78.680	14.690	997.986	765.554
79.695	14.714	997.281	765.056
80.709	14.806	996.792	765.031
81.724	14.793	995.963	764.270
82.739	14.984	995.020	764.349
83.753	14.900	994.650	763.615
84.768	14.997	993.886	763.403
85.782	15.105	993.309	763.383
86.797	15.220	992.494	763.215
87.812	15.345	991.137	762.670
88.826	15.180	990.569	761.417
89.841	15.250	990.074	761.290
90.855	15.107	989.364	760.027
91.870	15.204	988.578	759.792
92.884	15.322	987.435	759.384
93.899	15.132	987.335	758.379
94.914	15.292	986.355	758.283
95.928	15.269	985.723	757.627
96.943	15.297	984.861	757.021
97.957	15.217	984.069	755.985
98.972	15.199	983.315	755.259
99.987	15.175	982.565	754.508
101.001	15.302	981.770	754.400
102.016	15.172	981.141	753.265
103.030	15.178	980.055	752.393
104.045	15.233	979.005	751.770
105.060	15.395	977.801	751.504
106.074	15.107	977.245	749.719
107.089	15.026	976.137	748.443
108.103	14.784	975.329	746.676
109.118	14.898	974.122	746.193
110.133	14.923	973.455	745.726
111.147	14.890	972.455	744.747
112.162	14.874	971.771	744.087
113.176	14.868	971.205	743.562
114.191	14.983	969.971	743.063
115.206	15.082	969.000	742.693
116.220	15.021	968.204	741.747
117.235	15.016	967.729	741.295
118.249	14.928	966.978	740.261
119.264	14.888	966.382	739.566
120.279	14.998	964.894	738.848
121.293	14.806	964.737	737.812
122.308	14.843	964.016	737.359
123.322	14.867	962.741	736.425
124.337	14.821	961.652	735.325
125.352	14.745	960.603	734.121
126.366	14.765	959.909	733.617
127.381	14.721	958.624	732.376
128.395	14.773	957.550	731.719
129.410	14.683	957.229	731.012
130.424	14.849	955.766	730.559
131.439	14.865	955.213	730.139
132.454	14.939	954.223	729.643
133.468	14.946	953.322	728.919
134.483	14.991	953.214	728.968
135.497	15.014	952.423	728.399
136.512	14.994	951.547	727.578
137.527	15.106	950.646	727.310
138.541	15.096	949.869	726.610
139.556	15.054	949.533	726.105
140.570	14.995	948.507	724.999
141.585	15.045	948.211	724.928
142.600	15.193	947.109	724.658
143.614	15.247	946.515	724.372
144.629	15.133	945.910	723.354
145.643	15.336	945.133	723.573
146.658	15.255	944.370	722.577
147.673	15.257	943.109	721.555
148.687	15.203	942.227	720.584
149.702	15.129	941.137	719.371
150.716	14.972	940.742	718.330
151.731	15.057	939.699	717.832
152.746	15.012	939.068	717.095
153.760	15.004	938.322	716.430
154.775	15.015	937.926	716.109
155.789	15.136	936.811	715.713
156.804	15.214	936.058	715.408
157.819	15.158	935.629	714.775
158.833	15.280	934.614	714.457
159.848	15.435	933.904	714.513
160.862	15.364	933.780	714.050
161.877	15.449	932.769	713.579
162.892	15.128	931.986	711.552
163.906	15.133	930.602	710.454
164.921	15.172	930.199	710.246
165.935	15.246	928.646	709.311
166.950	15.107	928.434	708.501
167.964	15.138	927.654	707.971
168.979	15.202	926.553	707.339
169.994	15.134	925.168	705.934
171.008	15.061	924.365	704.951
172.023	15.264	923.605	705.162
173.037	15.287	923.237	704.915
174.052	15.364	922.913	704.929
175.067	15.367	921.744	703.986
176.081	15.244	920.987	702.831
177.096	15.096	920.095	701.467
178.110	15.141	919.415	701.077
179.125	15.189	918.570	700.569
180.140	15.226	917.534	699.872
181.154	15.277	917.246	699.806
182.169	15.271	916.585	699.211
183.183	15.400	915.960	699.212
184.198	15.502	914.958	698.808
185.213	15.348	914.735	697.937
186.227	15.397	914.155	697.638
187.242	15.437	913.101	696.934
188.256	15.516	912.548	696.780
189.271	15.524	911.974	696.313
190.286	15.552	911.321	695.869
191.300	15.488	910.507	694.919
192.315	15.296	909.623	693.389
193.329	15.073	908.626	691.649
194.344	15.107	908.076	691.308
195.359	15.207	907.671	691.351
196.373	15.374	907.282	691.684
197.388	15.462	906.749	691.576
198.402	15.612	906.173	691.697
199.417	15.635	905.929	691.541
200.432	15.789	905.466	691.760
201.446	15.740	905.184	691.282
202.461	15.818	904.656	691.138
203.475	15.947	904.058	691.151
204.490	16.012	903.242	690.732
205.504	15.849	902.339	689.312
206.519	15.569	901.894	687.765
207.534	15.665	900.914	687.350
208.548	15.764	900.043	687.030
209.563	15.540	899.838	685.895
210.577	15.614	899.173	685.632
211.592	15.673	898.345	685.180
212.607	15.775	897.924	685.214
213.621	15.841	897.425	685.041
214.636	15.847	896.419	684.234
215.650	15.753	895.940	683.426
216.665	15.802	895.589	683.298
217.680	15.874	895.199	683.234
218.694	15.785	895.128	682.758
219.709	16.059	894.035	682.972
220.723	15.974	893.448	682.119
221.738	15.982	892.944	681.706
222.753	15.926	892.045	680.736
223.767	15.929	891.193	680.037
224.782	16.180	890.079	680.140
225.796	16.065	889.810	679.411
226.811	16.069	889.418	679.066
227.826	16.002	888.758	678.233
228.840	16.009	887.973	677.601
229.855	15.876	887.399	676.569
230.869	15.907	886.553	675.989
231.884	15.850	885.940	675.232
232.899	15.794	885.655	674.730
233.913	15.900	884.425	674.158
234.928	15.797	883.933	673.313
235.942	15.942	882.773	672.950
236.957	15.885	882.137	672.176
237.972	15.930	881.485	671.799
238.986	15.881	880.862	671.070
240.001	15.894	880.693	670.932
241.015	16.099	879.435	670.732
242.030	15.966	879.120	669.905
243.045	16.055	878.545	669.761
244.059	16.171	877.922	669.684
245.074	16.136	877.171	668.916
246.088	16.165	876.059	668.122
247.103	16.241	876.017	668.331
248.117	16.131	875.647	667.555
249.132	16.309	875.284	667.923
250.147	16.378	874.607	667.622
251.161	16.595	873.924	667.898
252.176	16.540	873.355	667.187
253.190	16.599	872.719	666.875
254.205	16.467	872.257	665.942
255.220	16.767	871.165	666.230
256.234	16.676	870.694	665.451
257.249	16.608	870.112	664.680
258.263	16.622	869.236	664.008
259.278	16.745	869.233	664.431
260.293	16.671	868.642	663.628
261.307	16.775	867.886	663.400
262.322	16.882	867.597	663.539
263.336	16.853	867.145	663.022
264.351	16.825	866.352	662.250
265.366	16.783	865.765	661.576
266.380	16.917	864.840	661.335
267.395	16.817	864.395	660.546
268.409	16.877	863.433	659.984
269.424	16.725	862.689	658.768
270.439	16.710	862.248	658.313
271.453	16.720	861.283	657.558
272.468	16.807	860.433	657.187
273.482	16.621	860.131	656.178
274.497	16.708	859.377	655.880
275.512	16.776	858.422	655.358
276.526	16.732	857.974	654.789
277.541	16.655	857.175	653.822
278.555	16.721	857.129	653.985
279.570	16.927	856.539	654.271
280.585	17.036	856.139	654.329
281.599	17.007	855.467	653.645
282.614	16.800	854.595	652.125
283.628	16.907	854.009	652.032
284.643	17.074	853.378	652.133
285.657	16.860	852.820	650.825
286.672	16.836	852.645	650.542
287.687	17.044	852.108	650.876
288.701	16.952	851.741	650.185
289.716	16.991	851.110	649.792
290.730	17.013	850.269	649.178
291.745	16.938	850.147	648.741
292.760	16.996	849.106	648.109
293.774	17.033	848.336	647.606
294.789	17.036	847.802	647.154
295.803	17.247	847.124	647.383
296.818	17.100	846.685	646.431
297.833	17.083	846.261	645.986
298.847	16.972	845.567	644.974
299.862	17.005	844.928	644.557
300.876	17.078	844.202	644.221
301.891	17.196	843.442	644.035
302.906	17.217	842.751	643.527
303.920	17.300	841.949	643.174
304.935	17.248	841.509	642.583
305.949	17.374	841.280	642.827
306.964	17.433	840.481	642.383
307.979	17.286	839.951	641.366
308.993	17.365	839.473	641.242
310.008	17.423	838.882	640.954
311.022	17.519	838.258	640.782
312.037	17.394	837.795	639.901
313.052	17.394	837.456	639.585
314.066	17.405	836.625	638.933
315.081	17.307	836.196	638.184
316.095	17.080	835.960	637.094
317.110	17.107	835.243	636.594
318.125	17.246	834.613	636.575
319.139	17.232	834.057	636.042
320.154	17.199	833.819	635.683
321.168	17.219	833.244	635.262
322.183	17.286	832.509	634.897
323.197	17.230	832.046	634.277
324.212	17.363	831.374	634.206
325.227	17.430	830.914	634.046
326.241	17.435	830.668	633.823
327.256	17.379	829.907	632.979
328.270	17.272	829.527	632.234
329.285	17.296	828.799	631.711
330.300	17.202	828.357	630.971
331.314	17.151	827.721	630.240
332.329	17.408	826.700	630.359
333.343	17.410	826.365	630.055
334.358	17.581	825.892	630.274
335.373	17.622	825.169	629.815
336.387	17.566	824.741	629.227
337.402	17.541	824.402	628.822
338.416	17.571	823.690	628.331
339.431	17.733	823.180	628.483
340.446	17.767	822.887	628.330
341.460	17.851	821.901	627.832
342.475	17.818	821.728	627.522
343.489	17.924	820.821	627.164
344.504	17.965	820.365	626.911
345.519	18.015	820.091	626.831
346.533	18.039	819.679	626.549
347.548	18.129	818.939	626.253
348.562	17.960	818.466	625.221
349.577	17.875	817.724	624.288
350.592	17.878	817.402	623.997
351.606	17.650	816.932	622.748
352.621	17.697	816.413	622.470
353.635	17.589	816.054	621.748
354.650	17.723	815.679	621.895
355.665	17.792	815.378	621.862
356.679	17.923	814.430	621.561
357.694	17.787	814.314	620.923
358.708	17.991	813.572	621.044
359.723	18.085	812.800	620.739
360.738	17.971	812.173	619.794
361.752	17.952	811.819	619.400
362.767	18.059	811.578	619.548
363.781	18.132	811.133	619.419
364.796	17.962	811.054	618.688
365.810	18.202	810.522	619.094
366.825	18.382	810.099	619.368
367.840	18.325	809.705	618.807
368.854	18.114	809.605	617.912
369.869	18.218	809.152	617.887
370.883	18.163	808.213	616.917
371.898	18.267	807.618	616.785
372.913	18.350	806.662	616.298
373.927	18.289	806.489	615.894
374.942	18.182	805.777	614.910
375.956	18.426	804.753	614.949
376.971	18.584	804.239	615.069
377.986	18.390	804.257	614.332
379.000	18.598	803.441	614.400
380.015	18.373	803.359	613.477
381.029	18.566	802.581	613.519
382.044	18.603	801.886	613.067
383.059	18.473	801.245	612.058
384.073	18.571	801.146	612.279
385.088	18.573	800.125	611.450
386.102	18.492	800.012	611.022
387.117	18.336	799.467	609.995
388.132	18.377	799.116	609.819
389.146	18.478	798.304	609.503
390.161	18.372	798.222	609.012
391.175	18.512	798.048	609.321
392.190	18.668	797.371	609.306
393.205	18.683	796.932	608.969
394.219	18.585	796.377	608.144
395.234	18.529	795.880	607.513
396.248	18.379	795.595	606.708
397.263	18.424	794.400	605.905
398.278	18.245	794.634	605.396
399.292	18.339	793.998	605.188
400.307	18.375	793.597	604.957
401.321	18.358	793.228	604.562
402.336	18.411	792.770	604.347
403.350	18.428	792.640	604.255
404.365	18.515	791.977	604.002
405.380	18.509	791.473	603.542
406.394	18.615	791.183	603.641
407.409	18.817	790.630	603.877
408.423	18.891	790.164	603.727
409.438	18.924	789.683	603.420
410.453	18.706	789.580	602.524
411.467	18.828	789.000	602.458
412.482	18.855	788.590	602.183
413.496	18.952	788.219	602.189
414.511	18.870	787.867	601.579
415.526	18.958	787.595	601.626
416.540	18.970	787.137	601.263
417.555	19.074	786.091	600.775
418.569	18.938	786.062	600.227
419.584	18.918	785.724	599.845
420.599	19.118	785.141	600.043
421.613	154.151	1367.543	1787.110
422.628	133.141	1452.416	1787.242
