DTS Sentinel unit serial number:	SN413079Multiplexer serial number:	ORYXHardware model number:	OX4-SRSoftware version number:	ORYX F/W v4.00 Oryx Data Collector v3.7.2.0data status	okinstallation	princeton_trtdifferential loss correction	single-endedforward channel	channel 3reverse channel	N/Adate	2019/09/13time	23:08:35forward acquisition time	60.00reverse acquisition time	0.00gamma	496.2192k internal	0.2338k external	0.2338temperature offset calibration	1.0062default loss term (dB/km)	0.3790temperature slope calibration	1.0000multiplexer offset coefficient	1.0000multiplexer slope coefficient	1.0000fibre end	0.00T internal ref (°C)	27.19T ext. ref 1 (°C)	3.20T ext. ref 2 (°C)	21.19length (m)	temperature (°C)	Stokes	anti-Stokes-747.200	-105.542	-0.254	0.058
-746.185	-28.712	-0.368	0.213
-745.171	-64.851	-0.071	-0.029
-744.156	27.160	-0.048	-0.040
-743.142	-87.730	0.313	-0.095
-742.127	169.875	-0.209	0.299
-741.112	-36.008	-0.180	0.098
-740.098	68.089	0.166	0.170
-739.083	17.183	-0.210	-0.167
-738.069	637.609	0.071	0.181
-737.054	3.967	0.083	0.061
-736.039	800.000	-0.068	0.193
-735.025	-200.000	-0.008	-0.101
-734.010	-168.474	-0.060	-0.002
-732.996	647.393	0.033	-0.086
-731.981	277.877	0.078	0.139
-730.966	-157.788	-0.090	-0.005
-729.952	-142.049	0.106	-0.011
-728.937	-139.019	-0.157	-0.017
-727.923	-200.000	-0.003	-0.100
-726.908	800.000	-0.042	-0.119
-725.894	290.960	-0.104	-0.190
-724.879	-50.092	-0.081	-0.039
-723.864	-119.211	0.111	0.019
-722.850	-27.116	-0.145	-0.085
-721.835	800.000	0.057	0.208
-720.821	18.167	-0.279	-0.223
-719.806	800.000	0.039	0.114
-718.791	46.774	-0.118	-0.110
-717.777	-200.000	0.023	-0.188
-716.762	35.372	0.156	0.138
-715.748	76.641	0.056	-0.060
-714.733	695.721	-0.049	0.130
-713.718	-200.000	0.055	0.247
-712.704	232.883	-0.049	-0.081
-711.689	-27.578	-0.138	-0.080
-710.675	88.741	0.075	-0.084
-709.660	-149.871	0.253	0.020
-708.645	153.583	0.198	-0.272
-707.631	-140.147	-0.188	0.020
-706.616	-200.000	0.050	-0.344
-705.602	-75.797	-0.149	-0.053
-704.587	-200.000	-0.080	-0.371
-703.572	-200.000	0.003	0.275
-702.558	90.642	-0.139	-0.156
-701.543	-124.201	0.238	-0.037
-700.529	117.928	0.127	0.156
-699.514	583.565	-0.015	-0.036
-698.499	-134.535	0.012	0.001
-697.485	-200.000	-0.017	-0.309
-696.470	-144.220	-0.303	-0.028
-695.456	-111.089	-0.231	-0.047
-694.441	800.000	0.059	0.205
-693.426	800.000	0.098	0.333
-692.412	-121.324	0.066	-0.011
-691.397	-200.000	0.030	0.364
-690.383	175.512	-0.264	-0.383
-689.368	32.388	-0.187	-0.162
-688.354	-15.843	-0.161	0.103
-687.339	-200.000	-0.016	0.102
-686.324	89.552	0.158	-0.176
-685.310	-118.910	-0.049	0.009
-684.295	-7.741	0.160	0.108
-683.281	-200.000	-0.054	0.415
-682.266	224.300	-0.141	-0.229
-681.251	114.870	-0.111	-0.135
-680.237	373.964	-0.009	0.017
-679.222	25.007	0.231	-0.192
-678.208	800.000	-0.050	-0.145
-677.193	-44.918	-0.082	-0.041
-676.178	58.193	-0.074	-0.073
-675.164	800.000	-0.101	0.380
-674.149	-155.437	0.314	-0.020
-673.135	89.230	-0.193	0.215
-672.120	377.084	0.012	0.024
-671.105	694.147	-0.138	0.363
-670.091	-68.527	-0.283	-0.110
-669.076	409.999	-0.086	-0.182
-668.062	248.904	-0.088	-0.149
-667.047	235.735	-0.057	-0.095
-666.032	30.491	-0.089	0.076
-665.018	354.015	0.155	-0.308
-664.003	478.544	0.125	-0.283
-662.989	-100.976	0.307	0.075
-661.974	344.716	-0.064	0.125
-660.959	-82.010	0.284	0.093
-659.945	-48.192	0.458	-0.221
-658.930	12.441	-0.168	-0.130
-657.916	-193.513	0.175	-0.002
-656.901	800.000	0.010	-0.029
-655.886	174.343	-0.128	0.185
-654.872	800.000	0.033	-0.096
-653.857	-40.111	-0.140	-0.073
-652.843	83.816	0.286	-0.312
-651.828	26.925	-0.131	-0.110
-650.814	77.080	0.059	-0.063
-649.799	-200.000	0.021	-0.098
-648.784	800.000	-0.064	0.247
-647.770	142.065	-0.032	0.042
-646.755	-200.000	0.006	0.129
-645.741	-169.781	-0.234	0.008
-644.726	231.212	-0.216	0.354
-643.711	-74.038	0.311	0.113
-642.697	-145.475	0.204	-0.018
-641.682	-2.975	-0.073	-0.051
-640.668	-82.109	0.288	-0.094
-639.653	193.284	-0.152	-0.230
-638.638	-102.817	0.216	0.051
-637.624	-93.666	-0.200	-0.055
-636.609	48.518	0.177	-0.166
-635.595	800.000	0.014	0.051
-634.580	-135.060	-0.232	0.028
-633.565	-8.693	-0.156	0.104
-632.551	124.219	0.054	0.068
-631.536	692.017	-0.071	0.185
-630.522	2.491	-0.290	0.210
-629.507	-26.461	0.256	-0.150
-628.492	-100.528	0.285	-0.071
-627.478	345.302	-0.095	-0.187
-626.463	-175.775	-0.142	0.004
-625.449	36.883	0.139	0.122
-624.434	-40.953	0.265	0.137
-623.419	17.635	-0.238	-0.189
-622.405	-200.000	-0.022	-0.197
-621.390	-39.321	0.059	-0.031
-620.376	-200.000	-0.024	0.154
-619.361	7.135	-0.297	-0.222
-618.346	-60.309	0.042	-0.018
-617.332	3.630	0.222	-0.162
-616.317	130.276	0.175	0.224
-615.303	-146.435	-0.378	-0.033
-614.288	-187.445	-0.138	-0.002
-613.273	-45.171	-0.081	0.040
-612.259	260.865	-0.123	0.213
-611.244	-155.056	0.175	-0.011
-610.230	12.934	-0.192	-0.149
-609.215	-95.202	0.081	-0.022
-608.201	-36.954	-0.253	-0.135
-607.186	-52.548	0.284	-0.131
-606.171	386.572	-0.048	0.099
-605.157	615.772	0.019	-0.047
-604.142	23.248	-0.126	0.103
-603.128	-200.000	0.043	-0.222
-602.113	68.669	0.067	-0.069
-601.098	382.971	-0.095	-0.195
-600.084	6.256	-0.124	0.092
-599.069	-200.000	0.001	-0.119
-598.055	54.052	-0.160	0.153
-597.040	-187.188	-0.231	-0.003
-596.025	-200.000	0.040	-0.260
-595.011	151.203	-0.047	0.064
-593.996	-64.084	-0.333	-0.135
-592.982	70.559	-0.203	-0.209
-591.967	234.371	0.181	-0.297
-590.952	-104.205	0.123	0.029
-589.938	-135.029	0.184	0.022
-588.923	-200.000	-0.074	0.337
-587.909	174.418	0.323	0.465
-586.894	-95.290	-0.556	-0.149
-585.879	25.068	-0.108	-0.090
-584.865	402.610	0.087	-0.183
-583.850	-200.000	-0.026	-0.186
-582.836	-60.608	0.181	0.076
-581.821	-200.000	-0.076	0.358
-580.806	241.517	0.128	0.214
-579.792	65.936	0.094	0.095
-578.777	58.194	-0.230	-0.225
-577.763	-68.165	0.145	0.056
-576.748	180.785	-0.094	0.138
-575.733	-165.928	0.133	-0.006
-574.719	-200.000	-0.003	0.235
-573.704	-17.720	-0.329	-0.206
-572.690	23.668	-0.129	0.106
-571.675	-200.000	0.042	0.196
-570.661	99.564	0.090	0.103
-569.646	-200.000	0.061	0.293
-568.631	-200.000	-0.033	0.201
-567.617	272.988	0.105	-0.185
-566.602	345.051	-0.155	-0.304
-565.588	82.547	0.342	-0.370
-564.573	102.078	-0.166	0.193
-563.558	56.588	0.306	-0.296
-562.544	126.811	0.115	0.145
-561.529	655.159	0.031	0.079
-560.515	-86.235	0.091	0.028
-559.500	80.719	0.036	-0.038
-558.485	-55.751	0.050	0.022
-557.471	64.479	0.109	-0.109
-556.456	-56.529	0.112	-0.049
-555.442	-52.681	-0.232	0.107
-554.427	-200.000	0.046	0.502
-553.412	733.717	0.069	0.185
-552.398	262.768	0.184	-0.318
-551.383	123.182	-0.098	-0.123
-550.369	-19.352	0.068	0.042
-549.354	-52.891	-0.191	-0.087
-548.339	-102.409	0.243	0.058
-547.325	-200.000	-0.017	-0.198
-546.310	20.996	0.221	0.179
-545.296	-200.000	0.002	-0.038
-544.281	-51.406	-0.175	-0.081
-543.266	74.225	-0.042	-0.044
-542.252	-79.988	0.194	-0.065
-541.237	32.209	0.212	-0.182
-540.223	83.354	0.186	0.202
-539.208	-142.535	-0.230	-0.022
-538.193	-80.715	0.156	-0.051
-537.179	-200.000	-0.038	-0.198
-536.164	353.600	-0.072	0.143
-535.150	75.700	0.075	0.079
-534.135	-108.227	-0.196	0.042
-533.121	25.678	-0.143	0.119
-532.106	644.287	-0.104	-0.264
-531.091	160.828	-0.108	0.150
-530.077	-68.935	-0.226	-0.087
-529.062	9.605	-0.081	-0.061
-528.048	-82.161	-0.062	-0.020
-527.033	20.088	-0.244	-0.196
-526.018	-71.496	0.552	-0.205
-525.004	90.013	0.281	-0.313
-523.989	800.000	-0.035	-0.141
-522.975	-65.931	-0.212	-0.084
-521.960	-200.000	-0.016	0.167
-520.945	222.198	0.178	-0.286
-519.931	220.349	0.082	0.130
-518.916	-81.472	-0.498	0.163
-517.902	-146.156	0.193	-0.017
-516.887	-32.688	-0.187	0.104
-515.872	-35.179	0.186	-0.101
-514.858	-55.979	-0.176	0.078
-513.843	800.000	0.113	-0.347
-512.829	652.768	0.063	-0.160
-511.814	-100.185	-0.453	-0.112
-510.799	-79.545	-0.241	-0.081
-509.785	55.159	0.179	-0.172
-508.770	-200.000	-0.036	0.287
-507.756	-43.777	0.134	-0.067
-506.741	-200.000	-0.005	0.227
-505.726	167.955	-0.128	-0.181
-504.712	-120.123	0.279	0.047
-503.697	-53.214	0.162	0.074
-502.683	477.021	0.162	0.364
-501.668	800.000	-0.061	0.227
-500.653	17.870	-0.198	0.156
-499.639	541.873	0.038	-0.090
-498.624	-127.413	-0.476	-0.069
-497.610	77.614	0.310	0.328
-496.595	-50.224	-0.124	0.059
-495.581	-200.000	-0.010	0.264
-494.566	-96.064	0.282	0.074
-493.551	35.140	-0.262	0.229
-492.537	22.419	-0.158	-0.128
-491.522	-200.000	-0.010	-0.066
-490.508	79.353	0.007	0.007
-489.493	243.061	-0.018	0.029
-488.478	11.915	-0.290	0.221
-487.464	-118.414	-0.482	0.085
-486.449	-131.990	0.416	-0.054
-485.435	447.809	0.121	-0.264
-484.420	121.027	-0.046	0.057
-483.405	-200.000	-0.023	-0.177
-482.391	752.930	-0.061	-0.163
-481.376	-184.786	0.242	0.004
-480.362	122.482	-0.165	-0.205
-479.347	-51.999	0.234	-0.108
-478.332	800.000	-0.056	-0.204
-477.318	-2.249	-0.312	-0.218
-476.303	175.066	-0.072	-0.104
-475.289	31.024	0.177	0.150
-474.274	150.097	0.063	0.085
-473.259	38.874	-0.271	-0.240
-472.245	-4.493	0.170	0.117
-471.230	-115.563	0.286	-0.053
-470.216	-145.423	-0.271	0.024
-469.201	184.135	-0.048	0.071
-468.186	60.640	-0.160	0.158
-467.172	378.687	-0.062	0.126
-466.157	-176.888	-0.051	0.001
-465.143	61.831	-0.178	-0.176
-464.128	125.157	-0.157	-0.196
-463.113	-81.140	-0.032	0.011
-462.099	-200.000	-0.034	-0.225
-461.084	-148.146	-0.085	-0.007
-460.070	800.000	0.094	0.292
-459.055	6.207	0.314	0.231
-458.040	-27.607	0.285	-0.164
-457.026	-200.000	0.006	-0.033
-456.011	-103.331	0.090	-0.021
-454.997	-12.098	0.162	0.105
-453.982	-123.512	0.184	-0.029
-452.968	-89.730	0.194	0.056
-451.953	-200.000	-0.008	-0.094
-450.938	-37.668	-0.187	0.099
-449.924	-200.000	-0.027	0.282
-448.909	800.000	-0.101	-0.302
-447.895	-98.096	0.343	0.088
-446.880	-17.000	0.100	0.063
-445.865	227.598	0.014	-0.022
-444.851	-21.921	0.108	-0.065
-443.836	-83.717	-0.099	0.031
-442.822	187.617	-0.137	0.203
-441.807	163.352	-0.142	-0.197
-440.792	-200.000	-0.007	0.097
-439.778	-108.200	0.181	-0.039
-438.763	44.462	0.189	-0.172
-437.749	145.720	-0.024	-0.032
-436.734	122.987	-0.127	0.158
-435.719	-31.740	-0.108	-0.060
-434.705	108.509	-0.094	-0.111
-433.690	-66.898	0.122	-0.048
-432.676	800.000	-0.058	-0.199
-431.661	-181.940	-0.091	0.002
-430.646	103.159	0.281	0.327
-429.632	-34.943	0.307	-0.166
-428.617	-72.749	-0.325	0.119
-427.603	153.909	0.131	0.179
-426.588	-114.623	-0.212	-0.040
-425.573	-115.108	0.130	-0.024
-424.559	-78.753	0.086	-0.029
-423.544	138.000	0.149	0.194
-422.530	-14.930	0.220	0.140
-421.515	-52.942	0.114	0.052
-420.500	-62.484	-0.430	-0.177
-419.486	155.517	-0.181	-0.247
-418.471	512.703	0.045	0.105
-417.457	-200.000	0.039	-0.185
-416.442	321.828	-0.085	-0.159
-415.428	126.880	-0.193	0.243
-414.413	344.602	0.081	0.157
-413.398	-200.000	0.005	0.051
-412.384	800.000	0.088	-0.301
-411.369	-200.000	0.012	-0.161
-410.355	97.260	-0.272	-0.309
-409.340	-167.769	0.320	-0.013
-408.325	800.000	0.076	0.327
-407.311	-13.531	0.179	0.115
-406.296	112.994	0.113	-0.135
-405.282	800.000	-0.079	0.262
-404.267	21.130	-0.288	-0.232
-403.252	-185.643	-0.083	-0.001
-402.238	-116.059	0.274	-0.050
-401.223	-85.348	0.134	-0.041
-400.209	593.999	-0.114	0.279
-399.194	-200.000	0.003	0.049
-398.179	-35.538	0.308	-0.166
-397.165	-59.694	0.082	0.035
-396.150	-200.000	0.005	0.199
-395.136	-82.483	-0.407	-0.131
-394.121	-67.151	-0.052	0.020
-393.106	491.243	0.075	-0.171
-392.092	-200.000	0.023	0.158
-391.077	800.000	0.016	0.046
-390.063	-139.957	-0.176	0.018
-389.048	-200.000	0.047	0.273
-388.033	296.021	0.209	0.379
-387.019	-115.312	0.169	0.032
-386.004	-135.683	-0.206	0.024
-384.990	-21.413	-0.145	-0.088
-383.975	-124.812	0.345	-0.053
-382.960	386.885	-0.120	-0.246
-381.946	-189.580	-0.438	0.005
-380.931	-200.000	-0.029	-0.229
-379.917	-135.072	0.062	-0.007
-378.902	359.814	-0.093	0.184
-377.888	800.000	0.036	0.138
-376.873	3.893	0.174	-0.126
-375.858	-71.803	-0.237	-0.087
-374.844	-13.278	-0.126	-0.081
-373.829	-15.495	0.095	-0.060
-372.815	-38.330	-0.368	-0.193
-371.800	-64.940	0.140	-0.056
-370.785	-51.774	0.151	0.070
-369.771	200.122	0.125	0.190
-368.756	-200.000	0.003	0.154
-367.742	-200.000	-0.027	0.162
-366.727	-200.000	0.020	-0.185
-365.712	8.692	0.338	0.252
-364.698	800.000	0.152	-0.417
-363.683	-23.134	-0.165	-0.098
-362.669	-200.000	0.036	0.189
-361.654	760.903	-0.093	0.248
-360.639	-200.000	0.020	-0.125
-359.625	800.000	0.054	-0.180
-358.610	15.542	0.094	0.073
-357.596	236.378	0.100	0.163
-356.581	73.638	0.171	-0.177
-355.566	-136.411	0.237	0.027
-354.552	800.000	-0.083	0.343
-353.537	800.000	0.049	0.156
-352.523	767.385	0.022	-0.059
-351.508	800.000	-0.049	-0.153
-350.493	46.910	0.062	0.057
-349.479	117.780	-0.118	-0.144
-348.464	450.108	-0.038	-0.084
-347.450	-200.000	-0.001	0.227
-346.435	-47.963	-0.217	-0.104
-345.420	31.725	0.100	0.085
-344.406	-108.867	0.262	0.055
-343.391	800.000	-0.055	-0.214
-342.377	-47.591	0.086	-0.041
-341.362	-200.000	0.012	0.147
-340.348	283.628	-0.091	-0.161
-339.333	265.404	0.103	-0.178
-338.318	276.610	0.102	0.179
-337.304	-24.135	-0.092	0.054
-336.289	-200.000	-0.024	0.291
-335.275	-136.924	0.208	-0.024
-334.260	-107.792	-0.040	-0.009
-333.245	-155.483	0.145	-0.009
-332.231	421.078	0.046	-0.097
-331.216	33.255	0.278	-0.238
-330.202	-200.000	0.011	-0.140
-329.187	-200.000	-0.015	-0.209
-328.172	785.422	0.118	0.319
-327.158	-9.414	-0.221	0.146
-326.143	-70.324	-0.294	0.110
-325.129	18.535	-0.264	-0.208
-324.114	-147.640	0.060	-0.005
-323.099	-66.368	-0.250	-0.098
-322.085	368.344	-0.167	-0.333
-321.070	-72.343	-0.123	-0.045
-320.056	-98.631	0.041	-0.010
-319.041	-130.595	-0.238	-0.032
-318.026	-200.000	0.012	0.127
-317.012	-94.066	-0.130	0.035
-315.997	-39.910	-0.289	0.149
-314.983	205.214	-0.129	0.198
-313.968	-20.110	-0.081	0.049
-312.953	-89.521	0.129	0.037
-311.939	261.001	0.147	-0.252
-310.924	13.333	-0.247	-0.189
-309.910	0.669	0.206	-0.145
-308.895	-200.000	0.065	0.446
-307.880	138.068	0.226	0.292
-306.866	494.264	-0.058	0.131
-305.851	11.231	0.126	0.095
-304.837	170.106	-0.248	0.350
-303.822	4.350	-0.156	-0.113
-302.807	257.991	0.038	0.064
-301.793	-200.000	0.003	0.040
-300.778	-3.908	-0.234	0.160
-299.764	-73.911	-0.065	0.023
-298.749	-88.897	0.135	0.039
-297.735	423.931	-0.095	0.201
-296.720	800.000	-0.078	-0.223
-295.705	-66.093	0.050	0.020
-294.691	800.000	0.050	-0.160
-293.676	170.254	-0.081	0.115
-292.662	35.702	0.168	0.145
-291.647	-72.109	-0.234	-0.086
-290.632	268.030	-0.018	0.032
-289.618	559.069	0.042	-0.100
-288.603	170.630	0.088	0.124
-287.589	-128.196	-0.182	-0.026
-286.574	376.019	-0.043	0.087
-285.559	-51.955	-0.139	-0.064
-284.545	-132.154	-0.081	0.010
-283.530	-17.310	0.120	0.075
-282.516	-160.066	0.063	0.003
-281.501	-200.000	0.014	0.147
-280.486	-136.623	-0.190	-0.022
-279.472	56.447	-0.208	-0.200
-278.457	142.856	0.044	0.058
-277.443	210.025	0.038	0.058
-276.428	-51.839	0.316	0.145
-275.413	-98.498	0.215	-0.054
-274.399	-58.786	0.205	-0.088
-273.384	19.159	-0.129	0.102
-272.370	-92.798	0.045	0.012
-271.355	-200.000	-0.020	0.308
-270.340	-172.141	-0.144	0.005
-269.326	107.459	0.166	-0.195
-268.311	236.848	-0.202	-0.329
-267.297	134.134	0.056	0.071
-266.282	-74.108	0.141	-0.050
-265.267	-31.544	-0.079	0.044
-264.253	-200.000	-0.005	0.043
-263.238	545.961	0.150	0.354
-262.224	-119.621	-0.402	-0.069
-261.209	-75.280	0.418	-0.147
-260.195	19.250	-0.116	-0.092
-259.180	21.765	-0.285	0.229
-258.165	273.987	0.138	0.241
-257.151	800.000	0.067	-0.233
-256.136	800.000	0.036	0.112
-255.122	727.133	0.072	-0.189
-254.107	-32.886	-0.251	-0.137
-253.092	-116.814	-0.196	-0.035
-252.078	-12.373	0.025	0.016
-251.063	129.033	0.164	0.206
-250.049	-200.000	-0.007	0.211
-249.034	2.619	0.198	0.141
-248.019	256.009	0.034	0.057
-247.005	800.000	0.045	-0.135
-245.990	-86.584	0.023	0.007
-244.976	-15.496	0.180	0.113
-243.961	0.336	-0.153	0.107
-242.946	247.564	0.107	0.178
-241.932	-20.865	0.150	-0.090
-240.917	-200.000	-0.184	-0.001
-239.903	260.311	0.134	-0.228
-238.888	512.598	0.111	-0.254
-237.873	-49.749	0.152	0.071
-236.859	-42.804	-0.229	0.114
-235.844	63.788	0.118	0.117
-234.830	-200.000	-0.026	0.190
-233.815	-155.341	0.075	-0.005
-232.800	205.829	-0.080	-0.123
-231.786	478.035	0.124	0.275
-230.771	25.122	-0.344	0.281
-229.757	-59.804	-0.117	0.049
-228.742	-95.609	0.138	0.036
-227.727	27.170	0.180	-0.149
-226.713	800.000	-0.102	-0.369
-225.698	-61.909	-0.130	-0.053
-224.684	141.526	-0.231	0.301
-223.669	-89.132	0.280	0.081
-222.655	-107.039	-0.204	-0.044
-221.640	-200.000	-0.052	-0.320
-220.625	-83.402	0.150	-0.047
-219.611	-85.248	-0.095	-0.029
-218.596	25.665	0.165	0.135
-217.582	95.509	0.129	-0.144
-216.567	5.349	0.109	0.079
-215.552	42.427	0.075	-0.067
-214.538	149.498	0.072	-0.096
-213.523	55.253	-0.163	-0.155
-212.509	29.652	-0.120	-0.101
-211.494	-147.308	0.277	-0.023
-210.479	301.270	0.025	-0.045
-209.465	-200.000	0.011	-0.081
-208.450	-53.492	-0.245	-0.110
-207.436	-160.998	0.457	0.024
-206.421	-200.000	-0.023	0.118
-205.406	93.322	0.048	-0.053
-204.392	800.000	-0.070	-0.280
-203.377	201.812	-0.145	-0.220
-202.363	498.765	-0.110	-0.249
-201.348	531.259	-0.098	-0.228
-200.333	97.472	-0.053	0.060
-199.319	800.000	0.074	0.233
-198.304	189.925	0.114	-0.167
-197.290	-44.573	0.015	-0.007
-196.275	-48.350	-0.285	-0.135
-195.260	-200.000	-0.008	0.113
-194.246	15.895	0.225	0.174
-193.231	800.000	0.048	0.155
-192.217	-40.196	0.146	-0.075
-191.202	113.438	0.129	0.153
-190.187	-197.171	-0.298	0.002
-189.173	-8.455	-0.060	-0.039
-188.158	-72.326	-0.288	-0.105
-187.144	-200.000	0.024	0.218
-186.129	800.000	0.047	-0.188
-185.114	54.566	0.270	-0.256
-184.100	-199.318	0.417	0.002
-183.085	800.000	-0.136	-0.493
-182.071	268.437	-0.128	-0.220
-181.056	-30.725	-0.079	0.044
-180.042	800.000	-0.057	-0.240
-179.027	-154.841	-0.146	0.009
-178.012	-40.785	0.110	-0.056
-176.998	463.143	0.042	-0.093
-175.983	-3.625	0.198	-0.135
-174.969	-122.327	-0.159	-0.025
-173.954	105.996	-0.058	0.067
-172.939	358.936	0.059	0.115
-171.925	-74.963	0.326	0.115
-170.910	-15.675	-0.271	0.169
-169.896	-200.000	-0.016	0.319
-168.881	800.000	0.056	0.197
-167.866	441.598	0.105	0.226
-166.852	339.538	-0.018	0.035
-165.837	-74.042	0.343	0.122
-164.823	-200.000	-0.060	0.359
-163.808	373.364	-0.207	0.413
-162.793	49.057	0.237	-0.219
-161.779	103.439	-0.319	-0.367
-160.764	118.864	-0.107	-0.130
-159.750	-69.463	0.169	0.064
-158.735	-200.000	-0.010	0.073
-157.720	-53.017	0.169	-0.076
-156.706	-200.000	0.008	-0.042
-155.691	-15.543	0.178	-0.112
-154.677	182.544	-0.135	-0.195
-153.662	-200.000	-0.011	-0.089
-152.647	-70.710	0.192	-0.071
-151.633	-115.921	0.167	0.030
-150.618	63.779	0.049	-0.048
-149.604	-107.816	-0.364	-0.078
-148.589	10.562	-0.165	-0.123
-147.574	-95.630	-0.329	-0.086
-146.560	-185.018	0.445	-0.007
-145.545	-88.092	0.224	0.066
-144.531	624.984	-0.119	-0.295
-143.516	-115.333	0.220	-0.041
-142.502	-148.129	0.243	0.020
-141.487	214.397	-0.044	0.069
-140.472	-200.000	-0.002	0.197
-139.458	-104.828	0.360	-0.081
-138.443	-71.833	-0.065	-0.024
-137.429	145.613	0.145	-0.190
-136.414	-152.014	0.245	-0.018
-135.399	197.306	-0.219	-0.328
-134.385	143.863	0.107	-0.140
-133.370	-115.090	-0.207	0.038
-132.356	-34.879	-0.246	0.132
-131.341	193.880	0.098	-0.146
-130.326	-200.000	0.007	-0.066
-129.312	-158.471	-0.185	0.010
-128.297	-72.042	-0.074	-0.027
-127.283	-45.845	-0.164	0.079
-126.268	-200.000	0.029	-0.130
-125.253	-200.000	0.007	0.165
-124.239	-43.430	-0.422	-0.209
-123.224	-200.000	-0.003	-0.044
-122.210	114.504	0.126	0.150
-121.195	45.783	0.118	0.106
-120.180	441.198	0.046	0.099
-119.166	-25.146	0.415	-0.241
-118.151	-14.275	-0.172	0.109
-117.137	-82.664	-0.310	-0.098
-116.122	191.854	-0.131	-0.194
-115.107	-97.068	0.210	-0.054
-114.093	45.402	0.032	-0.029
-113.078	305.510	0.101	0.183
-112.064	-43.534	-0.232	-0.115
-111.049	262.960	-0.027	0.045
-110.034	-135.751	0.218	-0.025
-109.020	-19.924	-0.027	-0.016
-108.005	-105.502	-0.408	0.091
-106.991	-200.000	-0.059	0.273
-105.976	-88.052	-0.094	-0.028
-104.962	-54.041	0.163	0.073
-103.947	162.035	0.102	-0.140
-102.932	-4.555	0.030	0.020
-101.918	800.000	0.085	0.331
-100.903	-64.705	0.080	0.032
-99.889	-52.774	0.249	0.113
-98.874	800.000	0.015	0.043
-97.859	-200.000	0.003	-0.062
-96.845	117.916	0.059	0.071
-95.830	44.556	-0.070	-0.063
-94.816	32.038	0.048	-0.041
-93.801	-81.471	-0.119	0.038
-92.786	76.137	0.063	0.065
-91.772	-128.706	-0.129	0.018
-90.757	-200.000	0.006	0.172
-89.743	800.000	-0.030	0.107
-88.728	-60.897	0.164	0.068
-87.713	15.294	0.304	0.233
-86.699	-53.891	0.349	0.156
-85.684	-121.888	-0.098	0.016
-84.670	48.693	0.150	0.137
-83.655	-200.000	-0.008	-0.280
-82.640	18.548	0.308	-0.241
-81.626	-80.322	0.337	0.110
-80.611	458.594	0.108	0.236
-79.597	576.683	0.108	0.259
-78.582	800.000	-0.033	-0.125
-77.567	-37.728	0.193	-0.100
-76.553	7.160	0.362	0.264
-75.538	-162.885	-0.387	-0.018
-74.524	800.000	-0.067	-0.203
-73.509	18.333	-0.121	-0.094
-72.494	-39.345	0.489	0.251
-71.480	-10.655	-0.181	-0.117
-70.465	-169.897	-0.193	0.007
-69.451	744.074	-0.103	0.270
-68.436	-31.723	-0.044	0.024
-67.422	560.615	0.029	-0.069
-66.407	-93.865	0.292	0.079
-65.392	-200.000	-0.007	0.037
-64.378	800.000	0.022	-0.067
-63.363	-194.895	0.232	0.002
-62.349	-94.972	0.075	-0.020
-61.334	96.032	-1.140	-1.272
-60.319	-36.770	0.693	0.364
-59.305	800.000	-0.410	-1.117
-58.290	139.082	0.862	1.107
-57.276	293.576	0.676	1.205
-56.261	-200.000	115.787	658.868
-55.246	537.519	1522.152	3532.013
-54.232	179.179	2689.072	3841.945
-53.217	107.818	2166.952	2520.795
-52.203	37.658	1690.520	1465.543
-51.188	30.235	1508.226	1257.365
-50.173	28.068	1483.315	1222.086
-49.159	51.995	1541.947	1434.066
-48.144	50.212	1557.912	1436.712
-47.130	30.448	1513.377	1262.909
-46.115	27.511	1497.614	1229.910
-45.100	27.217	1495.209	1225.902
-44.086	27.260	1492.649	1224.047
-43.071	27.196	1490.876	1222.112
-42.057	27.124	1489.488	1220.442
-41.042	27.122	1488.229	1219.353
-40.027	27.196	1486.919	1218.729
-39.013	27.034	1485.391	1216.336
-37.998	27.157	1484.151	1216.101
-36.984	27.044	1482.831	1214.215
-35.969	27.124	1481.685	1213.763
-34.954	27.236	1479.944	1213.034
-33.940	27.113	1478.991	1211.386
-32.925	27.168	1477.185	1210.224
-31.911	27.235	1475.833	1209.512
-30.896	27.211	1475.041	1208.659
-29.881	27.260	1473.711	1207.845
-28.867	27.320	1471.876	1206.693
-27.852	27.179	1471.416	1205.334
-26.838	27.314	1469.324	1204.463
-25.823	27.236	1467.968	1202.790
-24.809	27.287	1466.416	1201.809
-23.794	27.251	1465.181	1200.507
-22.779	27.225	1463.995	1199.316
-21.765	27.177	1462.969	1198.112
-20.750	27.211	1461.921	1197.428
-19.736	27.247	1460.712	1196.629
-18.721	27.262	1459.706	1195.857
-17.706	27.248	1458.469	1194.705
-16.692	27.141	1457.856	1193.449
-15.677	27.247	1456.728	1193.179
-14.663	27.151	1455.800	1191.740
-13.648	27.131	1455.001	1190.908
-12.633	27.247	1453.724	1190.575
-11.619	27.120	1453.088	1189.178
-10.604	27.186	1452.530	1189.105
-9.590	27.266	1450.893	1188.236
-8.575	27.207	1450.261	1187.291
-7.560	27.163	1449.801	1186.574
-6.546	27.127	1448.746	1185.429
-5.531	27.072	1447.448	1183.962
-4.517	27.136	1446.838	1183.833
-3.502	27.162	1445.749	1183.069
-2.487	27.059	1445.015	1181.752
-1.473	27.075	1444.208	1181.144
-0.458	27.233	1441.931	1180.264
0.556	27.301	1432.764	1167.776
1.571	24.155	1407.255	1127.014
2.586	20.472	1345.003	1054.750
3.600	18.672	1262.297	979.538
4.615	17.433	1217.943	938.211
5.629	14.924	1162.280	882.035
6.644	8.737	1081.564	790.260
7.659	3.886	1045.473	740.633
8.673	3.270	1040.047	733.793
9.688	3.141	1036.690	730.746
10.702	3.146	1035.376	729.780
11.717	3.242	1033.581	728.905
12.731	4.947	1034.418	737.499
13.746	11.473	1043.220	774.769
14.761	17.971	1051.747	812.027
15.775	19.850	1053.435	822.198
16.790	19.468	1051.697	818.954
17.804	18.428	1049.646	812.358
18.819	17.489	1048.625	807.043
19.834	17.198	1046.675	804.098
20.848	17.027	1045.866	802.596
21.863	16.900	1045.688	801.785
22.877	16.715	1044.437	799.884
23.892	16.535	1043.581	798.304
24.907	16.449	1042.773	797.209
25.921	16.404	1042.827	796.970
26.936	16.385	1041.759	795.995
27.950	16.463	1040.061	794.990
28.965	16.470	1039.678	794.663
29.980	16.497	1038.404	793.745
30.994	16.542	1037.556	793.238
32.009	16.800	1036.170	793.315
33.023	16.810	1035.550	792.816
34.038	16.755	1034.870	791.972
35.053	16.611	1034.410	790.877
36.067	16.712	1032.700	789.969
37.082	16.565	1032.189	788.821
38.096	16.572	1031.637	788.362
39.111	16.640	1031.211	788.284
40.126	16.708	1029.964	787.578
41.140	16.621	1028.685	786.124
42.155	16.431	1027.409	784.200
43.169	16.230	1026.468	782.479
44.184	16.301	1025.077	781.681
45.199	16.157	1024.266	780.325
46.213	16.296	1023.515	780.329
47.228	16.294	1022.664	779.602
48.242	16.546	1021.714	779.970
49.257	16.504	1021.154	779.279
50.271	16.544	1020.088	778.581
51.286	16.630	1019.191	778.224
52.301	16.628	1018.389	777.532
53.315	16.566	1017.791	776.722
54.330	16.540	1017.132	776.031
55.344	16.418	1016.179	774.675
56.359	16.487	1014.893	773.944
57.374	16.322	1014.200	772.593
58.388	16.285	1013.154	771.557
59.403	16.337	1012.295	771.071
60.417	16.192	1011.767	769.938
61.432	16.159	1011.254	769.331
62.447	16.244	1010.233	768.876
63.461	16.160	1009.115	767.574
64.476	16.064	1008.522	766.618
65.490	16.012	1007.777	765.747
66.505	16.159	1006.840	765.635
67.520	16.148	1006.002	764.881
68.534	16.143	1005.226	764.198
69.549	16.120	1004.506	763.478
70.563	16.113	1003.684	762.758
71.578	16.072	1003.141	762.092
72.593	15.987	1002.340	761.031
73.607	15.948	1001.001	759.771
74.622	15.959	1000.033	759.017
75.636	15.978	999.055	758.295
76.651	16.156	998.387	758.523
77.666	16.010	997.989	757.495
78.680	16.074	997.368	757.246
79.695	16.128	996.663	756.883
80.709	16.043	996.461	756.284
81.724	16.062	995.522	755.587
82.739	16.264	994.503	755.651
83.753	16.329	993.807	755.347
84.768	16.514	992.947	755.454
85.782	16.618	992.958	755.861
86.797	16.674	992.641	755.802
87.812	16.746	991.544	755.220
88.826	16.726	990.251	754.080
89.841	16.673	989.639	753.311
90.855	16.729	988.680	752.764
91.870	16.798	987.730	752.281
92.884	16.815	987.260	751.932
93.899	16.872	986.333	751.413
94.914	16.821	985.803	750.714
95.928	16.872	985.173	750.393
96.943	16.856	984.532	749.770
97.957	16.756	983.681	748.615
98.972	16.634	982.758	747.306
99.987	16.644	982.128	746.806
101.001	16.689	981.245	746.264
102.016	16.797	980.456	746.072
103.030	16.698	979.745	745.031
104.045	16.744	978.618	744.311
105.060	16.688	977.682	743.288
106.074	16.592	976.839	742.162
107.089	16.466	976.169	741.034
108.103	16.245	974.950	739.076
109.118	16.246	974.010	738.300
110.133	16.179	973.228	737.349
111.147	16.146	972.288	736.428
112.162	16.223	971.471	736.082
113.176	16.202	970.508	735.195
114.191	16.218	970.129	734.913
115.206	16.429	969.021	734.924
116.220	16.358	968.286	733.994
117.235	16.313	967.226	732.932
118.249	16.403	966.389	732.619
119.264	16.299	965.750	731.621
120.279	16.370	964.500	730.917
121.293	16.179	964.329	729.896
122.308	16.322	963.002	729.446
123.322	16.114	962.944	728.439
124.337	16.114	961.472	727.260
125.352	16.104	960.020	726.054
126.366	16.071	959.324	725.322
127.381	15.999	958.413	724.259
128.395	16.027	957.744	723.812
129.410	15.981	956.636	722.712
130.424	16.013	956.012	722.315
131.439	16.084	955.197	721.937
132.454	16.335	953.823	721.910
133.468	16.438	953.293	721.884
134.483	16.474	952.452	721.334
135.497	16.377	952.296	720.742
136.512	16.351	951.142	719.692
137.527	16.323	950.177	718.780
138.541	16.409	949.637	718.675
139.556	16.400	948.819	717.953
140.570	16.335	948.110	717.079
141.585	16.396	947.697	716.959
142.600	16.726	947.152	717.881
143.614	16.780	946.048	717.212
144.629	16.816	945.522	716.902
145.643	16.886	945.003	716.740
146.658	16.811	944.113	715.685
147.673	16.672	943.310	714.426
148.687	16.588	942.031	713.043
149.702	16.442	941.380	711.872
150.716	16.397	940.675	711.083
151.731	16.365	939.527	710.020
152.746	16.391	938.858	709.562
153.760	16.432	938.107	709.103
154.775	16.462	937.922	709.025
155.789	16.415	937.090	708.135
156.804	16.699	936.077	708.499
157.819	16.653	935.097	707.502
158.833	16.614	934.945	707.159
159.848	16.755	934.022	706.988
160.862	16.949	933.161	707.083
161.877	16.741	932.742	705.836
162.892	16.642	931.649	704.535
163.906	16.396	930.820	702.820
164.921	16.555	929.555	702.463
165.935	16.377	928.916	701.181
166.950	16.636	928.124	701.596
167.964	16.594	927.425	700.828
168.979	16.582	926.117	699.729
169.994	16.580	925.406	699.121
171.008	16.445	924.669	697.945
172.023	16.600	923.878	697.927
173.037	16.773	922.915	697.852
174.052	16.773	922.807	697.706
175.067	16.820	921.922	697.168
176.081	16.681	920.240	695.264
177.096	16.574	919.276	694.038
178.110	16.466	919.032	693.350
179.125	16.489	918.235	692.779
180.140	16.492	917.352	692.066
181.154	16.632	916.997	692.307
182.169	16.677	916.404	691.982
183.183	16.890	915.638	692.214
184.198	16.862	915.265	691.757
185.213	16.958	914.430	691.456
186.227	16.863	914.172	690.812
187.242	17.052	913.443	690.969
188.256	16.980	912.658	690.023
189.271	17.091	912.050	689.952
190.286	17.156	911.422	689.680
191.300	16.930	910.306	687.858
192.315	16.493	909.450	685.378
193.329	16.443	908.782	684.613
194.344	16.539	908.202	684.501
195.359	16.581	907.721	684.249
196.373	16.757	907.150	684.469
197.388	16.804	906.919	684.428
198.402	16.962	906.173	684.441
199.417	17.007	906.193	684.576
200.432	17.176	905.729	684.845
201.446	17.277	905.338	684.897
202.461	17.299	904.811	684.527
203.475	17.237	904.805	684.212
204.490	17.385	903.371	683.661
205.504	17.260	902.490	682.431
206.519	17.072	901.472	680.850
207.534	17.070	900.981	680.408
208.548	17.027	900.312	679.670
209.563	17.074	899.569	679.238
210.577	17.101	898.960	678.827
211.592	17.144	898.407	678.522
212.607	17.269	897.940	678.606
213.621	17.332	897.616	678.555
214.636	17.374	896.565	677.865
215.650	17.184	896.431	676.946
216.665	17.232	895.769	676.580
217.680	17.425	895.144	676.816
218.694	17.422	894.467	676.231
219.709	17.491	893.928	676.039
220.723	17.373	893.283	675.022
221.738	17.457	892.900	675.005
222.753	17.432	892.090	674.237
223.767	17.402	891.088	673.300
224.782	17.396	890.763	672.971
225.796	17.686	889.507	673.107
226.811	17.686	889.035	672.691
227.826	17.548	888.251	671.495
228.840	17.395	887.854	670.531
229.855	17.357	887.248	669.864
230.869	17.379	886.179	669.086
231.884	17.353	886.302	669.016
232.899	17.470	884.755	668.247
233.913	17.190	884.572	666.953
234.928	17.239	883.563	666.326
235.942	17.242	883.150	665.966
236.957	17.388	881.787	665.449
237.972	17.227	881.804	664.775
238.986	17.163	881.137	663.961
240.001	17.168	880.668	663.569
241.015	17.243	880.138	663.406
242.030	17.346	878.877	662.795
243.045	17.301	878.869	662.557
244.059	17.358	878.186	662.206
245.074	17.434	877.292	661.767
246.088	17.521	877.081	661.890
247.103	17.538	876.596	661.531
248.117	17.544	876.196	661.194
249.132	17.679	875.486	661.122
250.147	17.894	874.867	661.429
251.161	18.014	874.665	661.684
252.176	18.142	873.595	661.310
253.190	18.098	873.197	660.780
254.205	18.298	872.729	661.142
255.220	18.250	872.132	660.443
256.234	18.308	871.252	659.944
257.249	18.255	871.053	659.530
258.263	18.246	870.564	659.065
259.278	18.079	870.009	657.944
260.293	18.274	868.986	657.862
261.307	18.341	868.393	657.614
262.322	18.409	867.935	657.469
263.336	18.348	867.705	657.003
264.351	18.436	866.770	656.575
265.366	18.420	866.237	656.050
266.380	18.365	865.946	655.560
267.395	18.385	865.018	654.879
268.409	18.273	864.148	653.734
269.424	18.076	863.763	652.633
270.439	18.146	862.869	652.165
271.453	18.215	862.215	651.878
272.468	17.993	861.418	650.372
273.482	18.058	860.196	649.637
274.497	18.149	860.078	649.838
275.512	18.287	859.118	649.576
276.526	18.207	858.652	648.866
277.541	18.241	857.824	648.311
278.555	18.264	857.255	647.912
279.570	18.419	856.744	648.052
280.585	18.453	856.463	647.912
281.599	18.438	855.851	647.337
282.614	18.480	855.098	646.868
283.628	18.312	854.319	645.588
284.643	18.219	854.465	645.290
285.657	18.399	853.357	645.073
286.672	18.321	852.707	644.233
287.687	18.398	852.443	644.263
288.701	18.291	852.120	643.559
289.716	18.309	851.294	642.946
290.730	18.415	850.932	643.016
291.745	18.458	850.028	642.437
292.760	18.480	849.702	642.214
293.774	18.454	849.233	641.709
294.789	18.598	848.532	641.658
295.803	18.501	848.062	640.884
296.818	18.445	847.051	639.856
297.833	18.551	846.126	639.494
298.847	18.303	845.981	638.403
299.862	18.477	845.163	638.379
300.876	18.477	844.862	638.094
301.891	18.470	843.863	637.256
302.906	18.600	843.778	637.618
303.920	18.728	842.809	637.308
304.935	18.955	842.349	637.746
305.949	19.019	841.314	637.142
306.964	18.804	841.297	636.275
307.979	18.735	840.342	635.241
308.993	18.714	839.880	634.761
310.008	18.818	839.513	634.811
311.022	18.931	838.930	634.731
312.037	18.814	838.379	633.826
313.052	18.794	837.826	633.278
314.066	18.559	837.344	631.992
315.081	18.668	836.281	631.536
316.095	18.676	835.562	630.963
317.110	18.652	834.989	630.387
318.125	18.738	834.624	630.371
319.139	18.544	834.057	629.176
320.154	18.647	833.896	629.377
321.168	18.532	833.558	628.646
322.183	18.666	832.694	628.429
323.197	18.650	832.301	628.019
324.212	18.685	831.550	627.524
325.227	18.626	831.143	626.945
326.241	18.821	830.619	627.205
327.256	18.776	829.884	626.433
328.270	18.619	829.408	625.444
329.285	18.676	828.825	625.157
330.300	18.741	828.193	624.861
331.314	18.616	827.687	623.972
332.329	18.580	827.480	623.627
333.343	18.877	826.515	623.923
334.358	18.926	826.269	623.859
335.373	18.853	825.799	623.186
336.387	18.838	825.097	622.546
337.402	19.145	824.350	623.040
338.416	19.210	823.908	622.886
339.431	19.192	823.727	622.629
340.446	19.266	823.156	622.409
341.460	19.225	822.832	621.962
342.475	19.300	821.941	621.502
343.489	19.305	821.562	621.177
344.504	19.406	821.007	621.069
345.519	19.550	820.135	620.872
346.533	19.593	819.883	620.779
347.548	19.396	819.517	619.742
348.562	19.296	818.975	618.918
349.577	19.268	818.083	618.088
350.592	19.245	817.387	617.425
351.606	19.121	817.101	616.710
352.621	19.008	816.615	615.883
353.635	19.136	816.069	615.876
354.650	19.131	815.710	615.532
355.665	19.205	815.719	615.747
356.679	19.216	815.140	615.298
357.694	19.548	814.406	615.873
358.708	19.427	813.834	614.954
359.723	19.460	813.054	614.427
360.738	19.387	812.802	613.922
361.752	19.365	812.251	613.376
362.767	19.351	812.066	613.131
363.781	19.356	811.981	613.030
364.796	19.673	810.946	613.320
365.810	19.641	810.811	613.050
366.825	19.832	810.549	613.477
367.840	19.730	810.545	613.056
368.854	19.870	809.740	612.887
369.869	19.698	809.399	611.967
370.883	19.733	808.492	611.353
371.898	19.628	808.282	610.765
372.913	19.768	807.504	610.620
373.927	19.784	807.222	610.410
374.942	19.845	806.021	609.660
375.956	19.798	805.638	609.153
376.971	19.869	804.793	608.708
377.986	19.803	804.867	608.480
379.000	20.045	804.086	608.686
380.015	20.104	803.499	608.395
381.029	20.077	803.007	607.874
382.044	19.941	802.685	607.099
383.059	20.128	801.714	606.966
384.073	20.108	801.233	606.476
385.088	20.088	800.813	606.036
386.102	19.940	800.336	605.105
387.117	19.901	799.414	604.216
388.132	19.667	799.594	603.483
389.146	19.719	798.940	603.117
390.161	19.812	798.620	603.147
391.175	19.981	798.018	603.226
392.190	19.952	798.518	603.450
393.205	19.940	797.686	602.727
394.219	19.706	796.996	601.339
395.234	19.740	796.218	600.816
396.248	19.814	795.868	600.758
397.263	19.731	795.156	599.877
398.278	19.561	794.889	599.032
399.292	19.625	794.649	599.020
400.307	19.583	793.952	598.296
401.321	19.532	793.648	597.840
402.336	19.656	793.115	597.814
403.350	19.681	793.199	597.912
404.365	19.790	792.515	597.719
405.380	19.902	792.046	597.700
406.394	20.132	791.551	598.065
407.409	20.222	791.330	598.154
408.423	20.103	790.782	597.280
409.438	20.410	789.894	597.612
410.453	20.271	790.003	597.164
411.467	20.421	789.204	597.023
412.482	20.471	789.209	597.145
413.496	20.448	788.790	596.695
414.511	20.396	788.481	596.230
415.526	20.415	788.179	596.015
416.540	20.345	787.936	595.539
417.555	20.360	787.221	594.995
418.569	20.392	786.907	594.816
419.584	20.367	786.048	594.028
420.599	20.330	786.042	593.844
421.613	162.042	1371.096	1796.265
422.628	140.227	1456.342	1796.370
