DTS Sentinel unit serial number:	SN413079Multiplexer serial number:	ORYXHardware model number:	OX4-SRSoftware version number:	ORYX F/W v4.00 Oryx Data Collector v3.7.2.0data status	okinstallation	princeton_trtdifferential loss correction	single-endedforward channel	channel 3reverse channel	N/Adate	2019/09/15time	01:20:35forward acquisition time	60.00reverse acquisition time	0.00gamma	496.2192k internal	0.2321k external	0.2321temperature offset calibration	0.9965default loss term (dB/km)	0.3790temperature slope calibration	1.0000multiplexer offset coefficient	1.0000multiplexer slope coefficient	1.0000fibre end	0.00T internal ref (°C)	31.91T ext. ref 1 (°C)	4.49T ext. ref 2 (°C)	26.81length (m)	temperature (°C)	Stokes	anti-Stokes-747.200	-148.433	0.327	-0.027
-746.185	130.401	0.143	-0.185
-745.171	-16.890	-0.114	0.073
-744.156	800.000	0.030	0.087
-743.142	70.121	-0.175	0.182
-742.127	-48.410	-0.071	-0.035
-741.112	610.098	0.070	0.177
-740.098	148.484	0.123	0.168
-739.083	-50.792	0.076	0.036
-738.069	175.225	-0.153	-0.223
-737.054	109.159	0.036	0.043
-736.039	186.975	0.108	-0.162
-735.025	18.882	0.137	0.111
-734.010	-13.424	-0.303	-0.198
-732.996	125.063	-0.174	-0.221
-731.981	-51.498	0.330	-0.156
-730.966	-38.669	-0.437	0.233
-729.952	800.000	0.074	-0.218
-728.937	-200.000	-0.026	0.000
-727.923	87.988	0.091	-0.102
-726.908	62.350	0.128	0.129
-725.894	131.880	0.135	0.176
-724.879	64.188	-0.387	-0.393
-723.864	-130.271	-0.436	-0.060
-722.850	376.778	-0.088	0.182
-721.835	411.774	-0.261	-0.560
-720.821	262.842	-0.181	-0.318
-719.806	38.655	0.175	0.157
-718.791	-28.044	0.061	0.035
-717.777	800.000	0.073	-0.203
-716.762	-200.000	-0.004	-0.052
-715.748	602.679	0.069	0.174
-714.733	800.000	-0.031	-0.104
-713.718	134.729	-0.155	-0.204
-712.704	40.360	-0.186	0.169
-711.689	330.262	-0.190	0.370
-710.675	-177.714	0.168	-0.004
-709.660	-58.083	0.166	0.073
-708.645	315.896	-0.118	0.225
-707.631	334.288	0.076	0.148
-706.616	88.747	0.165	-0.186
-705.602	-54.714	0.364	-0.166
-704.587	800.000	-0.124	0.417
-703.572	-119.372	-0.299	-0.053
-702.558	-200.000	0.023	-0.123
-701.543	-91.798	0.180	-0.052
-700.529	198.425	-0.155	0.239
-699.514	-200.000	-0.018	0.310
-698.499	70.615	0.093	0.097
-697.485	-157.576	-0.249	-0.015
-696.470	578.827	0.061	0.150
-695.456	103.590	-0.184	-0.218
-694.441	-200.000	-0.011	-0.154
-693.426	60.967	0.130	-0.130
-692.412	117.105	-0.202	-0.251
-691.397	800.000	-0.098	-0.344
-690.383	-4.150	0.150	0.105
-689.368	-174.396	-0.117	0.003
-688.354	109.074	-0.119	0.143
-687.339	800.000	-0.059	-0.233
-686.324	132.722	0.058	0.076
-685.310	183.000	0.113	0.168
-684.295	12.284	-0.089	-0.069
-683.281	-20.735	-0.172	-0.106
-682.266	26.578	-0.238	0.201
-681.251	159.195	-0.078	0.110
-680.237	314.676	-0.233	-0.442
-679.222	110.843	0.081	-0.099
-678.208	79.549	-0.395	-0.428
-677.193	-200.000	-0.002	-0.174
-676.178	161.315	0.108	-0.153
-675.164	22.633	0.208	-0.172
-674.149	11.549	-0.221	-0.171
-673.135	143.005	0.095	-0.127
-672.120	111.314	-0.238	0.289
-671.105	234.782	0.064	0.106
-670.091	246.055	-0.080	0.135
-669.076	-137.604	-0.293	-0.033
-668.062	-200.000	-0.038	-0.352
-667.047	4.768	-0.196	-0.145
-666.032	60.135	0.262	-0.262
-665.018	-200.000	-0.059	-0.305
-664.003	-59.185	0.044	0.019
-662.989	-107.256	-0.171	-0.038
-661.974	-96.905	-0.200	-0.053
-660.959	-56.160	-0.146	0.065
-659.945	242.133	0.213	-0.360
-658.930	-29.496	-0.204	-0.118
-657.916	-200.000	0.008	0.087
-656.901	-200.000	0.037	-0.447
-655.886	-73.005	-0.269	-0.099
-654.872	800.000	0.051	-0.224
-653.857	-200.000	-0.078	-0.343
-652.843	-200.000	0.017	0.130
-651.828	-67.406	0.316	0.125
-650.814	-109.628	-0.162	-0.034
-649.799	126.445	0.083	-0.106
-648.784	-20.368	0.390	-0.242
-647.770	-200.000	-0.010	-0.053
-646.755	-105.241	-0.072	0.017
-645.741	228.542	0.015	0.024
-644.726	25.543	-0.214	-0.179
-643.711	800.000	-0.116	-0.370
-642.697	-99.694	-0.265	-0.067
-641.682	171.376	-0.085	0.123
-640.668	-166.792	-0.211	-0.009
-639.653	363.181	-0.075	-0.152
-638.638	-200.000	-0.041	-0.254
-637.624	-101.457	-0.074	-0.018
-636.609	-155.309	0.415	-0.027
-635.595	-19.447	0.197	-0.123
-634.580	160.469	-0.054	0.075
-633.565	421.156	0.038	-0.082
-632.551	5.842	-0.164	-0.122
-631.536	-200.000	-0.001	0.238
-630.522	-200.000	0.003	0.085
-629.507	183.069	0.091	0.135
-628.492	-38.914	0.058	0.031
-627.478	-200.000	0.054	-0.276
-626.463	-200.000	-0.017	-0.304
-625.449	91.120	-0.022	0.025
-624.434	174.706	-0.109	0.159
-623.419	3.438	0.199	-0.146
-622.405	-150.166	0.191	-0.015
-621.390	-200.000	0.015	0.091
-620.376	-71.412	-0.112	-0.042
-619.361	-55.122	0.157	-0.071
-618.346	52.676	-0.167	-0.161
-617.332	-200.000	0.009	-0.227
-616.317	-190.055	-0.539	0.006
-615.303	800.000	-0.007	0.022
-614.288	116.557	0.075	0.092
-613.273	107.579	-0.264	-0.316
-612.259	-101.322	0.135	0.033
-611.244	-56.587	0.285	0.127
-610.230	-27.106	-0.329	0.193
-609.215	800.000	-0.138	-0.410
-608.201	-30.175	0.374	-0.214
-607.186	769.320	-0.055	0.149
-606.171	529.403	0.061	-0.146
-605.157	95.198	-0.190	0.218
-604.142	0.451	-0.165	0.119
-603.128	-148.416	-0.255	-0.021
-602.113	-200.000	0.048	-0.314
-601.098	791.716	0.081	0.225
-600.084	-200.000	-0.006	-0.103
-599.069	-94.339	-0.256	0.070
-598.055	-30.651	0.178	0.101
-597.040	-80.887	-0.121	0.040
-596.025	94.415	-0.092	0.105
-595.011	-54.389	0.120	-0.055
-593.996	-64.330	-0.431	-0.176
-592.982	91.458	0.111	0.125
-591.967	-200.000	0.001	-0.022
-590.952	-8.204	-0.253	0.171
-589.938	141.803	-0.064	-0.085
-588.923	78.207	0.204	-0.219
-587.909	126.535	-0.153	-0.194
-586.894	-181.325	-0.160	0.003
-585.879	103.947	0.069	0.081
-584.865	-200.000	-0.014	0.114
-583.850	-200.000	0.015	0.206
-582.836	-68.767	0.092	-0.036
-581.821	22.117	-0.036	-0.030
-580.806	51.354	-0.137	-0.130
-579.792	50.463	0.199	0.189
-578.777	-121.450	0.262	0.044
-577.763	-200.000	-0.041	-0.257
-576.748	800.000	-0.051	-0.195
-575.733	800.000	-0.118	0.328
-574.719	-83.539	-0.308	0.099
-573.704	2.592	-0.261	-0.190
-572.690	-158.568	0.132	0.008
-571.675	-14.579	0.091	-0.059
-570.661	-200.000	-0.011	0.349
-569.646	-101.612	0.232	-0.057
-568.631	120.941	0.122	-0.152
-567.617	38.304	-0.055	0.049
-566.602	-144.168	0.225	-0.021
-565.588	-200.000	-0.044	-0.248
-564.573	80.156	0.280	0.302
-563.558	72.744	0.280	-0.293
-562.544	64.778	-0.177	0.179
-561.529	-100.364	-0.352	0.088
-560.515	175.618	-0.026	0.037
-559.500	59.152	-0.070	-0.070
-558.485	256.912	-0.053	0.092
-557.471	88.876	0.189	0.211
-556.456	30.371	-0.165	0.141
-555.442	50.146	-0.039	-0.037
-554.427	800.000	-0.055	0.239
-553.412	439.540	0.026	-0.058
-552.398	400.639	0.057	-0.121
-551.383	347.449	0.158	0.313
-550.369	-42.873	-0.331	0.169
-549.354	-200.000	-0.024	-0.146
-548.339	95.242	0.194	-0.221
-547.325	-200.000	0.013	0.204
-546.310	-23.126	-0.183	0.111
-545.296	147.714	0.080	0.109
-544.281	-124.705	0.184	-0.029
-543.266	-200.000	0.045	0.364
-542.252	97.279	0.114	0.132
-541.237	286.120	0.055	-0.099
-540.223	-120.361	-0.219	0.037
-539.208	9.232	0.185	-0.140
-538.193	-200.000	0.009	0.487
-537.179	556.041	-0.181	0.437
-536.164	-200.000	-0.055	-0.264
-535.150	-154.027	0.351	-0.024
-534.135	6.765	-0.224	0.167
-533.121	86.235	0.135	-0.149
-532.106	-186.052	-0.197	-0.003
-531.091	-137.914	0.180	0.020
-530.077	112.130	-0.068	0.083
-529.062	403.162	0.117	0.246
-528.048	800.000	-0.064	0.233
-527.033	-90.188	-0.191	0.056
-526.018	-200.000	-0.004	0.091
-525.004	-50.922	0.206	-0.097
-523.989	493.910	0.058	0.134
-522.975	-96.300	0.154	0.041
-521.960	-181.835	-0.305	0.006
-520.945	359.315	-0.043	0.086
-519.931	-87.343	0.301	-0.091
-518.916	-56.075	0.068	0.031
-517.902	-17.352	0.094	0.059
-516.887	-84.249	-0.250	0.079
-515.872	38.884	-0.159	0.143
-514.858	49.360	-0.110	-0.104
-513.843	11.946	-0.213	-0.164
-512.829	-113.476	-0.076	0.015
-511.814	183.807	0.107	0.158
-510.799	-200.000	-0.009	-0.097
-509.785	-200.000	0.002	0.143
-508.770	-200.000	-0.009	-0.045
-507.756	-63.815	-0.588	0.241
-506.741	129.371	0.160	-0.205
-505.726	81.668	-0.150	-0.162
-504.712	96.337	-0.129	0.148
-503.697	-164.706	0.100	0.005
-502.683	88.868	0.196	-0.219
-501.668	46.449	-0.235	0.218
-500.653	-116.347	-0.247	0.046
-499.639	143.027	-0.100	-0.133
-498.624	-120.420	-0.061	-0.010
-497.610	297.731	0.203	-0.373
-496.595	-200.000	-0.005	0.053
-495.581	-152.643	-0.375	0.027
-494.566	-200.000	-0.030	-0.147
-493.551	-145.079	0.286	0.026
-492.537	-63.520	0.038	-0.016
-491.522	-200.000	-0.027	-0.140
-490.508	-3.154	-0.059	-0.041
-489.493	-65.288	-0.200	0.080
-488.478	7.468	-0.133	0.100
-487.464	-200.000	0.021	-0.215
-486.449	636.302	-0.057	-0.146
-485.435	523.873	-0.145	0.341
-484.420	-109.101	-0.093	-0.020
-483.405	-71.588	0.298	0.111
-482.391	5.986	0.170	0.126
-481.376	-200.000	-0.025	0.371
-480.362	-200.000	0.046	-0.281
-479.347	-14.009	-0.385	0.249
-478.332	33.979	0.024	0.021
-477.318	12.984	0.179	-0.139
-476.303	29.219	0.095	-0.080
-475.289	340.138	0.127	0.249
-474.274	88.406	0.211	-0.235
-473.259	31.054	-0.034	-0.029
-472.245	273.901	-0.089	0.157
-471.230	-200.000	-0.087	0.426
-470.216	-155.356	-0.133	-0.009
-469.201	-111.168	0.274	0.056
-468.186	-49.874	0.089	0.042
-467.172	-65.360	-0.363	-0.146
-466.157	185.892	0.237	-0.353
-465.143	24.565	-0.147	-0.121
-464.128	800.000	-0.044	-0.141
-463.113	800.000	-0.019	-0.059
-462.099	-200.000	0.010	-0.130
-461.084	-170.848	-0.570	-0.020
-460.070	-79.918	-0.123	-0.041
-459.055	-101.164	-0.273	-0.067
-458.040	63.024	0.146	-0.146
-457.026	-20.822	-0.073	-0.045
-456.011	-200.000	0.015	0.220
-454.997	-105.679	0.282	-0.064
-453.982	57.392	0.272	-0.266
-452.968	-200.000	0.056	-0.262
-451.953	-45.776	0.239	-0.118
-450.938	2.025	0.136	0.098
-449.924	-163.826	-0.305	-0.014
-448.909	-102.550	0.241	0.057
-447.895	-200.000	0.005	0.043
-446.880	-200.000	0.071	-0.320
-445.865	-200.000	-0.000	0.088
-444.851	-27.254	0.368	-0.214
-443.836	21.158	-0.138	-0.112
-442.822	67.670	-0.253	0.258
-441.807	-105.337	0.011	0.003
-440.792	-200.000	-0.007	0.270
-439.778	-196.640	-0.041	0.000
-438.763	605.448	0.080	-0.199
-437.749	-109.825	-0.197	-0.041
-436.734	-144.030	-0.153	0.014
-435.719	-200.000	-0.030	-0.141
-434.705	7.366	-0.213	-0.159
-433.690	-200.000	-0.012	-0.054
-432.676	-200.000	0.047	-0.278
-431.661	-23.407	0.260	0.156
-430.646	-200.000	-0.011	-0.192
-429.632	186.599	0.049	0.072
-428.617	-84.475	0.119	-0.037
-427.603	67.884	-0.023	-0.023
-426.588	628.133	0.067	-0.168
-425.573	-66.252	-0.065	0.026
-424.559	22.014	0.110	0.090
-423.544	699.581	-0.030	-0.080
-422.530	298.763	0.165	0.303
-421.515	38.147	-0.243	0.216
-420.500	-77.959	0.070	0.024
-419.486	-200.000	-0.003	0.116
-418.471	-89.835	0.109	0.032
-417.457	-37.833	0.239	0.127
-416.442	-0.810	-0.110	0.078
-415.428	135.759	-0.164	-0.213
-414.413	-18.592	-0.174	0.108
-413.398	-200.000	0.024	0.178
-412.384	30.520	-0.077	0.066
-411.369	-60.642	0.105	-0.045
-410.355	-200.000	-0.031	-0.198
-409.340	13.029	-0.156	0.121
-408.325	-116.793	-0.099	0.018
-407.311	-54.769	0.093	-0.042
-406.296	-200.000	0.023	0.133
-405.282	-200.000	0.077	0.460
-404.267	-179.076	0.183	-0.004
-403.252	-44.305	-0.376	-0.188
-402.238	265.022	-0.082	-0.142
-401.223	68.210	-0.207	0.212
-400.209	-200.000	0.019	0.514
-399.194	-180.131	-0.084	0.002
-398.179	-200.000	-0.074	-0.367
-397.165	-120.823	-0.597	-0.100
-396.150	800.000	0.033	-0.112
-395.136	800.000	0.105	-0.400
-394.121	-44.108	-0.092	0.046
-393.106	24.436	0.153	0.126
-392.092	316.950	-0.116	-0.219
-391.077	-35.046	-0.064	0.035
-390.063	-12.213	-0.175	0.114
-389.048	63.758	0.098	-0.098
-388.033	800.000	-0.011	0.037
-387.019	-45.175	0.381	0.189
-386.004	72.213	-0.150	-0.155
-384.990	-156.640	0.318	-0.020
-383.975	752.892	-0.023	0.061
-382.960	-200.000	-0.002	0.165
-381.946	-32.510	0.102	-0.057
-380.931	132.741	-0.131	-0.168
-379.917	506.507	-0.049	-0.114
-378.902	800.000	-0.076	-0.211
-377.888	-2.396	0.254	-0.178
-376.873	133.769	-0.197	-0.254
-375.858	94.250	0.021	-0.024
-374.844	-45.757	-0.385	0.190
-373.829	-161.708	-0.150	0.008
-372.815	800.000	-0.075	-0.308
-371.800	306.698	0.124	0.231
-370.785	325.924	-0.145	0.276
-369.771	210.190	0.214	0.335
-368.756	-200.000	0.009	0.247
-367.742	-123.569	-0.312	0.049
-366.727	-90.496	-0.325	-0.094
-365.712	-146.501	-0.122	0.011
-364.698	-61.043	-0.247	-0.104
-363.683	334.171	0.057	0.109
-362.669	-27.330	0.271	0.157
-361.654	-200.000	-0.002	-0.296
-360.639	-200.000	0.030	0.151
-359.625	69.304	-0.117	0.120
-358.610	562.089	0.132	0.317
-357.596	118.830	0.116	-0.142
-356.581	-200.000	-0.009	0.126
-355.566	-37.848	0.160	0.085
-354.552	-56.526	-0.191	-0.084
-353.537	141.924	0.116	0.153
-352.523	-93.793	0.185	0.051
-351.508	392.377	0.133	0.276
-350.493	-7.358	-0.070	0.047
-349.479	-3.626	0.133	-0.092
-348.464	345.119	0.187	-0.365
-347.450	800.000	-0.022	-0.083
-346.435	-22.956	0.074	-0.045
-345.420	-200.000	0.026	-0.143
-344.406	-68.742	0.082	0.032
-343.391	284.263	-0.164	0.294
-342.377	-41.085	0.115	0.059
-341.362	800.000	0.072	-0.278
-340.348	-113.121	-0.033	-0.007
-339.333	-200.000	-0.039	-0.191
-338.318	-50.004	-0.184	0.087
-337.304	606.084	0.104	0.259
-336.289	621.292	-0.065	-0.163
-335.275	800.000	-0.013	-0.043
-334.260	800.000	-0.128	0.369
-333.245	800.000	-0.074	0.284
-332.231	-200.000	-0.005	-0.062
-331.216	-200.000	0.011	-0.146
-330.202	16.884	-0.177	-0.139
-329.187	-68.981	-0.099	-0.038
-328.172	246.507	0.122	0.205
-327.158	122.876	0.233	-0.290
-326.143	-106.350	0.305	0.068
-325.129	380.534	0.099	0.202
-324.114	-200.000	-0.003	-0.046
-323.099	800.000	-0.141	0.484
-322.085	-24.770	0.262	0.155
-321.070	-29.675	-0.172	-0.098
-320.056	342.192	-0.132	0.257
-319.041	-200.000	0.015	-0.187
-318.026	194.862	0.154	0.232
-317.012	320.581	-0.075	-0.142
-315.997	-200.000	-0.003	-0.122
-314.983	-75.309	-0.173	-0.062
-313.968	-108.092	0.323	-0.070
-312.953	800.000	-0.097	-0.274
-311.939	-81.860	-0.476	0.155
-310.924	-135.368	0.142	-0.017
-309.910	-78.869	-0.145	-0.049
-308.895	-192.292	0.369	0.003
-307.880	363.748	0.026	0.052
-306.866	-200.000	0.005	-0.099
-305.851	-88.141	0.255	-0.076
-304.837	-200.000	0.017	-0.080
-303.822	236.103	0.256	0.420
-302.807	800.000	0.061	-0.239
-301.793	-48.383	0.149	-0.071
-300.778	143.523	0.220	-0.291
-299.764	-138.442	0.365	-0.040
-298.749	140.813	0.234	-0.307
-297.735	-91.400	0.340	-0.097
-296.720	-61.935	-0.281	-0.117
-295.705	-63.129	-0.035	0.014
-294.691	-48.367	0.017	-0.008
-293.676	91.854	-0.071	0.079
-292.662	-200.000	0.012	0.170
-291.647	462.575	0.100	-0.223
-290.632	-200.000	0.056	0.259
-289.618	464.778	0.077	0.171
-288.603	505.752	0.038	0.087
-287.589	71.549	0.118	-0.122
-286.574	-200.000	-0.046	-0.231
-285.559	511.184	-0.053	0.121
-284.545	-200.000	0.019	0.183
-283.530	-190.474	0.291	-0.003
-282.516	-200.000	0.019	-0.223
-281.501	0.740	-0.120	0.085
-280.486	-200.000	0.020	0.120
-279.472	195.644	-0.152	0.230
-278.457	-200.000	-0.003	-0.075
-277.443	-106.966	0.479	-0.105
-276.428	-200.000	0.009	0.214
-275.413	-200.000	-0.045	-0.257
-274.399	-124.994	-0.401	0.061
-273.384	800.000	-0.074	0.208
-272.370	-5.113	0.112	-0.077
-271.355	-17.269	-0.393	0.246
-270.340	800.000	-0.060	-0.201
-269.326	83.081	0.178	0.192
-268.311	148.372	0.061	-0.082
-267.297	509.164	0.045	0.104
-266.282	-153.695	0.216	-0.015
-265.267	-200.000	0.010	-0.075
-264.253	-200.000	-0.023	-0.295
-263.238	654.132	-0.058	-0.148
-262.224	40.265	-0.042	-0.037
-261.209	-7.121	-0.091	0.061
-260.195	74.369	0.090	-0.094
-259.180	-32.514	0.097	-0.054
-258.165	-19.069	0.160	0.099
-257.151	-53.895	-0.336	0.152
-256.136	595.907	-0.123	-0.301
-255.122	800.000	-0.103	-0.315
-254.107	165.773	0.132	0.186
-253.092	-72.527	0.182	0.067
-252.078	-33.735	0.103	-0.056
-251.063	-84.375	0.245	0.077
-250.049	-200.000	0.029	0.254
-249.034	-94.025	-0.127	-0.034
-248.019	-200.000	-0.008	-0.045
-247.005	60.825	-0.201	-0.198
-245.990	487.831	0.116	0.262
-244.976	-4.939	-0.294	0.201
-243.961	-129.897	0.231	-0.031
-242.946	154.685	0.116	-0.158
-241.932	16.894	-0.360	-0.283
-240.917	-24.315	0.117	-0.069
-239.903	155.978	0.076	-0.104
-238.888	724.516	-0.092	-0.243
-237.873	-200.000	-0.005	-0.037
-236.859	178.464	0.196	-0.283
-235.844	-154.698	0.138	0.009
-234.830	-85.704	-0.058	0.018
-233.815	325.930	0.058	-0.110
-232.800	210.778	0.145	-0.226
-231.786	-55.894	0.173	-0.077
-230.771	-3.118	-0.214	0.148
-229.757	111.849	-0.133	-0.160
-228.742	469.552	0.125	0.279
-227.727	17.151	0.200	0.157
-226.713	-88.034	-0.141	-0.042
-225.698	698.109	0.095	-0.247
-224.684	800.000	-0.048	-0.132
-223.669	-200.000	-0.044	0.279
-222.655	-200.000	-0.034	0.160
-221.640	374.585	-0.022	-0.043
-220.625	92.863	-0.177	-0.198
-219.611	285.587	0.142	0.254
-218.596	-24.391	-0.032	0.019
-217.582	129.144	0.071	-0.089
-216.567	-89.315	0.228	0.067
-215.552	492.668	0.016	-0.037
-214.538	-97.366	0.449	0.116
-213.523	61.921	0.084	0.083
-212.509	-117.559	-0.362	-0.065
-211.494	-28.789	-0.155	-0.088
-210.479	-67.484	-0.143	-0.056
-209.465	4.749	0.139	-0.101
-208.450	-38.385	-0.244	0.128
-207.436	178.650	0.055	0.080
-206.421	-57.283	-0.122	0.053
-205.406	615.035	0.131	0.324
-204.392	-200.000	0.038	0.219
-203.377	0.845	0.295	-0.209
-202.363	800.000	0.029	0.111
-201.348	-88.837	-0.045	-0.013
-200.333	-200.000	0.012	-0.162
-199.319	29.506	-0.255	-0.215
-198.304	-163.719	-0.200	0.009
-197.290	-58.516	-0.147	0.063
-196.275	-106.237	0.452	-0.100
-195.260	559.084	-0.059	0.142
-194.246	90.520	0.060	0.067
-193.231	29.116	0.222	-0.187
-192.217	-100.487	0.177	0.043
-191.202	266.422	0.134	0.232
-190.187	-200.000	0.018	-0.163
-189.173	-200.000	0.095	-0.477
-188.158	-92.209	-0.340	-0.095
-187.144	800.000	0.076	-0.212
-186.129	6.023	-0.194	0.142
-185.114	-42.114	0.028	-0.014
-184.100	-71.069	0.031	-0.012
-183.085	-133.822	0.212	-0.026
-182.071	-95.258	0.174	-0.046
-181.056	33.094	-0.184	0.157
-180.042	136.677	-0.231	0.299
-179.027	145.755	-0.058	-0.077
-178.012	62.257	0.191	-0.188
-176.998	292.577	-0.147	0.266
-175.983	-16.685	-0.321	0.201
-174.969	-189.189	0.412	-0.005
-173.954	-1.331	-0.123	0.086
-172.939	-200.000	-0.016	-0.158
-171.925	-69.847	-0.136	-0.051
-170.910	-200.000	0.002	-0.330
-169.896	-34.481	0.324	0.176
-168.881	-200.000	0.036	0.347
-167.866	-77.474	0.156	-0.053
-166.852	-74.132	0.414	0.148
-165.837	-43.071	0.365	-0.183
-164.823	-131.785	0.235	0.030
-163.808	-125.882	0.165	-0.025
-162.793	392.644	-0.112	0.229
-161.779	-118.538	-0.416	0.073
-160.764	189.700	-0.037	-0.055
-159.750	1.046	-0.242	0.172
-158.735	-32.844	-0.255	0.140
-157.720	213.903	0.103	-0.160
-156.706	21.066	-0.253	0.203
-155.691	679.619	0.073	0.187
-154.677	35.895	0.192	-0.167
-153.662	-45.604	0.277	0.136
-152.647	104.369	0.070	-0.081
-151.633	7.154	0.151	-0.111
-150.618	-39.350	-0.188	-0.097
-149.604	-117.632	0.157	0.028
-148.589	800.000	0.088	0.380
-147.574	297.179	-0.074	0.135
-146.560	181.410	0.249	-0.362
-145.545	19.249	-0.235	-0.186
-144.531	-200.000	0.033	0.195
-143.516	-103.801	0.372	-0.086
-142.502	-200.000	0.252	0.000
-141.487	123.120	0.337	-0.416
-140.472	-30.724	-0.077	0.043
-139.458	-200.000	-0.031	-0.202
-138.443	-52.494	-0.058	0.027
-137.429	-119.136	-0.205	0.035
-136.414	800.000	0.058	0.217
-135.399	-148.925	0.220	-0.018
-134.385	-79.692	0.323	-0.108
-133.370	372.172	0.116	0.234
-132.356	84.637	0.157	0.170
-131.341	-178.496	-0.273	-0.006
-130.326	64.678	0.149	0.148
-129.312	583.479	0.022	0.053
-128.297	-200.000	-0.038	-0.302
-127.283	800.000	-0.063	0.201
-126.268	-113.404	-0.023	-0.005
-125.253	-200.000	0.097	0.498
-124.239	-155.463	0.150	0.010
-123.224	21.037	-0.012	-0.009
-122.210	-200.000	-0.048	0.393
-121.195	-72.526	0.292	0.106
-120.180	106.353	-0.118	0.138
-119.166	77.659	0.106	-0.111
-118.151	77.245	0.139	-0.145
-117.137	-36.255	-0.227	-0.121
-116.122	-57.851	-0.022	0.009
-115.107	252.406	0.136	0.229
-114.093	-154.057	0.143	-0.010
-113.078	47.622	-0.142	-0.131
-112.064	-200.000	0.150	0.000
-111.049	-147.569	0.073	-0.006
-110.034	800.000	-0.093	0.262
-109.020	189.948	-0.092	0.136
-108.005	98.320	0.100	0.113
-106.991	-200.000	0.026	-0.181
-105.976	-142.304	0.232	0.023
-104.962	-200.000	-0.003	-0.419
-103.947	-200.000	-0.047	-0.312
-102.932	-200.000	0.002	-0.034
-101.918	5.996	0.235	-0.172
-100.903	-200.000	0.056	-0.304
-99.889	110.004	0.155	-0.183
-98.874	272.272	0.051	0.089
-97.859	168.650	0.178	0.249
-96.845	-16.250	-0.265	-0.166
-95.830	-200.000	0.018	0.166
-94.816	513.681	-0.028	0.064
-93.801	-45.460	-0.063	-0.031
-92.786	-194.840	-0.333	-0.003
-91.772	800.000	0.053	0.227
-90.757	339.379	0.073	-0.140
-89.743	800.000	-0.142	-0.390
-88.728	200.618	-0.123	-0.187
-87.713	25.544	-0.331	-0.271
-86.699	-200.000	-0.042	0.293
-85.684	-200.000	-0.006	0.308
-84.670	39.348	-0.069	0.061
-83.655	110.525	0.071	0.084
-82.640	800.000	-0.144	0.620
-81.626	-200.000	-0.024	0.260
-80.611	-86.242	0.198	-0.060
-79.597	77.618	0.169	-0.177
-78.582	275.090	-0.153	0.268
-77.567	800.000	0.031	0.116
-76.553	-122.713	0.296	0.047
-75.538	308.888	-0.074	-0.137
-74.524	800.000	-0.062	-0.242
-73.509	84.501	-0.104	-0.113
-72.494	264.581	-0.176	-0.302
-71.480	66.168	0.134	-0.134
-70.465	8.684	-0.159	0.118
-69.451	800.000	0.050	0.141
-68.436	52.831	-0.190	0.179
-67.422	-76.820	-0.273	-0.094
-66.407	-147.006	-0.404	0.034
-65.392	113.348	0.138	0.164
-64.378	-200.000	0.195	0.001
-63.363	-29.377	-0.082	0.046
-62.349	74.991	0.127	0.132
-61.334	10.551	-0.884	-0.663
-60.319	73.694	0.283	0.292
-59.305	-200.000	-0.031	-1.315
-58.290	94.582	0.744	0.832
-57.276	163.550	1.051	1.455
-56.261	-200.000	96.155	596.118
-55.246	653.546	1372.074	3463.246
-54.232	199.543	2546.227	3842.630
-53.217	119.099	2158.660	2626.625
-52.203	42.717	1703.426	1526.386
-51.188	35.173	1516.500	1307.589
-50.173	32.712	1489.893	1268.073
-49.159	51.961	1538.881	1441.760
-48.144	53.623	1556.018	1469.118
-47.130	35.265	1516.667	1308.157
-46.115	32.193	1501.583	1274.300
-45.100	32.069	1498.271	1270.597
-44.086	31.933	1496.891	1268.461
-43.071	31.854	1494.770	1266.081
-42.057	31.882	1492.970	1264.690
-41.042	32.009	1491.648	1264.376
-40.027	31.976	1490.191	1262.868
-39.013	31.892	1488.881	1261.143
-37.998	31.916	1487.351	1259.961
-36.984	31.823	1486.460	1258.532
-35.969	31.888	1484.865	1257.568
-34.954	31.910	1483.335	1256.370
-33.940	31.921	1481.869	1255.149
-32.925	31.909	1480.592	1253.936
-31.911	32.009	1479.014	1253.222
-30.896	32.001	1477.793	1252.081
-29.881	31.958	1476.646	1250.775
-28.867	32.017	1475.246	1249.930
-27.852	31.936	1473.982	1248.274
-26.838	31.979	1472.307	1247.091
-25.823	32.034	1470.823	1246.148
-24.809	32.011	1468.664	1244.120
-23.794	31.945	1467.769	1242.872
-22.779	31.988	1466.786	1242.275
-21.765	31.968	1465.469	1240.977
-20.750	31.906	1464.523	1239.717
-19.736	31.877	1463.728	1238.808
-18.721	31.933	1462.029	1237.686
-17.706	31.847	1461.190	1236.361
-16.692	31.817	1460.171	1235.249
-15.677	31.916	1458.807	1234.700
-14.663	31.837	1457.744	1233.230
-13.648	31.831	1456.767	1232.315
-12.633	31.930	1455.765	1232.071
-11.619	31.923	1455.316	1231.595
-10.604	31.871	1454.256	1230.305
-9.590	31.910	1453.475	1229.852
-8.575	31.824	1453.148	1228.963
-7.560	31.841	1452.293	1228.302
-6.546	31.947	1450.826	1227.708
-5.531	31.733	1450.543	1226.021
-4.517	31.836	1448.938	1225.286
-3.502	31.861	1448.224	1224.802
-2.487	31.880	1447.127	1223.948
-1.473	31.937	1445.238	1222.673
-0.458	31.942	1444.458	1221.997
0.556	30.424	1435.035	1210.287
1.571	27.433	1409.398	1169.385
2.586	24.147	1349.576	1099.410
3.600	22.450	1268.034	1023.040
4.615	21.152	1221.768	978.356
5.629	18.188	1166.518	918.145
6.644	10.877	1083.569	816.199
7.659	5.286	1044.474	759.563
8.673	4.625	1039.248	752.498
9.688	4.456	1036.682	749.759
10.702	4.470	1035.169	748.665
11.717	4.428	1032.999	746.829
12.731	6.433	1034.710	757.648
13.746	13.306	1044.230	797.811
14.761	18.275	1050.113	826.287
15.775	18.274	1049.575	825.783
16.790	17.446	1047.138	819.808
17.804	16.178	1045.198	812.112
18.819	15.184	1043.256	805.757
19.834	15.009	1041.620	803.583
20.848	14.735	1040.528	801.354
21.863	14.458	1039.938	799.497
22.877	14.141	1039.368	797.469
23.892	14.141	1038.159	796.474
24.907	14.072	1037.674	795.701
25.921	13.921	1037.155	794.508
26.936	14.030	1035.946	794.034
27.950	14.069	1034.962	793.397
28.965	14.055	1033.757	792.335
29.980	14.159	1032.800	792.027
30.994	14.240	1031.494	791.340
32.009	14.238	1031.000	790.880
33.023	14.359	1030.100	790.695
34.038	14.252	1029.341	789.534
35.053	14.107	1028.713	788.297
36.067	14.104	1027.537	787.313
37.082	14.114	1026.730	786.668
38.096	14.092	1025.938	785.890
39.111	14.168	1025.530	785.868
40.126	14.299	1023.962	785.216
41.140	14.210	1023.010	783.995
42.155	14.000	1021.867	782.062
43.169	13.895	1021.189	780.979
44.184	13.848	1020.105	779.860
45.199	13.927	1018.777	779.147
46.213	13.913	1017.591	778.107
47.228	13.960	1016.829	777.672
48.242	14.038	1016.296	777.565
49.257	14.040	1015.143	776.619
50.271	14.115	1014.266	776.230
51.286	14.145	1013.386	775.628
52.301	14.115	1012.570	774.795
53.315	13.987	1012.123	773.787
54.330	13.997	1011.072	772.964
55.344	14.064	1009.927	772.331
56.359	14.012	1009.047	771.348
57.374	13.953	1008.105	770.287
58.388	14.069	1007.256	770.107
59.403	13.848	1006.674	768.570
60.417	13.799	1005.842	767.642
61.432	13.792	1005.469	767.256
62.447	13.876	1004.042	766.487
63.461	13.737	1003.539	765.394
64.476	13.854	1002.319	764.936
65.490	13.791	1001.818	764.197
66.505	13.727	1000.962	763.181
67.520	13.780	999.834	762.494
68.534	13.845	999.287	762.310
69.549	13.894	998.324	761.733
70.563	13.793	997.868	760.855
71.578	13.859	997.298	760.657
72.593	13.802	996.201	759.491
73.607	13.617	995.497	758.038
74.622	13.617	994.361	757.108
75.636	13.690	993.269	756.544
76.651	13.686	992.363	755.765
77.666	13.632	991.945	755.138
78.680	13.748	991.125	754.971
79.695	13.689	990.794	754.384
80.709	13.852	989.894	754.373
81.724	13.807	989.782	754.017
82.739	13.916	988.758	753.668
83.753	13.961	987.915	753.160
84.768	14.132	987.288	753.389
85.782	14.145	986.232	752.575
86.797	14.266	985.829	752.750
87.812	14.232	984.777	751.728
88.826	14.229	984.386	751.348
89.841	14.176	983.289	750.206
90.855	14.114	982.837	749.514
91.870	14.150	981.981	748.958
92.884	14.216	981.665	748.947
93.899	14.375	980.189	748.469
94.914	14.243	979.640	747.390
95.928	14.297	979.249	747.267
96.943	14.414	978.311	747.011
97.957	14.411	976.729	745.723
98.972	14.260	976.562	744.856
99.987	14.274	975.813	744.281
101.001	14.232	975.367	743.685
102.016	14.273	974.217	742.927
103.030	14.119	973.556	741.671
104.045	14.195	972.480	741.125
105.060	14.142	972.287	740.677
106.074	14.323	970.511	740.059
107.089	14.093	969.687	738.346
108.103	13.970	968.576	736.890
109.118	13.939	967.894	736.168
110.133	13.827	967.585	735.372
111.147	13.825	966.442	734.427
112.162	13.790	965.524	733.510
113.176	13.905	964.668	733.304
114.191	13.860	964.239	732.715
115.206	13.942	963.636	732.551
116.220	14.022	962.306	731.830
117.235	14.066	961.349	731.233
118.249	14.120	960.567	730.808
119.264	13.890	959.847	729.185
120.279	13.864	959.256	728.560
121.293	13.908	958.293	727.956
122.308	13.857	957.708	727.225
123.322	13.951	956.524	726.670
124.337	13.867	955.380	725.371
125.352	13.730	954.884	724.333
126.366	13.824	953.436	723.580
127.381	13.923	952.778	723.448
128.395	13.846	951.529	722.098
129.410	13.746	950.566	720.870
130.424	13.883	949.801	720.820
131.439	13.896	948.994	720.202
132.454	13.913	948.304	719.689
133.468	14.006	947.389	719.333
134.483	13.982	946.713	718.652
135.497	14.070	945.537	718.074
136.512	14.044	945.282	717.706
137.527	14.166	944.402	717.502
138.541	14.029	943.824	716.408
139.556	14.071	942.858	715.793
140.570	13.991	942.408	715.040
141.585	14.158	941.336	714.883
142.600	14.314	941.075	715.291
143.614	14.382	940.337	714.959
144.629	14.206	939.733	713.685
145.643	14.293	939.141	713.542
146.658	14.333	938.184	712.923
147.673	14.245	937.107	711.664
148.687	14.104	935.959	710.127
149.702	14.030	934.869	708.922
150.716	14.063	933.836	708.220
151.731	14.004	933.364	707.548
152.746	13.871	933.029	706.665
153.760	14.049	931.804	706.429
154.775	14.009	931.198	705.738
155.789	14.283	930.230	706.104
156.804	14.167	929.415	704.932
157.819	14.257	928.952	704.898
158.833	14.253	928.267	704.299
159.848	14.198	928.039	703.832
160.862	14.328	927.289	703.751
161.877	14.250	926.386	702.675
162.892	14.220	925.200	701.588
163.906	14.129	924.366	700.509
164.921	14.033	923.781	699.598
165.935	14.115	922.721	699.078
166.950	14.199	921.684	698.585
167.964	14.263	921.058	698.315
168.979	14.170	920.273	697.268
169.994	14.163	918.788	696.053
171.008	14.140	918.296	695.524
172.023	14.336	917.398	695.601
173.037	14.319	916.864	695.061
174.052	14.355	916.174	694.630
175.067	14.288	915.556	693.817
176.081	14.333	914.222	692.936
177.096	14.311	913.282	692.069
178.110	14.162	913.032	691.199
179.125	14.190	912.283	690.687
180.140	14.218	911.542	690.180
181.154	14.263	910.803	689.746
182.169	14.385	909.776	689.411
183.183	14.408	909.789	689.456
184.198	14.554	908.959	689.370
185.213	14.496	908.547	688.758
186.227	14.472	907.499	687.803
187.242	14.487	907.570	687.859
188.256	14.620	906.587	687.602
189.271	14.526	906.562	687.133
190.286	14.626	905.581	686.741
191.300	14.582	904.299	685.526
192.315	14.379	903.208	683.805
193.329	14.181	902.849	682.663
194.344	14.171	902.459	682.263
195.359	14.204	901.994	681.989
196.373	14.408	901.104	682.088
197.388	14.530	900.465	682.042
198.402	14.583	900.215	682.011
199.417	14.623	899.527	681.592
200.432	14.739	899.338	681.864
201.446	14.790	899.277	681.966
202.461	14.914	898.454	681.785
203.475	14.884	898.166	681.384
204.490	14.825	897.047	680.236
205.504	14.808	896.092	679.384
206.519	14.778	895.522	678.767
207.534	14.690	894.514	677.587
208.548	14.707	893.661	676.948
209.563	14.715	893.194	676.569
210.577	14.844	892.484	676.491
211.592	14.799	892.091	675.951
212.607	14.789	891.648	675.518
213.621	14.859	890.842	675.128
214.636	14.964	890.364	675.132
215.650	14.845	889.860	674.208
216.665	14.955	889.044	673.973
217.680	15.087	888.781	674.249
218.694	15.049	888.483	673.809
219.709	14.993	887.972	673.136
220.723	15.025	887.468	672.825
221.738	15.015	886.294	671.833
222.753	14.889	885.870	670.948
223.767	14.825	885.576	670.410
224.782	15.056	884.132	670.182
225.796	15.137	883.208	669.744
226.811	15.276	882.902	670.009
227.826	15.040	882.206	668.480
228.840	15.182	881.166	668.199
229.855	15.144	880.606	667.563
230.869	15.075	879.995	666.767
231.884	14.990	879.728	666.166
232.899	15.112	878.821	665.904
233.913	14.979	878.117	664.785
234.928	15.010	877.423	664.325
235.942	15.049	876.492	663.713
236.957	15.058	876.029	663.341
237.972	14.992	875.391	662.539
238.986	15.042	874.615	662.090
240.001	15.104	874.189	661.955
241.015	15.019	873.383	660.951
242.030	15.003	872.782	660.374
243.045	15.126	872.258	660.402
244.059	15.117	871.801	659.964
245.074	15.135	871.020	659.384
246.088	15.080	870.459	658.686
247.103	15.127	870.176	658.598
248.117	15.243	869.451	658.447
249.132	15.331	868.931	658.342
250.147	15.496	868.401	658.528
251.161	15.518	867.931	658.200
252.176	15.656	867.278	658.186
253.190	15.566	866.895	657.487
254.205	15.583	866.228	656.988
255.220	15.665	865.317	656.558
256.234	15.528	865.085	655.789
257.249	15.614	864.302	655.474
258.263	15.589	863.790	654.930
259.278	15.803	862.888	655.020
260.293	15.691	862.889	654.526
261.307	15.754	862.076	654.096
262.322	15.919	861.342	654.126
263.336	15.904	861.046	653.783
264.351	15.944	860.163	653.211
265.366	15.898	859.372	652.371
266.380	15.849	859.355	652.111
267.395	15.898	858.537	651.625
268.409	15.806	857.593	650.492
269.424	15.792	857.049	649.970
270.439	15.891	856.041	649.529
271.453	15.787	855.294	648.504
272.468	15.686	854.896	647.756
273.482	15.763	853.999	647.316
274.497	15.779	853.660	647.064
275.512	15.821	853.158	646.788
276.526	15.773	852.658	646.166
277.541	15.689	851.698	645.058
278.555	15.923	850.983	645.358
279.570	15.981	850.626	645.252
280.585	16.053	850.184	645.137
281.599	15.923	850.016	644.452
282.614	15.915	848.823	643.461
283.628	15.942	848.278	643.092
284.643	15.896	847.987	642.640
285.657	15.898	847.495	642.220
286.672	15.913	846.938	641.796
287.687	16.082	845.940	641.627
288.701	16.044	845.785	641.309
289.716	16.050	845.351	640.946
290.730	16.025	844.779	640.359
291.745	16.128	844.019	640.117
292.760	16.275	842.917	639.782
293.774	16.101	842.440	638.704
294.789	16.037	842.395	638.373
295.803	16.346	841.351	638.694
296.818	16.160	840.988	637.657
297.833	16.037	840.521	636.783
298.847	16.052	839.813	636.248
299.862	16.234	838.749	636.069
300.876	16.092	838.271	635.115
301.891	16.373	837.504	635.538
302.906	16.368	836.963	635.053
303.920	16.335	836.394	634.439
304.935	16.481	835.641	634.359
305.949	16.664	834.944	634.460
306.964	16.438	834.733	633.397
307.979	16.318	834.464	632.688
308.993	16.404	833.667	632.347
310.008	16.533	833.083	632.333
311.022	16.453	832.672	631.665
312.037	16.378	832.764	631.399
313.052	16.404	832.165	630.988
314.066	16.387	831.307	630.217
315.081	16.359	830.212	629.225
316.095	16.309	829.922	628.765
317.110	16.247	829.389	628.073
318.125	16.406	828.669	628.066
319.139	16.425	828.238	627.754
320.154	16.254	828.112	626.968
321.168	16.259	827.700	626.618
322.183	16.397	826.953	626.509
323.197	16.456	826.186	626.091
324.212	16.505	825.708	625.855
325.227	16.566	825.035	625.513
326.241	16.432	825.051	624.977
327.256	16.458	824.037	624.248
328.270	16.487	823.174	623.647
329.285	16.441	822.729	623.084
330.300	16.597	822.071	623.106
331.314	16.420	821.885	622.257
332.329	16.490	821.279	622.000
333.343	16.533	820.959	621.862
334.358	16.619	820.110	621.478
335.373	16.537	819.871	620.945
336.387	16.650	819.194	620.790
337.402	16.671	818.985	620.653
338.416	16.616	818.328	619.901
339.431	16.666	817.968	619.753
340.446	16.959	816.944	619.996
341.460	16.944	816.413	619.482
342.475	16.952	816.259	619.339
343.489	17.068	815.373	619.037
344.504	17.092	815.031	618.810
345.519	16.975	814.432	617.872
346.533	16.985	814.368	617.807
347.548	17.155	813.452	617.677
348.562	17.046	813.042	616.915
349.577	16.880	812.433	615.792
350.592	16.966	811.941	615.679
351.606	16.608	811.268	613.817
352.621	16.793	810.671	613.979
353.635	16.753	810.763	613.848
354.650	16.826	809.899	613.407
355.665	16.981	809.640	613.716
356.679	16.908	808.903	612.839
357.694	16.933	808.690	612.715
358.708	16.981	808.535	612.716
359.723	17.041	807.733	612.269
360.738	16.953	806.867	611.244
361.752	16.955	806.802	611.145
362.767	16.995	806.265	610.829
363.781	17.068	805.649	610.571
364.796	17.210	805.488	610.905
365.810	17.201	805.035	610.477
366.825	17.409	804.383	610.676
367.840	17.178	804.501	609.881
368.854	17.312	803.893	609.848
369.869	17.357	803.097	609.351
370.883	17.156	802.996	608.498
371.898	17.236	802.243	608.160
372.913	17.384	801.547	608.107
373.927	17.569	800.738	608.100
374.942	17.308	800.622	607.026
375.956	17.329	800.013	606.589
376.971	17.365	799.507	606.278
377.986	17.296	799.113	605.681
379.000	17.454	798.529	605.747
380.015	17.580	797.872	605.643
381.029	17.553	797.357	605.104
382.044	17.413	797.257	604.475
383.059	17.621	796.244	604.392
384.073	17.585	795.805	603.877
385.088	17.628	795.190	603.509
386.102	17.520	794.398	602.472
387.117	17.534	793.724	601.956
388.132	17.525	793.780	601.917
389.146	17.468	793.001	601.069
390.161	17.487	792.969	601.058
391.175	17.584	792.639	601.099
392.190	17.600	792.552	601.036
393.205	17.617	791.738	600.426
394.219	17.521	791.132	599.574
395.234	17.545	790.681	599.263
396.248	17.669	789.921	599.069
397.263	17.455	789.701	598.100
398.278	17.412	789.441	597.698
399.292	17.544	788.719	597.561
400.307	17.350	788.589	596.729
401.321	17.466	788.022	596.656
402.336	17.543	787.553	596.517
403.350	17.567	787.076	596.185
404.365	17.744	786.517	596.328
405.380	17.566	786.587	595.709
406.394	17.772	785.634	595.651
407.409	17.789	785.336	595.434
408.423	17.859	784.833	595.241
409.438	17.954	784.476	595.252
410.453	17.930	784.271	594.957
411.467	18.104	783.680	595.064
412.482	18.070	783.215	594.541
413.496	17.954	783.033	593.946
414.511	18.063	782.412	593.799
415.526	18.131	782.411	593.982
416.540	18.012	781.949	593.166
417.555	17.953	781.735	592.749
418.569	18.002	780.837	592.182
419.584	18.098	780.434	592.160
420.599	18.112	779.930	591.772
421.613	156.071	1368.634	1795.415
422.628	134.680	1454.393	1795.502
