DTS Sentinel unit serial number:	SN413079Multiplexer serial number:	ORYXHardware model number:	OX4-SRSoftware version number:	ORYX F/W v4.00 Oryx Data Collector v3.7.2.0data status	okinstallation	princeton_trtdifferential loss correction	single-endedforward channel	channel 3reverse channel	N/Adate	2019/09/14time	20:12:35forward acquisition time	60.00reverse acquisition time	0.00gamma	496.2192k internal	0.2314k external	0.2314temperature offset calibration	1.0009default loss term (dB/km)	0.3790temperature slope calibration	1.0000multiplexer offset coefficient	1.0000multiplexer slope coefficient	1.0000fibre end	0.00T internal ref (°C)	33.83T ext. ref 1 (°C)	4.86T ext. ref 2 (°C)	28.25length (m)	temperature (°C)	Stokes	anti-Stokes-747.200	-93.143	0.438	0.124
-746.185	-200.000	-0.017	0.191
-745.171	451.546	0.073	-0.164
-744.156	104.118	-0.079	-0.094
-743.142	-16.619	-0.343	0.220
-742.127	138.472	-0.008	-0.010
-741.112	-78.168	-0.115	-0.040
-740.098	-84.308	-0.284	0.091
-739.083	110.063	-0.056	-0.069
-738.069	43.250	-0.038	0.036
-737.054	-49.824	-0.309	0.149
-736.039	-126.564	-0.139	-0.021
-735.025	4.694	-0.083	0.062
-734.010	6.867	-0.038	-0.029
-732.996	-151.706	-0.059	-0.004
-731.981	352.901	0.114	-0.229
-730.966	-100.951	-0.366	0.091
-729.952	-137.570	-0.283	-0.032
-728.937	-69.458	0.010	0.004
-727.923	-133.087	-0.361	-0.046
-726.908	66.951	-0.289	-0.299
-725.894	-81.104	-0.320	-0.107
-724.879	-200.000	-0.051	-0.235
-723.864	316.987	0.220	-0.421
-722.850	352.345	0.222	-0.445
-721.835	604.182	-0.125	-0.315
-720.821	4.103	-0.473	-0.351
-719.806	-200.000	-0.010	-0.123
-718.791	-122.485	0.296	-0.049
-717.777	795.658	-0.124	0.346
-716.762	800.000	-0.055	0.182
-715.748	-25.617	0.140	-0.084
-714.733	401.003	-0.219	0.465
-713.718	-141.418	-0.211	-0.022
-712.704	-191.644	-0.377	-0.004
-711.689	800.000	-0.031	-0.135
-710.675	-107.469	-0.263	0.058
-709.660	250.583	-0.099	-0.170
-708.645	-91.820	0.109	0.031
-707.631	-59.460	0.042	0.018
-706.616	173.547	0.019	0.027
-705.602	-45.275	-0.317	-0.159
-704.587	2.174	-0.156	-0.114
-703.572	-200.000	0.072	-0.342
-702.558	403.434	0.108	0.229
-701.543	318.228	0.166	0.318
-700.529	233.311	-0.083	-0.138
-699.514	-131.424	-0.303	-0.041
-698.499	-140.990	-0.191	0.020
-697.485	-200.000	-0.027	-0.301
-696.470	79.701	0.013	0.015
-695.456	-50.382	-0.247	0.118
-694.441	493.261	0.062	-0.145
-693.426	422.029	-0.046	0.101
-692.412	-200.000	-0.026	-0.229
-691.397	8.548	0.075	-0.057
-690.383	17.953	-0.198	0.160
-689.368	31.963	0.092	-0.080
-688.354	-136.793	-0.376	-0.044
-687.339	-65.501	-0.205	0.083
-686.324	265.931	0.148	-0.261
-685.310	8.295	-0.183	0.139
-684.295	800.000	0.033	0.109
-683.281	-61.210	-0.079	0.034
-682.266	-68.221	-0.222	0.087
-681.251	800.000	0.047	0.172
-680.237	-135.904	-0.423	0.050
-679.222	-200.000	-0.037	-0.327
-678.208	800.000	-0.032	0.102
-677.193	299.169	-0.285	0.531
-676.178	2.097	-0.131	-0.096
-675.164	115.178	-0.187	-0.231
-674.149	-65.820	0.057	-0.023
-673.135	-101.051	0.109	-0.027
-672.120	219.092	0.089	0.144
-671.105	-200.000	-0.028	0.316
-670.091	-82.029	-0.331	0.109
-669.076	-200.000	0.053	-0.250
-668.062	-70.704	0.186	0.071
-667.047	-200.000	-0.045	-0.219
-666.032	-16.411	-0.194	0.124
-665.018	-200.000	-0.008	-0.120
-664.003	2.497	-0.120	0.088
-662.989	800.000	-0.016	0.059
-661.974	-114.774	0.175	0.034
-660.959	-6.242	-0.015	0.011
-659.945	-72.734	0.069	-0.026
-658.930	-200.000	-0.044	-0.358
-657.916	-21.289	-0.062	0.038
-656.901	800.000	-0.106	0.412
-655.886	-129.316	-0.078	0.011
-654.872	800.000	0.061	0.172
-653.857	-58.124	0.288	-0.127
-652.843	-88.133	-0.183	0.055
-651.828	222.925	-0.053	0.087
-650.814	-113.061	-0.250	-0.050
-649.799	-0.881	0.065	0.047
-648.784	42.985	0.107	0.099
-647.770	-26.501	-0.092	0.054
-646.755	2.060	0.222	0.162
-645.741	800.000	-0.062	0.201
-644.726	-200.000	0.015	0.224
-643.711	-146.432	-0.199	0.018
-642.697	-23.164	-0.314	0.191
-641.682	103.586	-0.118	-0.140
-640.668	73.418	-0.081	-0.085
-639.653	-200.000	-0.007	0.210
-638.638	-168.251	0.134	-0.005
-637.624	800.000	-0.091	-0.257
-636.609	7.290	0.078	0.059
-635.595	-14.124	-0.296	-0.193
-634.580	-200.000	0.014	-0.435
-633.565	-120.335	-0.327	0.056
-632.551	-176.957	-0.065	-0.002
-631.536	-168.661	-0.195	0.007
-630.522	-160.593	0.218	-0.012
-629.507	266.621	-0.128	0.226
-628.492	32.661	0.072	0.063
-627.478	-193.088	0.488	-0.004
-626.463	-81.496	-0.538	0.179
-625.449	88.528	-0.252	0.283
-624.434	293.919	-0.012	-0.021
-623.419	800.000	-0.017	-0.072
-622.405	23.765	-0.285	0.237
-621.390	-122.536	0.191	-0.031
-620.376	457.126	0.054	0.122
-619.361	-50.197	-0.051	0.024
-618.346	800.000	-0.059	0.223
-617.332	-70.115	0.361	0.139
-616.317	190.549	-0.172	-0.260
-615.303	-128.088	0.098	-0.014
-614.288	-123.005	-0.615	0.100
-613.273	64.090	-0.012	-0.012
-612.259	800.000	0.073	0.253
-611.244	-200.000	0.011	-0.129
-610.230	-77.307	-0.155	0.054
-609.215	800.000	-0.036	-0.126
-608.201	728.304	0.105	-0.283
-607.186	47.455	-0.064	0.060
-606.171	-22.701	0.159	-0.097
-605.157	325.698	-0.139	-0.268
-604.142	-105.778	0.113	0.026
-603.128	-115.426	-0.201	-0.038
-602.113	278.795	0.152	-0.272
-601.098	31.274	-0.208	-0.180
-600.084	60.286	-0.059	-0.059
-599.069	-144.625	-0.112	0.010
-598.055	13.483	0.178	-0.139
-597.040	-78.615	-0.006	-0.002
-596.025	-200.000	0.034	-0.258
-595.011	-13.813	-0.255	-0.166
-593.996	-102.818	-0.032	0.008
-592.982	321.505	-0.063	-0.121
-591.967	165.357	-0.113	0.161
-590.952	315.630	-0.032	-0.061
-589.938	-30.275	0.178	-0.102
-588.923	-35.751	0.212	0.116
-587.909	565.329	-0.091	0.223
-586.894	-107.954	-0.076	0.017
-585.879	-200.000	-0.029	-0.325
-584.865	231.703	-0.114	0.188
-583.850	-57.104	0.182	-0.081
-582.836	-23.819	0.274	-0.166
-581.821	79.313	-0.310	-0.335
-580.806	-200.000	-0.041	0.230
-579.792	682.873	-0.100	0.262
-578.777	551.526	0.038	-0.091
-577.763	562.765	-0.053	-0.130
-576.748	-55.874	0.237	-0.106
-575.733	76.741	0.094	-0.100
-574.719	800.000	0.005	-0.020
-573.704	-78.886	-0.196	0.067
-572.690	-174.871	-0.459	0.013
-571.675	-51.924	0.267	0.125
-570.661	214.197	-0.111	0.177
-569.646	800.000	-0.044	-0.140
-568.631	800.000	-0.063	0.217
-567.617	-200.000	0.016	0.328
-566.602	-170.579	0.100	-0.004
-565.588	251.610	0.192	0.329
-564.573	-41.517	-0.107	-0.056
-563.558	-75.593	0.183	-0.066
-562.544	779.426	-0.071	0.195
-561.529	702.049	-0.122	-0.323
-560.515	466.298	0.106	0.239
-559.500	800.000	-0.129	-0.413
-558.485	-13.084	0.322	-0.210
-557.471	307.168	-0.161	-0.302
-556.456	-200.000	0.009	-0.098
-555.442	482.882	-0.118	0.270
-554.427	-8.521	-0.144	0.098
-553.412	-124.630	-0.098	0.015
-552.398	-34.380	0.164	-0.091
-551.383	800.000	-0.064	0.282
-550.369	-200.000	-0.009	0.195
-549.354	800.000	0.011	-0.034
-548.339	15.958	0.203	0.161
-547.325	-133.459	0.058	-0.007
-546.310	-4.965	0.148	-0.103
-545.296	-89.624	-0.171	-0.050
-544.281	-100.336	0.320	0.080
-543.266	800.000	0.057	0.247
-542.252	-185.547	-0.179	0.003
-541.237	-200.000	0.025	-0.258
-540.223	-200.000	0.027	0.348
-539.208	295.208	0.166	-0.306
-538.193	141.710	-0.197	-0.262
-537.179	139.617	0.092	-0.121
-536.164	-56.695	0.063	0.028
-535.150	-120.947	0.101	-0.017
-534.135	182.431	0.067	0.100
-533.121	750.940	-0.034	-0.094
-532.106	-144.896	-0.405	-0.037
-531.091	800.000	0.089	0.350
-530.077	-200.000	-0.027	0.324
-529.062	800.000	0.081	0.300
-528.048	595.882	0.018	-0.044
-527.033	-145.742	-0.052	-0.005
-526.018	-2.738	0.200	-0.141
-525.004	341.481	-0.111	0.217
-523.989	800.000	0.058	0.207
-522.975	227.884	0.124	-0.203
-521.960	191.552	0.108	0.164
-520.945	-200.000	0.013	0.219
-519.931	91.310	0.028	0.031
-518.916	-200.000	0.045	0.266
-517.902	-200.000	0.012	-0.093
-516.887	616.211	-0.092	0.231
-515.872	340.473	0.037	-0.072
-514.858	-84.593	0.121	-0.038
-513.843	-0.333	0.400	0.286
-512.829	-200.000	0.079	0.471
-511.814	518.493	-0.052	0.122
-510.799	2.403	0.155	-0.113
-509.785	448.180	-0.132	0.292
-508.770	181.955	-0.053	0.079
-507.756	104.439	-0.163	-0.193
-506.741	800.000	0.086	0.367
-505.726	40.399	-0.083	-0.075
-504.712	126.063	-0.031	0.040
-503.697	373.181	-0.073	-0.150
-502.683	-112.848	-0.296	0.059
-501.668	112.275	0.150	-0.183
-500.653	-190.331	0.268	0.003
-499.639	19.166	0.025	0.020
-498.624	24.384	-0.093	-0.077
-497.610	440.540	-0.092	0.202
-496.595	-104.682	0.132	0.030
-495.581	-17.087	-0.220	-0.139
-494.566	-31.356	0.103	0.058
-493.551	-164.656	0.087	-0.004
-492.537	-117.220	-0.118	-0.022
-491.522	-43.577	0.209	0.106
-490.508	-200.000	0.032	-0.183
-489.493	320.993	-0.057	-0.108
-488.478	-73.206	-0.439	0.162
-487.464	296.668	0.066	0.122
-486.449	39.351	0.143	-0.129
-485.435	-82.584	0.203	-0.066
-484.420	42.998	-0.215	-0.197
-483.405	-200.000	-0.021	0.190
-482.391	174.411	-0.109	-0.159
-481.376	82.564	0.184	0.200
-480.362	-36.545	-0.214	-0.116
-479.347	27.163	-0.117	0.098
-478.332	-200.000	-0.024	0.115
-477.318	-44.918	0.300	0.150
-476.303	-26.761	-0.143	0.084
-475.289	53.197	0.121	-0.117
-474.274	-200.000	0.053	0.284
-473.259	-134.752	-0.071	0.009
-472.245	-131.780	-0.154	0.020
-471.230	285.221	0.190	-0.343
-470.216	-104.795	-0.078	0.018
-469.201	-22.929	-0.071	-0.043
-468.186	60.483	-0.342	-0.340
-467.172	-200.000	-0.040	-0.336
-466.157	-110.038	0.121	0.025
-465.143	800.000	0.061	-0.215
-464.128	-25.574	-0.236	-0.139
-463.113	-95.448	0.365	-0.098
-462.099	131.766	0.104	-0.134
-461.084	800.000	0.024	-0.075
-460.070	-200.000	0.022	0.194
-459.055	-150.233	-0.191	-0.015
-458.040	121.148	0.200	-0.250
-457.026	226.064	-0.039	-0.063
-456.011	-24.897	0.140	0.083
-454.997	310.177	-0.103	-0.194
-453.982	402.604	0.212	-0.447
-452.968	-157.548	-0.283	-0.017
-451.953	-145.312	0.202	-0.018
-450.938	-145.407	-0.060	0.005
-449.924	454.567	-0.019	0.043
-448.909	70.720	-0.096	0.099
-447.895	-103.969	-0.049	0.012
-446.880	-13.943	0.334	-0.216
-445.865	3.297	-0.177	-0.129
-444.851	-63.201	-0.128	0.053
-443.836	-200.000	-0.008	0.154
-442.822	-200.000	0.002	-0.117
-441.807	-9.987	-0.355	-0.237
-440.792	717.464	-0.026	-0.070
-439.778	109.401	-0.159	-0.191
-438.763	-69.884	-0.194	0.074
-437.749	215.226	-0.132	0.210
-436.734	74.116	0.135	0.142
-435.719	147.255	-0.122	-0.165
-434.705	-76.574	-0.330	0.116
-433.690	-120.752	-0.227	-0.038
-432.676	-34.685	-0.272	-0.149
-431.661	-124.914	-0.164	0.025
-430.646	394.010	-0.171	0.357
-429.632	-200.000	-0.042	-0.273
-428.617	-55.747	-0.052	0.023
-427.603	-103.450	0.306	0.072
-426.588	353.284	-0.027	0.054
-425.573	145.268	-0.159	-0.213
-424.559	22.931	-0.033	-0.027
-423.544	-59.062	0.174	-0.075
-422.530	-35.997	-0.154	0.083
-421.515	800.000	-0.030	0.130
-420.500	-139.958	0.230	-0.024
-419.486	-77.298	-0.275	-0.096
-418.471	-194.953	-0.166	-0.001
-417.457	-73.969	0.270	-0.098
-416.442	178.180	0.172	-0.252
-415.428	158.034	0.104	-0.144
-414.413	-200.000	-0.017	0.130
-413.398	-70.553	-0.083	0.032
-412.384	800.000	-0.081	-0.326
-411.369	-163.193	-0.247	0.012
-410.355	-137.080	0.368	-0.042
-409.340	-43.841	-0.207	-0.104
-408.325	-35.334	0.140	0.076
-407.311	-71.449	-0.090	0.034
-406.296	42.158	0.200	-0.182
-405.282	141.300	-0.116	0.153
-404.267	595.954	-0.076	-0.187
-403.252	159.202	-0.076	0.106
-402.238	413.713	0.148	-0.314
-401.223	800.000	0.073	-0.252
-400.209	-200.000	-0.036	0.231
-399.194	-120.632	0.125	0.021
-398.179	-115.898	-0.303	0.057
-397.165	270.184	-0.037	0.065
-396.150	800.000	-0.063	-0.244
-395.136	-200.000	0.015	-0.084
-394.121	-79.335	-0.167	0.056
-393.106	9.810	-0.164	-0.124
-392.092	-200.000	0.028	0.200
-391.077	104.706	0.262	0.308
-390.063	-134.779	0.220	-0.027
-389.048	800.000	0.032	-0.113
-388.033	334.831	-0.050	0.097
-387.019	-79.154	-0.265	-0.090
-386.004	178.051	0.216	0.315
-384.990	-200.000	0.033	-0.199
-383.975	-58.058	-0.235	-0.102
-382.960	357.428	0.084	-0.167
-381.946	-200.000	-0.023	0.273
-380.931	338.506	0.092	-0.178
-379.917	-82.916	-0.234	0.075
-378.902	-53.035	0.224	0.103
-377.888	-200.000	0.033	-0.147
-376.873	56.266	0.243	-0.236
-375.858	-163.551	0.102	-0.005
-374.844	-200.000	-0.013	0.306
-373.829	87.435	-0.077	0.085
-372.815	-200.000	-0.010	-0.077
-371.800	-7.349	-0.168	0.114
-370.785	71.332	0.195	0.202
-369.771	800.000	-0.093	0.309
-368.756	-111.546	-0.108	0.022
-367.742	107.695	-0.086	-0.102
-366.727	-27.038	-0.071	-0.041
-365.712	28.241	0.181	0.152
-364.698	800.000	-0.030	0.107
-363.683	243.812	0.112	-0.187
-362.669	-116.425	-0.469	-0.087
-361.654	132.612	-0.019	0.025
-360.639	454.956	0.030	-0.067
-359.625	-12.360	0.272	0.178
-358.610	-200.000	0.002	0.293
-357.596	-200.000	-0.021	-0.388
-356.581	5.103	0.129	0.095
-355.566	-200.000	0.003	-0.014
-354.552	-90.816	-0.049	0.014
-353.537	-157.489	0.222	-0.013
-352.523	14.172	-0.227	0.176
-351.508	-94.284	-0.137	-0.038
-350.493	508.652	0.092	-0.213
-349.479	502.185	0.169	-0.391
-348.464	-29.960	0.107	0.061
-347.450	-34.462	0.159	-0.087
-346.435	511.819	-0.044	-0.102
-345.420	107.425	-0.082	0.098
-344.406	-124.125	-0.366	-0.057
-343.391	-200.000	-0.003	0.062
-342.377	58.082	0.092	0.090
-341.362	156.419	-0.068	0.094
-340.348	-200.000	-0.013	-0.164
-339.333	-200.000	0.005	-0.255
-338.318	775.162	0.053	0.146
-337.304	-200.000	-0.002	-0.291
-336.289	-115.536	-0.153	0.029
-335.275	-200.000	0.009	0.109
-334.260	-200.000	-0.003	-0.056
-333.245	273.878	0.049	-0.086
-332.231	502.545	-0.110	-0.254
-331.216	509.108	-0.160	-0.370
-330.202	-126.785	-0.096	0.014
-329.187	-112.311	0.451	-0.090
-328.172	-20.065	-0.062	0.038
-327.158	-7.729	0.300	-0.202
-326.143	-200.000	-0.008	0.068
-325.129	127.984	-0.218	-0.276
-324.114	-37.212	0.140	0.075
-323.099	-53.833	0.083	-0.038
-322.085	-200.000	-0.002	-0.095
-321.070	8.686	0.144	-0.108
-320.056	78.668	0.021	-0.022
-319.041	364.647	-0.192	0.386
-318.026	286.894	-0.150	0.271
-317.012	360.905	0.141	-0.282
-315.997	145.203	0.145	-0.193
-314.983	-200.000	0.055	-0.320
-313.968	800.000	0.034	0.100
-312.953	-200.000	0.060	0.283
-311.939	-119.819	0.103	-0.018
-310.924	-78.649	0.046	0.016
-309.910	169.702	-0.145	0.206
-308.895	137.766	-0.121	0.158
-307.880	-7.717	-0.443	0.299
-306.866	-77.505	0.163	0.056
-305.851	133.685	0.185	0.238
-304.837	-19.139	0.483	0.299
-303.822	-118.664	0.047	0.008
-302.807	800.000	-0.115	-0.352
-301.793	800.000	-0.042	-0.129
-300.778	92.809	0.035	0.040
-299.764	-200.000	-0.018	-0.164
-298.749	-200.000	0.008	-0.229
-297.735	-200.000	-0.054	0.266
-296.720	86.724	0.155	-0.171
-295.705	-200.000	-0.033	0.274
-294.691	9.853	-0.146	-0.110
-293.676	-194.065	0.431	0.004
-292.662	-200.000	-0.005	-0.187
-291.647	32.799	0.197	-0.169
-290.632	-7.264	-0.161	0.109
-289.618	103.415	0.165	-0.193
-288.603	330.206	-0.157	0.300
-287.589	647.466	0.129	0.329
-286.574	-152.677	0.100	-0.007
-285.559	649.087	0.046	-0.116
-284.545	-73.490	-0.203	-0.074
-283.530	315.836	-0.080	0.151
-282.516	-51.945	0.381	-0.176
-281.501	111.474	0.171	-0.206
-280.486	-71.440	-0.021	-0.008
-279.472	62.964	-0.145	0.144
-278.457	619.856	0.125	0.314
-277.443	800.000	0.064	0.218
-276.428	-78.780	0.025	-0.009
-275.413	19.143	-0.152	-0.121
-274.399	-200.000	-0.003	-0.156
-273.384	676.245	0.054	-0.139
-272.370	800.000	-0.067	0.235
-271.355	-107.422	0.341	-0.074
-270.340	-57.817	-0.031	-0.014
-269.326	-84.954	0.003	-0.001
-268.311	114.028	0.047	-0.057
-267.297	-76.862	-0.177	0.062
-266.282	97.267	0.245	0.279
-265.267	117.818	-0.236	0.290
-264.253	-200.000	-0.010	0.150
-263.238	-131.992	0.041	0.005
-262.224	-165.486	0.118	0.005
-261.209	-24.095	0.064	0.038
-260.195	53.185	-0.126	0.120
-259.180	-200.000	-0.006	0.047
-258.165	348.210	0.071	-0.139
-257.151	-97.716	0.126	0.033
-256.136	263.857	0.014	0.024
-255.122	362.178	0.184	-0.367
-254.107	283.590	0.095	0.171
-253.092	-37.186	0.199	0.106
-252.078	-200.000	0.004	0.271
-251.063	-122.525	0.218	0.035
-250.049	-119.760	0.010	0.002
-249.034	-200.000	0.000	-0.209
-248.019	241.492	-0.110	-0.183
-247.005	227.884	-0.202	-0.326
-245.990	22.426	0.055	0.045
-244.976	800.000	0.127	-0.436
-243.961	510.238	-0.075	-0.172
-242.946	-69.377	-0.181	-0.069
-241.932	130.802	-0.088	-0.112
-240.917	-72.564	0.332	0.122
-239.903	82.408	-0.221	0.238
-238.888	-33.252	-0.291	0.160
-237.873	12.642	0.064	-0.049
-236.859	-43.889	0.229	0.114
-235.844	124.920	0.164	-0.206
-234.830	28.562	0.167	-0.140
-233.815	66.171	-0.152	0.153
-232.800	-66.762	0.115	-0.045
-231.786	-135.649	-0.139	0.016
-230.771	-19.743	-0.380	-0.234
-229.757	-53.379	-0.218	-0.099
-228.742	-200.000	0.006	0.094
-227.727	-174.233	-0.060	-0.002
-226.713	-24.099	0.207	-0.123
-225.698	-200.000	-0.026	0.134
-224.684	215.457	0.119	0.187
-223.669	-99.391	-0.268	0.067
-222.655	597.519	0.070	0.172
-221.640	-80.476	0.117	-0.039
-220.625	69.302	-0.033	-0.034
-219.611	-103.535	0.159	-0.037
-218.596	-126.607	0.411	-0.060
-217.582	14.890	0.145	0.113
-216.567	169.317	0.271	0.384
-215.552	176.093	0.201	0.290
-214.538	7.526	0.241	0.179
-213.523	148.835	0.156	-0.209
-212.509	-91.327	-0.335	0.095
-211.494	52.996	-0.139	-0.132
-210.479	-113.007	0.255	-0.050
-209.465	346.460	-0.080	-0.156
-208.450	-200.000	-0.043	-0.252
-207.436	-200.000	0.006	-0.112
-206.421	-21.249	0.228	0.139
-205.406	10.745	-0.056	-0.042
-204.392	-200.000	-0.010	0.265
-203.377	63.513	0.268	0.267
-202.363	-158.409	0.284	-0.016
-201.348	-76.747	0.304	0.106
-200.333	204.640	0.116	0.179
-199.319	-19.213	-0.173	0.107
-198.304	-30.322	-0.378	-0.213
-197.290	-42.808	0.108	0.054
-196.275	37.915	0.102	-0.090
-195.260	512.607	0.101	-0.233
-194.246	-58.519	0.369	0.159
-193.231	800.000	0.077	0.219
-192.217	-48.846	0.395	-0.188
-191.202	71.524	-0.222	-0.228
-190.187	-66.849	-0.107	0.042
-189.173	-18.671	-0.061	-0.038
-188.158	0.911	-0.260	0.185
-187.144	-200.000	0.037	0.281
-186.129	-200.000	-0.005	-0.107
-185.114	100.456	0.170	0.196
-184.100	18.894	0.179	-0.142
-183.085	-130.818	-0.342	0.046
-182.071	-200.000	0.014	-0.113
-181.056	143.480	0.111	-0.146
-180.042	698.760	-0.035	-0.090
-179.027	-200.000	0.029	0.167
-178.012	-200.000	-0.039	0.203
-176.998	27.737	-0.180	0.150
-175.983	76.988	-0.045	-0.047
-174.969	-142.132	-0.408	-0.040
-173.954	-128.720	0.040	0.006
-172.939	-105.464	-0.124	0.028
-171.925	16.499	0.202	-0.158
-170.910	-138.120	0.072	-0.008
-169.896	-82.046	0.324	0.105
-168.881	-114.147	0.141	-0.027
-167.866	-165.359	-0.151	-0.007
-166.852	800.000	-0.036	-0.150
-165.837	-200.000	-0.004	-0.079
-164.823	60.527	-0.193	0.189
-163.808	-33.640	-0.155	-0.085
-162.793	-166.801	-0.325	0.013
-161.779	24.285	0.062	0.051
-160.764	-200.000	-0.001	-0.494
-159.750	800.000	-0.064	0.239
-158.735	50.468	0.089	-0.084
-157.720	487.945	0.064	0.144
-156.706	-155.629	0.134	-0.009
-155.691	184.094	-0.074	-0.108
-154.677	-183.487	0.022	-0.000
-153.662	800.000	0.021	0.084
-152.647	-200.000	-0.001	0.405
-151.633	139.151	-0.133	-0.173
-150.618	-200.000	0.078	-0.402
-149.604	800.000	-0.042	0.180
-148.589	-167.821	-0.276	-0.011
-147.574	-200.000	-0.022	0.244
-146.560	19.039	0.188	-0.149
-145.545	-200.000	-0.032	-0.214
-144.531	155.981	-0.104	-0.142
-143.516	-165.828	0.147	-0.006
-142.502	278.930	-0.134	0.236
-141.487	125.440	0.241	0.301
-140.472	597.007	0.055	0.135
-139.458	405.243	-0.064	0.133
-138.443	-103.052	0.359	0.084
-137.429	-146.272	-0.040	-0.003
-136.414	800.000	-0.081	-0.317
-135.399	-200.000	0.001	-0.086
-134.385	-37.728	-0.122	0.064
-133.370	292.683	0.143	0.257
-132.356	25.027	-0.115	-0.095
-131.341	-103.924	0.089	-0.021
-130.326	495.258	0.053	0.120
-129.312	55.404	0.259	0.248
-128.297	172.621	0.131	0.186
-127.283	-153.012	0.027	0.002
-126.268	41.869	-0.082	0.074
-125.253	603.215	0.006	0.015
-124.239	-70.629	-0.403	-0.151
-123.224	26.568	0.272	-0.226
-122.210	-46.143	-0.165	0.081
-121.195	-144.551	-0.310	0.028
-120.180	-115.299	-0.094	0.018
-119.166	-92.924	0.233	-0.064
-118.151	25.545	-0.101	-0.083
-117.137	310.283	-0.110	-0.204
-116.122	800.000	0.048	-0.134
-115.107	-200.000	0.019	0.082
-114.093	-200.000	0.038	0.341
-113.078	800.000	0.039	0.168
-112.064	430.521	-0.064	-0.137
-111.049	340.342	-0.102	-0.198
-110.034	-87.631	0.319	-0.095
-109.020	-0.501	-0.243	-0.171
-108.005	-200.000	0.018	0.266
-106.991	246.429	-0.157	0.262
-105.976	99.627	-0.173	0.198
-104.962	-125.487	0.090	-0.014
-103.947	-10.468	0.235	0.154
-102.932	-200.000	0.062	-0.461
-101.918	-72.562	0.217	-0.079
-100.903	-200.000	0.035	0.163
-99.889	-112.868	-0.112	0.022
-98.874	-131.861	0.163	-0.021
-97.859	-200.000	0.012	0.150
-96.845	-200.000	-0.017	0.218
-95.830	180.524	-0.072	-0.105
-94.816	644.483	0.050	0.127
-93.801	-138.836	-0.073	-0.008
-92.786	-25.659	0.167	0.097
-91.772	-46.628	-0.224	-0.108
-90.757	-43.021	-0.186	-0.093
-89.743	800.000	0.084	0.346
-88.728	-104.675	-0.132	-0.030
-87.713	800.000	0.042	0.116
-86.699	-100.820	0.066	0.016
-85.684	-150.749	0.335	-0.025
-84.670	30.533	-0.302	0.255
-83.655	-200.000	-0.036	-0.209
-82.640	-20.761	-0.232	0.140
-81.626	-62.831	0.298	-0.122
-80.611	-130.094	-0.162	0.022
-79.597	-90.026	-0.265	0.076
-78.582	-155.762	0.131	0.008
-77.567	-85.009	-0.089	-0.028
-76.553	-1.425	0.187	0.130
-75.538	166.150	-0.116	-0.163
-74.524	-58.755	-0.424	-0.181
-73.509	420.640	0.092	0.195
-72.494	29.803	-0.176	-0.148
-71.480	-87.317	-0.135	0.040
-70.465	17.812	0.285	-0.224
-69.451	-200.000	0.031	-0.205
-68.436	-200.000	-0.081	0.458
-67.422	-200.000	-0.044	0.291
-66.407	-187.001	0.282	0.004
-65.392	-156.978	-0.149	0.009
-64.378	-75.914	-0.066	0.023
-63.363	-200.000	-0.038	0.483
-62.349	83.550	0.295	0.317
-61.334	-76.222	-1.474	-0.513
-60.319	-14.372	0.349	0.222
-59.305	336.795	-0.603	-1.157
-58.290	187.215	0.751	1.105
-57.276	744.093	0.580	1.541
-56.261	-200.000	96.122	573.525
-55.246	630.715	1388.715	3467.846
-54.232	192.469	2577.362	3838.801
-53.217	118.127	2175.561	2646.277
-52.203	44.060	1714.301	1550.711
-51.188	36.922	1526.822	1332.217
-50.173	34.512	1500.036	1292.490
-49.159	53.998	1548.842	1469.055
-48.144	56.427	1566.440	1502.385
-47.130	37.310	1525.489	1333.507
-46.115	34.126	1510.527	1298.689
-45.100	33.980	1506.520	1294.201
-44.086	33.971	1504.955	1292.745
-43.071	33.775	1503.495	1290.102
-42.057	33.820	1501.742	1288.854
-41.042	33.852	1500.226	1287.717
-40.027	33.897	1498.808	1286.757
-39.013	33.850	1497.262	1285.060
-37.998	33.733	1496.352	1283.440
-36.984	33.894	1495.071	1283.376
-35.969	33.833	1493.613	1281.661
-34.954	33.860	1492.165	1280.547
-33.940	33.838	1490.804	1279.178
-32.925	33.941	1489.210	1278.458
-31.911	33.913	1488.211	1277.360
-30.896	33.967	1486.565	1276.260
-29.881	33.839	1485.982	1274.852
-28.867	33.918	1484.189	1273.789
-27.852	33.795	1483.103	1271.981
-26.838	33.842	1481.148	1270.572
-25.823	33.875	1480.302	1270.012
-24.809	33.860	1478.312	1268.159
-23.794	33.889	1476.967	1267.149
-22.779	33.936	1475.232	1265.923
-21.765	33.914	1474.252	1264.881
-20.750	33.888	1473.295	1263.836
-19.736	33.871	1472.445	1262.944
-18.721	33.830	1471.398	1261.726
-17.706	33.862	1469.933	1260.632
-16.692	33.739	1469.211	1259.144
-15.677	33.756	1468.166	1258.311
-14.663	33.825	1467.628	1258.258
-13.648	33.713	1466.753	1256.715
-12.633	33.784	1465.317	1255.910
-11.619	33.809	1464.589	1255.399
-10.604	33.841	1463.754	1254.847
-9.590	33.682	1463.160	1253.236
-8.575	33.752	1462.170	1252.803
-7.560	33.769	1461.614	1252.389
-6.546	33.783	1460.298	1251.304
-5.531	33.786	1459.704	1250.762
-4.517	33.711	1458.736	1249.387
-3.502	33.847	1457.214	1248.931
-2.487	33.721	1456.649	1247.570
-1.473	33.795	1455.512	1247.029
-0.458	33.792	1454.573	1246.156
0.556	33.125	1444.686	1234.138
1.571	29.957	1419.036	1191.764
2.586	26.216	1357.195	1116.643
3.600	24.492	1274.561	1038.547
4.615	22.846	1229.091	992.166
5.629	19.667	1172.665	929.461
6.644	11.744	1089.443	823.677
7.659	5.646	1049.376	763.656
8.673	4.923	1043.868	756.075
9.688	4.891	1040.788	753.623
10.702	4.816	1039.414	752.200
11.717	4.830	1037.919	751.120
12.731	6.816	1040.087	762.210
13.746	14.130	1049.603	804.619
14.761	19.249	1055.737	834.095
15.775	19.097	1054.435	832.259
16.790	18.113	1052.325	825.767
17.804	16.894	1050.557	818.428
18.819	16.026	1048.852	812.839
19.834	15.515	1047.503	809.262
20.848	15.335	1045.930	807.107
21.863	15.206	1045.474	806.066
22.877	14.792	1045.055	803.679
23.892	14.856	1043.606	802.800
24.907	14.736	1042.821	801.552
25.921	14.651	1042.370	800.723
26.936	14.685	1041.580	800.209
27.950	14.849	1040.266	799.913
28.965	14.748	1039.245	798.575
29.980	14.895	1038.095	798.326
30.994	14.855	1037.591	797.675
32.009	15.066	1036.100	797.462
33.023	15.065	1035.887	797.224
34.038	14.972	1035.129	796.129
35.053	14.954	1034.186	795.246
36.067	14.709	1033.318	793.343
37.082	14.836	1032.460	793.221
38.096	14.946	1031.112	792.633
39.111	14.911	1030.752	792.119
40.126	15.015	1029.933	791.915
41.140	14.891	1028.743	790.344
42.155	14.737	1027.710	788.751
43.169	14.687	1026.858	787.795
44.184	14.488	1025.854	786.016
45.199	14.536	1024.683	785.273
46.213	14.533	1023.864	784.565
47.228	14.609	1022.509	783.811
48.242	14.758	1021.502	783.671
49.257	14.892	1020.680	783.599
50.271	14.768	1019.992	782.420
51.286	14.797	1019.409	782.039
52.301	14.890	1018.274	781.534
53.315	14.956	1017.481	781.166
54.330	14.810	1016.582	779.722
55.344	14.728	1016.287	779.045
56.359	14.671	1014.957	777.694
57.374	14.752	1013.923	777.208
58.388	14.747	1013.009	776.416
59.403	14.708	1012.590	775.843
60.417	14.653	1011.398	774.605
61.432	14.590	1010.924	773.883
62.447	14.634	1010.576	773.753
63.461	14.608	1009.288	772.579
64.476	14.543	1008.312	771.462
65.490	14.480	1007.620	770.573
66.505	14.601	1006.402	770.131
67.520	14.515	1006.071	769.414
68.534	14.471	1005.346	768.589
69.549	14.568	1004.544	768.352
70.563	14.536	1003.968	767.695
71.578	14.448	1003.187	766.626
72.593	14.418	1002.396	765.818
73.607	14.362	1001.434	764.758
74.622	14.366	1000.633	764.096
75.636	14.294	999.607	762.916
76.651	14.429	998.490	762.616
77.666	14.485	998.151	762.543
78.680	14.367	997.503	761.441
79.695	14.497	996.560	761.250
80.709	14.490	996.416	761.038
81.724	14.479	995.742	760.406
82.739	14.601	994.483	759.934
83.753	14.602	994.117	759.593
84.768	14.799	993.578	760.010
85.782	14.907	992.323	759.470
86.797	15.052	991.615	759.521
87.812	14.961	991.363	758.846
88.826	14.880	990.333	757.624
89.841	14.725	989.842	756.480
90.855	14.988	988.476	756.559
91.870	14.962	987.851	755.896
92.884	14.953	987.780	755.733
93.899	14.982	986.708	754.977
94.914	14.883	986.100	754.001
95.928	15.039	985.134	753.897
96.943	14.988	984.527	753.136
97.957	14.876	983.744	751.967
98.972	14.880	983.238	751.532
99.987	14.961	982.228	751.058
101.001	14.954	981.642	750.511
102.016	14.877	981.030	749.633
103.030	14.964	979.469	748.761
104.045	14.895	978.733	747.823
105.060	14.980	977.732	747.373
106.074	14.841	977.145	746.237
107.089	14.794	976.155	745.206
108.103	14.648	975.130	743.708
109.118	14.619	974.477	743.016
110.133	14.617	973.596	742.268
111.147	14.570	972.582	741.222
112.162	14.532	971.526	740.180
113.176	14.509	970.979	739.597
114.191	14.643	970.080	739.442
115.206	14.661	969.333	738.883
116.220	14.693	968.550	738.365
117.235	14.615	967.796	737.381
118.249	14.689	966.805	736.888
119.264	14.622	966.014	735.921
120.279	14.680	964.906	735.271
121.293	14.449	965.070	734.312
122.308	14.431	963.771	733.178
123.322	14.544	962.598	732.718
124.337	14.616	961.746	732.319
125.352	14.560	960.308	730.914
126.366	14.638	959.451	730.539
127.381	14.524	959.022	729.647
128.395	14.536	958.062	728.908
129.410	14.571	956.719	727.973
130.424	14.554	956.176	727.422
131.439	14.667	954.940	726.910
132.454	14.680	954.590	726.634
133.468	14.665	953.124	725.391
134.483	14.786	952.955	725.724
135.497	14.769	952.334	725.110
136.512	14.633	951.511	723.832
137.527	14.693	950.902	723.563
138.541	14.716	949.971	722.891
139.556	14.752	949.466	722.597
140.570	14.733	948.843	721.980
141.585	14.824	947.639	721.393
142.600	14.948	947.370	721.659
143.614	14.989	946.567	721.160
144.629	14.946	945.768	720.302
145.643	15.056	945.274	720.334
146.658	15.054	944.305	719.522
147.673	14.879	943.428	718.040
148.687	14.879	942.195	717.037
149.702	14.775	941.708	716.159
150.716	14.704	941.037	715.279
151.731	14.805	939.850	714.746
152.746	14.713	939.169	713.773
153.760	14.677	938.684	713.189
154.775	14.789	938.279	713.293
155.789	14.927	937.053	712.886
156.804	14.957	936.109	712.235
157.819	14.823	935.888	711.431
158.833	14.875	935.638	711.402
159.848	15.087	934.637	711.478
160.862	15.104	934.112	711.087
161.877	15.191	933.178	710.685
162.892	14.799	932.584	708.507
163.906	14.924	931.573	708.206
164.921	14.730	931.047	706.922
165.935	14.833	929.901	706.422
166.950	14.824	928.590	705.325
167.964	14.904	928.042	705.185
168.979	15.032	926.570	704.546
169.994	14.914	925.803	703.404
171.008	14.867	925.127	702.628
172.023	15.087	923.978	702.618
173.037	15.037	923.508	701.986
174.052	15.113	922.816	701.717
175.067	15.096	922.159	701.084
176.081	15.041	921.449	700.254
177.096	14.904	920.750	699.088
178.110	14.784	919.823	697.820
179.125	14.954	919.192	697.988
180.140	14.990	918.843	697.814
181.154	14.895	917.770	696.540
182.169	15.111	917.121	696.887
183.183	15.067	916.826	696.417
184.198	15.291	915.884	696.572
185.213	15.128	915.519	695.553
186.227	15.254	914.516	695.255
187.242	15.320	914.105	695.151
188.256	15.287	913.462	694.465
189.271	15.402	912.798	694.375
190.286	15.470	911.872	693.888
191.300	15.187	911.543	692.409
192.315	15.028	910.300	690.748
193.329	14.876	909.961	689.803
194.344	14.856	909.245	689.115
195.359	14.773	909.177	688.659
196.373	15.087	908.189	689.145
197.388	15.147	907.672	688.938
198.402	15.311	907.207	689.198
199.417	15.456	907.143	689.686
200.432	15.482	906.451	689.203
201.446	15.633	905.909	689.350
202.461	15.552	905.237	688.445
203.475	15.659	905.037	688.669
204.490	15.607	904.166	687.734
205.504	15.456	903.337	686.425
206.519	15.522	902.376	685.905
207.534	15.423	901.587	684.840
208.548	15.343	901.113	684.095
209.563	15.397	900.633	683.890
210.577	15.406	900.073	683.439
211.592	15.514	899.401	683.308
212.607	15.547	898.720	682.866
213.621	15.679	898.156	682.913
214.636	15.622	897.422	682.061
215.650	15.564	896.883	681.356
216.665	15.605	896.136	680.896
217.680	15.652	895.980	680.905
218.694	15.678	895.378	680.494
219.709	15.808	894.539	680.324
220.723	15.815	894.368	680.161
221.738	15.699	893.458	678.940
222.753	15.700	892.731	678.330
223.767	15.750	891.824	677.783
224.782	15.774	891.419	677.513
225.796	15.813	890.282	676.744
226.811	15.902	890.068	676.881
227.826	15.878	889.099	675.985
228.840	15.813	888.507	675.218
229.855	15.712	888.101	674.443
230.869	15.560	887.381	673.228
231.884	15.625	886.581	672.819
232.899	15.610	886.400	672.564
233.913	15.700	885.402	672.108
234.928	15.744	884.388	671.453
235.942	15.586	883.961	670.439
236.957	15.610	883.170	669.878
237.972	15.500	882.777	669.080
238.986	15.749	881.806	669.277
240.001	15.672	881.393	668.598
241.015	15.643	880.696	667.896
242.030	15.872	879.278	667.668
243.045	15.638	879.472	666.828
244.059	15.923	878.725	667.332
245.074	15.770	877.946	666.077
246.088	15.847	877.364	665.878
247.103	15.763	877.438	665.546
248.117	15.884	876.419	665.190
249.132	16.006	876.072	665.349
250.147	16.170	875.013	665.134
251.161	16.284	874.546	665.170
252.176	16.443	874.123	665.416
253.190	16.326	873.212	664.203
254.205	16.437	872.679	664.174
255.220	16.478	872.450	664.102
256.234	16.442	871.661	663.303
257.249	16.368	871.233	662.627
258.263	16.433	870.502	662.268
259.278	16.417	869.857	661.654
260.293	16.338	869.628	661.113
261.307	16.389	869.169	660.905
262.322	16.580	868.135	660.809
263.336	16.469	867.931	660.161
264.351	16.610	866.994	659.939
265.366	16.504	866.496	659.088
266.380	16.589	865.816	658.842
267.395	16.758	865.007	658.827
268.409	16.488	864.557	657.378
269.424	16.527	863.893	656.966
270.439	16.681	862.517	656.460
271.453	16.624	862.323	656.032
272.468	16.466	861.778	654.948
273.482	16.326	861.296	653.981
274.497	16.454	860.617	653.902
275.512	16.461	859.913	653.337
276.526	16.555	859.153	653.066
277.541	16.533	858.656	652.542
278.555	16.398	858.517	651.858
279.570	16.580	857.770	651.937
280.585	16.830	856.927	652.200
281.599	16.813	856.398	651.674
282.614	16.724	855.915	650.908
283.628	16.730	854.837	650.053
284.643	16.642	854.389	649.317
285.657	16.516	854.207	648.638
286.672	16.604	853.461	648.352
287.687	16.736	853.088	648.516
288.701	16.842	852.598	648.491
289.716	16.831	851.645	647.667
290.730	16.770	850.906	646.815
291.745	16.630	850.835	646.170
292.760	16.653	850.263	645.766
293.774	16.713	849.381	645.268
294.789	16.901	849.284	645.854
295.803	16.815	848.775	645.080
296.818	16.820	847.980	644.438
297.833	16.815	846.790	643.458
298.847	16.736	846.464	642.852
299.862	16.842	845.855	642.736
300.876	16.899	845.048	642.282
301.891	16.801	844.780	641.649
302.906	16.959	843.950	641.563
303.920	17.080	843.075	641.297
304.935	17.106	842.097	640.592
305.949	17.060	842.403	640.594
306.964	17.278	841.312	640.532
307.979	17.077	840.683	639.238
308.993	17.007	840.580	638.842
310.008	17.248	839.817	639.109
311.022	17.301	838.920	638.569
312.037	17.225	838.828	638.157
313.052	17.056	838.679	637.354
314.066	17.034	837.732	636.497
315.081	17.059	836.772	635.803
316.095	17.027	836.523	635.437
317.110	17.003	835.857	634.786
318.125	16.932	835.542	634.224
319.139	17.006	834.636	633.757
320.154	16.960	834.515	633.437
321.168	17.107	833.933	633.488
322.183	17.191	832.681	632.796
323.197	17.068	833.074	632.580
324.212	17.098	832.446	632.158
325.227	16.976	832.101	631.387
326.241	17.106	831.377	631.265
327.256	17.042	830.909	630.615
328.270	17.058	830.402	630.233
329.285	17.083	829.748	629.775
330.300	17.089	829.088	629.241
331.314	17.178	827.950	628.649
332.329	17.277	827.472	628.599
333.343	17.331	827.148	628.496
334.358	17.297	827.022	628.218
335.373	17.355	826.168	627.729
336.387	17.299	826.092	627.408
337.402	17.302	825.595	626.987
338.416	17.405	824.485	626.466
339.431	17.481	824.221	626.492
340.446	17.540	823.600	626.180
341.460	17.676	822.901	626.092
342.475	17.659	822.454	625.635
343.489	17.685	822.248	625.518
344.504	17.599	821.471	624.558
345.519	17.706	821.138	624.640
346.533	17.745	820.654	624.361
347.548	17.703	820.424	623.975
348.562	17.721	819.543	623.318
349.577	17.580	819.107	622.414
350.592	17.650	818.135	621.875
351.606	17.514	817.921	621.164
352.621	17.650	817.085	620.967
353.635	17.611	816.914	620.640
354.650	17.500	816.400	619.792
355.665	17.459	816.415	619.598
356.679	17.652	815.960	619.902
357.694	17.570	815.368	619.098
358.708	17.645	814.766	618.860
359.723	17.703	814.199	618.583
360.738	17.773	813.409	618.182
361.752	17.646	813.017	617.371
362.767	17.685	812.875	617.350
363.781	17.811	812.286	617.304
364.796	17.851	811.753	616.986
365.810	17.878	811.377	616.745
366.825	17.995	811.351	617.093
367.840	17.947	810.903	616.523
368.854	18.058	810.436	616.514
369.869	18.037	809.919	615.990
370.883	18.024	809.056	615.233
371.898	18.044	808.653	614.944
372.913	18.031	808.438	614.680
373.927	18.053	807.418	613.931
374.942	18.146	806.562	613.557
375.956	17.971	806.215	612.613
376.971	18.050	805.793	612.520
377.986	18.192	805.260	612.571
379.000	18.268	804.667	612.335
380.015	18.325	804.191	612.123
381.029	18.285	803.744	611.587
382.044	18.386	802.818	611.187
383.059	18.242	802.617	610.468
384.073	18.403	802.019	610.531
385.088	18.297	801.556	609.747
386.102	18.098	800.945	608.521
387.117	18.070	800.347	607.912
388.132	18.100	799.893	607.621
389.146	18.333	799.503	608.098
390.161	18.198	799.192	607.327
391.175	18.170	798.857	606.920
392.190	18.244	798.344	606.740
393.205	18.278	797.899	606.470
394.219	18.303	797.361	606.095
395.234	18.296	796.683	605.502
396.248	18.212	796.062	604.679
397.263	18.098	795.864	604.071
398.278	18.092	795.555	603.762
399.292	18.122	795.115	603.482
400.307	18.103	794.576	602.951
401.321	18.009	794.473	602.487
402.336	17.997	794.116	602.125
403.350	18.258	793.349	602.405
404.365	18.149	793.265	601.905
405.380	18.422	792.082	601.916
406.394	18.571	791.687	602.084
407.409	18.482	791.705	601.733
408.423	18.330	791.491	600.982
409.438	18.615	790.985	601.544
410.453	18.526	790.214	600.592
411.467	18.667	790.131	600.970
412.482	18.627	789.741	600.480
413.496	18.794	789.119	600.540
414.511	18.785	788.706	600.141
415.526	18.746	788.396	599.714
416.540	18.593	788.084	598.890
417.555	18.630	787.956	598.869
418.569	18.693	787.405	598.617
419.584	18.654	786.715	597.903
420.599	18.691	786.116	597.524
421.613	155.714	1369.467	1791.897
422.628	134.546	1454.482	1792.012
