DTS Sentinel unit serial number:	SN413079Multiplexer serial number:	ORYXHardware model number:	OX4-SRSoftware version number:	ORYX F/W v4.00 Oryx Data Collector v3.7.2.0data status	okinstallation	princeton_trtdifferential loss correction	single-endedforward channel	channel 3reverse channel	N/Adate	2019/09/19time	05:44:35forward acquisition time	60.00reverse acquisition time	0.00gamma	496.2192k internal	0.2348k external	0.2348temperature offset calibration	0.9993default loss term (dB/km)	0.3790temperature slope calibration	1.0000multiplexer offset coefficient	1.0000multiplexer slope coefficient	1.0000fibre end	0.00T internal ref (°C)	19.27T ext. ref 1 (°C)	0.58T ext. ref 2 (°C)	12.81length (m)	temperature (°C)	Stokes	anti-Stokes-747.200	414.484	0.213	0.454
-746.185	800.000	-0.072	0.252
-745.171	136.245	0.266	0.346
-744.156	-112.659	-0.177	-0.035
-743.142	-200.000	-0.015	0.117
-742.127	64.606	-0.188	0.190
-741.112	84.533	-0.103	-0.112
-740.098	18.703	-0.220	-0.176
-739.083	-57.835	0.144	0.063
-738.069	288.597	0.202	0.365
-737.054	-200.000	-0.024	0.168
-736.039	-79.616	0.110	-0.037
-735.025	-200.000	-0.048	0.269
-734.010	21.389	-0.095	-0.077
-732.996	-5.634	-0.391	-0.268
-731.981	-113.542	-0.053	0.010
-730.966	-200.000	0.016	-0.339
-729.952	-200.000	0.045	-0.223
-728.937	14.402	0.159	0.124
-727.923	109.516	-0.031	-0.037
-726.908	-200.000	-0.022	0.247
-725.894	-0.672	-0.162	0.114
-724.879	193.609	-0.166	0.250
-723.864	51.726	0.148	-0.140
-722.850	3.597	-0.215	-0.157
-721.835	800.000	0.088	0.259
-720.821	-136.354	-0.095	0.011
-719.806	503.526	-0.089	-0.205
-718.791	77.444	-0.051	-0.055
-717.777	-51.930	-0.143	-0.066
-716.762	55.647	-0.128	-0.123
-715.748	-74.212	-0.030	-0.011
-714.733	-200.000	-0.171	0.000
-713.718	298.972	0.072	-0.132
-712.704	13.222	-0.240	0.186
-711.689	-200.000	-0.020	0.219
-710.675	499.076	0.122	-0.282
-709.660	800.000	-0.033	0.128
-708.645	113.471	0.201	0.243
-707.631	73.405	-0.075	0.078
-706.616	231.321	0.066	0.107
-705.602	-200.000	-0.025	-0.505
-704.587	-44.511	0.045	0.023
-703.572	20.710	0.101	0.081
-702.558	800.000	-0.082	-0.293
-701.543	6.115	-0.073	0.054
-700.529	277.181	-0.200	-0.355
-699.514	-200.000	0.009	0.174
-698.499	-200.000	-0.058	-0.385
-697.485	-172.125	-0.246	0.008
-696.470	-200.000	0.029	0.362
-695.456	-200.000	-0.033	0.239
-694.441	800.000	0.034	0.141
-693.426	-200.000	0.001	-0.180
-692.412	-99.282	-0.312	-0.078
-691.397	348.309	0.106	0.207
-690.383	-200.000	-0.003	-0.053
-689.368	-200.000	0.012	-0.207
-688.354	-200.000	-0.002	-0.157
-687.339	626.121	-0.043	0.107
-686.324	-200.000	0.007	0.060
-685.310	23.881	0.192	-0.157
-684.295	800.000	-0.095	0.408
-683.281	-200.000	0.016	0.134
-682.266	163.712	-0.160	0.224
-681.251	-61.461	0.217	0.091
-680.237	800.000	0.044	0.127
-679.222	399.060	0.070	-0.146
-678.208	121.536	0.182	-0.226
-677.193	-103.553	0.108	0.025
-676.178	62.910	-0.166	0.166
-675.164	800.000	0.053	0.159
-674.149	-200.000	0.067	-0.492
-673.135	800.000	-0.142	-0.545
-672.120	-87.972	-0.099	0.030
-671.105	52.149	-0.166	-0.158
-670.091	90.568	0.059	-0.066
-669.076	-130.971	-0.182	-0.024
-668.062	-50.173	0.283	-0.133
-667.047	49.092	-0.258	0.242
-666.032	128.409	-0.079	-0.100
-665.018	22.207	-0.211	-0.172
-664.003	800.000	0.070	0.247
-662.989	-174.006	0.134	0.004
-661.974	-46.624	0.060	-0.029
-660.959	-55.539	0.069	0.031
-659.945	-2.707	0.241	-0.168
-658.930	51.895	-0.267	0.253
-657.916	64.360	0.212	-0.213
-656.901	-130.598	-0.374	0.050
-655.886	440.967	0.093	-0.202
-654.872	447.521	-0.060	-0.131
-653.857	151.182	0.044	-0.060
-652.843	-20.545	-0.166	0.101
-651.828	-78.956	0.191	0.065
-650.814	-0.416	-0.148	0.105
-649.799	-25.979	-0.248	0.145
-648.784	50.557	0.156	-0.146
-647.770	-200.000	-0.004	-0.119
-646.755	-7.776	-0.157	-0.105
-645.741	5.816	-0.118	0.087
-644.726	-200.000	-0.023	0.112
-643.711	521.266	-0.102	-0.239
-642.697	-118.482	0.082	-0.014
-641.682	147.760	0.035	0.047
-640.668	104.978	-0.050	0.058
-639.653	-92.097	-0.228	0.064
-638.638	27.944	-0.268	-0.225
-637.624	-200.000	0.032	0.274
-636.609	-125.442	-0.313	0.047
-635.595	102.292	-0.131	0.153
-634.580	10.657	0.043	0.033
-633.565	30.539	0.139	0.118
-632.551	29.842	-0.171	-0.145
-631.536	17.520	0.254	-0.201
-630.522	53.773	-0.168	0.161
-629.507	-86.793	-0.033	0.010
-628.492	-21.259	-0.075	-0.046
-627.478	-70.116	-0.138	0.052
-626.463	-23.270	0.195	-0.117
-625.449	-50.265	0.146	-0.069
-624.434	-94.415	-0.178	-0.048
-623.419	88.865	-0.294	0.326
-622.405	364.698	0.243	-0.486
-621.390	-39.447	-0.552	0.288
-620.376	-7.734	0.219	-0.147
-619.361	567.533	-0.131	-0.316
-618.346	-84.599	0.161	0.050
-617.332	-113.778	0.351	-0.068
-616.317	-188.462	0.435	0.005
-615.303	-200.000	0.007	-0.034
-614.288	25.573	-0.163	0.135
-613.273	-110.496	-0.041	-0.008
-612.259	-21.692	0.273	-0.165
-611.244	-58.825	0.304	-0.131
-610.230	800.000	0.144	0.511
-609.215	-200.000	0.036	-0.217
-608.201	-55.634	-0.224	0.100
-607.186	-27.385	-0.230	-0.133
-606.171	121.876	-0.139	0.172
-605.157	128.568	-0.091	-0.115
-604.142	800.000	0.034	0.101
-603.128	20.532	0.100	0.080
-602.113	56.199	-0.160	0.154
-601.098	-200.000	0.008	-0.238
-600.084	800.000	-0.072	-0.250
-599.069	-104.323	-0.331	0.076
-598.055	198.191	-0.076	0.115
-597.040	70.578	0.106	0.109
-596.025	-200.000	-0.228	-0.001
-595.011	-63.971	0.207	0.084
-593.996	95.722	-0.075	0.085
-592.982	2.147	0.209	-0.150
-591.967	-200.000	-0.061	0.327
-590.952	20.420	-0.182	0.146
-589.938	270.002	-0.075	0.130
-588.923	-200.000	-0.005	0.389
-587.909	-31.361	-0.498	0.278
-586.894	-200.000	0.004	-0.266
-585.879	99.519	0.137	-0.158
-584.865	-165.763	-0.048	0.002
-583.850	371.577	0.040	-0.080
-582.836	381.228	-0.077	-0.157
-581.821	148.294	0.102	0.137
-580.806	251.083	-0.115	-0.195
-579.792	-47.009	-0.325	-0.157
-578.777	-29.909	0.128	-0.073
-577.763	-20.055	0.082	-0.050
-576.748	-85.462	0.068	-0.021
-575.733	-19.654	0.189	-0.116
-574.719	-177.871	0.298	0.007
-573.704	-88.968	0.278	0.082
-572.690	-88.995	-0.309	-0.091
-571.675	129.598	-0.146	0.185
-570.661	193.239	0.004	-0.006
-569.646	-37.125	-0.158	-0.084
-568.631	-80.090	0.172	-0.057
-567.617	520.098	-0.130	0.302
-566.602	-200.000	-0.013	-0.157
-565.588	467.798	0.018	0.039
-564.573	800.000	0.031	0.115
-563.558	-97.340	-0.085	-0.022
-562.544	-105.601	-0.131	0.030
-561.529	278.501	-0.106	-0.187
-560.515	800.000	-0.077	0.314
-559.500	-35.548	-0.171	0.092
-558.485	575.711	-0.086	-0.209
-557.471	54.548	-0.181	0.173
-556.456	-120.358	-0.153	-0.026
-555.442	-5.428	-0.127	-0.087
-554.427	-45.178	-0.158	-0.078
-553.412	-79.812	0.335	0.112
-552.398	-53.095	-0.263	-0.120
-551.383	-200.000	0.042	-0.404
-550.369	345.378	-0.164	0.320
-549.354	60.070	0.166	0.162
-548.339	-90.127	0.197	-0.057
-547.325	-79.314	0.187	0.063
-546.310	286.449	0.154	0.275
-545.296	-47.749	0.113	-0.054
-544.281	-200.000	-0.027	-0.171
-543.266	28.872	-0.089	-0.074
-542.252	36.643	0.447	-0.392
-541.237	-9.271	-0.243	0.161
-540.223	800.000	-0.077	-0.273
-539.208	-200.000	0.017	-0.219
-538.193	639.972	-0.052	-0.132
-537.179	83.097	0.161	-0.173
-536.164	229.269	-0.153	-0.248
-535.150	-74.680	-0.260	-0.093
-534.135	-92.768	-0.031	0.009
-533.121	-200.000	-0.092	-0.541
-532.106	218.841	-0.047	-0.075
-531.091	-25.469	0.085	-0.050
-530.077	128.748	-0.057	0.072
-529.062	-200.000	-0.030	0.267
-528.048	-200.000	-0.014	-0.174
-527.033	800.000	0.043	0.158
-526.018	-63.887	0.258	0.105
-525.004	-105.175	-0.145	0.033
-523.989	-53.060	-0.205	-0.093
-522.975	-18.895	-0.151	0.093
-521.960	-149.497	-0.297	0.023
-520.945	-27.356	0.209	-0.120
-519.931	-200.000	0.004	-0.210
-518.916	-122.112	0.107	0.017
-517.902	800.000	0.066	-0.259
-516.887	-200.000	0.020	0.161
-515.872	-148.020	-0.246	-0.020
-514.858	127.688	0.145	0.183
-513.843	256.377	-0.084	-0.142
-512.829	164.192	-0.192	-0.267
-511.814	23.037	0.135	-0.110
-510.799	183.542	-0.238	-0.348
-509.785	-23.583	0.380	0.225
-508.770	20.887	0.050	-0.040
-507.756	-36.350	-0.192	-0.102
-506.741	-200.000	0.060	0.309
-505.726	-121.146	-0.140	-0.023
-504.712	-22.171	0.090	0.054
-503.697	9.491	0.193	0.144
-502.683	-200.000	-0.040	0.197
-501.668	350.426	-0.162	-0.317
-500.653	120.724	0.003	0.004
-499.639	-200.000	-0.070	-0.309
-498.624	-126.209	0.230	-0.034
-497.610	-50.534	0.308	0.144
-496.595	217.265	0.321	0.506
-495.581	39.695	0.134	0.119
-494.566	-104.695	0.277	0.063
-493.551	119.034	0.109	0.133
-492.537	35.774	0.197	-0.172
-491.522	-200.000	0.028	-0.356
-490.508	62.172	0.230	0.227
-489.493	-200.000	-0.093	0.413
-488.478	-200.000	0.030	-0.160
-487.464	-29.330	0.012	-0.007
-486.449	91.701	-0.073	-0.082
-485.435	50.757	-0.184	-0.172
-484.420	24.352	-0.369	-0.302
-483.405	20.973	0.146	0.117
-482.391	-3.923	-0.178	-0.122
-481.376	180.714	-0.042	0.061
-480.362	11.276	-0.160	-0.121
-479.347	373.432	0.220	0.443
-478.332	-175.645	-0.237	-0.006
-477.318	-174.885	-0.122	0.003
-476.303	579.124	0.040	0.097
-475.289	800.000	-0.058	-0.197
-474.274	126.268	-0.046	0.057
-473.259	198.824	-0.076	-0.116
-472.245	5.049	0.175	0.127
-471.230	227.901	-0.065	0.104
-470.216	-200.000	0.037	0.221
-469.201	109.185	0.143	0.170
-468.186	-110.129	0.184	-0.038
-467.172	-41.705	-0.196	0.099
-466.157	-97.765	-0.275	0.070
-465.143	384.225	-0.149	-0.304
-464.128	-19.454	-0.280	-0.172
-463.113	78.051	-0.132	0.139
-462.099	-163.444	-0.194	0.009
-461.084	-134.800	0.048	0.006
-460.070	-118.988	0.344	0.060
-459.055	-200.000	-0.043	-0.195
-458.040	-200.000	0.045	0.248
-457.026	-70.914	0.213	0.079
-456.011	484.139	-0.151	0.339
-454.997	64.649	0.172	0.172
-453.982	-27.351	0.175	-0.101
-452.968	128.873	0.059	0.074
-451.953	85.809	-0.027	-0.029
-450.938	681.943	-0.141	-0.363
-449.924	733.593	0.065	-0.173
-448.909	156.972	-0.205	0.280
-447.895	521.328	-0.040	0.092
-446.880	-6.601	0.029	-0.020
-445.865	39.878	0.134	-0.119
-444.851	50.115	0.221	-0.206
-443.836	-30.760	-0.316	-0.176
-442.822	179.247	0.064	0.093
-441.807	-90.348	0.078	0.022
-440.792	-87.845	-0.461	0.137
-439.778	95.539	-0.065	0.073
-438.763	-200.000	0.018	0.129
-437.749	69.539	0.157	0.160
-436.734	-76.658	-0.253	0.088
-435.719	233.411	-0.054	0.088
-434.705	28.414	0.092	-0.077
-433.690	-104.533	-0.279	-0.064
-432.676	-200.000	0.028	-0.139
-431.661	11.007	-0.140	0.106
-430.646	-36.102	-0.307	0.164
-429.632	-200.000	0.002	0.141
-428.617	-67.866	-0.237	-0.091
-427.603	-16.462	0.095	0.059
-426.588	-75.577	0.158	-0.055
-425.573	800.000	-0.043	0.158
-424.559	-200.000	-0.021	-0.163
-423.544	290.336	0.056	-0.101
-422.530	17.841	0.130	-0.102
-421.515	-132.224	0.340	0.043
-420.500	-22.839	0.212	-0.126
-419.486	-200.000	-0.006	0.075
-418.471	-38.942	-0.197	0.102
-417.457	510.014	-0.091	-0.209
-416.442	-200.000	-0.032	-0.222
-415.428	-70.600	-0.207	-0.077
-414.413	293.838	0.160	-0.289
-413.398	-200.000	-0.003	0.235
-412.384	-71.467	0.194	0.072
-411.369	-146.893	0.232	-0.020
-410.355	61.715	0.101	0.099
-409.340	-79.723	-0.045	0.015
-408.325	646.296	0.019	-0.048
-407.311	-200.000	-0.044	-0.277
-406.296	-32.029	0.153	-0.084
-405.282	301.670	0.093	-0.169
-404.267	30.627	-0.296	-0.250
-403.252	121.555	-0.037	-0.046
-402.238	222.102	0.126	-0.200
-401.223	-65.553	0.079	-0.031
-400.209	-200.000	0.096	0.613
-399.194	-107.667	0.256	0.055
-398.179	745.352	0.146	0.388
-397.165	-200.000	0.024	-0.124
-396.150	-30.340	0.312	0.175
-395.136	325.465	-0.154	-0.291
-394.121	-200.000	0.064	-0.332
-393.106	-8.511	-0.197	0.131
-392.092	-200.000	-0.005	0.250
-391.077	-8.674	-0.314	0.208
-390.063	153.265	0.123	0.166
-389.048	241.377	-0.175	-0.287
-388.033	133.219	0.140	-0.179
-387.019	-35.874	0.337	0.180
-386.004	-96.958	-0.240	0.062
-384.990	-132.769	-0.372	-0.047
-383.975	-81.744	-0.146	0.047
-382.960	-200.000	0.106	-0.656
-381.946	243.158	-0.175	-0.289
-380.931	-200.000	0.044	-0.339
-379.917	-200.000	0.010	0.093
-378.902	-200.000	0.097	0.506
-377.888	-29.098	-0.177	-0.100
-376.873	-200.000	0.000	-0.533
-375.858	-200.000	0.021	-0.169
-374.844	-58.278	-0.189	-0.081
-373.829	-141.469	-0.245	-0.024
-372.815	-200.000	-0.018	0.247
-371.800	405.713	-0.012	0.024
-370.785	-76.979	0.057	-0.020
-369.771	800.000	0.023	-0.077
-368.756	161.388	0.117	-0.160
-367.742	285.198	0.091	0.161
-366.727	-30.538	0.187	0.104
-365.712	-200.000	-0.044	0.239
-364.698	800.000	-0.151	-0.435
-363.683	-200.000	0.036	-0.315
-362.669	-84.759	-0.067	-0.021
-361.654	334.950	0.101	0.193
-360.639	-200.000	0.014	-0.127
-359.625	-200.000	0.004	-0.122
-358.610	199.487	0.109	0.164
-357.596	-129.106	0.218	-0.030
-356.581	-143.751	-0.076	-0.007
-355.566	-200.000	0.095	0.563
-354.552	254.774	0.146	-0.246
-353.537	-200.000	-0.018	-0.248
-352.523	-109.194	0.126	-0.026
-351.508	-70.889	0.320	-0.118
-350.493	-120.384	-0.132	0.022
-349.479	-200.000	0.027	-0.137
-348.464	-179.069	-0.110	0.002
-347.450	0.526	-0.084	-0.059
-346.435	-11.508	-0.059	-0.038
-345.420	800.000	0.068	0.273
-344.406	-93.204	-0.367	0.100
-343.391	209.831	0.129	0.199
-342.377	-200.000	-0.014	0.062
-341.362	-150.042	0.395	0.030
-340.348	-136.446	-0.330	0.038
-339.333	149.271	0.200	0.266
-338.318	800.000	0.132	0.436
-337.304	205.083	0.137	0.210
-336.289	-132.332	-0.081	0.010
-335.275	270.597	-0.078	0.135
-334.260	-127.643	-0.512	0.073
-333.245	291.564	0.157	0.280
-332.231	29.975	-0.332	0.278
-331.216	-48.248	-0.295	-0.140
-330.202	546.203	0.096	0.226
-329.187	230.377	0.090	-0.144
-328.172	-80.038	-0.125	0.041
-327.158	-149.642	0.324	-0.025
-326.143	-200.000	0.000	-0.105
-325.129	41.177	0.249	-0.222
-324.114	-131.541	-0.325	-0.042
-323.099	-200.000	-0.002	0.189
-322.085	50.883	-0.051	0.048
-321.070	800.000	-0.068	0.229
-320.056	-54.267	0.269	-0.120
-319.041	-121.136	-0.287	0.047
-318.026	800.000	-0.083	-0.249
-317.012	-28.493	-0.089	0.050
-315.997	43.194	0.104	-0.093
-314.983	-5.186	-0.133	-0.090
-313.968	800.000	-0.084	-0.315
-312.953	28.088	-0.360	-0.298
-311.939	97.721	0.311	-0.351
-310.924	-159.097	0.483	0.027
-309.910	-200.000	0.020	-0.264
-308.895	292.002	-0.121	0.217
-307.880	82.395	0.261	0.278
-306.866	244.811	0.094	-0.156
-305.851	-124.307	-0.065	0.010
-304.837	55.987	-0.203	-0.193
-303.822	167.326	0.139	0.194
-302.807	66.294	0.330	-0.329
-301.793	60.956	-0.091	0.089
-300.778	41.866	0.224	0.199
-299.764	800.000	-0.109	0.465
-298.749	-200.000	-0.105	0.527
-297.735	219.420	0.149	0.234
-296.720	147.743	-0.177	-0.234
-295.705	-200.000	0.004	0.151
-294.691	-84.062	-0.278	-0.087
-293.676	-73.562	-0.408	-0.146
-292.662	-200.000	-0.024	-0.262
-291.647	-99.526	0.246	0.061
-290.632	-138.771	0.105	0.011
-289.618	-106.256	-0.291	0.064
-288.603	800.000	-0.113	0.307
-287.589	800.000	0.059	0.251
-286.574	136.010	0.164	-0.209
-285.559	800.000	-0.018	-0.069
-284.545	26.466	0.179	-0.147
-283.530	-200.000	-0.012	0.310
-282.516	52.102	0.185	-0.173
-281.501	790.569	-0.074	-0.200
-280.486	-200.000	0.020	-0.266
-279.472	81.628	-0.129	0.136
-278.457	-200.000	-0.001	0.041
-277.443	48.706	0.141	-0.130
-276.428	-137.364	-0.230	-0.026
-275.413	-107.400	0.184	0.040
-274.399	26.020	-0.103	0.084
-273.384	-1.156	0.172	0.119
-272.370	35.812	-0.167	0.144
-271.355	800.000	0.103	-0.322
-270.340	308.274	0.075	-0.138
-269.326	800.000	-0.027	-0.077
-268.311	-37.868	-0.203	0.106
-267.297	373.012	0.136	-0.272
-266.282	-200.000	0.035	0.203
-265.267	800.000	-0.043	-0.178
-264.253	-72.594	0.051	-0.019
-263.238	78.409	0.325	0.341
-262.224	800.000	0.117	0.332
-261.209	-200.000	0.070	-0.333
-260.195	-4.243	0.170	0.115
-259.180	-18.995	-0.104	-0.063
-258.165	113.828	-0.050	0.059
-257.151	-49.373	0.290	-0.136
-256.136	-200.000	-0.009	0.053
-255.122	-200.000	0.046	0.276
-254.107	33.677	0.072	0.061
-253.092	-29.489	0.359	-0.201
-252.078	247.191	-0.180	0.299
-251.063	800.000	0.114	-0.365
-250.049	800.000	-0.099	0.320
-249.034	-85.490	-0.336	0.103
-248.019	-115.522	-0.131	0.024
-247.005	606.908	-0.118	-0.288
-245.990	-151.842	0.311	-0.022
-244.976	-113.482	0.270	0.052
-243.961	-85.700	0.266	0.081
-242.946	43.136	0.180	0.161
-241.932	50.443	-0.213	0.198
-240.917	601.705	0.114	0.278
-239.903	-176.993	0.520	-0.013
-238.888	156.619	0.012	0.017
-237.873	-164.108	-0.517	0.023
-236.859	-27.637	0.171	0.097
-235.844	-79.859	0.223	0.073
-234.830	65.246	0.049	-0.048
-233.815	-200.000	0.024	0.257
-232.800	158.956	0.084	-0.114
-231.786	16.258	0.052	-0.040
-230.771	800.000	0.037	0.152
-229.757	800.000	0.038	0.157
-228.742	-45.687	0.322	-0.156
-227.727	-151.264	-0.199	-0.015
-226.713	-30.301	-0.159	-0.089
-225.698	101.487	-0.241	0.275
-224.684	17.530	0.278	0.216
-223.669	125.889	0.033	-0.041
-222.655	140.084	0.127	0.164
-221.640	800.000	0.090	-0.327
-220.625	101.061	0.141	-0.161
-219.611	-23.721	0.199	-0.117
-218.596	-171.972	-0.394	0.013
-217.582	800.000	0.072	-0.215
-216.567	71.606	0.130	0.132
-215.552	-81.858	-0.170	0.055
-214.538	-72.442	0.157	0.057
-213.523	364.477	0.036	0.071
-212.509	-76.898	0.201	0.069
-211.494	-200.000	0.048	-0.272
-210.479	-200.000	-0.043	0.281
-209.465	-200.000	0.119	-0.556
-208.450	360.374	0.205	-0.401
-207.436	-200.000	-0.032	-0.154
-206.421	800.000	-0.004	0.014
-205.406	-169.101	-0.166	0.006
-204.392	-76.212	-0.271	-0.093
-203.377	96.609	0.032	0.035
-202.363	-92.648	0.157	-0.043
-201.348	10.353	0.104	0.078
-200.333	33.168	0.135	-0.115
-199.319	-74.985	0.227	0.080
-198.304	-200.000	-0.006	-0.093
-197.290	253.241	-0.088	-0.146
-196.275	6.879	0.219	-0.160
-195.260	-200.000	-0.016	-0.087
-194.246	-31.405	-0.142	-0.078
-193.231	800.000	-0.019	0.053
-192.217	800.000	-0.047	-0.136
-191.202	-200.000	-0.001	-0.138
-190.187	-33.562	-0.234	0.126
-189.173	-200.000	-0.001	-0.037
-188.158	-38.326	0.071	0.037
-187.144	-84.913	-0.289	-0.089
-186.129	-140.879	0.130	0.013
-185.114	-106.123	0.055	-0.012
-184.100	256.372	-0.023	0.039
-183.085	-200.000	0.003	0.018
-182.071	348.652	-0.067	-0.130
-181.056	-138.876	0.113	-0.012
-180.042	529.468	-0.065	0.150
-179.027	36.910	-0.174	0.150
-178.012	55.082	-0.052	-0.049
-176.998	-5.100	-0.222	0.149
-175.983	-92.207	0.203	0.056
-174.969	-200.000	-0.004	0.192
-173.954	-200.000	0.011	0.416
-172.939	-97.409	0.094	0.024
-171.925	-200.000	-0.016	0.175
-170.910	-159.847	0.536	0.029
-169.896	660.611	0.090	-0.227
-168.881	-92.396	-0.146	0.040
-167.866	485.481	-0.146	0.326
-166.852	-11.797	-0.111	-0.071
-165.837	-144.416	0.207	-0.019
-164.823	765.097	-0.067	-0.178
-163.808	-164.440	-0.209	-0.009
-162.793	303.484	0.150	0.272
-161.779	800.000	-0.066	-0.215
-160.764	16.880	0.233	0.180
-159.750	-200.000	-0.039	-0.223
-158.735	800.000	0.040	0.130
-157.720	-122.576	0.197	-0.031
-156.706	-68.383	-0.110	0.042
-155.691	-200.000	-0.056	0.341
-154.677	-16.758	-0.242	0.150
-153.662	416.311	0.143	0.298
-152.647	800.000	0.029	-0.085
-151.633	-200.000	-0.050	-0.218
-150.618	-174.003	-0.131	-0.004
-149.604	800.000	-0.071	-0.272
-148.589	-200.000	-0.042	0.346
-147.574	93.551	0.087	0.096
-146.560	128.502	-0.109	0.136
-145.545	800.000	-0.052	-0.169
-144.531	7.911	-0.160	0.117
-143.516	80.231	0.135	0.142
-142.502	-132.331	-0.125	-0.016
-141.487	170.199	-0.324	0.452
-140.472	-93.721	-0.459	-0.124
-139.458	-91.470	-0.111	-0.031
-138.443	-200.000	0.007	-0.150
-137.429	-200.000	0.007	0.052
-136.414	80.518	-0.074	-0.078
-135.399	-6.594	0.102	-0.068
-134.385	301.258	-0.155	-0.278
-133.370	-49.841	-0.108	0.050
-132.356	-65.954	-0.242	0.094
-131.341	-171.045	-0.160	-0.005
-130.326	-164.339	0.159	0.007
-129.312	-14.255	-0.089	0.056
-128.297	-25.360	-0.196	0.113
-127.283	61.494	0.057	0.055
-126.268	800.000	-0.062	0.201
-125.253	-144.317	0.257	0.023
-124.239	96.709	-0.169	0.188
-123.224	607.608	0.117	0.286
-122.210	-122.535	0.317	-0.050
-121.195	173.552	0.019	-0.027
-120.180	-200.000	-0.010	0.082
-119.166	-200.000	0.013	-0.208
-118.151	-176.880	-0.047	0.001
-117.137	-92.762	-0.308	-0.084
-116.122	-154.702	0.104	-0.007
-115.107	-40.579	0.298	0.151
-114.093	-11.203	0.143	0.092
-113.078	45.680	0.126	-0.113
-112.064	461.013	0.023	0.049
-111.049	-145.337	0.092	-0.008
-110.034	24.121	-0.229	0.184
-109.020	166.334	-0.083	0.115
-108.005	110.981	-0.112	-0.131
-106.991	-95.709	0.140	0.036
-105.976	800.000	0.076	0.232
-104.962	800.000	0.068	0.241
-103.947	790.373	0.159	-0.427
-102.932	49.917	-0.164	-0.151
-101.918	403.009	0.179	0.367
-100.903	-52.095	0.174	-0.078
-99.889	800.000	-0.010	0.041
-98.874	-30.406	-0.168	-0.093
-97.859	800.000	-0.179	-0.557
-96.845	28.018	-0.135	-0.111
-95.830	557.681	0.165	0.387
-94.816	-165.886	0.201	-0.008
-93.801	228.425	0.035	0.056
-92.786	225.484	-0.069	0.109
-91.772	9.833	0.079	0.058
-90.757	80.343	-0.296	0.310
-89.743	-45.531	-0.102	-0.049
-88.728	126.908	-0.076	0.094
-87.713	-8.747	-0.239	0.156
-86.699	-200.000	-0.044	0.462
-85.684	-200.000	0.014	-0.071
-84.670	-11.932	-0.295	0.188
-83.655	-85.610	0.234	-0.071
-82.640	95.754	-0.397	-0.441
-81.626	520.591	0.089	0.203
-80.611	-161.645	-0.219	-0.011
-79.597	800.000	-0.047	0.143
-78.582	-99.112	-0.120	0.030
-77.567	86.131	-0.251	-0.269
-76.553	-0.044	-0.138	0.096
-75.538	-61.175	-0.322	-0.132
-74.524	-136.868	0.134	-0.015
-73.509	-68.907	-0.146	0.055
-72.494	-50.027	0.160	-0.074
-71.480	-200.000	-0.059	-0.265
-70.465	-101.015	0.253	0.060
-69.451	65.981	0.187	0.184
-68.436	255.924	-0.074	0.124
-67.422	5.223	-0.135	-0.097
-66.407	800.000	-0.023	0.071
-65.392	800.000	0.017	0.062
-64.378	-71.902	-0.184	-0.066
-63.363	119.163	0.115	-0.138
-62.349	119.341	-0.086	-0.103
-61.334	59.914	-1.350	-1.297
-60.319	214.247	0.636	0.979
-59.305	147.646	-0.767	-1.005
-58.290	411.076	0.907	1.871
-57.276	800.000	0.463	1.639
-56.261	-200.000	136.194	621.999
-55.246	343.003	1635.740	3115.074
-54.232	138.467	2770.406	3535.755
-53.217	81.610	2176.534	2289.690
-52.203	29.002	1697.221	1399.478
-51.188	22.127	1523.345	1208.933
-50.173	20.562	1502.756	1181.911
-49.159	43.593	1578.976	1404.124
-48.144	39.640	1588.742	1385.058
-47.130	22.098	1538.750	1220.759
-46.115	19.511	1523.173	1190.533
-45.100	19.344	1519.477	1186.452
-44.086	19.250	1517.423	1184.151
-43.071	19.277	1515.654	1182.913
-42.057	19.249	1514.065	1181.433
-41.042	19.166	1512.904	1179.908
-40.027	19.282	1510.863	1179.065
-39.013	19.173	1509.628	1177.311
-37.998	19.255	1508.380	1176.853
-36.984	19.193	1507.706	1175.854
-35.969	19.289	1506.078	1175.194
-34.954	19.140	1504.469	1172.873
-33.940	19.116	1503.185	1171.664
-32.925	19.132	1502.122	1170.897
-31.911	19.245	1500.403	1170.277
-30.896	19.259	1499.535	1169.650
-29.881	19.316	1498.098	1168.871
-28.867	19.305	1496.722	1167.675
-27.852	19.349	1495.264	1166.787
-26.838	19.265	1494.222	1165.360
-25.823	19.369	1492.274	1164.497
-24.809	19.387	1490.670	1163.322
-23.794	19.368	1489.599	1162.312
-22.779	19.279	1488.788	1161.038
-21.765	19.284	1487.612	1160.107
-20.750	19.406	1486.106	1159.704
-19.736	19.257	1485.150	1157.912
-18.721	19.381	1483.931	1157.746
-17.706	19.332	1482.921	1156.587
-16.692	19.378	1481.727	1155.913
-15.677	19.350	1480.664	1154.855
-14.663	19.217	1479.674	1153.144
-13.648	19.207	1478.928	1152.449
-12.633	19.243	1477.893	1151.842
-11.619	19.189	1477.175	1150.876
-10.604	19.264	1476.185	1150.555
-9.590	19.289	1475.556	1150.187
-8.575	19.355	1474.617	1149.848
-7.560	19.285	1473.670	1148.601
-6.546	19.154	1473.076	1147.218
-5.531	19.229	1472.174	1146.970
-4.517	19.232	1470.846	1145.911
-3.502	19.274	1469.662	1145.219
-2.487	19.249	1469.247	1144.685
-1.473	19.223	1468.196	1143.647
-0.458	19.217	1466.614	1142.331
0.556	18.200	1456.550	1130.332
1.571	14.915	1432.929	1090.516
2.586	11.499	1371.388	1022.235
3.600	10.015	1286.944	950.483
4.615	9.119	1244.223	913.752
5.629	8.280	1187.681	867.591
6.644	4.220	1109.321	789.633
7.659	1.003	1076.232	750.101
8.673	0.657	1071.260	744.861
9.688	0.544	1067.337	741.511
10.702	0.551	1066.471	740.880
11.717	0.589	1063.768	739.123
12.731	1.800	1063.326	744.671
13.746	6.706	1069.801	773.224
14.761	13.210	1078.718	811.634
15.775	16.786	1082.964	832.357
16.790	16.962	1082.233	832.588
17.804	15.946	1079.923	825.756
18.819	15.190	1078.049	820.551
19.834	14.565	1076.829	816.491
20.848	14.393	1075.737	814.752
21.863	14.214	1074.482	812.852
22.877	13.867	1074.431	811.049
23.892	13.695	1073.340	809.311
24.907	13.698	1072.389	808.537
25.921	13.634	1071.813	807.721
26.936	13.594	1071.510	807.226
27.950	13.730	1070.810	807.289
28.965	13.751	1069.549	806.371
29.980	13.722	1069.026	805.762
30.994	13.839	1068.203	805.636
32.009	13.926	1067.109	805.164
33.023	13.888	1066.215	804.234
34.038	13.918	1065.786	803.986
35.053	13.848	1064.856	802.875
36.067	13.796	1064.037	801.934
37.082	13.767	1063.051	800.982
38.096	13.729	1062.217	800.095
39.111	13.970	1060.935	800.222
40.126	13.856	1060.542	799.304
41.140	13.748	1059.347	797.816
42.155	13.798	1058.412	797.282
43.169	13.742	1057.321	796.122
44.184	13.677	1056.388	795.038
45.199	13.797	1054.850	794.383
46.213	13.702	1054.247	793.400
47.228	13.745	1052.869	792.502
48.242	13.836	1052.150	792.323
49.257	13.830	1051.105	791.440
50.271	13.842	1050.416	790.906
51.286	13.872	1049.274	790.120
52.301	13.851	1048.564	789.416
53.315	13.878	1047.503	788.673
54.330	13.902	1046.506	787.967
55.344	13.760	1045.811	786.700
56.359	13.658	1044.852	785.426
57.374	13.703	1044.102	785.006
58.388	13.792	1042.951	784.494
59.403	13.682	1042.574	783.623
60.417	13.681	1041.515	782.752
61.432	13.757	1040.522	782.295
62.447	13.773	1039.838	781.785
63.461	13.673	1038.886	780.530
64.476	13.652	1038.281	779.906
65.490	13.582	1037.419	778.864
66.505	13.672	1036.212	778.309
67.520	13.571	1036.040	777.639
68.534	13.765	1034.506	777.325
69.549	13.756	1034.012	776.843
70.563	13.767	1033.220	776.232
71.578	13.713	1032.745	775.552
72.593	13.571	1031.630	773.984
73.607	13.604	1030.942	773.553
74.622	13.617	1029.644	772.572
75.636	13.540	1029.039	771.690
76.651	13.687	1027.775	771.359
77.666	13.672	1027.304	770.865
78.680	13.639	1026.524	770.062
79.695	13.685	1026.406	770.118
80.709	13.504	1025.663	768.652
81.724	13.665	1024.526	768.478
82.739	13.662	1023.572	767.682
83.753	13.680	1022.991	767.260
84.768	13.665	1022.293	766.600
85.782	13.926	1020.751	766.582
86.797	13.934	1020.093	766.053
87.812	13.793	1019.561	764.939
88.826	13.681	1018.697	763.706
89.841	13.764	1017.871	763.403
90.855	13.707	1016.957	762.385
91.870	13.738	1016.576	762.178
92.884	13.774	1015.651	761.580
93.899	13.835	1014.851	761.192
94.914	13.949	1013.678	760.768
95.928	14.011	1013.228	760.647
96.943	14.042	1012.580	760.235
97.957	13.894	1011.769	758.881
98.972	13.954	1010.761	758.333
99.987	13.854	1010.006	757.245
101.001	13.865	1009.035	756.497
102.016	13.821	1008.873	756.107
103.030	13.829	1007.928	755.372
104.045	13.935	1006.361	754.612
105.060	13.878	1005.853	753.904
106.074	13.841	1004.668	752.781
107.089	13.727	1004.049	751.734
108.103	13.796	1003.207	751.350
109.118	13.688	1002.239	750.072
110.133	13.786	1001.172	749.650
111.147	13.677	1000.528	748.608
112.162	13.915	999.260	748.665
113.176	13.774	998.745	747.580
114.191	13.847	997.835	747.159
115.206	14.022	996.791	747.099
116.220	13.742	996.271	745.385
117.235	13.815	995.180	744.832
118.249	13.882	994.427	744.502
119.264	13.859	993.570	743.692
120.279	13.855	992.711	742.962
121.293	13.735	991.821	741.696
122.308	13.840	991.200	741.634
123.322	13.818	990.132	740.673
124.337	13.784	989.290	739.825
125.352	13.707	988.128	738.548
126.366	13.787	986.854	737.885
127.381	13.696	986.014	736.788
128.395	13.616	985.100	735.682
129.410	13.741	983.863	735.250
130.424	13.731	983.218	734.659
131.439	13.731	982.017	733.695
132.454	13.781	981.460	733.435
133.468	13.849	980.801	733.177
134.483	13.840	979.932	732.425
135.497	13.745	979.470	731.597
136.512	13.718	978.623	730.779
137.527	13.841	977.429	730.365
138.541	13.808	977.062	729.880
139.556	13.748	976.190	728.900
140.570	13.705	975.879	728.415
141.585	13.915	974.952	728.580
142.600	13.966	974.091	728.098
143.614	13.881	973.603	727.296
144.629	13.972	972.644	726.912
145.643	13.989	971.845	726.326
146.658	14.093	970.981	726.069
147.673	13.991	969.692	724.595
148.687	14.059	969.035	724.338
149.702	13.890	968.373	723.043
150.716	14.001	967.121	722.526
151.731	13.999	966.337	721.868
152.746	14.015	965.614	721.333
153.760	14.027	964.943	720.821
154.775	14.070	964.107	720.318
155.789	13.959	963.760	719.515
156.804	14.069	962.781	719.199
157.819	14.142	961.824	718.733
158.833	14.154	961.404	718.407
159.848	14.102	960.946	717.777
160.862	14.203	959.863	717.338
161.877	14.267	959.040	716.938
162.892	14.210	958.229	716.024
163.906	14.083	957.617	714.955
164.921	14.149	956.588	714.408
165.935	14.044	955.620	713.173
166.950	14.157	954.551	712.795
167.964	14.145	953.928	712.213
168.979	14.246	952.600	711.593
169.994	14.219	951.779	710.801
171.008	14.157	950.871	709.796
172.023	14.242	949.899	709.367
173.037	14.242	949.233	708.807
174.052	14.270	948.897	708.616
175.067	14.315	948.076	708.130
176.081	14.309	946.815	707.102
177.096	14.240	946.113	706.222
178.110	14.318	945.436	705.981
179.125	14.281	944.477	705.048
180.140	14.229	943.761	704.231
181.154	14.206	943.403	703.806
182.169	14.337	942.664	703.744
183.183	14.292	941.796	702.842
184.198	14.433	941.253	702.970
185.213	14.384	940.568	702.193
186.227	14.499	939.518	701.830
187.242	14.402	939.565	701.393
188.256	14.496	938.217	700.722
189.271	14.464	937.514	699.998
190.286	14.331	937.365	699.267
191.300	14.415	936.341	698.794
192.315	14.183	935.737	697.310
193.329	14.159	935.431	696.921
194.344	14.187	934.481	696.265
195.359	14.306	933.840	696.225
196.373	14.373	933.028	695.839
197.388	14.470	932.543	695.822
198.402	14.431	932.480	695.549
199.417	14.554	931.638	695.372
200.432	14.566	931.351	695.146
201.446	14.469	931.182	694.553
202.461	14.524	930.346	694.099
203.475	14.685	929.992	694.442
204.490	14.632	929.087	693.486
205.504	14.663	927.824	692.611
206.519	14.592	927.523	692.030
207.534	14.639	926.578	691.457
208.548	14.670	925.936	691.045
209.563	14.689	924.970	690.343
210.577	14.597	924.917	689.863
211.592	14.623	924.215	689.384
212.607	14.823	923.289	689.459
213.621	14.776	922.878	688.896
214.636	14.916	921.873	688.659
215.650	14.787	921.458	687.759
216.665	14.795	920.665	687.140
217.680	14.870	920.416	687.202
218.694	14.884	920.105	686.966
219.709	14.855	919.687	686.475
220.723	14.836	918.735	685.622
221.738	14.898	917.871	685.172
222.753	15.003	917.306	685.121
223.767	14.846	916.853	684.079
224.782	14.974	915.709	683.687
225.796	15.078	914.768	683.350
226.811	15.049	914.357	682.865
227.826	15.062	913.384	682.130
228.840	15.029	913.083	681.708
229.855	15.009	912.225	680.929
230.869	15.028	911.435	680.353
231.884	14.918	911.024	679.543
232.899	14.934	909.896	678.705
233.913	14.999	909.120	678.330
234.928	15.050	908.717	678.175
235.942	15.029	907.815	677.358
236.957	15.009	907.443	676.938
237.972	15.107	906.323	676.440
238.986	14.899	906.370	675.574
240.001	15.106	905.429	675.648
241.015	14.984	905.012	674.785
242.030	15.027	904.366	674.417
243.045	15.168	903.036	673.932
244.059	15.100	902.615	673.286
245.074	15.180	902.018	673.100
246.088	15.108	901.604	672.445
247.103	15.195	900.540	671.942
248.117	15.210	900.334	671.789
249.132	15.347	899.410	671.586
250.147	15.352	899.006	671.246
251.161	15.400	897.831	670.500
252.176	15.457	897.164	670.171
253.190	15.427	896.495	669.492
254.205	15.568	895.944	669.584
255.220	15.513	895.691	669.115
256.234	15.520	894.837	668.446
257.249	15.374	894.184	667.319
258.263	15.530	893.784	667.583
259.278	15.502	893.101	666.901
260.293	15.492	892.872	666.633
261.307	15.536	892.194	666.243
262.322	15.708	891.092	666.039
263.336	15.734	890.281	665.480
264.351	15.557	890.034	664.535
265.366	15.502	889.532	663.884
266.380	15.646	888.953	663.962
267.395	15.616	888.359	663.341
268.409	15.594	887.833	662.802
269.424	15.593	887.310	662.349
270.439	15.597	886.276	661.535
271.453	15.749	885.164	661.245
272.468	15.621	884.550	660.223
273.482	15.684	883.971	659.981
274.497	15.634	883.518	659.388
275.512	15.803	882.603	659.309
276.526	15.761	881.832	658.511
277.541	15.730	881.303	657.935
278.555	15.858	880.775	657.982
279.570	15.942	879.638	657.405
280.585	16.027	879.417	657.512
281.599	15.726	879.141	656.075
282.614	15.881	878.604	656.219
283.628	15.870	877.769	655.494
284.643	16.015	876.480	655.037
285.657	15.949	876.372	654.644
286.672	15.909	876.017	654.166
287.687	16.148	875.339	654.527
288.701	15.956	875.062	653.518
289.716	15.995	874.449	653.153
290.730	16.087	873.787	652.956
291.745	16.020	873.265	652.249
292.760	16.161	872.602	652.244
293.774	15.968	872.305	651.217
294.789	16.092	871.073	650.716
295.803	16.082	870.383	650.106
296.818	16.073	870.066	649.778
297.833	16.153	869.267	649.431
298.847	15.988	868.514	648.178
299.862	16.176	867.787	648.301
300.876	16.202	867.038	647.780
301.891	16.198	866.473	647.287
302.906	16.181	865.989	646.802
303.920	16.204	865.364	646.366
304.935	16.237	864.607	645.869
305.949	16.388	863.760	645.758
306.964	16.304	863.428	645.133
307.979	16.422	862.740	645.012
308.993	16.191	862.589	643.959
310.008	16.426	861.818	644.224
311.022	16.393	861.302	643.656
312.037	16.367	860.989	643.267
313.052	16.376	860.125	642.598
314.066	16.511	859.417	642.522
315.081	16.392	859.136	641.804
316.095	16.311	858.813	641.201
317.110	16.380	857.905	640.725
318.125	16.453	857.551	640.681
319.139	16.509	856.836	640.303
320.154	16.395	856.401	639.489
321.168	16.510	855.693	639.340
322.183	16.412	855.212	638.554
323.197	16.430	854.619	638.121
324.212	16.617	854.169	638.433
325.227	16.577	853.654	637.842
326.241	16.452	853.085	636.891
327.256	16.400	852.535	636.226
328.270	16.423	852.234	636.032
329.285	16.518	851.346	635.670
330.300	16.514	850.685	635.105
331.314	16.509	850.233	634.692
332.329	16.557	849.637	634.371
333.343	16.704	848.744	634.200
334.358	16.707	848.136	633.702
335.373	16.716	847.651	633.317
336.387	16.731	846.937	632.783
337.402	16.571	846.844	632.058
338.416	16.590	846.251	631.631
339.431	16.836	845.696	632.079
340.446	16.774	844.843	631.156
341.460	16.769	844.635	630.925
342.475	16.827	843.638	630.342
343.489	16.797	843.381	629.982
344.504	16.894	842.792	629.845
345.519	16.952	841.894	629.335
346.533	16.996	841.443	629.106
347.548	17.007	841.279	628.966
348.562	16.914	840.841	628.240
349.577	16.935	840.059	627.678
350.592	16.881	839.567	627.053
351.606	16.851	839.167	626.590
352.621	16.956	838.557	626.468
353.635	16.906	838.356	626.077
354.650	16.949	837.620	625.628
355.665	16.951	837.792	625.710
356.679	16.955	836.953	625.043
357.694	17.110	836.350	625.108
358.708	17.008	835.723	624.209
359.723	17.094	835.206	624.084
360.738	17.119	834.704	623.744
361.752	17.167	834.276	623.546
362.767	17.087	833.840	622.872
363.781	17.146	833.601	622.853
364.796	17.045	833.092	622.047
365.810	17.202	832.461	622.099
366.825	17.273	832.165	622.083
367.840	17.235	831.779	621.597
368.854	17.279	831.485	621.486
369.869	17.267	830.960	620.992
370.883	17.224	830.330	620.312
371.898	17.191	829.534	619.540
372.913	17.336	828.681	619.376
373.927	17.259	828.510	618.915
374.942	17.390	827.609	618.664
375.956	17.372	827.058	618.132
376.971	17.454	826.372	617.860
377.986	17.337	826.063	617.150
379.000	17.479	825.488	617.182
380.015	17.490	825.161	616.924
381.029	17.418	824.539	616.143
382.044	17.590	823.796	616.153
383.059	17.508	823.480	615.569
384.073	17.548	822.828	615.171
385.088	17.519	821.885	614.305
386.102	17.537	821.804	614.257
387.117	17.669	820.820	613.941
388.132	17.571	820.618	613.385
389.146	17.621	820.241	613.229
390.161	17.421	820.080	612.333
391.175	17.658	819.475	612.678
392.190	17.666	819.048	612.333
393.205	17.548	818.666	611.572
394.219	17.608	818.224	611.402
395.234	17.557	817.657	610.740
396.248	17.748	816.956	610.846
397.263	17.599	816.754	610.108
398.278	17.602	816.077	609.560
399.292	17.586	815.756	609.209
400.307	17.427	815.522	608.413
401.321	17.625	814.864	608.575
402.336	17.770	814.514	608.778
403.350	17.702	814.086	608.160
404.365	17.730	813.619	607.858
405.380	17.733	813.172	607.480
406.394	17.827	812.782	607.472
407.409	17.851	812.020	606.933
408.423	17.857	811.525	606.530
409.438	17.879	811.316	606.397
410.453	17.883	810.892	606.043
411.467	17.913	810.556	605.842
412.482	18.047	809.734	605.651
413.496	18.021	809.699	605.480
414.511	18.001	809.205	604.984
415.526	18.018	809.064	604.887
416.540	17.962	808.519	604.228
417.555	18.020	808.024	604.010
418.569	18.018	807.634	603.658
419.584	17.997	806.994	603.052
420.599	18.120	806.514	603.073
421.613	116.210	1299.947	1492.934
422.628	100.477	1371.807	1493.012
