DTS Sentinel unit serial number:	SN413079Multiplexer serial number:	ORYXHardware model number:	OX4-SRSoftware version number:	ORYX F/W v4.00 Oryx Data Collector v3.7.2.0data status	okinstallation	princeton_trtdifferential loss correction	single-endedforward channel	channel 3reverse channel	N/Adate	2019/09/16time	08:08:35forward acquisition time	60.00reverse acquisition time	0.00gamma	496.2192k internal	0.2327k external	0.2327temperature offset calibration	0.9958default loss term (dB/km)	0.3790temperature slope calibration	1.0000multiplexer offset coefficient	1.0000multiplexer slope coefficient	1.0000fibre end	0.00T internal ref (°C)	28.69T ext. ref 1 (°C)	11.81T ext. ref 2 (°C)	24.83length (m)	temperature (°C)	Stokes	anti-Stokes-747.200	-200.000	-0.030	-0.384
-746.185	-200.000	0.047	0.218
-745.171	-53.513	0.106	-0.049
-744.156	-171.261	-0.027	-0.001
-743.142	-30.385	-0.356	0.204
-742.127	-200.000	-0.016	0.289
-741.112	-200.000	0.019	-0.116
-740.098	-50.113	-0.269	0.129
-739.083	-111.226	-0.143	-0.029
-738.069	40.324	0.147	0.134
-737.054	-40.735	-0.122	0.064
-736.039	-88.362	0.322	-0.097
-735.025	-200.000	0.007	-0.155
-734.010	-148.614	-0.257	-0.021
-732.996	-200.000	-0.005	-0.139
-731.981	-35.024	-0.262	0.144
-730.966	-59.936	0.094	-0.040
-729.952	800.000	0.065	-0.195
-728.937	-140.365	0.288	-0.030
-727.923	53.548	-0.030	-0.029
-726.908	68.847	0.047	0.049
-725.894	144.880	-0.183	-0.247
-724.879	92.397	0.349	-0.396
-723.864	-102.391	-0.188	0.045
-722.850	800.000	-0.097	-0.287
-721.835	-200.000	-0.013	0.175
-720.821	-118.444	-0.259	-0.046
-719.806	-117.582	-0.090	0.016
-718.791	200.383	0.128	0.199
-717.777	322.593	-0.070	-0.135
-716.762	-40.971	-0.200	0.104
-715.748	410.810	0.114	-0.244
-714.733	-200.000	-0.046	0.218
-713.718	454.483	-0.070	0.156
-712.704	800.000	0.145	-0.488
-711.689	-200.000	-0.011	-0.235
-710.675	-25.902	-0.258	-0.153
-709.660	-200.000	-0.024	0.153
-708.645	-35.867	0.165	0.090
-707.631	31.810	0.098	-0.085
-706.616	4.045	-0.152	0.112
-705.602	-200.000	-0.017	-0.121
-704.587	54.416	0.132	0.128
-703.572	-200.000	0.051	0.236
-702.558	121.911	0.052	0.066
-701.543	28.005	-0.256	-0.217
-700.529	-170.010	-0.232	-0.008
-699.514	-166.496	-0.116	0.005
-698.499	309.937	-0.133	-0.251
-697.485	-82.745	0.048	-0.016
-696.470	210.679	0.181	-0.286
-695.456	-67.299	0.330	0.131
-694.441	-57.976	-0.220	-0.097
-693.426	-151.131	0.125	0.009
-692.412	60.341	0.157	-0.156
-691.397	561.850	0.107	0.260
-690.383	167.696	-0.210	-0.300
-689.368	-140.256	-0.321	0.034
-688.354	-200.000	-0.016	-0.215
-687.339	275.891	-0.194	-0.346
-686.324	-117.259	-0.396	-0.072
-685.310	-200.000	0.000	-0.083
-684.295	134.004	-0.094	-0.123
-683.281	640.843	0.108	0.275
-682.266	800.000	-0.057	-0.219
-681.251	723.553	-0.075	0.201
-680.237	-89.291	0.076	-0.022
-679.222	-200.000	-0.034	-0.153
-678.208	38.734	0.114	0.103
-677.193	-83.528	-0.373	0.120
-676.178	65.268	-0.124	-0.126
-675.164	-91.183	0.124	0.036
-674.149	299.598	0.030	-0.055
-673.135	-85.722	-0.196	-0.061
-672.120	34.536	0.286	-0.251
-671.105	328.881	0.216	-0.416
-670.091	672.076	0.037	-0.095
-669.076	173.540	-0.061	-0.089
-668.062	-47.751	0.224	-0.109
-667.047	-200.000	-0.042	-0.219
-666.032	0.850	0.115	-0.083
-665.018	-158.760	-0.051	0.003
-664.003	-200.000	0.057	-0.265
-662.989	-16.958	-0.138	0.088
-661.974	90.037	0.165	0.186
-660.959	-200.000	0.009	-0.090
-659.945	-139.065	0.236	-0.026
-658.930	-200.000	-0.078	-0.368
-657.916	-186.508	-0.322	-0.005
-656.901	-138.956	-0.352	0.038
-655.886	-101.714	0.468	0.114
-654.872	-72.923	0.324	-0.120
-653.857	44.043	0.221	-0.203
-652.843	-200.000	0.005	-0.050
-651.828	800.000	0.091	0.388
-650.814	119.423	-0.121	-0.151
-649.799	72.438	0.088	0.093
-648.784	-61.225	-0.102	-0.043
-647.770	-200.000	-0.007	0.326
-646.755	-120.730	-0.141	-0.024
-645.741	-200.000	-0.012	-0.210
-644.726	-86.333	0.245	0.076
-643.711	348.134	-0.023	-0.046
-642.697	332.044	0.118	-0.228
-641.682	-200.000	-0.000	0.132
-640.668	800.000	0.012	-0.049
-639.653	-133.463	-0.120	-0.015
-638.638	344.134	-0.199	-0.391
-637.624	48.941	-0.202	0.190
-636.609	17.229	0.227	-0.181
-635.595	11.946	-0.233	-0.180
-634.580	800.000	0.056	0.185
-633.565	800.000	0.016	0.068
-632.551	-6.331	-0.117	-0.080
-631.536	-83.595	-0.284	0.091
-630.522	-200.000	0.043	0.257
-629.507	65.779	-0.257	0.262
-628.492	-79.469	-0.257	0.087
-627.478	4.574	0.083	-0.061
-626.463	115.727	-0.249	0.306
-625.449	49.094	-0.415	0.391
-624.434	86.750	-0.294	0.326
-623.419	-145.879	0.255	0.023
-622.405	158.718	-0.073	-0.101
-621.390	-28.134	-0.245	-0.142
-620.376	-39.208	0.191	0.100
-619.361	-59.175	-0.246	0.107
-618.346	-113.986	-0.147	-0.029
-617.332	123.222	-0.229	-0.287
-616.317	800.000	-0.075	0.207
-615.303	30.871	0.232	0.199
-614.288	-105.899	-0.066	0.015
-613.273	-65.407	-0.128	0.051
-612.259	-200.000	0.025	-0.141
-611.244	-200.000	-0.017	0.193
-610.230	-72.381	-0.199	0.074
-609.215	142.399	0.165	-0.219
-608.201	-90.963	-0.258	-0.074
-607.186	-27.681	-0.143	0.084
-606.171	-67.962	-0.279	0.109
-605.157	-21.583	-0.151	0.092
-604.142	243.752	-0.113	-0.190
-603.128	-200.000	-0.001	0.041
-602.113	-200.000	0.031	0.305
-601.098	18.791	0.066	0.053
-600.084	34.498	0.141	-0.123
-599.069	114.599	-0.307	-0.375
-598.055	800.000	0.054	0.212
-597.040	218.753	-0.117	-0.188
-596.025	-29.594	-0.369	0.211
-595.011	-176.740	0.208	0.005
-593.996	93.147	-0.167	0.189
-592.982	-48.598	0.165	-0.080
-591.967	-176.686	0.285	-0.007
-590.952	103.169	-0.256	0.300
-589.938	-177.913	0.298	-0.007
-588.923	-200.000	0.008	0.143
-587.909	-175.492	-0.244	0.007
-586.894	800.000	0.070	0.248
-585.879	-49.090	0.071	-0.034
-584.865	230.108	-0.045	-0.074
-583.850	800.000	-0.068	-0.290
-582.836	91.875	-0.265	-0.298
-581.821	-200.000	0.026	-0.262
-580.806	8.948	0.127	-0.096
-579.792	427.366	-0.037	0.080
-578.777	37.064	0.211	-0.187
-577.763	330.287	-0.070	0.135
-576.748	64.061	-0.059	-0.059
-575.733	102.989	-0.111	-0.130
-574.719	111.864	-0.128	0.155
-573.704	-129.070	0.070	-0.010
-572.690	-34.182	0.241	-0.132
-571.675	-26.073	-0.336	0.198
-570.661	-132.724	0.204	0.026
-569.646	-56.059	-0.183	-0.081
-568.631	69.238	-0.139	-0.143
-567.617	0.233	-0.324	-0.231
-566.602	-200.000	0.015	-0.103
-565.588	-200.000	0.054	0.314
-564.573	-96.230	0.242	-0.064
-563.558	-106.248	-0.171	-0.038
-562.544	130.270	-0.042	0.054
-561.529	263.163	0.087	-0.151
-560.515	-200.000	-0.037	-0.370
-559.500	800.000	-0.084	-0.285
-558.485	256.491	0.084	0.144
-557.471	145.267	0.120	0.160
-556.456	-37.848	0.096	0.051
-555.442	21.815	-0.165	-0.135
-554.427	800.000	0.058	-0.200
-553.412	194.147	0.097	0.148
-552.398	-56.980	0.236	0.104
-551.383	2.200	-0.179	-0.130
-550.369	471.621	0.090	-0.202
-549.354	203.070	-0.051	-0.079
-548.339	-200.000	-0.040	0.192
-547.325	800.000	0.013	0.045
-546.310	800.000	-0.039	0.139
-545.296	-176.658	0.325	-0.008
-544.281	347.651	-0.047	-0.092
-543.266	-200.000	-0.015	0.340
-542.252	95.032	0.207	-0.235
-541.237	-71.574	-0.073	0.027
-540.223	413.511	0.101	-0.214
-539.208	-19.197	-0.119	-0.074
-538.193	-96.689	0.105	-0.028
-537.179	62.931	-0.156	0.156
-536.164	-85.626	0.095	-0.030
-535.150	-93.514	-0.198	0.055
-534.135	272.845	0.137	0.242
-533.121	800.000	0.133	0.441
-532.106	-200.000	-0.024	0.131
-531.091	-99.739	-0.114	0.028
-530.077	146.241	-0.122	-0.164
-529.062	-65.110	-0.316	-0.128
-528.048	-116.877	0.100	0.018
-527.033	14.218	-0.358	0.279
-526.018	15.231	0.069	0.054
-525.004	-81.245	0.346	0.114
-523.989	237.326	0.168	-0.278
-522.975	-21.467	-0.133	0.081
-521.960	-200.000	-0.084	0.467
-520.945	800.000	-0.039	0.170
-519.931	170.139	0.146	-0.208
-518.916	115.726	-0.184	-0.225
-517.902	-157.238	-0.149	0.009
-516.887	-135.499	-0.028	0.003
-515.872	-118.281	-0.356	0.063
-514.858	-108.693	-0.126	0.027
-513.843	105.926	0.198	0.234
-512.829	-49.597	-0.035	-0.017
-511.814	-200.000	0.002	-0.123
-510.799	-75.434	0.203	-0.072
-509.785	-69.230	0.338	-0.130
-508.770	-74.601	0.280	-0.101
-507.756	-98.592	-0.431	0.110
-506.741	330.695	-0.109	-0.209
-505.726	-164.238	-0.196	0.009
-504.712	-110.323	0.324	-0.067
-503.697	-188.623	-0.350	-0.004
-502.683	-200.000	0.017	-0.121
-501.668	43.244	-0.034	-0.031
-500.653	39.621	0.176	0.158
-499.639	81.208	0.115	0.124
-498.624	73.842	-0.279	-0.292
-497.610	-117.536	-0.118	0.021
-496.595	-200.000	-0.004	-0.091
-495.581	433.404	-0.110	0.237
-494.566	69.635	-0.152	-0.157
-493.551	-51.661	-0.188	0.088
-492.537	456.233	0.004	-0.009
-491.522	800.000	0.088	-0.244
-490.508	-66.832	-0.099	0.039
-489.493	-138.693	-0.433	0.047
-488.478	-200.000	0.066	-0.422
-487.464	-200.000	0.019	0.173
-486.449	22.963	0.326	0.266
-485.435	-46.456	-0.239	0.117
-484.420	-60.222	-0.170	0.072
-483.405	80.105	0.112	-0.120
-482.391	91.860	0.195	-0.218
-481.376	188.309	-0.079	0.117
-480.362	238.240	-0.119	-0.197
-479.347	95.950	0.112	0.127
-478.332	-200.000	-0.008	-0.050
-477.318	15.037	0.060	0.047
-476.303	-200.000	-0.004	0.168
-475.289	-131.601	-0.121	0.016
-474.274	547.275	0.104	0.248
-473.259	800.000	0.014	-0.058
-472.245	54.572	0.139	-0.133
-471.230	-97.145	0.155	-0.041
-470.216	220.153	-0.032	-0.052
-469.201	212.955	0.088	0.138
-468.186	3.489	0.083	-0.060
-467.172	-6.681	0.183	-0.124
-466.157	533.638	-0.111	0.261
-465.143	-111.775	0.121	0.024
-464.128	800.000	0.019	-0.058
-463.113	-200.000	-0.033	-0.199
-462.099	244.455	0.230	0.385
-461.084	-200.000	-0.015	0.336
-460.070	129.080	0.037	-0.046
-459.055	-14.642	0.185	0.119
-458.040	-108.260	-0.336	-0.072
-457.026	-7.598	0.165	0.111
-456.011	64.494	0.386	-0.388
-454.997	-200.000	0.040	0.336
-453.982	-86.453	-0.070	0.021
-452.968	-200.000	-0.021	-0.178
-451.953	-16.633	0.298	-0.188
-450.938	51.942	0.075	-0.071
-449.924	-93.898	0.356	-0.098
-448.909	-200.000	-0.075	-0.345
-447.895	-137.914	0.183	-0.020
-446.880	-88.541	-0.168	-0.050
-445.865	131.527	-0.129	0.166
-444.851	454.879	-0.206	-0.456
-443.836	177.606	0.093	-0.135
-442.822	-200.000	0.043	-0.312
-441.807	87.999	0.063	0.070
-440.792	147.230	-0.086	0.115
-439.778	-200.000	0.032	-0.261
-438.763	229.642	0.172	-0.280
-437.749	-47.323	0.243	0.118
-436.734	97.424	-0.095	0.108
-435.719	-32.565	0.213	-0.118
-434.705	-183.545	-0.191	-0.003
-433.690	800.000	0.131	0.398
-432.676	-57.659	0.188	0.082
-431.661	399.501	-0.131	-0.273
-430.646	366.394	-0.014	-0.028
-429.632	141.518	-0.070	-0.092
-428.617	-162.964	-0.111	-0.005
-427.603	-85.300	-0.212	-0.066
-426.588	373.530	0.085	-0.171
-425.573	800.000	0.066	0.276
-424.559	121.447	-0.243	0.301
-423.544	108.078	0.132	-0.156
-422.530	800.000	-0.052	-0.197
-421.515	-2.680	-0.123	-0.085
-420.500	197.764	-0.065	0.100
-419.486	237.364	-0.041	-0.068
-418.471	71.607	0.032	-0.033
-417.457	800.000	0.077	-0.333
-416.442	70.129	0.179	-0.184
-415.428	-23.232	0.138	-0.082
-414.413	-200.000	0.039	0.176
-413.398	800.000	-0.047	-0.145
-412.384	-43.844	-0.097	-0.048
-411.369	800.000	0.083	0.247
-410.355	-200.000	-0.014	0.625
-409.340	800.000	-0.037	0.161
-408.325	-135.834	0.240	0.028
-407.311	148.446	-0.102	0.137
-406.296	-73.581	-0.061	0.022
-405.282	-162.627	0.234	-0.011
-404.267	-152.753	0.290	-0.020
-403.252	-89.032	-0.226	-0.067
-402.238	-92.615	0.373	0.104
-401.223	800.000	0.026	-0.104
-400.209	79.091	0.246	-0.262
-399.194	800.000	0.030	0.093
-398.179	717.943	-0.047	-0.124
-397.165	-90.794	-0.093	-0.027
-396.150	458.719	-0.071	-0.158
-395.136	471.596	-0.222	-0.497
-394.121	-35.562	0.316	0.170
-393.106	800.000	-0.107	0.427
-392.092	-88.257	0.067	0.020
-391.077	110.686	-0.221	-0.264
-390.063	137.583	-0.108	-0.140
-389.048	-101.216	-0.033	-0.008
-388.033	-13.633	0.300	-0.193
-387.019	5.590	-0.083	-0.061
-386.004	30.676	-0.259	-0.221
-384.990	800.000	0.077	-0.256
-383.975	556.354	0.092	0.220
-382.960	70.127	-0.087	-0.089
-381.946	-200.000	0.066	-0.325
-380.931	165.548	-0.039	-0.055
-379.917	-187.170	0.294	0.004
-378.902	55.554	0.261	0.251
-377.888	-75.702	-0.312	0.110
-376.873	800.000	-0.027	-0.103
-375.858	-200.000	0.013	0.062
-374.844	-200.000	0.030	-0.175
-373.829	-136.365	-0.090	-0.010
-372.815	800.000	0.101	0.349
-371.800	800.000	-0.093	0.267
-370.785	187.041	0.117	-0.173
-369.771	670.335	0.054	0.138
-368.756	122.154	0.151	0.187
-367.742	665.880	-0.126	-0.324
-366.727	530.156	-0.032	0.074
-365.712	-43.638	-0.255	-0.128
-364.698	-90.038	-0.237	-0.069
-363.683	91.172	-0.098	-0.110
-362.669	284.513	-0.010	0.019
-361.654	-200.000	0.036	-0.448
-360.639	-200.000	0.061	-0.407
-359.625	-98.022	0.243	0.062
-358.610	-159.144	0.124	0.007
-357.596	-54.574	0.096	-0.043
-356.581	-200.000	-0.062	0.284
-355.566	-170.438	-0.179	0.006
-354.552	800.000	0.041	0.122
-353.537	-80.710	0.313	-0.103
-352.523	-133.500	0.075	-0.009
-351.508	133.985	-0.162	-0.209
-350.493	-200.000	-0.009	0.157
-349.479	-96.970	0.262	-0.068
-348.464	-200.000	0.051	-0.302
-347.450	20.645	0.089	0.071
-346.435	-200.000	0.042	-0.347
-345.420	-200.000	0.044	-0.357
-344.406	82.869	0.266	-0.288
-343.391	71.095	-0.154	-0.159
-342.377	-47.884	-0.358	0.172
-341.362	752.456	0.199	0.533
-340.348	-120.018	0.369	-0.063
-339.333	7.940	0.063	0.047
-338.318	762.642	-0.039	-0.106
-337.304	-200.000	0.005	0.217
-336.289	800.000	-0.098	0.346
-335.275	-105.325	-0.078	-0.018
-334.260	800.000	0.051	0.150
-333.245	-117.953	-0.126	0.022
-332.231	-72.659	0.115	0.042
-331.216	170.945	-0.107	0.152
-330.202	-157.782	0.066	-0.004
-329.187	-176.327	0.034	0.001
-328.172	313.118	0.101	0.188
-327.158	-97.767	0.093	0.024
-326.143	-52.898	0.047	0.021
-325.129	-63.052	0.378	0.155
-324.114	-200.000	-0.016	0.270
-323.099	231.582	-0.074	0.120
-322.085	-200.000	-0.031	-0.194
-321.070	800.000	0.054	0.220
-320.056	0.986	-0.128	0.091
-319.041	-26.013	-0.134	0.078
-318.026	800.000	-0.022	0.083
-317.012	-72.620	-0.238	-0.087
-315.997	-200.000	0.016	0.228
-314.983	50.945	0.164	0.154
-313.968	-2.036	-0.372	-0.259
-312.953	31.787	-0.150	-0.128
-311.939	64.508	0.202	0.202
-310.924	120.777	0.073	0.090
-309.910	46.607	-0.069	0.063
-308.895	269.778	-0.032	0.056
-307.880	800.000	0.056	0.223
-306.866	-15.075	0.092	-0.058
-305.851	387.440	-0.172	-0.353
-304.837	-200.000	-0.035	0.283
-303.822	46.437	-0.323	0.297
-302.807	-191.798	0.063	-0.001
-301.793	-1.383	0.122	0.085
-300.778	367.968	0.157	0.314
-299.764	267.386	-0.118	0.204
-298.749	-200.000	-0.077	-0.633
-297.735	384.198	0.201	-0.410
-296.720	24.056	0.071	0.058
-295.705	-200.000	-0.042	0.240
-294.691	291.848	0.086	0.155
-293.676	-93.195	0.120	0.033
-292.662	-81.658	0.092	0.030
-291.647	240.089	0.065	-0.107
-290.632	-200.000	-0.025	0.120
-289.618	273.968	0.169	0.296
-288.603	-151.127	-0.115	0.009
-287.589	-180.280	-0.092	0.002
-286.574	-35.191	0.195	0.105
-285.559	-57.165	0.170	0.074
-284.545	-200.000	-0.039	-0.297
-283.530	-27.100	-0.191	-0.110
-282.516	225.409	-0.097	-0.156
-281.501	247.920	0.115	-0.193
-280.486	800.000	0.086	-0.265
-279.472	270.748	0.127	-0.220
-278.457	457.235	-0.088	0.194
-277.443	-200.000	-0.061	0.322
-276.428	-126.346	0.182	-0.027
-275.413	207.959	0.152	-0.236
-274.399	64.109	0.141	0.140
-273.384	-103.217	-0.240	0.056
-272.370	-60.655	0.380	0.159
-271.355	-200.000	0.026	0.141
-270.340	800.000	-0.015	-0.047
-269.326	27.007	-0.198	0.165
-268.311	94.701	-0.141	0.158
-267.297	-200.000	0.014	0.081
-266.282	-100.369	0.344	-0.084
-265.267	-39.687	-0.240	0.124
-264.253	55.903	0.061	-0.059
-263.238	-200.000	-0.016	-0.198
-262.224	-161.514	0.434	0.022
-261.209	-200.000	-0.013	-0.162
-260.195	-152.046	-0.160	0.012
-259.180	-200.000	0.047	0.300
-258.165	39.645	-0.305	0.271
-257.151	35.290	-0.276	0.240
-256.136	-154.350	-0.188	-0.012
-255.122	32.808	0.228	0.195
-254.107	-146.392	0.043	-0.004
-253.092	-32.295	0.176	0.097
-252.078	493.294	0.056	-0.127
-251.063	-78.501	0.344	0.117
-250.049	-190.004	0.092	0.001
-249.034	-52.059	-0.275	0.126
-248.019	-42.929	0.188	0.094
-247.005	-147.364	0.191	-0.016
-245.990	296.354	-0.124	-0.224
-244.976	-126.800	0.248	-0.036
-243.961	481.813	0.102	-0.229
-242.946	144.477	0.177	-0.233
-241.932	-6.722	-0.318	-0.214
-240.917	50.564	0.177	0.165
-239.903	-123.169	-0.210	-0.033
-238.888	-200.000	0.046	-0.354
-237.873	33.590	-0.241	0.207
-236.859	106.222	-0.144	-0.169
-235.844	800.000	-0.098	0.332
-234.830	-85.690	0.192	-0.059
-233.815	-117.773	-0.173	-0.031
-232.800	-11.345	0.175	-0.114
-231.786	-200.000	-0.013	-0.176
-230.771	-32.195	0.156	0.086
-229.757	-200.000	-0.004	-0.073
-228.742	56.077	0.171	0.164
-227.727	-59.841	0.224	0.095
-226.713	-200.000	0.013	0.231
-225.698	-92.183	0.218	-0.061
-224.684	50.549	-0.050	0.047
-223.669	154.324	-0.033	-0.044
-222.655	-10.282	0.108	-0.071
-221.640	800.000	-0.124	0.354
-220.625	331.136	-0.195	-0.372
-219.611	800.000	-0.047	-0.192
-218.596	-147.326	0.118	0.010
-217.582	11.421	0.106	-0.080
-216.567	-108.667	-0.051	0.011
-215.552	-180.736	-0.237	-0.005
-214.538	392.925	0.109	-0.225
-213.523	41.098	-0.106	-0.094
-212.509	-184.667	-0.064	0.001
-211.494	63.523	0.189	-0.188
-210.479	-47.518	-0.161	0.077
-209.465	272.288	0.233	0.406
-208.450	205.832	-0.081	0.124
-207.436	-1.875	-0.172	0.119
-206.421	-145.682	0.153	0.013
-205.406	-114.747	0.139	0.026
-204.392	380.581	-0.164	0.332
-203.377	-93.955	-0.189	0.051
-202.363	-95.364	0.216	-0.057
-201.348	33.667	-0.241	-0.206
-200.333	359.682	-0.072	-0.142
-199.319	-0.904	-0.233	-0.163
-198.304	736.288	0.101	-0.268
-197.290	40.224	0.082	0.073
-196.275	34.964	-0.191	-0.165
-195.260	-200.000	-0.002	0.070
-194.246	122.398	-0.092	0.113
-193.231	-47.124	-0.310	0.149
-192.217	186.855	0.101	0.148
-191.202	84.169	-0.058	0.063
-190.187	-200.000	-0.019	-0.190
-189.173	-83.317	0.164	-0.052
-188.158	-99.145	0.045	-0.011
-187.144	-30.992	0.196	0.109
-186.129	-200.000	0.001	0.156
-185.114	-113.004	0.227	0.044
-184.100	-132.739	0.156	0.020
-183.085	436.090	0.092	-0.196
-182.071	-200.000	0.013	-0.079
-181.056	-118.256	0.161	0.028
-180.042	-84.766	0.435	-0.135
-179.027	302.283	-0.261	0.476
-178.012	-121.738	0.198	-0.032
-176.998	405.825	0.074	0.155
-175.983	-200.000	0.006	0.294
-174.969	2.770	-0.070	-0.050
-173.954	-147.438	0.135	-0.011
-172.939	25.645	0.032	-0.026
-171.925	1.189	-0.059	-0.042
-170.910	800.000	0.019	-0.063
-169.896	87.879	0.104	0.113
-168.881	429.036	0.115	-0.246
-167.866	543.487	-0.067	-0.158
-166.852	-158.367	-0.127	-0.007
-165.837	3.510	-0.147	0.106
-164.823	-200.000	0.058	0.288
-163.808	71.248	-0.340	0.348
-162.793	-200.000	0.018	-0.348
-161.779	-200.000	0.102	-0.457
-160.764	-105.823	0.219	-0.049
-159.750	-200.000	-0.058	0.342
-158.735	3.796	-0.166	-0.119
-157.720	72.381	-0.079	-0.081
-156.706	-80.875	-0.378	0.124
-155.691	93.631	0.136	-0.152
-154.677	-200.000	-0.031	-0.212
-153.662	-200.000	-0.043	-0.262
-152.647	248.246	0.139	-0.232
-151.633	657.112	0.029	-0.074
-150.618	111.549	-0.077	0.092
-149.604	63.993	0.161	0.159
-148.589	-20.244	0.183	0.111
-147.574	66.166	0.212	0.212
-146.560	-200.000	-0.015	0.293
-145.545	-40.794	0.076	-0.039
-144.531	-9.018	-0.072	0.047
-143.516	-151.472	0.221	0.016
-142.502	-37.803	-0.194	0.102
-141.487	-200.000	0.039	0.216
-140.472	800.000	0.089	0.272
-139.458	20.034	-0.179	0.142
-138.443	41.162	-0.126	-0.112
-137.429	-200.000	-0.052	-0.334
-136.414	-125.749	0.233	-0.035
-135.399	-151.729	0.117	-0.008
-134.385	-15.918	0.111	0.070
-133.370	800.000	-0.046	0.180
-132.356	-42.387	0.097	0.049
-131.341	-144.192	0.379	-0.035
-130.326	-27.586	0.161	0.092
-129.312	-40.342	0.250	0.128
-128.297	-140.666	0.348	0.035
-127.283	-121.689	-0.279	0.045
-126.268	-200.000	0.039	-0.489
-125.253	33.670	-0.107	-0.091
-124.239	-187.941	0.188	-0.002
-123.224	744.102	-0.094	0.248
-122.210	103.993	0.100	0.115
-121.195	585.590	0.019	-0.045
-120.180	-200.000	-0.046	0.435
-119.166	-33.284	0.239	0.130
-118.151	-105.134	0.344	-0.077
-117.137	85.670	-0.011	0.012
-116.122	66.163	-0.132	0.132
-115.107	29.911	0.218	0.182
-114.093	-118.790	-0.176	0.031
-113.078	-1.589	0.164	-0.114
-112.064	340.241	0.239	-0.459
-111.049	-59.380	-0.398	0.168
-110.034	-138.083	0.179	0.020
-109.020	-200.000	0.011	-0.145
-108.005	-47.726	0.237	0.113
-106.991	-200.000	-0.035	0.399
-105.976	-129.476	0.221	0.030
-104.962	800.000	-0.108	0.436
-103.947	-23.652	0.049	0.029
-102.932	341.184	-0.038	-0.074
-101.918	37.141	0.309	-0.269
-100.903	-31.599	0.325	0.179
-99.889	-200.000	0.083	-0.383
-98.874	-120.856	-0.115	0.019
-97.859	-21.551	0.007	0.004
-96.845	23.910	0.103	-0.084
-95.830	-85.313	-0.171	0.052
-94.816	148.310	0.144	-0.191
-93.801	-154.621	-0.043	0.003
-92.786	-120.063	0.225	-0.038
-91.772	-71.528	-0.031	0.011
-90.757	4.170	-0.171	-0.123
-89.743	-98.033	-0.226	0.057
-88.728	228.230	-0.050	0.079
-87.713	800.000	0.093	0.394
-86.699	-160.703	0.142	0.007
-85.684	800.000	0.038	-0.117
-84.670	-21.217	0.239	-0.144
-83.655	167.763	0.258	-0.361
-82.640	108.893	-0.124	-0.146
-81.626	82.927	-0.306	-0.327
-80.611	800.000	0.097	0.345
-79.597	-46.244	0.285	-0.138
-78.582	-168.596	0.023	0.001
-77.567	24.393	-0.276	0.224
-76.553	-200.000	0.060	0.428
-75.538	-200.000	-0.028	0.131
-74.524	-200.000	0.018	-0.199
-73.509	134.710	0.085	0.108
-72.494	800.000	0.022	0.076
-71.480	-19.273	0.153	-0.093
-70.465	800.000	-0.087	-0.284
-69.451	-61.350	0.301	-0.124
-68.436	800.000	-0.076	0.308
-67.422	-92.292	-0.171	-0.047
-66.407	644.207	-0.068	-0.170
-65.392	-58.511	-0.296	-0.126
-64.378	-190.600	-0.152	0.002
-63.363	83.082	0.079	-0.084
-62.349	800.000	-0.027	0.077
-61.334	95.262	-0.832	-0.931
-60.319	92.343	0.485	0.536
-59.305	722.603	-0.386	-1.008
-58.290	179.206	0.968	1.390
-57.276	373.797	0.774	1.546
-56.261	-200.000	108.746	581.559
-55.246	429.132	1503.635	3189.531
-54.232	143.679	2691.607	3519.105
-53.217	102.525	2192.624	2516.118
-52.203	38.685	1720.389	1506.384
-51.188	31.755	1535.433	1296.630
-50.173	29.339	1510.510	1259.057
-49.159	49.688	1566.835	1448.220
-48.144	49.852	1582.748	1464.010
-47.130	31.990	1538.998	1301.062
-46.115	28.935	1523.874	1267.210
-45.100	28.809	1520.583	1263.562
-44.086	28.797	1518.245	1261.482
-43.071	28.723	1516.426	1259.414
-42.057	28.680	1514.541	1257.509
-41.042	28.541	1513.544	1255.679
-40.027	28.678	1512.006	1255.286
-39.013	28.719	1510.329	1254.128
-37.998	28.698	1509.356	1253.127
-36.984	28.709	1507.522	1251.627
-35.969	28.703	1506.199	1250.437
-34.954	28.601	1505.500	1249.116
-33.940	28.647	1504.065	1248.190
-32.925	28.705	1502.414	1247.164
-31.911	28.655	1501.390	1245.921
-30.896	28.696	1500.075	1245.057
-29.881	28.618	1498.883	1243.493
-28.867	28.737	1497.038	1242.715
-27.852	28.734	1496.190	1241.941
-26.838	28.671	1494.886	1240.385
-25.823	28.749	1493.244	1239.500
-24.809	28.758	1491.388	1237.975
-23.794	28.642	1490.351	1236.280
-22.779	28.704	1489.265	1235.748
-21.765	28.731	1488.302	1235.079
-20.750	28.765	1486.822	1234.034
-19.736	28.710	1485.923	1232.866
-18.721	28.735	1484.511	1231.815
-17.706	28.762	1483.338	1230.977
-16.692	28.767	1482.319	1230.112
-15.677	28.725	1481.705	1229.275
-14.663	28.751	1480.279	1228.217
-13.648	28.743	1479.115	1227.147
-12.633	28.672	1478.538	1226.148
-11.619	28.681	1477.640	1225.415
-10.604	28.690	1476.588	1224.553
-9.590	28.597	1475.995	1223.392
-8.575	28.696	1474.818	1223.027
-7.560	28.647	1473.721	1221.742
-6.546	28.556	1473.349	1220.778
-5.531	28.625	1472.419	1220.420
-4.517	28.551	1470.932	1218.645
-3.502	28.555	1470.284	1218.089
-2.487	28.697	1468.592	1217.579
-1.473	28.596	1467.879	1216.269
-0.458	28.709	1466.362	1215.712
0.556	27.302	1457.182	1205.711
1.571	24.864	1432.287	1169.103
2.586	21.875	1372.425	1101.399
3.600	20.498	1288.667	1025.967
4.615	19.228	1242.788	982.118
5.629	18.308	1189.129	934.612
6.644	15.244	1111.453	857.824
7.659	12.314	1076.377	816.139
8.673	11.877	1071.696	810.357
9.688	11.845	1068.197	807.481
10.702	11.793	1066.283	805.705
11.717	11.715	1064.966	804.254
12.731	12.980	1064.936	810.380
13.746	16.059	1068.524	828.189
14.761	18.157	1070.397	839.879
15.775	17.840	1070.034	837.964
16.790	17.104	1067.256	832.107
17.804	15.948	1065.390	824.923
18.819	15.090	1063.260	819.005
19.834	14.541	1061.664	815.023
20.848	14.183	1061.064	812.742
21.863	14.032	1059.845	810.996
22.877	13.812	1059.205	809.363
23.892	13.526	1058.570	807.412
24.907	13.454	1057.739	806.355
25.921	13.580	1056.296	805.799
26.936	13.418	1056.237	804.895
27.950	13.556	1054.568	804.221
28.965	13.472	1054.241	803.493
29.980	13.662	1052.611	803.098
30.994	13.663	1051.576	802.246
32.009	13.772	1050.580	801.939
33.023	13.806	1050.318	801.833
34.038	13.690	1049.275	800.409
35.053	13.735	1048.099	799.657
36.067	13.641	1047.665	798.799
37.082	13.645	1046.857	798.134
38.096	13.512	1046.024	796.789
39.111	13.690	1045.043	796.824
40.126	13.744	1043.880	796.127
41.140	13.522	1043.285	794.541
42.155	13.465	1042.006	793.223
43.169	13.504	1040.751	792.384
44.184	13.378	1039.864	791.033
45.199	13.419	1038.525	790.140
46.213	13.457	1037.576	789.529
47.228	13.429	1037.081	788.953
48.242	13.592	1035.975	788.817
49.257	13.629	1034.682	787.937
50.271	13.550	1033.751	786.781
51.286	13.577	1032.947	786.231
52.301	13.606	1031.989	785.567
53.315	13.679	1031.066	785.144
54.330	13.489	1030.293	783.587
55.344	13.554	1029.323	783.088
56.359	13.442	1028.492	781.857
57.374	13.549	1027.549	781.576
58.388	13.580	1026.717	781.020
59.403	13.482	1025.780	779.776
60.417	13.444	1025.209	779.093
61.432	13.466	1024.306	778.440
62.447	13.505	1023.701	778.094
63.461	13.434	1022.566	776.831
64.476	13.279	1022.242	775.790
65.490	13.306	1021.171	775.031
66.505	13.349	1020.087	774.342
67.520	13.368	1019.659	774.040
68.534	13.318	1019.289	773.457
69.549	13.406	1017.999	772.820
70.563	13.456	1017.009	772.231
71.578	13.470	1016.389	771.757
72.593	13.347	1015.293	770.285
73.607	13.334	1014.092	769.246
74.622	13.254	1013.688	768.498
75.636	13.361	1012.861	768.301
76.651	13.334	1011.894	767.374
77.666	13.290	1011.125	766.521
78.680	13.243	1010.835	766.013
79.695	13.352	1009.962	765.791
80.709	13.253	1009.463	764.886
81.724	13.353	1008.480	764.535
82.739	13.432	1008.031	764.492
83.753	13.378	1006.921	763.334
84.768	13.497	1006.404	763.421
85.782	13.654	1005.100	763.091
86.797	13.607	1004.816	762.589
87.812	13.707	1003.883	762.272
88.826	13.518	1003.355	760.938
89.841	13.502	1002.490	760.139
90.855	13.583	1001.122	759.407
91.870	13.586	1001.019	759.273
92.884	13.607	999.897	758.455
93.899	13.683	999.461	758.404
94.914	13.571	998.766	757.295
95.928	13.577	998.232	756.852
96.943	13.818	996.689	756.715
97.957	13.657	995.977	755.373
98.972	13.751	995.175	755.126
99.987	13.761	994.244	754.398
101.001	13.631	993.839	753.435
102.016	13.639	993.246	752.953
103.030	13.667	991.810	751.927
104.045	13.654	991.303	751.417
105.060	13.621	990.408	750.520
106.074	13.589	989.537	749.648
107.089	13.613	988.292	748.750
108.103	13.485	987.294	747.349
109.118	13.387	986.760	746.437
110.133	13.455	985.971	746.081
111.147	13.332	985.480	745.087
112.162	13.537	984.010	744.832
113.176	13.377	983.514	743.671
114.191	13.518	982.367	743.371
115.206	13.600	981.737	743.197
116.220	13.559	981.078	742.449
117.235	13.499	980.304	741.529
118.249	13.477	978.980	740.366
119.264	13.556	978.105	739.991
120.279	13.415	977.671	738.966
121.293	13.404	976.638	738.072
122.308	13.363	976.280	737.553
123.322	13.427	975.175	736.938
124.337	13.420	974.109	736.036
125.352	13.269	972.932	734.409
126.366	13.344	971.815	733.834
127.381	13.346	970.617	732.874
128.395	13.437	969.966	732.722
129.410	13.394	969.284	731.952
130.424	13.379	968.008	730.856
131.439	13.419	967.066	730.255
132.454	13.561	965.954	729.978
133.468	13.409	965.758	729.097
134.483	13.514	965.296	729.145
135.497	13.539	963.970	728.190
136.512	13.470	963.186	727.229
137.527	13.467	962.971	726.986
138.541	13.531	961.836	726.349
139.556	13.521	960.951	725.573
140.570	13.611	960.375	725.465
141.585	13.535	959.648	724.520
142.600	13.584	959.271	724.389
143.614	13.722	958.164	724.091
144.629	13.723	957.263	723.349
145.643	13.746	956.625	722.902
146.658	13.806	955.662	722.372
147.673	13.550	954.913	720.629
148.687	13.592	954.143	720.168
149.702	13.662	952.966	719.517
150.716	13.596	952.032	718.465
151.731	13.714	951.325	718.377
152.746	13.692	950.749	717.784
153.760	13.682	950.213	717.271
154.775	13.556	949.787	716.341
155.789	13.639	948.918	715.983
156.804	13.704	947.556	715.172
157.819	13.766	947.020	714.971
158.833	13.779	946.357	714.461
159.848	13.755	946.080	714.086
160.862	13.894	945.149	713.920
161.877	13.764	944.609	712.888
162.892	13.733	943.351	711.744
163.906	13.881	941.955	711.264
164.921	13.615	941.862	709.988
165.935	13.718	940.541	709.373
166.950	13.774	939.684	708.902
167.964	13.863	938.672	708.457
168.979	13.769	937.910	707.415
169.994	13.732	936.778	706.343
171.008	13.892	935.364	705.896
172.023	13.691	935.233	704.879
173.037	13.806	934.637	704.853
174.052	14.059	933.373	704.912
175.067	13.848	933.364	703.949
176.081	13.814	932.290	702.934
177.096	13.750	931.695	702.151
178.110	13.680	930.910	701.200
179.125	13.857	930.106	701.281
180.140	14.011	929.108	701.115
181.154	13.842	928.411	699.817
182.169	13.842	927.995	699.440
183.183	13.945	927.556	699.480
184.198	14.012	926.939	699.235
185.213	13.986	926.350	698.622
186.227	14.065	925.433	698.201
187.242	14.050	924.766	697.571
188.256	14.221	924.207	697.807
189.271	14.227	923.427	697.182
190.286	14.112	922.809	696.169
191.300	13.996	921.919	694.952
192.315	13.887	921.254	693.933
193.329	13.872	920.785	693.455
194.344	13.758	919.940	692.281
195.359	14.001	919.209	692.683
196.373	13.939	918.928	692.151
197.388	14.011	918.489	692.060
198.402	14.191	917.830	692.250
199.417	14.146	917.628	691.852
200.432	14.270	916.940	691.788
201.446	14.334	916.357	691.552
202.461	14.167	916.493	690.901
203.475	14.305	915.846	690.924
204.490	14.356	914.913	690.370
205.504	14.344	914.192	689.717
206.519	14.268	913.202	688.594
207.534	14.379	911.943	688.042
208.548	14.139	911.733	686.831
209.563	14.230	911.289	686.810
210.577	14.289	910.326	686.267
211.592	14.411	909.567	686.137
212.607	14.388	909.308	685.784
213.621	14.405	908.874	685.467
214.636	14.305	908.376	684.621
215.650	14.288	907.792	684.051
216.665	14.555	906.791	684.330
217.680	14.406	906.620	683.530
218.694	14.451	906.071	683.239
219.709	14.470	905.598	682.902
220.723	14.498	904.717	682.290
221.738	14.512	903.881	681.658
222.753	14.529	903.151	681.115
223.767	14.518	902.293	680.365
224.782	14.610	901.769	680.284
225.796	14.748	900.301	679.677
226.811	14.740	900.638	679.838
227.826	14.590	899.831	678.559
228.840	14.670	898.642	677.927
229.855	14.531	898.273	677.024
230.869	14.661	897.502	676.911
231.884	14.518	897.093	675.963
232.899	14.602	896.124	675.515
233.913	14.510	895.671	674.739
234.928	14.554	895.180	674.488
235.942	14.584	894.459	674.005
236.957	14.582	893.067	672.888
237.972	14.501	892.611	672.158
238.986	14.527	892.233	671.919
240.001	14.620	891.641	671.792
241.015	14.620	890.510	670.878
242.030	14.612	890.274	670.611
243.045	14.642	889.950	670.427
244.059	14.613	889.061	669.579
245.074	14.630	888.417	669.103
246.088	14.731	887.575	668.816
247.103	14.854	887.038	668.845
248.117	14.890	886.021	668.162
249.132	14.851	886.364	668.206
250.147	14.815	886.021	667.745
251.161	15.033	884.803	667.638
252.176	15.104	884.065	667.305
253.190	14.981	883.799	666.556
254.205	15.178	883.311	666.913
255.220	15.192	882.554	666.338
256.234	15.150	881.823	665.559
257.249	15.060	881.347	664.781
258.263	15.156	880.828	664.715
259.278	15.140	880.000	663.965
260.293	15.255	879.409	663.917
261.307	15.213	879.229	663.555
262.322	15.214	878.477	662.934
263.336	15.393	877.622	662.936
264.351	15.333	877.161	662.292
265.366	15.298	876.624	661.692
266.380	15.385	875.628	661.224
267.395	15.209	875.340	660.255
268.409	15.282	874.533	659.876
269.424	15.311	873.807	659.383
270.439	15.325	872.858	658.663
271.453	15.301	871.910	657.795
272.468	15.262	871.648	657.386
273.482	15.318	870.789	656.902
274.497	15.284	870.460	656.461
275.512	15.371	869.295	655.863
276.526	15.328	868.724	655.208
277.541	15.440	868.099	655.115
278.555	15.314	867.898	654.413
279.570	15.360	867.251	654.047
280.585	15.366	866.911	653.756
281.599	15.434	866.343	653.536
282.614	15.571	865.396	653.296
283.628	15.534	864.804	652.646
284.643	15.364	864.399	651.625
285.657	15.446	863.916	651.519
286.672	15.519	863.250	651.245
287.687	15.656	862.481	651.135
288.701	15.520	862.369	650.467
289.716	15.658	861.434	650.239
290.730	15.432	861.297	649.203
291.745	15.557	860.683	649.167
292.760	15.731	859.560	648.933
293.774	15.668	859.109	648.292
294.789	15.607	858.428	647.486
295.803	15.696	857.891	647.368
296.818	15.565	857.687	646.652
297.833	15.729	856.674	646.460
298.847	15.636	856.189	645.681
299.862	15.670	855.361	645.128
300.876	15.632	854.864	644.550
301.891	15.738	853.963	644.220
302.906	15.860	853.232	644.078
303.920	15.832	852.541	643.395
304.935	15.844	851.865	642.873
305.949	15.976	851.252	642.859
306.964	15.861	850.644	641.901
307.979	15.887	850.446	641.793
308.993	15.925	849.712	641.330
310.008	15.935	849.185	640.913
311.022	16.015	848.426	640.586
312.037	16.063	848.451	640.734
313.052	16.002	847.595	639.797
314.066	15.927	846.995	639.005
315.081	15.844	846.308	638.113
316.095	15.773	845.891	637.474
317.110	15.787	845.716	637.338
318.125	15.848	845.145	637.082
319.139	15.990	844.141	636.805
320.154	15.884	843.905	636.172
321.168	15.976	843.206	635.936
322.183	15.813	842.992	635.103
323.197	15.855	842.690	634.978
324.212	15.957	841.769	634.610
325.227	16.006	841.593	634.607
326.241	16.167	840.504	634.337
327.256	15.916	839.911	632.888
328.270	15.939	839.611	632.693
329.285	16.004	839.119	632.512
330.300	16.127	838.113	632.156
331.314	16.119	837.604	631.686
332.329	16.109	836.934	631.089
333.343	16.109	836.282	630.541
334.358	16.032	836.267	630.184
335.373	16.105	835.607	629.907
336.387	16.242	834.772	629.732
337.402	16.235	834.151	629.180
338.416	16.217	833.602	628.645
339.431	16.353	833.203	628.794
340.446	16.354	832.621	628.303
341.460	16.473	832.133	628.323
342.475	16.356	831.397	627.276
343.489	16.599	830.788	627.664
344.504	16.512	830.112	626.773
345.519	16.496	829.745	626.382
346.533	16.617	829.257	626.408
347.548	16.575	828.862	625.898
348.562	16.476	828.601	625.280
349.577	16.398	827.711	624.263
350.592	16.330	827.497	623.795
351.606	16.335	826.784	623.220
352.621	16.371	826.331	622.958
353.635	16.316	826.067	622.499
354.650	16.540	825.288	622.684
355.665	16.278	825.113	621.530
356.679	16.498	824.425	621.768
357.694	16.563	823.928	621.578
358.708	16.567	823.507	621.217
359.723	16.552	822.910	620.658
360.738	16.661	822.185	620.455
361.752	16.533	821.884	619.705
362.767	16.644	821.588	619.832
363.781	16.724	821.528	620.025
364.796	16.582	820.987	619.043
365.810	16.852	820.400	619.535
366.825	16.844	819.797	618.994
367.840	16.775	819.523	618.480
368.854	16.871	818.992	618.375
369.869	16.763	818.358	617.447
370.883	16.834	817.833	617.256
371.898	16.811	817.496	616.864
372.913	16.932	816.404	616.423
373.927	17.038	815.945	616.409
374.942	16.848	815.353	615.217
375.956	16.974	814.573	615.032
376.971	16.894	814.607	614.712
377.986	16.959	813.946	614.395
379.000	17.038	813.216	614.076
380.015	17.016	813.015	613.791
381.029	17.092	812.562	613.669
382.044	16.992	811.961	612.797
383.059	17.158	811.247	612.804
384.073	17.014	810.929	611.992
385.088	17.112	810.151	611.703
386.102	16.932	809.656	610.627
387.117	16.947	809.172	610.260
388.132	17.015	808.672	610.074
389.146	17.039	808.274	609.808
390.161	17.103	807.710	609.558
391.175	17.255	807.198	609.662
392.190	17.137	807.095	609.106
393.205	17.114	806.513	608.533
394.219	17.170	806.122	608.383
395.234	17.041	806.093	607.847
396.248	16.974	805.305	606.956
397.263	17.106	804.786	606.983
398.278	17.010	804.393	606.292
399.292	17.050	803.774	605.915
400.307	17.126	803.529	605.948
401.321	17.131	803.095	605.582
402.336	17.100	802.628	605.066
403.350	17.228	801.991	604.988
404.365	17.373	801.629	605.179
405.380	17.211	801.386	604.365
406.394	17.402	800.818	604.562
407.409	17.326	800.597	604.071
408.423	17.446	800.049	604.031
409.438	17.364	799.676	603.405
410.453	17.436	799.059	603.143
411.467	17.503	798.602	602.981
412.482	17.619	798.220	603.051
413.496	17.541	797.989	602.545
414.511	17.448	797.591	601.864
415.526	17.669	797.244	602.328
416.540	17.678	796.652	601.860
417.555	17.584	795.986	600.972
418.569	17.560	795.678	600.603
419.584	17.695	795.259	600.709
420.599	17.726	794.385	600.104
421.613	109.841	1292.311	1471.356
422.628	94.400	1364.830	1471.471
