DTS Sentinel unit serial number:	SN413079Multiplexer serial number:	ORYXHardware model number:	OX4-SRSoftware version number:	ORYX F/W v4.00 Oryx Data Collector v3.7.2.0data status	okinstallation	princeton_trtdifferential loss correction	single-endedforward channel	channel 3reverse channel	N/Adate	2019/09/18time	20:12:35forward acquisition time	60.00reverse acquisition time	0.00gamma	496.2192k internal	0.2332k external	0.2332temperature offset calibration	1.0003default loss term (dB/km)	0.3790temperature slope calibration	1.0000multiplexer offset coefficient	1.0000multiplexer slope coefficient	1.0000fibre end	0.00T internal ref (°C)	29.48T ext. ref 1 (°C)	0.96T ext. ref 2 (°C)	20.00length (m)	temperature (°C)	Stokes	anti-Stokes-747.200	800.000	-0.124	0.350
-746.185	-200.000	0.059	0.305
-745.171	-133.196	-0.015	0.002
-744.156	319.893	0.048	-0.092
-743.142	308.768	-0.192	-0.360
-742.127	130.449	0.285	0.368
-741.112	-85.626	0.290	0.091
-740.098	8.280	-0.269	0.203
-739.083	174.507	-0.138	0.200
-738.069	280.976	0.118	0.213
-737.054	201.268	-0.336	0.520
-736.039	142.822	-0.094	0.126
-735.025	48.182	-0.110	-0.104
-734.010	453.692	0.065	-0.144
-732.996	-87.516	-0.451	-0.137
-731.981	14.391	-0.088	-0.069
-730.966	-200.000	0.038	0.372
-729.952	121.109	0.117	0.147
-728.937	-76.775	-0.320	-0.113
-727.923	-44.880	0.207	-0.104
-726.908	-89.014	0.368	-0.110
-725.894	48.119	0.085	-0.079
-724.879	-0.498	0.100	-0.072
-723.864	-33.365	-0.148	-0.082
-722.850	-19.223	-0.289	-0.180
-721.835	108.396	0.261	0.313
-720.821	49.366	-0.191	0.181
-719.806	-200.000	0.002	-0.131
-718.791	284.080	-0.143	0.259
-717.777	795.030	-0.074	-0.206
-716.762	-135.377	-0.232	-0.028
-715.748	-82.953	0.297	0.096
-714.733	-19.117	-0.285	0.178
-713.718	-125.516	0.348	-0.053
-712.704	-57.613	-0.167	0.073
-711.689	264.957	0.071	-0.124
-710.675	-23.066	-0.153	0.093
-709.660	-113.353	-0.347	-0.068
-708.645	-73.395	-0.102	-0.038
-707.631	-200.000	0.013	-0.157
-706.616	-74.370	-0.089	-0.032
-705.602	-200.000	-0.028	0.159
-704.587	15.637	-0.235	-0.186
-703.572	-159.883	0.100	-0.005
-702.558	-132.887	0.259	-0.033
-701.543	-200.000	-0.026	-0.172
-700.529	102.230	-0.277	-0.325
-699.514	-86.074	0.122	0.038
-698.499	583.981	0.009	0.023
-697.485	-75.026	0.092	0.033
-696.470	-49.599	0.233	0.111
-695.456	-200.000	-0.002	-0.318
-694.441	-147.449	-0.149	-0.013
-693.426	-154.815	0.393	0.026
-692.412	-36.811	-0.180	0.097
-691.397	-200.000	0.008	-0.134
-690.383	114.365	0.270	-0.330
-689.368	-31.900	0.170	0.095
-688.354	386.578	-0.077	-0.160
-687.339	-200.000	0.044	-0.201
-686.324	-200.000	0.047	0.307
-685.310	-53.690	-0.379	-0.174
-684.295	1.686	0.153	0.111
-683.281	3.921	-0.078	-0.057
-682.266	127.846	-0.118	-0.150
-681.251	-123.219	-0.160	0.026
-680.237	201.424	0.164	0.254
-679.222	160.180	0.071	0.100
-678.208	54.705	-0.148	-0.143
-677.193	-133.967	-0.446	0.055
-676.178	209.904	0.157	0.247
-675.164	-21.449	-0.116	-0.071
-674.149	-94.214	-0.231	0.063
-673.135	20.897	0.115	0.093
-672.120	41.440	-0.415	0.377
-671.105	437.405	-0.127	0.278
-670.091	20.319	0.072	-0.059
-669.076	-200.000	0.043	-0.212
-668.062	15.990	-0.082	0.065
-667.047	-123.605	-0.214	0.034
-666.032	800.000	-0.089	0.260
-665.018	-70.515	0.086	0.033
-664.003	203.272	-0.102	-0.159
-662.989	-200.000	0.008	0.078
-661.974	115.438	0.107	0.131
-660.959	-37.928	-0.154	0.082
-659.945	26.823	0.053	0.044
-658.930	-123.207	-0.201	-0.032
-657.916	-200.000	0.030	-0.135
-656.901	-42.244	-0.271	-0.139
-655.886	800.000	0.047	-0.182
-654.872	306.836	-0.080	-0.150
-653.857	-33.340	-0.087	-0.048
-652.843	-117.847	-0.022	0.004
-651.828	170.591	0.204	-0.293
-650.814	1.793	-0.159	0.115
-649.799	697.318	0.111	0.292
-648.784	-200.000	-0.007	0.095
-647.770	-48.748	0.075	-0.036
-646.755	-200.000	0.045	0.280
-645.741	-137.879	0.015	-0.002
-644.726	-63.943	0.151	0.062
-643.711	-126.763	0.159	-0.024
-642.697	-178.109	0.131	0.003
-641.682	-200.000	0.043	0.225
-640.668	70.376	-0.119	-0.123
-639.653	163.429	0.111	-0.156
-638.638	-200.000	-0.064	0.426
-637.624	29.039	-0.257	-0.218
-636.609	-200.000	0.004	-0.176
-635.595	-155.247	-0.079	-0.005
-634.580	-200.000	-0.078	-0.349
-633.565	509.028	-0.205	0.477
-632.551	-25.061	0.094	-0.056
-631.536	800.000	0.067	-0.253
-630.522	384.669	0.066	-0.136
-629.507	122.434	0.198	0.247
-628.492	505.994	-0.025	-0.059
-627.478	215.418	0.089	-0.141
-626.463	217.987	-0.090	-0.144
-625.449	27.396	0.295	-0.248
-624.434	126.045	0.120	-0.152
-623.419	-200.000	-0.000	0.276
-622.405	800.000	0.077	0.212
-621.390	-132.861	-0.364	0.046
-620.376	85.080	-0.210	-0.230
-619.361	1.487	-0.252	0.182
-618.346	-70.435	0.106	-0.040
-617.332	-200.000	-0.008	-0.365
-616.317	371.738	-0.116	-0.236
-615.303	800.000	0.142	0.483
-614.288	800.000	0.067	0.201
-613.273	198.509	-0.110	0.169
-612.259	134.034	-0.137	0.178
-611.244	142.495	0.039	0.052
-610.230	-200.000	0.027	0.165
-609.215	23.948	0.189	0.156
-608.201	160.500	-0.116	0.162
-607.186	118.352	0.364	0.449
-606.171	132.134	-0.210	0.270
-605.157	800.000	0.030	0.099
-604.142	-200.000	0.038	-0.347
-603.128	-200.000	0.022	0.165
-602.113	-200.000	-0.048	0.254
-601.098	76.719	-0.082	-0.087
-600.084	239.077	0.086	-0.143
-599.069	800.000	-0.068	-0.248
-598.055	-89.244	-0.125	0.037
-597.040	-200.000	-0.006	-0.439
-596.025	190.330	-0.145	-0.217
-595.011	800.000	-0.047	-0.196
-593.996	-200.000	-0.033	0.282
-592.982	800.000	0.050	0.178
-591.967	-200.000	-0.045	-0.492
-590.952	-7.838	0.303	-0.204
-589.938	-53.346	0.337	0.154
-588.923	800.000	-0.057	0.189
-587.909	800.000	-0.078	-0.223
-586.894	-33.778	0.403	-0.222
-585.879	573.577	-0.132	0.321
-584.865	-200.000	0.045	0.360
-583.850	-80.786	0.059	0.020
-582.836	800.000	-0.035	-0.131
-581.821	159.899	-0.127	-0.178
-580.806	-150.938	0.064	-0.005
-579.792	-81.558	0.088	0.029
-578.777	-147.106	0.268	-0.023
-577.763	246.367	-0.158	-0.266
-576.748	3.320	-0.169	0.123
-575.733	-151.420	0.423	-0.031
-574.719	109.436	-0.139	-0.167
-573.704	28.589	0.126	0.107
-572.690	260.180	0.112	-0.193
-571.675	-149.728	-0.079	0.006
-570.661	35.159	0.144	0.126
-569.646	-126.804	-0.147	-0.022
-568.631	-200.000	-0.099	-0.439
-567.617	-200.000	0.018	-0.245
-566.602	800.000	0.059	-0.168
-565.588	246.179	-0.218	-0.367
-564.573	-63.900	-0.158	0.065
-563.558	38.314	0.122	0.108
-562.544	15.188	-0.153	-0.120
-561.529	126.536	-0.146	-0.185
-560.515	-80.030	-0.127	0.043
-559.500	-141.477	0.065	-0.007
-558.485	-163.133	-0.378	-0.018
-557.471	-129.269	0.312	0.043
-556.456	-77.071	0.172	0.060
-555.442	42.227	-0.314	-0.285
-554.427	-22.935	0.285	0.172
-553.412	-200.000	0.045	-0.239
-552.398	-145.084	-0.146	0.013
-551.383	-200.000	0.000	-0.084
-550.369	325.366	-0.188	-0.358
-549.354	-7.651	-0.224	-0.151
-548.339	18.018	-0.205	0.163
-547.325	123.433	0.039	-0.049
-546.310	-105.045	-0.230	-0.053
-545.296	130.157	-0.165	-0.211
-544.281	-66.478	-0.144	-0.057
-543.266	800.000	-0.093	0.307
-542.252	110.012	0.069	-0.083
-541.237	92.051	0.181	0.203
-540.223	-141.040	0.084	-0.009
-539.208	50.757	-0.115	0.109
-538.193	-200.000	0.017	-0.205
-537.179	60.179	-0.308	0.304
-536.164	14.298	0.261	-0.203
-535.150	-200.000	-0.012	-0.238
-534.135	-3.614	0.193	-0.134
-533.121	-200.000	-0.023	-0.215
-532.106	-200.000	-0.047	-0.302
-531.091	800.000	0.101	-0.289
-530.077	-107.898	0.084	0.018
-529.062	34.358	0.049	0.042
-528.048	-200.000	-0.007	-0.096
-527.033	684.389	0.086	0.224
-526.018	534.940	-0.213	0.504
-525.004	161.200	0.055	0.076
-523.989	-41.979	-0.262	0.134
-522.975	158.454	0.144	0.199
-521.960	-200.000	0.006	-0.119
-520.945	-68.395	0.086	-0.033
-519.931	-200.000	-0.048	0.368
-518.916	17.659	-0.107	0.085
-517.902	-145.976	0.165	0.015
-516.887	-200.000	0.012	-0.054
-515.872	800.000	-0.020	0.059
-514.858	800.000	0.131	0.510
-513.843	-200.000	-0.031	-0.258
-512.829	-130.823	-0.426	0.057
-511.814	-200.000	0.048	0.247
-510.799	398.512	-0.151	-0.315
-509.785	800.000	0.027	0.117
-508.770	-200.000	0.011	-0.198
-507.756	-162.038	-0.187	0.009
-506.741	90.656	-0.164	-0.183
-505.726	-200.000	0.008	-0.087
-504.712	140.578	-0.133	0.176
-503.697	-58.572	0.110	0.048
-502.683	-200.000	0.001	0.197
-501.668	83.089	0.125	0.136
-500.653	800.000	0.029	-0.104
-499.639	109.442	0.038	-0.045
-498.624	13.073	0.251	0.194
-497.610	649.893	0.163	0.415
-496.595	-108.927	-0.370	0.079
-495.581	800.000	0.064	-0.217
-494.566	325.004	-0.085	-0.163
-493.551	-200.000	0.054	-0.388
-492.537	665.932	0.088	-0.226
-491.522	-4.708	-0.163	0.112
-490.508	222.247	-0.099	0.159
-489.493	21.046	-0.147	0.119
-488.478	-162.003	-0.156	0.008
-487.464	-16.350	-0.284	-0.180
-486.449	210.481	0.086	0.134
-485.435	-200.000	-0.053	0.258
-484.420	-15.112	-0.244	-0.156
-483.405	470.919	0.167	-0.375
-482.391	-82.574	0.111	0.036
-481.376	-13.513	0.094	-0.061
-480.362	-16.650	0.136	-0.086
-479.347	260.569	0.036	0.062
-478.332	-96.245	-0.489	-0.129
-477.318	231.081	0.114	0.186
-476.303	-200.000	0.004	-0.090
-475.289	116.769	-0.041	-0.051
-474.274	-200.000	0.042	0.284
-473.259	800.000	-0.075	-0.258
-472.245	-200.000	-0.053	0.282
-471.230	65.754	0.231	0.233
-470.216	26.963	-0.124	0.104
-469.201	5.262	0.239	-0.175
-468.186	800.000	0.007	-0.023
-467.172	-133.555	-0.230	0.029
-466.157	-70.838	0.127	0.048
-465.143	53.990	0.068	0.065
-464.128	323.185	0.142	0.270
-463.113	73.653	-0.223	-0.233
-462.099	104.783	0.152	0.179
-461.084	781.967	-0.010	0.026
-460.070	80.800	0.109	-0.117
-459.055	-183.471	0.219	0.004
-458.040	73.806	-0.088	-0.092
-457.026	-18.998	0.226	0.140
-456.011	-12.958	-0.059	-0.038
-454.997	388.235	0.064	-0.132
-453.982	-200.000	-0.001	-0.224
-452.968	-75.189	-0.284	0.101
-451.953	112.494	0.057	0.069
-450.938	800.000	-0.064	-0.270
-449.924	-200.000	-0.005	0.215
-448.909	-130.938	0.393	0.052
-447.895	-109.986	-0.378	0.079
-446.880	-100.427	0.070	-0.017
-445.865	-36.888	-0.086	-0.046
-444.851	-200.000	-0.041	-0.393
-443.836	-162.646	-0.473	0.023
-442.822	-96.208	-0.173	0.046
-441.807	293.468	-0.177	0.321
-440.792	754.962	-0.064	-0.171
-439.778	-88.487	-0.075	0.022
-438.763	-78.409	0.336	0.114
-437.749	93.663	0.029	0.033
-436.734	-200.000	-0.090	0.421
-435.719	-82.646	-0.339	-0.109
-434.705	54.987	-0.082	-0.079
-433.690	260.922	-0.107	-0.185
-432.676	34.094	0.141	0.122
-431.661	16.313	0.246	0.193
-430.646	-200.000	0.024	-0.183
-429.632	-200.000	0.006	0.121
-428.617	-200.000	0.017	-0.099
-427.603	-200.000	-0.045	-0.211
-426.588	-200.000	0.058	-0.284
-425.573	83.904	0.093	-0.100
-424.559	-200.000	-0.039	-0.212
-423.544	-142.750	-0.211	-0.020
-422.530	586.058	-0.047	0.114
-421.515	75.893	-0.385	-0.404
-420.500	203.266	-0.119	-0.184
-419.486	-55.955	0.317	-0.140
-418.471	-69.478	0.538	0.205
-417.457	60.050	-0.166	0.163
-416.442	-200.000	-0.011	0.316
-415.428	517.725	0.095	-0.221
-414.413	-200.000	0.020	0.277
-413.398	-200.000	-0.017	-0.099
-412.384	-73.295	-0.168	0.061
-411.369	91.725	-0.203	-0.226
-410.355	-200.000	0.043	-0.401
-409.340	-200.000	0.048	0.626
-408.325	167.588	-0.072	0.102
-407.311	-125.111	0.370	-0.056
-406.296	-124.859	-0.271	0.042
-405.282	-200.000	0.022	0.133
-404.267	-200.000	0.047	-0.211
-403.252	-137.315	0.317	-0.036
-402.238	-55.525	-0.308	-0.137
-401.223	30.764	-0.175	0.149
-400.209	35.254	-0.250	0.218
-399.194	-50.394	0.041	0.019
-398.179	38.689	-0.353	0.313
-397.165	-114.417	-0.236	0.045
-396.150	694.303	0.083	0.216
-395.136	108.398	-0.157	0.186
-394.121	-25.885	0.275	-0.161
-393.106	227.884	-0.073	0.118
-392.092	-117.969	-0.336	0.060
-391.077	-200.000	0.008	0.202
-390.063	-91.435	0.361	0.102
-389.048	268.218	0.127	0.221
-388.033	179.533	0.102	-0.148
-387.019	84.087	-0.192	-0.208
-386.004	-76.881	0.101	-0.035
-384.990	-37.129	-0.078	-0.041
-383.975	800.000	0.087	-0.259
-382.960	35.252	0.145	-0.126
-381.946	536.869	0.041	-0.098
-380.931	-138.068	0.264	-0.029
-379.917	800.000	0.056	0.175
-378.902	15.589	0.454	0.353
-377.888	31.765	-0.248	-0.212
-376.873	131.435	0.156	-0.199
-375.858	128.767	0.065	0.083
-374.844	322.866	-0.164	0.310
-373.829	-139.413	-0.150	0.016
-372.815	102.595	-0.025	-0.030
-371.800	-70.547	-0.154	0.058
-370.785	-103.501	0.122	0.028
-369.771	260.403	0.164	-0.280
-368.756	105.854	0.041	-0.048
-367.742	-69.460	0.292	-0.111
-366.727	-10.082	-0.128	-0.085
-365.712	365.135	0.031	-0.063
-364.698	438.071	-0.241	0.521
-363.683	-180.898	-0.249	-0.005
-362.669	-30.628	-0.098	-0.055
-361.654	-105.978	-0.294	0.066
-360.639	139.274	-0.093	0.121
-359.625	132.984	0.095	0.122
-358.610	-46.305	0.222	0.108
-357.596	-200.000	0.034	0.149
-356.581	203.944	0.128	-0.196
-355.566	-138.765	-0.131	-0.014
-354.552	712.409	-0.079	0.207
-353.537	-100.757	0.015	0.004
-352.523	-8.557	0.055	-0.037
-351.508	-200.000	0.016	-0.291
-350.493	84.809	-0.136	0.148
-349.479	-200.000	0.030	0.291
-348.464	-200.000	0.030	-0.132
-347.450	155.943	0.221	-0.302
-346.435	8.115	0.207	-0.154
-345.420	191.019	-0.091	0.136
-344.406	-105.518	-0.174	-0.039
-343.391	-70.686	-0.363	-0.136
-342.377	-200.000	-0.026	-0.436
-341.362	22.791	-0.053	0.043
-340.348	-75.010	-0.120	-0.043
-339.333	-99.729	-0.119	0.029
-338.318	-54.808	-0.309	0.138
-337.304	-76.480	0.278	0.097
-336.289	-132.363	0.291	0.037
-335.275	800.000	-0.047	-0.194
-334.260	-46.488	0.029	0.014
-333.245	272.065	0.167	0.292
-332.231	-119.290	0.160	-0.028
-331.216	88.866	-0.284	-0.313
-330.202	606.367	0.180	-0.444
-329.187	409.611	0.017	-0.036
-328.172	395.922	0.014	0.029
-327.158	-200.000	-0.021	0.161
-326.143	50.030	0.162	0.152
-325.129	92.928	0.214	-0.240
-324.114	-4.814	0.270	0.184
-323.099	40.312	-0.218	-0.194
-322.085	99.075	-0.138	0.158
-321.070	-178.909	-0.288	-0.006
-320.056	800.000	0.086	-0.308
-319.041	247.781	-0.115	-0.192
-318.026	-64.919	0.234	-0.093
-317.012	156.665	-0.081	0.111
-315.997	-4.002	0.263	0.180
-314.983	-200.000	-0.052	0.278
-313.968	-95.136	-0.062	0.016
-312.953	-200.000	0.015	-0.096
-311.939	-156.903	-0.215	-0.013
-310.924	351.151	-0.091	0.177
-309.910	84.957	0.252	-0.273
-308.895	133.619	0.067	-0.086
-307.880	-66.505	-0.366	0.144
-306.866	14.915	-0.153	0.118
-305.851	800.000	-0.054	0.161
-304.837	-45.822	0.090	-0.044
-303.822	22.756	0.075	-0.061
-302.807	202.507	-0.199	0.304
-301.793	-89.177	0.057	-0.017
-300.778	-200.000	0.015	0.066
-299.764	324.519	0.205	0.388
-298.749	800.000	-0.064	0.258
-297.735	515.016	-0.039	-0.091
-296.720	800.000	0.065	0.232
-295.705	-200.000	0.030	-0.202
-294.691	245.154	-0.175	0.290
-293.676	101.574	0.097	0.112
-292.662	-45.251	-0.102	-0.050
-291.647	457.430	-0.026	-0.056
-290.632	-8.170	-0.222	-0.148
-289.618	175.709	0.147	-0.210
-288.603	800.000	0.011	0.041
-287.589	24.567	0.341	0.279
-286.574	591.283	0.127	0.309
-285.559	-200.000	-0.016	0.308
-284.545	-151.204	0.206	-0.015
-283.530	7.501	-0.034	0.025
-282.516	-63.390	-0.172	-0.070
-281.501	-200.000	-0.020	-0.270
-280.486	-23.103	-0.147	0.087
-279.472	108.317	0.231	0.272
-278.457	800.000	0.039	-0.156
-277.443	-104.674	0.068	-0.015
-276.428	368.963	-0.241	-0.482
-275.413	-200.000	-0.011	0.247
-274.399	168.272	-0.135	0.190
-273.384	613.060	-0.041	0.101
-272.370	458.435	-0.017	0.038
-271.355	-200.000	-0.012	-0.091
-270.340	-200.000	0.069	-0.344
-269.326	-200.000	-0.002	-0.195
-268.311	800.000	-0.115	0.361
-267.297	-200.000	-0.017	0.313
-266.282	800.000	-0.049	0.198
-265.267	-128.644	0.127	0.018
-264.253	28.155	-0.243	0.203
-263.238	203.238	-0.082	-0.125
-262.224	-86.122	0.232	-0.071
-261.209	-200.000	-0.034	0.173
-260.195	110.693	0.138	-0.164
-259.180	-118.545	-0.146	0.025
-258.165	232.150	0.097	0.157
-257.151	-193.960	0.089	0.001
-256.136	458.316	-0.059	0.129
-255.122	98.638	-0.146	-0.167
-254.107	65.912	-0.152	0.152
-253.092	-47.479	0.175	-0.084
-252.078	-132.758	-0.176	0.022
-251.063	7.037	0.015	-0.011
-250.049	-89.283	-0.358	-0.104
-249.034	131.968	-0.164	-0.209
-248.019	69.813	0.088	0.090
-247.005	800.000	0.024	0.098
-245.990	-97.893	0.400	-0.102
-244.976	340.545	-0.034	-0.066
-243.961	800.000	0.040	0.111
-242.946	184.359	0.266	-0.388
-241.932	-75.416	0.348	0.122
-240.917	-26.628	-0.138	-0.080
-239.903	-200.000	-0.006	-0.084
-238.888	59.072	0.052	0.051
-237.873	800.000	-0.154	-0.464
-236.859	800.000	0.049	0.210
-235.844	-10.596	0.128	0.084
-234.830	-23.820	0.198	-0.117
-233.815	279.163	-0.211	-0.371
-232.800	-143.217	-0.119	0.011
-231.786	800.000	0.087	-0.269
-230.771	121.658	0.185	0.228
-229.757	-15.355	0.101	0.063
-228.742	-28.218	-0.212	0.121
-227.727	160.136	-0.185	-0.254
-226.713	-108.954	0.199	0.042
-225.698	-107.795	-0.229	0.049
-224.684	-200.000	0.012	0.297
-223.669	-200.000	0.026	0.580
-222.655	27.890	0.183	-0.152
-221.640	-200.000	-0.002	-0.059
-220.625	-200.000	-0.001	-0.099
-219.611	-16.963	-0.046	0.029
-218.596	200.776	-0.124	0.188
-217.582	800.000	0.070	-0.263
-216.567	-116.537	0.111	0.020
-215.552	800.000	-0.066	0.224
-214.538	-200.000	-0.012	-0.091
-213.523	-60.129	0.093	0.039
-212.509	64.490	0.151	-0.150
-211.494	-119.668	0.140	-0.024
-210.479	3.838	0.258	0.186
-209.465	247.104	0.218	-0.363
-208.450	-168.069	0.027	-0.001
-207.436	-28.795	-0.127	0.072
-206.421	72.524	0.042	-0.043
-205.406	-200.000	0.015	0.304
-204.392	84.868	-0.295	0.318
-203.377	-154.687	0.151	0.010
-202.363	317.581	-0.163	0.303
-201.348	44.502	-0.024	-0.021
-200.333	-200.000	0.038	-0.319
-199.319	-37.565	0.267	-0.140
-198.304	25.975	0.401	-0.329
-197.290	-78.928	0.292	0.098
-196.275	121.491	-0.217	-0.266
-195.260	-82.050	0.212	0.068
-194.246	-159.429	0.197	-0.011
-193.231	-200.000	-0.020	-0.218
-192.217	800.000	0.084	0.335
-191.202	583.492	0.141	0.341
-190.187	246.720	0.213	-0.354
-189.173	74.688	0.039	-0.040
-188.158	-200.000	0.002	-0.410
-187.144	-89.204	0.294	0.085
-186.129	51.556	0.024	0.022
-185.114	371.752	0.121	-0.241
-184.100	-191.350	-0.031	-0.000
-183.085	34.452	0.039	-0.033
-182.071	800.000	-0.020	0.074
-181.056	-177.120	-0.106	-0.003
-180.042	-200.000	0.076	0.552
-179.027	-162.424	-0.165	0.008
-178.012	108.101	0.182	-0.214
-176.998	457.846	-0.188	0.410
-175.983	-20.448	-0.165	0.100
-174.969	101.489	0.119	-0.136
-173.954	-42.685	-0.170	0.085
-172.939	164.044	-0.132	0.183
-171.925	466.355	-0.049	0.109
-170.910	-54.358	-0.095	0.042
-169.896	187.867	-0.219	-0.321
-168.881	-200.000	0.008	-0.301
-167.866	655.962	0.115	-0.290
-166.852	277.738	-0.109	-0.190
-165.837	2.228	0.194	0.138
-164.823	-35.751	-0.109	-0.058
-163.808	-200.000	0.009	-0.275
-162.793	-155.239	0.052	-0.003
-161.779	259.556	0.158	-0.267
-160.764	-110.531	-0.175	-0.036
-159.750	14.637	0.271	-0.208
-158.735	36.730	0.363	0.315
-157.720	-93.321	0.222	0.060
-156.706	-94.757	0.203	-0.054
-155.691	-143.576	-0.282	-0.026
-154.677	35.029	-0.124	-0.107
-153.662	-51.522	-0.191	0.088
-152.647	-139.105	0.137	0.015
-151.633	207.520	-0.030	0.047
-150.618	-56.869	0.249	-0.108
-149.604	-93.315	0.172	0.047
-148.589	-200.000	-0.012	0.092
-147.574	-78.653	-0.407	0.137
-146.560	8.645	-0.255	-0.188
-145.545	-45.325	0.375	0.183
-144.531	317.955	-0.067	-0.124
-143.516	-104.262	0.191	-0.043
-142.502	-62.500	-0.109	-0.044
-141.487	-82.296	-0.051	0.016
-140.472	-128.229	-0.388	-0.054
-139.458	800.000	0.063	0.208
-138.443	139.256	0.198	-0.255
-137.429	214.532	0.133	-0.207
-136.414	-25.746	0.137	0.080
-135.399	-61.924	0.236	-0.097
-134.385	-101.239	-0.335	0.080
-133.370	-200.000	0.021	0.206
-132.356	-62.755	-0.157	0.064
-131.341	586.410	-0.123	-0.296
-130.326	66.556	0.068	-0.068
-129.312	19.230	0.250	-0.197
-128.297	-53.048	-0.226	-0.102
-127.283	-200.000	-0.042	0.323
-126.268	800.000	-0.058	0.238
-125.253	-61.364	-0.111	-0.046
-124.239	384.233	-0.112	0.227
-123.224	-97.986	0.296	-0.075
-122.210	-127.449	-0.475	0.068
-121.195	-200.000	-0.018	0.294
-120.180	800.000	-0.093	0.331
-119.166	34.840	-0.285	0.245
-118.151	150.413	-0.263	0.351
-117.137	-200.000	0.029	-0.204
-116.122	56.369	0.047	-0.045
-115.107	271.564	0.084	0.145
-114.093	49.865	0.109	0.101
-113.078	239.808	-0.095	-0.155
-112.064	800.000	0.041	0.157
-111.049	-167.234	0.437	-0.017
-110.034	-4.764	-0.264	-0.179
-109.020	800.000	0.014	-0.053
-108.005	157.618	0.041	-0.055
-106.991	13.860	-0.187	-0.143
-105.976	800.000	-0.021	-0.075
-104.962	-200.000	0.013	-0.118
-103.947	389.243	-0.115	-0.234
-102.932	186.818	0.144	-0.210
-101.918	800.000	0.065	0.260
-100.903	4.123	-0.256	0.184
-99.889	-6.741	0.224	0.150
-98.874	101.767	-0.059	0.067
-97.859	-200.000	0.031	0.315
-96.845	186.200	0.033	0.048
-95.830	-31.302	-0.329	-0.181
-94.816	-93.011	0.061	0.017
-93.801	-104.422	-0.131	-0.030
-92.786	-104.806	0.207	-0.047
-91.772	17.053	0.304	-0.236
-90.757	-200.000	-0.003	-0.094
-89.743	800.000	-0.122	0.371
-88.728	-91.732	0.164	-0.046
-87.713	82.536	0.235	0.250
-86.699	12.748	0.068	-0.051
-85.684	-162.494	-0.102	0.005
-84.670	-200.000	-0.013	0.209
-83.655	33.119	-0.121	-0.103
-82.640	-68.606	-0.379	-0.144
-81.626	-56.588	0.344	0.149
-80.611	312.257	-0.125	0.231
-79.597	800.000	-0.108	0.333
-78.582	58.759	0.121	-0.117
-77.567	-200.000	-0.031	-0.162
-76.553	-200.000	0.031	-0.252
-75.538	74.078	0.105	0.108
-74.524	-98.160	-0.051	-0.013
-73.509	-200.000	0.009	0.086
-72.494	530.799	0.157	-0.362
-71.480	-111.348	0.145	-0.029
-70.465	-73.980	-0.070	0.025
-69.451	-200.000	0.006	0.157
-68.436	-10.633	0.203	-0.132
-67.422	-22.461	-0.199	0.118
-66.407	-124.839	-0.506	0.077
-65.392	-100.469	-0.187	0.045
-64.378	-176.349	0.413	0.011
-63.363	99.226	-0.162	0.184
-62.349	-200.000	0.013	0.378
-61.334	105.548	-1.096	-1.268
-60.319	83.547	0.752	0.802
-59.305	800.000	-0.446	-1.321
-58.290	552.509	0.555	1.307
-57.276	729.743	0.567	1.484
-56.261	-200.000	110.919	689.724
-55.246	522.324	1480.187	3403.229
-54.232	151.425	2643.346	3524.090
-53.217	109.343	2164.653	2537.578
-52.203	40.168	1705.696	1501.487
-51.188	32.551	1526.955	1292.085
-50.173	30.252	1502.308	1255.641
-49.159	55.554	1558.101	1476.928
-48.144	55.851	1574.668	1494.613
-47.130	32.867	1532.106	1298.415
-46.115	29.771	1517.231	1264.625
-45.100	29.575	1513.992	1260.538
-44.086	29.530	1511.907	1258.446
-43.071	29.480	1509.866	1256.353
-42.057	29.445	1508.498	1254.930
-41.042	29.436	1506.950	1253.531
-40.027	29.472	1505.509	1252.528
-39.013	29.461	1503.887	1251.054
-37.998	29.339	1502.797	1249.271
-36.984	29.445	1501.594	1248.940
-35.969	29.445	1500.222	1247.747
-34.954	29.417	1499.223	1246.677
-33.940	29.429	1497.646	1245.395
-32.925	29.527	1496.341	1244.921
-31.911	29.501	1494.538	1243.195
-30.896	29.576	1493.340	1242.660
-29.881	29.566	1492.246	1241.633
-28.867	29.547	1490.946	1240.369
-27.852	29.534	1489.689	1239.187
-26.838	29.515	1488.168	1237.747
-25.823	29.502	1486.813	1236.483
-24.809	29.438	1485.256	1234.715
-23.794	29.568	1483.496	1234.067
-22.779	29.521	1482.361	1232.764
-21.765	29.414	1481.744	1231.485
-20.750	29.447	1480.541	1230.656
-19.736	29.531	1479.472	1230.277
-18.721	29.523	1477.741	1228.739
-17.706	29.493	1476.860	1227.755
-16.692	29.471	1475.736	1226.627
-15.677	29.567	1474.364	1226.075
-14.663	29.559	1473.315	1225.102
-13.648	29.520	1472.810	1224.373
-12.633	29.500	1471.491	1223.098
-11.619	29.529	1471.172	1222.978
-10.604	29.567	1469.978	1222.185
-9.590	29.454	1469.486	1220.981
-8.575	29.478	1468.419	1220.203
-7.560	29.540	1467.142	1219.504
-6.546	29.366	1466.893	1218.098
-5.531	29.421	1466.081	1217.739
-4.517	29.498	1464.512	1216.895
-3.502	29.371	1464.108	1215.677
-2.487	29.335	1463.432	1214.831
-1.473	29.441	1461.854	1214.166
-0.458	29.457	1460.407	1213.025
0.556	28.366	1449.991	1198.629
1.571	23.984	1423.249	1148.206
2.586	19.090	1358.382	1065.560
3.600	16.659	1273.852	985.028
4.615	15.313	1228.595	942.391
5.629	13.343	1173.425	889.409
6.644	7.222	1092.456	797.243
7.659	1.838	1054.111	742.995
8.673	1.119	1048.492	735.478
9.688	0.930	1045.222	732.208
10.702	0.877	1044.201	731.169
11.717	0.935	1041.831	729.726
12.731	3.050	1043.347	740.926
13.746	9.612	1052.281	779.014
14.761	15.620	1059.869	813.737
15.775	17.674	1061.608	824.953
16.790	17.400	1059.923	822.248
17.804	16.351	1057.894	815.538
18.819	15.423	1056.322	809.775
19.834	15.051	1054.602	806.595
20.848	14.748	1053.547	804.258
21.863	14.544	1052.617	802.496
22.877	14.159	1052.370	800.382
23.892	14.029	1051.229	798.819
24.907	13.796	1050.488	797.068
25.921	13.933	1049.803	797.136
26.936	13.867	1049.308	796.372
27.950	13.975	1048.611	796.290
28.965	14.002	1047.954	795.849
29.980	14.054	1047.027	795.322
30.994	14.055	1045.976	794.461
32.009	14.135	1044.920	793.968
33.023	14.100	1044.831	793.665
34.038	14.197	1043.168	792.796
35.053	14.193	1042.589	792.267
36.067	13.960	1041.953	790.600
37.082	14.018	1041.199	790.237
38.096	14.160	1040.297	790.154
39.111	14.131	1039.818	789.585
40.126	14.109	1038.757	788.605
41.140	14.006	1037.791	787.312
42.155	14.038	1036.709	786.573
43.169	13.898	1035.823	785.172
44.184	13.913	1034.708	784.329
45.199	13.858	1033.754	783.275
46.213	13.939	1032.613	782.722
47.228	14.002	1031.480	782.092
48.242	13.926	1030.582	780.985
49.257	13.941	1029.799	780.392
50.271	13.947	1028.486	779.354
51.286	14.022	1028.052	779.312
52.301	14.005	1027.147	778.475
53.315	14.031	1025.890	777.574
54.330	14.046	1025.428	777.226
55.344	14.046	1024.673	776.588
56.359	14.005	1023.538	775.464
57.374	13.861	1023.141	774.424
58.388	13.988	1021.727	773.877
59.403	13.976	1021.214	773.365
60.417	13.856	1020.700	772.346
61.432	13.910	1020.072	772.058
62.447	13.826	1019.467	771.139
63.461	13.859	1018.302	770.341
64.476	13.884	1017.158	769.526
65.490	13.800	1016.746	768.757
66.505	13.905	1015.660	768.355
67.520	13.913	1015.082	767.884
68.534	14.063	1014.112	767.777
69.549	14.047	1012.968	766.767
70.563	14.037	1012.849	766.563
71.578	13.882	1012.058	765.183
72.593	13.881	1011.108	764.393
73.607	13.826	1010.162	763.355
74.622	13.886	1008.975	762.670
75.636	13.867	1008.010	761.782
76.651	13.784	1007.196	760.723
77.666	13.820	1006.645	760.401
78.680	13.800	1005.973	759.736
79.695	13.809	1005.401	759.278
80.709	13.886	1004.983	759.245
81.724	13.900	1004.149	758.613
82.739	13.899	1003.053	757.713
83.753	13.913	1002.348	757.179
84.768	13.972	1001.764	756.938
85.782	14.038	1000.911	756.528
86.797	13.984	1000.336	755.780
87.812	13.937	999.732	755.043
88.826	13.999	998.834	754.579
89.841	14.052	997.510	753.754
90.855	13.977	996.786	752.799
91.870	13.977	996.279	752.350
92.884	13.981	995.583	751.775
93.899	14.070	994.846	751.556
94.914	14.014	994.467	750.950
95.928	14.014	993.476	750.137
96.943	14.062	992.944	749.886
97.957	14.003	992.085	748.902
98.972	14.128	991.288	748.799
99.987	14.091	990.236	747.769
101.001	14.078	989.575	747.145
102.016	14.073	988.859	746.517
103.030	14.078	987.881	745.735
104.045	14.087	986.706	744.822
105.060	14.139	985.727	744.251
106.074	14.035	984.810	743.028
107.089	14.070	984.230	742.680
108.103	14.090	983.281	741.988
109.118	13.876	982.367	740.279
110.133	13.932	981.909	740.118
111.147	13.991	980.640	739.360
112.162	13.970	980.025	738.734
113.176	14.076	978.833	738.244
114.191	14.132	977.772	737.624
115.206	14.155	976.837	736.957
116.220	14.013	976.421	735.949
117.235	14.084	975.087	735.190
118.249	14.054	974.441	734.507
119.264	14.069	973.637	733.902
120.279	14.062	973.101	733.403
121.293	13.985	971.635	731.896
122.308	13.996	971.232	731.573
123.322	14.030	970.465	731.080
124.337	13.904	969.328	729.608
125.352	13.968	968.208	728.980
126.366	14.142	966.766	728.591
127.381	13.917	965.723	726.756
128.395	13.996	964.971	726.470
129.410	13.961	964.448	725.863
130.424	13.939	963.473	724.967
131.439	14.073	962.449	724.719
132.454	14.103	961.684	724.206
133.468	13.994	961.116	723.241
134.483	14.000	960.132	722.461
135.497	13.984	959.598	721.926
136.512	14.121	958.941	721.964
137.527	14.055	957.939	720.861
138.541	14.098	957.376	720.559
139.556	14.011	956.625	719.553
140.570	14.120	955.737	719.291
141.585	14.078	954.858	718.388
142.600	14.054	954.803	718.176
143.614	14.069	953.768	717.398
144.629	14.114	952.992	716.949
145.643	14.183	951.920	716.376
146.658	14.103	951.249	715.462
147.673	14.012	950.687	714.586
148.687	14.133	949.932	714.475
149.702	14.068	949.004	713.436
150.716	14.165	947.934	712.983
151.731	14.132	946.793	711.920
152.746	14.127	946.451	711.576
153.760	14.114	945.679	710.877
154.775	14.223	944.635	710.495
155.789	14.170	944.207	709.886
156.804	14.222	943.168	709.262
157.819	14.302	942.117	708.751
158.833	14.205	942.021	708.205
159.848	14.334	941.205	708.075
160.862	14.323	940.332	707.309
161.877	14.178	940.008	706.386
162.892	14.206	939.122	705.779
163.906	14.303	938.045	705.318
164.921	14.207	937.786	704.653
165.935	14.195	936.814	703.811
166.950	14.127	935.624	702.566
167.964	14.309	934.811	702.660
168.979	14.282	933.565	701.548
169.994	14.292	932.697	700.878
171.008	14.320	931.793	700.251
172.023	14.303	931.177	699.656
173.037	14.364	930.249	699.153
174.052	14.315	929.805	698.552
175.067	14.350	928.985	698.022
176.081	14.397	928.244	697.600
177.096	14.406	927.014	696.650
178.110	14.384	926.131	695.835
179.125	14.308	926.091	695.425
180.140	14.374	924.396	694.367
181.154	14.434	924.150	694.368
182.169	14.423	923.727	693.943
183.183	14.519	922.836	693.612
184.198	14.360	922.430	692.586
185.213	14.550	921.340	692.496
186.227	14.582	920.829	692.181
187.242	14.542	920.475	691.687
188.256	14.535	919.599	690.939
189.271	14.513	919.379	690.624
190.286	14.570	918.322	690.005
191.300	14.580	917.257	689.185
192.315	14.480	916.577	688.199
193.329	14.350	915.873	687.073
194.344	14.609	914.938	687.377
195.359	14.450	914.441	686.291
196.373	14.571	914.002	686.399
197.388	14.535	913.324	685.678
198.402	14.638	913.010	685.806
199.417	14.633	912.451	685.305
200.432	14.757	911.817	685.277
201.446	14.702	912.036	685.154
202.461	14.760	911.405	684.858
203.475	14.893	910.602	684.738
204.490	14.894	909.887	684.146
205.504	14.668	909.251	682.681
206.519	14.647	908.708	682.126
207.534	14.846	907.729	682.143
208.548	14.757	906.801	681.026
209.563	14.850	906.352	681.007
210.577	14.722	905.726	679.953
211.592	14.898	904.750	679.878
212.607	14.931	904.075	679.444
213.621	15.052	903.812	679.679
214.636	15.029	902.786	678.754
215.650	14.947	902.372	678.049
216.665	14.883	901.938	677.403
217.680	14.906	901.362	677.005
218.694	15.034	900.909	677.122
219.709	14.961	900.072	676.139
220.723	14.919	899.659	675.598
221.738	15.044	899.165	675.671
222.753	15.013	898.264	674.810
223.767	15.110	897.397	674.490
224.782	15.043	896.623	673.579
225.796	15.104	895.767	673.120
226.811	15.159	895.022	672.722
227.826	15.064	894.688	672.032
228.840	15.122	893.760	671.506
229.855	15.116	893.133	670.951
230.869	15.088	892.826	670.552
231.884	14.967	892.376	669.667
232.899	15.120	891.364	669.460
233.913	15.049	890.600	668.545
234.928	15.066	889.724	667.895
235.942	15.048	889.206	667.376
236.957	15.188	888.413	667.278
237.972	15.172	887.899	666.771
238.986	15.041	887.718	666.053
240.001	15.206	886.575	665.795
241.015	15.158	885.681	664.874
242.030	15.246	885.494	665.021
243.045	15.148	884.999	664.205
244.059	15.178	884.257	663.705
245.074	15.267	883.505	663.437
246.088	15.242	882.965	662.874
247.103	15.387	882.145	662.771
248.117	15.449	881.856	662.741
249.132	15.480	880.829	662.033
250.147	15.331	880.867	661.413
251.161	15.506	879.493	661.012
252.176	15.523	878.891	660.570
253.190	15.457	878.540	659.989
254.205	15.488	878.164	659.768
255.220	15.641	877.392	659.731
256.234	15.591	876.343	658.688
257.249	15.615	875.898	658.390
258.263	15.672	875.538	658.282
259.278	15.657	874.743	657.567
260.293	15.620	874.663	657.304
261.307	15.616	873.816	656.594
262.322	15.774	872.927	656.487
263.336	15.766	872.353	655.966
264.351	15.749	871.857	655.468
265.366	15.789	871.096	654.994
266.380	15.884	870.864	655.130
267.395	15.871	869.930	654.320
268.409	15.736	869.440	653.367
269.424	15.825	868.494	652.945
270.439	15.868	867.879	652.592
271.453	15.867	866.963	651.840
272.468	15.714	866.590	650.911
273.482	15.782	865.956	650.641
274.497	15.727	865.565	650.077
275.512	15.811	864.685	649.681
276.526	15.798	863.534	648.711
277.541	15.908	863.012	648.684
278.555	15.994	862.477	648.557
279.570	16.083	861.956	648.449
280.585	16.030	861.700	647.994
281.599	15.944	860.927	647.026
282.614	16.078	859.845	646.670
283.628	15.995	859.518	646.050
284.643	16.035	859.093	645.827
285.657	16.071	858.763	645.657
286.672	16.175	857.768	645.251
287.687	15.937	857.687	644.222
288.701	16.153	856.864	644.374
289.716	16.151	856.401	643.958
290.730	16.203	855.797	643.647
291.745	16.150	855.417	643.103
292.760	16.101	854.384	642.081
293.774	16.089	853.885	641.603
294.789	16.093	853.563	641.319
295.803	16.218	853.075	641.373
296.818	16.127	852.588	640.605
297.833	16.235	851.694	640.285
298.847	16.182	850.798	639.353
299.862	16.126	850.462	638.831
300.876	16.185	849.375	638.184
301.891	16.416	848.528	638.362
302.906	16.326	848.320	637.811
303.920	16.365	847.438	637.237
304.935	16.373	847.112	636.965
305.949	16.291	846.537	636.169
306.964	16.304	846.076	635.814
307.979	16.358	845.438	635.484
308.993	16.343	844.768	634.866
310.008	16.533	844.085	635.011
311.022	16.436	844.158	634.644
312.037	16.522	843.323	634.284
313.052	16.576	842.323	633.678
314.066	16.400	842.019	632.733
315.081	16.389	841.376	632.153
316.095	16.482	840.587	631.852
317.110	16.522	840.298	631.729
318.125	16.548	839.893	631.465
319.139	16.393	839.199	630.311
320.154	16.521	838.731	630.379
321.168	16.366	838.374	629.478
322.183	16.689	837.473	629.947
323.197	16.705	836.907	629.524
324.212	16.530	836.562	628.559
325.227	16.627	836.084	628.503
326.241	16.464	835.713	627.564
327.256	16.632	834.830	627.471
328.270	16.588	834.356	626.894
329.285	16.642	833.831	626.645
330.300	16.699	832.610	625.881
331.314	16.526	832.647	625.216
332.329	16.740	831.721	625.254
333.343	16.767	831.253	624.948
334.358	16.755	830.957	624.626
335.373	16.686	830.018	623.611
336.387	16.834	829.970	624.064
337.402	16.680	829.322	622.953
338.416	16.880	828.551	623.056
339.431	16.819	828.036	622.389
340.446	16.813	827.570	621.962
341.460	16.868	826.811	621.538
342.475	16.886	826.203	621.091
343.489	17.040	825.467	621.047
344.504	16.941	825.268	620.482
345.519	17.045	824.825	620.472
346.533	17.003	824.298	619.869
347.548	17.099	823.730	619.736
348.562	17.026	823.071	618.921
349.577	17.006	822.713	618.523
350.592	16.954	821.979	617.728
351.606	16.947	821.746	617.473
352.621	16.934	821.275	617.018
353.635	16.806	820.991	616.284
354.650	16.886	820.837	616.402
355.665	16.987	819.851	615.974
356.679	17.067	819.415	615.884
357.694	17.118	819.032	615.726
358.708	17.000	818.630	614.943
359.723	17.176	817.869	614.954
360.738	17.191	817.417	614.612
361.752	17.269	816.686	614.290
362.767	17.312	816.140	613.982
363.781	17.306	815.939	613.752
364.796	17.297	815.323	613.203
365.810	17.294	814.961	612.865
366.825	17.230	814.788	612.450
367.840	17.214	814.598	612.198
368.854	17.419	813.829	612.302
369.869	17.334	813.459	611.662
370.883	17.363	812.678	611.128
371.898	17.323	812.252	610.608
372.913	17.357	811.939	610.443
373.927	17.475	810.848	609.989
374.942	17.437	810.536	609.565
375.956	17.393	810.106	609.029
376.971	17.442	809.050	608.358
377.986	17.747	808.470	608.959
379.000	17.561	808.139	607.989
380.015	17.486	807.951	607.526
381.029	17.554	807.385	607.289
382.044	17.638	806.520	606.886
383.059	17.688	806.220	606.782
384.073	17.768	805.557	606.517
385.088	17.719	805.104	605.945
386.102	17.621	804.608	605.170
387.117	17.684	803.661	604.627
388.132	17.633	803.838	604.529
389.146	17.578	803.332	603.898
390.161	17.497	803.142	603.416
391.175	17.773	802.434	603.807
392.190	17.622	802.330	603.142
393.205	17.648	801.819	602.797
394.219	17.628	801.673	602.561
395.234	17.696	801.062	602.290
396.248	17.570	800.640	601.475
397.263	17.614	799.724	600.888
398.278	17.579	799.467	600.518
399.292	17.727	798.855	600.526
400.307	17.777	798.285	600.222
401.321	17.797	797.999	600.022
402.336	17.570	797.804	599.025
403.350	17.887	797.181	599.618
404.365	17.902	796.625	599.198
405.380	17.890	796.199	598.783
406.394	17.920	796.054	598.727
407.409	17.945	795.584	598.409
408.423	18.026	794.936	598.153
409.438	17.911	794.679	597.502
410.453	17.949	794.096	597.144
411.467	18.114	793.653	597.335
412.482	18.120	793.179	596.946
413.496	18.034	793.038	596.487
414.511	18.066	792.653	596.256
415.526	18.112	791.938	595.827
416.540	18.136	791.508	595.534
417.555	18.105	791.122	595.083
418.569	18.051	790.659	594.494
419.584	18.213	790.195	594.657
420.599	18.128	789.861	594.056
421.613	112.672	1293.026	1476.200
422.628	96.853	1366.328	1476.299
