DTS Sentinel unit serial number:	SN413079Multiplexer serial number:	ORYXHardware model number:	OX4-SRSoftware version number:	ORYX F/W v4.00 Oryx Data Collector v3.7.2.0data status	okinstallation	princeton_trtdifferential loss correction	single-endedforward channel	channel 3reverse channel	N/Adate	2019/09/19time	05:00:35forward acquisition time	60.00reverse acquisition time	0.00gamma	496.2192k internal	0.2348k external	0.2348temperature offset calibration	0.9992default loss term (dB/km)	0.3790temperature slope calibration	1.0000multiplexer offset coefficient	1.0000multiplexer slope coefficient	1.0000fibre end	0.00T internal ref (°C)	19.70T ext. ref 1 (°C)	0.62T ext. ref 2 (°C)	12.96length (m)	temperature (°C)	Stokes	anti-Stokes-747.200	6.028	0.097	0.072
-746.185	-68.300	-0.367	-0.142
-745.171	-68.833	0.085	0.033
-744.156	74.034	-0.309	-0.324
-743.142	47.551	-0.338	-0.315
-742.127	74.213	-0.222	0.233
-741.112	350.343	0.175	0.345
-740.098	18.180	-0.058	-0.046
-739.083	9.662	0.117	0.089
-738.069	137.714	-0.212	0.277
-737.054	-200.000	0.041	-0.423
-736.039	800.000	-0.056	-0.219
-735.025	-70.107	0.391	0.149
-734.010	-200.000	0.009	0.119
-732.996	33.606	-0.102	-0.089
-731.981	-75.828	-0.306	-0.108
-730.966	-200.000	-0.004	0.089
-729.952	-75.468	0.102	0.036
-728.937	-29.199	0.213	0.122
-727.923	-49.288	-0.086	-0.041
-726.908	-159.938	0.077	0.004
-725.894	160.491	0.144	-0.201
-724.879	-68.872	-0.125	-0.048
-723.864	-117.295	-0.122	0.022
-722.850	114.254	-0.068	0.082
-721.835	800.000	0.025	-0.109
-720.821	-12.212	0.020	0.013
-719.806	87.231	-0.256	-0.283
-718.791	-20.815	-0.192	-0.118
-717.777	800.000	-0.117	-0.464
-716.762	-76.798	-0.093	-0.032
-715.748	233.433	-0.179	0.294
-714.733	-69.612	0.165	0.063
-713.718	558.267	0.058	-0.140
-712.704	-136.399	0.066	0.008
-711.689	800.000	0.103	-0.409
-710.675	800.000	0.054	0.154
-709.660	-200.000	-0.014	-0.106
-708.645	800.000	-0.046	-0.150
-707.631	800.000	0.099	0.352
-706.616	-62.269	-0.160	0.067
-705.602	-44.895	-0.246	0.122
-704.587	156.816	0.136	-0.187
-703.572	-39.015	0.166	0.087
-702.558	288.105	-0.104	-0.188
-701.543	-200.000	-0.018	-0.110
-700.529	58.798	-0.306	-0.300
-699.514	-36.662	-0.214	-0.115
-698.499	-10.930	0.224	-0.147
-697.485	-200.000	0.010	-0.280
-696.470	-143.996	-0.363	0.034
-695.456	42.973	0.239	0.217
-694.441	800.000	-0.053	-0.206
-693.426	48.510	0.158	0.147
-692.412	-116.730	0.210	-0.038
-691.397	196.366	0.073	-0.111
-690.383	-200.000	-0.005	-0.126
-689.368	-53.156	-0.203	0.093
-688.354	-200.000	-0.009	0.085
-687.339	-113.208	0.142	0.028
-686.324	-116.774	-0.120	0.022
-685.310	176.808	0.076	0.111
-684.295	728.598	-0.024	-0.063
-683.281	194.907	-0.120	-0.182
-682.266	41.926	0.334	-0.302
-681.251	-12.137	-0.211	-0.138
-680.237	356.708	0.166	-0.330
-679.222	24.936	0.072	0.059
-678.208	92.985	0.235	-0.265
-677.193	137.557	0.158	-0.206
-676.178	-56.256	0.102	-0.045
-675.164	-91.790	-0.061	0.017
-674.149	-13.395	0.130	-0.084
-673.135	119.540	-0.139	0.172
-672.120	799.112	-0.176	-0.482
-671.105	448.802	-0.155	-0.341
-670.091	-200.000	0.032	0.217
-669.076	-76.461	-0.256	0.090
-668.062	-102.109	-0.112	-0.027
-667.047	800.000	-0.081	0.344
-666.032	800.000	0.019	-0.069
-665.018	86.930	0.026	-0.028
-664.003	299.210	-0.060	0.111
-662.989	-136.942	-0.173	-0.020
-661.974	800.000	-0.048	0.194
-660.959	51.851	0.113	-0.107
-659.945	800.000	-0.123	-0.387
-658.930	-200.000	0.020	-0.237
-657.916	800.000	0.037	-0.158
-656.901	-123.040	-0.378	-0.061
-655.886	-200.000	0.001	-0.234
-654.872	472.742	0.031	0.070
-653.857	-12.448	-0.426	-0.277
-652.843	214.171	0.136	-0.214
-651.828	-47.735	0.284	-0.137
-650.814	88.888	-0.332	-0.368
-649.799	-106.797	0.203	-0.045
-648.784	-200.000	-0.081	0.589
-647.770	800.000	-0.106	-0.430
-646.755	-141.809	0.199	0.020
-645.741	29.120	-0.085	-0.072
-644.726	800.000	-0.039	0.145
-643.711	-194.851	-0.221	0.002
-642.697	121.946	0.120	-0.149
-641.682	274.458	-0.186	-0.328
-640.668	3.082	0.134	-0.097
-639.653	-100.979	-0.394	-0.096
-638.638	44.189	0.051	0.047
-637.624	-200.000	0.048	-0.224
-636.609	-200.000	-0.079	-0.350
-635.595	780.601	-0.033	-0.089
-634.580	126.731	0.105	0.133
-633.565	-147.648	-0.302	-0.025
-632.551	-36.184	0.106	-0.057
-631.536	-12.963	-0.192	-0.124
-630.522	20.736	-0.094	-0.076
-629.507	-113.361	-0.050	0.010
-628.492	-84.812	0.268	0.084
-627.478	-123.596	0.052	0.008
-626.463	-78.534	0.301	0.102
-625.449	800.000	0.065	-0.247
-624.434	-17.506	-0.166	0.104
-623.419	304.647	0.152	0.280
-622.405	-185.116	0.336	-0.005
-621.390	98.316	-0.144	0.165
-620.376	90.648	-0.112	-0.125
-619.361	-10.608	-0.280	-0.184
-618.346	-200.000	-0.001	0.126
-617.332	-200.000	-0.024	-0.323
-616.317	-140.456	-0.222	-0.023
-615.303	-118.132	-0.255	-0.045
-614.288	-200.000	-0.005	0.043
-613.273	-129.098	-0.116	0.016
-612.259	3.525	0.118	-0.085
-611.244	800.000	-0.017	0.057
-610.230	481.199	-0.106	0.239
-609.215	-200.000	0.004	0.043
-608.201	324.064	0.031	0.060
-607.186	4.565	-0.171	0.125
-606.171	-75.968	-0.357	-0.125
-605.157	800.000	0.036	-0.153
-604.142	-200.000	0.009	0.203
-603.128	171.649	0.089	0.126
-602.113	-200.000	0.003	-0.210
-601.098	793.611	0.050	-0.136
-600.084	391.608	-0.125	0.257
-599.069	-200.000	-0.088	-0.384
-598.055	508.955	-0.023	-0.053
-597.040	800.000	-0.090	-0.328
-596.025	-200.000	0.048	-0.294
-595.011	-32.729	0.472	-0.261
-593.996	184.986	-0.115	-0.169
-592.982	17.655	0.188	-0.148
-591.967	174.739	0.067	-0.097
-590.952	-1.879	0.122	0.085
-589.938	63.123	-0.116	-0.115
-588.923	-63.630	-0.394	-0.160
-587.909	61.888	-0.061	0.061
-586.894	304.145	-0.027	0.049
-585.879	-31.403	0.101	-0.056
-584.865	597.012	-0.137	0.338
-583.850	300.584	-0.178	-0.325
-582.836	-108.094	-0.175	0.038
-581.821	-200.000	0.001	0.035
-580.806	-49.176	-0.185	0.088
-579.792	6.809	-0.210	-0.155
-578.777	-31.832	0.207	0.115
-577.763	82.668	0.074	0.080
-576.748	-200.000	0.074	-0.489
-575.733	18.492	-0.066	0.052
-574.719	675.685	-0.028	-0.072
-573.704	-200.000	-0.034	0.223
-572.690	38.476	-0.131	-0.116
-571.675	310.094	-0.071	-0.131
-570.661	254.301	0.075	-0.127
-569.646	28.232	-0.086	-0.072
-568.631	0.136	0.096	0.068
-567.617	-114.704	0.144	0.027
-566.602	222.293	-0.259	0.414
-565.588	20.540	-0.135	0.108
-564.573	800.000	-0.047	-0.175
-563.558	301.039	-0.124	-0.228
-562.544	-11.318	0.142	-0.093
-561.529	392.940	0.104	-0.215
-560.515	7.061	0.246	-0.182
-559.500	277.857	-0.050	0.089
-558.485	-200.000	-0.004	-0.068
-557.471	-200.000	0.032	0.206
-556.456	707.099	0.213	0.558
-555.442	-146.316	0.284	-0.025
-554.427	-200.000	0.020	0.414
-553.412	397.374	-0.213	-0.441
-552.398	125.943	0.076	0.095
-551.383	-200.000	0.036	-0.263
-550.369	-43.812	-0.142	0.071
-549.354	-106.579	-0.285	0.063
-548.339	240.726	0.082	-0.136
-547.325	490.878	-0.022	0.051
-546.310	-61.689	0.130	-0.054
-545.296	800.000	0.048	-0.160
-544.281	230.733	-0.106	0.172
-543.266	124.049	0.243	0.303
-542.252	-83.008	-0.325	0.104
-541.237	25.145	-0.112	0.092
-540.223	234.471	0.065	0.106
-539.208	-86.317	-0.256	-0.078
-538.193	-117.928	-0.214	-0.038
-537.179	14.928	-0.247	0.191
-536.164	65.648	0.198	-0.199
-535.150	-200.000	-0.038	0.274
-534.135	-56.283	-0.094	-0.041
-533.121	57.084	0.171	0.165
-532.106	329.372	-0.070	0.133
-531.091	744.955	-0.017	-0.046
-530.077	-116.800	0.396	0.072
-529.062	-158.473	0.245	0.014
-528.048	-34.030	0.237	-0.129
-527.033	-83.375	0.165	-0.052
-526.018	800.000	0.037	-0.138
-525.004	800.000	-0.014	0.047
-523.989	-77.009	-0.107	-0.037
-522.975	-125.815	-0.181	-0.027
-521.960	-200.000	-0.013	0.058
-520.945	-114.360	0.171	0.033
-519.931	-24.426	0.348	0.205
-518.916	-76.965	-0.347	0.120
-517.902	-70.761	0.054	0.020
-516.887	800.000	0.006	-0.024
-515.872	65.256	0.117	0.117
-514.858	18.364	-0.077	-0.061
-513.843	-150.874	-0.244	-0.018
-512.829	199.966	0.228	0.346
-511.814	-158.693	0.194	-0.011
-510.799	800.000	-0.054	-0.161
-509.785	98.760	-0.075	0.086
-508.770	18.365	0.115	-0.091
-507.756	16.719	-0.239	-0.187
-506.741	-170.030	-0.432	0.015
-505.726	-192.945	-0.142	-0.001
-504.712	197.034	-0.086	0.129
-503.697	-48.215	-0.065	0.031
-502.683	189.992	-0.047	-0.069
-501.668	35.957	0.060	-0.052
-500.653	-200.000	0.021	0.412
-499.639	-62.368	-0.263	-0.108
-498.624	-144.370	-0.085	0.008
-497.610	-97.278	0.440	-0.114
-496.595	-176.841	-0.271	0.007
-495.581	322.281	-0.058	-0.110
-494.566	106.239	0.033	0.038
-493.551	26.328	-0.070	0.058
-492.537	-0.179	-0.033	0.023
-491.522	800.000	-0.116	0.333
-490.508	-134.304	0.321	0.039
-489.493	-48.183	0.341	-0.163
-488.478	-21.490	-0.189	-0.114
-487.464	-52.534	0.089	-0.041
-486.449	27.373	-0.318	-0.265
-485.435	258.711	-0.097	0.166
-484.420	-82.687	0.421	0.135
-483.405	340.808	-0.141	0.272
-482.391	49.696	0.148	0.138
-481.376	8.438	-0.021	-0.015
-480.362	12.083	-0.241	0.183
-479.347	-5.539	0.100	-0.068
-478.332	-116.266	-0.165	-0.030
-477.318	-200.000	-0.041	0.202
-476.303	-200.000	-0.040	0.207
-475.289	-200.000	0.009	-0.119
-474.274	-107.334	-0.295	-0.064
-473.259	-63.557	0.323	-0.131
-472.245	108.690	0.151	-0.178
-471.230	-30.173	-0.253	0.142
-470.216	104.529	-0.324	0.377
-469.201	-200.000	0.007	-0.160
-468.186	-133.452	-0.144	-0.018
-467.172	800.000	-0.078	-0.216
-466.157	-200.000	0.010	0.201
-465.143	96.129	-0.167	-0.189
-464.128	-200.000	-0.000	-0.277
-463.113	-149.916	-0.276	-0.021
-462.099	-6.384	0.170	-0.115
-461.084	-66.446	0.200	0.079
-460.070	67.453	0.225	0.227
-459.055	313.197	0.040	-0.074
-458.040	800.000	-0.190	-0.607
-457.026	-200.000	0.030	-0.221
-456.011	800.000	0.117	-0.362
-454.997	-50.581	0.407	0.190
-453.982	800.000	-0.083	0.232
-452.968	-130.228	0.158	0.021
-451.953	675.657	0.087	0.223
-450.938	25.540	-0.267	0.220
-449.924	-71.779	-0.057	-0.021
-448.909	201.641	0.046	0.070
-447.895	-149.624	-0.096	-0.007
-446.880	6.090	0.005	-0.004
-445.865	800.000	-0.117	0.327
-444.851	33.718	-0.186	-0.160
-443.836	47.104	0.166	0.153
-442.822	92.411	-0.245	-0.272
-441.807	-200.000	0.052	-0.280
-440.792	78.946	0.091	-0.096
-439.778	-101.165	-0.143	-0.034
-438.763	309.423	0.096	0.176
-437.749	-167.464	0.278	-0.011
-436.734	129.204	-0.031	0.039
-435.719	-145.173	0.047	-0.004
-434.705	800.000	0.005	0.021
-433.690	-109.252	0.380	0.080
-432.676	-200.000	0.030	0.285
-431.661	727.509	0.023	0.059
-430.646	-75.101	-0.166	0.058
-429.632	-200.000	-0.004	0.503
-428.617	201.261	-0.240	0.365
-427.603	117.538	0.214	-0.260
-426.588	-160.047	0.081	0.004
-425.573	-200.000	0.018	-0.191
-424.559	10.149	0.200	-0.150
-423.544	-106.520	0.067	-0.015
-422.530	9.557	-0.104	0.078
-421.515	3.961	0.032	0.023
-420.500	287.929	-0.118	0.210
-419.486	-54.103	-0.263	-0.118
-418.471	-149.724	-0.091	-0.007
-417.457	-200.000	-0.059	0.326
-416.442	800.000	0.078	-0.269
-415.428	-63.721	0.177	-0.072
-414.413	69.735	-0.080	0.082
-413.398	184.601	-0.080	-0.116
-412.384	-86.871	-0.021	-0.006
-411.369	-200.000	0.010	-0.128
-410.355	114.492	0.128	0.154
-409.340	-103.936	-0.184	-0.042
-408.325	152.889	-0.176	0.237
-407.311	57.945	-0.137	-0.132
-406.296	301.558	0.176	-0.321
-405.282	148.873	0.279	-0.372
-404.267	-200.000	0.011	-0.326
-403.252	246.727	0.120	0.200
-402.238	-171.729	0.350	0.011
-401.223	-73.540	-0.225	-0.081
-400.209	800.000	0.046	-0.188
-399.194	433.669	0.072	0.154
-398.179	-17.251	-0.090	-0.056
-397.165	-4.193	-0.191	0.130
-396.150	297.163	0.042	0.077
-395.136	-200.000	-0.014	0.262
-394.121	-7.050	-0.095	-0.064
-393.106	47.460	-0.068	0.063
-392.092	-200.000	0.014	-0.176
-391.077	593.300	-0.186	-0.453
-390.063	53.402	-0.019	-0.018
-389.048	-73.904	0.139	0.050
-388.033	73.691	-0.132	0.137
-387.019	-200.000	-0.019	0.185
-386.004	416.825	-0.093	-0.195
-384.990	328.396	-0.071	0.134
-383.975	250.289	0.181	-0.302
-382.960	-200.000	-0.035	-0.212
-381.946	-200.000	-0.060	-0.331
-380.931	800.000	0.050	-0.152
-379.917	800.000	-0.063	-0.202
-378.902	-41.039	0.066	0.033
-377.888	-106.135	-0.222	-0.049
-376.873	-27.570	0.161	-0.092
-375.858	-67.812	-0.278	0.107
-374.844	42.977	0.038	0.034
-373.829	29.964	0.075	0.063
-372.815	62.612	-0.179	-0.176
-371.800	-200.000	-0.020	-0.142
-370.785	60.353	0.171	-0.167
-369.771	-43.913	0.194	0.096
-368.756	-200.000	-0.014	0.322
-367.742	111.610	0.225	-0.267
-366.727	-200.000	0.007	-0.086
-365.712	-200.000	-0.013	0.272
-364.698	214.767	-0.180	0.282
-363.683	-151.430	0.188	-0.014
-362.669	610.484	0.132	-0.324
-361.654	-106.404	0.070	0.015
-360.639	12.063	-0.030	0.022
-359.625	-80.100	-0.389	-0.128
-358.610	-145.847	-0.040	0.004
-357.596	-200.000	0.009	-0.061
-356.581	154.294	0.197	-0.266
-355.566	-200.000	0.043	-0.277
-354.552	44.108	0.320	0.289
-353.537	-185.278	-0.258	0.004
-352.523	354.891	-0.242	-0.474
-351.508	800.000	-0.054	0.229
-350.493	62.941	0.146	0.144
-349.479	32.407	0.169	-0.143
-348.464	-200.000	-0.039	-0.341
-347.450	800.000	0.069	0.239
-346.435	800.000	0.082	-0.278
-345.420	1.503	0.304	0.215
-344.406	331.463	-0.189	0.359
-343.391	-116.861	0.076	0.014
-342.377	755.926	-0.092	-0.246
-341.362	33.979	-0.182	-0.156
-340.348	208.199	0.020	-0.031
-339.333	-200.000	-0.019	0.272
-338.318	800.000	-0.042	0.176
-337.304	-19.241	0.040	0.024
-336.289	-102.098	-0.201	-0.048
-335.275	74.831	0.165	0.170
-334.260	-200.000	-0.025	0.161
-333.245	544.523	0.128	0.300
-332.231	-172.866	-0.193	0.006
-331.216	524.832	0.155	-0.359
-330.202	-142.763	0.240	0.023
-329.187	-14.368	-0.158	-0.100
-328.172	-200.000	-0.018	0.183
-327.158	139.760	-0.119	0.154
-326.143	361.319	0.054	0.105
-325.129	-126.275	-0.430	0.063
-324.114	-19.190	-0.287	-0.175
-323.099	-113.864	0.212	0.041
-322.085	-73.078	-0.039	0.014
-321.070	127.066	-0.113	0.141
-320.056	-38.397	0.129	0.067
-319.041	-102.097	0.116	0.027
-318.026	-124.689	0.333	0.051
-317.012	800.000	0.033	0.107
-315.997	-200.000	0.020	0.151
-314.983	-136.359	-0.358	-0.041
-313.968	-200.000	-0.106	-0.484
-312.953	106.782	-0.138	0.160
-311.939	-200.000	0.066	-0.338
-310.924	29.423	0.054	0.045
-309.910	800.000	-0.146	0.396
-308.895	800.000	0.075	0.234
-307.880	36.758	0.234	-0.203
-306.866	-200.000	0.028	-0.122
-305.851	-84.541	-0.014	-0.004
-304.837	609.829	-0.039	-0.095
-303.822	-14.523	-0.071	0.045
-302.807	508.553	-0.103	-0.236
-301.793	-200.000	0.018	-0.109
-300.778	16.908	-0.077	-0.060
-299.764	-200.000	-0.032	-0.165
-298.749	90.779	0.171	-0.189
-297.735	-23.936	0.203	-0.119
-296.720	-39.512	0.204	-0.105
-295.705	278.959	-0.154	-0.269
-294.691	-3.114	-0.138	-0.094
-293.676	36.479	0.061	0.053
-292.662	-75.621	0.198	-0.069
-291.647	800.000	-0.056	0.219
-290.632	297.427	0.112	0.202
-289.618	-200.000	-0.009	-0.113
-288.603	218.950	0.074	0.116
-287.589	-200.000	-0.027	0.484
-286.574	-200.000	-0.023	0.334
-285.559	680.061	-0.109	0.278
-284.545	128.472	0.116	0.145
-283.530	82.324	-0.203	0.217
-282.516	-54.597	0.289	-0.128
-281.501	-200.000	0.021	-0.201
-280.486	661.946	0.019	-0.049
-279.472	-42.037	0.154	-0.077
-278.457	800.000	0.169	0.520
-277.443	-200.000	0.004	-0.104
-276.428	-100.068	-0.404	-0.099
-275.413	130.778	0.024	0.030
-274.399	-85.458	-0.030	0.009
-273.384	108.656	0.198	0.232
-272.370	-200.000	-0.027	-0.294
-271.355	-75.967	0.242	-0.084
-270.340	-17.585	0.128	-0.079
-269.326	-0.160	0.161	0.113
-268.311	200.767	0.170	-0.256
-267.297	-46.202	-0.063	-0.030
-266.282	-92.944	0.059	-0.016
-265.267	169.421	-0.131	0.184
-264.253	172.294	0.076	-0.107
-263.238	-200.000	0.042	-0.397
-262.224	618.902	-0.067	0.166
-261.209	-62.564	0.203	0.083
-260.195	-105.707	-0.219	-0.049
-259.180	-14.171	0.152	0.096
-258.165	-200.000	0.003	-0.038
-257.151	369.475	-0.125	-0.249
-256.136	-200.000	0.010	0.359
-255.122	-132.393	-0.325	0.041
-254.107	-200.000	-0.079	0.453
-253.092	-1.805	0.075	0.051
-252.078	-68.635	-0.168	0.064
-251.063	105.778	0.115	0.133
-250.049	461.280	0.114	0.248
-249.034	-101.581	-0.209	0.050
-248.019	-37.734	-0.272	0.142
-247.005	785.243	-0.089	0.240
-245.990	-23.550	0.215	0.127
-244.976	39.353	0.119	-0.105
-243.961	529.676	0.103	-0.239
-242.946	800.000	-0.059	-0.167
-241.932	68.906	-0.167	-0.168
-240.917	-200.000	0.003	0.148
-239.903	-61.700	-0.232	-0.095
-238.888	-113.366	-0.205	-0.039
-237.873	800.000	-0.047	0.156
-236.859	-128.594	0.277	-0.038
-235.844	149.833	-0.049	-0.065
-234.830	151.734	0.152	0.203
-233.815	-45.414	0.204	0.099
-232.800	-75.116	0.380	-0.133
-231.786	-134.763	0.441	-0.052
-230.771	800.000	0.088	-0.268
-229.757	-155.204	-0.226	-0.014
-228.742	66.831	0.186	0.186
-227.727	-200.000	0.061	0.358
-226.713	-200.000	0.017	-0.251
-225.698	101.721	-0.106	0.121
-224.684	-124.694	-0.267	0.040
-223.669	-138.047	0.346	0.038
-222.655	-148.833	0.325	0.026
-221.640	-84.818	0.360	0.111
-220.625	-163.079	-0.395	0.019
-219.611	-31.750	-0.347	0.190
-218.596	-69.386	-0.256	-0.096
-217.582	49.740	-0.036	-0.033
-216.567	-200.000	0.007	0.055
-215.552	26.353	-0.112	-0.091
-214.538	-49.231	0.174	0.081
-213.523	-200.000	0.001	0.138
-212.509	-9.728	-0.063	-0.041
-211.494	-200.000	-0.010	0.153
-210.479	15.252	0.356	0.273
-209.465	116.835	0.069	0.083
-208.450	262.236	-0.057	0.096
-207.436	75.878	0.052	-0.054
-206.421	84.212	-0.085	0.091
-205.406	112.814	0.112	0.133
-204.392	-60.394	0.311	0.129
-203.377	-50.130	0.259	0.120
-202.363	8.490	-0.157	0.115
-201.348	-2.211	0.403	0.277
-200.333	264.029	0.094	0.160
-199.319	-93.957	-0.335	-0.090
-198.304	639.436	0.088	0.219
-197.290	-200.000	0.062	0.324
-196.275	530.611	-0.042	-0.097
-195.260	-66.162	0.299	-0.116
-194.246	-200.000	0.006	-0.437
-193.231	394.443	0.026	-0.053
-192.217	12.783	0.167	-0.126
-191.202	20.064	0.179	0.141
-190.187	-78.730	0.098	-0.033
-189.173	128.309	-0.228	-0.284
-188.158	-107.285	0.237	0.051
-187.144	-98.042	-0.111	0.028
-186.129	-200.000	0.052	0.496
-185.114	-149.819	0.032	-0.002
-184.100	40.106	-0.140	-0.123
-183.085	-26.093	-0.198	0.114
-182.071	-50.937	-0.128	-0.059
-181.056	135.410	-0.085	0.108
-180.042	-162.911	0.374	0.018
-179.027	23.080	0.085	-0.068
-178.012	-77.139	-0.153	-0.052
-176.998	-7.416	0.330	-0.218
-175.983	154.921	0.146	-0.196
-174.969	800.000	0.034	0.102
-173.954	-78.673	-0.143	0.048
-172.939	18.789	0.173	-0.135
-171.925	-200.000	0.012	0.138
-170.910	46.264	-0.132	-0.119
-169.896	-167.234	-0.301	-0.012
-168.881	-155.404	0.104	-0.007
-167.866	387.551	0.175	0.353
-166.852	-114.519	0.291	-0.054
-165.837	-23.696	-0.218	-0.128
-164.823	280.004	-0.215	0.375
-163.808	-68.623	-0.209	-0.079
-162.793	-74.430	0.232	-0.082
-161.779	-98.452	0.211	0.053
-160.764	-200.000	0.041	-0.198
-159.750	72.498	-0.033	-0.033
-158.735	-88.997	-0.116	-0.034
-157.720	22.646	-0.081	-0.065
-156.706	-200.000	0.009	-0.075
-155.691	-200.000	-0.027	-0.385
-154.677	35.978	-0.067	-0.058
-153.662	69.164	0.054	-0.054
-152.647	800.000	-0.078	0.284
-151.633	-200.000	0.012	-0.226
-150.618	101.200	0.085	-0.096
-149.604	155.582	0.146	-0.197
-148.589	800.000	-0.027	-0.096
-147.574	157.320	0.240	-0.325
-146.560	-200.000	0.076	-0.340
-145.545	214.067	-0.195	-0.301
-144.531	-107.132	0.245	-0.053
-143.516	-17.332	0.325	-0.200
-142.502	719.863	0.199	-0.516
-141.487	-200.000	0.004	-0.032
-140.472	172.129	0.084	-0.118
-139.458	-122.659	0.262	-0.041
-138.443	261.189	-0.084	0.141
-137.429	-129.562	0.227	0.031
-136.414	-200.000	0.002	0.085
-135.399	-67.612	0.185	0.071
-134.385	-200.000	0.021	-0.223
-133.370	246.789	0.134	0.221
-132.356	-78.444	0.166	0.056
-131.341	-40.231	-0.108	-0.055
-130.326	-117.071	0.162	0.029
-129.312	-200.000	-0.011	-0.080
-128.297	-29.930	0.364	-0.202
-127.283	800.000	-0.108	-0.372
-126.268	-200.000	0.005	0.025
-125.253	800.000	-0.064	0.207
-124.239	-91.150	-0.218	-0.061
-123.224	-150.537	0.264	0.020
-122.210	43.914	0.275	0.246
-121.195	-200.000	-0.041	0.382
-120.180	-25.539	-0.060	-0.035
-119.166	-76.735	0.299	0.102
-118.151	-118.799	-0.225	-0.039
-117.137	-55.182	0.044	0.019
-116.122	369.841	-0.107	-0.211
-115.107	-116.596	-0.291	0.052
-114.093	-149.893	0.299	0.023
-113.078	-107.377	0.125	-0.027
-112.064	-68.069	0.516	-0.196
-111.049	-77.911	0.080	-0.027
-110.034	-101.410	0.218	-0.052
-109.020	273.968	0.269	-0.464
-108.005	-98.007	0.046	0.011
-106.991	-152.287	-0.248	0.017
-105.976	-40.414	-0.205	-0.104
-104.962	-114.403	0.323	-0.061
-103.947	6.418	-0.199	0.144
-102.932	800.000	0.036	-0.118
-101.918	139.321	0.139	-0.178
-100.903	800.000	-0.042	0.143
-99.889	-38.494	0.233	0.120
-98.874	-162.290	0.314	0.015
-97.859	-183.048	-0.313	-0.005
-96.845	-90.688	-0.128	0.036
-95.830	800.000	0.036	0.104
-94.816	800.000	-0.118	-0.410
-93.801	81.979	0.016	0.017
-92.786	-65.296	0.193	-0.076
-91.772	7.122	-0.241	-0.175
-90.757	-90.891	0.329	0.092
-89.743	6.561	-0.445	0.322
-88.728	206.993	-0.197	-0.299
-87.713	96.754	0.135	0.150
-86.699	-159.748	-0.222	-0.012
-85.684	-149.381	0.156	0.012
-84.670	-200.000	0.058	0.362
-83.655	-200.000	-0.032	0.261
-82.640	12.364	0.265	0.199
-81.626	-93.556	0.318	-0.086
-80.611	181.545	-0.186	-0.267
-79.597	-74.524	-0.346	0.122
-78.582	-112.743	0.399	0.077
-77.567	-141.480	-0.166	-0.016
-76.553	606.778	0.042	0.101
-75.538	151.166	0.261	0.346
-74.524	-78.484	0.395	0.132
-73.509	23.760	-0.093	0.074
-72.494	340.176	-0.102	0.193
-71.480	-93.273	0.358	0.097
-70.465	-46.969	0.199	0.095
-69.451	10.000	0.120	0.089
-68.436	-35.641	-0.140	0.074
-67.422	-51.256	0.056	-0.025
-66.407	800.000	-0.065	-0.235
-65.392	-35.393	0.163	0.086
-64.378	800.000	-0.077	-0.210
-63.363	-129.654	0.073	-0.010
-62.349	-200.000	-0.011	-0.087
-61.334	99.878	-1.102	-1.242
-60.319	57.887	0.871	0.829
-59.305	800.000	-0.485	-1.851
-58.290	274.790	0.872	1.503
-57.276	448.036	0.617	1.321
-56.261	-200.000	137.059	623.588
-55.246	337.177	1651.653	3121.504
-54.232	137.004	2782.187	3535.791
-53.217	81.763	2180.943	2295.868
-52.203	29.282	1701.179	1404.967
-51.188	22.440	1527.513	1214.478
-50.173	21.069	1506.378	1188.299
-49.159	43.398	1583.897	1407.241
-48.144	39.718	1593.729	1390.053
-47.130	22.492	1542.927	1226.900
-46.115	20.014	1526.525	1196.713
-45.100	19.734	1523.949	1192.715
-44.086	19.724	1521.234	1190.476
-43.071	19.740	1519.511	1189.189
-42.057	19.758	1517.852	1187.968
-41.042	19.731	1516.285	1186.508
-40.027	19.748	1514.732	1185.364
-39.013	19.697	1513.694	1184.150
-37.998	19.588	1512.776	1182.640
-36.984	19.590	1511.834	1181.874
-35.969	19.636	1509.756	1180.518
-34.954	19.640	1508.591	1179.583
-33.940	19.598	1507.543	1178.431
-32.925	19.696	1505.851	1177.733
-31.911	19.577	1504.827	1176.071
-30.896	19.756	1503.051	1175.854
-29.881	19.805	1501.914	1175.253
-28.867	19.694	1501.068	1173.786
-27.852	19.728	1499.579	1172.811
-26.838	19.721	1498.329	1171.736
-25.823	19.836	1495.795	1170.484
-24.809	19.831	1494.489	1169.384
-23.794	19.761	1493.066	1167.751
-22.779	19.709	1493.086	1167.373
-21.765	19.781	1491.361	1166.461
-20.750	19.760	1489.960	1165.174
-19.736	19.774	1488.317	1163.942
-18.721	19.748	1488.228	1163.650
-17.706	19.766	1486.513	1162.382
-16.692	19.809	1485.531	1161.856
-15.677	19.769	1484.592	1160.811
-14.663	19.739	1483.431	1159.652
-13.648	19.561	1483.429	1158.413
-12.633	19.706	1481.481	1157.813
-11.619	19.713	1480.820	1157.298
-10.604	19.693	1480.577	1156.931
-9.590	19.757	1478.931	1156.028
-8.575	19.710	1478.513	1155.344
-7.560	19.675	1477.916	1154.595
-6.546	19.633	1476.721	1153.337
-5.531	19.668	1475.827	1152.826
-4.517	19.565	1475.143	1151.556
-3.502	19.592	1473.437	1150.361
-2.487	19.619	1472.903	1150.074
-1.473	19.622	1472.059	1149.389
-0.458	19.688	1470.286	1148.403
0.556	18.642	1459.913	1135.971
1.571	15.261	1435.874	1095.111
2.586	11.559	1374.561	1025.065
3.600	10.001	1290.147	952.851
4.615	9.152	1246.252	915.509
5.629	8.236	1190.433	869.437
6.644	4.368	1111.089	791.715
7.659	0.956	1078.343	751.404
8.673	0.732	1073.071	746.557
9.688	0.561	1069.683	743.294
10.702	0.518	1068.493	742.188
11.717	0.649	1065.648	740.791
12.731	1.816	1065.830	746.572
13.746	6.889	1071.844	775.665
14.761	13.263	1080.424	813.253
15.775	16.726	1085.305	833.935
16.790	16.936	1084.310	834.131
17.804	15.977	1081.933	827.521
18.819	15.114	1080.366	822.011
19.834	14.545	1079.083	818.176
20.848	14.260	1078.291	816.105
21.863	14.068	1077.427	814.436
22.877	13.861	1076.719	812.819
23.892	13.756	1075.585	811.373
24.907	13.717	1074.733	810.469
25.921	13.696	1073.728	809.538
26.936	13.744	1073.191	809.297
27.950	13.719	1072.810	808.813
28.965	13.825	1071.507	808.276
29.980	13.815	1071.126	807.870
30.994	13.927	1069.759	807.313
32.009	13.895	1068.905	806.441
33.023	13.892	1068.313	805.908
34.038	14.054	1067.161	805.754
35.053	13.704	1066.963	803.835
36.067	13.925	1065.695	803.878
37.082	13.918	1064.577	802.932
38.096	13.820	1063.990	801.941
39.111	13.861	1063.525	801.720
40.126	13.884	1062.208	800.766
41.140	13.650	1061.573	799.089
42.155	13.722	1060.331	798.433
43.169	13.612	1060.032	797.604
44.184	13.661	1058.825	796.861
45.199	13.725	1057.177	795.861
46.213	13.676	1056.651	795.160
47.228	13.701	1055.604	794.420
48.242	13.759	1054.018	793.434
49.257	13.801	1053.607	793.255
50.271	13.754	1052.493	792.123
51.286	13.758	1051.652	791.435
52.301	13.827	1050.523	790.844
53.315	13.872	1049.589	790.286
54.330	13.728	1048.840	788.969
55.344	13.936	1047.666	789.006
56.359	13.668	1047.136	787.260
57.374	13.716	1046.004	786.569
58.388	13.710	1045.091	785.786
59.403	13.646	1044.703	785.119
60.417	13.796	1043.484	784.842
61.432	13.542	1043.311	783.443
62.447	13.608	1042.151	782.812
63.461	13.667	1041.125	782.252
64.476	13.677	1040.342	781.640
65.490	13.733	1039.050	780.869
66.505	13.598	1038.777	779.955
67.520	13.634	1037.660	779.219
68.534	13.667	1037.409	779.116
69.549	13.687	1036.243	778.266
70.563	13.714	1035.402	777.693
71.578	13.643	1035.062	777.036
72.593	13.528	1034.144	775.738
73.607	13.592	1033.071	775.166
74.622	13.658	1032.474	774.956
75.636	13.651	1030.973	773.728
76.651	13.587	1030.556	773.049
77.666	13.486	1030.200	772.242
78.680	13.677	1028.617	771.877
79.695	13.685	1028.479	771.739
80.709	13.566	1028.159	770.879
81.724	13.584	1027.239	770.204
82.739	13.616	1026.505	769.735
83.753	13.768	1025.685	769.756
84.768	13.700	1024.736	768.662
85.782	13.776	1024.248	768.580
86.797	13.855	1022.909	767.871
87.812	13.898	1021.546	766.982
88.826	13.780	1021.291	766.176
89.841	13.806	1020.395	765.554
90.855	13.760	1019.434	764.557
91.870	13.726	1018.943	763.964
92.884	13.904	1017.918	763.945
93.899	13.890	1017.440	763.456
94.914	13.720	1016.947	762.234
95.928	13.901	1015.820	762.154
96.943	13.940	1015.154	761.768
97.957	13.862	1014.454	760.815
98.972	13.951	1013.485	760.430
99.987	14.076	1012.568	760.248
101.001	14.022	1011.930	759.451
102.016	13.977	1011.335	758.733
103.030	13.902	1009.981	757.308
104.045	13.870	1009.261	756.555
105.060	13.886	1008.323	755.861
106.074	13.890	1007.291	755.035
107.089	13.799	1006.618	754.052
108.103	13.647	1005.900	752.758
109.118	13.827	1004.757	752.651
110.133	13.777	1004.018	751.806
111.147	13.835	1003.029	751.260
112.162	13.852	1001.971	750.479
113.176	13.852	1001.288	749.898
114.191	13.875	1000.270	749.173
115.206	13.752	999.582	748.037
116.220	13.892	998.660	747.911
117.235	13.914	997.737	747.254
118.249	13.910	996.720	746.409
119.264	13.861	996.224	745.753
120.279	13.824	995.201	744.754
121.293	13.871	994.348	744.259
122.308	13.734	993.691	743.088
123.322	13.875	992.136	742.492
124.337	13.734	991.385	741.234
125.352	13.698	990.771	740.546
126.366	13.644	989.544	739.325
127.381	13.831	988.429	739.260
128.395	13.751	987.323	738.010
129.410	13.783	986.457	737.439
130.424	13.805	985.367	736.657
131.439	13.859	984.599	736.260
132.454	13.774	984.221	735.533
133.468	13.826	983.119	734.875
134.483	13.831	982.571	734.423
135.497	13.749	982.098	733.641
136.512	13.772	981.315	733.094
137.527	13.850	980.115	732.476
138.541	13.826	979.394	731.768
139.556	13.835	978.631	731.172
140.570	13.856	978.250	730.913
141.585	13.938	977.194	730.423
142.600	13.963	976.483	729.935
143.614	14.024	975.912	729.713
144.629	13.968	975.126	728.815
145.643	13.995	974.444	728.357
146.658	13.967	973.237	727.270
147.673	14.048	972.208	726.791
148.687	13.990	971.772	726.146
149.702	13.889	970.782	724.899
150.716	13.893	970.226	724.440
151.731	13.830	969.742	723.740
152.746	13.947	968.166	723.007
153.760	14.026	967.450	722.752
154.775	14.078	966.536	722.233
155.789	14.004	965.918	721.384
156.804	14.003	964.925	720.577
157.819	13.980	964.608	720.176
158.833	13.991	963.895	719.625
159.848	14.164	962.983	719.631
160.862	14.178	962.233	719.066
161.877	14.030	962.077	718.247
162.892	14.153	960.965	717.883
163.906	14.029	959.892	716.485
164.921	14.011	959.061	715.721
165.935	14.059	957.961	715.047
166.950	14.068	956.640	714.037
167.964	14.194	955.773	713.867
168.979	14.148	954.617	712.741
169.994	14.040	954.078	711.814
171.008	14.068	952.871	710.969
172.023	14.140	952.456	710.904
173.037	14.142	951.672	710.265
174.052	14.203	951.081	710.021
175.067	14.239	950.165	709.427
176.081	14.197	949.161	708.440
177.096	14.064	948.772	707.518
178.110	14.215	948.114	707.607
179.125	14.080	947.187	706.279
180.140	14.295	946.189	706.386
181.154	14.281	945.804	705.974
182.169	14.262	945.383	705.519
183.183	14.291	944.397	704.842
184.198	14.319	943.761	704.426
185.213	14.440	942.751	704.121
186.227	14.282	942.547	703.236
187.242	14.320	942.120	703.015
188.256	14.338	941.063	702.242
189.271	14.450	940.205	702.013
190.286	14.522	939.493	701.721
191.300	14.346	938.993	700.543
192.315	14.402	937.946	699.936
193.329	14.379	937.370	699.348
194.344	14.299	936.766	698.503
195.359	14.205	936.237	697.649
196.373	14.281	935.594	697.429
197.388	14.467	935.098	697.776
198.402	14.481	934.467	697.302
199.417	14.401	934.112	696.640
200.432	14.512	933.600	696.661
201.446	14.639	932.798	696.530
202.461	14.546	932.665	695.982
203.475	14.758	931.942	696.263
204.490	14.733	931.178	695.528
205.504	14.614	930.227	694.259
206.519	14.522	929.712	693.434
207.534	14.609	928.965	693.175
208.548	14.612	928.375	692.688
209.563	14.638	927.528	692.099
210.577	14.551	926.879	691.193
211.592	14.630	925.930	690.751
212.607	14.572	926.117	690.589
213.621	14.702	925.159	690.354
214.636	14.867	924.518	690.496
215.650	14.761	923.775	689.442
216.665	14.813	922.780	688.854
217.680	14.797	922.498	688.515
218.694	14.856	921.884	688.237
219.709	14.854	921.575	687.937
220.723	14.802	921.005	687.238
221.738	14.929	920.124	687.043
222.753	14.864	919.524	686.268
223.767	14.910	918.367	685.533
224.782	14.935	917.683	685.063
225.796	14.881	917.010	684.279
226.811	15.091	916.153	684.436
227.826	14.953	915.657	683.443
228.840	15.023	915.133	683.277
229.855	15.003	914.571	682.713
230.869	14.916	913.816	681.737
231.884	14.878	913.338	681.166
232.899	15.123	912.124	681.195
233.913	14.989	911.729	680.294
234.928	14.900	910.946	679.288
235.942	15.101	909.960	679.311
236.957	15.060	909.643	678.846
237.972	15.015	909.043	678.156
238.986	14.966	908.217	677.281
240.001	15.076	907.808	677.363
241.015	14.934	907.071	676.178
242.030	14.991	906.547	675.958
243.045	15.083	905.695	675.633
244.059	15.104	904.980	675.125
245.074	15.108	904.319	674.587
246.088	15.169	903.584	674.225
247.103	15.296	903.077	674.299
248.117	15.151	902.544	673.261
249.132	15.153	902.253	672.991
250.147	15.155	901.701	672.526
251.161	15.270	900.841	672.289
252.176	15.418	899.739	671.998
253.190	15.378	899.188	671.367
254.205	15.319	898.571	670.611
255.220	15.560	897.613	670.799
256.234	15.517	897.185	670.249
257.249	15.534	896.146	669.482
258.263	15.481	896.103	669.177
259.278	15.652	895.048	669.009
260.293	15.526	895.067	668.465
261.307	15.574	894.459	668.143
262.322	15.549	893.768	667.469
263.336	15.801	892.998	667.835
264.351	15.687	892.187	666.717
265.366	15.640	891.753	666.147
266.380	15.612	891.384	665.700
267.395	15.708	890.471	665.340
268.409	15.547	889.976	664.276
269.424	15.774	888.822	664.252
270.439	15.624	888.368	663.262
271.453	15.643	887.671	662.758
272.468	15.737	886.763	662.393
273.482	15.702	886.495	661.995
274.497	15.715	885.669	661.369
275.512	15.709	884.841	660.668
276.526	15.712	884.190	660.136
277.541	15.711	883.686	659.699
278.555	15.742	882.976	659.232
279.570	15.799	882.600	659.117
280.585	15.938	881.968	659.130
281.599	16.008	881.117	658.710
282.614	15.801	880.989	657.745
283.628	15.821	880.154	657.141
284.643	16.037	879.799	657.663
285.657	15.916	879.214	656.694
286.672	15.840	878.732	655.979
287.687	15.969	878.014	655.889
288.701	15.895	877.852	655.421
289.716	15.918	876.855	654.709
290.730	15.989	876.241	654.468
291.745	16.054	875.863	654.382
292.760	16.009	874.821	653.369
293.774	16.148	874.050	653.275
294.789	16.184	873.533	652.970
295.803	16.088	873.046	652.177
296.818	16.090	872.622	651.808
297.833	16.165	871.767	651.403
298.847	16.122	871.007	650.610
299.862	16.160	870.323	650.190
300.876	15.944	870.096	649.130
301.891	16.015	869.693	649.045
302.906	16.125	868.452	648.484
303.920	16.284	867.724	648.495
304.935	16.254	867.183	647.918
305.949	16.215	866.485	647.191
306.964	16.191	866.064	646.724
307.979	16.257	865.416	646.435
308.993	16.263	865.031	646.117
310.008	16.445	864.076	646.039
311.022	16.345	863.525	645.191
312.037	16.388	863.123	644.996
313.052	16.358	862.432	644.308
314.066	16.329	862.079	643.876
315.081	16.396	861.197	643.418
316.095	16.415	860.429	642.859
317.110	16.293	860.280	642.225
318.125	16.423	859.375	641.987
319.139	16.260	859.287	641.246
320.154	16.423	858.566	641.269
321.168	16.346	858.087	640.564
322.183	16.549	857.096	640.535
323.197	16.571	857.044	640.522
324.212	16.556	855.946	639.590
325.227	16.590	855.669	639.454
326.241	16.483	855.172	638.622
327.256	16.572	854.672	638.528
328.270	16.597	854.371	638.339
329.285	16.434	853.728	637.188
330.300	16.519	853.257	637.102
331.314	16.444	852.417	636.137
332.329	16.582	851.964	636.261
333.343	16.527	851.435	635.603
334.358	16.601	850.481	635.114
335.373	16.517	850.087	634.447
336.387	16.662	849.777	634.704
337.402	16.711	849.049	634.287
338.416	16.670	848.363	633.563
339.431	16.799	847.628	633.440
340.446	16.714	847.384	632.887
341.460	16.707	846.809	632.374
342.475	16.809	846.197	632.243
343.489	16.847	845.393	631.728
344.504	16.819	845.222	631.439
345.519	16.844	844.335	630.812
346.533	16.987	843.470	630.642
347.548	16.814	843.723	630.131
348.562	16.753	842.801	629.160
349.577	16.932	842.187	629.313
350.592	16.758	841.947	628.430
351.606	16.871	841.047	628.123
352.621	16.854	840.729	627.768
353.635	16.913	840.233	627.559
354.650	16.847	840.143	627.191
355.665	16.726	839.772	626.411
356.679	16.863	839.000	626.286
357.694	16.966	838.393	626.159
358.708	17.027	837.898	625.960
359.723	17.079	837.424	625.741
360.738	17.042	836.678	624.990
361.752	17.101	836.038	624.675
362.767	16.965	835.889	624.010
363.781	17.116	835.551	624.256
364.796	17.198	834.788	623.933
365.810	17.114	834.501	623.353
366.825	17.231	833.943	623.311
367.840	17.316	833.673	623.367
368.854	17.178	833.392	622.595
369.869	17.236	832.874	622.364
370.883	17.263	832.064	621.803
371.898	17.158	831.643	621.049
372.913	17.298	830.953	620.992
373.927	17.132	830.620	620.080
374.942	17.362	829.858	620.297
375.956	17.274	829.239	619.459
376.971	17.408	828.596	619.412
377.986	17.460	827.811	618.960
379.000	17.423	827.835	618.786
380.015	17.438	827.292	618.381
381.029	17.376	826.771	617.713
382.044	17.463	825.993	617.392
383.059	17.549	825.569	617.333
384.073	17.554	824.684	616.633
385.088	17.618	824.205	616.452
386.102	17.361	823.911	615.248
387.117	17.546	823.371	615.459
388.132	17.489	822.774	614.755
389.146	17.512	822.267	614.402
390.161	17.423	821.923	613.772
391.175	17.455	821.700	613.666
392.190	17.600	821.547	614.019
393.205	17.587	820.707	613.292
394.219	17.630	820.192	613.007
395.234	17.758	819.464	612.867
396.248	17.555	819.382	612.021
397.263	17.544	818.793	611.488
398.278	17.505	818.557	611.118
399.292	17.743	817.405	611.057
400.307	17.701	817.385	610.838
401.321	17.600	816.893	610.054
402.336	17.519	816.652	609.531
403.350	17.669	816.298	609.747
404.365	17.587	815.675	608.936
405.380	17.594	815.633	608.878
406.394	17.720	814.612	608.511
407.409	17.936	814.165	608.892
408.423	17.816	814.139	608.390
409.438	17.753	813.462	607.606
410.453	17.889	812.816	607.555
411.467	17.888	812.631	607.359
412.482	17.901	811.855	606.772
413.496	18.012	811.382	606.760
414.511	18.037	811.240	606.689
415.526	17.870	811.013	605.871
416.540	18.117	810.122	606.028
417.555	17.947	810.019	605.295
418.569	18.002	809.480	605.032
419.584	17.958	809.039	604.494
420.599	18.154	808.215	604.517
421.613	115.972	1300.641	1492.696
422.628	100.293	1372.336	1492.743
