DTS Sentinel unit serial number:	SN413079Multiplexer serial number:	ORYXHardware model number:	OX4-SRSoftware version number:	ORYX F/W v4.00 Oryx Data Collector v3.7.2.0data status	okinstallation	princeton_trtdifferential loss correction	single-endedforward channel	channel 3reverse channel	N/Adate	2019/09/19time	06:20:34forward acquisition time	60.00reverse acquisition time	0.00gamma	496.2192k internal	0.2348k external	0.2348temperature offset calibration	0.9990default loss term (dB/km)	0.3790temperature slope calibration	1.0000multiplexer offset coefficient	1.0000multiplexer slope coefficient	1.0000fibre end	0.00T internal ref (°C)	19.06T ext. ref 1 (°C)	0.57T ext. ref 2 (°C)	12.73length (m)	temperature (°C)	Stokes	anti-Stokes-747.200	800.000	-0.024	-0.099
-746.185	741.153	-0.057	0.152
-745.171	800.000	-0.040	0.156
-744.156	231.206	0.159	0.260
-743.142	498.923	0.092	-0.213
-742.127	-150.675	0.226	-0.017
-741.112	106.560	-0.060	-0.071
-740.098	-68.043	-0.239	-0.093
-739.083	-68.176	0.144	0.056
-738.069	2.481	-0.317	0.229
-737.054	-200.000	0.022	-0.103
-736.039	-98.186	-0.111	-0.028
-735.025	-26.121	0.379	0.222
-734.010	-68.095	-0.381	-0.148
-732.996	-89.176	-0.068	-0.020
-731.981	170.523	-0.200	0.286
-730.966	11.057	-0.106	-0.081
-729.952	-125.741	-0.516	0.078
-728.937	-123.772	-0.239	0.038
-727.923	83.541	0.197	0.214
-726.908	-200.000	-0.038	-0.226
-725.894	800.000	0.054	-0.184
-724.879	800.000	0.047	0.159
-723.864	-29.018	-0.196	-0.112
-722.850	45.628	-0.012	0.011
-721.835	191.526	0.178	0.268
-720.821	800.000	0.025	0.086
-719.806	759.991	0.094	-0.255
-718.791	-46.743	-0.113	0.055
-717.777	-116.089	-0.356	0.066
-716.762	-78.231	-0.395	-0.136
-715.748	800.000	0.015	-0.058
-714.733	800.000	0.066	0.187
-713.718	66.909	-0.193	-0.196
-712.704	-87.188	-0.221	-0.067
-711.689	-200.000	-0.015	-0.130
-710.675	800.000	0.078	-0.270
-709.660	226.229	0.063	0.101
-708.645	246.408	-0.069	0.116
-707.631	-67.272	-0.235	0.092
-706.616	800.000	0.012	0.046
-705.602	-142.140	-0.313	-0.031
-704.587	800.000	-0.061	0.240
-703.572	-82.912	0.428	-0.138
-702.558	800.000	0.052	0.161
-701.543	-37.288	0.376	-0.201
-700.529	71.661	0.244	-0.252
-699.514	800.000	0.023	0.064
-698.499	382.140	-0.087	0.179
-697.485	-200.000	0.020	-0.340
-696.470	-22.017	0.325	-0.197
-695.456	-95.692	-0.292	0.078
-694.441	119.046	-0.173	0.213
-693.426	-9.661	0.044	0.029
-692.412	-200.000	-0.015	-0.070
-691.397	-178.333	-0.292	-0.007
-690.383	-49.065	-0.153	0.073
-689.368	16.409	-0.135	-0.106
-688.354	-127.020	-0.228	0.033
-687.339	-8.721	-0.320	0.214
-686.324	-123.628	0.011	-0.002
-685.310	-23.003	-0.180	0.108
-684.295	800.000	0.043	0.151
-683.281	-112.931	-0.264	-0.052
-682.266	288.281	0.027	-0.049
-681.251	-11.418	-0.263	-0.172
-680.237	609.157	-0.023	0.058
-679.222	-118.944	-0.366	-0.064
-678.208	-71.213	0.329	0.123
-677.193	800.000	-0.048	0.161
-676.178	-200.000	0.033	0.313
-675.164	-200.000	0.012	-0.076
-674.149	800.000	-0.067	-0.276
-673.135	75.174	-0.077	-0.081
-672.120	425.068	-0.075	-0.160
-671.105	148.682	0.034	0.046
-670.091	35.743	-0.054	0.047
-669.076	-200.000	-0.011	-0.199
-668.062	-114.127	0.052	0.010
-667.047	-107.341	-0.301	0.066
-666.032	-98.362	0.106	0.027
-665.018	1.239	-0.247	-0.177
-664.003	-60.394	-0.090	-0.038
-662.989	800.000	-0.042	-0.145
-661.974	-125.865	-0.240	0.036
-660.959	-62.504	-0.277	0.115
-659.945	800.000	0.069	0.228
-658.930	-200.000	0.004	-0.211
-657.916	-200.000	-0.027	-0.197
-656.901	-156.812	-0.225	-0.014
-655.886	-123.729	-0.255	-0.040
-654.872	-9.552	-0.217	-0.144
-653.857	-200.000	-0.014	0.324
-652.843	-9.859	-0.116	-0.077
-651.828	168.823	0.019	0.027
-650.814	671.046	0.081	0.209
-649.799	-125.716	0.339	0.051
-648.784	800.000	0.052	-0.183
-647.770	-68.922	0.207	0.079
-646.755	86.389	-0.205	-0.225
-645.741	-36.668	-0.290	-0.155
-644.726	-200.000	-0.046	-0.435
-643.711	-53.378	0.078	-0.036
-642.697	86.021	0.098	-0.107
-641.682	800.000	-0.024	-0.091
-640.668	-87.136	-0.084	-0.025
-639.653	-200.000	0.022	0.156
-638.638	351.869	0.082	-0.161
-637.624	-101.086	-0.457	0.111
-636.609	800.000	0.039	0.167
-635.595	-124.804	-0.225	0.035
-634.580	-15.746	0.081	-0.051
-633.565	-6.767	-0.233	-0.157
-632.551	186.584	0.102	-0.152
-631.536	221.751	-0.146	0.234
-630.522	-8.842	0.129	0.086
-629.507	-63.710	0.189	-0.077
-628.492	-36.174	0.084	-0.045
-627.478	-171.097	-0.286	0.010
-626.463	-47.250	-0.175	0.085
-625.449	-135.809	0.032	0.004
-624.434	85.296	-0.085	0.092
-623.419	-86.906	0.276	0.084
-622.405	37.493	-0.336	0.296
-621.390	-121.497	0.273	0.045
-620.376	59.115	0.234	-0.229
-619.361	800.000	-0.079	-0.255
-618.346	800.000	-0.078	0.274
-617.332	75.099	-0.163	-0.171
-616.317	800.000	0.025	0.080
-615.303	-40.380	-0.099	-0.051
-614.288	-39.015	-0.296	0.155
-613.273	367.778	0.058	-0.117
-612.259	800.000	-0.049	-0.198
-611.244	14.482	-0.189	-0.147
-610.230	-200.000	0.010	0.045
-609.215	189.677	-0.043	0.064
-608.201	-67.959	0.261	-0.101
-607.186	800.000	-0.074	-0.320
-606.171	464.051	0.107	-0.237
-605.157	14.682	0.069	-0.054
-604.142	-176.816	-0.183	0.005
-603.128	482.586	0.062	0.139
-602.113	-112.253	0.502	0.100
-601.098	-66.328	0.254	0.100
-600.084	-75.516	-0.047	-0.016
-599.069	-97.660	0.094	0.024
-598.055	800.000	0.057	0.201
-597.040	800.000	-0.056	0.237
-596.025	110.768	-0.198	-0.236
-595.011	-93.079	-0.102	-0.028
-593.996	79.049	0.053	-0.057
-592.982	242.896	-0.104	0.172
-591.967	238.635	-0.223	0.368
-590.952	800.000	-0.072	-0.247
-589.938	110.065	0.095	0.113
-588.923	497.838	-0.047	0.107
-587.909	-96.024	-0.213	0.056
-586.894	-29.093	-0.209	-0.119
-585.879	-200.000	0.008	0.171
-584.865	-54.122	-0.248	-0.112
-583.850	-200.000	-0.020	0.215
-582.836	650.411	0.055	0.141
-581.821	-200.000	-0.005	0.025
-580.806	-146.572	-0.216	-0.019
-579.792	800.000	0.037	0.129
-578.777	37.757	-0.289	0.254
-577.763	-19.993	-0.126	-0.077
-576.748	619.780	-0.097	-0.243
-575.733	78.160	-0.247	0.261
-574.719	-200.000	-0.030	-0.192
-573.704	785.223	0.034	-0.093
-572.690	36.455	0.515	-0.451
-571.675	800.000	0.056	-0.176
-570.661	58.706	0.119	0.116
-569.646	337.712	0.145	-0.281
-568.631	800.000	-0.041	-0.116
-567.617	-74.322	-0.521	-0.187
-566.602	334.840	-0.109	-0.209
-565.588	-0.477	-0.081	-0.057
-564.573	-200.000	0.031	0.182
-563.558	-30.366	0.212	-0.119
-562.544	24.853	0.260	0.213
-561.529	-73.918	-0.187	0.067
-560.515	236.108	0.118	-0.194
-559.500	-102.674	0.212	0.050
-558.485	25.276	0.270	-0.222
-557.471	50.410	0.152	-0.143
-556.456	-200.000	0.016	-0.241
-555.442	-200.000	-0.019	0.157
-554.427	-200.000	-0.004	0.109
-553.412	-128.315	0.350	-0.049
-552.398	-200.000	-0.052	0.299
-551.383	-85.377	0.139	0.043
-550.369	562.845	0.147	0.354
-549.354	-59.263	0.284	-0.121
-548.339	-102.510	-0.352	0.083
-547.325	221.399	0.114	-0.182
-546.310	-200.000	-0.030	-0.208
-545.296	-49.263	0.226	-0.107
-544.281	-200.000	0.009	-0.203
-543.266	-200.000	0.034	0.391
-542.252	56.277	-0.182	0.175
-541.237	800.000	-0.071	0.218
-540.223	-171.389	-0.184	0.006
-539.208	30.174	-0.156	-0.132
-538.193	-112.847	-0.137	0.027
-537.179	333.196	-0.096	-0.184
-536.164	503.620	0.056	-0.129
-535.150	-104.497	-0.188	0.043
-534.135	503.139	0.040	-0.091
-533.121	45.110	0.085	-0.078
-532.106	165.454	-0.101	0.141
-531.091	87.134	-0.070	-0.077
-530.077	419.414	0.048	0.103
-529.062	-125.976	-0.204	0.030
-528.048	373.293	-0.030	0.060
-527.033	-36.664	0.272	-0.145
-526.018	-126.261	-0.114	-0.017
-525.004	-116.199	-0.193	-0.035
-523.989	385.009	0.111	0.226
-522.975	-78.180	0.277	0.094
-521.960	420.648	-0.045	-0.095
-520.945	64.959	-0.110	-0.110
-519.931	-200.000	-0.010	-0.050
-518.916	161.580	-0.065	-0.091
-517.902	-83.211	-0.153	-0.049
-516.887	-164.252	0.316	0.014
-515.872	-46.192	-0.226	-0.110
-514.858	-200.000	0.012	0.148
-513.843	113.684	-0.108	-0.130
-512.829	66.328	0.288	0.289
-511.814	61.361	0.133	0.131
-510.799	-102.537	-0.364	-0.086
-509.785	-200.000	-0.001	-0.335
-508.770	800.000	0.052	-0.173
-507.756	70.247	-0.149	0.152
-506.741	-24.899	0.099	-0.058
-505.726	-110.403	-0.123	-0.025
-504.712	-59.077	0.093	0.040
-503.697	510.875	-0.106	0.245
-502.683	123.618	0.301	0.374
-501.668	36.630	0.201	0.176
-500.653	21.518	0.181	-0.146
-499.639	-122.622	0.068	0.011
-498.624	314.539	-0.195	0.364
-497.610	-143.031	0.237	-0.023
-496.595	50.830	-0.134	0.126
-495.581	282.107	-0.075	-0.133
-494.566	-83.879	-0.242	0.076
-493.551	-154.760	-0.176	-0.012
-492.537	646.634	0.048	-0.121
-491.522	285.308	-0.133	0.237
-490.508	800.000	0.152	-0.458
-489.493	34.364	0.195	0.169
-488.478	-128.479	-0.208	0.029
-487.464	-39.130	-0.139	-0.072
-486.449	-112.231	0.250	-0.050
-485.435	800.000	-0.194	-0.674
-484.420	-87.604	-0.218	0.065
-483.405	-67.826	0.245	-0.095
-482.391	-8.034	0.248	-0.165
-481.376	-200.000	0.055	0.364
-480.362	-200.000	0.108	-0.000
-479.347	-200.000	-0.012	0.085
-478.332	64.126	-0.280	0.278
-477.318	57.536	-0.076	0.074
-476.303	-128.488	-0.078	0.011
-475.289	21.958	-0.015	0.012
-474.274	-42.161	-0.178	-0.090
-473.259	23.232	-0.026	-0.021
-472.245	-37.098	-0.262	0.139
-471.230	-177.598	0.185	0.004
-470.216	495.577	-0.042	-0.095
-469.201	-160.993	0.303	-0.016
-468.186	170.447	-0.107	-0.151
-467.172	4.857	0.334	-0.243
-466.157	-120.813	-0.332	-0.055
-465.143	120.866	0.148	-0.182
-464.128	306.962	0.118	0.218
-463.113	800.000	-0.038	0.140
-462.099	-39.185	-0.140	0.073
-461.084	-28.010	0.356	-0.203
-460.070	23.343	-0.200	0.163
-459.055	165.004	0.161	0.225
-458.040	800.000	-0.084	0.236
-457.026	50.714	-0.134	0.125
-456.011	-103.457	-0.473	-0.110
-454.997	-31.813	0.213	0.118
-453.982	221.181	-0.036	0.058
-452.968	800.000	0.047	0.159
-451.953	195.531	-0.087	0.130
-450.938	-127.520	0.174	-0.025
-449.924	329.041	-0.056	0.107
-448.909	235.134	-0.078	0.127
-447.895	-90.371	0.195	0.056
-446.880	-200.000	-0.018	-0.298
-445.865	83.720	-0.033	-0.035
-444.851	6.241	-0.182	-0.133
-443.836	-99.975	0.250	-0.062
-442.822	-7.666	-0.276	-0.184
-441.807	-49.574	0.171	-0.081
-440.792	30.253	0.222	0.187
-439.778	-200.000	-0.013	0.151
-438.763	245.718	0.047	-0.078
-437.749	-157.857	-0.261	0.015
-436.734	-6.272	-0.173	-0.117
-435.719	-170.976	0.071	0.002
-434.705	-108.058	-0.137	0.029
-433.690	-200.000	-0.051	-0.263
-432.676	53.031	0.196	-0.186
-431.661	-70.747	-0.293	-0.109
-430.646	-64.639	-0.150	0.060
-429.632	307.223	0.132	-0.242
-428.617	358.138	0.079	-0.155
-427.603	-178.219	-0.077	0.002
-426.588	800.000	-0.059	-0.188
-425.573	-200.000	-0.016	0.077
-424.559	-200.000	-0.025	0.254
-423.544	222.628	-0.125	0.198
-422.530	-25.239	-0.190	0.111
-421.515	-109.078	-0.441	-0.093
-420.500	334.723	0.046	0.088
-419.486	-29.934	-0.029	-0.016
-418.471	-6.359	0.132	0.089
-417.457	800.000	0.096	-0.285
-416.442	400.530	-0.090	0.187
-415.428	-41.551	-0.261	-0.132
-414.413	-72.809	-0.339	-0.123
-413.398	-200.000	-0.017	0.181
-412.384	-8.889	-0.356	-0.235
-411.369	-200.000	0.062	0.343
-410.355	800.000	-0.061	0.179
-409.340	1.992	0.375	0.267
-408.325	250.897	-0.092	0.155
-407.311	200.726	-0.145	0.220
-406.296	800.000	0.097	0.380
-405.282	231.193	0.176	-0.284
-404.267	20.439	-0.290	-0.231
-403.252	-200.000	0.332	-0.001
-402.238	-142.656	0.186	0.018
-401.223	-46.901	0.187	0.090
-400.209	-98.512	-0.134	-0.034
-399.194	-107.052	0.177	-0.039
-398.179	179.843	-0.275	0.397
-397.165	-144.014	0.093	-0.009
-396.150	204.083	0.127	-0.195
-395.136	-96.592	-0.095	0.025
-394.121	602.438	0.132	-0.322
-393.106	51.111	0.052	0.049
-392.092	800.000	-0.077	-0.317
-391.077	-69.812	0.396	-0.149
-390.063	209.143	0.074	-0.114
-389.048	151.311	0.191	0.257
-388.033	59.707	0.161	0.157
-387.019	-200.000	0.044	0.222
-386.004	37.733	-0.062	-0.055
-384.990	658.286	-0.090	0.227
-383.975	-200.000	0.003	-0.184
-382.960	-64.856	-0.319	-0.127
-381.946	-159.150	-0.147	0.008
-380.931	-200.000	0.017	0.079
-379.917	800.000	-0.079	-0.296
-378.902	324.742	0.154	-0.291
-377.888	-188.879	0.135	-0.002
-376.873	136.736	0.124	0.159
-375.858	200.864	-0.094	0.142
-374.844	-200.000	-0.020	0.209
-373.829	146.732	-0.116	-0.153
-372.815	-200.000	-0.009	0.103
-371.800	-20.583	0.137	0.083
-370.785	-148.558	-0.391	0.031
-369.771	-152.035	0.060	-0.004
-368.756	-112.494	-0.214	-0.042
-367.742	-106.300	-0.511	-0.113
-366.727	-200.000	0.007	-0.124
-365.712	-200.000	-0.041	-0.261
-364.698	668.887	-0.071	0.180
-363.683	-115.642	-0.222	0.041
-362.669	118.675	0.248	-0.301
-361.654	245.760	-0.132	-0.219
-360.639	81.272	0.115	-0.122
-359.625	-5.846	-0.223	-0.151
-358.610	196.472	-0.117	-0.176
-357.596	537.378	-0.141	-0.328
-356.581	-200.000	0.041	0.261
-355.566	50.285	0.197	0.183
-354.552	-63.490	0.315	-0.128
-353.537	-31.531	0.082	0.046
-352.523	-66.755	-0.140	-0.055
-351.508	331.090	-0.133	-0.252
-350.493	167.872	-0.075	0.106
-349.479	-101.397	0.310	-0.074
-348.464	800.000	0.159	0.489
-347.450	275.570	-0.040	0.070
-346.435	800.000	0.019	0.072
-345.420	-80.286	-0.336	0.110
-344.406	422.281	0.089	0.188
-343.391	800.000	0.054	-0.213
-342.377	16.527	-0.127	0.099
-341.362	-142.462	0.238	-0.023
-340.348	-63.293	-0.460	-0.186
-339.333	338.194	0.190	-0.363
-338.318	800.000	0.012	-0.044
-337.304	77.696	0.043	0.045
-336.289	-200.000	-0.049	-0.225
-335.275	-147.715	-0.191	0.016
-334.260	-200.000	-0.060	-0.315
-333.245	-200.000	-0.044	-0.270
-332.231	-200.000	-0.042	0.282
-331.216	800.000	-0.102	0.439
-330.202	-83.037	0.658	0.208
-329.187	-200.000	-0.002	-0.213
-328.172	-116.585	-0.104	0.019
-327.158	95.661	-0.240	-0.269
-326.143	-30.623	-0.413	-0.230
-325.129	76.246	0.064	-0.067
-324.114	-200.000	-0.015	-0.258
-323.099	193.200	0.109	0.162
-322.085	-200.000	-0.026	-0.129
-321.070	85.973	0.101	-0.110
-320.056	54.969	-0.029	-0.027
-319.041	-200.000	0.032	-0.282
-318.026	-200.000	-0.041	0.349
-317.012	62.804	-0.091	0.089
-315.997	800.000	-0.098	-0.391
-314.983	-72.519	0.192	0.070
-313.968	183.029	-0.228	-0.331
-312.953	-200.000	0.067	0.293
-311.939	-25.592	-0.171	-0.099
-310.924	53.220	0.089	0.083
-309.910	136.838	0.106	0.136
-308.895	-120.213	0.499	0.084
-307.880	-200.000	-0.046	0.202
-306.866	-200.000	0.004	0.191
-305.851	-43.943	-0.226	-0.112
-304.837	293.931	0.230	0.412
-303.822	-122.035	0.220	0.035
-302.807	-22.349	0.218	-0.129
-301.793	-29.110	0.046	0.026
-300.778	800.000	0.069	-0.226
-299.764	-200.000	0.015	0.360
-298.749	78.620	-0.184	-0.193
-297.735	-200.000	0.000	-0.207
-296.720	325.929	-0.173	-0.324
-295.705	-65.738	0.341	0.134
-294.691	57.181	-0.100	0.095
-293.676	-40.792	-0.162	-0.082
-292.662	75.613	0.092	0.095
-291.647	272.817	0.127	0.219
-290.632	-36.552	0.192	-0.101
-289.618	319.133	0.080	0.148
-288.603	-100.897	0.097	0.023
-287.589	-21.726	0.353	-0.211
-286.574	-137.769	-0.252	-0.028
-285.559	-200.000	0.001	-0.120
-284.545	-200.000	-0.002	0.023
-283.530	382.951	-0.101	0.204
-282.516	245.649	-0.242	0.399
-281.501	-82.881	0.403	-0.128
-280.486	-54.623	0.165	0.073
-279.472	-200.000	0.036	-0.375
-278.457	-200.000	-0.055	0.487
-277.443	43.988	-0.025	-0.022
-276.428	-200.000	0.054	0.409
-275.413	677.029	-0.044	-0.112
-274.399	-16.917	0.186	0.115
-273.384	-200.000	-0.010	-0.126
-272.370	800.000	0.017	-0.066
-271.355	209.443	0.125	0.192
-270.340	-198.920	-0.108	-0.001
-269.326	-100.800	-0.065	-0.016
-268.311	203.299	-0.075	0.113
-267.297	-112.360	0.334	-0.066
-266.282	107.937	0.053	0.061
-265.267	-192.287	-0.287	-0.003
-264.253	59.780	0.199	0.193
-263.238	593.676	0.124	0.300
-262.224	-75.374	-0.099	-0.035
-261.209	-33.554	-0.224	-0.121
-260.195	-1.840	-0.080	0.055
-259.180	47.827	-0.156	0.142
-258.165	800.000	-0.042	-0.138
-257.151	-72.762	0.136	-0.049
-256.136	-19.969	0.043	0.026
-255.122	-65.594	0.253	-0.100
-254.107	-200.000	-0.040	-0.309
-253.092	-39.969	0.111	-0.057
-252.078	-62.965	-0.207	0.084
-251.063	538.557	-0.064	-0.150
-250.049	645.254	-0.014	0.036
-249.034	-91.552	-0.449	-0.125
-248.019	-83.725	0.232	0.073
-247.005	21.275	0.162	0.129
-245.990	441.776	-0.024	-0.052
-244.976	800.000	0.085	-0.264
-243.961	-200.000	-0.004	-0.316
-242.946	328.875	0.154	0.290
-241.932	-18.399	0.127	0.078
-240.917	-60.998	0.043	0.018
-239.903	79.465	-0.229	-0.241
-238.888	-62.508	-0.154	-0.063
-237.873	-127.378	0.369	-0.053
-236.859	-24.246	-0.088	-0.051
-235.844	-175.153	-0.088	0.002
-234.830	-15.775	-0.155	-0.097
-233.815	361.819	0.028	-0.056
-232.800	107.972	0.194	-0.226
-231.786	-200.000	0.016	-0.299
-230.771	-161.899	0.308	0.015
-229.757	201.420	0.161	0.242
-228.742	-200.000	0.023	0.189
-227.727	-200.000	0.012	-0.122
-226.713	-34.184	0.332	0.179
-225.698	-200.000	0.059	-0.626
-224.684	-118.378	-0.417	-0.073
-223.669	-99.761	0.162	0.040
-222.655	422.133	-0.119	-0.251
-221.640	504.402	0.026	-0.060
-220.625	-79.672	0.412	-0.136
-219.611	-127.916	-0.292	-0.041
-218.596	-59.203	-0.333	0.140
-217.582	45.194	0.284	-0.256
-216.567	-50.503	0.131	0.061
-215.552	-27.543	0.229	0.130
-214.538	-200.000	0.031	0.448
-213.523	295.474	0.052	-0.093
-212.509	450.862	-0.020	-0.044
-211.494	-142.495	-0.151	0.015
-210.479	797.741	-0.112	-0.301
-209.465	-200.000	0.007	0.355
-208.450	260.773	0.190	-0.322
-207.436	-200.000	-0.017	0.445
-206.421	-141.171	0.049	0.005
-205.406	-153.978	0.158	-0.011
-204.392	-23.265	-0.124	-0.073
-203.377	55.746	0.146	0.139
-202.363	-1.003	0.080	0.055
-201.348	32.014	0.187	0.158
-200.333	800.000	0.073	0.286
-199.319	60.250	-0.171	-0.165
-198.304	800.000	0.046	0.143
-197.290	69.257	-0.089	0.090
-196.275	-13.686	-0.146	0.092
-195.260	22.465	-0.205	0.164
-194.246	-200.000	-0.048	-0.241
-193.231	3.450	0.184	-0.131
-192.217	73.692	-0.188	-0.193
-191.202	237.384	-0.253	0.410
-190.187	-38.196	-0.171	0.089
-189.173	-8.682	0.128	0.084
-188.158	5.361	-0.182	-0.131
-187.144	377.588	0.186	0.373
-186.129	-162.734	0.264	0.013
-185.114	-134.587	-0.270	0.032
-184.100	-79.017	-0.188	0.063
-183.085	-135.251	0.135	-0.016
-182.071	134.861	0.081	-0.103
-181.056	635.826	0.163	0.404
-180.042	175.538	-0.083	0.117
-179.027	-200.000	0.003	-0.157
-178.012	125.129	-0.156	0.192
-176.998	41.236	0.240	0.212
-175.983	228.916	-0.007	-0.012
-174.969	-130.666	0.344	0.045
-173.954	-10.229	-0.078	-0.051
-172.939	-200.000	0.065	0.304
-171.925	13.844	-0.195	0.148
-170.910	-165.259	-0.127	-0.005
-169.896	-31.719	0.235	0.129
-168.881	-139.662	0.358	0.037
-167.866	800.000	-0.102	-0.393
-166.852	-67.753	-0.149	0.057
-165.837	-111.770	0.088	0.017
-164.823	-82.513	-0.365	0.116
-163.808	360.882	-0.020	-0.039
-162.793	-95.464	0.130	-0.034
-161.779	60.724	0.213	-0.206
-160.764	800.000	-0.073	-0.269
-159.750	173.582	-0.093	0.131
-158.735	800.000	-0.010	0.036
-157.720	-106.308	0.299	-0.065
-156.706	-81.130	0.202	0.065
-155.691	-23.768	0.190	0.111
-154.677	299.098	0.241	0.433
-153.662	136.766	0.149	0.191
-152.647	-200.000	0.029	0.148
-151.633	800.000	-0.015	0.053
-150.618	309.668	-0.071	-0.129
-149.604	334.101	-0.228	0.431
-148.589	392.992	-0.219	-0.445
-147.574	83.083	0.156	0.165
-146.560	-200.000	0.019	0.087
-145.545	51.697	0.233	-0.217
-144.531	111.270	0.047	-0.055
-143.516	-83.336	0.088	0.027
-142.502	-157.187	0.368	-0.022
-141.487	-200.000	-0.001	0.188
-140.472	375.101	-0.041	-0.082
-139.458	502.287	-0.118	-0.266
-138.443	-157.764	-0.095	0.005
-137.429	-22.234	0.123	0.073
-136.414	76.077	0.431	0.445
-135.399	-200.000	-0.035	-0.186
-134.385	-135.491	-0.163	-0.019
-133.370	-101.203	0.080	0.019
-132.356	-200.000	-0.080	0.000
-131.341	-200.000	0.019	-0.198
-130.326	-71.501	0.250	-0.091
-129.312	49.122	0.213	-0.195
-128.297	708.048	-0.019	-0.050
-127.283	175.716	0.010	0.014
-126.268	-106.339	-0.036	-0.008
-125.253	-29.175	0.234	0.131
-124.239	-41.186	-0.257	0.129
-123.224	300.254	-0.048	0.086
-122.210	-200.000	0.018	-0.103
-121.195	-76.727	-0.090	-0.031
-120.180	-69.958	-0.343	-0.128
-119.166	-200.000	-0.019	0.258
-118.151	-61.755	-0.540	0.220
-117.137	40.834	-0.300	0.264
-116.122	-200.000	0.066	0.291
-115.107	402.547	-0.034	0.069
-114.093	-131.035	0.089	0.012
-113.078	-67.561	0.179	0.069
-112.064	198.927	-0.056	0.084
-111.049	-171.033	-0.371	-0.012
-110.034	-105.097	0.343	-0.076
-109.020	-78.943	-0.212	-0.070
-108.005	-7.954	0.124	0.082
-106.991	-111.684	0.197	-0.039
-105.976	-200.000	0.057	-0.255
-104.962	107.411	-0.177	-0.206
-103.947	307.844	0.092	-0.166
-102.932	284.497	-0.073	-0.127
-101.918	359.646	-0.064	-0.125
-100.903	6.987	0.146	0.106
-99.889	-28.522	-0.216	0.121
-98.874	366.554	-0.105	0.206
-97.859	-92.713	0.102	0.028
-96.845	-200.000	0.006	0.127
-95.830	305.131	-0.116	-0.210
-94.816	721.743	-0.039	-0.101
-93.801	-200.000	0.071	0.318
-92.786	28.890	-0.031	-0.025
-91.772	-200.000	0.033	-0.142
-90.757	33.415	-0.206	0.174
-89.743	29.951	0.204	0.169
-88.728	228.086	0.154	0.244
-87.713	-200.000	0.009	0.156
-86.699	287.102	0.011	0.019
-85.684	-127.902	0.181	-0.025
-84.670	-200.000	-0.019	-0.275
-83.655	382.315	-0.190	0.380
-82.640	137.158	-0.151	0.192
-81.626	67.260	0.192	0.191
-80.611	640.255	0.008	-0.020
-79.597	-15.108	0.164	0.102
-78.582	800.000	0.096	-0.269
-77.567	-200.000	0.007	-0.186
-76.553	-200.000	-0.075	-0.351
-75.538	117.061	-0.270	-0.322
-74.524	-133.523	-0.577	-0.070
-73.509	-95.291	-0.281	-0.074
-72.494	800.000	0.037	-0.101
-71.480	-144.097	0.073	0.007
-70.465	800.000	0.053	-0.222
-69.451	-137.199	0.092	0.010
-68.436	136.533	0.124	0.158
-67.422	39.621	0.140	0.122
-66.407	-200.000	0.009	-0.071
-65.392	103.962	0.209	0.238
-64.378	-95.628	0.178	0.046
-63.363	6.539	-0.308	0.222
-62.349	-46.434	-0.317	0.151
-61.334	73.730	-1.268	-1.292
-60.319	-25.084	0.920	0.531
-59.305	800.000	-0.605	-1.709
-58.290	201.814	0.911	1.366
-57.276	354.672	0.736	1.422
-56.261	-200.000	135.671	626.630
-55.246	346.261	1630.557	3118.164
-54.232	138.941	2767.363	3536.517
-53.217	80.882	2175.581	2281.953
-52.203	28.719	1696.444	1396.583
-51.188	21.945	1522.219	1206.702
-50.173	20.510	1501.428	1180.435
-49.159	43.765	1578.269	1404.594
-48.144	39.621	1588.279	1384.426
-47.130	21.855	1538.062	1218.443
-46.115	19.269	1522.008	1187.875
-45.100	19.071	1519.039	1184.146
-44.086	19.080	1516.617	1182.273
-43.071	19.026	1514.480	1180.189
-42.057	19.068	1512.957	1179.243
-41.042	19.115	1511.654	1178.503
-40.027	19.016	1510.297	1176.722
-39.013	19.024	1508.546	1175.369
-37.998	18.919	1507.788	1174.013
-36.984	19.068	1506.073	1173.649
-35.969	19.073	1504.643	1172.520
-34.954	18.970	1503.688	1171.027
-33.940	19.022	1502.043	1170.053
-32.925	19.008	1500.733	1168.894
-31.911	19.093	1499.525	1168.484
-30.896	19.012	1498.316	1166.942
-29.881	19.117	1497.066	1166.636
-28.867	19.153	1495.630	1165.712
-27.852	19.126	1494.387	1164.515
-26.838	19.125	1492.567	1163.046
-25.823	19.128	1491.508	1162.193
-24.809	19.194	1489.361	1160.917
-23.794	19.135	1488.480	1159.790
-22.779	19.129	1487.870	1159.228
-21.765	19.106	1486.419	1157.898
-20.750	19.145	1485.153	1157.128
-19.736	19.058	1484.000	1155.595
-18.721	19.083	1482.982	1154.927
-17.706	19.112	1481.931	1154.259
-16.692	19.098	1481.056	1153.434
-15.677	19.060	1480.141	1152.424
-14.663	19.015	1478.840	1151.066
-13.648	18.969	1477.930	1150.004
-12.633	19.002	1476.987	1149.440
-11.619	19.043	1476.232	1149.082
-10.604	19.010	1475.246	1148.049
-9.590	19.033	1474.382	1147.483
-8.575	19.024	1473.695	1146.846
-7.560	19.106	1472.849	1146.685
-6.546	19.121	1472.053	1146.125
-5.531	19.055	1470.600	1144.507
-4.517	19.033	1469.784	1143.679
-3.502	19.023	1469.149	1143.076
-2.487	19.013	1467.908	1141.999
-1.473	19.027	1467.046	1141.373
-0.458	19.080	1465.405	1140.406
0.556	17.976	1455.418	1128.180
1.571	14.885	1431.725	1089.600
2.586	11.465	1370.822	1021.789
3.600	10.015	1286.975	950.681
4.615	9.216	1243.419	913.880
5.629	8.203	1187.543	867.232
6.644	4.290	1108.251	789.372
7.659	1.056	1075.126	749.728
8.673	0.650	1070.482	744.424
9.688	0.511	1067.068	741.298
10.702	0.508	1065.535	740.157
11.717	0.601	1063.015	738.793
12.731	1.860	1062.754	744.702
13.746	6.599	1069.436	772.576
14.761	13.040	1077.576	810.091
15.775	16.713	1082.274	831.621
16.790	16.825	1081.353	831.387
17.804	15.906	1079.405	825.314
18.819	15.076	1077.585	819.788
19.834	14.557	1075.963	815.942
20.848	14.404	1075.194	814.539
21.863	14.272	1073.962	812.890
22.877	13.860	1073.993	810.831
23.892	13.746	1072.623	809.166
24.907	13.635	1071.623	807.803
25.921	13.546	1071.497	807.200
26.936	13.713	1070.461	807.164
27.950	13.595	1070.018	806.183
28.965	13.717	1069.316	806.176
29.980	13.789	1067.700	805.237
30.994	13.766	1067.203	804.680
32.009	13.913	1066.059	804.458
33.023	13.871	1065.421	803.700
34.038	13.895	1064.720	803.218
35.053	13.882	1063.887	802.452
36.067	13.850	1062.735	801.362
37.082	13.781	1062.323	800.646
38.096	13.832	1061.460	800.170
39.111	13.863	1060.585	799.591
40.126	13.870	1059.444	798.691
41.140	13.893	1057.947	797.601
42.155	13.655	1057.719	796.216
43.169	13.680	1056.654	795.466
44.184	13.625	1055.705	794.417
45.199	13.719	1054.391	793.808
46.213	13.791	1053.082	793.094
47.228	13.748	1052.516	792.393
48.242	13.625	1051.456	790.941
49.257	13.741	1050.589	790.769
50.271	13.790	1049.438	790.066
51.286	13.878	1048.389	789.627
52.301	13.731	1047.720	788.353
53.315	13.814	1046.720	787.925
54.330	13.756	1045.742	786.847
55.344	13.732	1045.417	786.419
56.359	13.726	1044.056	785.293
57.374	13.625	1043.435	784.279
58.388	13.692	1042.385	783.740
59.403	13.683	1041.949	783.297
60.417	13.714	1040.651	782.398
61.432	13.737	1040.224	782.118
62.447	13.744	1039.389	781.453
63.461	13.540	1039.213	780.294
64.476	13.556	1037.899	779.312
65.490	13.576	1037.286	778.878
66.505	13.582	1035.877	777.779
67.520	13.728	1035.136	777.837
68.534	13.624	1034.948	777.141
69.549	13.648	1034.140	776.577
70.563	13.621	1033.091	775.591
71.578	13.637	1032.876	775.439
72.593	13.673	1031.563	774.553
73.607	13.632	1030.419	773.434
74.622	13.640	1029.458	772.683
75.636	13.548	1028.422	771.409
76.651	13.582	1028.003	771.182
77.666	13.610	1027.238	770.672
78.680	13.491	1026.305	769.349
79.695	13.566	1026.167	769.524
80.709	13.697	1025.220	769.354
81.724	13.601	1024.509	768.308
82.739	13.598	1023.516	767.483
83.753	13.739	1022.864	767.579
84.768	13.741	1022.262	767.066
85.782	13.921	1020.564	766.555
86.797	13.883	1020.285	766.105
87.812	13.904	1019.112	765.253
88.826	13.807	1018.365	764.175
89.841	13.834	1017.503	763.585
90.855	13.680	1017.270	762.635
91.870	13.882	1015.929	762.489
92.884	13.881	1015.292	761.939
93.899	13.892	1014.728	761.502
94.914	13.889	1014.175	761.004
95.928	13.940	1013.126	760.384
96.943	13.940	1012.532	759.871
97.957	13.937	1011.810	759.246
98.972	13.829	1011.054	758.117
99.987	13.833	1010.293	757.501
101.001	13.843	1009.917	757.198
102.016	13.911	1008.532	756.402
103.030	14.007	1007.554	756.039
104.045	13.917	1006.327	754.641
105.060	13.803	1005.794	753.657
106.074	13.785	1004.375	752.443
107.089	13.627	1004.079	751.440
108.103	13.809	1002.907	751.320
109.118	13.857	1001.741	750.600
110.133	13.758	1001.314	749.765
111.147	13.733	1000.521	748.992
112.162	13.703	999.453	747.991
113.176	13.800	998.747	747.831
114.191	13.793	998.002	747.179
115.206	13.871	996.776	746.545
116.220	13.743	996.424	745.641
117.235	13.939	994.962	745.361
118.249	13.834	994.381	744.385
119.264	13.824	993.430	743.564
120.279	13.787	992.641	742.741
121.293	13.707	991.923	741.781
122.308	13.802	991.106	741.530
123.322	13.727	990.108	740.382
124.337	13.771	989.045	739.719
125.352	13.636	988.235	738.444
126.366	13.575	987.202	737.335
127.381	13.836	985.556	737.200
128.395	13.765	984.386	735.947
129.410	13.665	984.132	735.249
130.424	13.862	982.748	735.021
131.439	13.690	982.375	733.919
132.454	13.829	981.250	733.624
133.468	13.764	980.570	732.764
134.483	13.856	979.895	732.602
135.497	13.805	979.275	731.851
136.512	13.792	978.234	730.948
137.527	13.763	977.631	730.306
138.541	13.857	976.608	729.890
139.556	13.831	976.118	729.347
140.570	13.864	975.143	728.697
141.585	13.952	974.196	728.312
142.600	13.801	974.216	727.597
143.614	13.976	972.984	727.379
144.629	13.948	972.343	726.716
145.643	14.037	971.492	726.405
146.658	14.030	970.502	725.568
147.673	13.936	969.881	724.628
148.687	13.905	968.900	723.700
149.702	14.105	967.326	723.330
150.716	13.971	966.910	722.369
151.731	13.907	966.161	721.471
152.746	14.084	965.332	721.555
153.760	13.824	965.211	720.273
154.775	14.077	963.931	720.351
155.789	14.057	963.730	720.048
156.804	13.962	962.804	718.880
157.819	13.995	961.570	718.041
158.833	13.976	961.048	717.503
159.848	14.061	960.739	717.577
160.862	14.080	959.718	716.833
161.877	14.125	959.004	716.430
162.892	13.960	958.601	715.356
163.906	14.157	957.186	715.083
164.921	14.065	956.225	713.908
165.935	13.977	955.482	712.911
166.950	14.008	954.539	712.278
167.964	13.986	954.177	711.849
168.979	14.218	952.288	711.370
169.994	14.197	951.697	710.773
171.008	14.200	950.921	710.145
172.023	14.103	950.193	709.126
173.037	14.215	949.338	708.902
174.052	14.182	948.657	708.191
175.067	14.439	947.365	708.253
176.081	14.282	947.103	707.329
177.096	14.164	946.359	706.212
178.110	14.283	945.442	705.969
179.125	14.189	944.847	705.064
180.140	14.258	943.536	704.314
181.154	14.075	943.906	703.753
182.169	14.316	942.302	703.512
183.183	14.267	942.141	703.125
184.198	14.204	941.639	702.421
185.213	14.435	940.385	702.396
186.227	14.279	940.088	701.457
187.242	14.395	939.704	701.596
188.256	14.488	938.656	701.141
189.271	14.499	937.799	700.486
190.286	14.395	937.344	699.650
191.300	14.443	936.246	698.969
192.315	14.302	935.690	697.901
193.329	14.301	935.289	697.535
194.344	14.225	934.223	696.359
195.359	14.419	933.563	696.620
196.373	14.517	933.152	696.660
197.388	14.431	932.786	695.963
198.402	14.433	932.327	695.571
199.417	14.585	931.366	695.426
200.432	14.606	931.076	695.235
201.446	14.637	930.593	694.942
202.461	14.640	930.479	694.806
203.475	14.763	929.617	694.611
204.490	14.683	929.069	693.812
205.504	14.812	928.176	693.616
206.519	14.529	927.674	692.004
207.534	14.612	926.389	691.332
208.548	14.688	926.064	691.341
209.563	14.682	925.085	690.523
210.577	14.817	924.608	690.666
211.592	14.749	923.819	689.734
212.607	14.853	923.055	689.533
213.621	14.943	922.315	689.289
214.636	14.857	921.356	688.156
215.650	14.864	921.316	688.095
216.665	14.733	920.703	687.036
217.680	14.841	919.942	686.853
218.694	14.940	919.706	687.021
219.709	14.811	919.288	686.122
220.723	14.792	918.838	685.647
221.738	14.817	918.093	685.132
222.753	14.864	916.833	684.324
223.767	14.853	916.182	683.730
224.782	14.884	915.323	683.157
225.796	14.800	914.586	682.201
226.811	15.051	913.797	682.580
227.826	15.085	913.083	682.121
228.840	15.019	912.332	681.233
229.855	15.070	912.012	681.142
230.869	15.045	911.249	680.409
231.884	15.017	910.481	679.661
232.899	15.015	909.776	679.069
233.913	14.963	909.309	678.447
234.928	14.909	909.069	677.990
235.942	14.942	907.637	676.996
236.957	14.958	907.380	676.807
237.972	14.912	906.685	676.044
238.986	14.982	905.851	675.646
240.001	14.940	905.286	674.993
241.015	15.035	904.555	674.771
242.030	14.990	903.422	673.687
243.045	15.162	902.860	673.899
244.059	15.105	902.453	673.309
245.074	15.108	901.803	672.774
246.088	15.222	900.823	672.441
247.103	15.104	900.820	671.905
248.117	15.180	900.092	671.608
249.132	15.207	899.461	671.188
250.147	15.385	898.859	671.392
251.161	15.317	897.971	670.396
252.176	15.332	897.840	670.299
253.190	15.399	896.744	669.688
254.205	15.416	895.885	669.055
255.220	15.478	895.262	668.777
256.234	15.451	894.525	668.061
257.249	15.491	894.072	667.822
258.263	15.504	893.678	667.523
259.278	15.485	892.994	666.876
260.293	15.570	892.348	666.670
261.307	15.559	891.667	666.060
262.322	15.610	891.401	666.003
263.336	15.630	890.716	665.513
264.351	15.524	890.294	664.719
265.366	15.670	889.113	664.358
266.380	15.711	888.869	664.277
267.395	15.625	888.497	663.600
268.409	15.653	887.287	662.749
269.424	15.674	886.484	662.171
270.439	15.830	885.711	662.151
271.453	15.771	884.688	661.098
272.468	15.699	884.669	660.741
273.482	15.733	883.577	660.000
274.497	15.890	883.009	660.134
275.512	15.700	882.340	658.830
276.526	15.705	881.468	658.140
277.541	15.727	881.113	657.902
278.555	15.732	880.661	657.526
279.570	15.907	879.839	657.536
280.585	15.792	879.359	656.671
281.599	15.934	878.691	656.671
282.614	15.903	878.262	656.170
283.628	15.851	877.159	655.083
284.643	15.864	877.134	655.059
285.657	15.932	876.402	654.719
286.672	15.897	875.960	654.193
287.687	15.954	875.424	653.956
288.701	15.890	874.582	653.020
289.716	16.083	873.832	653.154
290.730	15.944	873.634	652.408
291.745	16.147	872.648	652.399
292.760	16.163	871.965	651.891
293.774	16.006	871.769	651.082
294.789	16.134	870.966	650.920
295.803	16.095	870.620	650.451
296.818	16.060	869.596	649.494
297.833	16.037	868.631	648.628
298.847	16.082	868.346	648.532
299.862	16.014	867.683	647.716
300.876	16.200	866.911	647.797
301.891	16.106	866.513	647.081
302.906	16.190	865.825	646.834
303.920	16.147	865.003	645.995
304.935	16.303	864.621	646.254
305.949	16.381	863.397	645.579
306.964	16.359	863.000	645.139
307.979	16.276	862.738	644.569
308.993	16.374	862.315	644.571
310.008	16.373	861.718	644.062
311.022	16.369	860.943	643.414
312.037	16.470	860.435	643.360
313.052	16.460	859.634	642.667
314.066	16.288	859.407	641.786
315.081	16.300	858.724	641.263
316.095	16.422	858.079	641.188
317.110	16.308	857.902	640.569
318.125	16.399	857.020	640.197
319.139	16.303	856.864	639.661
320.154	16.239	856.479	639.076
321.168	16.380	855.682	638.957
322.183	16.377	855.296	638.602
323.197	16.330	854.892	638.065
324.212	16.460	853.843	637.714
325.227	16.450	853.193	637.137
326.241	16.463	852.806	636.838
327.256	16.562	852.101	636.631
328.270	16.527	851.555	636.032
329.285	16.519	850.947	635.495
330.300	16.569	850.186	635.055
331.314	16.632	850.005	635.100
332.329	16.555	849.455	634.346
333.343	16.659	848.492	633.961
334.358	16.600	848.313	633.548
335.373	16.784	847.144	633.308
336.387	16.673	846.986	632.719
337.402	16.597	846.557	632.058
338.416	16.708	846.068	632.050
339.431	16.657	845.520	631.397
340.446	16.700	844.962	631.084
341.460	16.792	844.428	630.970
342.475	16.685	843.811	630.057
343.489	16.832	843.149	630.053
344.504	16.959	842.669	630.110
345.519	16.842	842.219	629.285
346.533	16.855	841.707	628.894
347.548	16.796	841.160	628.210
348.562	16.923	840.366	628.035
349.577	16.965	839.723	627.651
350.592	16.989	839.497	627.515
351.606	16.872	839.195	626.802
352.621	16.955	838.439	626.489
353.635	17.013	838.239	626.498
354.650	17.034	838.037	626.367
355.665	16.939	837.733	625.734
356.679	17.098	836.697	625.491
357.694	16.930	836.010	624.305
358.708	16.934	835.713	624.045
359.723	17.080	835.012	624.000
360.738	17.103	834.331	623.522
361.752	17.002	834.037	622.876
362.767	17.139	833.817	623.158
363.781	17.025	833.370	622.353
364.796	17.201	832.582	622.354
365.810	17.171	832.119	621.842
366.825	17.237	831.819	621.805
367.840	17.194	831.632	621.453
368.854	17.103	831.326	620.835
369.869	17.195	830.724	620.669
370.883	17.368	829.857	620.598
371.898	17.221	829.305	619.593
372.913	17.333	828.441	619.302
373.927	17.379	827.919	619.024
374.942	17.263	827.682	618.368
375.956	17.262	826.913	617.734
376.971	17.344	826.621	617.760
377.986	17.330	825.692	616.961
379.000	17.639	825.183	617.645
380.015	17.307	825.016	616.264
381.029	17.425	824.379	616.161
382.044	17.540	823.641	615.970
383.059	17.493	823.261	615.462
384.073	17.605	822.636	615.345
385.088	17.660	822.026	615.031
386.102	17.560	821.445	614.184
387.117	17.392	821.123	613.281
388.132	17.518	820.273	613.047
389.146	17.492	820.090	612.761
390.161	17.448	819.847	612.367
391.175	17.629	819.284	612.542
392.190	17.690	818.897	612.419
393.205	17.656	818.363	611.845
394.219	17.735	817.964	611.776
395.234	17.521	817.364	610.506
396.248	17.479	817.003	610.032
397.263	17.537	816.410	609.742
398.278	17.666	816.039	609.872
399.292	17.576	815.555	609.134
400.307	17.641	814.848	608.784
401.321	17.595	814.803	608.534
402.336	17.493	814.963	608.235
403.350	17.735	813.861	608.220
404.365	17.740	813.387	607.832
405.380	17.745	813.049	607.542
406.394	17.793	812.371	607.154
407.409	17.920	812.119	607.361
408.423	17.914	811.601	606.899
409.438	17.706	810.936	605.612
410.453	17.834	810.729	605.858
411.467	17.876	810.390	605.697
412.482	17.940	809.820	605.447
413.496	17.838	809.551	604.829
414.511	17.852	809.237	604.590
415.526	17.972	808.835	604.663
416.540	17.934	808.245	604.034
417.555	17.973	808.116	604.019
418.569	17.996	807.594	603.660
419.584	18.018	806.909	603.172
420.599	17.964	806.595	602.692
421.613	116.256	1300.581	1494.160
422.628	100.512	1372.498	1494.220
