DTS Sentinel unit serial number:	SN413079Multiplexer serial number:	ORYXHardware model number:	OX4-SRSoftware version number:	ORYX F/W v4.00 Oryx Data Collector v3.7.2.0data status	okinstallation	princeton_trtdifferential loss correction	single-endedforward channel	channel 3reverse channel	N/Adate	2019/09/11time	07:18:10forward acquisition time	60.00reverse acquisition time	0.00gamma	496.2192k internal	0.2328k external	0.2328temperature offset calibration	0.9904default loss term (dB/km)	0.3790temperature slope calibration	1.0000multiplexer offset coefficient	1.0000multiplexer slope coefficient	1.0000fibre end	0.00T internal ref (°C)	30.66T ext. ref 1 (°C)	-0.03T ext. ref 2 (°C)	27.15length (m)	temperature (°C)	Stokes	anti-Stokes-747.200	153.752	-0.051	-0.071
-746.185	287.121	0.008	0.015
-745.171	23.865	-0.329	0.273
-744.156	105.763	0.173	0.206
-743.142	-200.000	0.014	0.420
-742.127	-94.862	-0.298	0.081
-741.112	342.946	-0.130	-0.257
-740.098	-41.824	-0.223	0.115
-739.083	-124.983	0.084	0.013
-738.069	247.963	-0.137	-0.234
-737.054	-103.973	-0.109	-0.026
-736.039	-50.384	-0.062	-0.030
-735.025	53.258	0.171	-0.165
-734.010	407.284	0.017	0.037
-732.996	-107.263	-0.493	0.109
-731.981	77.549	-0.201	-0.216
-730.966	800.000	-0.007	0.023
-729.952	3.624	-0.120	-0.088
-728.937	47.973	-0.265	-0.249
-727.923	-74.089	-0.088	-0.032
-726.908	800.000	-0.059	0.197
-725.894	33.603	-0.170	-0.149
-724.879	16.277	0.115	-0.092
-723.864	-58.658	-0.434	0.189
-722.850	351.501	0.065	0.129
-721.835	-166.975	-0.074	-0.003
-720.821	676.428	-0.026	0.069
-719.806	-200.000	0.010	-0.092
-718.791	-99.635	-0.082	0.021
-717.777	-200.000	-0.057	-0.299
-716.762	169.391	0.231	0.333
-715.748	-200.000	0.053	-0.240
-714.733	-0.761	0.228	-0.162
-713.718	-45.736	-0.324	-0.161
-712.704	78.687	-0.105	-0.113
-711.689	-112.603	-0.120	-0.024
-710.675	-40.157	0.111	0.058
-709.660	-31.264	0.276	0.157
-708.645	-125.278	-0.245	0.038
-707.631	800.000	0.048	-0.179
-706.616	27.705	0.314	0.266
-705.602	297.252	0.064	-0.119
-704.587	-91.978	0.042	0.012
-703.572	77.343	0.231	-0.248
-702.558	-133.547	-0.078	0.010
-701.543	800.000	0.078	0.292
-700.529	-13.475	-0.243	0.159
-699.514	12.278	0.257	-0.199
-698.499	30.656	-0.048	-0.041
-697.485	206.162	-0.074	0.115
-696.470	325.694	0.247	-0.476
-695.456	129.097	0.121	-0.155
-694.441	-53.628	0.358	-0.165
-693.426	-58.868	-0.413	-0.180
-692.412	-200.000	-0.032	0.249
-691.397	19.017	0.160	-0.129
-690.383	-65.718	0.172	-0.069
-689.368	800.000	0.024	0.069
-688.354	800.000	0.073	-0.228
-687.339	65.635	-0.113	-0.116
-686.324	33.023	-0.151	0.132
-685.310	90.776	-0.101	0.114
-684.295	-19.424	-0.124	-0.078
-683.281	370.333	-0.071	-0.144
-682.266	800.000	0.085	0.370
-681.251	-200.000	0.017	0.481
-680.237	-34.733	-0.376	-0.207
-679.222	177.610	-0.131	0.193
-678.208	214.100	0.129	0.205
-677.193	112.283	0.137	-0.166
-676.178	-110.686	0.203	-0.042
-675.164	31.720	-0.145	-0.125
-674.149	-43.145	0.186	0.095
-673.135	66.695	-0.067	0.068
-672.120	-57.515	0.128	0.056
-671.105	113.928	-0.052	-0.064
-670.091	-200.000	0.023	0.123
-669.076	-200.000	0.032	-0.151
-668.062	-67.784	-0.135	-0.053
-667.047	-64.240	0.236	-0.096
-666.032	800.000	-0.065	0.243
-665.018	-200.000	0.007	-0.196
-664.003	99.592	-0.182	-0.212
-662.989	-140.597	0.421	-0.044
-661.974	-200.000	-0.021	-0.166
-660.959	47.997	-0.099	-0.093
-659.945	800.000	-0.068	0.206
-658.930	-46.918	0.096	0.047
-657.916	800.000	-0.079	-0.229
-656.901	-51.599	-0.095	-0.045
-655.886	-82.797	-0.106	-0.034
-654.872	-200.000	-0.006	0.304
-653.857	-0.954	-0.151	-0.107
-652.843	314.946	-0.108	-0.204
-651.828	-43.309	0.321	-0.163
-650.814	-63.264	-0.384	-0.159
-649.799	-200.000	-0.014	-0.243
-648.784	4.768	0.157	-0.116
-647.770	645.858	0.101	-0.260
-646.755	102.303	-0.078	0.092
-645.741	-27.796	0.227	-0.132
-644.726	524.972	-0.113	-0.267
-643.711	-21.394	0.100	0.061
-642.697	250.026	0.096	0.163
-641.682	89.843	-0.115	0.129
-640.668	-200.000	-0.001	0.324
-639.653	27.995	0.188	-0.160
-638.638	800.000	-0.107	0.384
-637.624	-17.389	0.141	0.089
-636.609	-10.947	-0.126	0.084
-635.595	143.940	-0.143	0.191
-634.580	297.737	-0.030	-0.056
-633.565	132.740	0.215	-0.279
-632.551	800.000	-0.072	-0.210
-631.536	800.000	0.066	-0.247
-630.522	236.601	0.071	0.118
-629.507	800.000	0.177	0.492
-628.492	-97.848	-0.103	-0.027
-627.478	-127.301	0.101	-0.015
-626.463	109.578	-0.235	-0.282
-625.449	14.488	-0.219	-0.172
-624.434	-103.297	0.150	0.036
-623.419	-200.000	0.036	0.217
-622.405	-18.464	-0.235	-0.147
-621.390	45.326	-0.262	-0.242
-620.376	-24.024	0.067	-0.040
-619.361	-200.000	0.001	-0.156
-618.346	42.379	-0.299	0.273
-617.332	-200.000	-0.034	0.164
-616.317	-155.245	0.128	-0.008
-615.303	-125.989	-0.400	0.060
-614.288	-78.936	0.041	-0.014
-613.273	-200.000	0.007	-0.397
-612.259	-45.681	-0.242	0.120
-611.244	-92.605	0.218	0.061
-610.230	71.953	0.202	0.211
-609.215	60.698	0.121	0.120
-608.201	800.000	-0.083	-0.348
-607.186	-60.488	0.048	0.020
-606.171	114.334	0.055	-0.067
-605.157	-163.409	0.250	0.012
-604.142	-156.030	0.211	0.013
-603.128	800.000	-0.020	-0.087
-602.113	147.198	0.164	-0.221
-601.098	-131.064	-0.207	-0.028
-600.084	192.142	-0.052	0.079
-599.069	-48.367	-0.279	-0.135
-598.055	-40.244	-0.092	0.048
-597.040	-200.000	-0.019	0.287
-596.025	32.232	0.211	-0.182
-595.011	53.901	-0.052	0.050
-593.996	-200.000	0.014	0.074
-592.982	52.420	0.240	-0.230
-591.967	609.001	-0.084	0.211
-590.952	84.579	-0.262	0.288
-589.938	-102.488	-0.246	0.059
-588.923	-77.658	0.201	0.070
-587.909	59.711	0.274	0.271
-586.894	-41.677	0.147	-0.076
-585.879	232.440	0.064	-0.105
-584.865	88.030	-0.325	-0.361
-583.850	-200.000	-0.018	-0.097
-582.836	-116.289	0.255	-0.047
-581.821	504.156	0.110	-0.254
-580.806	-200.000	-0.000	0.118
-579.792	17.227	0.193	-0.153
-578.777	19.751	-0.038	0.030
-577.763	800.000	0.048	-0.189
-576.748	-200.000	-0.004	0.132
-575.733	-200.000	-0.021	0.203
-574.719	141.400	-0.048	0.064
-573.704	50.605	-0.101	-0.096
-572.690	-11.758	-0.157	-0.103
-571.675	-147.312	-0.041	-0.003
-570.661	-200.000	0.001	0.085
-569.646	-8.258	-0.069	-0.046
-568.631	800.000	0.050	0.219
-567.617	-38.504	-0.197	-0.104
-566.602	800.000	0.056	0.167
-565.588	-80.509	0.104	-0.035
-564.573	800.000	0.095	0.280
-563.558	-130.284	-0.151	-0.021
-562.544	308.989	0.106	0.197
-561.529	-6.105	-0.273	-0.187
-560.515	56.214	0.089	-0.087
-559.500	156.339	-0.173	0.239
-558.485	800.000	0.051	0.203
-557.471	-118.274	-0.198	0.035
-556.456	238.131	-0.160	0.266
-555.442	176.166	0.099	-0.145
-554.427	605.733	0.143	-0.356
-553.412	-17.394	-0.079	-0.050
-552.398	55.176	0.090	-0.087
-551.383	-18.114	0.147	0.092
-550.369	-200.000	-0.038	0.296
-549.354	-38.979	-0.074	-0.039
-548.339	696.081	-0.044	-0.117
-547.325	-64.916	-0.107	-0.043
-546.310	39.813	0.215	0.193
-545.296	-25.933	-0.215	0.127
-544.281	156.130	-0.141	-0.194
-543.266	212.987	0.064	-0.101
-542.252	-87.048	0.257	-0.078
-541.237	-145.987	-0.406	-0.036
-540.223	-65.213	-0.458	0.185
-539.208	-48.085	-0.177	0.085
-538.193	-166.911	0.225	0.009
-537.179	-108.339	0.127	-0.028
-536.164	-6.230	0.332	-0.226
-535.150	800.000	-0.066	0.188
-534.135	-89.676	-0.273	-0.080
-533.121	800.000	0.077	-0.237
-532.106	121.315	0.257	-0.320
-531.091	-178.360	0.232	0.005
-530.077	-103.940	-0.186	-0.043
-529.062	-85.067	-0.080	0.025
-528.048	-150.067	0.310	-0.024
-527.033	-30.144	-0.071	-0.041
-526.018	800.000	-0.084	0.285
-525.004	-55.148	-0.133	-0.060
-523.989	56.694	0.168	-0.163
-522.975	800.000	-0.053	-0.213
-521.960	142.983	-0.146	0.194
-520.945	800.000	0.072	-0.268
-519.931	-83.507	-0.379	-0.121
-518.916	-55.718	-0.438	-0.196
-517.902	-9.487	-0.099	-0.066
-516.887	-200.000	0.003	0.016
-515.872	126.297	-0.110	-0.139
-514.858	-121.442	-0.227	0.038
-513.843	149.670	-0.196	0.266
-512.829	72.632	-0.181	-0.188
-511.814	-57.704	-0.087	0.038
-510.799	557.556	0.051	0.122
-509.785	-6.534	-0.301	-0.205
-508.770	67.968	-0.070	0.072
-507.756	33.543	0.103	0.090
-506.741	143.456	-0.252	0.334
-505.726	-14.855	0.187	0.120
-504.712	-79.504	0.424	-0.143
-503.697	-65.582	-0.139	0.056
-502.683	800.000	0.065	0.225
-501.668	-49.969	-0.100	0.047
-500.653	130.602	0.204	0.261
-499.639	101.481	-0.073	0.084
-498.624	-200.000	-0.007	0.074
-497.610	40.935	-0.307	0.277
-496.595	76.328	0.043	0.046
-495.581	571.424	0.086	-0.208
-494.566	-105.896	0.127	0.029
-493.551	-100.325	-0.222	-0.055
-492.537	27.911	0.020	0.017
-491.522	-200.000	-0.036	-0.166
-490.508	800.000	-0.045	0.157
-489.493	-200.000	-0.023	0.217
-488.478	-99.927	0.034	0.009
-487.464	-107.253	0.117	-0.026
-486.449	-125.612	-0.240	-0.036
-485.435	-105.736	0.079	0.018
-484.420	751.481	0.091	0.246
-483.405	175.966	0.161	0.233
-482.391	-200.000	-0.026	0.262
-481.376	-40.446	0.084	-0.044
-480.362	-167.638	0.279	0.011
-479.347	45.543	-0.205	-0.189
-478.332	-64.934	0.314	0.127
-477.318	562.018	0.166	-0.400
-476.303	-144.617	0.291	0.027
-475.289	-200.000	0.002	-0.057
-474.274	150.069	0.072	0.098
-473.259	-200.000	-0.015	0.466
-472.245	351.190	-0.034	-0.067
-471.230	495.898	0.032	0.073
-470.216	20.665	0.252	0.204
-469.201	-161.875	-0.336	-0.017
-468.186	25.300	0.234	0.194
-467.172	-143.841	-0.308	0.029
-466.157	-58.570	0.092	-0.040
-465.143	240.587	0.121	0.202
-464.128	800.000	0.045	-0.186
-463.113	65.535	-0.195	-0.197
-462.099	-43.026	-0.195	-0.099
-461.084	19.051	-0.319	0.255
-460.070	-200.000	-0.027	0.143
-459.055	-185.170	-0.147	0.002
-458.040	-200.000	-0.047	0.255
-457.026	800.000	0.086	-0.270
-456.011	415.856	0.064	-0.136
-454.997	225.949	-0.198	-0.321
-453.982	-25.922	-0.249	-0.146
-452.968	399.707	0.063	-0.131
-451.953	-200.000	0.002	-0.223
-450.938	-95.239	-0.036	-0.010
-449.924	-143.889	-0.263	-0.025
-448.909	133.190	-0.169	-0.217
-447.895	-98.779	0.261	-0.066
-446.880	341.425	-0.150	0.292
-445.865	412.590	-0.114	-0.241
-444.851	800.000	0.007	0.022
-443.836	278.916	-0.175	0.312
-442.822	51.601	-0.238	0.225
-441.807	-101.393	0.199	0.048
-440.792	708.662	0.034	0.088
-439.778	183.058	0.064	0.094
-438.763	800.000	-0.029	0.085
-437.749	-156.527	-0.288	-0.018
-436.734	93.002	-0.322	-0.362
-435.719	-200.000	0.019	-0.120
-434.705	800.000	-0.043	-0.125
-433.690	-38.050	0.319	-0.169
-432.676	191.806	0.136	0.204
-431.661	-125.621	0.228	0.034
-430.646	72.156	-0.195	-0.202
-429.632	17.833	-0.169	-0.134
-428.617	-118.808	0.279	0.049
-427.603	-53.000	0.047	-0.022
-426.588	-200.000	-0.219	-0.000
-425.573	-126.574	0.126	0.019
-424.559	-29.401	0.242	-0.138
-423.544	48.920	-0.018	0.016
-422.530	-13.720	-0.402	0.259
-421.515	360.868	0.047	-0.093
-420.500	800.000	-0.077	0.257
-419.486	-117.949	-0.192	0.034
-418.471	17.051	0.027	0.021
-417.457	-200.000	-0.050	0.232
-416.442	90.534	0.192	-0.214
-415.428	-166.136	-0.086	0.004
-414.413	438.116	-0.130	0.283
-413.398	-178.718	-0.257	0.006
-412.384	-75.459	0.407	-0.144
-411.369	-200.000	0.005	-0.088
-410.355	800.000	0.009	0.025
-409.340	127.102	-0.160	0.203
-408.325	800.000	-0.080	0.276
-407.311	28.169	-0.068	0.057
-406.296	189.796	0.045	0.068
-405.282	-31.693	-0.182	0.102
-404.267	-200.000	-0.364	-0.001
-403.252	-5.269	0.076	-0.052
-402.238	158.893	-0.129	-0.179
-401.223	-40.711	0.117	-0.060
-400.209	-26.371	0.199	-0.116
-399.194	118.150	0.220	-0.269
-398.179	-57.681	-0.304	-0.132
-397.165	-200.000	-0.001	-0.056
-396.150	94.132	0.140	0.158
-395.136	-129.163	0.074	0.010
-394.121	800.000	0.027	0.109
-393.106	-90.931	0.393	0.112
-392.092	-93.925	-0.192	-0.053
-391.077	-134.561	-0.277	-0.034
-390.063	-200.000	0.037	-0.267
-389.048	-65.706	-0.104	-0.042
-388.033	325.871	-0.160	0.305
-387.019	-170.274	-0.392	0.014
-386.004	-38.869	0.330	-0.173
-384.990	-169.508	-0.174	-0.006
-383.975	-63.432	-0.291	0.119
-382.960	93.572	-0.147	0.165
-381.946	800.000	0.078	-0.260
-380.931	-117.633	0.221	-0.040
-379.917	-100.451	0.066	-0.016
-378.902	-21.951	0.285	0.172
-377.888	-102.332	-0.147	-0.035
-376.873	260.622	-0.140	0.241
-375.858	180.104	-0.256	0.373
-374.844	184.077	0.066	-0.097
-373.829	-118.116	0.343	0.061
-372.815	-200.000	0.047	-0.361
-371.800	800.000	0.029	-0.088
-370.785	-200.000	0.027	0.162
-369.771	58.031	-0.184	-0.179
-368.756	-144.001	0.282	-0.026
-367.742	-80.672	0.129	-0.043
-366.727	-4.283	0.466	0.320
-365.712	589.422	0.071	0.174
-364.698	-135.555	-0.055	0.006
-363.683	-60.671	0.196	-0.082
-362.669	5.628	0.274	0.201
-361.654	-1.785	-0.183	0.128
-360.639	60.906	-0.324	-0.319
-359.625	-112.596	0.224	-0.044
-358.610	57.087	0.178	0.172
-357.596	-200.000	-0.044	-0.208
-356.581	-200.000	0.012	-0.163
-355.566	-197.189	0.108	-0.001
-354.552	-97.224	0.099	-0.026
-353.537	29.814	0.373	0.316
-352.523	800.000	-0.058	-0.185
-351.508	103.344	0.110	0.128
-350.493	238.403	0.082	-0.136
-349.479	800.000	-0.067	0.285
-348.464	-6.323	0.170	0.115
-347.450	-140.134	-0.065	-0.007
-346.435	227.074	0.156	-0.252
-345.420	800.000	0.089	0.378
-344.406	-81.486	-0.129	-0.042
-343.391	-88.138	0.127	0.038
-342.377	246.226	0.034	0.057
-341.362	185.720	0.119	-0.176
-340.348	436.843	0.109	-0.235
-339.333	271.204	0.151	-0.265
-338.318	-158.424	0.419	0.024
-337.304	-200.000	-0.028	-0.131
-336.289	597.121	0.053	0.131
-335.275	159.412	-0.260	-0.359
-334.260	-200.000	0.031	0.258
-333.245	-200.000	-0.003	0.063
-332.231	223.184	-0.186	0.298
-331.216	-58.820	-0.167	0.072
-330.202	245.555	0.159	-0.265
-329.187	-200.000	0.001	-0.042
-328.172	262.310	0.066	-0.113
-327.158	240.313	0.307	-0.507
-326.143	91.677	0.138	-0.154
-325.129	56.293	0.102	0.098
-324.114	-200.000	-0.034	0.247
-323.099	-104.700	-0.152	0.035
-322.085	-200.000	-0.052	0.291
-321.070	60.534	-0.303	0.298
-320.056	-200.000	0.266	0.001
-319.041	800.000	0.076	0.246
-318.026	262.728	-0.179	-0.308
-317.012	242.312	0.076	0.126
-315.997	-108.736	-0.157	0.033
-314.983	-200.000	-0.019	0.332
-313.968	-56.039	-0.143	0.063
-312.953	-123.983	0.334	-0.052
-311.939	623.658	-0.109	0.271
-310.924	-167.732	-0.301	-0.012
-309.910	-111.404	0.175	-0.035
-308.895	77.548	0.203	-0.214
-307.880	249.717	-0.141	0.237
-306.866	499.691	0.168	0.383
-305.851	-22.316	0.363	-0.218
-304.837	-136.406	-0.311	0.036
-303.822	-79.611	0.199	-0.067
-302.807	22.688	-0.016	-0.013
-301.793	-200.000	-0.001	0.210
-300.778	-117.653	0.198	0.035
-299.764	-47.848	-0.279	0.134
-298.749	95.781	0.088	0.100
-297.735	-73.861	0.222	0.080
-296.720	-159.397	0.427	0.024
-295.705	-200.000	0.033	0.190
-294.691	-200.000	-0.002	-0.213
-293.676	-109.903	0.236	-0.049
-292.662	45.531	-0.116	-0.106
-291.647	-200.000	-0.011	0.248
-290.632	-86.858	-0.221	0.067
-289.618	-9.283	0.167	0.110
-288.603	-200.000	0.041	-0.296
-287.589	478.291	0.041	-0.092
-286.574	-200.000	0.004	0.113
-285.559	762.658	0.073	-0.197
-284.545	800.000	-0.045	0.153
-283.530	-11.757	-0.100	0.065
-282.516	-13.747	0.151	-0.097
-281.501	-200.000	-0.019	-0.319
-280.486	14.877	0.202	-0.156
-279.472	401.051	0.019	-0.040
-278.457	-57.070	-0.042	0.018
-277.443	56.481	-0.169	-0.162
-276.428	195.616	-0.096	-0.144
-275.413	-76.869	0.181	-0.063
-274.399	-200.000	0.005	-0.177
-273.384	-172.883	-0.138	0.004
-272.370	-132.014	0.147	0.019
-271.355	-36.428	0.082	-0.044
-270.340	289.597	-0.102	-0.184
-269.326	-29.745	-0.175	0.099
-268.311	-200.000	-0.020	0.210
-267.297	-85.884	-0.296	-0.091
-266.282	106.607	0.144	0.169
-265.267	-15.358	0.295	-0.187
-264.253	-132.529	0.150	0.019
-263.238	-0.863	0.220	0.154
-262.224	-4.410	-0.179	0.122
-261.209	-60.532	-0.075	-0.032
-260.195	-200.000	0.038	0.201
-259.180	-125.067	-0.280	0.042
-258.165	-106.577	-0.341	-0.075
-257.151	-66.826	0.327	-0.128
-256.136	800.000	-0.043	0.130
-255.122	148.528	-0.093	-0.125
-254.107	-100.239	-0.224	-0.055
-253.092	-200.000	-0.034	0.194
-252.078	800.000	0.022	-0.074
-251.063	-124.080	-0.204	0.032
-250.049	150.283	-0.040	-0.054
-249.034	-81.233	0.286	0.094
-248.019	-79.909	0.193	0.064
-247.005	358.575	0.169	-0.334
-245.990	93.739	0.058	0.065
-244.976	-103.055	0.166	-0.039
-243.961	193.618	0.023	-0.035
-242.946	-169.680	0.350	-0.013
-241.932	-200.000	-0.045	-0.338
-240.917	256.289	-0.104	-0.176
-239.903	-200.000	-0.038	-0.205
-238.888	-48.304	-0.199	-0.095
-237.873	-29.607	-0.272	0.154
-236.859	653.925	0.018	0.045
-235.844	301.538	-0.213	-0.389
-234.830	800.000	0.039	-0.160
-233.815	800.000	-0.026	0.087
-232.800	-136.821	0.153	-0.017
-231.786	54.425	0.209	0.199
-230.771	800.000	0.041	0.153
-229.757	-14.832	-0.082	-0.052
-228.742	800.000	-0.038	-0.126
-227.727	-200.000	-0.016	0.416
-226.713	-86.307	-0.011	-0.003
-225.698	643.940	-0.069	-0.173
-224.684	93.449	-0.212	0.237
-223.669	-49.514	-0.311	0.146
-222.655	54.885	-0.146	-0.139
-221.640	-8.698	0.223	-0.148
-220.625	-200.000	0.031	0.217
-219.611	496.490	0.082	0.187
-218.596	122.277	-0.154	-0.190
-217.582	431.851	-0.113	0.241
-216.567	48.520	-0.243	-0.225
-215.552	16.434	0.079	-0.061
-214.538	-175.914	0.144	-0.004
-213.523	-87.928	-0.258	0.077
-212.509	800.000	-0.058	0.166
-211.494	168.906	-0.103	-0.145
-210.479	-200.000	-0.074	-0.324
-209.465	-81.376	0.280	-0.091
-208.450	-160.931	-0.144	0.007
-207.436	75.830	0.236	0.246
-206.421	-127.043	-0.119	0.017
-205.406	201.377	-0.191	-0.290
-204.392	-112.936	0.236	0.046
-203.377	800.000	0.078	-0.294
-202.363	800.000	0.070	0.196
-201.348	111.941	-0.123	-0.147
-200.333	-77.693	-0.259	0.088
-199.319	-97.103	-0.143	0.037
-198.304	87.649	-0.138	-0.151
-197.290	99.006	-0.103	-0.118
-196.275	-9.206	0.076	0.050
-195.260	73.763	0.109	-0.113
-194.246	149.486	0.066	-0.088
-193.231	167.528	0.159	-0.223
-192.217	800.000	-0.022	-0.075
-191.202	-34.536	0.333	0.180
-190.187	-168.273	-0.247	0.009
-189.173	85.129	0.169	-0.183
-188.158	52.230	-0.313	0.294
-187.144	101.997	-0.095	-0.110
-186.129	179.684	0.252	-0.364
-185.114	257.671	-0.054	0.092
-184.100	146.401	0.113	0.150
-183.085	66.302	0.297	-0.298
-182.071	44.878	-0.109	0.099
-181.056	331.970	0.033	0.063
-180.042	-200.000	-0.024	0.112
-179.027	-200.000	0.027	-0.191
-178.012	-79.604	0.232	0.077
-176.998	-200.000	0.017	0.104
-175.983	391.859	0.003	-0.007
-174.969	510.675	0.132	-0.302
-173.954	-200.000	-0.026	0.298
-172.939	54.218	0.372	0.353
-171.925	800.000	0.065	0.263
-170.910	-48.531	0.227	-0.108
-169.896	-126.229	0.200	0.029
-168.881	-129.837	-0.240	0.033
-167.866	420.303	0.148	-0.313
-166.852	-148.353	0.605	0.049
-165.837	11.613	-0.190	-0.144
-164.823	-200.000	0.027	-0.416
-163.808	-198.657	-0.201	-0.001
-162.793	7.006	-0.036	-0.026
-161.779	74.448	-0.388	-0.402
-160.764	-34.744	-0.099	0.053
-159.750	48.958	-0.134	0.124
-158.735	800.000	0.045	0.169
-157.720	-200.000	-0.021	-0.128
-156.706	-29.818	-0.047	-0.026
-155.691	800.000	0.024	0.073
-154.677	800.000	0.108	0.441
-153.662	-110.565	0.028	-0.006
-152.647	-144.808	0.206	-0.019
-151.633	399.379	-0.056	-0.116
-150.618	-38.261	0.161	0.084
-149.604	346.299	-0.115	-0.223
-148.589	-140.098	0.098	-0.010
-147.574	800.000	0.029	0.113
-146.560	-135.854	0.584	0.068
-145.545	194.883	-0.129	-0.192
-144.531	-100.534	0.023	-0.006
-143.516	-200.000	-0.048	0.235
-142.502	-20.961	0.292	0.176
-141.487	-200.000	-0.037	-0.176
-140.472	-18.416	0.288	-0.177
-139.458	0.962	0.214	-0.151
-138.443	-52.756	-0.116	-0.053
-137.429	-16.999	0.173	-0.107
-136.414	800.000	0.028	-0.092
-135.399	-200.000	-0.331	0.000
-134.385	-111.033	-0.171	-0.034
-133.370	-200.000	0.012	0.101
-132.356	-8.745	0.218	0.144
-131.341	-200.000	0.003	0.492
-130.326	-56.950	-0.285	-0.124
-129.312	91.551	-0.086	0.095
-128.297	-22.228	-0.112	0.067
-127.283	-22.164	-0.101	-0.061
-126.268	-200.000	0.016	0.195
-125.253	800.000	-0.049	-0.166
-124.239	-17.314	0.320	-0.198
-123.224	12.220	-0.151	0.114
-122.210	-48.811	0.269	0.127
-121.195	-36.157	0.115	-0.061
-120.180	34.008	-0.191	-0.164
-119.166	191.592	-0.064	0.095
-118.151	-144.333	0.239	0.022
-117.137	205.119	0.107	-0.163
-116.122	29.502	-0.231	-0.193
-115.107	131.511	0.150	0.189
-114.093	-200.000	0.003	0.245
-113.078	295.349	0.057	-0.103
-112.064	-10.336	-0.207	0.135
-111.049	-200.000	-0.090	-0.438
-110.034	364.467	0.065	-0.128
-109.020	12.693	0.189	0.144
-108.005	115.976	0.153	-0.184
-106.991	-200.000	0.009	-0.306
-105.976	-55.168	0.186	0.082
-104.962	-39.074	-0.351	0.181
-103.947	-196.971	0.195	0.001
-102.932	54.843	0.191	0.182
-101.918	-142.186	0.182	0.018
-100.903	64.271	-0.339	-0.335
-99.889	-14.583	0.500	-0.316
-98.874	-200.000	0.060	-0.341
-97.859	105.223	0.076	-0.088
-96.845	-73.255	0.071	-0.025
-95.830	-79.104	-0.514	0.171
-94.816	168.681	0.268	-0.376
-93.801	-59.645	-0.232	-0.098
-92.786	452.409	-0.052	-0.112
-91.772	252.397	-0.108	-0.181
-90.757	-83.631	0.156	-0.049
-89.743	-153.329	0.120	-0.008
-88.728	292.718	0.092	-0.165
-87.713	347.894	0.106	0.205
-86.699	-179.370	0.065	0.001
-85.684	-35.528	0.076	0.041
-84.670	-135.501	0.053	0.006
-83.655	-200.000	-0.032	-0.230
-82.640	147.045	0.140	-0.185
-81.626	48.959	-0.110	-0.102
-80.611	-25.145	-0.246	0.143
-79.597	159.845	0.214	0.293
-78.582	800.000	0.025	0.077
-77.567	383.907	-0.071	0.143
-76.553	95.840	0.154	-0.173
-75.538	22.479	0.303	-0.244
-74.524	153.399	-0.020	-0.027
-73.509	560.574	-0.064	0.153
-72.494	-200.000	-0.021	-0.300
-71.480	181.185	-0.236	0.340
-70.465	-200.000	-0.051	-0.246
-69.451	326.547	-0.061	-0.115
-68.436	-119.794	0.328	-0.056
-67.422	-200.000	-0.056	-0.296
-66.407	800.000	-0.045	-0.159
-65.392	137.771	-0.209	0.268
-64.378	13.534	0.230	0.176
-63.363	268.892	0.173	0.299
-62.349	-67.996	-0.147	0.056
-61.334	108.265	-0.626	-0.732
-60.319	-113.255	0.560	-0.108
-59.305	-200.000	-0.226	-1.282
-58.290	270.629	0.592	1.021
-57.276	671.691	0.541	1.376
-56.261	-200.000	97.949	602.290
-55.246	586.505	1422.834	3434.208
-54.232	187.714	2623.760	3842.876
-53.217	114.702	2182.687	2610.239
-52.203	41.615	1713.115	1522.090
-51.188	33.865	1524.704	1301.789
-50.173	31.411	1498.627	1262.919
-49.159	51.004	1549.638	1441.000
-48.144	52.113	1567.780	1465.443
-47.130	34.075	1525.828	1303.982
-46.115	30.935	1510.374	1269.375
-45.100	30.673	1508.168	1265.684
-44.086	30.700	1505.743	1263.782
-43.071	30.664	1503.500	1261.607
-42.057	30.734	1501.881	1260.673
-41.042	30.729	1500.462	1259.400
-40.027	30.705	1499.445	1258.333
-39.013	30.579	1497.794	1256.048
-37.998	30.635	1496.244	1255.073
-36.984	30.697	1494.597	1254.061
-35.969	30.624	1493.379	1252.494
-34.954	30.622	1492.261	1251.499
-33.940	30.637	1490.729	1250.263
-32.925	30.652	1489.346	1249.155
-31.911	30.656	1488.354	1248.301
-30.896	30.736	1486.678	1247.383
-29.881	30.773	1485.352	1246.467
-28.867	30.773	1484.029	1245.303
-27.852	30.728	1482.884	1243.995
-26.838	30.721	1481.177	1242.470
-25.823	30.747	1479.831	1241.462
-24.809	30.674	1478.003	1239.391
-23.794	30.749	1476.771	1238.811
-22.779	30.684	1475.588	1237.333
-21.765	30.721	1474.334	1236.480
-20.750	30.761	1473.326	1235.854
-19.736	30.714	1472.291	1234.620
-18.721	30.636	1471.321	1233.245
-17.706	30.735	1469.909	1232.665
-16.692	30.674	1469.115	1231.549
-15.677	30.630	1467.937	1230.219
-14.663	30.713	1466.783	1229.750
-13.648	30.600	1466.530	1228.743
-12.633	30.600	1465.297	1227.663
-11.619	30.651	1464.466	1227.256
-10.604	30.560	1463.912	1226.142
-9.590	30.528	1463.017	1225.133
-8.575	30.606	1461.994	1224.741
-7.560	30.600	1461.264	1224.040
-6.546	30.576	1460.161	1222.909
-5.531	30.553	1459.014	1221.751
-4.517	30.582	1458.159	1221.178
-3.502	30.548	1457.395	1220.267
-2.487	30.649	1456.182	1219.866
-1.473	30.638	1454.603	1218.418
-0.458	30.584	1454.123	1217.619
0.556	28.242	1444.789	1207.984
1.571	25.890	1419.668	1171.604
2.586	23.098	1361.048	1105.702
3.600	21.920	1279.914	1032.768
4.615	20.486	1234.386	987.798
5.629	17.798	1179.273	928.994
6.644	9.191	1094.376	818.364
7.659	1.530	1052.195	749.115
8.673	0.170	1046.817	738.552
9.688	-0.138	1043.583	734.700
10.702	-0.046	1041.528	733.634
11.717	-0.115	1039.955	732.126
12.731	3.536	1044.233	752.914
13.746	12.515	1057.359	806.520
14.761	19.109	1066.231	845.720
15.775	20.893	1067.281	855.239
16.790	21.087	1066.696	855.649
17.804	20.951	1066.127	854.451
18.819	20.732	1065.193	852.554
19.834	20.855	1064.500	852.526
20.848	20.957	1064.225	852.725
21.863	21.115	1063.533	852.870
22.877	20.942	1063.450	851.882
23.892	20.997	1062.544	851.349
24.907	20.920	1061.791	850.297
25.921	20.926	1060.985	849.604
26.936	20.878	1060.636	849.016
27.950	20.899	1058.939	847.686
28.965	20.990	1057.782	847.124
29.980	20.749	1056.337	844.722
30.994	20.735	1055.199	843.673
32.009	20.843	1054.429	843.501
33.023	21.038	1053.483	843.617
34.038	20.792	1052.099	841.245
35.053	20.706	1051.903	840.599
36.067	20.967	1050.686	840.811
37.082	20.861	1050.186	839.826
38.096	21.075	1048.795	839.669
39.111	21.090	1048.674	839.570
40.126	21.321	1047.431	839.611
41.140	21.188	1046.053	837.795
42.155	20.868	1044.996	835.340
43.169	20.606	1043.814	833.062
44.184	20.614	1042.421	831.916
45.199	20.690	1041.793	831.707
46.213	20.763	1040.460	830.915
47.228	20.586	1039.502	829.234
48.242	20.771	1038.647	829.358
49.257	20.808	1038.239	829.137
50.271	20.899	1037.506	828.910
51.286	20.863	1037.210	828.431
52.301	20.841	1035.978	827.269
53.315	20.855	1035.760	827.085
54.330	21.045	1034.385	826.817
55.344	20.842	1033.639	825.187
56.359	20.951	1032.913	825.049
57.374	20.922	1032.072	824.167
58.388	20.802	1031.200	822.832
59.403	20.730	1030.228	821.645
60.417	20.777	1029.413	821.141
61.432	20.745	1028.431	820.134
62.447	20.711	1027.943	819.511
63.461	20.768	1027.493	819.351
64.476	20.831	1026.175	818.524
65.490	20.742	1025.434	817.440
66.505	20.646	1024.580	816.236
67.520	20.638	1024.148	815.786
68.534	20.811	1023.374	815.905
69.549	20.824	1021.722	814.577
70.563	20.339	1020.744	811.460
71.578	20.235	1020.149	810.428
72.593	20.427	1019.015	810.353
73.607	20.134	1017.918	808.042
74.622	20.198	1017.062	807.589
75.636	20.518	1016.366	808.452
76.651	20.670	1015.661	808.527
77.666	20.600	1014.711	807.375
78.680	20.444	1013.941	805.966
79.695	20.366	1013.692	805.335
80.709	20.472	1013.075	805.266
81.724	20.688	1012.066	805.392
82.739	20.587	1011.292	804.240
83.753	20.564	1010.494	803.426
84.768	20.775	1009.656	803.663
85.782	21.038	1009.535	804.708
86.797	21.384	1008.169	805.143
87.812	21.242	1007.702	804.047
88.826	21.090	1006.241	802.112
89.841	21.149	1005.430	801.663
90.855	21.237	1004.741	801.448
91.870	21.137	1004.612	800.815
92.884	21.173	1003.198	799.780
93.899	21.049	1002.283	798.415
94.914	21.066	1001.499	797.797
95.928	21.176	1000.794	797.667
96.943	21.202	999.638	796.793
97.957	20.935	998.294	794.436
98.972	20.678	997.374	792.462
99.987	20.500	996.593	790.962
101.001	20.601	996.376	791.176
102.016	20.914	995.587	791.904
103.030	20.895	994.801	791.125
104.045	20.733	994.006	789.687
105.060	20.798	991.993	788.312
106.074	20.675	990.632	786.602
107.089	20.622	990.264	786.004
108.103	20.913	990.163	787.166
109.118	21.009	989.197	786.764
110.133	20.688	988.070	784.353
111.147	20.869	986.501	783.850
112.162	20.742	985.286	782.245
113.176	20.422	984.239	779.907
114.191	20.589	983.501	780.001
115.206	20.592	983.391	779.860
116.220	20.382	981.459	777.320
117.235	20.223	980.907	776.100
118.249	20.371	980.419	776.310
119.264	20.566	979.144	776.102
120.279	20.255	978.286	773.964
121.293	20.253	977.362	773.157
122.308	20.315	976.880	772.983
123.322	20.430	975.914	772.660
124.337	20.510	974.683	771.975
125.352	20.351	973.372	770.160
126.366	19.906	971.855	766.924
127.381	19.733	970.195	764.778
128.395	20.020	970.560	766.269
129.410	20.799	970.012	769.210
130.424	20.864	969.081	768.690
131.439	20.877	967.769	767.640
132.454	20.827	966.970	766.720
133.468	20.880	966.194	766.267
134.483	20.775	965.220	764.965
135.497	20.792	964.599	764.481
136.512	21.045	963.947	765.007
137.527	21.277	962.806	765.051
138.541	21.114	962.285	763.853
139.556	21.210	961.297	763.421
140.570	21.130	960.673	762.509
141.585	21.170	959.823	761.945
142.600	21.210	958.986	761.387
143.614	21.249	957.880	760.611
144.629	21.160	957.333	759.721
145.643	21.463	956.541	760.343
146.658	21.261	955.971	758.944
147.673	20.979	954.511	756.495
148.687	21.038	953.483	755.868
149.702	20.950	952.516	754.653
150.716	20.921	951.459	753.624
151.731	20.866	950.393	752.477
152.746	20.915	949.865	752.203
153.760	21.189	949.212	752.800
154.775	21.311	948.133	752.404
155.789	21.377	947.260	751.927
156.804	21.244	946.354	750.571
157.819	21.259	945.332	749.759
158.833	21.317	944.838	749.549
159.848	21.316	943.786	748.644
160.862	21.405	943.181	748.481
161.877	21.320	942.062	747.162
162.892	21.092	941.384	745.585
163.906	21.272	940.523	745.603
164.921	21.283	939.702	744.933
165.935	21.203	938.619	743.670
166.950	21.348	937.350	743.213
167.964	21.260	936.923	742.436
168.979	21.185	935.744	741.119
169.994	21.187	934.550	740.115
171.008	21.017	934.053	738.935
172.023	21.289	932.866	739.084
173.037	21.327	932.298	738.729
174.052	21.103	931.201	736.847
175.067	20.946	930.324	735.427
176.081	20.930	929.407	734.570
177.096	20.996	929.028	734.481
178.110	21.199	927.794	734.295
179.125	20.880	926.609	731.952
180.140	20.698	925.537	730.279
181.154	20.645	925.205	729.727
182.169	20.738	924.528	729.518
183.183	21.002	924.539	730.570
184.198	21.366	923.787	731.432
185.213	21.244	922.904	730.160
186.227	21.136	922.761	729.532
187.242	21.202	922.342	729.413
188.256	21.168	921.346	728.417
189.271	21.339	920.262	728.207
190.286	21.359	919.837	727.891
191.300	21.185	918.475	726.026
192.315	20.715	917.389	723.150
193.329	20.100	915.696	719.199
194.344	19.745	914.670	716.860
195.359	20.247	915.061	719.183
196.373	20.888	915.448	722.082
197.388	21.183	915.391	723.194
198.402	21.082	914.916	722.337
199.417	21.011	914.012	721.265
200.432	21.226	913.212	721.458
201.446	21.100	912.329	720.178
202.461	20.758	911.840	718.316
203.475	20.790	911.220	717.897
204.490	20.338	909.452	714.580
205.504	19.310	907.347	708.639
206.519	19.668	907.898	710.478
207.534	20.597	908.106	714.397
208.548	20.719	907.437	714.308
209.563	21.153	907.062	715.731
210.577	21.148	906.234	714.994
211.592	20.860	905.466	713.147
212.607	21.256	905.531	714.754
213.621	21.182	904.877	713.874
214.636	21.174	904.296	713.318
215.650	21.386	903.678	713.634
216.665	21.272	902.916	712.504
217.680	21.155	902.825	711.889
218.694	21.352	902.131	712.082
219.709	21.011	900.918	709.677
220.723	20.746	899.797	707.652
221.738	20.990	899.453	708.311
222.753	21.075	899.457	708.596
223.767	21.036	898.336	707.492
224.782	21.164	897.497	707.288
225.796	21.433	896.962	707.894
226.811	21.558	896.460	707.940
227.826	20.986	895.357	704.695
228.840	20.333	893.535	700.564
229.855	20.166	893.082	699.473
230.869	20.495	892.853	700.557
231.884	20.161	891.645	698.202
232.899	20.231	891.327	698.176
233.913	20.994	891.424	701.258
234.928	21.164	891.296	701.778
235.942	21.187	890.141	700.900
236.957	21.136	889.340	700.004
237.972	20.820	888.527	698.034
238.986	20.792	887.719	697.226
240.001	20.831	887.083	696.822
241.015	20.881	886.432	696.446
242.030	20.852	885.927	695.873
243.045	20.954	885.335	695.754
244.059	21.132	885.177	696.279
245.074	21.404	884.255	696.575
246.088	21.284	883.547	695.479
247.103	20.827	882.659	692.902
248.117	21.011	882.000	693.055
249.132	21.462	882.323	695.040
250.147	21.738	882.221	695.993
251.161	21.741	881.477	695.355
252.176	21.967	880.912	695.746
253.190	21.901	880.070	694.756
254.205	22.060	879.827	695.134
255.220	22.087	879.373	694.820
256.234	22.214	878.583	694.635
257.249	22.255	877.213	693.654
258.263	21.991	877.051	692.423
259.278	21.869	876.434	691.392
260.293	22.046	876.132	691.790
261.307	22.109	875.843	691.750
262.322	21.909	874.959	690.201
263.336	21.771	874.306	689.084
264.351	21.287	873.195	686.246
265.366	20.291	870.978	680.541
266.380	19.906	870.048	678.243
267.395	20.781	870.466	681.941
268.409	21.588	870.843	685.335
269.424	21.658	869.720	684.663
270.439	21.744	869.423	684.706
271.453	21.694	868.895	684.035
272.468	21.934	868.086	684.275
273.482	21.936	868.067	684.207
274.497	22.074	867.509	684.242
275.512	22.018	866.339	683.042
276.526	21.387	864.775	679.298
277.541	21.572	864.803	679.978
278.555	21.953	864.340	681.032
279.570	21.625	863.667	679.170
280.585	21.534	862.919	678.167
281.599	21.564	862.649	678.011
282.614	21.814	862.044	678.445
283.628	21.233	861.082	675.383
284.643	20.962	859.942	673.380
285.657	21.383	860.049	675.032
286.672	21.262	859.511	674.081
287.687	20.786	858.421	671.333
288.701	21.038	858.335	672.177
289.716	21.470	857.854	673.403
290.730	21.201	856.999	671.638
291.745	21.064	856.175	670.407
292.760	20.991	855.486	669.530
293.774	20.869	854.675	668.365
294.789	21.798	855.115	672.214
295.803	22.484	855.057	674.739
296.818	22.303	855.090	674.013
297.833	22.438	854.594	674.079
298.847	22.110	853.253	671.706
299.862	21.805	852.344	669.768
300.876	22.011	851.950	670.186
301.891	22.316	851.597	671.011
302.906	22.421	850.824	670.744
303.920	21.978	849.776	668.171
304.935	22.004	848.556	667.254
305.949	22.329	849.063	668.828
306.964	22.286	848.535	668.187
307.979	22.002	847.865	666.525
308.993	22.041	847.407	666.252
310.008	22.335	847.285	667.211
311.022	22.451	846.955	667.333
312.037	22.375	846.011	666.245
313.052	22.002	845.559	664.418
314.066	22.068	844.613	663.864
315.081	21.291	843.099	659.684
316.095	20.626	841.979	656.240
317.110	21.279	841.924	658.602
318.125	22.097	842.369	661.976
319.139	21.598	841.169	659.096
320.154	20.457	839.733	653.621
321.168	20.233	838.576	651.823
322.183	20.742	839.126	654.104
323.197	21.669	839.317	657.677
324.212	21.793	838.722	657.618
325.227	22.034	838.452	658.253
326.241	22.073	838.464	658.349
327.256	22.031	837.506	657.384
328.270	22.028	836.802	656.761
329.285	21.895	836.346	655.847
330.300	21.783	835.675	654.846
331.314	21.567	834.627	653.161
332.329	21.585	834.011	652.686
333.343	22.093	833.711	654.287
334.358	22.217	833.400	654.445
335.373	22.234	832.900	654.061
336.387	22.370	832.058	653.846
337.402	22.412	832.201	654.057
338.416	22.635	831.779	654.493
339.431	22.732	830.656	653.912
340.446	22.657	830.390	653.369
341.460	22.864	830.314	654.016
342.475	22.680	829.449	652.597
343.489	22.634	828.427	651.564
344.504	22.554	828.347	651.149
345.519	22.651	827.805	651.023
346.533	23.067	827.184	652.011
347.548	23.050	827.115	651.837
348.562	23.101	826.917	651.811
349.577	23.110	826.054	651.105
350.592	23.126	825.241	650.467
351.606	22.968	825.102	649.717
352.621	22.955	824.682	649.284
353.635	22.980	823.635	648.492
354.650	22.720	823.278	647.201
355.665	22.547	822.175	645.643
356.679	21.546	820.637	640.716
357.694	21.332	820.292	639.606
358.708	21.993	820.517	642.143
359.723	21.833	819.712	640.872
360.738	22.114	819.390	641.588
361.752	22.574	819.349	643.178
362.767	22.769	818.663	643.296
363.781	22.961	819.038	644.234
364.796	23.143	819.019	644.826
365.810	23.237	818.036	644.335
366.825	23.447	817.491	644.612
367.840	23.438	817.386	644.440
368.854	23.066	816.945	642.682
369.869	22.770	815.786	640.642
370.883	22.635	815.258	639.681
371.898	22.763	814.638	639.601
372.913	22.801	813.924	639.121
373.927	22.645	813.562	638.216
374.942	22.835	812.747	638.205
375.956	23.035	812.046	638.321
376.971	23.032	811.852	638.102
377.986	23.211	811.315	638.271
379.000	23.315	811.008	638.344
380.015	23.199	810.718	637.642
381.029	23.145	809.742	636.626
382.044	23.011	809.435	635.846
383.059	23.224	808.762	636.026
384.073	23.057	808.372	635.062
385.088	23.404	807.461	635.536
386.102	23.286	807.078	634.755
387.117	23.082	806.848	633.786
388.132	23.170	805.950	633.339
389.146	22.909	805.049	631.645
390.161	22.311	804.397	628.940
391.175	22.425	804.259	629.185
392.190	22.791	804.364	630.516
393.205	23.084	803.438	630.780
394.219	21.981	802.006	625.672
395.234	20.344	799.572	617.896
396.248	19.704	798.818	614.982
397.263	20.919	799.493	619.769
398.278	22.679	800.869	627.045
399.292	22.958	800.472	627.671
400.307	22.702	800.051	626.375
401.321	22.689	799.221	625.623
402.336	22.646	799.419	625.571
403.350	23.020	799.005	626.518
404.365	23.479	798.678	627.832
405.380	23.894	798.743	629.297
406.394	23.966	798.576	629.365
407.409	24.044	797.974	629.111
408.423	24.107	797.417	628.836
409.438	23.911	797.029	627.783
410.453	23.930	796.744	627.570
411.467	24.028	796.281	627.494
412.482	24.008	795.548	626.793
413.496	24.020	794.856	626.235
414.511	24.052	794.697	626.167
415.526	24.120	794.117	625.892
416.540	23.849	794.242	624.983
417.555	23.969	793.347	624.644
418.569	23.610	792.690	622.814
419.584	23.417	792.237	621.724
420.599	23.636	791.530	621.882
421.613	155.858	1365.690	1796.183
422.628	134.928	1449.351	1796.259
