DTS Sentinel unit serial number:	SN413079Multiplexer serial number:	ORYXHardware model number:	OX4-SRSoftware version number:	ORYX F/W v4.00 Oryx Data Collector v3.7.2.0data status	okinstallation	princeton_trtdifferential loss correction	single-endedforward channel	channel 3reverse channel	N/Adate	2019/09/13time	02:56:34forward acquisition time	60.00reverse acquisition time	0.00gamma	496.2192k internal	0.2334k external	0.2334temperature offset calibration	1.0143default loss term (dB/km)	0.3790temperature slope calibration	1.0000multiplexer offset coefficient	1.0000multiplexer slope coefficient	1.0000fibre end	0.00T internal ref (°C)	27.41T ext. ref 1 (°C)	4.05T ext. ref 2 (°C)	22.25length (m)	temperature (°C)	Stokes	anti-Stokes-747.200	-131.142	0.207	0.028
-746.185	-97.420	-0.440	0.115
-745.171	56.703	0.112	0.110
-744.156	-67.847	-0.115	-0.045
-743.142	9.538	-0.280	0.213
-742.127	-58.777	-0.134	0.058
-741.112	21.192	0.201	-0.164
-740.098	649.233	-0.083	-0.214
-739.083	-178.304	-0.259	-0.006
-738.069	-110.126	-0.128	-0.027
-737.054	-36.768	0.099	-0.054
-736.039	-28.034	-0.097	-0.056
-735.025	692.031	-0.044	0.116
-734.010	524.331	-0.134	-0.316
-732.996	9.404	-0.406	-0.309
-731.981	-74.755	0.086	0.031
-730.966	137.414	-0.093	-0.122
-729.952	-200.000	0.045	0.430
-728.937	6.587	-0.276	-0.206
-727.923	-130.307	-0.663	-0.090
-726.908	-14.948	-0.418	-0.269
-725.894	-30.068	0.311	0.178
-724.879	-171.800	-0.166	0.005
-723.864	470.893	-0.099	0.224
-722.850	185.897	-0.239	-0.357
-721.835	-196.422	-0.254	-0.002
-720.821	-40.343	-0.159	-0.083
-719.806	520.192	0.141	-0.331
-718.791	-145.714	-0.214	-0.019
-717.777	800.000	0.029	0.117
-716.762	76.524	-0.192	-0.205
-715.748	645.121	0.019	0.049
-714.733	-200.000	-0.023	0.145
-713.718	-59.696	0.215	-0.092
-712.704	-200.000	-0.044	-0.210
-711.689	130.642	-0.066	0.084
-710.675	-76.004	-0.088	-0.031
-709.660	-19.185	-0.184	-0.115
-708.645	98.574	-0.045	-0.052
-707.631	800.000	-0.041	-0.150
-706.616	208.829	0.082	-0.129
-705.602	800.000	-0.044	-0.145
-704.587	104.461	0.129	0.152
-703.572	-90.264	0.179	0.052
-702.558	-21.135	0.090	-0.055
-701.543	-75.154	-0.261	0.093
-700.529	63.015	-0.169	-0.170
-699.514	-52.381	0.223	0.104
-698.499	172.130	-0.185	-0.268
-697.485	122.593	0.153	0.192
-696.470	-200.000	0.008	-0.193
-695.456	-5.247	0.172	-0.119
-694.441	-54.083	-0.140	-0.064
-693.426	-10.161	-0.240	0.160
-692.412	-200.000	-0.054	-0.237
-691.397	-13.126	0.279	0.182
-690.383	352.446	-0.055	-0.110
-689.368	-68.619	-0.179	0.070
-688.354	183.179	-0.171	-0.253
-687.339	-200.000	-0.031	0.200
-686.324	-46.627	0.296	-0.145
-685.310	800.000	-0.029	0.103
-684.295	-99.927	0.192	0.048
-683.281	456.461	0.153	-0.341
-682.266	-135.265	-0.137	0.016
-681.251	-137.941	-0.067	0.007
-680.237	800.000	-0.030	0.103
-679.222	-200.000	0.011	-0.117
-678.208	125.619	0.214	-0.271
-677.193	241.847	0.127	-0.214
-676.178	18.481	-0.140	-0.112
-675.164	-77.133	0.269	0.094
-674.149	-200.000	0.042	0.217
-673.135	-17.274	-0.135	0.085
-672.120	289.294	-0.090	-0.163
-671.105	3.302	-0.107	-0.078
-670.091	-66.908	-0.184	-0.073
-669.076	117.239	-0.150	0.184
-668.062	-134.782	-0.113	0.014
-667.047	-200.000	-0.034	-0.185
-666.032	-200.000	-0.069	0.325
-665.018	-41.315	0.280	-0.145
-664.003	-4.283	-0.270	-0.187
-662.989	82.721	-0.073	-0.079
-661.974	31.099	-0.211	-0.182
-660.959	800.000	0.125	0.404
-659.945	-116.144	-0.289	-0.054
-658.930	68.524	-0.149	-0.153
-657.916	-200.000	0.002	-0.323
-656.901	-72.116	0.093	0.034
-655.886	74.412	0.227	0.239
-654.872	22.370	-0.159	0.131
-653.857	-97.496	0.203	0.053
-652.843	-83.987	0.231	-0.074
-651.828	-200.000	0.016	-0.167
-650.814	172.491	-0.110	-0.159
-649.799	-34.315	0.195	-0.107
-648.784	23.116	0.200	0.165
-647.770	333.716	-0.109	0.212
-646.755	184.376	-0.116	0.172
-645.741	450.628	0.105	0.231
-644.726	245.628	-0.145	-0.245
-643.711	-20.967	0.376	0.230
-642.697	-43.874	0.175	-0.088
-641.682	720.802	-0.051	0.135
-640.668	36.250	-0.052	0.046
-639.653	-13.634	-0.223	0.145
-638.638	-47.480	-0.334	0.162
-637.624	-81.593	0.083	0.027
-636.609	800.000	0.044	0.167
-635.595	-49.276	0.051	-0.024
-634.580	-200.000	0.005	-0.146
-633.565	430.468	0.073	-0.158
-632.551	-200.000	0.025	-0.146
-631.536	-94.930	0.392	-0.106
-630.522	20.517	-0.036	0.029
-629.507	-90.609	-0.382	-0.110
-628.492	-7.592	0.277	-0.187
-627.478	-73.165	0.452	0.166
-626.463	800.000	-0.053	-0.200
-625.449	-10.162	-0.173	-0.115
-624.434	-98.041	0.176	0.045
-623.419	-84.154	0.133	-0.042
-622.405	-193.704	0.145	0.001
-621.390	-96.891	-0.171	-0.045
-620.376	800.000	-0.031	-0.107
-619.361	294.205	0.049	0.089
-618.346	92.033	0.079	-0.089
-617.332	382.904	-0.051	-0.105
-616.317	83.529	-0.081	0.088
-615.303	-15.465	-0.454	-0.290
-614.288	23.989	-0.350	-0.289
-613.273	201.758	0.165	-0.254
-612.259	495.995	-0.173	-0.397
-611.244	-200.000	-0.007	0.181
-610.230	673.071	-0.021	0.054
-609.215	-200.000	-0.026	-0.226
-608.201	-112.370	0.390	0.078
-607.186	-74.646	-0.101	0.036
-606.171	771.177	0.033	0.089
-605.157	-200.000	-0.042	-0.205
-604.142	-23.330	-0.146	-0.088
-603.128	-200.000	0.009	0.062
-602.113	-2.463	0.058	0.041
-601.098	25.370	-0.197	-0.164
-600.084	-92.845	0.148	-0.041
-599.069	-200.000	-0.017	-0.312
-598.055	-46.462	0.238	-0.117
-597.040	185.921	-0.103	-0.154
-596.025	-200.000	0.001	0.063
-595.011	-200.000	-0.022	-0.128
-593.996	153.784	-0.184	-0.251
-592.982	80.740	0.082	0.088
-591.967	154.232	0.141	0.193
-590.952	800.000	0.018	0.054
-589.938	18.421	-0.143	-0.114
-588.923	-108.732	-0.333	-0.071
-587.909	151.200	-0.094	0.128
-586.894	-130.752	-0.114	0.015
-585.879	-109.136	0.114	-0.024
-584.865	-110.863	-0.265	-0.054
-583.850	-83.347	-0.285	0.091
-582.836	-25.871	0.181	-0.106
-581.821	-109.484	-0.328	0.069
-580.806	-35.988	0.169	-0.091
-579.792	256.879	0.100	0.172
-578.777	-200.000	-0.063	0.300
-577.763	-151.200	-0.453	0.034
-576.748	-200.000	0.044	0.194
-575.733	800.000	-0.064	-0.207
-574.719	30.684	0.194	-0.166
-573.704	800.000	-0.097	0.317
-572.690	58.977	0.075	-0.074
-571.675	17.395	-0.157	0.124
-570.661	757.327	-0.136	0.368
-569.646	-51.503	-0.318	-0.148
-568.631	-90.099	0.342	0.099
-567.617	421.465	-0.042	-0.090
-566.602	39.103	-0.385	-0.343
-565.588	-200.000	-0.009	0.129
-564.573	-62.606	-0.111	0.046
-563.558	800.000	0.028	-0.083
-562.544	351.281	-0.056	-0.112
-561.529	14.840	0.243	-0.190
-560.515	391.405	-0.011	0.023
-559.500	102.734	-0.150	-0.175
-558.485	-200.000	-0.002	-0.051
-557.471	478.381	-0.099	-0.223
-556.456	-44.824	-0.326	0.162
-555.442	-200.000	-0.003	-0.273
-554.427	56.196	-0.060	-0.058
-553.412	701.221	-0.039	-0.103
-552.398	-147.858	0.271	-0.023
-551.383	-70.175	-0.224	0.085
-550.369	-146.095	0.361	0.032
-549.354	-10.351	-0.254	0.168
-548.339	-193.182	-0.136	-0.001
-547.325	-164.287	-0.297	-0.014
-546.310	-200.000	-0.123	-0.000
-545.296	-200.000	-0.025	-0.222
-544.281	-140.633	-0.099	-0.010
-543.266	-139.553	0.286	-0.031
-542.252	-36.021	-0.175	0.094
-541.237	106.388	-0.139	0.164
-540.223	607.207	0.079	0.197
-539.208	-200.000	-0.024	-0.138
-538.193	-17.612	-0.108	0.068
-537.179	144.267	-0.116	0.154
-536.164	-149.327	-0.172	-0.014
-535.150	800.000	-0.142	-0.475
-534.135	800.000	-0.054	0.230
-533.121	-126.066	0.110	0.017
-532.106	-74.281	0.158	-0.057
-531.091	237.478	0.097	0.160
-530.077	-200.000	0.031	-0.147
-529.062	-3.527	-0.235	0.163
-528.048	-196.711	0.181	-0.001
-527.033	-83.567	0.331	0.105
-526.018	-53.976	-0.214	-0.097
-525.004	798.101	0.084	-0.230
-523.989	-200.000	-0.149	0.000
-522.975	-81.974	-0.107	0.035
-521.960	-51.187	0.048	0.022
-520.945	82.220	0.145	0.156
-519.931	800.000	0.043	0.182
-518.916	-96.990	0.254	0.066
-517.902	158.563	0.091	-0.126
-516.887	800.000	0.013	0.042
-515.872	316.728	0.118	0.221
-514.858	72.115	0.249	-0.258
-513.843	17.792	0.131	0.104
-512.829	-102.086	0.201	0.048
-511.814	800.000	-0.071	-0.237
-510.799	-3.683	-0.470	0.325
-509.785	800.000	-0.033	-0.140
-508.770	-23.162	0.084	-0.050
-507.756	-171.031	-0.272	-0.009
-506.741	73.750	0.126	-0.131
-505.726	-144.172	-0.285	0.027
-504.712	61.220	-0.069	0.068
-503.697	-200.000	-0.018	0.242
-502.683	453.582	-0.188	-0.415
-501.668	63.283	-0.204	-0.204
-500.653	800.000	0.064	0.248
-499.639	143.621	-0.057	0.076
-498.624	-42.883	0.090	-0.045
-497.610	31.993	0.127	-0.109
-496.595	-73.227	-0.280	0.102
-495.581	-200.000	-0.031	0.184
-494.566	-172.557	-0.266	0.008
-493.551	31.436	0.051	-0.044
-492.537	40.915	0.141	-0.127
-491.522	0.064	0.215	-0.152
-490.508	-160.268	0.187	-0.010
-489.493	-49.253	-0.234	0.111
-488.478	-98.598	-0.106	-0.027
-487.464	11.877	-0.054	-0.041
-486.449	-65.915	0.244	0.097
-485.435	800.000	0.021	0.075
-484.420	39.231	-0.218	0.194
-483.405	-200.000	-0.026	-0.213
-482.391	-19.612	-0.067	0.041
-481.376	800.000	-0.008	0.031
-480.362	76.280	0.093	0.098
-479.347	-81.812	0.536	-0.175
-478.332	800.000	-0.060	-0.215
-477.318	-8.096	-0.121	-0.081
-476.303	-78.595	0.118	0.040
-475.289	26.040	0.187	-0.155
-474.274	86.686	-0.078	0.085
-473.259	360.358	-0.059	0.117
-472.245	-42.387	0.190	0.096
-471.230	-59.965	0.175	-0.074
-470.216	-200.000	0.063	-0.328
-469.201	-11.452	-0.088	-0.057
-468.186	169.028	-0.133	-0.189
-467.172	274.599	-0.188	0.330
-466.157	117.091	0.125	0.153
-465.143	-200.000	-0.007	-0.035
-464.128	-200.000	0.005	-0.049
-463.113	133.531	0.077	0.099
-462.099	109.173	0.191	0.228
-461.084	-200.000	0.028	-0.198
-460.070	-127.517	0.050	0.007
-459.055	330.574	0.098	0.188
-458.040	800.000	0.084	0.238
-457.026	800.000	-0.122	0.383
-456.011	378.031	0.087	0.177
-454.997	-200.000	0.021	-0.102
-453.982	800.000	0.029	-0.108
-452.968	-101.007	-0.074	-0.018
-451.953	-200.000	-0.032	0.313
-450.938	800.000	0.023	0.091
-449.924	351.613	-0.034	0.066
-448.909	800.000	-0.112	0.349
-447.895	-200.000	0.006	-0.155
-446.880	595.722	0.037	0.091
-445.865	11.278	-0.305	0.232
-444.851	-200.000	0.009	-0.090
-443.836	-89.951	-0.145	-0.042
-442.822	327.811	-0.103	0.197
-441.807	-121.019	-0.323	0.054
-440.792	-200.000	-0.011	-0.050
-439.778	-28.250	0.179	-0.103
-438.763	108.758	0.092	0.109
-437.749	34.635	-0.111	-0.096
-436.734	-33.249	0.191	-0.105
-435.719	-200.000	-0.029	-0.181
-434.705	152.037	0.213	0.289
-433.690	-38.780	0.266	0.139
-432.676	-46.172	-0.250	0.122
-431.661	3.685	0.164	0.119
-430.646	-116.581	0.150	0.027
-429.632	110.062	-0.062	0.074
-428.617	-44.776	-0.140	0.069
-427.603	51.944	0.215	0.203
-426.588	-85.437	0.118	0.037
-425.573	342.902	-0.083	0.160
-424.559	-23.559	-0.209	0.124
-423.544	-37.713	0.184	0.097
-422.530	303.923	0.103	0.189
-421.515	81.747	-0.041	-0.044
-420.500	-43.972	-0.130	0.065
-419.486	-110.238	-0.338	-0.070
-418.471	92.981	0.111	-0.125
-417.457	800.000	-0.027	-0.094
-416.442	55.881	0.033	0.032
-415.428	143.449	-0.127	-0.167
-414.413	-36.661	0.110	0.059
-413.398	-102.751	-0.378	-0.089
-412.384	-200.000	-0.037	0.183
-411.369	46.620	0.170	0.156
-410.355	165.059	-0.117	-0.164
-409.340	-200.000	0.021	0.194
-408.325	153.050	0.108	-0.147
-407.311	-8.245	-0.069	-0.046
-406.296	-200.000	0.035	0.253
-405.282	-81.351	0.167	-0.055
-404.267	243.624	0.063	-0.105
-403.252	-146.241	0.065	0.006
-402.238	-144.696	-0.413	0.038
-401.223	427.351	0.096	0.206
-400.209	498.079	0.076	0.174
-399.194	63.612	-0.119	-0.119
-398.179	-200.000	-0.033	-0.187
-397.165	20.011	-0.048	-0.038
-396.150	623.184	-0.045	-0.114
-395.136	-81.751	0.363	0.118
-394.121	800.000	0.043	0.132
-393.106	44.437	-0.202	0.184
-392.092	800.000	-0.053	0.172
-391.077	-200.000	0.003	-0.018
-390.063	-143.946	-0.177	-0.016
-389.048	101.385	0.150	-0.173
-388.033	52.719	-0.044	-0.042
-387.019	23.601	-0.194	-0.159
-386.004	-126.252	-0.390	0.058
-384.990	-77.547	-0.135	-0.046
-383.975	-113.727	0.094	0.018
-382.960	-65.898	0.254	-0.101
-381.946	-8.511	0.241	-0.161
-380.931	-157.767	0.072	-0.004
-379.917	23.520	-0.079	0.065
-378.902	427.457	-0.081	-0.172
-377.888	-72.774	-0.134	-0.049
-376.873	-153.374	0.231	0.016
-375.858	-200.000	0.008	-0.110
-374.844	-71.733	0.157	0.058
-373.829	800.000	0.048	-0.204
-372.815	24.146	-0.249	-0.203
-371.800	306.741	0.039	-0.073
-370.785	36.849	-0.222	-0.195
-369.771	-61.670	0.106	-0.044
-368.756	98.302	-0.306	-0.350
-367.742	-18.568	0.203	-0.125
-366.727	19.522	-0.273	0.217
-365.712	-121.956	0.265	0.043
-364.698	800.000	0.052	-0.144
-363.683	-27.463	-0.248	0.143
-362.669	104.045	0.278	0.323
-361.654	3.241	0.171	0.123
-360.639	-200.000	0.234	-0.001
-359.625	-65.224	-0.535	-0.213
-358.610	-63.414	-0.318	-0.129
-357.596	72.380	-0.267	0.275
-356.581	-200.000	-0.012	-0.379
-355.566	267.358	0.041	0.071
-354.552	-13.972	-0.204	0.130
-353.537	70.878	0.200	-0.205
-352.523	719.099	0.082	0.216
-351.508	65.299	0.100	0.100
-350.493	-127.001	-0.147	-0.021
-349.479	-200.000	-0.022	-0.186
-348.464	1.989	0.263	0.188
-347.450	166.349	-0.033	-0.046
-346.435	-22.109	0.331	0.199
-345.420	800.000	-0.044	-0.121
-344.406	-11.505	0.259	0.168
-343.391	32.322	-0.166	0.141
-342.377	-33.154	0.185	-0.102
-341.362	800.000	0.062	0.256
-340.348	-87.844	-0.034	-0.010
-339.333	272.677	0.055	-0.095
-338.318	346.090	0.122	0.236
-337.304	131.605	0.199	0.254
-336.289	-151.170	-0.095	-0.007
-335.275	-11.615	-0.162	0.105
-334.260	-200.000	0.038	0.370
-333.245	33.430	0.171	0.147
-332.231	-200.000	-0.061	0.283
-331.216	-81.060	-0.224	-0.073
-330.202	201.076	-0.178	-0.271
-329.187	-48.595	0.089	0.042
-328.172	-200.000	-0.037	-0.250
-327.158	218.374	-0.090	0.142
-326.143	-80.190	-0.134	-0.044
-325.129	-200.000	-0.016	0.098
-324.114	-200.000	0.032	0.181
-323.099	142.868	0.170	-0.223
-322.085	-35.941	-0.380	-0.203
-321.070	195.384	-0.033	-0.050
-320.056	-200.000	0.030	0.313
-319.041	31.524	0.089	0.076
-318.026	768.025	0.060	0.163
-317.012	-164.127	0.276	-0.013
-315.997	90.977	0.169	0.187
-314.983	-200.000	0.006	0.029
-313.968	88.766	-0.178	0.195
-312.953	10.555	-0.130	-0.098
-311.939	3.178	-0.128	-0.092
-310.924	380.369	-0.076	-0.155
-309.910	444.457	0.180	0.391
-308.895	677.628	0.065	0.167
-307.880	-200.000	-0.002	-0.056
-306.866	-65.976	-0.138	-0.055
-305.851	251.984	-0.109	-0.184
-304.837	34.076	-0.219	-0.189
-303.822	-118.594	0.074	-0.013
-302.807	-200.000	-0.015	0.448
-301.793	-68.340	0.225	-0.086
-300.778	-167.322	0.082	0.003
-299.764	81.995	-0.105	0.113
-298.749	208.210	0.196	-0.302
-297.735	101.132	0.057	0.066
-296.720	-175.829	0.135	-0.004
-295.705	126.849	-0.083	0.104
-294.691	15.136	-0.102	0.079
-293.676	107.269	-0.078	0.092
-292.662	151.785	0.101	0.136
-291.647	-39.460	-0.149	0.077
-290.632	-24.345	-0.336	0.198
-289.618	50.888	0.185	0.173
-288.603	487.141	-0.102	-0.230
-287.589	-115.094	0.309	-0.058
-286.574	96.930	0.016	0.019
-285.559	800.000	0.065	0.237
-284.545	32.452	-0.064	0.055
-283.530	31.107	0.364	0.308
-282.516	-71.424	-0.237	-0.088
-281.501	-144.862	-0.065	-0.006
-280.486	132.269	0.278	-0.354
-279.472	-75.501	0.333	-0.117
-278.457	111.406	-0.142	-0.168
-277.443	-63.178	-0.042	-0.017
-276.428	-6.786	0.031	-0.021
-275.413	17.875	0.310	-0.243
-274.399	-54.469	0.219	-0.098
-273.384	239.419	-0.104	0.171
-272.370	-109.109	-0.157	0.033
-271.355	-48.598	-0.089	-0.042
-270.340	-90.586	-0.010	0.003
-269.326	-9.592	0.153	0.101
-268.311	-175.442	0.375	-0.010
-267.297	-154.103	0.245	-0.016
-266.282	-60.851	-0.234	0.098
-265.267	-21.769	0.289	-0.173
-264.253	-200.000	-0.019	-0.202
-263.238	-143.740	-0.138	-0.013
-262.224	269.395	-0.084	-0.146
-261.209	-49.355	-0.121	-0.057
-260.195	41.061	0.090	0.080
-259.180	-200.000	-0.014	-0.087
-258.165	107.512	-0.070	0.082
-257.151	82.518	0.042	-0.045
-256.136	370.217	-0.029	-0.058
-255.122	-173.488	-0.163	-0.005
-254.107	229.631	0.060	-0.096
-253.092	77.889	0.271	-0.285
-252.078	569.005	-0.056	-0.133
-251.063	-200.000	0.036	0.176
-250.049	36.136	0.241	0.210
-249.034	-45.392	0.342	-0.167
-248.019	-13.258	0.112	-0.071
-247.005	-69.765	-0.118	-0.044
-245.990	-74.602	0.251	-0.089
-244.976	-1.968	-0.470	-0.326
-243.961	-83.330	-0.113	0.036
-242.946	405.319	0.010	-0.021
-241.932	-29.836	0.173	-0.097
-240.917	79.576	-0.085	0.090
-239.903	-200.000	0.025	0.144
-238.888	-12.161	0.101	-0.065
-237.873	-17.830	0.201	0.124
-236.859	-124.122	-0.173	0.027
-235.844	21.271	-0.160	-0.128
-234.830	-200.000	0.017	0.073
-233.815	144.432	0.053	0.070
-232.800	472.230	-0.081	0.179
-231.786	-102.098	-0.153	-0.036
-230.771	722.406	0.028	-0.073
-229.757	295.017	-0.132	-0.238
-228.742	800.000	0.048	-0.149
-227.727	69.841	0.235	-0.239
-226.713	309.810	0.097	0.179
-225.698	-200.000	0.031	0.176
-224.684	-200.000	0.056	-0.540
-223.669	-200.000	0.088	0.404
-222.655	211.227	-0.073	0.114
-221.640	-68.233	0.435	0.167
-220.625	-58.703	-0.224	0.096
-219.611	10.251	-0.148	-0.111
-218.596	-97.446	-0.163	0.042
-217.582	800.000	-0.034	-0.114
-216.567	27.637	0.233	0.193
-215.552	215.306	-0.118	0.184
-214.538	-48.060	0.083	0.039
-213.523	-81.906	-0.110	0.035
-212.509	-82.115	-0.132	0.042
-211.494	352.467	0.141	-0.276
-210.479	254.927	-0.093	0.158
-209.465	76.109	-0.105	-0.109
-208.450	-8.401	0.216	-0.143
-207.436	-200.000	0.003	0.201
-206.421	-50.651	0.235	-0.109
-205.406	595.028	0.041	0.101
-204.392	800.000	0.028	0.084
-203.377	-87.295	0.522	-0.156
-202.363	754.450	-0.082	0.219
-201.348	-200.000	0.052	0.316
-200.333	385.637	-0.137	0.278
-199.319	480.039	0.119	-0.266
-198.304	-63.166	0.217	-0.088
-197.290	-65.567	-0.171	0.068
-196.275	-200.000	-0.002	-0.269
-195.260	605.516	0.111	-0.272
-194.246	-200.000	0.297	0.000
-193.231	-200.000	-0.007	0.050
-192.217	800.000	0.107	-0.372
-191.202	77.178	-0.027	-0.028
-190.187	-40.767	0.385	-0.196
-189.173	-141.148	-0.149	-0.015
-188.158	353.255	-0.079	-0.155
-187.144	88.153	0.089	0.097
-186.129	252.004	0.095	-0.159
-185.114	52.637	-0.173	-0.162
-184.100	-112.171	0.206	0.041
-183.085	-200.000	0.013	0.104
-182.071	-24.803	-0.272	0.159
-181.056	800.000	0.069	-0.270
-180.042	221.997	0.130	0.206
-179.027	-200.000	-0.028	-0.241
-178.012	-131.793	-0.161	-0.021
-176.998	128.948	-0.112	-0.140
-175.983	289.164	-0.107	-0.190
-174.969	-200.000	-0.001	0.121
-173.954	58.992	0.131	0.127
-172.939	-137.297	0.058	0.007
-171.925	800.000	0.063	0.189
-170.910	627.029	-0.102	-0.253
-169.896	316.348	-0.121	-0.225
-168.881	800.000	0.046	0.179
-167.866	-196.332	-0.302	-0.002
-166.852	800.000	0.164	-0.482
-165.837	178.962	0.129	-0.186
-164.823	193.982	0.075	0.112
-163.808	175.396	-0.067	0.095
-162.793	-200.000	-0.052	0.363
-161.779	-45.925	0.196	-0.095
-160.764	-58.498	0.119	0.051
-159.750	448.272	0.122	0.265
-158.735	232.689	0.196	-0.317
-157.720	-200.000	0.044	-0.294
-156.706	455.219	0.019	-0.041
-155.691	-117.774	-0.508	-0.090
-154.677	-127.730	0.126	0.018
-153.662	249.568	0.139	0.232
-152.647	116.879	-0.233	0.281
-151.633	-134.894	-0.103	0.012
-150.618	108.327	-0.246	-0.288
-149.604	-200.000	-0.054	0.436
-148.589	800.000	0.094	-0.397
-147.574	2.625	-0.172	0.122
-146.560	332.671	0.097	0.184
-145.545	103.119	0.054	0.062
-144.531	-74.662	-0.161	-0.057
-143.516	9.943	-0.234	-0.174
-142.502	-35.573	-0.277	-0.148
-141.487	800.000	-0.034	0.130
-140.472	-23.729	0.233	-0.137
-139.458	-45.909	-0.099	0.048
-138.443	-100.336	-0.150	-0.037
-137.429	-200.000	-0.027	0.166
-136.414	-98.295	0.381	0.096
-135.399	138.085	-0.094	-0.121
-134.385	460.986	0.106	0.233
-133.370	800.000	0.031	-0.094
-132.356	-200.000	-0.003	0.471
-131.341	-200.000	0.028	-0.146
-130.326	-200.000	0.072	0.000
-129.312	-116.500	0.206	-0.037
-128.297	170.736	0.125	0.176
-127.283	17.070	0.172	0.134
-126.268	-164.248	-0.342	-0.015
-125.253	-178.496	0.172	0.004
-124.239	-85.074	-0.722	0.222
-123.224	-200.000	-0.033	0.186
-122.210	80.519	0.099	-0.105
-121.195	-83.454	-0.115	0.036
-120.180	-140.690	0.384	0.039
-119.166	-123.987	0.080	0.012
-118.151	-67.487	0.245	-0.094
-117.137	-149.712	-0.301	-0.023
-116.122	-200.000	0.028	0.237
-115.107	800.000	-0.107	0.298
-114.093	153.930	-0.091	-0.122
-113.078	21.779	-0.113	-0.090
-112.064	800.000	-0.024	-0.086
-111.049	29.607	-0.373	0.311
-110.034	-200.000	0.007	-0.152
-109.020	-130.841	0.378	-0.050
-108.005	-200.000	0.045	0.270
-106.991	-25.161	0.035	0.020
-105.976	-200.000	-0.003	-0.108
-104.962	259.357	0.188	0.318
-103.947	14.331	-0.335	0.256
-102.932	53.604	0.162	-0.153
-101.918	234.586	0.106	-0.171
-100.903	-133.932	-0.060	0.007
-99.889	-200.000	0.001	0.205
-98.874	171.405	-0.326	-0.458
-97.859	67.216	0.245	-0.245
-96.845	-61.210	-0.079	-0.033
-95.830	-56.622	-0.241	-0.105
-94.816	-191.239	-0.403	0.004
-93.801	-80.206	0.083	-0.027
-92.786	159.692	0.095	0.129
-91.772	-200.000	-0.006	0.265
-90.757	80.680	-0.189	-0.200
-89.743	8.593	0.159	-0.118
-88.728	-200.000	-0.015	0.169
-87.713	-129.819	-0.145	0.020
-86.699	81.643	-0.093	-0.098
-85.684	35.096	-0.144	-0.123
-84.670	-102.672	-0.277	-0.065
-83.655	585.676	0.009	0.022
-82.640	-74.474	0.174	-0.061
-81.626	-24.546	0.258	-0.150
-80.611	100.689	-0.156	0.177
-79.597	718.853	0.080	0.207
-78.582	-126.305	0.363	-0.053
-77.567	-200.000	0.000	-0.035
-76.553	-200.000	-0.001	-0.098
-75.538	-152.013	-0.174	0.012
-74.524	563.560	-0.078	-0.184
-73.509	368.198	0.025	0.050
-72.494	-200.000	-0.037	-0.225
-71.480	-156.301	-0.236	0.015
-70.465	30.159	0.048	-0.040
-69.451	266.263	-0.038	0.065
-68.436	565.611	0.133	0.315
-67.422	-200.000	0.011	0.096
-66.407	139.198	-0.144	-0.186
-65.392	-28.384	0.365	-0.206
-64.378	52.466	-0.191	-0.178
-63.363	-200.000	-0.062	0.429
-62.349	800.000	0.057	0.153
-61.334	29.707	-0.992	-0.826
-60.319	697.458	0.299	0.769
-59.305	344.168	-0.545	-1.046
-58.290	419.170	0.640	1.339
-57.276	615.664	0.520	1.275
-56.261	-200.000	114.364	658.074
-55.246	542.641	1522.881	3553.281
-54.232	178.858	2688.408	3844.466
-53.217	108.434	2172.144	2536.412
-52.203	37.925	1698.298	1476.786
-51.188	30.549	1516.859	1268.837
-50.173	28.289	1492.431	1233.157
-49.159	52.297	1550.777	1446.752
-48.144	50.790	1566.017	1450.589
-47.130	30.785	1522.136	1274.665
-46.115	27.694	1506.960	1240.915
-45.100	27.414	1504.306	1236.777
-44.086	27.437	1502.033	1235.017
-43.071	27.461	1500.180	1233.607
-42.057	27.362	1498.473	1231.483
-41.042	27.441	1497.328	1231.027
-40.027	27.315	1495.958	1229.002
-39.013	27.305	1494.070	1227.332
-37.998	27.326	1493.056	1226.594
-36.984	27.281	1491.965	1225.344
-35.969	27.443	1489.806	1224.616
-34.954	27.406	1489.095	1223.734
-33.940	27.285	1487.976	1221.950
-32.925	27.492	1485.799	1221.503
-31.911	27.400	1485.299	1220.428
-30.896	27.415	1483.725	1219.185
-29.881	27.395	1482.345	1217.871
-28.867	27.444	1480.902	1216.960
-27.852	27.405	1480.027	1215.933
-26.838	27.503	1478.392	1215.195
-25.823	27.461	1477.118	1213.821
-24.809	27.567	1474.730	1212.515
-23.794	27.445	1474.630	1211.573
-22.779	27.436	1473.683	1210.690
-21.765	27.483	1471.850	1209.450
-20.750	27.430	1470.855	1208.226
-19.736	27.504	1469.990	1207.959
-18.721	27.405	1468.802	1206.282
-17.706	27.414	1467.898	1205.548
-16.692	27.437	1466.297	1204.339
-15.677	27.376	1465.700	1203.398
-14.663	27.422	1464.447	1202.626
-13.648	27.341	1464.230	1201.863
-12.633	27.418	1462.676	1201.053
-11.619	27.389	1462.684	1200.815
-10.604	27.392	1461.380	1199.717
-9.590	27.373	1460.508	1198.830
-8.575	27.421	1459.358	1198.158
-7.560	27.442	1458.435	1197.486
-6.546	27.391	1457.583	1196.404
-5.531	27.401	1456.815	1195.797
-4.517	27.444	1455.629	1195.053
-3.502	27.349	1454.645	1193.576
-2.487	27.470	1453.639	1193.500
-1.473	27.412	1452.671	1192.274
-0.458	27.408	1451.473	1191.218
0.556	29.145	1441.806	1179.441
1.571	26.146	1417.062	1140.184
2.586	22.968	1359.895	1074.795
3.600	21.212	1279.629	1001.210
4.615	19.869	1233.618	957.693
5.629	17.338	1177.579	900.721
6.644	10.427	1094.805	803.192
7.659	5.003	1056.909	749.310
8.673	4.296	1051.758	742.209
9.688	4.020	1048.664	738.647
10.702	3.947	1046.998	737.060
11.717	3.947	1045.140	735.688
12.731	6.457	1046.792	748.721
13.746	14.013	1057.556	792.511
14.761	20.724	1066.445	831.270
15.775	22.865	1068.080	842.696
16.790	22.508	1066.542	839.705
17.804	21.487	1064.293	833.005
18.819	20.613	1063.429	828.095
19.834	20.350	1061.591	825.340
20.848	20.307	1060.928	824.548
21.863	20.461	1060.327	824.738
22.877	20.318	1060.075	823.788
23.892	20.043	1059.330	821.832
24.907	19.923	1058.467	820.524
25.921	19.867	1057.672	819.567
26.936	19.800	1056.677	818.409
27.950	19.748	1055.895	817.484
28.965	19.763	1054.630	816.504
29.980	19.954	1053.189	816.215
30.994	20.082	1052.490	816.206
32.009	20.263	1052.113	816.694
33.023	20.282	1051.367	816.133
34.038	20.293	1050.399	815.358
35.053	20.189	1049.052	813.751
36.067	20.040	1047.873	812.068
37.082	19.784	1047.602	810.587
38.096	19.875	1046.876	810.381
39.111	20.159	1045.876	810.864
40.126	20.188	1045.399	810.556
41.140	20.116	1043.765	808.880
42.155	19.786	1042.266	806.111
43.169	19.426	1042.006	804.159
44.184	19.419	1040.445	802.850
45.199	19.365	1039.281	801.629
46.213	19.346	1039.016	801.268
47.228	19.526	1037.703	801.019
48.242	19.876	1037.327	802.280
49.257	20.106	1036.678	802.775
50.271	20.048	1035.378	801.427
51.286	20.069	1034.665	800.904
52.301	20.156	1034.165	800.846
53.315	20.045	1034.018	800.150
54.330	19.888	1032.735	798.359
55.344	19.753	1031.329	796.581
56.359	19.632	1030.884	795.609
57.374	19.610	1029.727	794.546
58.388	19.751	1028.444	794.134
59.403	19.521	1028.091	792.732
60.417	19.552	1027.105	792.044
61.432	19.401	1026.580	790.880
62.447	19.462	1025.702	790.413
63.461	19.238	1025.261	788.977
64.476	19.240	1023.753	787.757
65.490	19.213	1022.779	786.813
66.505	19.205	1022.218	786.274
67.520	19.163	1021.659	785.586
68.534	19.394	1020.661	785.798
69.549	19.245	1020.101	784.621
70.563	19.213	1019.427	783.885
71.578	19.214	1018.302	782.958
72.593	18.988	1017.592	781.317
73.607	18.784	1016.351	779.369
74.622	18.796	1015.568	778.751
75.636	19.007	1014.494	778.815
76.651	18.984	1013.912	778.196
77.666	18.996	1013.534	777.892
78.680	19.068	1012.352	777.242
79.695	19.105	1011.765	776.889
80.709	19.068	1011.494	776.446
81.724	19.433	1010.410	777.188
82.739	19.396	1010.152	776.755
83.753	19.455	1009.564	776.501
84.768	19.768	1008.995	777.398
85.782	20.358	1008.145	779.327
86.797	20.515	1008.100	779.925
87.812	20.291	1007.816	778.631
88.826	20.259	1006.249	777.209
89.841	20.114	1005.481	775.899
90.855	20.188	1004.900	775.715
91.870	20.399	1003.731	775.684
92.884	20.403	1003.543	775.489
93.899	20.345	1002.925	774.684
94.914	20.338	1001.564	773.532
95.928	20.291	1000.972	772.797
96.943	20.387	1000.136	772.512
97.957	20.168	999.424	770.919
98.972	20.093	998.268	769.627
99.987	20.148	997.769	769.418
101.001	20.330	997.045	769.600
102.016	20.221	996.160	768.363
103.030	20.194	994.913	767.215
104.045	20.189	994.251	766.613
105.060	20.127	993.670	765.823
106.074	20.170	992.397	764.964
107.089	19.705	991.441	762.109
108.103	19.467	990.526	760.291
109.118	19.392	989.016	758.735
110.133	19.226	988.417	757.480
111.147	19.178	987.345	756.378
112.162	19.367	985.658	755.850
113.176	19.198	985.271	754.743
114.191	19.420	985.081	755.503
115.206	19.536	984.392	755.415
116.220	19.521	983.183	754.357
117.235	19.341	982.467	752.955
118.249	19.468	981.745	752.889
119.264	19.357	981.128	751.865
120.279	19.262	979.863	750.413
121.293	19.099	979.210	749.141
122.308	19.109	978.167	748.318
123.322	18.973	977.528	747.173
124.337	18.897	976.056	745.652
125.352	18.781	975.302	744.506
126.366	18.927	973.907	744.008
127.381	18.934	973.336	743.536
128.395	19.071	972.261	743.242
129.410	19.123	971.359	742.711
130.424	19.118	970.530	741.989
131.439	19.042	970.239	741.374
132.454	19.352	969.251	741.887
133.468	19.349	968.798	741.464
134.483	19.436	967.988	741.149
135.497	19.389	967.426	740.454
136.512	19.527	966.825	740.518
137.527	19.431	966.009	739.419
138.541	19.447	965.223	738.820
139.556	19.533	964.419	738.508
140.570	19.571	963.836	738.156
141.585	19.562	963.737	737.977
142.600	19.983	962.946	739.103
143.614	20.148	962.077	739.074
144.629	20.164	961.629	738.732
145.643	20.259	960.992	738.581
146.658	20.232	959.667	737.386
147.673	19.900	958.195	734.781
148.687	19.938	956.973	733.938
149.702	19.756	956.327	732.606
150.716	19.463	955.627	730.765
151.731	19.451	954.382	729.696
152.746	19.567	953.897	729.751
153.760	19.631	953.146	729.382
154.775	19.677	952.418	728.955
155.789	19.668	951.900	728.455
156.804	19.604	951.424	727.757
157.819	19.850	950.299	727.868
158.833	19.943	949.632	727.685
159.848	20.018	948.985	727.438
160.862	20.211	948.841	728.075
161.877	20.336	947.782	727.720
162.892	19.852	946.545	724.681
163.906	19.486	945.673	722.418
164.921	19.482	944.312	721.297
165.935	19.470	943.592	720.633
166.950	19.587	942.639	720.330
167.964	19.803	941.854	720.565
168.979	19.794	941.104	719.891
169.994	19.537	939.921	717.854
171.008	19.457	939.284	716.970
172.023	19.632	938.084	716.718
173.037	19.817	938.019	717.373
174.052	20.089	937.334	717.914
175.067	20.035	936.338	716.863
176.081	19.755	935.228	714.793
177.096	19.507	934.017	712.780
178.110	19.436	933.226	711.822
179.125	19.402	932.808	711.299
180.140	19.647	931.745	711.432
181.154	19.610	931.991	711.405
182.169	19.795	931.113	711.433
183.183	19.964	930.725	711.769
184.198	20.009	930.217	711.502
185.213	20.054	929.360	710.969
186.227	19.985	928.909	710.278
187.242	20.083	928.300	710.149
188.256	20.252	927.845	710.432
189.271	20.357	926.813	710.008
190.286	20.318	926.484	709.532
191.300	20.266	925.163	708.248
192.315	19.531	923.863	704.193
193.329	19.315	923.185	702.732
194.344	19.187	922.999	702.007
195.359	19.454	922.596	702.725
196.373	19.528	922.410	702.825
197.388	19.728	921.461	702.853
198.402	20.058	921.243	703.963
199.417	20.148	920.837	703.957
200.432	20.376	920.289	704.403
201.446	20.568	920.008	704.903
202.461	20.788	919.917	705.664
203.475	20.706	919.577	705.007
204.490	20.736	918.639	704.347
205.504	20.314	917.565	701.756
206.519	20.134	916.183	699.908
207.534	20.020	915.817	699.105
208.548	20.067	915.170	698.741
209.563	19.994	914.428	697.818
210.577	20.118	913.792	697.771
211.592	20.157	912.981	697.249
212.607	20.385	912.725	697.904
213.621	20.512	912.477	698.166
214.636	20.609	911.510	697.753
215.650	20.384	910.918	696.334
216.665	20.357	910.074	695.522
217.680	20.493	909.564	695.614
218.694	20.530	909.728	695.824
219.709	20.617	909.339	695.813
220.723	20.675	908.271	695.168
221.738	20.379	907.451	693.296
222.753	20.496	906.566	693.024
223.767	20.519	905.819	692.484
224.782	20.592	904.939	692.039
225.796	20.586	905.126	692.100
226.811	20.847	903.886	692.129
227.826	20.714	903.701	691.395
228.840	20.434	902.673	689.438
229.855	20.499	901.455	688.704
230.869	20.382	901.081	687.894
231.884	20.319	900.731	687.316
232.899	20.371	899.541	686.554
233.913	20.200	899.037	685.431
234.928	20.040	898.381	684.239
235.942	20.102	897.112	683.458
236.957	20.056	896.726	682.918
237.972	19.911	896.005	681.738
238.986	19.990	895.391	681.525
240.001	20.018	894.828	681.142
241.015	20.103	894.046	680.822
242.030	20.091	893.605	680.380
243.045	20.187	893.052	680.274
244.059	20.314	892.737	680.473
245.074	20.407	892.056	680.258
246.088	20.404	891.315	679.621
247.103	20.542	890.869	679.759
248.117	20.655	890.657	679.979
249.132	20.875	890.513	680.670
250.147	21.172	890.120	681.470
251.161	21.537	889.393	682.276
252.176	21.549	888.771	681.784
253.190	21.514	888.324	681.244
254.205	21.654	887.941	681.435
255.220	21.648	887.517	681.028
256.234	21.658	886.442	680.181
257.249	21.463	886.083	679.087
258.263	21.455	885.757	678.747
259.278	21.365	884.860	677.651
260.293	21.408	884.236	677.280
261.307	21.413	883.980	677.042
262.322	21.627	883.575	677.500
263.336	21.808	882.629	677.413
264.351	21.719	881.883	676.438
265.366	21.561	881.655	675.594
266.380	21.628	881.116	675.381
267.395	21.727	879.982	674.833
268.409	21.577	879.580	673.886
269.424	21.496	878.306	672.538
270.439	21.490	877.874	672.127
271.453	21.369	877.223	671.102
272.468	21.228	876.550	669.990
273.482	21.295	875.534	669.409
274.497	21.119	875.081	668.329
275.512	21.230	874.434	668.202
276.526	21.136	873.985	667.438
277.541	21.254	872.876	666.985
278.555	21.325	872.499	666.909
279.570	21.373	872.531	667.055
280.585	21.612	871.888	667.417
281.599	21.666	871.473	667.245
282.614	21.643	870.313	666.211
283.628	21.437	869.696	664.896
284.643	21.214	869.596	663.916
285.657	21.384	868.408	663.592
286.672	21.511	867.936	663.655
287.687	21.348	867.695	662.795
288.701	21.456	867.009	662.621
289.716	21.375	866.541	661.900
290.730	21.249	866.225	661.123
291.745	21.459	865.202	661.075
292.760	21.452	864.916	660.772
293.774	21.555	864.034	660.431
294.789	21.780	863.802	661.044
295.803	21.719	863.609	660.606
296.818	21.352	862.573	658.372
297.833	21.394	861.574	657.710
298.847	21.395	860.834	657.093
299.862	21.430	860.304	656.761
300.876	21.506	859.775	656.582
301.891	21.735	859.067	656.843
302.906	21.762	858.608	656.534
303.920	21.942	858.019	656.701
304.935	22.080	858.107	657.226
305.949	22.289	857.423	657.424
306.964	22.145	857.000	656.503
307.979	21.782	856.107	654.406
308.993	21.863	855.453	654.150
310.008	21.922	854.836	653.841
311.022	21.943	854.311	653.459
312.037	21.945	854.060	653.217
313.052	21.861	852.877	651.943
314.066	21.749	852.060	650.846
315.081	21.392	851.405	648.961
316.095	21.261	851.022	648.128
317.110	21.410	850.433	648.175
318.125	21.260	850.113	647.315
319.139	21.244	849.833	646.986
320.154	21.280	848.914	646.363
321.168	21.365	848.209	646.082
322.183	21.423	847.653	645.816
323.197	21.473	847.622	645.921
324.212	21.531	846.918	645.541
325.227	21.593	846.416	645.330
326.241	21.635	845.540	644.758
327.256	21.459	845.188	643.788
328.270	21.455	844.730	643.366
329.285	21.502	843.971	642.904
330.300	21.407	843.356	642.030
331.314	21.363	842.782	641.372
332.329	21.400	842.256	641.054
333.343	21.585	841.582	641.160
334.358	21.701	841.647	641.577
335.373	21.740	841.096	641.242
336.387	21.751	840.707	640.930
337.402	22.041	839.848	641.280
338.416	22.105	839.043	640.842
339.431	22.148	838.992	640.903
340.446	22.301	838.600	641.105
341.460	22.471	838.158	641.325
342.475	22.364	837.757	640.574
343.489	22.466	837.177	640.445
344.504	22.557	837.120	640.675
345.519	22.712	836.149	640.438
346.533	22.921	835.447	640.603
347.548	22.802	834.792	639.614
348.562	22.525	834.372	638.231
349.577	22.147	833.716	636.303
350.592	21.963	833.303	635.268
351.606	22.009	832.222	634.552
352.621	21.706	831.963	633.205
353.635	21.894	831.391	633.389
354.650	22.069	830.861	633.563
355.665	21.942	831.002	633.156
356.679	22.059	830.520	633.154
357.694	22.179	829.976	633.114
358.708	22.268	828.936	632.588
359.723	22.183	828.485	631.880
360.738	22.157	828.055	631.403
361.752	22.296	827.671	631.552
362.767	22.140	827.572	630.862
363.781	22.216	827.363	630.920
364.796	22.634	826.915	632.023
365.810	22.782	826.491	632.172
366.825	22.925	826.158	632.373
367.840	22.908	826.013	632.144
368.854	23.066	825.270	632.087
369.869	22.790	824.739	630.637
370.883	22.703	823.892	629.625
371.898	22.662	823.372	629.025
372.913	22.720	822.630	628.609
373.927	22.909	822.310	628.980
374.942	22.849	821.217	627.875
375.956	22.770	820.591	627.061
376.971	22.804	820.185	626.818
377.986	22.987	820.116	627.358
379.000	22.997	819.541	626.898
380.015	23.092	819.131	626.864
381.029	23.061	818.343	626.097
382.044	23.052	817.817	625.609
383.059	22.849	817.495	624.586
384.073	23.221	816.570	625.138
385.088	23.009	816.153	624.017
386.102	22.766	815.173	622.356
387.117	22.536	814.484	620.964
388.132	22.582	814.042	620.734
389.146	22.480	813.677	620.042
390.161	22.507	813.496	619.944
391.175	22.816	812.894	620.516
392.190	22.970	812.584	620.767
393.205	23.030	811.697	620.243
394.219	22.575	811.684	618.581
395.234	22.545	810.891	617.818
396.248	22.409	810.209	616.766
397.263	22.340	809.773	616.138
398.278	22.336	809.299	615.710
399.292	22.347	808.595	615.157
400.307	22.239	808.542	614.685
401.321	22.161	808.363	614.222
402.336	22.256	807.663	613.968
403.350	22.423	807.368	614.274
404.365	22.613	807.061	614.649
405.380	22.693	806.706	614.601
406.394	22.932	806.457	615.191
407.409	23.001	806.243	615.213
408.423	23.084	805.920	615.198
409.438	23.327	805.305	615.521
410.453	23.368	804.999	615.376
411.467	23.444	804.541	615.234
412.482	23.373	804.262	614.719
413.496	23.482	803.480	614.445
414.511	23.628	802.910	614.462
415.526	23.498	803.041	614.057
416.540	23.450	802.408	613.353
417.555	23.273	802.141	612.482
418.569	23.519	801.044	612.440
419.584	23.418	800.626	611.717
420.599	23.358	800.266	611.181
421.613	164.822	1371.567	1798.341
422.628	143.229	1454.784	1798.447
