DTS Sentinel unit serial number:	SN413079Multiplexer serial number:	ORYXHardware model number:	OX4-SRSoftware version number:	ORYX F/W v4.00 Oryx Data Collector v3.7.2.0data status	okinstallation	princeton_trtdifferential loss correction	single-endedforward channel	channel 3reverse channel	N/Adate	2019/09/16time	09:24:35forward acquisition time	60.00reverse acquisition time	0.00gamma	496.2192k internal	0.2322k external	0.2322temperature offset calibration	0.9956default loss term (dB/km)	0.3790temperature slope calibration	1.0000multiplexer offset coefficient	1.0000multiplexer slope coefficient	1.0000fibre end	0.00T internal ref (°C)	31.55T ext. ref 1 (°C)	12.18T ext. ref 2 (°C)	29.21length (m)	temperature (°C)	Stokes	anti-Stokes-747.200	800.000	0.065	-0.236
-746.185	131.525	0.044	0.057
-745.171	2.286	-0.039	0.029
-744.156	-200.000	0.073	0.326
-743.142	-131.866	0.219	-0.029
-742.127	-200.000	-0.047	0.302
-741.112	431.404	-0.131	-0.286
-740.098	576.212	0.064	0.157
-739.083	30.046	-0.128	-0.110
-738.069	-149.386	0.277	0.022
-737.054	114.504	0.062	-0.076
-736.039	-200.000	-0.027	-0.218
-735.025	350.645	0.083	-0.165
-734.010	-173.681	-0.144	-0.004
-732.996	144.343	-0.080	0.107
-731.981	-49.523	0.254	0.122
-730.966	-200.000	0.025	0.139
-729.952	-200.000	0.048	-0.275
-728.937	-137.024	-0.168	-0.019
-727.923	-160.183	-0.383	-0.021
-726.908	384.618	-0.176	0.367
-725.894	-181.755	-0.116	-0.002
-724.879	800.000	0.034	-0.125
-723.864	800.000	-0.023	0.073
-722.850	-75.870	-0.103	0.037
-721.835	-200.000	0.035	-0.194
-720.821	-173.468	-0.086	0.003
-719.806	-93.880	-0.122	0.034
-718.791	-200.000	0.003	0.052
-717.777	-120.601	0.159	-0.027
-716.762	-28.600	0.120	-0.070
-715.748	-20.651	-0.422	0.261
-714.733	-160.895	0.171	-0.009
-713.718	284.740	0.046	-0.083
-712.704	-52.526	-0.100	-0.047
-711.689	-53.059	-0.155	0.072
-710.675	-200.000	0.013	0.064
-709.660	-200.000	0.085	-0.450
-708.645	168.512	-0.039	0.056
-707.631	-200.000	0.071	-0.358
-706.616	-9.320	-0.378	0.255
-705.602	-1.517	0.085	0.060
-704.587	46.125	0.023	-0.021
-703.572	-23.507	-0.337	-0.204
-702.558	99.535	-0.101	-0.118
-701.543	-110.429	0.169	0.035
-700.529	-33.366	0.170	-0.095
-699.514	-200.000	0.036	-0.227
-698.499	437.734	0.188	-0.414
-697.485	189.201	0.161	0.244
-696.470	-33.598	0.226	-0.126
-695.456	28.460	-0.085	-0.073
-694.441	-73.601	0.285	-0.105
-693.426	-77.489	-0.139	0.049
-692.412	149.124	0.036	-0.049
-691.397	115.224	0.138	-0.170
-690.383	83.149	0.206	0.226
-689.368	-140.643	-0.057	-0.006
-688.354	-25.283	-0.206	0.123
-687.339	-56.387	-0.133	-0.059
-686.324	-104.743	-0.105	0.024
-685.310	77.107	0.085	-0.091
-684.295	-200.000	0.039	-0.259
-683.281	-200.000	-0.048	-0.214
-682.266	-141.884	0.214	0.022
-681.251	-141.868	-0.091	-0.009
-680.237	-200.000	0.002	0.184
-679.222	-63.713	0.236	0.098
-678.208	-200.000	-0.021	-0.172
-677.193	247.498	0.083	0.141
-676.178	-157.343	-0.210	-0.013
-675.164	151.858	-0.140	0.193
-674.149	-200.000	0.032	-0.220
-673.135	90.154	-0.080	0.090
-672.120	40.065	0.164	0.149
-671.105	-200.000	0.020	-0.098
-670.091	800.000	0.062	-0.275
-669.076	-200.000	-0.008	-0.104
-668.062	-60.612	-0.098	0.042
-667.047	-96.126	0.138	-0.037
-666.032	121.725	-0.089	-0.112
-665.018	-109.481	-0.111	-0.024
-664.003	-53.653	-0.210	-0.096
-662.989	378.296	0.016	0.032
-661.974	-98.071	-0.187	0.049
-660.959	275.734	-0.049	-0.088
-659.945	-7.455	-0.298	-0.203
-658.930	-200.000	0.048	0.240
-657.916	-74.797	0.162	-0.058
-656.901	-21.760	0.033	0.020
-655.886	-44.576	-0.305	-0.154
-654.872	365.366	-0.055	-0.112
-653.857	-200.000	-0.032	-0.203
-652.843	-31.842	-0.168	-0.095
-651.828	17.710	-0.191	-0.153
-650.814	-35.139	0.098	-0.054
-649.799	-17.623	0.156	0.099
-648.784	43.722	0.295	0.272
-647.770	412.923	0.082	-0.176
-646.755	-133.649	0.077	-0.010
-645.741	146.336	-0.121	0.164
-644.726	86.240	-0.324	-0.359
-643.711	-88.904	0.160	0.048
-642.697	-73.338	-0.152	-0.056
-641.682	347.390	0.027	-0.053
-640.668	-200.000	0.009	0.361
-639.653	139.095	0.195	0.258
-638.638	-23.247	-0.191	0.115
-637.624	6.392	-0.191	0.142
-636.609	106.560	-0.244	-0.291
-635.595	83.192	-0.154	0.169
-634.580	110.050	0.205	0.248
-633.565	13.514	-0.101	0.079
-632.551	-49.975	0.230	-0.110
-631.536	-101.494	-0.370	-0.090
-630.522	-157.576	-0.310	0.019
-629.507	-91.225	0.226	-0.065
-628.492	-200.000	0.015	0.071
-627.478	179.112	-0.113	-0.166
-626.463	134.203	-0.085	0.110
-625.449	5.219	-0.061	-0.045
-624.434	-78.981	-0.243	0.083
-623.419	78.699	-0.089	-0.096
-622.405	8.628	-0.125	0.094
-621.390	-62.591	0.185	-0.077
-620.376	333.367	-0.289	-0.561
-619.361	71.962	0.064	-0.067
-618.346	-7.079	-0.244	-0.166
-617.332	39.015	-0.230	0.207
-616.317	782.812	-0.166	-0.456
-615.303	-108.478	0.337	0.073
-614.288	-159.096	0.126	-0.007
-613.273	-22.676	-0.179	0.109
-612.259	-92.513	0.245	-0.069
-611.244	-29.321	-0.168	-0.096
-610.230	-109.638	-0.174	-0.037
-609.215	-115.635	-0.138	-0.026
-608.201	-64.553	-0.284	-0.116
-607.186	329.812	-0.114	0.220
-606.171	800.000	0.068	0.244
-605.157	12.591	0.388	0.301
-604.142	800.000	0.084	0.279
-603.128	-95.634	-0.367	0.099
-602.113	31.981	0.344	-0.298
-601.098	-98.805	0.162	0.041
-600.084	800.000	0.095	0.281
-599.069	98.957	0.148	-0.172
-598.055	450.047	0.124	0.275
-597.040	-25.209	-0.178	-0.106
-596.025	-115.042	0.227	0.043
-595.011	-88.881	0.182	-0.054
-593.996	-154.098	-0.401	-0.027
-592.982	55.296	0.102	0.099
-591.967	-200.000	-0.028	-0.245
-590.952	-16.520	-0.097	-0.061
-589.938	318.093	0.157	0.299
-588.923	379.024	0.168	-0.345
-587.909	-73.290	0.175	0.064
-586.894	-200.000	0.007	-0.322
-585.879	-200.000	-0.050	0.233
-584.865	-31.212	0.150	-0.085
-583.850	-34.195	0.236	-0.130
-582.836	-200.000	0.009	-0.214
-581.821	-21.416	-0.300	0.184
-580.806	-159.183	-0.180	0.010
-579.792	-70.497	0.183	-0.070
-578.777	-122.913	0.302	0.049
-577.763	-200.000	-0.042	0.249
-576.748	496.404	0.075	-0.173
-575.733	-128.015	-0.118	-0.017
-574.719	-56.069	0.277	-0.124
-573.704	45.259	0.132	-0.122
-572.690	77.095	0.304	0.325
-571.675	-26.780	-0.195	-0.115
-570.661	-200.000	-0.004	-0.169
-569.646	-18.264	-0.255	-0.160
-568.631	19.149	0.549	0.442
-567.617	-126.036	-0.289	0.044
-566.602	-177.847	0.417	0.010
-565.588	188.097	0.122	0.183
-564.573	-200.000	-0.003	-0.166
-563.558	-77.358	0.423	0.147
-562.544	21.348	-0.050	0.041
-561.529	306.932	-0.047	0.088
-560.515	-135.879	0.109	-0.013
-559.500	458.865	-0.116	0.259
-558.485	-90.354	0.286	-0.083
-557.471	800.000	-0.029	-0.104
-556.456	197.318	-0.142	-0.218
-555.442	-35.502	0.053	-0.029
-554.427	78.531	0.225	-0.241
-553.412	81.698	0.220	0.238
-552.398	-200.000	-0.097	0.428
-551.383	233.703	-0.165	0.273
-550.369	800.000	-0.024	0.097
-549.354	-200.000	-0.033	0.263
-548.339	202.376	-0.064	0.099
-547.325	-86.312	-0.616	-0.190
-546.310	-98.199	0.173	-0.045
-545.296	-152.901	-0.050	0.004
-544.281	-53.257	0.024	-0.011
-543.266	111.021	0.134	-0.162
-542.252	216.445	-0.068	-0.108
-541.237	-129.993	-0.208	-0.029
-540.223	487.500	-0.090	-0.205
-539.208	44.392	0.177	-0.163
-538.193	7.008	0.156	0.117
-537.179	-74.685	0.263	0.095
-536.164	-200.000	0.068	0.461
-535.150	-200.000	0.015	0.106
-534.135	38.704	0.047	0.042
-533.121	166.315	0.196	-0.278
-532.106	-200.000	-0.012	0.173
-531.091	800.000	0.072	0.254
-530.077	800.000	0.026	0.094
-529.062	-200.000	0.057	-0.318
-528.048	11.362	0.162	-0.124
-527.033	264.697	0.218	0.381
-526.018	0.178	0.011	0.008
-525.004	-200.000	-0.031	0.180
-523.989	-60.546	0.423	0.180
-522.975	800.000	0.048	0.188
-521.960	68.558	-0.119	0.122
-520.945	800.000	-0.027	0.114
-519.931	102.708	0.044	-0.051
-518.916	784.900	-0.077	0.212
-517.902	6.122	-0.257	-0.191
-516.887	166.963	-0.169	-0.241
-515.872	-200.000	0.002	0.273
-514.858	78.416	0.091	-0.098
-513.843	223.654	-0.162	-0.261
-512.829	-110.695	0.116	-0.024
-511.814	15.135	0.145	-0.113
-510.799	107.133	0.086	0.102
-509.785	430.781	0.255	0.554
-508.770	388.170	0.102	0.212
-507.756	-65.345	0.235	0.095
-506.741	-72.662	-0.191	0.071
-505.726	116.750	-0.192	0.236
-504.712	-72.406	-0.115	-0.042
-503.697	-83.584	-0.054	0.017
-502.683	195.327	0.028	-0.042
-501.668	-90.434	0.355	-0.103
-500.653	-200.000	0.005	-0.200
-499.639	134.981	0.130	-0.169
-498.624	-61.115	0.069	-0.029
-497.610	-152.623	0.131	-0.009
-496.595	-200.000	0.017	0.254
-495.581	-45.419	0.033	0.017
-494.566	-30.838	0.115	0.065
-493.551	-200.000	0.025	-0.167
-492.537	28.325	0.195	-0.165
-491.522	-200.000	-0.033	0.262
-490.508	271.342	-0.070	-0.123
-489.493	-200.000	-0.021	-0.413
-488.478	-133.601	-0.276	-0.035
-487.464	-29.848	0.275	-0.157
-486.449	-79.612	-0.432	0.146
-485.435	631.782	0.048	0.121
-484.420	4.308	0.171	-0.125
-483.405	-128.339	-0.168	0.024
-482.391	-7.902	0.108	0.073
-481.376	-200.000	-0.070	0.321
-480.362	67.470	-0.269	0.274
-479.347	-6.897	-0.170	0.116
-478.332	144.788	-0.106	0.142
-477.318	158.499	0.142	-0.197
-476.303	-200.000	0.030	-0.189
-475.289	-177.542	0.330	-0.008
-474.274	259.854	0.064	0.111
-473.259	87.856	-0.145	-0.160
-472.245	800.000	-0.060	0.169
-471.230	228.820	0.122	-0.199
-470.216	59.985	0.133	-0.131
-469.201	184.540	0.152	0.225
-468.186	-122.529	0.182	-0.030
-467.172	-136.696	-0.268	-0.031
-466.157	-169.503	-0.162	0.006
-465.143	64.343	0.078	0.079
-464.128	-27.162	0.209	-0.121
-463.113	-57.171	-0.184	-0.081
-462.099	191.921	0.146	0.220
-461.084	-147.170	-0.259	0.022
-460.070	-200.000	0.020	0.243
-459.055	-200.000	-0.016	0.109
-458.040	-85.115	-0.337	0.106
-457.026	-155.358	-0.399	-0.026
-456.011	-63.605	-0.276	0.113
-454.997	-200.000	-0.013	0.417
-453.982	-35.847	0.165	-0.089
-452.968	594.716	-0.073	0.181
-451.953	-61.491	-0.281	-0.118
-450.938	-30.247	-0.146	0.083
-449.924	74.259	0.271	-0.285
-448.909	800.000	-0.095	-0.269
-447.895	-90.959	-0.159	-0.046
-446.880	-77.974	0.218	-0.075
-445.865	-199.290	-0.230	-0.001
-444.851	100.831	0.154	0.179
-443.836	-79.750	-0.062	-0.021
-442.822	-175.607	0.199	-0.005
-441.807	-109.188	0.190	-0.040
-440.792	-47.436	0.101	-0.049
-439.778	-119.975	0.278	0.048
-438.763	-94.444	-0.185	-0.050
-437.749	-200.000	-0.007	0.076
-436.734	-81.922	-0.092	0.030
-435.719	75.549	-0.167	0.176
-434.705	-87.850	0.182	-0.055
-433.690	800.000	-0.030	0.104
-432.676	-85.105	-0.131	-0.041
-431.661	38.848	0.178	0.159
-430.646	800.000	0.095	-0.303
-429.632	199.545	0.128	0.195
-428.617	-162.684	-0.446	-0.022
-427.603	600.733	-0.047	-0.117
-426.588	81.024	-0.075	0.081
-425.573	-156.771	-0.084	0.005
-424.559	-200.000	-0.016	-0.187
-423.544	-200.000	0.030	-0.138
-422.530	-84.944	0.106	-0.033
-421.515	-192.931	0.300	-0.003
-420.500	294.469	-0.127	-0.231
-419.486	800.000	-0.137	0.433
-418.471	107.245	0.141	-0.167
-417.457	-77.807	-0.191	-0.066
-416.442	-27.380	0.245	0.142
-415.428	-160.242	0.299	0.016
-414.413	-74.025	0.057	-0.021
-413.398	187.787	-0.195	0.291
-412.384	800.000	0.078	0.247
-411.369	84.615	0.053	0.058
-410.355	800.000	-0.030	-0.112
-409.340	-116.077	-0.318	0.059
-408.325	-152.777	-0.335	0.024
-407.311	-109.782	0.098	-0.021
-406.296	11.025	0.134	0.102
-405.282	-63.531	-0.048	0.020
-404.267	27.690	-0.228	0.192
-403.252	558.390	-0.133	-0.321
-402.238	65.908	-0.201	0.203
-401.223	800.000	0.059	0.258
-400.209	426.945	-0.081	0.174
-399.194	36.441	-0.273	-0.240
-398.179	77.228	-0.115	-0.122
-397.165	-43.127	0.205	-0.104
-396.150	5.700	-0.532	0.392
-395.136	-87.134	-0.347	0.105
-394.121	-140.444	0.288	0.030
-393.106	-132.040	-0.388	-0.050
-392.092	14.597	-0.269	-0.209
-391.077	-196.017	0.102	0.001
-390.063	48.779	-0.114	0.106
-389.048	800.000	-0.022	0.063
-388.033	195.733	0.139	-0.211
-387.019	-142.032	0.320	-0.032
-386.004	134.044	-0.039	0.051
-384.990	487.960	-0.106	-0.240
-383.975	242.111	-0.044	-0.073
-382.960	-74.788	-0.121	0.043
-381.946	800.000	-0.062	-0.177
-380.931	-200.000	0.003	-0.251
-379.917	601.356	-0.060	-0.149
-378.902	442.525	-0.046	-0.101
-377.888	-57.912	-0.185	0.080
-376.873	45.877	0.165	0.152
-375.858	800.000	0.136	0.452
-374.844	800.000	-0.006	0.022
-373.829	-41.171	-0.286	-0.147
-372.815	320.842	0.160	0.302
-371.800	185.248	0.272	0.403
-370.785	500.212	-0.019	-0.044
-369.771	55.502	0.202	-0.195
-368.756	-148.153	0.405	-0.033
-367.742	-97.174	-0.129	0.034
-366.727	-156.084	0.319	-0.020
-365.712	114.571	-0.150	-0.182
-364.698	152.921	-0.131	0.179
-363.683	-59.768	-0.124	0.053
-362.669	303.553	-0.053	-0.098
-361.654	-149.952	-0.094	-0.007
-360.639	122.587	-0.123	-0.153
-359.625	112.304	0.261	0.314
-358.610	-200.000	-0.011	0.079
-357.596	-144.448	-0.191	0.018
-356.581	-65.871	-0.129	0.051
-355.566	640.179	0.125	-0.316
-354.552	124.046	0.127	-0.159
-353.537	800.000	-0.031	0.105
-352.523	-85.901	-0.294	0.091
-351.508	-108.636	0.094	-0.020
-350.493	-200.000	-0.079	-0.345
-349.479	-79.055	-0.325	-0.110
-348.464	49.896	-0.122	-0.114
-347.450	-137.927	0.098	-0.011
-346.435	-141.491	0.267	-0.027
-345.420	-76.422	-0.379	-0.132
-344.406	-200.000	0.025	-0.242
-343.391	92.787	-0.236	-0.266
-342.377	800.000	-0.059	0.238
-341.362	-8.111	0.211	-0.142
-340.348	58.979	0.116	-0.113
-339.333	-200.000	0.018	0.199
-338.318	800.000	-0.126	-0.419
-337.304	-200.000	-0.021	-0.292
-336.289	-200.000	-0.013	-0.090
-335.275	20.491	0.100	0.080
-334.260	368.248	-0.149	0.300
-333.245	206.705	0.228	0.352
-332.231	-200.000	0.050	0.311
-331.216	-200.000	-0.020	0.139
-330.202	-73.532	0.216	0.078
-329.187	6.510	-0.233	0.172
-328.172	302.098	-0.193	0.354
-327.158	379.474	-0.078	0.159
-326.143	567.353	-0.096	-0.232
-325.129	299.290	0.190	0.347
-324.114	-36.309	-0.319	0.171
-323.099	50.047	0.170	-0.159
-322.085	-200.000	0.047	0.298
-321.070	-28.981	0.257	-0.147
-320.056	-63.060	-0.101	0.041
-319.041	75.356	0.046	-0.048
-318.026	49.491	0.087	-0.082
-317.012	-78.589	0.163	-0.055
-315.997	-119.238	-0.188	-0.033
-314.983	800.000	-0.130	0.442
-313.968	-158.294	-0.498	-0.029
-312.953	142.986	0.132	-0.174
-311.939	389.720	-0.099	-0.204
-310.924	-31.095	-0.176	0.099
-309.910	82.964	0.258	-0.279
-308.895	-21.266	-0.198	-0.120
-307.880	-200.000	-0.012	0.125
-306.866	587.167	-0.035	0.087
-305.851	-200.000	-0.056	-0.496
-304.837	-43.944	-0.172	-0.086
-303.822	-200.000	0.042	0.214
-302.807	-200.000	-0.001	-0.087
-301.793	18.497	0.173	-0.137
-300.778	800.000	-0.053	0.172
-299.764	-119.397	-0.106	-0.018
-298.749	268.481	-0.165	-0.288
-297.735	668.982	0.134	-0.344
-296.720	165.207	-0.120	-0.169
-295.705	6.153	-0.151	0.111
-294.691	184.799	0.163	-0.240
-293.676	-92.461	-0.062	-0.017
-292.662	-200.000	-0.024	-0.335
-291.647	-29.587	-0.439	-0.249
-290.632	35.088	0.312	-0.271
-289.618	14.900	-0.167	-0.129
-288.603	411.903	0.143	0.302
-287.589	70.036	-0.012	0.012
-286.574	161.743	-0.156	-0.217
-285.559	-16.104	-0.101	-0.064
-284.545	-86.759	-0.031	0.009
-283.530	208.819	0.089	-0.138
-282.516	-110.325	-0.085	-0.018
-281.501	-4.431	0.064	0.044
-280.486	800.000	0.058	-0.211
-279.472	267.347	0.087	-0.150
-278.457	-71.068	0.293	-0.109
-277.443	-200.000	0.030	0.215
-276.428	781.017	0.030	-0.083
-275.413	84.483	0.182	-0.198
-274.399	292.566	-0.149	-0.269
-273.384	357.423	0.072	-0.142
-272.370	-200.000	0.065	0.432
-271.355	407.753	0.081	-0.169
-270.340	252.572	-0.065	0.110
-269.326	800.000	0.130	-0.483
-268.311	-3.392	-0.176	-0.122
-267.297	-56.065	-0.262	0.116
-266.282	-139.350	-0.254	0.027
-265.267	-53.146	0.355	-0.162
-264.253	-200.000	-0.015	-0.083
-263.238	-105.370	0.424	0.096
-262.224	800.000	0.069	-0.272
-261.209	106.296	-0.192	-0.225
-260.195	-38.049	0.251	-0.132
-259.180	-115.669	-0.192	-0.036
-258.165	-38.278	-0.164	-0.086
-257.151	-108.637	0.164	0.035
-256.136	-200.000	0.026	0.430
-255.122	47.303	-0.111	-0.103
-254.107	450.732	-0.140	-0.306
-253.092	372.333	0.059	0.119
-252.078	-57.906	-0.233	0.101
-251.063	171.950	-0.156	-0.222
-250.049	140.155	-0.105	-0.137
-249.034	-79.014	0.085	-0.029
-248.019	627.167	0.126	-0.314
-247.005	71.887	-0.204	-0.211
-245.990	116.869	0.070	0.085
-244.976	100.899	0.155	-0.178
-243.961	-11.762	0.146	-0.095
-242.946	-200.000	-0.024	0.218
-241.932	25.572	-0.119	0.098
-240.917	800.000	-0.015	-0.053
-239.903	4.546	0.255	-0.185
-238.888	-166.805	0.246	0.010
-237.873	800.000	0.080	0.221
-236.859	-173.763	-0.155	0.005
-235.844	-200.000	0.052	0.262
-234.830	237.121	-0.194	0.319
-233.815	-45.911	0.051	-0.025
-232.800	153.787	0.172	0.233
-231.786	-32.288	-0.261	0.144
-230.771	-200.000	-0.011	-0.137
-229.757	133.362	-0.157	-0.201
-228.742	-125.535	0.115	0.017
-227.727	-1.707	0.155	-0.108
-226.713	543.666	0.082	0.194
-225.698	-200.000	0.029	-0.260
-224.684	365.934	0.166	0.331
-223.669	-200.000	0.024	0.347
-222.655	-39.468	0.252	-0.131
-221.640	496.549	0.097	-0.221
-220.625	-69.363	0.018	-0.007
-219.611	129.082	0.061	0.077
-218.596	800.000	0.132	-0.398
-217.582	-12.482	-0.227	0.147
-216.567	-200.000	0.002	-0.144
-215.552	519.146	0.097	0.226
-214.538	82.497	-0.245	0.263
-213.523	678.795	-0.038	0.098
-212.509	438.716	0.156	-0.336
-211.494	-200.000	0.038	-0.230
-210.479	-200.000	0.036	0.167
-209.465	90.043	-0.075	-0.083
-208.450	-112.255	-0.266	-0.053
-207.436	-111.684	-0.143	0.029
-206.421	138.858	0.212	0.275
-205.406	44.862	0.071	-0.065
-204.392	-161.443	0.343	-0.018
-203.377	740.747	-0.142	0.377
-202.363	-109.823	0.302	-0.063
-201.348	378.891	0.176	-0.356
-200.333	12.020	0.156	-0.119
-199.319	-200.000	-0.001	-0.068
-198.304	218.877	0.225	0.355
-197.290	-109.504	-0.095	-0.020
-196.275	352.835	0.083	0.163
-195.260	23.795	0.073	0.060
-194.246	-167.618	0.222	0.009
-193.231	800.000	-0.003	0.014
-192.217	-54.597	0.074	0.033
-191.202	129.517	-0.203	0.257
-190.187	-200.000	-0.018	-0.146
-189.173	-9.374	0.293	-0.194
-188.158	-86.145	0.099	0.030
-187.144	9.898	-0.051	-0.039
-186.129	-108.147	0.368	0.079
-185.114	-123.918	-0.153	0.024
-184.100	-60.832	-0.067	0.028
-183.085	606.159	-0.174	-0.428
-182.071	-92.553	0.191	0.053
-181.056	800.000	0.043	0.150
-180.042	-81.216	-0.096	0.031
-179.027	-4.938	0.230	-0.157
-178.012	-107.099	-0.082	0.018
-176.998	800.000	-0.113	-0.452
-175.983	-54.817	0.271	-0.121
-174.969	800.000	-0.099	-0.285
-173.954	-78.657	0.140	0.047
-172.939	-115.983	-0.341	-0.063
-171.925	800.000	0.064	-0.248
-170.910	800.000	-0.037	-0.106
-169.896	-139.116	0.143	-0.015
-168.881	-93.081	0.297	-0.082
-167.866	81.598	-0.212	-0.227
-166.852	-200.000	0.019	0.232
-165.837	-110.232	0.328	0.068
-164.823	-153.987	-0.389	-0.026
-163.808	-90.770	-0.320	-0.091
-162.793	-5.536	0.091	-0.062
-161.779	774.892	0.031	-0.083
-160.764	654.846	0.139	0.353
-159.750	-67.353	-0.175	-0.068
-158.735	-101.911	-0.162	-0.039
-157.720	132.742	-0.058	-0.073
-156.706	-200.000	0.077	0.549
-155.691	36.057	-0.110	-0.095
-154.677	58.320	-0.215	0.208
-153.662	-200.000	-0.055	0.271
-152.647	-7.838	-0.172	0.115
-151.633	135.731	0.101	-0.130
-150.618	800.000	0.035	-0.119
-149.604	-200.000	-0.017	-0.246
-148.589	333.654	0.102	-0.195
-147.574	203.994	0.189	-0.289
-146.560	-69.035	0.183	-0.070
-145.545	449.853	-0.105	-0.229
-144.531	800.000	0.089	-0.271
-143.516	-200.000	-0.010	0.109
-142.502	-75.767	-0.062	-0.022
-141.487	-144.208	0.264	0.024
-140.472	-200.000	0.017	0.171
-139.458	214.777	0.028	-0.043
-138.443	241.850	0.101	-0.166
-137.429	153.989	0.022	0.029
-136.414	748.540	-0.096	-0.254
-135.399	-166.222	0.143	-0.006
-134.385	-132.482	-0.077	0.010
-133.370	92.341	0.139	-0.154
-132.356	-112.735	0.454	0.089
-131.341	800.000	-0.096	-0.315
-130.326	31.385	-0.321	0.272
-129.312	-150.060	-0.133	0.010
-128.297	22.135	0.148	0.119
-127.283	-200.000	-0.002	0.252
-126.268	-186.466	0.113	0.002
-125.253	188.812	-0.181	-0.268
-124.239	15.940	-0.181	-0.140
-123.224	-200.000	0.076	-0.339
-122.210	-200.000	0.004	0.046
-121.195	30.999	-0.178	0.151
-120.180	163.906	-0.262	-0.364
-119.166	615.622	-0.047	0.115
-118.151	-99.741	-0.236	-0.058
-117.137	-63.640	-0.221	0.089
-116.122	-181.796	-0.194	0.004
-115.107	-77.526	-0.264	0.090
-114.093	17.454	-0.120	-0.094
-113.078	-200.000	0.012	-0.068
-112.064	-188.597	-0.161	-0.002
-111.049	77.718	0.144	0.151
-110.034	44.579	-0.221	0.200
-109.020	-9.179	0.051	-0.034
-108.005	-200.000	-0.054	0.352
-106.991	-72.137	-0.290	-0.106
-105.976	212.882	0.137	0.213
-104.962	-117.392	0.239	-0.043
-103.947	-4.854	0.136	0.093
-102.932	-48.027	0.486	0.232
-101.918	287.735	-0.103	-0.184
-100.903	-34.125	0.288	-0.156
-99.889	621.237	-0.082	0.204
-98.874	657.478	0.080	-0.201
-97.859	-200.000	-0.032	-0.352
-96.845	-200.000	0.029	0.271
-95.830	208.742	0.071	0.110
-94.816	-10.350	-0.196	-0.128
-93.801	-200.000	0.040	0.335
-92.786	800.000	0.138	0.407
-91.772	43.919	0.234	-0.211
-90.757	-200.000	-0.028	-0.142
-89.743	-107.418	-0.058	-0.012
-88.728	-200.000	0.004	0.228
-87.713	-25.242	0.464	0.271
-86.699	-20.181	-0.132	-0.080
-85.684	-92.638	0.441	0.122
-84.670	-19.727	0.164	0.100
-83.655	162.389	-0.014	-0.020
-82.640	74.931	-0.128	0.133
-81.626	26.984	0.045	-0.037
-80.611	16.187	-0.337	0.262
-79.597	115.493	0.070	-0.084
-78.582	800.000	-0.125	0.349
-77.567	56.991	0.211	0.202
-76.553	-123.455	-0.389	0.061
-75.538	-55.850	-0.208	-0.091
-74.524	-174.793	-0.346	0.010
-73.509	29.942	0.106	0.089
-72.494	-3.388	-0.085	-0.058
-71.480	800.000	0.029	-0.100
-70.465	8.154	0.215	-0.159
-69.451	62.119	-0.109	-0.107
-68.436	-97.741	0.294	-0.075
-67.422	252.543	0.165	0.277
-66.407	317.238	0.243	-0.451
-65.392	-98.085	-0.126	0.032
-64.378	232.228	0.103	0.167
-63.363	800.000	0.075	0.230
-62.349	-200.000	-0.020	-0.102
-61.334	81.875	-0.841	-0.896
-60.319	-11.628	0.620	0.401
-59.305	-200.000	-0.185	-0.825
-58.290	206.963	0.672	1.031
-57.276	371.669	0.646	1.290
-56.261	-200.000	94.794	588.333
-55.246	550.496	1397.962	3298.525
-54.232	156.354	2583.290	3506.503
-53.217	112.067	2195.757	2609.659
-52.203	42.508	1728.806	1546.856
-51.188	34.744	1537.993	1322.591
-50.173	32.300	1510.929	1282.619
-49.159	51.953	1558.484	1459.449
-48.144	53.349	1576.541	1485.964
-47.130	35.052	1537.137	1323.770
-46.115	31.922	1522.761	1289.852
-45.100	31.636	1519.551	1285.124
-44.086	31.679	1516.692	1282.948
-43.071	31.637	1515.328	1281.455
-42.057	31.578	1513.805	1279.711
-41.042	31.586	1512.454	1278.575
-40.027	31.603	1511.252	1277.626
-39.013	31.570	1509.318	1275.717
-37.998	31.569	1508.165	1274.685
-36.984	31.439	1507.109	1272.857
-35.969	31.608	1505.321	1272.445
-34.954	31.562	1503.876	1270.858
-33.940	31.466	1502.612	1269.087
-32.925	31.551	1501.632	1268.788
-31.911	31.684	1499.832	1268.117
-30.896	31.651	1498.329	1266.574
-29.881	31.647	1497.158	1265.504
-28.867	31.588	1495.879	1263.974
-27.852	31.616	1493.883	1262.425
-26.838	31.681	1492.574	1261.709
-25.823	31.605	1491.234	1260.017
-24.809	31.584	1490.037	1258.808
-23.794	31.651	1488.194	1257.652
-22.779	31.550	1486.953	1255.877
-21.765	31.506	1486.056	1254.774
-20.750	31.497	1485.198	1253.940
-19.736	31.587	1484.071	1253.546
-18.721	31.504	1482.939	1251.984
-17.706	31.586	1481.392	1251.174
-16.692	31.599	1480.308	1250.293
-15.677	31.484	1479.915	1249.145
-14.663	31.540	1478.358	1248.153
-13.648	31.488	1477.596	1247.115
-12.633	31.519	1476.473	1246.328
-11.619	31.504	1475.913	1245.702
-10.604	31.438	1475.193	1244.603
-9.590	31.625	1473.978	1244.776
-8.575	31.447	1472.760	1242.517
-7.560	31.491	1472.085	1242.187
-6.546	31.502	1470.954	1241.258
-5.531	31.483	1470.280	1240.516
-4.517	31.452	1469.125	1239.283
-3.502	31.529	1468.373	1239.112
-2.487	31.546	1466.719	1237.780
-1.473	31.499	1466.238	1237.010
-0.458	31.411	1464.524	1234.936
0.556	30.207	1456.012	1227.115
1.571	28.092	1431.712	1192.752
2.586	25.406	1371.416	1125.612
3.600	23.833	1289.288	1048.840
4.615	22.317	1243.528	1002.885
5.629	20.738	1189.443	950.566
6.644	16.566	1109.977	865.676
7.659	12.871	1072.891	818.368
8.673	12.332	1067.919	811.840
9.688	12.127	1064.885	808.452
10.702	12.102	1063.146	806.936
11.717	12.140	1061.230	805.599
12.731	13.988	1061.934	815.138
13.746	17.837	1067.202	838.045
14.761	19.314	1068.194	846.004
15.775	18.235	1066.045	838.940
16.790	17.197	1063.365	831.679
17.804	16.040	1061.194	824.255
18.819	14.941	1059.924	817.824
19.834	14.566	1058.055	814.476
20.848	14.139	1057.195	811.660
21.863	14.056	1056.148	810.378
22.877	13.634	1055.439	807.708
23.892	13.545	1054.536	806.515
24.907	13.411	1054.046	805.415
25.921	13.537	1052.738	804.955
26.936	13.404	1052.580	804.118
27.950	13.426	1051.451	803.289
28.965	13.479	1050.268	802.574
29.980	13.616	1048.823	802.060
30.994	13.586	1047.852	801.102
32.009	13.658	1047.060	800.776
33.023	13.687	1046.054	800.072
34.038	13.704	1045.308	799.512
35.053	13.789	1043.718	798.638
36.067	13.627	1043.058	797.282
37.082	13.583	1042.691	796.719
38.096	13.644	1041.863	796.311
39.111	13.761	1041.089	796.207
40.126	13.689	1039.981	794.948
41.140	13.697	1039.129	794.263
42.155	13.513	1037.875	792.352
43.169	13.487	1036.841	791.370
44.184	13.425	1036.122	790.453
45.199	13.442	1034.901	789.535
46.213	13.572	1033.582	789.078
47.228	13.421	1032.916	787.780
48.242	13.414	1032.415	787.297
49.257	13.595	1031.228	787.182
50.271	13.569	1029.817	785.910
51.286	13.604	1029.005	785.389
52.301	13.560	1028.529	784.748
53.315	13.545	1027.716	783.984
54.330	13.509	1026.928	783.145
55.344	13.553	1025.558	782.240
56.359	13.601	1024.606	781.670
57.374	13.465	1024.026	780.516
58.388	13.439	1023.218	779.709
59.403	13.511	1021.951	779.011
60.417	13.466	1021.490	778.382
61.432	13.469	1020.646	777.685
62.447	13.383	1020.227	776.890
63.461	13.336	1018.935	775.620
64.476	13.207	1018.440	774.569
65.490	13.336	1017.174	774.143
66.505	13.387	1016.631	773.900
67.520	13.349	1015.805	773.023
68.534	13.513	1015.015	773.117
69.549	13.405	1014.439	772.109
70.563	13.397	1013.291	771.128
71.578	13.435	1013.155	771.132
72.593	13.323	1011.942	769.622
73.607	13.314	1010.649	768.528
74.622	13.224	1010.151	767.665
75.636	13.198	1009.522	766.997
76.651	13.300	1008.310	766.482
77.666	13.195	1008.177	765.826
78.680	13.378	1006.793	765.554
79.695	13.376	1006.381	765.165
80.709	13.417	1005.526	764.635
81.724	13.327	1005.005	763.756
82.739	13.476	1003.768	763.436
83.753	13.546	1003.401	763.412
84.768	13.485	1002.531	762.402
85.782	13.642	1001.876	762.558
86.797	13.672	1000.927	761.904
87.812	13.717	1000.179	761.477
88.826	13.589	999.707	760.463
89.841	13.460	999.036	759.289
90.855	13.606	997.705	758.883
91.870	13.597	997.060	758.282
92.884	13.623	996.464	757.880
93.899	13.650	995.625	757.298
94.914	13.662	994.965	756.785
95.928	13.751	994.453	756.736
96.943	13.730	993.373	755.752
97.957	13.656	992.436	754.635
98.972	13.694	991.522	754.042
99.987	13.690	991.171	753.691
101.001	13.658	989.898	752.511
102.016	13.562	989.389	751.622
103.030	13.724	988.316	751.477
104.045	13.676	987.390	750.488
105.060	13.795	986.396	750.202
106.074	13.716	985.508	749.104
107.089	13.573	984.405	747.555
108.103	13.512	984.237	747.085
109.118	13.340	983.433	745.637
110.133	13.412	982.164	744.931
111.147	13.363	981.609	744.224
112.162	13.577	980.362	744.173
113.176	13.541	979.736	743.473
114.191	13.447	978.981	742.413
115.206	13.540	978.004	742.020
116.220	13.513	977.579	741.513
117.235	13.572	976.720	741.058
118.249	13.602	975.848	740.465
119.264	13.479	974.731	739.002
120.279	13.396	974.088	738.080
121.293	13.443	973.229	737.572
122.308	13.473	972.517	737.101
123.322	13.538	971.661	736.679
124.337	13.331	971.442	735.525
125.352	13.399	969.891	734.589
126.366	13.471	968.327	733.658
127.381	13.404	967.475	732.652
128.395	13.517	966.642	732.456
129.410	13.500	965.398	731.373
130.424	13.504	964.523	730.662
131.439	13.467	963.653	729.776
132.454	13.539	962.804	729.388
133.468	13.651	962.048	729.242
134.483	13.658	961.544	728.824
135.497	13.572	960.986	727.962
136.512	13.670	960.114	727.666
137.527	13.595	959.180	726.562
138.541	13.733	958.317	726.451
139.556	13.700	957.822	725.868
140.570	13.642	957.216	725.088
141.585	13.736	956.236	724.694
142.600	13.709	955.498	723.952
143.614	13.717	954.892	723.465
144.629	13.737	953.900	722.736
145.643	13.740	953.734	722.557
146.658	13.795	952.534	721.828
147.673	13.826	951.398	721.034
148.687	13.707	950.525	719.793
149.702	13.582	949.804	718.640
150.716	13.581	948.649	717.699
151.731	13.574	947.992	717.109
152.746	13.637	947.247	716.756
153.760	13.661	946.786	716.444
154.775	13.698	945.938	715.899
155.789	13.690	945.479	715.457
156.804	13.721	944.492	714.781
157.819	13.817	943.792	714.598
158.833	13.701	943.402	713.743
159.848	13.866	942.721	713.873
160.862	13.806	942.166	713.132
161.877	14.000	941.313	713.257
162.892	13.789	940.317	711.534
163.906	13.665	939.628	710.416
164.921	13.682	938.757	709.770
165.935	13.791	937.315	709.084
166.950	13.735	936.427	708.107
167.964	13.835	935.659	707.890
168.979	13.926	934.747	707.525
169.994	13.860	933.690	706.384
171.008	13.808	933.086	705.644
172.023	13.783	932.591	705.099
173.037	13.854	931.558	704.556
174.052	13.985	930.677	704.386
175.067	13.913	930.154	703.619
176.081	13.985	929.187	703.131
177.096	13.835	928.704	702.069
178.110	13.785	927.824	701.130
179.125	13.826	927.038	700.647
180.140	13.914	925.637	699.899
181.154	13.774	925.384	699.054
182.169	13.795	924.887	698.706
183.183	14.057	924.108	699.159
184.198	13.980	923.525	698.333
185.213	13.952	923.011	697.761
186.227	14.023	922.558	697.658
187.242	14.004	922.172	697.224
188.256	14.097	921.227	696.839
189.271	14.155	920.377	696.377
190.286	14.265	919.342	695.991
191.300	13.955	919.108	694.455
192.315	13.913	917.878	693.291
193.329	13.871	917.569	692.819
194.344	13.895	916.637	692.155
195.359	14.015	915.985	692.101
196.373	13.963	916.056	691.879
197.388	14.069	915.240	691.641
198.402	14.206	914.480	691.575
199.417	14.151	914.258	691.119
200.432	14.266	914.041	691.369
201.446	14.236	913.500	690.775
202.461	14.465	912.824	691.153
203.475	14.488	912.298	690.789
204.490	14.453	911.477	689.958
205.504	14.361	910.900	689.083
206.519	14.329	910.057	688.252
207.534	14.189	909.343	687.070
208.548	14.222	908.829	686.761
209.563	14.294	908.111	686.453
210.577	14.216	907.345	685.490
211.592	14.289	906.300	684.943
212.607	14.313	906.341	685.013
213.621	14.321	905.840	684.606
214.636	14.393	904.872	684.109
215.650	14.466	903.886	683.603
216.665	14.299	903.769	682.769
217.680	14.507	902.968	682.955
218.694	14.583	902.619	682.943
219.709	14.593	901.999	682.451
220.723	14.662	901.596	682.368
221.738	14.637	900.612	681.461
222.753	14.634	899.772	680.752
223.767	14.622	899.079	680.118
224.782	14.607	898.888	679.855
225.796	14.729	897.711	679.401
226.811	14.627	897.318	678.628
227.826	14.768	896.239	678.324
228.840	14.406	896.289	676.830
229.855	14.551	895.415	676.699
230.869	14.540	894.862	676.176
231.884	14.568	894.098	675.654
232.899	14.536	893.165	674.759
233.913	14.589	892.272	674.240
234.928	14.632	891.993	674.143
235.942	14.773	890.806	673.753
236.957	14.647	890.098	672.654
237.972	14.595	889.428	671.878
238.986	14.683	889.231	672.023
240.001	14.616	888.828	671.390
241.015	14.600	887.860	670.534
242.030	14.706	886.687	670.015
243.045	14.738	886.563	669.989
244.059	14.760	885.879	669.500
245.074	14.776	885.022	668.858
246.088	14.798	884.696	668.642
247.103	14.842	883.763	668.052
248.117	14.892	883.285	667.832
249.132	14.992	882.728	667.751
250.147	15.052	882.185	667.522
251.161	15.094	881.555	667.153
252.176	15.036	881.120	666.535
253.190	15.143	880.202	666.207
254.205	15.150	879.877	665.929
255.220	15.234	879.219	665.705
256.234	15.111	878.444	664.573
257.249	15.154	878.062	664.393
258.263	15.229	877.446	664.168
259.278	15.202	876.966	663.637
260.293	15.209	876.644	663.364
261.307	15.247	875.634	662.689
262.322	15.230	875.611	662.546
263.336	15.323	874.631	662.115
264.351	15.242	874.044	661.290
265.366	15.432	872.840	661.070
266.380	15.476	872.501	660.927
267.395	15.378	872.113	660.191
268.409	15.431	871.203	659.651
269.424	15.260	870.610	658.471
270.439	15.307	869.743	657.941
271.453	15.444	868.809	657.716
272.468	15.374	868.146	656.879
273.482	15.460	867.625	656.764
274.497	15.403	866.912	655.944
275.512	15.308	866.570	655.257
276.526	15.416	865.866	655.088
277.541	15.265	865.331	654.035
278.555	15.549	864.484	654.445
279.570	15.414	864.173	653.625
280.585	15.509	863.432	653.376
281.599	15.608	862.787	653.215
282.614	15.542	861.951	652.268
283.628	15.612	861.419	652.081
284.643	15.591	860.779	651.458
285.657	15.478	860.701	650.900
286.672	15.442	860.269	650.377
287.687	15.629	859.145	650.194
288.701	15.555	859.266	649.942
289.716	15.486	858.557	649.083
290.730	15.583	857.932	648.927
291.745	15.592	856.922	648.139
292.760	15.641	856.657	648.070
293.774	15.618	856.101	647.504
294.789	15.665	855.402	647.099
295.803	15.865	854.776	647.336
296.818	15.741	854.160	646.338
297.833	15.648	853.304	645.275
298.847	15.734	852.688	645.081
299.862	15.718	851.864	644.341
300.876	15.742	851.529	644.120
301.891	15.665	851.058	643.413
302.906	15.789	850.255	643.224
303.920	15.831	849.345	642.639
304.935	15.873	849.074	642.537
305.949	16.020	848.052	642.268
306.964	15.938	847.646	641.589
307.979	15.933	847.277	641.237
308.993	15.937	846.257	640.421
310.008	16.067	845.556	640.329
311.022	16.056	845.343	640.070
312.037	16.072	844.596	639.509
313.052	16.083	844.261	639.240
314.066	16.062	843.691	638.671
315.081	15.930	842.964	637.564
316.095	15.929	842.395	637.076
317.110	15.873	842.276	636.715
318.125	16.013	841.291	636.444
319.139	16.051	841.078	636.371
320.154	15.991	840.550	635.686
321.168	15.969	839.966	635.106
322.183	15.978	839.441	634.686
323.197	16.072	838.878	634.559
324.212	16.021	838.433	633.975
325.227	16.013	837.603	633.261
326.241	16.092	837.118	633.135
327.256	16.109	836.719	632.842
328.270	16.070	835.988	632.087
329.285	16.125	835.649	631.982
330.300	16.110	834.935	631.329
331.314	16.134	834.446	630.991
332.329	16.103	833.788	630.324
333.343	16.126	832.926	629.702
334.358	16.203	832.596	629.685
335.373	16.249	832.032	629.371
336.387	16.215	831.675	628.920
337.402	16.165	831.120	628.258
338.416	16.304	830.414	628.187
339.431	16.365	830.238	628.223
340.446	16.364	829.523	627.624
341.460	16.463	828.556	627.205
342.475	16.640	827.944	627.341
343.489	16.463	827.869	626.575
344.504	16.437	827.518	626.158
345.519	16.473	826.801	625.693
346.533	16.533	826.394	625.550
347.548	16.594	825.601	625.121
348.562	16.489	825.284	624.437
349.577	16.565	824.621	624.161
350.592	16.478	824.167	623.441
351.606	16.444	823.670	622.884
352.621	16.452	823.256	622.547
353.635	16.530	822.731	622.380
354.650	16.565	822.018	621.914
355.665	16.464	822.046	621.509
356.679	16.468	821.345	620.937
357.694	16.626	820.748	621.011
358.708	16.575	820.335	620.458
359.723	16.438	819.835	619.524
360.738	16.674	818.903	619.627
361.752	16.695	818.722	619.514
362.767	16.624	818.673	619.163
363.781	16.703	817.996	618.885
364.796	16.682	817.745	618.561
365.810	16.914	817.017	618.805
366.825	16.872	817.017	618.595
367.840	16.905	816.418	618.209
368.854	16.844	816.255	617.807
369.869	16.908	815.601	617.490
370.883	16.888	814.984	616.896
371.898	16.939	813.953	616.246
372.913	16.945	813.715	616.034
373.927	16.919	813.107	615.422
374.942	16.935	812.360	614.863
375.956	16.814	812.139	614.201
376.971	17.036	811.313	614.325
377.986	16.977	811.140	613.929
379.000	16.966	810.736	613.529
380.015	17.183	810.156	613.820
381.029	17.017	809.580	612.727
382.044	16.988	809.010	612.138
383.059	17.058	808.297	611.798
384.073	17.245	807.629	611.910
385.088	17.178	807.146	611.251
386.102	17.154	806.570	610.672
387.117	17.080	805.911	609.853
388.132	16.951	805.691	609.170
389.146	17.035	805.355	609.165
390.161	17.187	804.877	609.294
391.175	17.314	804.395	609.331
392.190	17.254	804.500	609.142
393.205	17.147	803.814	608.186
394.219	17.081	803.646	607.768
395.234	17.102	802.732	607.098
396.248	17.122	802.120	606.652
397.263	17.238	801.822	606.787
398.278	17.058	801.257	605.663
399.292	17.052	800.836	605.270
400.307	17.103	800.339	605.025
401.321	17.101	800.046	604.742
402.336	17.086	799.643	604.330
403.350	17.123	799.510	604.308
404.365	17.144	798.828	603.812
405.380	17.306	798.361	603.983
406.394	17.375	798.034	603.926
407.409	17.479	797.366	603.737
408.423	17.425	796.913	603.149
409.438	17.400	796.505	602.696
410.453	17.544	795.947	602.730
411.467	17.530	795.977	602.652
412.482	17.446	795.462	601.911
413.496	17.630	794.921	602.098
414.511	17.665	794.311	601.706
415.526	17.584	794.236	601.312
416.540	17.457	794.037	600.660
417.555	17.584	793.240	600.451
418.569	17.571	793.096	600.242
419.584	17.614	792.309	599.745
420.599	17.688	791.760	599.536
421.613	107.630	1287.345	1458.484
422.628	92.372	1359.534	1458.590
