DTS Sentinel unit serial number:	SN413079Multiplexer serial number:	ORYXHardware model number:	OX4-SRSoftware version number:	ORYX F/W v4.00 Oryx Data Collector v3.7.2.0data status	okinstallation	princeton_trtdifferential loss correction	single-endedforward channel	channel 3reverse channel	N/Adate	2019/09/14time	21:12:34forward acquisition time	60.00reverse acquisition time	0.00gamma	496.2192k internal	0.2317k external	0.2317temperature offset calibration	0.9994default loss term (dB/km)	0.3790temperature slope calibration	1.0000multiplexer offset coefficient	1.0000multiplexer slope coefficient	1.0000fibre end	0.00T internal ref (°C)	33.02T ext. ref 1 (°C)	4.74T ext. ref 2 (°C)	27.82length (m)	temperature (°C)	Stokes	anti-Stokes-747.200	-141.064	0.160	-0.017
-746.185	44.511	-0.157	-0.146
-745.171	17.582	0.175	0.141
-744.156	-200.000	0.021	-0.119
-743.142	800.000	0.064	0.196
-742.127	-200.000	0.003	-0.060
-741.112	-100.615	0.254	0.063
-740.098	11.385	-0.254	0.197
-739.083	145.394	-0.079	0.107
-738.069	-200.000	-0.064	0.306
-737.054	125.971	0.020	-0.026
-736.039	-119.554	-0.309	0.054
-735.025	-89.013	0.265	0.080
-734.010	-200.000	0.000	-0.110
-732.996	-156.777	-0.485	0.030
-731.981	89.182	0.124	0.140
-730.966	50.260	-0.362	0.346
-729.952	788.235	-0.144	0.401
-728.937	433.263	0.106	-0.234
-727.923	44.594	0.141	-0.131
-726.908	-174.734	-0.156	0.004
-725.894	14.220	-0.114	-0.090
-724.879	-141.469	-0.293	0.030
-723.864	36.977	0.293	-0.262
-722.850	-11.068	-0.304	-0.203
-721.835	-74.193	0.285	-0.104
-720.821	23.376	-0.080	0.067
-719.806	-200.000	0.021	-0.134
-718.791	239.227	-0.093	-0.156
-717.777	-200.000	-0.033	-0.344
-716.762	-200.000	0.004	0.101
-715.748	-119.940	-0.105	0.018
-714.733	133.679	-0.154	0.201
-713.718	107.660	0.218	-0.263
-712.704	-167.429	-0.208	-0.008
-711.689	-0.607	-0.181	0.130
-710.675	800.000	-0.118	-0.378
-709.660	37.327	-0.132	-0.119
-708.645	800.000	-0.123	0.383
-707.631	89.676	0.196	0.221
-706.616	-176.305	-0.207	-0.005
-705.602	341.166	-0.084	0.166
-704.587	-53.066	-0.110	0.051
-703.572	119.037	-0.163	-0.203
-702.558	-200.000	-0.028	-0.183
-701.543	-88.058	-0.178	-0.054
-700.529	-68.044	-0.123	0.048
-699.514	800.000	-0.036	0.128
-698.499	-200.000	0.012	-0.079
-697.485	-200.000	0.011	-0.066
-696.470	-200.000	-0.024	-0.456
-695.456	248.408	-0.073	-0.125
-694.441	281.280	0.100	0.181
-693.426	-110.511	0.163	-0.034
-692.412	-87.539	0.276	-0.084
-691.397	-58.098	0.104	0.046
-690.383	53.181	-0.176	0.171
-689.368	646.046	-0.057	-0.147
-688.354	-200.000	-0.016	-0.159
-687.339	0.653	-0.450	-0.325
-686.324	-39.339	0.201	0.107
-685.310	-200.000	-0.017	-0.263
-684.295	-131.857	0.041	0.005
-683.281	-28.094	-0.234	0.137
-682.266	-144.341	-0.240	-0.023
-681.251	121.144	0.291	-0.366
-680.237	-65.509	-0.550	0.223
-679.222	170.499	0.083	-0.120
-678.208	-200.000	-0.038	-0.343
-677.193	559.689	-0.104	0.253
-676.178	109.661	-0.195	-0.236
-675.164	96.386	-0.196	-0.226
-674.149	-37.130	0.183	0.099
-673.135	-60.763	-0.295	0.126
-672.120	800.000	0.096	-0.298
-671.105	-200.000	-0.031	0.274
-670.091	-93.019	-0.120	0.034
-669.076	800.000	0.120	-0.388
-668.062	-110.464	0.251	0.053
-667.047	-200.000	0.045	-0.223
-666.032	-192.177	0.260	-0.003
-665.018	-35.329	0.426	-0.234
-664.003	217.307	-0.205	-0.330
-662.989	5.404	-0.144	-0.107
-661.974	47.284	-0.236	0.221
-660.959	-141.726	0.196	0.020
-659.945	-44.764	0.217	-0.109
-658.930	33.607	-0.135	-0.118
-657.916	-29.014	-0.226	-0.131
-656.901	-29.556	-0.224	-0.129
-655.886	-82.536	-0.253	-0.083
-654.872	800.000	0.100	-0.382
-653.857	-81.311	-0.362	0.120
-652.843	27.593	0.199	0.169
-651.828	15.458	-0.051	-0.040
-650.814	48.933	0.069	-0.065
-649.799	-200.000	0.028	0.184
-648.784	-155.949	-0.216	0.014
-647.770	-90.535	-0.251	0.073
-646.755	-17.481	0.241	0.153
-645.741	-200.000	-0.008	-0.104
-644.726	30.109	-0.084	0.073
-643.711	-61.895	0.338	-0.142
-642.697	-42.487	0.121	0.062
-641.682	-200.000	-0.007	0.165
-640.668	-64.589	0.291	-0.119
-639.653	-200.000	0.029	0.372
-638.638	-95.422	-0.258	-0.070
-637.624	60.759	-0.149	0.149
-636.609	-112.863	0.214	-0.043
-635.595	-53.708	0.244	0.112
-634.580	270.294	0.115	0.203
-633.565	-127.192	0.397	0.059
-632.551	-35.125	-0.381	-0.209
-631.536	435.903	0.080	0.175
-630.522	-107.341	-0.070	0.016
-629.507	-167.116	-0.380	0.016
-628.492	-127.683	0.114	0.017
-627.478	-34.384	0.181	-0.100
-626.463	125.747	-0.145	0.184
-625.449	-4.438	-0.209	-0.145
-624.434	-156.488	-0.146	-0.009
-623.419	-132.432	-0.485	-0.063
-622.405	-200.000	-0.040	0.196
-621.390	-200.000	0.003	-0.189
-620.376	-41.170	0.113	-0.059
-619.361	-175.728	-0.131	-0.004
-618.346	-136.073	-0.133	0.016
-617.332	7.211	-0.167	-0.126
-616.317	387.061	-0.153	-0.319
-615.303	52.751	-0.314	-0.303
-614.288	-134.367	-0.194	-0.024
-613.273	191.337	-0.001	-0.001
-612.259	-95.373	-0.187	-0.051
-611.244	-35.305	0.096	0.052
-610.230	-144.640	0.243	0.023
-609.215	-10.960	-0.224	0.149
-608.201	270.438	-0.094	-0.167
-607.186	39.227	0.339	-0.305
-606.171	2.636	0.217	-0.159
-605.157	-141.406	0.041	0.004
-604.142	26.106	0.059	0.049
-603.128	74.897	-0.382	-0.405
-602.113	-200.000	0.010	-0.261
-601.098	800.000	-0.065	-0.183
-600.084	220.760	-0.181	0.292
-599.069	-200.000	0.106	0.569
-598.055	121.544	-0.041	-0.052
-597.040	209.136	0.195	-0.308
-596.025	77.525	-0.169	-0.181
-595.011	-163.513	-0.289	0.014
-593.996	-27.944	-0.511	0.298
-592.982	-80.619	-0.279	0.093
-591.967	-56.636	-0.219	0.098
-590.952	67.482	-0.219	0.225
-589.938	-200.000	-0.035	0.340
-588.923	152.461	-0.066	0.090
-587.909	-200.000	-0.025	0.166
-586.894	-49.333	-0.119	-0.057
-585.879	-75.491	0.169	0.061
-584.865	-132.216	0.322	0.042
-583.850	-86.392	-0.239	-0.074
-582.836	-87.917	-0.243	0.074
-581.821	24.961	0.298	0.249
-580.806	-100.378	0.314	-0.078
-579.792	-183.789	-0.138	-0.002
-578.777	20.890	-0.107	-0.087
-577.763	-0.795	-0.043	-0.031
-576.748	-116.181	-0.421	0.079
-575.733	89.922	-0.251	-0.282
-574.719	-200.000	0.002	-0.200
-573.704	41.516	0.153	0.139
-572.690	-61.588	-0.280	0.118
-571.675	-175.509	0.205	-0.006
-570.661	350.204	0.047	0.093
-569.646	-28.915	0.066	0.038
-568.631	-22.510	0.197	0.120
-567.617	-0.309	-0.162	-0.116
-566.602	800.000	0.007	-0.028
-565.588	599.894	-0.065	0.161
-564.573	-16.820	0.422	-0.268
-563.558	-102.216	0.275	-0.067
-562.544	114.099	0.208	-0.254
-561.529	800.000	0.092	-0.274
-560.515	208.995	-0.031	-0.049
-559.500	273.393	-0.091	-0.161
-558.485	-121.478	0.288	0.048
-557.471	-101.305	-0.256	0.063
-556.456	-146.222	-0.326	-0.029
-555.442	-122.429	0.228	0.037
-554.427	220.012	-0.188	-0.302
-553.412	69.826	0.219	-0.227
-552.398	-200.000	0.010	-0.220
-551.383	800.000	-0.009	-0.038
-550.369	-156.631	0.100	0.006
-549.354	82.212	-0.077	0.084
-548.339	67.202	-0.004	0.004
-547.325	476.250	0.120	0.272
-546.310	158.337	-0.180	0.251
-545.296	-102.289	0.130	0.031
-544.281	55.816	0.106	-0.103
-543.266	800.000	0.132	-0.432
-542.252	-86.573	-0.272	0.084
-541.237	188.887	0.143	0.215
-540.223	-154.889	-0.387	0.026
-539.208	800.000	0.060	-0.175
-538.193	799.740	-0.028	-0.077
-537.179	-200.000	0.020	-0.244
-536.164	800.000	-0.032	-0.131
-535.150	138.675	0.167	-0.220
-534.135	-159.963	-0.243	-0.013
-533.121	375.183	0.112	-0.228
-532.106	1.100	-0.137	0.099
-531.091	-72.732	0.246	0.091
-530.077	-200.000	-0.000	0.043
-529.062	-200.000	-0.028	-0.151
-528.048	208.317	-0.065	0.102
-527.033	-42.319	-0.272	-0.140
-526.018	-163.103	-0.220	-0.011
-525.004	-200.000	0.045	0.296
-523.989	181.126	0.162	-0.239
-522.975	-104.185	-0.231	-0.054
-521.960	-200.000	0.004	0.159
-520.945	-42.865	0.169	-0.086
-519.931	698.045	0.032	-0.084
-518.916	511.866	-0.064	0.150
-517.902	407.077	0.063	0.134
-516.887	-51.281	0.182	0.085
-515.872	-200.000	0.013	0.300
-514.858	358.908	-0.128	-0.257
-513.843	-123.229	-0.301	-0.048
-512.829	-172.952	0.119	-0.004
-511.814	-200.000	0.006	-0.145
-510.799	673.657	0.087	-0.227
-509.785	-102.814	0.594	-0.142
-508.770	265.766	-0.089	0.155
-507.756	-158.139	0.308	0.018
-506.741	-116.099	-0.137	-0.026
-505.726	-106.613	-0.236	-0.053
-504.712	-58.685	0.192	0.083
-503.697	289.488	-0.044	0.081
-502.683	-52.835	-0.287	0.132
-501.668	128.871	-0.055	-0.070
-500.653	221.605	-0.116	-0.187
-499.639	-134.907	-0.392	-0.048
-498.624	436.812	-0.156	0.341
-497.610	313.616	0.020	-0.037
-496.595	529.679	0.073	-0.172
-495.581	-33.264	0.202	0.112
-494.566	-47.739	0.225	0.109
-493.551	-117.287	-0.350	0.064
-492.537	128.641	0.197	-0.251
-491.522	-200.000	-0.022	-0.219
-490.508	537.538	0.074	0.177
-489.493	-102.758	-0.129	-0.031
-488.478	-200.000	0.025	0.303
-487.464	-200.000	-0.017	-0.162
-486.449	-174.057	0.081	0.002
-485.435	62.762	-0.036	0.036
-484.420	11.743	0.056	0.043
-483.405	122.717	0.433	0.543
-482.391	204.524	0.126	-0.196
-481.376	-200.000	0.006	-0.296
-480.362	50.099	-0.259	0.245
-479.347	429.972	-0.111	-0.241
-478.332	132.281	-0.165	-0.213
-477.318	171.913	0.187	0.270
-476.303	-110.826	0.206	-0.043
-475.289	-79.200	0.286	0.097
-474.274	86.247	0.182	-0.201
-473.259	-197.288	-0.401	0.003
-472.245	81.090	-0.174	0.188
-471.230	335.702	0.184	0.357
-470.216	-60.291	-0.196	-0.083
-469.201	-2.007	-0.098	-0.069
-468.186	-16.750	-0.158	-0.100
-467.172	37.306	-0.120	0.107
-466.157	188.279	0.115	-0.172
-465.143	-75.690	-0.349	-0.124
-464.128	90.458	-0.132	0.148
-463.113	541.077	0.165	-0.394
-462.099	179.126	-0.137	-0.201
-461.084	-200.000	0.359	-0.001
-460.070	-200.000	0.034	-0.197
-459.055	-41.804	0.192	-0.098
-458.040	-29.801	0.149	-0.085
-457.026	67.688	-0.234	-0.240
-456.011	-179.545	0.135	-0.003
-454.997	187.922	-0.099	0.148
-453.982	-74.156	-0.179	-0.065
-452.968	270.800	-0.124	-0.219
-451.953	-200.000	0.100	-0.445
-450.938	-41.376	-0.242	0.125
-449.924	-104.394	0.189	-0.044
-448.909	-200.000	0.008	-0.044
-447.895	-118.205	-0.018	-0.003
-446.880	-14.484	0.169	0.109
-445.865	-57.093	-0.095	0.042
-444.851	135.211	0.171	-0.222
-443.836	-45.318	-0.118	0.059
-442.822	284.988	-0.053	0.096
-441.807	16.782	0.122	0.097
-440.792	-80.068	-0.137	-0.046
-439.778	-50.416	0.078	0.037
-438.763	-130.787	0.284	0.038
-437.749	-200.000	0.003	-0.043
-436.734	800.000	-0.120	0.441
-435.719	362.954	0.072	0.144
-434.705	-200.000	-0.014	0.246
-433.690	97.486	-0.241	0.277
-432.676	800.000	0.078	-0.221
-431.661	154.958	0.171	0.236
-430.646	-189.271	0.190	0.002
-429.632	-51.825	-0.167	0.078
-428.617	-21.860	0.194	-0.118
-427.603	52.271	-0.011	0.011
-426.588	-36.353	0.139	-0.075
-425.573	800.000	0.039	0.150
-424.559	-89.904	0.277	0.081
-423.544	-148.794	-0.135	-0.011
-422.530	2.930	0.418	-0.304
-421.515	45.313	0.169	-0.156
-420.500	800.000	0.092	-0.287
-419.486	-200.000	-0.019	-0.367
-418.471	695.596	-0.106	0.279
-417.457	112.600	-0.255	0.309
-416.442	68.879	-0.294	0.301
-415.428	-54.898	-0.127	-0.057
-414.413	-200.000	0.049	-0.318
-413.398	0.612	0.195	-0.139
-412.384	-200.000	-0.023	-0.316
-411.369	800.000	0.091	-0.279
-410.355	-41.715	0.149	-0.076
-409.340	368.052	-0.050	-0.101
-408.325	-123.298	0.444	0.071
-407.311	61.589	-0.195	0.194
-406.296	536.147	0.053	0.126
-405.282	23.481	0.187	0.153
-404.267	-46.641	0.297	-0.146
-403.252	15.925	0.257	-0.202
-402.238	49.568	0.031	0.029
-401.223	374.807	-0.137	-0.279
-400.209	57.327	-0.128	0.125
-399.194	-95.757	0.115	0.031
-398.179	143.995	-0.098	-0.130
-397.165	-200.000	0.009	0.091
-396.150	610.940	-0.097	0.243
-395.136	800.000	0.077	0.310
-394.121	-182.929	-0.190	-0.003
-393.106	435.707	0.092	-0.200
-392.092	800.000	-0.019	-0.067
-391.077	161.401	0.090	0.125
-390.063	-35.583	-0.292	0.158
-389.048	-156.165	0.255	0.016
-388.033	126.555	-0.166	0.210
-387.019	800.000	0.074	0.307
-386.004	-87.122	0.180	-0.055
-384.990	-7.733	0.308	-0.208
-383.975	59.790	0.167	0.164
-382.960	-36.789	0.027	0.014
-381.946	-146.062	0.200	0.018
-380.931	9.131	-0.232	0.175
-379.917	-200.000	0.022	0.200
-378.902	800.000	0.152	-0.480
-377.888	-75.090	0.214	0.077
-376.873	34.828	-0.399	0.348
-375.858	313.316	0.146	0.274
-374.844	-200.000	-0.002	-0.040
-373.829	134.751	-0.143	-0.185
-372.815	223.623	-0.072	-0.117
-371.800	-81.403	0.130	0.043
-370.785	129.814	0.184	0.235
-369.771	-200.000	0.063	-0.332
-368.756	13.103	-0.256	-0.198
-367.742	-200.000	0.003	0.294
-366.727	33.127	0.097	0.084
-365.712	568.335	0.121	-0.294
-364.698	141.351	-0.145	0.191
-363.683	800.000	-0.036	-0.101
-362.669	-63.956	-0.188	-0.077
-361.654	-13.237	0.139	-0.090
-360.639	-46.241	0.175	0.086
-359.625	58.224	0.214	0.210
-358.610	350.059	-0.074	-0.145
-357.596	-200.000	-0.053	0.345
-356.581	-57.708	-0.108	-0.047
-355.566	31.439	0.198	-0.170
-354.552	-102.975	0.072	0.017
-353.537	20.213	0.240	-0.193
-352.523	-200.000	-0.090	-0.430
-351.508	-150.724	0.325	0.025
-350.493	121.087	0.147	-0.182
-349.479	-51.474	-0.290	-0.135
-348.464	137.802	0.200	0.261
-347.450	-147.835	-0.260	-0.022
-346.435	86.858	0.092	0.102
-345.420	-78.083	-0.357	0.122
-344.406	225.585	0.135	0.218
-343.391	-146.872	-0.465	0.040
-342.377	46.086	0.095	0.087
-341.362	-200.000	-0.072	0.369
-340.348	-104.960	-0.305	0.070
-339.333	247.937	-0.007	0.013
-338.318	-200.000	-0.056	-0.264
-337.304	-19.339	0.290	-0.179
-336.289	-23.512	0.241	-0.144
-335.275	32.923	-0.124	-0.107
-334.260	-33.310	0.148	0.082
-333.245	-150.919	-0.036	0.003
-332.231	11.369	0.086	0.066
-331.216	-108.067	0.059	-0.013
-330.202	-105.803	-0.111	0.025
-329.187	254.454	0.053	0.090
-328.172	-17.158	-0.239	-0.150
-327.158	-13.432	-0.168	-0.108
-326.143	-167.550	-0.044	-0.002
-325.129	-14.640	0.228	0.146
-324.114	173.240	-0.103	-0.148
-323.099	800.000	0.029	-0.096
-322.085	216.087	0.040	0.063
-321.070	800.000	0.040	-0.152
-320.056	58.132	-0.139	-0.136
-319.041	-22.597	-0.125	0.076
-318.026	-69.563	0.292	0.111
-317.012	-41.959	-0.171	-0.087
-315.997	-131.090	0.263	0.035
-314.983	-152.932	0.133	0.009
-313.968	177.758	-0.274	0.398
-312.953	204.254	-0.077	0.120
-311.939	-18.879	0.221	0.137
-310.924	58.062	0.097	0.095
-309.910	-63.885	-0.357	-0.145
-308.895	-130.785	0.231	0.031
-307.880	-141.013	0.075	-0.008
-306.866	-200.000	0.007	0.188
-305.851	-80.755	0.034	-0.011
-304.837	-117.220	-0.345	0.062
-303.822	-200.000	0.010	-0.140
-302.807	-200.000	0.008	0.227
-301.793	448.455	-0.145	0.318
-300.778	354.965	0.055	0.109
-299.764	-200.000	0.022	0.200
-298.749	-4.614	-0.322	0.221
-297.735	14.601	0.037	0.029
-296.720	-200.000	-0.037	-0.364
-295.705	202.349	0.053	0.081
-294.691	-200.000	0.044	-0.307
-293.676	-63.957	0.190	-0.077
-292.662	-113.869	-0.045	-0.009
-291.647	20.693	0.159	0.128
-290.632	-200.000	-0.016	-0.089
-289.618	-22.937	-0.209	0.125
-288.603	-117.138	-0.168	0.030
-287.589	58.583	0.209	0.204
-286.574	-200.000	0.024	-0.111
-285.559	449.841	-0.044	0.096
-284.545	-200.000	-0.006	0.271
-283.530	-200.000	-0.015	-0.153
-282.516	349.815	-0.242	0.476
-281.501	-200.000	0.021	-0.212
-280.486	-185.703	0.356	-0.005
-279.472	180.986	-0.241	-0.352
-278.457	-84.278	-0.383	0.121
-277.443	36.552	-0.099	-0.087
-276.428	257.927	-0.076	-0.129
-275.413	183.459	0.129	-0.189
-274.399	-128.316	0.176	-0.025
-273.384	-200.000	-0.078	0.566
-272.370	800.000	0.060	0.194
-271.355	-109.565	-0.180	0.038
-270.340	-200.000	-0.055	-0.299
-269.326	94.683	-0.137	-0.155
-268.311	62.514	0.139	-0.138
-267.297	-200.000	-0.049	0.235
-266.282	800.000	0.113	-0.420
-265.267	-200.000	0.002	-0.167
-264.253	126.454	-0.076	0.096
-263.238	153.753	-0.206	-0.281
-262.224	800.000	-0.009	-0.030
-261.209	-116.809	-0.136	0.025
-260.195	-102.402	0.189	0.045
-259.180	35.207	0.267	-0.232
-258.165	-108.511	-0.035	0.007
-257.151	299.451	0.113	0.207
-256.136	800.000	0.052	-0.185
-255.122	-75.987	0.187	0.066
-254.107	-27.122	-0.203	0.118
-253.092	518.055	0.022	-0.051
-252.078	-33.841	-0.249	0.136
-251.063	-63.530	-0.258	-0.105
-250.049	-5.280	0.247	0.169
-249.034	-200.000	-0.030	0.291
-248.019	-40.380	0.130	-0.067
-247.005	-96.037	-0.107	0.028
-245.990	-200.000	-0.002	-0.028
-244.976	-16.568	-0.027	0.017
-243.961	13.766	-0.376	-0.290
-242.946	-200.000	0.015	0.068
-241.932	756.388	0.106	0.285
-240.917	70.160	0.121	-0.124
-239.903	304.323	0.038	0.071
-238.888	800.000	-0.110	0.323
-237.873	-200.000	-0.011	0.099
-236.859	-89.720	-0.174	0.051
-235.844	283.449	-0.050	-0.089
-234.830	216.799	-0.060	0.095
-233.815	-77.089	-0.232	0.080
-232.800	29.214	0.224	0.189
-231.786	-40.664	-0.147	0.076
-230.771	277.102	0.070	-0.124
-229.757	-41.769	-0.082	-0.042
-228.742	63.521	-0.239	-0.238
-227.727	-139.645	0.150	0.016
-226.713	-122.707	-0.185	-0.030
-225.698	23.395	-0.103	0.084
-224.684	144.642	0.140	0.185
-223.669	148.792	0.101	-0.135
-222.655	-185.157	0.095	-0.001
-221.640	-117.319	0.273	-0.049
-220.625	-170.069	-0.138	-0.005
-219.611	240.857	0.113	0.186
-218.596	243.943	-0.223	0.372
-217.582	38.898	-0.094	0.084
-216.567	47.128	0.095	0.088
-215.552	135.183	0.241	0.311
-214.538	81.431	-0.109	-0.117
-213.523	-106.271	0.216	-0.048
-212.509	257.986	0.101	-0.173
-211.494	-54.888	0.292	-0.131
-210.479	-134.136	0.173	-0.021
-209.465	-59.790	0.362	-0.154
-208.450	-200.000	0.069	-0.590
-207.436	14.888	0.249	0.193
-206.421	-41.624	-0.213	-0.108
-205.406	-108.228	-0.376	0.081
-204.392	-51.672	-0.205	0.095
-203.377	-98.239	0.245	-0.062
-202.363	-200.000	-0.008	0.328
-201.348	-105.527	-0.124	-0.028
-200.333	-200.000	0.013	0.096
-199.319	-31.662	0.070	-0.039
-198.304	-152.330	-0.155	-0.011
-197.290	-200.000	-0.012	0.128
-196.275	202.581	0.119	0.181
-195.260	78.421	-0.127	-0.135
-194.246	-200.000	-0.029	-0.199
-193.231	-69.043	0.072	0.028
-192.217	-86.157	0.185	0.057
-191.202	-122.268	0.320	-0.052
-190.187	68.238	-0.156	0.158
-189.173	-60.583	-0.202	0.085
-188.158	800.000	-0.038	0.125
-187.144	-70.862	0.112	-0.042
-186.129	16.945	0.280	0.219
-185.114	800.000	0.066	0.238
-184.100	-97.950	-0.099	-0.025
-183.085	-135.237	0.238	-0.028
-182.071	177.667	-0.049	-0.071
-181.056	-62.602	-0.122	0.050
-180.042	-81.989	0.168	-0.054
-179.027	-20.569	0.348	-0.211
-178.012	-53.846	-0.321	-0.145
-176.998	88.163	0.007	-0.007
-175.983	-45.915	0.197	0.096
-174.969	349.925	-0.014	-0.028
-173.954	21.543	0.091	-0.073
-172.939	-71.901	-0.136	-0.050
-171.925	-30.799	-0.157	0.088
-170.910	-65.401	0.131	-0.052
-169.896	-72.981	-0.235	0.085
-168.881	-11.784	-0.162	-0.105
-167.866	-0.139	0.247	0.174
-166.852	-29.996	0.084	0.047
-165.837	18.317	-0.034	-0.027
-164.823	-200.000	0.004	-0.195
-163.808	800.000	0.020	0.063
-162.793	20.570	0.119	0.096
-161.779	-109.299	0.319	-0.067
-160.764	-12.779	-0.112	-0.072
-159.750	-200.000	0.012	-0.081
-158.735	53.685	-0.103	-0.098
-157.720	800.000	0.081	0.262
-156.706	-200.000	-0.031	0.141
-155.691	51.940	0.317	-0.298
-154.677	96.699	-0.088	-0.100
-153.662	311.591	0.097	-0.181
-152.647	-116.464	-0.077	-0.014
-151.633	241.975	0.010	0.016
-150.618	-96.579	-0.085	-0.022
-149.604	67.058	0.217	0.219
-148.589	800.000	-0.064	-0.200
-147.574	-90.491	0.118	0.034
-146.560	-167.941	-0.138	0.005
-145.545	123.334	0.099	-0.122
-144.531	-200.000	0.026	-0.142
-143.516	248.592	0.124	0.207
-142.502	85.568	-0.119	-0.129
-141.487	120.308	-0.159	0.195
-140.472	-29.994	-0.043	0.024
-139.458	-122.793	0.194	-0.031
-138.443	800.000	0.074	-0.247
-137.429	-200.000	0.050	-0.239
-136.414	-23.464	0.214	-0.127
-135.399	517.742	-0.019	-0.044
-134.385	-199.830	0.123	0.001
-133.370	-114.254	0.216	0.041
-132.356	-110.387	0.193	0.040
-131.341	528.551	-0.047	-0.110
-130.326	-176.925	-0.126	0.003
-129.312	-137.606	-0.183	0.020
-128.297	449.676	0.034	-0.074
-127.283	-200.000	-0.043	-0.196
-126.268	97.657	0.104	0.119
-125.253	-144.564	-0.128	-0.012
-124.239	-94.405	0.198	-0.053
-123.224	-142.560	0.228	0.022
-122.210	-95.490	0.101	-0.027
-121.195	-200.000	-0.026	-0.160
-120.180	-28.297	0.099	0.056
-119.166	800.000	-0.067	0.280
-118.151	33.594	-0.024	0.020
-117.137	-163.940	-0.364	0.017
-116.122	-146.987	0.079	-0.007
-115.107	636.274	0.084	0.212
-114.093	14.252	-0.213	0.164
-113.078	-4.683	0.029	0.019
-112.064	-117.627	-0.057	0.010
-111.049	-73.543	-0.240	-0.087
-110.034	327.861	-0.123	0.233
-109.020	172.322	0.113	-0.161
-108.005	-53.762	0.252	0.113
-106.991	183.606	-0.023	-0.033
-105.976	-97.612	0.199	0.051
-104.962	-42.479	-0.123	0.062
-103.947	800.000	-0.081	-0.226
-102.932	743.125	-0.083	-0.222
-101.918	70.481	-0.208	-0.213
-100.903	-164.628	0.173	0.008
-99.889	303.892	-0.085	0.155
-98.874	183.702	-0.058	-0.084
-97.859	-101.663	-0.230	-0.055
-96.845	-153.346	0.060	-0.004
-95.830	800.000	0.102	-0.385
-94.816	76.116	0.295	0.308
-93.801	-200.000	0.020	0.324
-92.786	-152.817	0.474	-0.033
-91.772	26.313	-0.093	-0.077
-90.757	207.878	0.240	0.370
-89.743	-46.736	-0.118	-0.057
-88.728	13.512	-0.090	-0.069
-87.713	156.380	-0.032	-0.044
-86.699	-52.944	0.011	-0.005
-85.684	-74.461	0.159	-0.056
-84.670	-167.323	0.172	0.007
-83.655	-200.000	0.046	0.334
-82.640	-36.828	-0.208	0.110
-81.626	268.257	0.120	0.208
-80.611	800.000	-0.037	-0.158
-79.597	800.000	-0.110	-0.408
-78.582	141.868	-0.163	0.213
-77.567	96.098	-0.258	0.291
-76.553	517.850	0.057	0.132
-75.538	-59.605	0.057	0.024
-74.524	336.599	0.085	0.163
-73.509	-94.240	0.148	-0.040
-72.494	6.350	-0.065	-0.048
-71.480	-200.000	-0.080	0.397
-70.465	367.468	-0.107	0.214
-69.451	-32.077	-0.248	0.137
-68.436	21.872	0.155	0.125
-67.422	128.823	0.215	0.271
-66.407	-85.514	0.117	-0.036
-65.392	1.692	-0.200	-0.142
-64.378	40.499	0.251	-0.223
-63.363	800.000	0.025	0.090
-62.349	-88.342	0.185	-0.055
-61.334	77.411	-0.749	-0.785
-60.319	-8.380	0.297	0.197
-59.305	-200.000	0.116	-0.988
-58.290	239.216	0.632	1.036
-57.276	800.000	0.484	1.503
-56.261	-200.000	95.137	564.123
-55.246	636.340	1377.829	3448.042
-54.232	197.464	2552.148	3839.667
-53.217	117.748	2165.363	2627.345
-52.203	43.492	1709.619	1540.214
-51.188	36.255	1522.223	1321.976
-50.173	33.775	1496.023	1282.445
-49.159	52.655	1543.815	1453.335
-48.144	54.500	1562.042	1483.101
-47.130	36.433	1521.468	1322.331
-46.115	33.332	1506.383	1288.102
-45.100	33.130	1503.276	1284.028
-44.086	33.094	1501.849	1282.507
-43.071	33.045	1500.056	1280.599
-42.057	32.986	1497.965	1278.359
-41.042	33.050	1496.480	1277.476
-40.027	33.039	1495.047	1276.126
-39.013	32.965	1493.961	1274.648
-37.998	32.983	1492.502	1273.479
-36.984	32.995	1491.373	1272.545
-35.969	33.055	1490.073	1271.787
-34.954	33.052	1489.045	1270.842
-33.940	32.997	1487.607	1269.193
-32.925	33.112	1485.937	1268.488
-31.911	33.082	1484.694	1267.177
-30.896	33.038	1483.269	1265.615
-29.881	33.077	1482.212	1264.922
-28.867	33.107	1480.299	1263.442
-27.852	33.019	1479.378	1262.015
-26.838	33.087	1477.552	1260.866
-25.823	33.042	1476.313	1259.455
-24.809	33.011	1474.875	1257.971
-23.794	33.016	1473.112	1256.452
-22.779	33.023	1471.839	1255.361
-21.765	33.097	1470.472	1254.637
-20.750	33.137	1469.593	1254.104
-19.736	33.129	1468.589	1253.143
-18.721	32.993	1467.788	1251.512
-17.706	33.044	1466.456	1250.661
-16.692	32.976	1465.341	1249.215
-15.677	32.993	1464.210	1248.313
-14.663	32.940	1463.956	1247.692
-13.648	32.917	1462.691	1246.413
-12.633	33.020	1461.765	1246.260
-11.619	32.951	1460.914	1245.024
-10.604	33.048	1459.927	1244.773
-9.590	32.939	1459.219	1243.403
-8.575	32.992	1457.925	1242.604
-7.560	32.936	1457.435	1241.768
-6.546	33.026	1456.615	1241.608
-5.531	32.976	1455.713	1240.460
-4.517	32.883	1454.667	1238.909
-3.502	32.912	1453.881	1238.383
-2.487	32.912	1452.781	1237.397
-1.473	32.971	1451.405	1236.565
-0.458	33.015	1450.019	1235.617
0.556	32.073	1440.564	1223.975
1.571	29.133	1415.717	1183.886
2.586	25.602	1354.636	1110.946
3.600	23.672	1273.246	1032.890
4.615	22.377	1227.327	988.285
5.629	19.164	1171.426	925.940
6.644	11.502	1087.812	821.371
7.659	5.563	1047.811	762.247
8.673	4.754	1042.739	754.569
9.688	4.771	1039.226	752.042
10.702	4.713	1037.884	750.725
11.717	4.713	1036.624	749.748
12.731	6.778	1037.902	760.558
13.746	13.883	1047.949	802.300
14.761	19.041	1054.101	831.943
15.775	18.824	1052.919	829.885
16.790	17.896	1051.041	823.858
17.804	16.727	1048.540	816.192
18.819	15.844	1046.512	810.294
19.834	15.331	1045.418	806.908
20.848	15.223	1044.175	805.356
21.863	14.932	1044.071	803.807
22.877	14.641	1043.031	801.538
23.892	14.448	1042.113	799.833
24.907	14.464	1041.104	799.066
25.921	14.443	1040.563	798.481
26.936	14.499	1039.806	798.096
27.950	14.544	1038.798	797.467
28.965	14.500	1037.760	796.390
29.980	14.602	1036.761	796.038
30.994	14.640	1035.952	795.527
32.009	14.773	1034.764	795.179
33.023	14.819	1034.148	794.852
34.038	14.759	1033.256	793.816
35.053	14.664	1032.358	792.600
36.067	14.623	1031.397	791.601
37.082	14.595	1030.338	790.585
38.096	14.711	1029.300	790.266
39.111	14.784	1028.638	790.034
40.126	14.802	1028.244	789.745
41.140	14.767	1026.621	788.263
42.155	14.504	1025.553	786.138
43.169	14.472	1024.882	785.402
44.184	14.401	1023.708	784.100
45.199	14.340	1022.668	782.945
46.213	14.422	1021.786	782.583
47.228	14.367	1021.011	781.664
48.242	14.563	1019.829	781.608
49.257	14.675	1018.743	781.232
50.271	14.703	1017.788	780.560
51.286	14.569	1017.500	779.643
52.301	14.663	1016.772	779.459
53.315	14.597	1015.964	778.460
54.330	14.525	1015.083	777.382
55.344	14.513	1014.022	776.443
56.359	14.440	1013.291	775.476
57.374	14.395	1012.604	774.674
58.388	14.449	1011.505	774.014
59.403	14.251	1011.182	772.781
60.417	14.452	1009.716	772.523
61.432	14.352	1009.144	771.553
62.447	14.354	1008.519	771.017
63.461	14.329	1007.339	769.930
64.476	14.208	1006.931	768.992
65.490	14.251	1005.987	768.402
66.505	14.272	1004.992	767.671
67.520	14.174	1004.307	766.625
68.534	14.368	1003.895	767.140
69.549	14.278	1002.791	765.814
70.563	14.430	1002.078	765.899
71.578	14.395	1001.329	765.096
72.593	14.162	1000.849	763.592
73.607	14.236	999.544	762.868
74.622	14.283	998.114	761.927
75.636	14.228	997.676	761.271
76.651	14.216	996.813	760.493
77.666	14.257	996.353	760.261
78.680	14.194	995.652	759.373
79.695	14.235	995.207	759.153
80.709	14.232	994.786	758.752
81.724	14.300	994.252	758.584
82.739	14.411	992.752	757.876
83.753	14.304	992.712	757.294
84.768	14.447	991.396	756.872
85.782	14.698	990.925	757.587
86.797	14.686	990.216	756.924
87.812	14.638	989.563	756.137
88.826	14.562	988.928	755.243
89.841	14.513	988.155	754.362
90.855	14.640	986.902	753.911
91.870	14.701	986.098	753.507
92.884	14.788	985.528	753.400
93.899	14.734	984.747	752.492
94.914	14.749	984.035	751.948
95.928	14.765	983.741	751.730
96.943	14.916	982.600	751.469
97.957	14.791	981.982	750.368
98.972	14.808	981.033	749.652
99.987	14.847	980.068	749.024
101.001	14.772	979.579	748.249
102.016	14.684	978.748	747.155
103.030	14.736	977.869	746.648
104.045	14.559	976.908	745.060
105.060	14.852	975.725	745.397
106.074	14.586	975.424	743.915
107.089	14.544	974.253	742.770
108.103	14.367	973.467	741.319
109.118	14.384	972.342	740.471
110.133	14.201	971.979	739.315
111.147	14.272	971.482	739.185
112.162	14.368	970.201	738.574
113.176	14.399	969.168	737.860
114.191	14.423	968.685	737.531
115.206	14.513	967.766	737.167
116.220	14.527	967.191	736.723
117.235	14.524	966.011	735.745
118.249	14.480	965.165	734.844
119.264	14.422	964.005	733.639
120.279	14.446	963.373	733.199
121.293	14.454	962.773	732.714
122.308	14.408	962.061	731.904
123.322	14.403	961.301	731.239
124.337	14.139	960.417	729.346
125.352	14.175	959.395	728.659
126.366	14.228	958.146	727.880
127.381	14.395	956.959	727.645
128.395	14.324	956.221	726.710
129.410	14.294	955.327	725.832
130.424	14.283	954.639	725.201
131.439	14.435	953.605	725.011
132.454	14.263	953.057	723.781
133.468	14.539	952.142	724.222
134.483	14.508	951.338	723.410
135.497	14.489	950.706	722.786
136.512	14.460	950.129	722.158
137.527	14.462	949.531	721.644
138.541	14.522	948.414	720.993
139.556	14.514	947.935	720.529
140.570	14.534	947.279	720.054
141.585	14.624	946.159	719.529
142.600	14.755	945.870	719.807
143.614	14.815	945.074	719.396
144.629	14.823	943.971	718.530
145.643	14.670	943.924	717.770
146.658	14.706	942.559	716.826
147.673	14.711	941.639	716.085
148.687	14.695	940.569	715.138
149.702	14.626	939.648	714.077
150.716	14.591	939.075	713.431
151.731	14.534	938.050	712.347
152.746	14.589	937.062	711.766
153.760	14.569	936.575	711.249
154.775	14.600	936.051	710.919
155.789	14.601	935.092	710.134
156.804	14.780	934.343	710.262
157.819	14.793	933.548	709.648
158.833	14.749	932.857	708.875
159.848	14.835	932.813	709.143
160.862	14.871	931.768	708.439
161.877	14.813	931.446	707.885
162.892	14.831	930.003	706.805
163.906	14.499	929.636	705.059
164.921	14.692	928.512	704.958
165.935	14.686	927.460	704.071
166.950	14.590	926.719	703.041
167.964	14.716	925.973	702.947
168.979	14.651	924.863	701.767
169.994	14.640	923.917	700.943
171.008	14.667	923.520	700.689
172.023	14.780	921.928	699.895
173.037	14.684	921.858	699.379
174.052	14.970	920.845	699.742
175.067	14.924	920.474	699.206
176.081	14.744	919.654	697.771
177.096	14.648	918.345	696.314
178.110	14.576	917.800	695.542
179.125	14.752	917.035	695.634
180.140	14.796	915.886	694.881
181.154	14.739	915.831	694.540
182.169	14.781	915.093	694.095
183.183	14.986	914.134	694.156
184.198	14.889	914.081	693.651
185.213	14.954	913.556	693.462
186.227	14.933	913.004	692.894
187.242	14.917	912.264	692.206
188.256	15.021	911.580	692.056
189.271	15.021	910.931	691.500
190.286	15.041	910.184	690.958
191.300	15.051	908.974	690.017
192.315	14.751	908.224	688.151
193.329	14.629	907.945	687.376
194.344	14.611	907.166	686.652
195.359	14.684	906.669	686.514
196.373	14.873	905.922	686.666
197.388	14.998	905.470	686.776
198.402	15.077	905.185	686.821
199.417	15.221	904.738	687.015
200.432	15.311	904.401	687.064
201.446	15.413	903.724	686.907
202.461	15.218	903.674	686.009
203.475	15.387	902.879	686.037
204.490	15.327	902.268	685.269
205.504	15.146	901.430	683.831
206.519	15.256	900.051	683.172
207.534	15.127	899.595	682.242
208.548	15.178	899.183	682.077
209.563	15.180	898.333	681.379
210.577	15.246	897.667	681.080
211.592	15.191	897.342	680.550
212.607	15.304	896.987	680.680
213.621	15.297	896.264	680.041
214.636	15.346	895.267	679.424
215.650	15.298	894.693	678.735
216.665	15.358	894.172	678.520
217.680	15.552	893.669	678.864
218.694	15.513	893.472	678.498
219.709	15.503	892.839	677.915
220.723	15.547	891.951	677.359
221.738	15.590	890.914	676.685
222.753	15.472	890.894	676.135
223.767	15.400	890.304	675.338
224.782	15.448	888.964	674.454
225.796	15.436	888.655	674.112
226.811	15.640	887.840	674.254
227.826	15.640	887.083	673.618
228.840	15.508	886.453	672.553
229.855	15.532	885.643	671.972
230.869	15.523	884.908	671.318
231.884	15.534	884.801	671.225
232.899	15.511	883.809	670.322
233.913	15.390	883.100	669.240
234.928	15.380	882.720	668.854
235.942	15.347	881.598	667.811
236.957	15.408	880.868	667.444
237.972	15.280	880.153	666.333
238.986	15.438	879.573	666.463
240.001	15.439	879.012	665.984
241.015	15.439	878.527	665.558
242.030	15.579	877.678	665.410
243.045	15.502	877.140	664.638
244.059	15.427	877.068	664.225
245.074	15.767	875.812	664.561
246.088	15.779	875.164	664.057
247.103	15.720	874.875	663.547
248.117	15.671	874.578	663.070
249.132	15.847	873.994	663.263
250.147	15.825	873.826	662.988
251.161	16.022	872.848	662.963
252.176	16.006	872.524	662.594
253.190	16.095	871.666	662.237
254.205	16.126	870.788	661.631
255.220	16.182	870.091	661.260
256.234	16.303	869.473	661.207
257.249	16.117	869.001	660.063
258.263	16.191	868.903	660.221
259.278	16.138	868.004	659.269
260.293	16.219	867.209	658.923
261.307	16.318	866.768	658.917
262.322	16.247	866.111	658.082
263.336	16.322	865.748	658.043
264.351	16.299	865.271	657.529
265.366	16.291	864.518	656.870
266.380	16.258	863.938	656.242
267.395	16.444	863.308	656.428
268.409	16.246	862.538	655.016
269.424	16.265	861.871	654.524
270.439	16.224	861.164	653.771
271.453	16.134	860.537	652.889
272.468	16.318	859.501	652.756
273.482	16.216	859.004	651.929
274.497	16.199	858.494	651.416
275.512	16.253	857.872	651.095
276.526	16.345	857.033	650.755
277.541	16.181	856.645	649.774
278.555	16.269	855.826	649.431
279.570	16.419	855.171	649.456
280.585	16.552	855.094	649.851
281.599	16.620	854.493	649.596
282.614	16.428	854.079	648.486
283.628	16.397	853.030	647.514
284.643	16.385	852.332	646.881
285.657	16.437	851.889	646.687
286.672	16.439	851.546	646.378
287.687	16.476	850.945	646.007
288.701	16.553	850.489	645.898
289.716	16.647	850.124	645.920
290.730	16.332	849.570	644.240
291.745	16.607	848.676	644.554
292.760	16.576	848.239	644.048
293.774	16.514	847.411	643.127
294.789	16.722	846.966	643.522
295.803	16.711	846.422	643.007
296.818	16.578	845.478	641.729
297.833	16.662	845.050	641.667
298.847	16.584	844.630	640.996
299.862	16.578	843.601	640.135
300.876	16.561	843.237	639.741
301.891	16.631	842.544	639.423
302.906	16.617	842.342	639.157
303.920	16.799	841.508	639.157
304.935	16.851	840.782	638.743
305.949	17.056	839.919	638.803
306.964	16.927	839.545	637.979
307.979	16.896	839.083	637.451
308.993	16.830	838.382	636.616
310.008	16.793	838.323	636.374
311.022	17.080	837.187	636.535
312.037	16.870	837.144	635.656
313.052	16.869	836.396	635.029
314.066	16.676	835.746	633.757
315.081	16.707	835.313	633.487
316.095	16.763	834.453	632.990
317.110	16.692	834.116	632.413
318.125	16.796	833.459	632.245
319.139	16.705	833.197	631.654
320.154	16.685	832.509	631.002
321.168	16.765	832.070	630.911
322.183	16.930	831.660	631.159
323.197	16.814	831.155	630.286
324.212	16.869	830.592	630.010
325.227	16.962	829.931	629.798
326.241	17.019	829.176	629.381
327.256	17.016	828.579	628.859
328.270	16.956	828.323	628.389
329.285	16.860	827.725	627.523
330.300	16.859	827.200	627.063
331.314	16.837	826.523	626.415
332.329	16.970	825.741	626.260
333.343	17.012	825.323	626.040
334.358	17.147	824.643	625.967
335.373	17.097	824.202	625.391
336.387	17.235	823.306	625.167
337.402	17.125	823.144	624.581
338.416	17.312	822.857	624.997
339.431	17.220	822.369	624.234
340.446	17.294	821.468	623.767
341.460	17.461	821.304	624.200
342.475	17.346	820.360	623.005
343.489	17.341	820.033	622.684
344.504	17.428	819.486	622.532
345.519	17.473	818.990	622.263
346.533	17.666	818.674	622.675
347.548	17.592	817.771	621.661
348.562	17.486	817.358	620.904
349.577	17.295	816.948	619.844
350.592	17.334	816.009	619.218
351.606	17.314	815.957	619.052
352.621	17.299	815.602	618.672
353.635	17.302	815.098	618.246
354.650	17.325	814.381	617.732
355.665	17.476	814.118	618.027
356.679	17.573	813.592	617.923
357.694	17.529	813.133	617.359
358.708	17.496	812.749	616.894
359.723	17.415	812.078	616.038
360.738	17.432	811.572	615.659
361.752	17.443	811.351	615.477
362.767	17.396	811.028	615.008
363.781	17.664	810.160	615.263
364.796	17.571	810.090	614.822
365.810	17.592	809.713	614.555
366.825	17.806	809.297	614.958
367.840	17.911	808.746	614.861
368.854	17.934	808.146	614.436
369.869	17.855	807.890	613.902
370.883	17.821	807.409	613.360
371.898	17.745	806.531	612.364
372.913	17.711	806.266	611.988
373.927	17.809	805.811	611.939
374.942	17.847	804.820	611.267
375.956	17.848	804.139	610.700
376.971	17.733	804.002	610.130
377.986	17.822	803.589	610.081
379.000	18.001	803.144	610.330
380.015	18.108	802.526	610.189
381.029	18.109	801.829	609.607
382.044	18.066	801.320	609.014
383.059	18.204	800.711	608.989
384.073	18.120	799.840	607.973
385.088	18.078	799.878	607.801
386.102	17.959	799.290	606.875
387.117	17.957	798.568	606.265
388.132	17.799	798.197	605.369
389.146	17.890	797.662	605.235
390.161	17.929	797.540	605.225
391.175	17.987	797.318	605.208
392.190	18.048	796.309	604.607
393.205	18.060	796.336	604.616
394.219	17.989	795.609	603.759
395.234	18.058	794.875	603.391
396.248	18.064	794.459	603.044
397.263	17.861	794.144	602.037
398.278	17.911	793.307	601.525
399.292	17.843	793.078	601.059
400.307	17.774	792.818	600.564
401.321	18.033	791.970	600.780
402.336	17.957	791.775	600.311
403.350	18.013	791.579	600.306
404.365	18.068	791.183	600.146
405.380	18.060	790.783	599.760
406.394	18.263	790.014	599.838
407.409	18.321	789.530	599.620
408.423	18.251	789.866	599.576
409.438	18.355	788.905	599.158
410.453	18.448	788.379	599.030
411.467	18.294	788.764	598.730
412.482	18.610	787.549	598.859
413.496	18.428	787.316	597.995
414.511	18.524	787.205	598.192
415.526	18.559	786.584	597.790
416.540	18.580	786.310	597.603
417.555	18.500	785.724	596.822
418.569	18.542	785.174	596.502
419.584	18.438	784.835	595.830
420.599	18.528	784.348	595.719
421.613	155.768	1369.912	1793.056
422.628	134.519	1455.251	1793.130
