DTS Sentinel unit serial number:	SN413079Multiplexer serial number:	ORYXHardware model number:	OX4-SRSoftware version number:	ORYX F/W v4.00 Oryx Data Collector v3.7.2.0data status	okinstallation	princeton_trtdifferential loss correction	single-endedforward channel	channel 3reverse channel	N/Adate	2019/09/16time	02:16:35forward acquisition time	60.00reverse acquisition time	0.00gamma	496.2192k internal	0.2334k external	0.2334temperature offset calibration	0.9949default loss term (dB/km)	0.3790temperature slope calibration	1.0000multiplexer offset coefficient	1.0000multiplexer slope coefficient	1.0000fibre end	0.00T internal ref (°C)	27.56T ext. ref 1 (°C)	10.18T ext. ref 2 (°C)	22.53length (m)	temperature (°C)	Stokes	anti-Stokes-747.200	372.126	0.102	-0.209
-746.185	800.000	-0.054	0.217
-745.171	-131.251	-0.324	0.043
-744.156	-47.962	-0.333	0.162
-743.142	-136.051	0.169	0.020
-742.127	800.000	0.101	0.413
-741.112	434.126	0.035	-0.077
-740.098	-154.599	0.141	0.009
-739.083	-21.538	0.093	0.057
-738.069	800.000	-0.032	0.133
-737.054	426.735	-0.145	0.314
-736.039	-173.101	-0.145	-0.004
-735.025	800.000	-0.036	0.141
-734.010	323.770	-0.147	0.281
-732.996	-25.715	-0.363	0.215
-731.981	-200.000	0.034	-0.306
-730.966	29.229	-0.085	-0.072
-729.952	-3.536	-0.078	0.054
-728.937	-200.000	-0.076	0.423
-727.923	-114.088	0.100	0.019
-726.908	800.000	0.062	0.179
-725.894	-178.712	0.340	0.008
-724.879	162.164	0.138	-0.194
-723.864	-142.686	0.099	-0.010
-722.850	-15.113	0.249	0.160
-721.835	-140.285	-0.122	0.013
-720.821	-175.686	-0.107	-0.003
-719.806	1.827	0.118	-0.086
-718.791	-80.960	0.104	-0.035
-717.777	-60.438	0.244	-0.104
-716.762	144.029	-0.175	0.234
-715.748	-72.929	-0.122	0.045
-714.733	80.027	0.055	0.059
-713.718	50.169	0.267	0.253
-712.704	-200.000	-0.010	-0.185
-711.689	-200.000	0.010	0.207
-710.675	800.000	0.068	0.209
-709.660	-47.884	-0.242	0.118
-708.645	800.000	0.120	-0.487
-707.631	-200.000	-0.006	0.031
-706.616	-151.412	-0.162	0.012
-705.602	800.000	-0.058	0.163
-704.587	187.758	0.164	-0.246
-703.572	-153.548	0.221	-0.015
-702.558	-105.841	-0.114	-0.026
-701.543	39.283	-0.120	-0.107
-700.529	-100.950	0.171	-0.042
-699.514	-118.447	0.155	-0.028
-698.499	-36.936	-0.208	-0.112
-697.485	800.000	-0.054	0.229
-696.470	-53.386	0.054	0.025
-695.456	-200.000	0.017	-0.279
-694.441	-8.618	-0.157	0.106
-693.426	292.293	0.134	-0.244
-692.412	58.558	-0.158	0.155
-691.397	-60.684	0.084	0.036
-690.383	-19.699	-0.078	-0.048
-689.368	2.447	0.172	0.125
-688.354	26.144	0.078	-0.065
-687.339	-200.000	0.036	-0.192
-686.324	114.916	0.172	0.211
-685.310	-64.464	0.212	0.087
-684.295	359.897	-0.142	-0.284
-683.281	-200.000	0.052	-0.331
-682.266	433.069	0.050	0.109
-681.251	800.000	-0.054	0.164
-680.237	198.590	-0.133	-0.205
-679.222	37.990	-0.097	0.086
-678.208	-164.942	0.299	0.013
-677.193	328.634	-0.118	0.227
-676.178	800.000	-0.018	-0.077
-675.164	-200.000	-0.030	-0.394
-674.149	136.424	-0.041	0.053
-673.135	162.304	-0.176	-0.248
-672.120	331.278	0.045	0.088
-671.105	505.492	-0.035	0.081
-670.091	-200.000	-0.043	-0.208
-669.076	51.577	0.074	0.071
-668.062	219.213	-0.117	0.188
-667.047	18.081	0.310	0.248
-666.032	15.284	0.153	-0.121
-665.018	-61.604	0.406	-0.171
-664.003	-109.382	0.123	0.026
-662.989	47.493	-0.186	0.173
-661.974	90.154	-0.123	-0.138
-660.959	-73.837	-0.067	0.024
-659.945	65.862	-0.074	-0.075
-658.930	-90.643	-0.080	-0.023
-657.916	-37.170	0.188	-0.101
-656.901	24.597	0.220	0.182
-655.886	149.700	0.203	0.275
-654.872	168.991	0.158	-0.226
-653.857	-47.064	0.223	-0.109
-652.843	99.720	-0.103	-0.119
-651.828	-12.236	0.206	-0.135
-650.814	-200.000	0.043	-0.382
-649.799	-100.427	0.290	0.072
-648.784	314.596	-0.092	-0.173
-647.770	-54.327	-0.289	0.131
-646.755	-200.000	-0.036	0.259
-645.741	324.548	-0.121	0.231
-644.726	-117.734	0.124	-0.022
-643.711	-95.805	-0.106	-0.028
-642.697	-200.000	-0.102	-0.621
-641.682	33.708	-0.212	0.185
-640.668	-137.034	0.258	-0.030
-639.653	-46.628	-0.154	-0.076
-638.638	-108.080	0.314	-0.068
-637.624	800.000	-0.097	-0.309
-636.609	-83.903	0.233	-0.074
-635.595	-90.076	-0.133	0.039
-634.580	-54.998	0.101	0.046
-633.565	-169.123	-0.465	-0.017
-632.551	-105.345	0.303	-0.069
-631.536	110.758	0.177	-0.213
-630.522	-200.000	-0.002	0.174
-629.507	88.043	-0.008	-0.009
-628.492	181.158	-0.171	-0.251
-627.478	581.807	0.118	-0.289
-626.463	-48.153	0.227	-0.110
-625.449	153.195	-0.113	0.154
-624.434	-157.325	-0.026	0.002
-623.419	236.848	-0.057	-0.094
-622.405	295.245	-0.183	-0.334
-621.390	-119.307	0.177	0.031
-620.376	-100.850	-0.404	0.099
-619.361	-7.780	0.172	-0.117
-618.346	133.686	-0.376	-0.487
-617.332	-70.156	0.186	0.071
-616.317	11.805	0.436	0.335
-615.303	-116.467	-0.404	-0.075
-614.288	800.000	0.044	0.178
-613.273	-200.000	0.007	-0.224
-612.259	-164.949	0.071	-0.003
-611.244	-38.194	-0.247	0.131
-610.230	322.201	0.132	-0.251
-609.215	120.814	0.297	0.369
-608.201	-200.000	-0.037	0.297
-607.186	-80.290	0.258	-0.086
-606.171	106.769	0.181	0.215
-605.157	-200.000	0.001	0.112
-604.142	-92.152	-0.194	-0.055
-603.128	5.757	0.125	0.092
-602.113	-108.182	-0.384	0.083
-601.098	-129.686	0.439	-0.060
-600.084	-200.000	0.006	-0.076
-599.069	88.398	-0.080	0.089
-598.055	-200.000	-0.005	-0.077
-597.040	-200.000	0.010	0.353
-596.025	32.624	0.119	0.102
-595.011	-22.957	0.267	0.161
-593.996	145.427	0.169	0.226
-592.982	-6.799	0.165	-0.112
-591.967	-91.329	-0.189	0.054
-590.952	-200.000	-0.014	0.090
-589.938	-200.000	0.005	-0.219
-588.923	149.997	-0.074	-0.101
-587.909	-200.000	-0.052	-0.310
-586.894	-99.043	0.350	0.089
-585.879	-200.000	-0.024	-0.156
-584.865	11.797	0.129	-0.099
-583.850	-86.273	-0.093	-0.029
-582.836	15.021	-0.049	0.038
-581.821	72.009	-0.102	-0.105
-580.806	31.807	-0.114	-0.098
-579.792	-15.212	-0.268	-0.171
-578.777	-131.639	-0.038	-0.005
-577.763	-191.166	-0.191	-0.002
-576.748	27.974	0.299	0.252
-575.733	-138.671	-0.380	0.041
-574.719	51.288	-0.163	0.154
-573.704	-43.938	0.189	-0.095
-572.690	-118.649	-0.289	-0.051
-571.675	68.135	0.293	0.299
-570.661	505.582	-0.202	-0.466
-569.646	-123.597	0.320	-0.051
-568.631	759.923	0.088	-0.239
-567.617	-55.698	0.221	0.099
-566.602	-72.440	0.183	0.068
-565.588	350.259	0.162	-0.319
-564.573	-43.559	-0.287	0.145
-563.558	-50.937	-0.201	-0.094
-562.544	49.986	-0.277	0.261
-561.529	-62.445	-0.172	-0.072
-560.515	66.364	-0.040	-0.040
-559.500	-92.415	0.276	-0.077
-558.485	61.648	0.226	0.225
-557.471	345.991	-0.079	-0.156
-556.456	741.491	-0.052	-0.141
-555.442	202.774	-0.063	0.098
-554.427	-56.218	0.373	0.166
-553.412	112.914	0.181	-0.219
-552.398	-200.000	0.007	-0.100
-551.383	-200.000	-0.004	0.188
-550.369	-42.476	0.103	0.052
-549.354	22.342	0.066	-0.054
-548.339	-38.442	-0.076	-0.040
-547.325	-104.859	0.163	-0.037
-546.310	800.000	0.026	0.083
-545.296	278.045	-0.194	-0.344
-544.281	274.049	0.096	0.170
-543.266	-86.723	-0.224	0.068
-542.252	-190.309	-0.385	0.004
-541.237	-200.000	-0.011	0.165
-540.223	-20.230	-0.223	0.137
-539.208	-40.370	0.175	-0.091
-538.193	25.633	-0.100	-0.083
-537.179	-200.000	-0.034	-0.156
-536.164	-200.000	0.003	0.254
-535.150	-34.659	0.149	-0.081
-534.135	265.540	-0.099	-0.173
-533.121	265.100	-0.073	0.128
-532.106	-98.212	-0.212	-0.054
-531.091	140.354	-0.051	0.068
-530.077	-200.000	-0.005	0.026
-529.062	1.333	-0.256	-0.183
-528.048	800.000	-0.077	0.312
-527.033	800.000	0.050	0.176
-526.018	-74.351	-0.095	-0.034
-525.004	97.311	0.091	-0.104
-523.989	-200.000	0.000	-0.096
-522.975	-117.893	-0.619	0.111
-521.960	25.470	0.089	-0.073
-520.945	11.161	0.149	-0.114
-519.931	-101.118	-0.113	-0.028
-518.916	-200.000	0.038	0.291
-517.902	-45.763	0.162	-0.080
-516.887	150.636	0.118	-0.160
-515.872	152.786	-0.252	0.343
-514.858	565.873	0.027	-0.066
-513.843	-109.481	0.059	0.013
-512.829	514.138	-0.141	0.328
-511.814	800.000	-0.024	0.086
-510.799	30.205	-0.044	0.038
-509.785	60.241	-0.251	0.247
-508.770	-200.000	-0.019	0.113
-507.756	-107.915	0.181	0.039
-506.741	-137.088	0.132	-0.015
-505.726	-41.618	-0.153	0.078
-504.712	-200.000	0.020	-0.206
-503.697	272.743	0.110	-0.193
-502.683	-47.443	0.339	-0.164
-501.668	412.024	-0.138	0.293
-500.653	-40.153	-0.285	-0.148
-499.639	-200.000	-0.042	0.381
-498.624	162.828	-0.123	0.172
-497.610	-69.631	-0.185	-0.071
-496.595	800.000	-0.158	0.522
-495.581	-200.000	0.006	0.037
-494.566	340.663	0.051	-0.100
-493.551	800.000	-0.040	-0.146
-492.537	-200.000	0.029	0.368
-491.522	-200.000	0.018	-0.242
-490.508	-53.428	0.407	0.185
-489.493	562.724	-0.128	-0.309
-488.478	442.436	0.040	-0.087
-487.464	285.605	0.070	-0.126
-486.449	800.000	-0.085	-0.324
-485.435	-51.975	0.183	-0.085
-484.420	-200.000	-0.081	-0.364
-483.405	-95.118	0.019	-0.005
-482.391	-200.000	0.003	0.093
-481.376	36.255	0.103	-0.090
-480.362	-125.855	0.338	0.051
-479.347	121.016	-0.201	0.249
-478.332	4.511	0.147	-0.107
-477.318	538.350	-0.073	-0.172
-476.303	27.732	0.354	0.296
-475.289	83.342	-0.136	0.148
-474.274	-111.346	0.123	0.025
-473.259	-52.952	-0.409	-0.187
-472.245	-122.027	0.051	-0.008
-471.230	-4.658	0.150	-0.103
-470.216	185.760	0.149	0.219
-469.201	800.000	0.042	0.143
-468.186	3.752	-0.093	0.067
-467.172	-200.000	-0.008	-0.120
-466.157	-120.408	0.222	0.037
-465.143	85.037	0.200	-0.218
-464.128	53.530	0.221	-0.211
-463.113	480.612	0.075	0.170
-462.099	-109.683	0.218	-0.046
-461.084	-119.910	0.061	-0.010
-460.070	717.784	-0.081	-0.215
-459.055	-200.000	0.028	0.381
-458.040	-76.471	0.202	-0.071
-457.026	666.021	0.127	-0.325
-456.011	800.000	-0.031	-0.094
-454.997	125.371	0.169	-0.212
-453.982	-160.996	0.178	0.009
-452.968	-182.044	-0.107	-0.002
-451.953	-16.127	-0.203	-0.128
-450.938	-200.000	0.008	-0.245
-449.924	-82.343	-0.113	0.036
-448.909	512.510	0.216	-0.500
-447.895	182.390	-0.086	0.125
-446.880	-197.534	0.231	-0.001
-445.865	138.195	0.135	0.176
-444.851	417.971	-0.052	-0.110
-443.836	534.407	-0.192	0.452
-442.822	110.733	-0.019	0.022
-441.807	-200.000	0.034	0.246
-440.792	6.120	-0.148	-0.109
-439.778	-148.698	-0.486	0.039
-438.763	-200.000	0.037	-0.385
-437.749	-55.503	0.254	0.113
-436.734	41.114	0.095	0.085
-435.719	-50.400	-0.181	-0.085
-434.705	-29.084	-0.120	-0.068
-433.690	-101.679	-0.209	0.050
-432.676	-176.640	0.307	-0.008
-431.661	-152.763	-0.396	-0.028
-430.646	173.996	-0.214	-0.306
-429.632	129.661	-0.263	0.334
-428.617	527.120	0.095	-0.223
-427.603	116.521	0.184	0.224
-426.588	69.795	-0.106	-0.109
-425.573	-101.504	-0.089	0.022
-424.559	-200.000	-0.052	0.261
-423.544	-50.580	0.203	-0.095
-422.530	427.612	0.032	-0.068
-421.515	6.824	0.349	0.258
-420.500	175.351	-0.173	0.249
-419.486	-43.563	0.207	-0.104
-418.471	-45.423	0.193	-0.095
-417.457	6.384	0.180	0.133
-416.442	53.664	-0.120	0.114
-415.428	-134.159	-0.231	0.028
-414.413	156.276	0.049	-0.067
-413.398	-120.375	-0.278	0.047
-412.384	135.129	0.135	0.173
-411.369	-37.880	-0.279	0.147
-410.355	-69.215	0.188	0.072
-409.340	-110.876	-0.112	-0.023
-408.325	-68.053	0.101	-0.039
-407.311	-200.000	0.025	-0.132
-406.296	198.476	0.187	-0.283
-405.282	-128.587	0.303	-0.043
-404.267	20.030	0.173	-0.138
-403.252	-200.000	-0.003	-0.322
-402.238	-200.000	-0.019	0.316
-401.223	-200.000	-0.002	-0.184
-400.209	537.563	0.101	0.237
-399.194	-200.000	0.007	0.122
-398.179	664.153	-0.163	0.416
-397.165	-131.123	0.124	-0.016
-396.150	98.521	0.309	0.354
-395.136	-114.581	-0.243	0.046
-394.121	-27.517	0.184	0.106
-393.106	-130.322	0.239	-0.032
-392.092	-200.000	0.017	-0.189
-391.077	30.667	0.261	-0.221
-390.063	107.559	-0.172	-0.202
-389.048	400.558	0.137	-0.286
-388.033	-200.000	-0.027	-0.135
-387.019	180.734	-0.170	0.248
-386.004	-109.434	-0.106	0.022
-384.990	-70.876	0.229	0.085
-383.975	773.233	-0.123	0.331
-382.960	214.352	0.129	-0.203
-381.946	185.515	0.128	-0.189
-380.931	35.280	0.035	0.030
-379.917	58.740	0.337	-0.328
-378.902	800.000	-0.116	0.417
-377.888	-107.380	-0.180	0.039
-376.873	-178.913	0.428	0.010
-375.858	-177.271	-0.076	-0.002
-374.844	12.271	-0.136	0.104
-373.829	-200.000	-0.026	0.195
-372.815	62.887	-0.054	-0.054
-371.800	-141.234	-0.286	-0.029
-370.785	32.420	-0.086	0.074
-369.771	339.874	0.103	0.200
-368.756	-40.035	0.458	0.236
-367.742	-85.527	0.265	0.082
-366.727	-162.780	-0.361	0.017
-365.712	158.494	-0.042	0.057
-364.698	-200.000	-0.023	0.163
-363.683	-19.036	0.040	0.024
-362.669	65.222	-0.035	0.035
-361.654	43.600	-0.189	0.171
-360.639	174.002	-0.184	-0.263
-359.625	75.785	-0.063	0.065
-358.610	-107.323	0.244	-0.053
-357.596	-62.500	0.206	-0.085
-356.581	-200.000	-0.006	0.062
-355.566	800.000	0.048	-0.178
-354.552	23.156	0.011	0.009
-353.537	277.488	-0.141	-0.248
-352.523	800.000	-0.046	-0.148
-351.508	-15.373	0.277	-0.176
-350.493	81.028	0.066	0.070
-349.479	-11.982	0.065	0.042
-348.464	587.112	0.021	0.050
-347.450	-200.000	0.032	0.309
-346.435	-122.334	0.342	-0.055
-345.420	183.147	-0.134	0.195
-344.406	-52.123	0.432	0.199
-343.391	-200.000	0.064	0.505
-342.377	-128.956	0.322	-0.045
-341.362	-21.063	-0.549	0.333
-340.348	-110.807	0.302	-0.062
-339.333	635.093	-0.124	0.312
-338.318	403.395	-0.115	-0.240
-337.304	800.000	0.095	0.325
-336.289	-200.000	-0.003	-0.077
-335.275	-38.373	-0.331	0.173
-334.260	442.018	-0.062	-0.135
-333.245	800.000	-0.070	0.260
-332.231	-37.919	-0.168	-0.088
-331.216	306.030	0.119	0.219
-330.202	156.802	0.091	-0.125
-329.187	-78.225	0.205	-0.070
-328.172	-200.000	-0.010	-0.072
-327.158	494.782	0.152	0.344
-326.143	689.431	-0.153	-0.397
-325.129	-150.014	0.311	0.024
-324.114	-200.000	-0.026	0.206
-323.099	-190.756	0.204	0.002
-322.085	-200.000	0.005	0.146
-321.070	171.275	-0.106	-0.151
-320.056	-1.751	0.317	0.220
-319.041	-0.744	-0.077	0.054
-318.026	3.564	-0.088	0.063
-317.012	62.825	0.194	0.192
-315.997	-57.445	0.297	-0.129
-314.983	-107.689	0.238	-0.051
-313.968	-54.955	-0.057	-0.025
-312.953	-74.439	-0.239	0.085
-311.939	-167.178	-0.116	-0.005
-310.924	99.541	0.095	-0.108
-309.910	180.788	-0.136	0.198
-308.895	295.340	-0.129	-0.234
-307.880	-80.300	-0.070	0.023
-306.866	12.593	0.169	0.129
-305.851	166.954	-0.049	-0.069
-304.837	95.565	0.066	0.074
-303.822	-200.000	0.004	-0.107
-302.807	-90.198	0.102	0.029
-301.793	-200.000	-0.006	0.132
-300.778	-72.286	-0.214	-0.078
-299.764	441.033	0.075	-0.163
-298.749	105.372	0.182	0.212
-297.735	-118.977	-0.103	0.018
-296.720	-200.000	0.052	-0.433
-295.705	-200.000	-0.069	0.502
-294.691	-60.202	0.369	0.155
-293.676	-155.022	0.294	0.019
-292.662	15.919	0.125	-0.097
-291.647	-95.100	0.266	-0.071
-290.632	-67.381	-0.250	0.097
-289.618	-134.597	0.296	-0.036
-288.603	435.292	-0.114	-0.244
-287.589	102.301	-0.113	-0.130
-286.574	500.079	0.007	0.015
-285.559	269.351	0.189	0.327
-284.545	48.767	0.203	0.188
-283.530	800.000	-0.043	0.156
-282.516	271.455	-0.085	-0.148
-281.501	358.099	0.073	-0.145
-280.486	35.822	0.394	0.342
-279.472	800.000	-0.015	0.060
-278.457	82.037	-0.100	-0.107
-277.443	-148.780	0.330	-0.026
-276.428	462.649	-0.045	-0.100
-275.413	-85.548	-0.385	0.118
-274.399	371.093	-0.076	0.153
-273.384	16.031	0.125	-0.097
-272.370	800.000	-0.047	-0.167
-271.355	-143.495	-0.192	0.018
-270.340	-200.000	0.003	0.154
-269.326	147.299	-0.279	0.371
-268.311	386.141	-0.253	-0.515
-267.297	-200.000	0.032	0.148
-266.282	116.222	0.204	0.246
-265.267	-141.023	-0.254	-0.026
-264.253	800.000	0.035	-0.131
-263.238	110.858	-0.184	0.219
-262.224	125.403	0.077	-0.096
-261.209	-200.000	0.022	-0.183
-260.195	-200.000	0.016	-0.195
-259.180	-100.010	-0.436	0.107
-258.165	-196.088	0.181	0.001
-257.151	44.133	0.184	0.166
-256.136	-79.776	-0.040	-0.013
-255.122	-118.799	-0.173	0.030
-254.107	178.006	-0.080	0.115
-253.092	-58.542	-0.213	-0.091
-252.078	354.875	-0.116	-0.227
-251.063	37.984	-0.162	0.142
-250.049	-110.869	-0.171	-0.035
-249.034	-96.541	0.421	-0.109
-248.019	-121.847	0.100	-0.016
-247.005	15.974	-0.186	0.144
-245.990	396.485	-0.140	-0.287
-244.976	123.573	0.098	-0.121
-243.961	197.652	0.131	-0.196
-242.946	-130.083	-0.367	0.049
-241.932	-200.000	-0.003	0.300
-240.917	344.435	-0.069	0.134
-239.903	-168.894	0.171	-0.006
-238.888	318.942	-0.103	-0.191
-237.873	800.000	-0.076	-0.213
-236.859	17.003	-0.325	-0.254
-235.844	-145.399	-0.085	-0.008
-234.830	-90.259	-0.039	0.011
-233.815	44.673	0.064	0.058
-232.800	416.930	0.114	0.239
-231.786	-94.220	-0.236	-0.064
-230.771	-200.000	0.053	-0.394
-229.757	17.690	-0.337	-0.264
-228.742	261.479	-0.118	-0.201
-227.727	-128.676	0.254	-0.035
-226.713	-87.085	-0.288	-0.086
-225.698	-200.000	-0.016	0.247
-224.684	-200.000	-0.017	-0.094
-223.669	800.000	0.047	-0.182
-222.655	-109.195	-0.362	-0.076
-221.640	-84.411	0.190	0.059
-220.625	-91.833	0.139	0.039
-219.611	114.563	0.198	-0.238
-218.596	800.000	0.038	0.110
-217.582	-88.299	-0.333	0.098
-216.567	-131.162	-0.374	-0.049
-215.552	92.157	-0.155	0.171
-214.538	800.000	-0.076	0.287
-213.523	-118.555	0.301	0.052
-212.509	-17.537	0.053	-0.033
-211.494	639.027	0.087	-0.217
-210.479	-113.252	-0.103	-0.020
-209.465	-120.987	0.370	0.061
-208.450	-100.453	0.238	0.058
-207.436	172.950	-0.083	-0.118
-206.421	-136.032	-0.304	-0.035
-205.406	250.091	-0.074	-0.124
-204.392	-181.158	-0.354	0.007
-203.377	-29.966	0.208	-0.117
-202.363	-179.912	-0.104	0.002
-201.348	-200.000	-0.020	-0.186
-200.333	372.468	-0.083	-0.165
-199.319	60.208	-0.330	-0.321
-198.304	-78.786	0.052	-0.018
-197.290	-200.000	0.033	-0.221
-196.275	-200.000	0.052	0.356
-195.260	800.000	-0.106	0.339
-194.246	84.837	0.111	0.120
-193.231	-121.805	-0.422	-0.068
-192.217	-200.000	-0.064	0.287
-191.202	-85.892	-0.284	0.086
-190.187	155.875	-0.229	0.311
-189.173	-97.078	-0.344	-0.088
-188.158	800.000	-0.101	-0.331
-187.144	55.978	-0.105	0.100
-186.129	-64.865	0.112	0.044
-185.114	120.860	-0.400	-0.489
-184.100	-143.737	0.071	-0.007
-183.085	-200.000	-0.006	-0.160
-182.071	147.943	0.398	-0.528
-181.056	55.532	-0.404	-0.385
-180.042	-200.000	-0.024	-0.112
-179.027	-184.708	0.250	-0.004
-178.012	-167.553	0.279	0.011
-176.998	-21.039	-0.220	-0.132
-175.983	-200.000	-0.004	-0.322
-174.969	-200.000	0.003	0.063
-173.954	-200.000	0.025	-0.226
-172.939	529.273	0.110	0.256
-171.925	-113.947	-0.307	-0.059
-170.910	1.388	0.282	0.199
-169.896	-91.459	-0.345	-0.097
-168.881	-12.168	0.156	-0.100
-167.866	-84.314	0.136	0.042
-166.852	195.818	0.176	0.263
-165.837	128.530	0.153	0.191
-164.823	53.368	-0.072	-0.068
-163.808	61.183	0.090	0.088
-162.793	122.020	0.123	0.151
-161.779	800.000	-0.043	-0.168
-160.764	-200.000	-0.038	-0.333
-159.750	-60.385	-0.324	-0.135
-158.735	-200.000	0.009	-0.279
-157.720	103.722	0.198	0.229
-156.706	190.932	0.096	0.142
-155.691	-93.608	-0.272	-0.074
-154.677	152.511	-0.115	-0.154
-153.662	-60.355	-0.181	0.075
-152.647	152.905	0.177	0.237
-151.633	292.630	0.160	0.287
-150.618	-127.000	-0.244	-0.035
-149.604	81.340	-0.257	-0.272
-148.589	-62.660	0.229	-0.093
-147.574	146.055	0.205	0.269
-146.560	-63.484	-0.192	0.077
-145.545	-200.000	-0.006	0.365
-144.531	610.750	-0.058	0.143
-143.516	-123.150	0.356	0.056
-142.502	526.877	0.077	0.178
-141.487	-200.000	0.001	0.328
-140.472	-125.246	-0.035	0.005
-139.458	-112.886	-0.182	-0.035
-138.443	-63.516	0.260	-0.105
-137.429	800.000	0.169	-0.481
-136.414	-200.000	-0.024	-0.106
-135.399	662.021	-0.076	0.192
-134.385	253.687	-0.205	-0.344
-133.370	155.629	0.117	-0.158
-132.356	800.000	0.076	0.231
-131.341	-200.000	0.005	0.264
-130.326	143.891	-0.233	0.305
-129.312	-200.000	-0.017	0.135
-128.297	14.360	0.122	-0.094
-127.283	78.688	0.261	0.274
-126.268	-68.042	-0.208	0.079
-125.253	-200.000	0.070	-0.427
-124.239	63.924	-0.144	0.142
-123.224	-23.237	0.209	0.123
-122.210	147.410	0.100	-0.132
-121.195	-130.008	0.084	-0.011
-120.180	-200.000	-0.021	0.175
-119.166	-111.272	-0.067	-0.013
-118.151	-54.821	-0.077	-0.034
-117.137	63.911	-0.065	-0.064
-116.122	-200.000	0.023	0.476
-115.107	44.227	-0.140	0.126
-114.093	-109.383	0.302	0.063
-113.078	-44.036	-0.109	-0.054
-112.064	800.000	0.072	0.214
-111.049	800.000	0.041	0.133
-110.034	-200.000	-0.002	-0.279
-109.020	-85.678	0.117	0.036
-108.005	800.000	-0.018	0.068
-106.991	1.010	0.263	0.185
-105.976	-200.000	-0.000	0.084
-104.962	566.659	0.176	-0.420
-103.947	49.876	-0.255	-0.236
-102.932	18.468	-0.169	-0.132
-101.918	24.528	0.295	-0.239
-100.903	800.000	0.062	0.209
-99.889	800.000	-0.093	0.270
-98.874	-200.000	0.015	-0.123
-97.859	275.904	0.034	0.059
-96.845	99.889	0.164	0.186
-95.830	433.737	-0.063	0.135
-94.816	42.850	0.198	-0.177
-93.801	-200.000	0.036	0.179
-92.786	-109.285	0.023	0.005
-91.772	-82.419	-0.247	-0.079
-90.757	222.846	0.168	-0.265
-89.743	-34.105	0.068	-0.036
-88.728	-149.624	-0.133	-0.010
-87.713	11.457	0.137	0.103
-86.699	-131.782	-0.261	0.033
-85.684	-200.000	-0.006	-0.249
-84.670	14.207	0.283	-0.216
-83.655	-57.735	0.141	-0.061
-82.640	-26.279	-0.214	0.123
-81.626	-200.000	0.032	-0.170
-80.611	-4.758	-0.312	0.211
-79.597	-200.000	0.012	0.182
-78.582	77.275	0.118	-0.123
-77.567	-99.277	-0.161	0.040
-76.553	326.896	0.055	-0.103
-75.538	42.545	0.107	-0.095
-74.524	800.000	-0.019	-0.078
-73.509	-52.091	-0.405	-0.184
-72.494	-149.282	0.254	0.020
-71.480	-200.000	-0.002	-0.145
-70.465	-200.000	-0.013	0.174
-69.451	-200.000	0.037	0.289
-68.436	-17.817	0.174	0.107
-67.422	-147.125	0.574	-0.048
-66.407	8.965	-0.189	-0.140
-65.392	85.495	-0.096	0.103
-64.378	-200.000	0.025	0.431
-63.363	204.820	-0.245	0.371
-62.349	258.465	0.146	0.246
-61.334	141.727	-1.036	-1.342
-60.319	23.548	0.686	0.552
-59.305	800.000	-0.379	-1.156
-58.290	168.448	0.719	1.003
-57.276	800.000	0.475	1.540
-56.261	-200.000	112.751	646.438
-55.246	480.348	1501.131	3330.351
-54.232	148.939	2664.333	3524.367
-53.217	104.281	2169.465	2496.991
-52.203	37.930	1700.954	1478.955
-51.188	30.593	1519.516	1271.204
-50.173	28.400	1495.676	1236.435
-49.159	52.823	1552.041	1451.319
-48.144	51.432	1568.084	1456.734
-47.130	30.906	1525.043	1277.772
-46.115	27.915	1509.826	1244.628
-45.100	27.664	1506.658	1240.259
-44.086	27.546	1504.942	1237.997
-43.071	27.494	1502.557	1235.637
-42.057	27.488	1501.023	1234.283
-41.042	27.582	1499.641	1233.731
-40.027	27.505	1498.410	1232.153
-39.013	27.522	1496.590	1230.718
-37.998	27.487	1495.584	1229.605
-36.984	27.563	1494.116	1228.865
-35.969	27.541	1492.960	1227.715
-34.954	27.510	1491.606	1226.345
-33.940	27.612	1489.687	1225.404
-32.925	27.553	1488.985	1224.386
-31.911	27.600	1487.247	1223.223
-30.896	27.598	1486.226	1222.321
-29.881	27.560	1484.997	1221.006
-28.867	27.662	1483.644	1220.529
-27.852	27.642	1482.539	1219.438
-26.838	27.573	1481.492	1218.065
-25.823	27.645	1479.254	1216.654
-24.809	27.633	1477.999	1215.494
-23.794	27.582	1476.765	1214.096
-22.779	27.531	1475.686	1212.820
-21.765	27.645	1474.468	1212.529
-20.750	27.587	1473.632	1211.409
-19.736	27.526	1472.502	1210.024
-18.721	27.602	1470.876	1209.145
-17.706	27.533	1470.030	1207.942
-16.692	27.498	1468.919	1206.750
-15.677	27.582	1467.670	1206.231
-14.663	27.553	1467.164	1205.577
-13.648	27.587	1465.707	1204.557
-12.633	27.568	1465.325	1204.068
-11.619	27.608	1464.301	1203.446
-10.604	27.615	1463.485	1202.774
-9.590	27.519	1462.855	1201.577
-8.575	27.536	1461.811	1200.782
-7.560	27.563	1460.770	1200.059
-6.546	27.528	1460.274	1199.372
-5.531	27.482	1459.502	1198.386
-4.517	27.562	1457.764	1197.440
-3.502	27.516	1456.931	1196.403
-2.487	27.581	1456.095	1196.093
-1.473	27.469	1455.151	1194.538
-0.458	27.543	1453.874	1193.929
0.556	25.879	1444.183	1182.956
1.571	23.121	1419.786	1145.049
2.586	20.034	1359.654	1077.284
3.600	18.615	1277.192	1003.568
4.615	17.581	1232.278	962.349
5.629	16.659	1179.341	915.941
6.644	13.432	1102.753	840.029
7.659	10.641	1068.119	799.836
8.673	10.262	1063.268	794.274
9.688	10.277	1059.876	791.743
10.702	10.095	1058.591	789.822
11.717	10.087	1056.408	788.086
12.731	11.265	1056.506	793.827
13.746	14.603	1060.172	812.800
14.761	17.170	1063.385	827.713
15.775	17.741	1062.858	830.013
16.790	16.923	1061.768	825.108
17.804	15.889	1059.029	817.885
18.819	14.980	1057.311	812.074
19.834	14.443	1055.961	808.363
20.848	14.156	1054.744	805.972
21.863	13.968	1053.831	804.292
22.877	13.666	1052.958	802.092
23.892	13.578	1051.946	800.826
24.907	13.459	1051.356	799.733
25.921	13.391	1050.778	798.894
26.936	13.347	1049.848	797.902
27.950	13.480	1049.082	797.889
28.965	13.550	1047.776	797.164
29.980	13.531	1046.535	796.060
30.994	13.667	1045.412	795.783
32.009	13.772	1044.749	795.716
33.023	13.730	1043.745	794.678
34.038	13.718	1042.905	793.912
35.053	13.470	1042.368	792.244
36.067	13.606	1041.202	791.940
37.082	13.556	1040.199	790.865
38.096	13.692	1039.550	790.953
39.111	13.542	1039.470	790.105
40.126	13.694	1037.936	789.594
41.140	13.430	1037.146	787.668
42.155	13.547	1035.831	787.155
43.169	13.415	1034.778	785.657
44.184	13.405	1033.879	784.861
45.199	13.378	1032.720	783.782
46.213	13.316	1031.634	782.594
47.228	13.255	1031.347	782.020
48.242	13.444	1029.931	781.771
49.257	13.547	1028.578	781.159
50.271	13.535	1027.788	780.433
51.286	13.475	1027.456	779.828
52.301	13.672	1025.943	779.538
53.315	13.629	1025.240	778.733
54.330	13.507	1024.576	777.586
55.344	13.437	1023.593	776.442
56.359	13.426	1022.591	775.563
57.374	13.480	1021.869	775.200
58.388	13.513	1021.143	774.734
59.403	13.538	1020.099	773.991
60.417	13.358	1019.258	772.447
61.432	13.314	1018.823	771.842
62.447	13.378	1017.570	771.120
63.461	13.378	1016.883	770.531
64.476	13.278	1016.294	769.553
65.490	13.271	1015.241	768.654
66.505	13.429	1014.211	768.543
67.520	13.434	1013.431	767.904
68.534	13.378	1012.864	767.147
69.549	13.442	1012.242	766.905
70.563	13.361	1011.218	765.685
71.578	13.290	1011.033	765.152
72.593	13.411	1009.584	764.543
73.607	13.322	1008.415	763.184
74.622	13.273	1008.082	762.637
75.636	13.318	1006.760	761.775
76.651	13.259	1006.333	761.114
77.666	13.192	1005.307	759.964
78.680	13.323	1004.751	760.079
79.695	13.334	1004.413	759.804
80.709	13.305	1003.688	759.058
81.724	13.384	1002.708	758.610
82.739	13.447	1001.843	758.176
83.753	13.452	1001.292	757.714
84.768	13.500	1000.806	757.501
85.782	13.662	999.985	757.553
86.797	13.568	999.229	756.485
87.812	13.532	998.498	755.697
88.826	13.529	997.734	755.040
89.841	13.613	996.377	754.329
90.855	13.601	995.795	753.769
91.870	13.599	994.789	752.931
92.884	13.641	994.370	752.737
93.899	13.603	993.602	751.915
94.914	13.692	992.374	751.323
95.928	13.739	992.287	751.404
96.943	13.712	991.481	750.606
97.957	13.713	990.479	749.784
98.972	13.598	989.834	748.711
99.987	13.624	988.833	748.007
101.001	13.753	988.063	747.939
102.016	13.646	987.198	746.737
103.030	13.644	986.373	746.036
104.045	13.607	985.439	745.097
105.060	13.633	984.321	744.303
106.074	13.551	983.229	743.042
107.089	13.504	982.772	742.423
108.103	13.421	982.008	741.405
109.118	13.475	980.680	740.579
110.133	13.434	980.361	740.091
111.147	13.454	979.191	739.232
112.162	13.308	978.702	738.146
113.176	13.471	977.422	737.842
114.191	13.356	976.781	736.780
115.206	13.612	975.636	736.987
116.220	13.622	974.817	736.349
117.235	13.628	973.687	735.457
118.249	13.469	973.418	734.483
119.264	13.443	972.809	733.844
120.279	13.555	971.643	733.396
121.293	13.473	971.207	732.639
122.308	13.352	970.597	731.577
123.322	13.471	969.237	731.013
124.337	13.519	967.813	730.089
125.352	13.299	967.256	728.635
126.366	13.337	966.335	728.043
127.381	13.587	964.418	727.630
128.395	13.326	964.225	726.274
129.410	13.467	962.828	725.779
130.424	13.467	961.942	725.044
131.439	13.391	961.444	724.274
132.454	13.488	960.367	723.820
133.468	13.471	959.810	723.261
134.483	13.536	958.653	722.610
135.497	13.439	958.183	721.768
136.512	13.523	957.510	721.564
137.527	13.558	956.842	721.150
138.541	13.521	956.013	720.303
139.556	13.490	955.465	719.688
140.570	13.500	954.932	719.270
141.585	13.650	953.950	719.113
142.600	13.667	953.214	718.572
143.614	13.594	952.883	717.939
144.629	13.658	951.909	717.422
145.643	13.865	950.848	717.453
146.658	13.824	950.078	716.631
147.673	13.670	949.202	715.243
148.687	13.706	948.137	714.529
149.702	13.514	947.415	713.099
150.716	13.591	946.524	712.695
151.731	13.628	945.677	712.152
152.746	13.505	945.087	711.116
153.760	13.603	944.376	710.943
154.775	13.681	943.528	710.574
155.789	13.704	942.957	710.179
156.804	13.827	941.939	709.875
157.819	13.749	941.553	709.189
158.833	13.899	940.573	709.030
159.848	13.849	940.013	708.330
160.862	13.825	939.597	707.852
161.877	13.797	938.810	707.076
162.892	13.783	938.027	706.363
163.906	13.637	937.125	705.001
164.921	13.629	936.090	704.125
165.935	13.723	935.021	703.658
166.950	13.667	933.889	702.507
167.964	13.771	932.938	702.170
168.979	13.836	931.916	701.616
169.994	13.858	931.024	700.973
171.008	13.809	930.271	700.138
172.023	13.799	929.591	699.523
173.037	13.788	929.017	698.981
174.052	13.877	928.181	698.663
175.067	13.787	927.497	697.709
176.081	13.937	926.653	697.642
177.096	13.785	925.981	696.437
178.110	13.749	924.999	695.488
179.125	13.706	924.468	694.846
180.140	13.906	923.389	694.809
181.154	13.792	922.602	693.680
182.169	13.808	922.551	693.646
183.183	13.910	921.716	693.385
184.198	13.903	920.914	692.690
185.213	14.006	920.132	692.472
186.227	13.927	919.994	691.975
187.242	14.015	919.632	692.010
188.256	14.154	918.524	691.692
189.271	14.096	917.973	690.974
190.286	14.122	917.119	690.379
191.300	14.059	916.478	689.575
192.315	13.916	915.790	688.401
193.329	13.816	915.381	687.618
194.344	13.765	914.298	686.533
195.359	13.858	913.663	686.380
196.373	13.922	913.274	686.291
197.388	14.026	912.851	686.345
198.402	14.246	912.077	686.607
199.417	14.152	911.856	685.994
200.432	14.232	911.665	686.118
201.446	14.309	911.328	686.121
202.461	14.417	910.620	685.974
203.475	14.421	910.150	685.575
204.490	14.439	909.311	684.955
205.504	14.433	908.282	684.098
206.519	14.360	907.604	683.226
207.534	14.348	906.984	682.648
208.548	14.312	905.908	681.632
209.563	14.175	905.420	680.645
210.577	14.283	904.604	680.412
211.592	14.309	904.031	680.027
212.607	14.350	903.955	680.075
213.621	14.503	903.112	680.007
214.636	14.427	902.313	679.032
215.650	14.354	901.601	678.140
216.665	14.404	901.177	677.966
217.680	14.459	900.693	677.765
218.694	14.440	900.472	677.464
219.709	14.500	899.929	677.236
220.723	14.569	898.488	676.371
221.738	14.608	897.830	675.976
222.753	14.587	897.260	675.402
223.767	14.535	896.861	674.829
224.782	14.640	896.056	674.591
225.796	14.683	895.029	673.931
226.811	14.587	894.350	672.971
227.826	14.717	893.344	672.681
228.840	14.623	893.269	672.186
229.855	14.672	892.462	671.714
230.869	14.715	891.757	671.300
231.884	14.575	891.397	670.405
232.899	14.574	890.561	669.711
233.913	14.602	889.838	669.221
234.928	14.771	888.747	669.019
235.942	14.669	888.130	668.089
236.957	14.603	887.259	667.111
237.972	14.649	886.911	666.974
238.986	14.697	886.259	666.617
240.001	14.585	885.778	665.746
241.015	14.457	885.459	664.939
242.030	14.671	884.492	665.004
243.045	14.705	883.826	664.580
244.059	14.752	883.072	664.140
245.074	14.672	882.524	663.354
246.088	14.756	882.119	663.325
247.103	14.824	881.498	663.070
248.117	14.754	881.171	662.488
249.132	14.810	880.380	662.055
250.147	15.009	879.567	662.173
251.161	15.105	879.200	662.216
252.176	15.127	877.903	661.269
253.190	15.148	877.723	661.156
254.205	15.140	877.232	660.696
255.220	15.197	876.159	660.056
256.234	15.152	875.899	659.624
257.249	15.228	875.310	659.421
258.263	15.088	875.299	658.803
259.278	15.107	874.503	658.220
260.293	15.218	873.860	658.114
261.307	15.355	872.808	657.800
262.322	15.341	872.288	657.296
263.336	15.414	871.884	657.222
264.351	15.315	871.248	656.293
265.366	15.364	870.656	655.983
266.380	15.367	870.199	655.593
267.395	15.421	868.963	654.814
268.409	15.404	868.293	654.186
269.424	15.311	867.727	653.336
270.439	15.315	867.298	652.974
271.453	15.406	866.593	652.737
272.468	15.298	865.524	651.456
273.482	15.247	865.200	650.957
274.497	15.275	864.586	650.544
275.512	15.385	863.949	650.436
276.526	15.369	863.071	649.654
277.541	15.290	862.508	648.868
278.555	15.296	862.216	648.612
279.570	15.444	861.754	648.778
280.585	15.408	860.871	647.919
281.599	15.406	860.816	647.811
282.614	15.548	859.825	647.558
283.628	15.489	859.347	646.913
284.643	15.475	858.418	646.102
285.657	15.557	857.757	645.863
286.672	15.701	857.250	645.976
287.687	15.536	857.157	645.215
288.701	15.586	856.453	644.821
289.716	15.566	855.943	644.304
290.730	15.513	855.448	643.670
291.745	15.623	854.711	643.479
292.760	15.569	853.772	642.508
293.774	15.658	853.230	642.385
294.789	15.734	852.784	642.281
295.803	15.709	852.364	641.813
296.818	15.609	851.528	640.746
297.833	15.677	850.978	640.536
298.847	15.609	850.557	639.903
299.862	15.642	849.648	639.287
300.876	15.730	848.978	639.063
301.891	15.764	848.479	638.760
302.906	15.807	847.674	638.260
303.920	15.810	846.804	637.557
304.935	15.980	846.108	637.623
305.949	16.011	845.803	637.452
306.964	16.029	845.262	637.055
307.979	16.159	844.521	636.934
308.993	15.916	844.407	635.871
310.008	16.076	843.660	635.859
311.022	15.960	843.263	635.065
312.037	16.000	842.684	634.723
313.052	15.980	842.267	634.277
314.066	15.995	841.199	633.475
315.081	15.853	840.851	632.624
316.095	15.931	840.389	632.510
317.110	15.905	839.643	631.797
318.125	15.831	839.138	631.083
319.139	15.876	839.078	631.152
320.154	15.882	838.677	630.816
321.168	15.977	837.791	630.449
322.183	15.938	837.184	629.790
323.197	16.117	836.739	630.070
324.212	16.043	836.590	629.625
325.227	16.046	835.790	628.978
326.241	16.058	835.104	628.450
327.256	16.009	834.775	627.965
328.270	16.033	834.018	627.429
329.285	16.067	833.420	627.052
330.300	15.987	832.979	626.367
331.314	16.060	832.602	626.297
332.329	16.245	831.461	626.071
333.343	16.175	830.813	625.270
334.358	16.337	830.585	625.641
335.373	16.308	830.276	625.246
336.387	16.234	829.992	624.701
337.402	16.359	828.743	624.167
338.416	16.242	828.245	623.305
339.431	16.324	827.905	623.299
340.446	16.515	827.232	623.442
341.460	16.486	826.618	622.815
342.475	16.567	826.343	622.852
343.489	16.491	825.694	622.027
344.504	16.532	825.327	621.848
345.519	16.631	824.990	621.902
346.533	16.675	824.398	621.561
347.548	16.623	823.590	620.710
348.562	16.625	823.127	620.311
349.577	16.506	822.667	619.472
350.592	16.464	822.057	618.804
351.606	16.576	821.417	618.679
352.621	16.472	821.233	618.105
353.635	16.399	820.867	617.507
354.650	16.480	820.273	617.302
355.665	16.538	820.034	617.279
356.679	16.579	819.431	616.921
357.694	16.612	819.042	616.693
358.708	16.708	818.214	616.364
359.723	16.604	817.809	615.628
360.738	16.653	817.476	615.501
361.752	16.759	816.678	615.230
362.767	16.572	816.689	614.506
363.781	16.666	816.120	614.365
364.796	16.679	815.635	613.989
365.810	16.868	814.896	614.063
366.825	16.878	814.783	613.962
367.840	16.870	814.375	613.570
368.854	16.873	813.662	612.990
369.869	16.866	813.576	612.847
370.883	16.828	813.062	612.267
371.898	16.883	812.360	611.882
372.913	16.732	811.935	610.963
373.927	16.999	811.180	611.304
374.942	16.942	810.424	610.475
375.956	17.015	809.797	610.213
376.971	17.074	809.458	610.114
377.986	17.029	808.963	609.527
379.000	17.126	808.404	609.400
380.015	17.281	807.699	609.369
381.029	17.152	807.474	608.683
382.044	17.063	806.939	607.908
383.059	17.130	806.236	607.564
384.073	17.164	805.642	607.183
385.088	17.088	805.067	606.425
386.102	17.090	804.658	606.070
387.117	17.183	803.934	605.804
388.132	17.078	803.783	605.260
389.146	17.088	803.472	605.009
390.161	17.045	802.715	604.231
391.175	17.149	802.694	604.534
392.190	17.219	802.007	604.211
393.205	17.359	801.364	604.170
394.219	17.190	801.406	603.550
395.234	17.172	800.665	602.873
396.248	17.185	800.140	602.472
397.263	17.206	799.580	602.071
398.278	16.989	799.545	601.220
399.292	17.125	798.715	601.025
400.307	17.072	798.818	600.863
401.321	17.043	798.241	600.273
402.336	17.341	797.246	600.525
403.350	17.244	797.120	600.033
404.365	17.354	796.501	599.904
405.380	17.137	796.858	599.351
406.394	17.309	795.945	599.218
407.409	17.364	795.551	599.061
408.423	17.472	794.966	598.949
409.438	17.546	794.543	598.837
410.453	17.415	794.157	598.034
411.467	17.556	793.556	598.024
412.482	17.560	793.096	597.636
413.496	17.663	792.634	597.597
414.511	17.676	792.551	597.528
415.526	17.684	792.169	597.217
416.540	17.698	791.765	596.908
417.555	17.714	790.961	596.303
418.569	17.564	790.802	595.607
419.584	17.634	790.141	595.301
420.599	17.765	789.866	595.499
421.613	111.363	1293.138	1476.574
422.628	95.653	1366.432	1476.674
