DTS Sentinel unit serial number:	SN413079Multiplexer serial number:	ORYXHardware model number:	OX4-SRSoftware version number:	ORYX F/W v4.00 Oryx Data Collector v3.7.2.0data status	okinstallation	princeton_trtdifferential loss correction	single-endedforward channel	channel 3reverse channel	N/Adate	2019/09/16time	03:36:34forward acquisition time	60.00reverse acquisition time	0.00gamma	496.2192k internal	0.2334k external	0.2334temperature offset calibration	0.9958default loss term (dB/km)	0.3790temperature slope calibration	1.0000multiplexer offset coefficient	1.0000multiplexer slope coefficient	1.0000fibre end	0.00T internal ref (°C)	27.62T ext. ref 1 (°C)	10.60T ext. ref 2 (°C)	21.75length (m)	temperature (°C)	Stokes	anti-Stokes-747.200	800.000	0.058	0.238
-746.185	-136.280	-0.565	-0.066
-745.171	-200.000	0.051	0.324
-744.156	139.874	-0.154	0.204
-743.142	-200.000	0.168	-0.000
-742.127	-48.550	-0.258	0.125
-741.112	-200.000	0.050	0.304
-740.098	-200.000	0.002	0.173
-739.083	800.000	-0.026	0.101
-738.069	-37.817	-0.196	0.105
-737.054	63.330	-0.117	-0.118
-736.039	-24.486	-0.387	0.232
-735.025	281.205	-0.073	0.132
-734.010	256.102	0.096	-0.166
-732.996	-121.328	-0.168	0.028
-731.981	-5.734	-0.306	0.211
-730.966	-200.000	-0.020	0.117
-729.952	800.000	-0.065	-0.261
-728.937	-132.236	0.395	-0.051
-727.923	-113.997	-0.227	0.044
-726.908	-72.650	-0.201	0.074
-725.894	-100.897	-0.258	-0.064
-724.879	-200.000	0.012	-0.109
-723.864	-91.702	0.358	0.102
-722.850	-200.000	-0.023	0.113
-721.835	-141.397	-0.396	0.040
-720.821	-99.268	-0.443	-0.112
-719.806	24.851	-0.177	-0.147
-718.791	-25.154	0.176	-0.105
-717.777	-29.282	0.157	0.090
-716.762	30.492	0.024	-0.020
-715.748	-200.000	-0.041	-0.288
-714.733	-89.213	-0.218	0.065
-713.718	21.694	-0.119	-0.097
-712.704	-50.400	0.099	-0.047
-711.689	800.000	0.111	-0.360
-710.675	-177.773	0.624	0.015
-709.660	-200.000	-0.009	-0.115
-708.645	-54.142	0.281	-0.128
-707.631	-116.632	-0.245	-0.045
-706.616	-200.000	-0.012	-0.053
-705.602	-127.089	-0.290	0.043
-704.587	-200.000	-0.028	-0.125
-703.572	-18.051	0.272	-0.171
-702.558	-73.379	0.086	0.031
-701.543	-99.491	0.261	0.066
-700.529	-150.232	-0.378	0.029
-699.514	-69.980	-0.208	-0.080
-698.499	-200.000	-0.022	-0.179
-697.485	-200.000	0.004	-0.079
-696.470	-142.904	-0.186	-0.018
-695.456	12.505	-0.249	-0.192
-694.441	48.109	-0.061	0.057
-693.426	-52.290	-0.316	-0.147
-692.412	-131.761	0.182	-0.024
-691.397	-29.909	-0.125	0.071
-690.383	-147.685	0.084	0.007
-689.368	706.492	-0.100	-0.266
-688.354	175.011	-0.058	-0.084
-687.339	417.125	0.106	-0.228
-686.324	-89.482	-0.143	-0.042
-685.310	57.803	-0.177	0.173
-684.295	154.772	0.037	0.051
-683.281	-134.769	-0.185	-0.023
-682.266	82.253	-0.062	0.068
-681.251	-89.578	-0.251	-0.074
-680.237	-127.182	-0.315	-0.046
-679.222	-146.218	0.206	-0.018
-678.208	800.000	0.055	-0.233
-677.193	-17.943	0.054	-0.034
-676.178	-66.798	0.197	-0.078
-675.164	-61.479	-0.410	-0.173
-674.149	327.956	0.054	0.103
-673.135	-55.121	0.189	-0.085
-672.120	81.704	-0.136	-0.148
-671.105	-76.804	-0.332	0.117
-670.091	-172.041	-0.054	0.002
-669.076	-13.277	-0.156	-0.101
-668.062	-200.000	-0.044	0.256
-667.047	-107.353	0.187	-0.041
-666.032	-200.000	-0.020	-0.314
-665.018	63.728	0.063	-0.063
-664.003	47.809	0.123	-0.115
-662.989	-91.744	-0.313	-0.089
-661.974	160.922	0.196	0.275
-660.959	-97.137	-0.257	-0.067
-659.945	-15.999	0.107	0.068
-658.930	-164.149	-0.163	0.008
-657.916	-200.000	-0.018	-0.160
-656.901	-200.000	0.037	0.215
-655.886	800.000	-0.038	0.121
-654.872	-143.346	0.264	-0.025
-653.857	96.517	-0.061	-0.070
-652.843	-200.000	0.028	-0.154
-651.828	-133.157	-0.040	-0.005
-650.814	132.050	0.187	0.241
-649.799	-67.863	-0.169	0.066
-648.784	361.331	0.176	-0.354
-647.770	-186.165	-0.212	0.003
-646.755	264.201	-0.117	0.204
-645.741	-76.520	0.253	0.089
-644.726	-38.701	-0.340	0.180
-643.711	-163.300	-0.211	-0.010
-642.697	-71.025	-0.130	-0.049
-641.682	76.210	-0.116	-0.123
-640.668	-105.826	-0.326	0.074
-639.653	800.000	0.038	0.152
-638.638	-87.900	0.583	-0.175
-637.624	800.000	-0.021	0.067
-636.609	-44.437	-0.057	-0.029
-635.595	-142.053	-0.173	-0.017
-634.580	223.308	-0.062	-0.100
-633.565	-171.253	-0.036	-0.001
-632.551	495.266	-0.115	-0.264
-631.536	577.899	0.048	0.117
-630.522	-82.488	-0.122	-0.040
-629.507	-189.223	0.114	-0.001
-628.492	800.000	0.055	0.222
-627.478	82.178	0.161	0.175
-626.463	-79.696	-0.140	-0.047
-625.449	-59.068	-0.562	-0.243
-624.434	-142.504	-0.133	0.013
-623.419	70.088	-0.177	-0.183
-622.405	323.620	-0.069	-0.133
-621.390	-200.000	0.038	-0.206
-620.376	-141.368	-0.417	-0.042
-619.361	108.552	0.274	-0.328
-618.346	40.938	0.221	-0.200
-617.332	-32.407	-0.210	-0.117
-616.317	49.560	-0.118	-0.111
-615.303	800.000	-0.086	-0.249
-614.288	10.071	0.296	-0.225
-613.273	-200.000	0.139	0.000
-612.259	412.790	0.066	0.141
-611.244	236.684	-0.189	-0.314
-610.230	-200.000	0.003	-0.139
-609.215	32.176	-0.317	-0.273
-608.201	115.167	-0.098	0.120
-607.186	65.205	-0.206	0.208
-606.171	47.583	0.218	0.203
-605.157	53.373	0.060	0.057
-604.142	726.605	0.093	-0.248
-603.128	-89.897	-0.246	-0.072
-602.113	800.000	-0.098	0.325
-601.098	-159.974	-0.176	0.010
-600.084	32.379	0.107	0.092
-599.069	-40.848	0.099	0.051
-598.055	-119.030	-0.331	0.058
-597.040	199.346	0.065	-0.100
-596.025	100.395	-0.100	0.116
-595.011	19.824	-0.274	-0.221
-593.996	800.000	0.065	-0.209
-592.982	-36.750	0.290	0.156
-591.967	755.057	-0.136	0.366
-590.952	-136.342	-0.102	0.012
-589.938	-92.271	0.184	-0.052
-588.923	-55.601	-0.217	-0.097
-587.909	800.000	0.071	0.202
-586.894	316.289	0.157	-0.295
-585.879	27.787	0.118	-0.099
-584.865	293.773	-0.090	-0.165
-583.850	369.265	0.042	0.085
-582.836	-13.019	-0.127	0.082
-581.821	275.152	0.091	0.161
-580.806	309.659	0.113	0.210
-579.792	-0.662	0.052	0.037
-578.777	-200.000	-0.012	-0.154
-577.763	-27.089	-0.153	-0.089
-576.748	800.000	0.017	-0.052
-575.733	255.004	0.038	-0.065
-574.719	-40.407	-0.207	0.107
-573.704	0.981	-0.359	0.257
-572.690	-126.749	-0.379	-0.056
-571.675	-35.200	-0.388	-0.211
-570.661	8.333	-0.083	-0.062
-569.646	-200.000	0.021	0.291
-568.631	133.180	-0.053	-0.068
-567.617	-200.000	-0.021	-0.178
-566.602	3.762	-0.187	0.136
-565.588	221.669	-0.170	-0.273
-564.573	-200.000	0.020	-0.226
-563.558	281.691	0.113	-0.202
-562.544	177.236	0.246	-0.357
-561.529	15.000	0.018	0.014
-560.515	252.198	-0.150	-0.254
-559.500	800.000	0.076	0.262
-558.485	-18.776	-0.033	0.020
-557.471	121.436	0.062	-0.077
-556.456	-105.343	-0.370	0.084
-555.442	144.386	0.046	-0.062
-554.427	287.487	0.105	0.189
-553.412	-200.000	-0.006	-0.129
-552.398	7.646	-0.187	-0.139
-551.383	221.304	-0.043	-0.069
-550.369	-111.250	0.265	-0.054
-549.354	-200.000	-0.023	-0.260
-548.339	-97.683	0.171	0.044
-547.325	-111.431	0.021	-0.004
-546.310	6.620	0.017	0.012
-545.296	23.381	0.272	-0.223
-544.281	-85.893	-0.084	0.026
-543.266	-83.902	0.242	0.077
-542.252	-97.906	-0.276	-0.071
-541.237	-200.000	0.062	0.369
-540.223	31.903	-0.022	0.019
-539.208	-65.524	-0.224	0.090
-538.193	3.051	-0.045	0.033
-537.179	-200.000	-0.022	-0.109
-536.164	-200.000	-0.003	0.059
-535.150	-200.000	0.008	-0.071
-534.135	-200.000	-0.023	-0.132
-533.121	111.540	0.128	-0.154
-532.106	283.524	-0.028	-0.050
-531.091	421.323	-0.071	0.152
-530.077	60.767	0.120	-0.119
-529.062	449.660	-0.235	-0.517
-528.048	10.910	0.074	0.056
-527.033	553.150	-0.085	-0.204
-526.018	-22.541	0.107	0.064
-525.004	-110.585	-0.185	-0.038
-523.989	-200.000	-0.004	0.105
-522.975	-67.008	0.142	0.056
-521.960	-191.927	0.430	-0.004
-520.945	66.555	0.065	-0.066
-519.931	-152.962	-0.230	-0.016
-518.916	-89.732	-0.405	-0.118
-517.902	607.313	0.031	-0.077
-516.887	-95.499	-0.140	0.037
-515.872	-82.083	-0.376	0.122
-514.858	-20.638	0.200	0.122
-513.843	-75.238	-0.160	0.057
-512.829	-122.319	0.216	-0.035
-511.814	20.804	0.243	0.196
-510.799	-200.000	-0.059	-0.270
-509.785	96.460	-0.044	0.050
-508.770	-110.455	0.085	0.017
-507.756	33.258	-0.146	0.126
-506.741	674.070	0.101	0.262
-505.726	193.352	-0.088	0.133
-504.712	-200.000	-0.002	0.189
-503.697	-200.000	-0.014	-0.117
-502.683	-165.680	-0.045	-0.002
-501.668	-60.806	-0.101	0.042
-500.653	-200.000	0.004	-0.021
-499.639	57.489	0.086	0.083
-498.624	-33.723	0.306	-0.168
-497.610	237.720	-0.110	0.181
-496.595	800.000	-0.097	-0.302
-495.581	24.086	0.225	0.185
-494.566	-200.000	0.012	0.133
-493.551	172.865	0.142	0.204
-492.537	30.500	-0.112	-0.095
-491.522	159.340	0.300	0.416
-490.508	-99.027	-0.048	0.012
-489.493	-144.883	0.132	-0.012
-488.478	-13.188	0.303	0.196
-487.464	-200.000	0.094	-0.530
-486.449	66.246	-0.238	-0.240
-485.435	199.457	0.110	-0.168
-484.420	-84.110	0.259	0.082
-483.405	368.070	-0.077	0.154
-482.391	16.732	0.073	0.058
-481.376	-15.930	-0.061	-0.038
-480.362	-49.044	-0.207	0.099
-479.347	-102.560	-0.153	-0.036
-478.332	9.132	-0.372	0.280
-477.318	-200.000	0.000	0.154
-476.303	516.580	-0.088	0.206
-475.289	586.875	0.050	-0.122
-474.274	800.000	-0.019	-0.067
-473.259	-50.416	-0.197	-0.093
-472.245	-54.665	-0.124	-0.056
-471.230	43.873	0.204	0.186
-470.216	120.537	0.039	0.049
-469.201	-54.931	-0.085	0.038
-468.186	120.657	0.074	0.091
-467.172	1.033	0.290	-0.207
-466.157	-36.117	0.136	-0.073
-465.143	-68.904	-0.127	-0.049
-464.128	-48.735	0.134	-0.064
-463.113	-200.000	0.041	0.258
-462.099	612.557	-0.102	-0.253
-461.084	-28.013	-0.353	0.203
-460.070	-83.160	0.040	-0.013
-459.055	800.000	0.015	-0.062
-458.040	-44.376	-0.250	0.124
-457.026	86.917	-0.065	0.071
-456.011	250.008	0.217	-0.367
-454.997	-128.382	0.083	-0.012
-453.982	38.350	-0.223	0.198
-452.968	-62.467	0.185	-0.076
-451.953	68.018	-0.138	-0.141
-450.938	506.462	-0.057	-0.131
-449.924	418.347	-0.129	0.274
-448.909	-12.906	0.183	0.118
-447.895	159.212	0.067	0.092
-446.880	-200.000	0.014	0.232
-445.865	-4.039	-0.226	-0.156
-444.851	116.535	-0.213	-0.259
-443.836	800.000	0.067	-0.280
-442.822	76.224	-0.347	0.365
-441.807	-94.715	-0.199	-0.054
-440.792	673.845	0.094	-0.242
-439.778	-148.940	-0.218	0.017
-438.763	-168.052	0.191	0.007
-437.749	-200.000	-0.019	0.311
-436.734	1.118	-0.204	-0.146
-435.719	277.756	0.270	-0.478
-434.705	-65.498	-0.143	-0.057
-433.690	-200.000	0.010	0.078
-432.676	-136.015	0.169	-0.020
-431.661	630.503	-0.046	-0.115
-430.646	443.152	0.045	-0.098
-429.632	-200.000	0.072	-0.320
-428.617	-60.524	-0.258	-0.109
-427.603	7.523	0.125	0.093
-426.588	-200.000	0.090	0.574
-425.573	36.817	0.032	0.028
-424.559	-184.177	0.332	0.005
-423.544	-106.932	-0.198	0.044
-422.530	68.795	0.127	0.129
-421.515	-200.000	0.017	0.191
-420.500	268.857	-0.111	0.194
-419.486	264.555	-0.064	0.111
-418.471	282.441	0.130	0.232
-417.457	296.828	-0.219	-0.398
-416.442	-177.890	-0.180	0.004
-415.428	-116.583	-0.123	-0.023
-414.413	-33.435	-0.141	0.078
-413.398	-200.000	0.020	0.348
-412.384	800.000	0.120	0.385
-411.369	-200.000	-0.027	0.260
-410.355	-200.000	0.023	-0.286
-409.340	-36.629	-0.170	0.090
-408.325	-91.851	-0.211	0.059
-407.311	375.994	0.139	0.281
-406.296	-109.486	-0.221	0.046
-405.282	-109.921	0.403	0.084
-404.267	149.161	-0.215	-0.288
-403.252	800.000	-0.038	-0.156
-402.238	-69.694	-0.325	0.123
-401.223	230.114	0.245	-0.397
-400.209	800.000	-0.065	-0.197
-399.194	107.629	-0.211	0.249
-398.179	800.000	0.068	-0.287
-397.165	583.976	-0.084	-0.204
-396.150	78.170	0.134	-0.142
-395.136	800.000	-0.038	0.138
-394.121	66.997	0.166	0.167
-393.106	-137.083	-0.444	-0.050
-392.092	206.957	-0.090	0.140
-391.077	361.107	-0.035	0.070
-390.063	-200.000	0.009	0.330
-389.048	-200.000	-0.005	0.383
-388.033	-200.000	0.004	0.031
-387.019	-38.084	0.042	-0.022
-386.004	66.223	0.363	-0.365
-384.990	-133.495	0.346	0.043
-383.975	-200.000	-0.041	0.229
-382.960	701.752	-0.027	0.070
-381.946	-200.000	0.024	0.123
-380.931	98.500	0.059	-0.067
-379.917	278.715	0.135	-0.238
-378.902	-200.000	-0.044	0.281
-377.888	126.105	-0.175	0.219
-376.873	76.450	-0.320	-0.336
-375.858	-200.000	0.009	-0.220
-374.844	-66.074	0.170	0.067
-373.829	170.544	-0.136	0.193
-372.815	341.294	-0.056	0.108
-371.800	69.121	-0.056	-0.057
-370.785	55.295	0.103	-0.099
-369.771	180.605	0.104	0.151
-368.756	240.865	0.111	0.183
-367.742	196.480	0.008	-0.012
-366.727	466.309	0.022	0.050
-365.712	27.016	-0.055	0.045
-364.698	800.000	0.068	-0.247
-363.683	346.826	0.082	-0.160
-362.669	278.901	-0.074	0.130
-361.654	-52.958	-0.108	0.049
-360.639	-69.702	-0.210	-0.080
-359.625	-17.321	-0.172	0.107
-358.610	-200.000	-0.016	-0.371
-357.596	-72.117	0.431	-0.158
-356.581	145.343	-0.175	-0.232
-355.566	70.474	-0.137	0.140
-354.552	-182.791	0.101	-0.002
-353.537	42.950	-0.133	0.120
-352.523	-23.554	0.293	0.174
-351.508	14.299	0.103	-0.080
-350.493	-139.623	0.162	-0.017
-349.479	-80.758	-0.500	0.164
-348.464	-200.000	0.045	-0.229
-347.450	-158.549	-0.198	-0.011
-346.435	88.325	-0.359	-0.394
-345.420	-200.000	0.021	-0.241
-344.406	-17.980	-0.147	0.091
-343.391	-134.224	-0.295	-0.036
-342.377	279.031	0.199	0.351
-341.362	95.918	-0.086	0.098
-340.348	-22.814	0.132	-0.079
-339.333	-22.677	-0.124	0.074
-338.318	339.195	0.036	-0.070
-337.304	295.013	0.076	-0.137
-336.289	-200.000	-0.008	0.126
-335.275	800.000	-0.058	-0.190
-334.260	0.970	-0.133	-0.094
-333.245	-75.021	-0.275	0.097
-332.231	-62.777	0.269	0.110
-331.216	107.022	0.274	-0.322
-330.202	-61.936	0.142	-0.059
-329.187	-200.000	-0.000	-0.015
-328.172	105.668	0.144	0.169
-327.158	-200.000	0.017	0.226
-326.143	-200.000	-0.055	0.397
-325.129	2.916	-0.235	0.168
-324.114	-32.987	0.111	-0.061
-323.099	206.456	0.087	-0.133
-322.085	-100.493	-0.104	0.025
-321.070	-49.505	0.105	0.049
-320.056	800.000	-0.077	0.288
-319.041	-5.321	0.135	0.092
-318.026	-200.000	0.012	-0.101
-317.012	2.833	0.420	0.301
-315.997	-153.196	0.309	-0.021
-314.983	-200.000	0.081	0.392
-313.968	476.398	-0.087	0.194
-312.953	-13.812	0.133	-0.085
-311.939	244.341	-0.138	-0.229
-310.924	721.957	0.041	0.107
-309.910	62.326	-0.171	0.169
-308.895	-52.858	0.193	-0.088
-307.880	99.030	-0.175	-0.200
-306.866	800.000	0.062	0.175
-305.851	-61.684	0.095	-0.039
-304.837	-200.000	0.010	-0.145
-303.822	53.618	0.289	-0.274
-302.807	-200.000	0.031	-0.166
-301.793	-164.040	-0.262	0.012
-300.778	-51.561	0.363	-0.167
-299.764	-65.601	-0.043	-0.017
-298.749	-107.247	0.351	0.076
-297.735	-37.220	-0.153	0.081
-296.720	139.497	0.084	-0.109
-295.705	27.264	0.119	-0.099
-294.691	-21.126	-0.283	0.171
-293.676	440.804	-0.114	0.247
-292.662	-200.000	0.030	0.212
-291.647	-200.000	-0.071	0.405
-290.632	286.795	0.026	0.046
-289.618	540.294	-0.134	-0.314
-288.603	145.167	0.119	-0.157
-287.589	-77.406	-0.155	-0.053
-286.574	99.466	0.187	-0.214
-285.559	-147.135	-0.139	0.012
-284.545	135.568	0.116	0.149
-283.530	-106.343	0.161	-0.036
-282.516	38.582	-0.119	0.105
-281.501	131.098	0.108	0.137
-280.486	-200.000	-0.043	0.292
-279.472	689.412	-0.151	-0.391
-278.457	-101.963	-0.166	-0.040
-277.443	-52.771	0.107	0.048
-276.428	-200.000	-0.005	-0.351
-275.413	-114.190	0.426	0.081
-274.399	-97.978	-0.220	0.056
-273.384	-200.000	0.014	0.218
-272.370	-200.000	-0.017	0.215
-271.355	800.000	-0.060	0.177
-270.340	-200.000	-0.032	0.207
-269.326	-61.840	-0.273	0.113
-268.311	290.766	0.069	0.124
-267.297	-200.000	0.036	-0.388
-266.282	-92.850	0.383	0.106
-265.267	-7.950	0.322	-0.214
-264.253	252.521	-0.108	0.182
-263.238	220.249	-0.049	-0.078
-262.224	-30.783	-0.200	0.111
-261.209	14.591	-0.040	0.031
-260.195	-200.000	-0.019	0.195
-259.180	198.150	-0.058	0.088
-258.165	-58.259	0.368	-0.158
-257.151	-200.000	-0.039	-0.209
-256.136	800.000	0.012	0.050
-255.122	-11.095	0.358	0.233
-254.107	800.000	-0.063	-0.241
-253.092	-58.438	0.205	-0.088
-252.078	-76.430	0.281	0.097
-251.063	800.000	0.135	0.389
-250.049	393.890	0.027	-0.055
-249.034	122.750	-0.125	0.154
-248.019	112.463	0.102	0.121
-247.005	-8.302	0.119	0.079
-245.990	-108.973	0.156	-0.033
-244.976	-163.336	0.107	0.005
-243.961	-137.209	0.155	-0.017
-242.946	-163.838	-0.361	-0.017
-241.932	222.199	0.256	-0.406
-240.917	-26.553	0.309	0.178
-239.903	-18.825	0.182	-0.112
-238.888	0.961	0.230	0.163
-237.873	238.133	-0.116	0.190
-236.859	-200.000	0.003	0.069
-235.844	800.000	0.108	-0.316
-234.830	-97.438	-0.278	0.071
-233.815	-94.856	-0.324	0.087
-232.800	87.780	0.203	0.222
-231.786	-121.070	0.206	-0.034
-230.771	-64.641	0.259	-0.104
-229.757	536.360	-0.063	0.147
-228.742	800.000	-0.159	0.535
-227.727	-24.104	0.254	-0.149
-226.713	-126.467	0.476	0.070
-225.698	552.788	0.168	0.398
-224.684	325.455	0.023	0.043
-223.669	-200.000	0.012	-0.096
-222.655	152.816	0.022	-0.030
-221.640	553.280	0.074	-0.175
-220.625	146.597	0.110	-0.145
-219.611	242.864	0.243	0.401
-218.596	-85.726	0.044	0.013
-217.582	48.295	-0.149	-0.137
-216.567	-57.667	-0.106	0.046
-215.552	-200.000	-0.086	0.468
-214.538	-111.952	0.099	-0.020
-213.523	248.242	0.151	-0.251
-212.509	800.000	-0.054	0.155
-211.494	-200.000	0.022	-0.144
-210.479	-32.357	-0.289	0.159
-209.465	135.067	-0.237	-0.303
-208.450	525.125	0.087	0.201
-207.436	-187.185	0.543	-0.007
-206.421	-200.000	-0.035	0.306
-205.406	100.057	0.034	-0.039
-204.392	-200.000	0.028	-0.185
-203.377	-39.044	0.046	0.024
-202.363	-106.955	0.330	0.072
-201.348	-166.171	0.203	-0.008
-200.333	-59.870	-0.120	0.050
-199.319	-74.519	0.110	0.039
-198.304	-200.000	-0.003	-0.215
-197.290	139.351	0.141	-0.182
-196.275	33.999	-0.017	0.015
-195.260	7.942	-0.362	0.267
-194.246	309.823	-0.026	0.048
-193.231	128.047	0.259	0.324
-192.217	484.120	0.220	-0.491
-191.202	-16.665	0.059	0.037
-190.187	-119.093	0.134	0.023
-189.173	745.297	0.161	-0.427
-188.158	-130.880	-0.231	0.030
-187.144	-73.532	0.315	-0.113
-186.129	-62.537	0.245	0.100
-185.114	-145.168	0.128	0.011
-184.100	231.478	0.116	-0.187
-183.085	-46.047	-0.370	-0.179
-182.071	-200.000	-0.015	-0.319
-181.056	-25.854	-0.249	-0.144
-180.042	-27.907	0.020	-0.011
-179.027	-120.068	-0.546	0.092
-178.012	-171.829	-0.305	-0.010
-176.998	-200.000	-0.002	-0.384
-175.983	-89.427	-0.219	-0.063
-174.969	800.000	0.080	0.267
-173.954	-44.431	-0.076	-0.038
-172.939	-108.890	0.196	0.041
-171.925	-86.821	0.338	-0.101
-170.910	234.700	0.228	-0.369
-169.896	-30.161	0.084	-0.047
-168.881	-171.904	0.523	0.017
-167.866	800.000	-0.024	0.097
-166.852	-57.405	-0.312	-0.135
-165.837	-200.000	0.016	0.184
-164.823	-33.165	-0.152	-0.083
-163.808	-69.067	0.118	0.044
-162.793	127.041	0.176	0.220
-161.779	35.045	0.163	0.140
-160.764	-44.618	-0.157	0.077
-159.750	-200.000	0.084	-0.400
-158.735	-122.071	0.311	0.050
-157.720	-200.000	0.052	0.229
-156.706	800.000	0.088	-0.261
-155.691	44.373	-0.176	-0.159
-154.677	-50.399	-0.218	0.101
-153.662	-110.382	0.031	-0.006
-152.647	51.785	0.038	-0.035
-151.633	177.576	0.050	-0.072
-150.618	-74.041	0.266	-0.095
-149.604	71.344	-0.104	0.106
-148.589	-57.657	-0.135	-0.058
-147.574	800.000	0.122	-0.419
-146.560	6.195	-0.138	-0.100
-145.545	61.670	0.132	-0.129
-144.531	-138.963	0.340	-0.036
-143.516	800.000	0.033	-0.124
-142.502	-121.440	0.181	0.030
-141.487	-42.665	0.108	0.054
-140.472	-200.000	-0.025	-0.346
-139.458	236.353	0.078	-0.127
-138.443	-200.000	0.017	-0.075
-137.429	9.304	-0.244	-0.181
-136.414	95.517	0.219	0.245
-135.399	800.000	0.061	-0.250
-134.385	-75.821	0.256	0.089
-133.370	65.730	0.111	-0.111
-132.356	40.947	0.298	-0.264
-131.341	800.000	0.050	-0.158
-130.326	-200.000	-0.255	0.000
-129.312	-15.461	-0.045	0.028
-128.297	-13.560	-0.143	-0.091
-127.283	42.412	0.131	0.117
-126.268	667.129	-0.083	-0.210
-125.253	-200.000	-0.070	-0.404
-124.239	129.104	0.056	0.070
-123.224	1.993	0.305	0.216
-122.210	-11.430	0.091	-0.059
-121.195	593.437	-0.055	-0.134
-120.180	471.073	-0.053	-0.117
-119.166	-30.168	-0.052	-0.029
-118.151	-200.000	0.002	-0.106
-117.137	800.000	0.067	0.201
-116.122	276.674	0.024	0.042
-115.107	227.362	0.097	-0.154
-114.093	159.820	-0.011	-0.015
-113.078	477.346	-0.039	-0.086
-112.064	-102.880	0.046	0.011
-111.049	3.299	-0.069	-0.049
-110.034	370.436	0.118	-0.235
-109.020	55.756	0.060	-0.057
-108.005	82.468	0.188	0.200
-106.991	-200.000	0.022	-0.156
-105.976	800.000	0.056	-0.225
-104.962	800.000	0.070	-0.254
-103.947	-23.509	-0.090	-0.053
-102.932	554.448	0.015	0.036
-101.918	-53.427	0.023	-0.010
-100.903	-28.476	0.189	-0.107
-99.889	-16.235	0.195	0.121
-98.874	800.000	0.181	0.535
-97.859	30.843	0.226	0.190
-96.845	52.835	0.144	-0.135
-95.830	-83.438	-0.018	-0.006
-94.816	-200.000	-0.017	-0.080
-93.801	-58.210	0.221	-0.094
-92.786	-200.000	0.008	-0.042
-91.772	-53.709	0.468	-0.210
-90.757	-27.317	-0.207	-0.118
-89.743	-68.604	-0.341	-0.129
-88.728	106.143	0.216	-0.250
-87.713	206.432	-0.083	0.126
-86.699	-200.000	-0.008	-0.180
-85.684	-112.301	0.304	0.060
-84.670	-79.172	0.208	-0.069
-83.655	-200.000	-0.075	-0.325
-82.640	73.515	0.206	0.212
-81.626	-200.000	0.001	0.100
-80.611	800.000	-0.098	-0.290
-79.597	-118.842	-0.335	-0.058
-78.582	-106.329	-0.090	-0.020
-77.567	-103.187	0.241	0.056
-76.553	-200.000	0.068	-0.345
-75.538	800.000	-0.076	-0.265
-74.524	168.230	0.077	-0.108
-73.509	525.785	-0.070	-0.162
-72.494	800.000	0.036	0.128
-71.480	-75.877	0.261	-0.090
-70.465	-200.000	-0.064	-0.298
-69.451	436.431	0.103	-0.221
-68.436	-18.276	-0.332	-0.203
-67.422	-62.036	0.266	0.109
-66.407	800.000	-0.078	0.256
-65.392	93.234	-0.136	-0.150
-64.378	235.948	-0.043	0.069
-63.363	800.000	0.017	-0.055
-62.349	77.389	-0.110	0.114
-61.334	218.849	-0.949	-1.484
-60.319	21.563	0.667	0.531
-59.305	-200.000	-0.318	-1.639
-58.290	562.177	0.590	1.396
-57.276	780.600	0.594	1.591
-56.261	-200.000	112.886	644.779
-55.246	474.289	1503.138	3317.240
-54.232	148.283	2668.180	3523.204
-53.217	103.101	2173.285	2491.241
-52.203	37.890	1704.625	1481.927
-51.188	30.710	1523.023	1275.013
-50.173	28.463	1498.519	1239.281
-49.159	52.566	1555.456	1452.856
-48.144	51.194	1571.591	1458.437
-47.130	30.974	1528.106	1280.884
-46.115	27.858	1513.213	1247.104
-45.100	27.688	1509.833	1243.106
-44.086	27.637	1508.032	1241.228
-43.071	27.619	1505.442	1238.929
-42.057	27.637	1504.376	1238.123
-41.042	27.620	1503.048	1236.868
-40.027	27.555	1501.681	1235.253
-39.013	27.579	1500.019	1233.995
-37.998	27.651	1498.646	1233.307
-36.984	27.582	1497.905	1232.182
-35.969	27.650	1495.936	1230.972
-34.954	27.522	1494.661	1229.011
-33.940	27.677	1492.997	1228.636
-32.925	27.685	1491.613	1227.505
-31.911	27.798	1490.219	1227.067
-30.896	27.631	1489.386	1225.211
-29.881	27.658	1488.160	1224.336
-28.867	27.677	1486.707	1223.218
-27.852	27.649	1485.993	1222.392
-26.838	27.682	1484.139	1221.041
-25.823	27.576	1482.828	1219.207
-24.809	27.662	1480.439	1217.769
-23.794	27.588	1479.899	1216.779
-22.779	27.565	1478.669	1215.567
-21.765	27.700	1477.382	1215.359
-20.750	27.696	1476.608	1214.649
-19.736	27.645	1475.671	1213.490
-18.721	27.645	1474.268	1212.289
-17.706	27.628	1473.140	1211.202
-16.692	27.598	1472.225	1210.203
-15.677	27.567	1471.326	1209.212
-14.663	27.538	1470.391	1208.201
-13.648	27.680	1469.062	1207.998
-12.633	27.595	1468.627	1207.031
-11.619	27.568	1467.580	1205.942
-10.604	27.612	1466.613	1205.396
-9.590	27.701	1465.356	1204.901
-8.575	27.666	1464.828	1204.188
-7.560	27.601	1464.064	1203.083
-6.546	27.577	1463.448	1202.369
-5.531	27.639	1461.643	1201.248
-4.517	27.659	1460.923	1200.737
-3.502	27.614	1460.053	1199.681
-2.487	27.642	1459.055	1198.995
-1.473	27.596	1458.144	1197.900
-0.458	27.608	1456.720	1196.758
0.556	26.038	1447.158	1185.392
1.571	23.043	1421.704	1145.077
2.586	19.519	1361.466	1074.560
3.600	18.028	1278.593	1000.341
4.615	16.849	1233.661	958.439
5.629	16.146	1180.646	913.363
6.644	13.445	1104.618	840.771
7.659	10.981	1070.971	802.942
8.673	10.775	1065.932	798.081
9.688	10.562	1062.819	794.636
10.702	10.476	1061.282	792.996
11.717	10.577	1058.988	791.707
12.731	11.597	1058.321	796.110
13.746	14.363	1061.976	812.291
14.761	16.972	1065.120	827.366
15.775	17.757	1065.260	831.229
16.790	17.058	1063.729	826.556
17.804	16.068	1061.045	819.587
18.819	15.186	1059.312	813.896
19.834	14.650	1057.702	809.987
20.848	14.288	1056.785	807.456
21.863	14.055	1055.811	805.513
22.877	13.729	1055.442	803.579
23.892	13.638	1054.567	802.400
24.907	13.566	1053.650	801.287
25.921	13.577	1052.552	800.432
26.936	13.595	1051.860	799.923
27.950	13.592	1050.982	799.169
28.965	13.689	1049.733	798.617
29.980	13.715	1048.675	797.868
30.994	13.937	1046.970	797.567
32.009	13.861	1046.728	796.942
33.023	13.698	1046.460	795.886
34.038	13.807	1045.224	795.398
35.053	13.836	1044.124	794.630
36.067	13.822	1043.038	793.667
37.082	13.618	1042.443	792.170
38.096	13.813	1041.581	792.377
39.111	13.733	1041.130	791.581
40.126	13.881	1039.848	791.241
41.140	13.797	1038.245	789.550
42.155	13.542	1037.838	787.962
43.169	13.609	1036.703	787.345
44.184	13.566	1035.788	786.378
45.199	13.553	1034.425	785.211
46.213	13.504	1033.790	784.430
47.228	13.603	1032.693	783.996
48.242	13.650	1031.332	783.113
49.257	13.731	1030.763	782.994
50.271	13.659	1029.832	781.878
51.286	13.646	1029.212	781.278
52.301	13.707	1028.290	780.798
53.315	13.834	1027.294	780.566
54.330	13.587	1026.721	778.903
55.344	13.569	1025.892	778.119
56.359	13.556	1024.683	777.071
57.374	13.553	1023.912	776.408
58.388	13.639	1022.960	776.018
59.403	13.553	1022.496	775.196
60.417	13.624	1021.290	774.545
61.432	13.607	1020.507	773.803
62.447	13.432	1019.943	772.488
63.461	13.398	1018.632	771.270
64.476	13.449	1018.157	771.080
65.490	13.481	1017.081	770.346
66.505	13.526	1016.054	769.708
67.520	13.481	1015.807	769.244
68.534	13.562	1015.103	769.018
69.549	13.587	1013.701	768.007
70.563	13.560	1013.459	767.629
71.578	13.534	1012.424	766.655
72.593	13.557	1011.498	765.994
73.607	13.364	1010.720	764.443
74.622	13.372	1010.014	763.881
75.636	13.320	1009.016	762.817
76.651	13.390	1008.152	762.421
77.666	13.507	1006.980	762.006
78.680	13.502	1006.779	761.763
79.695	13.503	1006.184	761.248
80.709	13.426	1005.989	760.681
81.724	13.526	1004.954	760.290
82.739	13.611	1003.765	759.712
83.753	13.591	1003.365	759.250
84.768	13.705	1002.656	759.169
85.782	13.661	1002.158	758.523
86.797	13.767	1001.287	758.279
87.812	13.823	1000.231	757.670
88.826	13.806	999.185	756.732
89.841	13.555	998.828	755.252
90.855	13.763	997.589	755.194
91.870	13.707	997.219	754.591
92.884	13.713	996.608	754.092
93.899	13.817	995.433	753.609
94.914	13.810	994.784	753.016
95.928	13.861	994.141	752.696
96.943	13.975	993.239	752.462
97.957	13.791	992.767	751.205
98.972	13.784	991.532	750.175
99.987	13.786	990.836	749.591
101.001	13.798	990.078	749.004
102.016	13.775	989.529	748.418
103.030	13.769	988.508	747.552
104.045	13.853	987.506	747.106
105.060	13.810	986.934	746.413
106.074	13.738	985.601	745.018
107.089	13.760	984.628	744.313
108.103	13.521	984.054	742.742
109.118	13.504	983.044	741.840
110.133	13.508	982.195	741.149
111.147	13.556	981.447	740.735
112.162	13.595	980.147	739.863
113.176	13.675	979.091	739.358
114.191	13.615	978.693	738.723
115.206	13.673	977.846	738.279
116.220	13.593	977.308	737.448
117.235	13.638	976.220	736.765
118.249	13.645	975.533	736.209
119.264	13.634	974.560	735.362
120.279	13.625	973.750	734.647
121.293	13.651	973.039	734.160
122.308	13.597	972.296	733.298
123.322	13.509	971.303	732.091
124.337	13.549	970.382	731.512
125.352	13.557	969.370	730.720
126.366	13.569	968.053	729.715
127.381	13.603	967.288	729.222
128.395	13.567	965.989	728.018
129.410	13.514	965.059	727.022
130.424	13.496	964.499	726.455
131.439	13.478	963.700	725.710
132.454	13.661	962.589	725.612
133.468	13.643	962.020	725.039
134.483	13.570	961.649	724.380
135.497	13.626	960.895	723.988
136.512	13.570	959.851	722.895
137.527	13.753	959.036	723.016
138.541	13.673	958.372	722.103
139.556	13.745	957.644	721.804
140.570	13.698	956.959	721.018
141.585	13.878	955.878	720.924
142.600	13.814	955.621	720.388
143.614	13.804	954.948	719.774
144.629	13.870	953.666	719.028
145.643	13.861	953.522	718.816
146.658	14.010	952.316	718.489
147.673	13.903	951.535	717.373
148.687	13.847	950.419	716.225
149.702	13.812	949.777	715.530
150.716	13.731	949.129	714.630
151.731	13.653	948.171	713.506
152.746	13.734	947.271	713.118
153.760	13.722	946.820	712.663
154.775	13.779	946.333	712.476
155.789	13.792	944.955	711.433
156.804	14.006	944.117	711.657
157.819	13.888	943.890	710.916
158.833	14.067	942.588	710.637
159.848	13.958	942.290	709.883
160.862	13.952	941.304	709.053
161.877	14.017	940.820	708.901
162.892	13.816	940.232	707.538
163.906	13.822	938.944	706.532
164.921	13.822	938.327	706.007
165.935	13.827	937.348	705.231
166.950	13.994	935.814	704.720
167.964	13.906	935.662	704.172
168.979	13.970	934.450	703.469
169.994	13.870	933.619	702.357
171.008	13.877	932.819	701.722
172.023	13.997	932.181	701.688
173.037	13.935	931.389	700.767
174.052	13.915	930.626	700.047
175.067	13.928	930.074	699.624
176.081	14.028	929.077	699.232
177.096	14.012	927.955	698.258
178.110	13.937	927.164	697.287
179.125	14.067	926.384	697.186
180.140	13.861	925.798	695.819
181.154	14.021	924.719	695.616
182.169	13.934	924.776	695.231
183.183	14.209	923.792	695.580
184.198	14.052	923.394	694.564
185.213	14.114	922.527	694.111
186.227	14.255	921.926	694.185
187.242	14.214	921.684	693.770
188.256	14.285	920.728	693.285
189.271	14.395	920.040	693.161
190.286	14.217	919.568	692.004
191.300	14.060	918.749	690.674
192.315	13.820	918.140	689.161
193.329	13.992	917.035	688.985
194.344	13.965	916.366	688.307
195.359	13.899	916.042	687.730
196.373	14.053	915.215	687.687
197.388	14.207	914.717	687.888
198.402	14.356	914.251	688.092
199.417	14.261	913.995	687.444
200.432	14.363	913.371	687.335
201.446	14.514	913.018	687.632
202.461	14.584	912.645	687.581
203.475	14.546	911.883	686.786
204.490	14.550	910.844	685.960
205.504	14.441	910.383	685.107
206.519	14.359	909.533	684.067
207.534	14.408	908.885	683.722
208.548	14.477	908.040	683.309
209.563	14.490	907.569	682.947
210.577	14.396	906.728	681.867
211.592	14.367	906.531	681.542
212.607	14.529	905.349	681.255
213.621	14.580	905.057	681.182
214.636	14.677	904.197	680.872
215.650	14.554	903.849	680.047
216.665	14.531	903.179	679.389
217.680	14.679	902.500	679.419
218.694	14.677	902.031	678.998
219.709	14.554	901.556	678.082
220.723	14.639	900.812	677.807
221.738	14.563	900.209	676.986
222.753	14.637	899.091	676.384
223.767	14.610	898.686	675.912
224.782	14.643	898.097	675.541
225.796	14.725	897.288	675.206
226.811	14.688	897.074	674.833
227.826	14.810	895.766	674.282
228.840	14.754	895.452	673.763
229.855	14.599	894.511	672.366
230.869	14.635	894.132	672.170
231.884	14.775	893.155	671.936
232.899	14.777	892.326	671.262
233.913	14.748	891.843	670.725
234.928	14.775	891.306	670.368
235.942	14.735	890.592	669.611
236.957	14.756	889.637	668.917
237.972	14.692	889.033	668.149
238.986	14.756	888.297	667.794
240.001	14.672	888.227	667.348
241.015	14.593	887.280	666.260
242.030	14.844	886.706	666.773
243.045	14.879	885.700	666.096
244.059	14.925	884.901	665.617
245.074	14.918	884.581	665.293
246.088	14.891	883.969	664.666
247.103	14.931	883.397	664.334
248.117	14.952	882.829	663.933
249.132	15.042	882.367	663.883
250.147	15.025	881.950	663.441
251.161	15.173	880.831	663.129
252.176	15.322	879.951	662.995
253.190	15.301	879.384	662.427
254.205	15.357	878.829	662.170
255.220	15.224	878.271	661.170
256.234	15.332	877.859	661.226
257.249	15.492	876.659	660.894
258.263	15.392	876.593	660.393
259.278	15.350	876.018	659.736
260.293	15.307	875.329	658.987
261.307	15.319	875.037	658.758
262.322	15.575	873.897	658.843
263.336	15.542	873.479	658.341
264.351	15.446	873.132	657.645
265.366	15.477	872.825	657.477
266.380	15.621	871.530	657.008
267.395	15.523	871.008	656.174
268.409	15.527	870.110	655.453
269.424	15.380	869.705	654.517
270.439	15.497	868.856	654.274
271.453	15.524	867.902	653.605
272.468	15.523	867.408	653.172
273.482	15.528	866.628	652.547
274.497	15.416	866.656	652.074
275.512	15.424	865.639	651.284
276.526	15.540	864.804	651.048
277.541	15.497	864.491	650.588
278.555	15.584	863.853	650.385
279.570	15.599	863.514	650.129
280.585	15.546	862.794	649.328
281.599	15.684	862.383	649.493
282.614	15.700	861.617	648.920
283.628	15.705	860.642	648.149
284.643	15.722	860.340	647.929
285.657	15.718	859.724	647.392
286.672	15.670	859.377	646.888
287.687	15.733	859.061	646.833
288.701	15.810	858.357	646.544
289.716	15.815	857.956	646.205
290.730	15.754	857.151	645.304
291.745	15.733	856.884	644.967
292.760	15.663	856.018	643.991
293.774	15.778	855.575	644.042
294.789	15.811	854.705	643.454
295.803	15.832	854.221	643.115
296.818	15.872	853.550	642.703
297.833	15.893	852.871	642.215
298.847	15.742	852.216	641.091
299.862	15.768	851.524	640.611
300.876	15.877	851.090	640.644
301.891	15.903	850.235	640.044
302.906	15.965	849.607	639.748
303.920	16.069	848.578	639.313
304.935	16.053	848.459	639.106
305.949	16.102	847.807	638.742
306.964	16.030	847.308	638.037
307.979	15.981	846.921	637.505
308.993	16.228	846.228	637.860
310.008	16.089	845.340	636.612
311.022	16.076	844.939	636.204
312.037	16.191	844.372	636.153
313.052	16.066	844.059	635.389
314.066	16.085	843.312	634.844
315.081	16.056	842.911	634.376
316.095	16.227	842.060	634.320
317.110	16.267	841.727	634.163
318.125	15.967	841.313	632.671
319.139	15.994	840.959	632.450
320.154	16.124	839.816	632.021
321.168	16.198	839.414	631.940
322.183	16.274	838.907	631.786
323.197	16.274	838.412	631.359
324.212	16.229	838.139	630.926
325.227	16.270	837.311	630.402
326.241	16.230	837.153	630.080
327.256	16.170	836.389	629.223
328.270	16.150	836.178	628.935
329.285	16.113	835.574	628.289
330.300	16.210	834.841	628.040
331.314	16.199	834.121	627.403
332.329	16.291	833.630	627.319
333.343	16.242	833.076	626.665
334.358	16.412	832.609	626.890
335.373	16.381	832.055	626.304
336.387	16.455	831.300	625.952
337.402	16.431	830.436	625.157
338.416	16.417	830.221	624.889
339.431	16.510	829.621	624.724
340.446	16.698	828.985	624.887
341.460	16.482	829.016	624.058
342.475	16.546	828.288	623.691
343.489	16.630	827.483	623.338
344.504	16.653	827.351	623.269
345.519	16.596	826.590	622.428
346.533	16.650	826.053	622.169
347.548	16.645	825.537	621.708
348.562	16.591	824.925	620.992
349.577	16.660	824.479	620.853
350.592	16.748	823.857	620.655
351.606	16.587	823.550	619.777
352.621	16.734	822.947	619.808
353.635	16.525	822.781	618.862
354.650	16.534	822.669	618.758
355.665	16.654	822.035	618.662
356.679	16.728	821.547	618.511
357.694	16.793	820.132	617.630
358.708	16.738	820.142	617.380
359.723	16.787	819.651	617.136
360.738	16.784	818.974	616.561
361.752	16.765	818.455	616.047
362.767	16.721	818.550	615.901
363.781	16.712	818.119	615.489
364.796	16.927	817.290	615.593
365.810	16.979	816.732	615.306
366.825	17.072	816.463	615.388
367.840	16.945	816.263	614.724
368.854	16.908	815.958	614.302
369.869	16.925	815.679	614.100
370.883	17.081	814.884	614.012
371.898	17.026	813.968	613.070
372.913	17.083	813.425	612.812
373.927	17.155	812.786	612.534
374.942	17.057	812.045	611.571
375.956	17.113	811.708	611.462
376.971	17.189	811.276	611.359
377.986	17.227	810.487	610.845
379.000	17.185	810.095	610.347
380.015	17.238	809.743	610.215
381.029	17.184	809.250	609.599
382.044	17.214	808.685	609.225
383.059	17.253	807.905	608.724
384.073	17.366	807.481	608.756
385.088	17.415	806.797	608.362
386.102	17.238	806.380	607.358
387.117	17.149	806.027	606.722
388.132	17.193	805.676	606.562
389.146	17.244	804.982	606.165
390.161	17.335	804.452	606.039
391.175	17.244	804.133	605.421
392.190	17.301	804.184	605.610
393.205	17.398	803.301	605.235
394.219	17.201	802.992	604.246
395.234	17.274	802.646	604.195
396.248	17.248	802.107	603.643
397.263	17.238	801.547	603.130
398.278	17.312	800.633	602.654
399.292	17.288	800.432	602.362
400.307	17.254	800.065	601.912
401.321	17.332	799.734	601.886
402.336	17.372	799.396	601.720
403.350	17.432	798.902	601.508
404.365	17.424	798.312	600.982
405.380	17.567	797.905	601.126
406.394	17.466	797.645	600.522
407.409	17.613	796.952	600.466
408.423	17.568	796.651	600.025
409.438	17.630	796.260	599.897
410.453	17.595	796.177	599.657
411.467	17.686	795.387	599.329
412.482	17.660	794.673	598.649
413.496	17.675	794.395	598.439
414.511	17.767	793.966	598.383
415.526	17.774	793.736	598.183
416.540	17.764	793.485	597.906
417.555	17.785	792.624	597.276
418.569	17.634	792.551	596.641
419.584	17.806	792.352	597.041
420.599	17.803	791.457	596.303
421.613	111.576	1292.440	1475.524
422.628	95.904	1365.400	1475.609
