DTS Sentinel unit serial number:	SN413079Multiplexer serial number:	ORYXHardware model number:	OX4-SRSoftware version number:	ORYX F/W v4.00 Oryx Data Collector v3.7.2.0data status	okinstallation	princeton_trtdifferential loss correction	single-endedforward channel	channel 3reverse channel	N/Adate	2019/09/11time	18:54:10forward acquisition time	60.00reverse acquisition time	0.00gamma	496.2192k internal	0.2290k external	0.2290temperature offset calibration	1.0009default loss term (dB/km)	0.3790temperature slope calibration	1.0000multiplexer offset coefficient	1.0000multiplexer slope coefficient	1.0000fibre end	0.00T internal ref (°C)	42.67T ext. ref 1 (°C)	1.25T ext. ref 2 (°C)	34.94length (m)	temperature (°C)	Stokes	anti-Stokes-747.200	-200.000	0.006	-0.027
-746.185	-99.849	0.293	0.075
-745.171	-200.000	0.071	-0.438
-744.156	108.273	0.265	0.324
-743.142	397.932	0.081	-0.174
-742.127	-200.000	-0.038	0.293
-741.112	-81.850	0.290	-0.097
-740.098	-69.104	-0.237	-0.094
-739.083	-200.000	0.004	0.117
-738.069	141.137	0.022	0.029
-737.054	800.000	-0.086	-0.363
-736.039	209.996	-0.248	-0.399
-735.025	-108.043	0.088	0.019
-734.010	-29.581	-0.125	-0.073
-732.996	-126.902	-0.216	0.033
-731.981	670.186	-0.129	-0.342
-730.966	-200.000	-0.042	-0.331
-729.952	338.548	0.060	0.119
-728.937	63.137	0.175	0.179
-727.923	224.840	-0.073	0.121
-726.908	-159.491	-0.244	-0.014
-725.894	50.308	-0.111	-0.107
-724.879	-123.633	-0.181	-0.029
-723.864	168.942	-0.163	-0.238
-722.850	800.000	-0.053	-0.225
-721.835	200.713	-0.141	-0.222
-720.821	8.056	0.178	0.136
-719.806	525.321	-0.103	-0.248
-718.791	-200.000	0.019	-0.282
-717.777	800.000	-0.040	-0.148
-716.762	720.196	0.054	-0.146
-715.748	-12.510	0.033	0.022
-714.733	123.993	0.171	-0.220
-713.718	-82.906	0.092	-0.030
-712.704	-163.907	0.060	0.003
-711.689	754.477	-0.052	-0.145
-710.675	10.361	-0.331	-0.258
-709.660	508.698	0.004	-0.009
-708.645	3.359	-0.215	-0.160
-707.631	-200.000	0.039	0.331
-706.616	-200.000	-0.037	-0.237
-705.602	-41.927	-0.250	0.131
-704.587	-191.514	-0.269	-0.003
-703.572	339.560	-0.106	0.211
-702.558	800.000	-0.127	0.382
-701.543	-50.185	0.199	-0.096
-700.529	-200.000	-0.009	0.237
-699.514	-200.000	-0.064	0.305
-698.499	800.000	-0.064	-0.218
-697.485	-85.272	0.109	-0.035
-696.470	-200.000	-0.036	-0.195
-695.456	-200.000	-0.054	-0.255
-694.441	-200.000	-0.015	0.302
-693.426	-48.544	0.358	-0.176
-692.412	-200.000	0.037	0.299
-691.397	-111.468	-0.324	0.067
-690.383	-123.110	-0.433	0.071
-689.368	31.566	0.172	0.151
-688.354	48.471	0.205	0.196
-687.339	-92.375	-0.092	-0.027
-686.324	246.950	0.057	-0.098
-685.310	800.000	-0.033	-0.142
-684.295	399.407	0.135	0.288
-683.281	-80.317	0.296	-0.101
-682.266	-40.828	0.091	0.048
-681.251	197.927	-0.031	0.048
-680.237	800.000	0.094	-0.298
-679.222	356.590	-0.027	0.055
-678.208	-164.049	0.214	0.010
-677.193	-114.331	0.251	0.049
-676.178	-24.709	-0.160	-0.097
-675.164	-24.554	0.165	0.100
-674.149	-95.829	0.204	0.056
-673.135	275.768	0.079	-0.143
-672.120	568.435	0.058	0.145
-671.105	37.056	0.170	0.154
-670.091	34.203	0.094	-0.084
-669.076	-142.665	-0.188	0.019
-668.062	162.383	0.057	0.081
-667.047	800.000	-0.078	-0.343
-666.032	212.838	-0.039	0.062
-665.018	42.965	-0.040	-0.037
-664.003	261.390	-0.138	0.244
-662.989	-19.404	0.112	0.071
-661.974	22.683	-0.056	0.047
-660.959	30.810	-0.054	0.047
-659.945	-16.950	-0.174	-0.112
-658.930	145.940	0.036	0.050
-657.916	55.667	-0.083	-0.082
-656.901	-74.635	-0.054	0.020
-655.886	-89.461	-0.186	0.056
-654.872	-156.426	-0.068	-0.004
-653.857	-200.000	-0.059	-0.293
-652.843	358.521	0.104	0.213
-651.828	-121.036	-0.225	-0.039
-650.814	-130.121	0.541	0.075
-649.799	-126.551	-0.122	-0.018
-648.784	-158.260	-0.119	0.007
-647.770	197.786	-0.137	-0.214
-646.755	58.406	-0.174	0.175
-645.741	101.975	0.279	-0.332
-644.726	-146.823	0.135	0.012
-643.711	66.468	-0.099	-0.103
-642.697	16.503	0.247	0.199
-641.682	95.602	-0.218	-0.254
-640.668	800.000	-0.100	0.292
-639.653	-38.948	0.107	0.057
-638.638	231.554	0.107	0.179
-637.624	-119.348	-0.347	-0.061
-636.609	-110.642	-0.143	0.030
-635.595	-183.023	0.348	-0.006
-634.580	-109.066	-0.277	0.060
-633.565	61.782	0.127	-0.129
-632.551	441.568	0.033	-0.074
-631.536	800.000	0.026	0.102
-630.522	800.000	-0.065	0.205
-629.507	-49.798	-0.287	0.139
-628.492	66.565	0.328	0.340
-627.478	6.827	-0.005	-0.004
-626.463	27.496	-0.214	-0.183
-625.449	-200.000	0.007	0.367
-624.434	89.265	0.158	0.179
-623.419	-154.147	-0.235	0.016
-622.405	-200.000	-0.029	-0.167
-621.390	-200.000	-0.074	-0.601
-620.376	-163.430	0.058	0.003
-619.361	-110.049	-0.286	-0.061
-618.346	741.005	0.167	0.457
-617.332	-200.000	0.015	-0.175
-616.317	-51.994	0.308	0.146
-615.303	-149.395	0.244	0.020
-614.288	11.012	0.049	0.038
-613.273	-44.499	-0.258	0.132
-612.259	-200.000	0.026	-0.155
-611.244	22.749	0.057	0.048
-610.230	181.003	0.147	-0.220
-609.215	-200.000	-0.088	-0.541
-608.201	163.208	0.190	-0.272
-607.186	-200.000	-0.005	0.167
-606.171	-156.436	-0.058	0.004
-605.157	-200.000	0.018	0.248
-604.142	-11.125	0.173	-0.116
-603.128	-80.037	-0.172	0.059
-602.113	-59.706	0.267	-0.117
-601.098	190.844	0.041	-0.063
-600.084	51.033	-0.082	0.079
-599.069	800.000	-0.043	0.175
-598.055	103.903	0.110	0.131
-597.040	-200.000	-0.011	0.189
-596.025	800.000	-0.030	0.097
-595.011	-118.764	0.158	-0.028
-593.996	-92.287	0.086	-0.025
-592.982	113.912	0.256	0.316
-591.967	-68.783	0.236	0.093
-590.952	-58.973	-0.313	-0.138
-589.938	351.189	-0.104	0.209
-588.923	-123.578	-0.044	-0.007
-587.909	-200.000	-0.003	-0.172
-586.894	-87.137	0.428	-0.133
-585.879	-200.000	-0.023	0.206
-584.865	-200.000	0.005	-0.102
-583.850	146.903	-0.072	0.099
-582.836	-83.399	0.092	0.030
-581.821	34.609	0.220	0.196
-580.806	272.898	-0.076	-0.137
-579.792	-126.556	0.447	0.068
-578.777	172.064	-0.157	0.230
-577.763	-86.516	0.293	-0.092
-576.748	-200.000	-0.059	-0.276
-575.733	-51.636	-0.290	-0.138
-574.719	-34.240	-0.185	-0.103
-573.704	-3.036	-0.149	-0.106
-572.690	-160.904	-0.038	-0.002
-571.675	-128.003	-0.296	0.043
-570.661	-76.780	-0.167	0.060
-569.646	800.000	0.055	-0.158
-568.631	-200.000	0.008	0.239
-567.617	800.000	-0.011	-0.035
-566.602	49.051	0.226	0.216
-565.588	476.345	0.130	-0.298
-564.573	-36.086	0.163	0.089
-563.558	-82.635	-0.105	-0.035
-562.544	-200.000	0.026	0.178
-561.529	-200.000	0.018	-0.112
-560.515	711.506	0.069	0.186
-559.500	-117.322	0.198	-0.037
-558.485	-63.933	-0.247	0.103
-557.471	-59.750	0.146	0.063
-556.456	-163.518	0.162	-0.008
-555.442	209.822	0.068	0.108
-554.427	-121.469	0.266	0.045
-553.412	377.028	0.035	0.073
-552.398	-91.708	0.504	0.146
-551.383	17.107	-0.060	-0.048
-550.369	295.737	0.138	0.256
-549.354	-163.665	-0.145	0.007
-548.339	-200.000	0.015	0.096
-547.325	-86.277	-0.316	0.099
-546.310	151.688	-0.136	0.188
-545.296	15.417	-0.060	0.048
-544.281	800.000	-0.071	0.296
-543.266	-200.000	0.008	0.179
-542.252	694.221	-0.099	0.264
-541.237	501.332	0.090	0.210
-540.223	326.013	0.132	0.257
-539.208	28.663	-0.094	-0.081
-538.193	-39.488	0.216	0.115
-537.179	367.976	0.158	-0.324
-536.164	344.909	0.056	0.112
-535.150	-54.715	0.452	-0.207
-534.135	-39.059	0.303	0.162
-533.121	-79.454	0.045	0.015
-532.106	380.038	-0.182	-0.379
-531.091	-54.104	-0.593	-0.274
-530.077	719.417	0.122	-0.329
-529.062	-79.771	-0.234	0.080
-528.048	-52.856	-0.354	-0.166
-527.033	-141.847	-0.180	-0.018
-526.018	-77.886	0.109	0.038
-525.004	-96.110	-0.263	0.071
-523.989	5.088	-0.186	0.139
-522.975	240.881	0.106	-0.180
-521.960	-127.190	0.135	0.020
-520.945	116.449	-0.280	-0.349
-519.931	-32.799	0.155	-0.088
-518.916	-118.558	0.229	0.041
-517.902	-7.925	0.150	-0.103
-516.887	-200.000	-0.016	-0.124
-515.872	-7.282	0.193	0.133
-514.858	514.684	0.090	0.212
-513.843	-200.000	0.102	0.567
-512.829	86.435	-0.045	-0.051
-511.814	-200.000	0.074	-0.366
-510.799	-157.796	-0.247	-0.015
-509.785	-200.000	0.017	0.473
-508.770	-200.000	-0.026	0.320
-507.756	-155.117	0.013	-0.001
-506.741	-200.000	-0.025	-0.218
-505.726	28.504	-0.056	-0.048
-504.712	61.790	0.035	0.036
-503.697	-7.646	0.376	-0.258
-502.683	327.167	-0.085	0.166
-501.668	-57.834	-0.174	0.077
-500.653	84.383	0.128	0.142
-499.639	465.802	0.064	-0.146
-498.624	246.694	-0.151	-0.258
-497.610	-200.000	-0.057	-0.373
-496.595	-200.000	-0.055	0.337
-495.581	445.101	-0.130	-0.291
-494.566	627.180	0.112	-0.287
-493.551	-127.405	0.242	-0.036
-492.537	-115.691	-0.119	0.023
-491.522	-200.000	0.039	-0.227
-490.508	29.012	-0.202	-0.174
-489.493	-58.744	-0.287	-0.126
-488.478	-61.586	0.162	0.069
-487.464	-91.304	-0.359	-0.104
-486.449	-200.000	0.023	-0.213
-485.435	-200.000	0.035	0.197
-484.420	-71.017	0.116	0.044
-483.405	-96.817	0.332	-0.088
-482.391	-9.558	0.135	-0.091
-481.376	-151.523	0.149	-0.011
-480.362	-18.541	0.154	-0.098
-479.347	-75.517	-0.185	0.067
-478.332	-200.000	-0.005	-0.253
-477.318	1.768	0.096	0.070
-476.303	111.911	-0.244	-0.298
-475.289	454.126	-0.039	-0.088
-474.274	340.702	-0.141	-0.280
-473.259	-73.492	0.316	0.117
-472.245	-125.737	0.156	-0.024
-471.230	416.666	-0.118	-0.254
-470.216	-57.710	0.108	0.048
-469.201	344.908	-0.180	-0.358
-468.186	47.542	0.128	0.121
-467.172	-97.752	-0.063	-0.017
-466.157	67.707	0.333	0.345
-465.143	13.727	0.128	0.101
-464.128	-40.418	0.152	-0.080
-463.113	48.065	-0.203	0.192
-462.099	-166.776	-0.174	-0.007
-461.084	-84.736	-0.081	0.026
-460.070	-58.511	0.244	0.107
-459.055	-200.000	-0.016	-0.193
-458.040	16.123	-0.101	0.081
-457.026	-150.255	0.433	0.034
-456.011	-117.568	-0.215	0.039
-454.997	-149.859	-0.259	0.021
-453.982	-200.000	-0.001	0.066
-452.968	-94.056	0.132	0.037
-451.953	11.436	0.107	-0.083
-450.938	-136.223	-0.300	-0.036
-449.924	123.631	0.038	-0.049
-448.909	-162.304	0.060	0.003
-447.895	-83.310	-0.143	0.046
-446.880	43.291	-0.223	-0.206
-445.865	2.709	-0.270	-0.198
-444.851	-90.281	-0.179	0.053
-443.836	-24.670	-0.167	-0.100
-442.822	800.000	0.064	0.280
-441.807	-41.387	0.101	-0.053
-440.792	-68.519	-0.415	0.163
-439.778	-200.000	-0.022	-0.129
-438.763	-139.926	-0.334	-0.036
-437.749	-0.276	0.224	0.161
-436.734	-135.759	-0.378	0.045
-435.719	125.911	-0.220	0.282
-434.705	-44.711	0.160	-0.081
-433.690	8.705	-0.120	0.092
-432.676	-77.468	0.077	-0.027
-431.661	-200.000	0.029	0.211
-430.646	-200.000	0.005	-0.187
-429.632	98.676	-0.011	-0.013
-428.617	-148.056	0.121	0.010
-427.603	-63.977	0.117	-0.049
-426.588	-200.000	0.014	0.092
-425.573	800.000	-0.072	0.201
-424.559	-112.612	-0.150	-0.030
-423.544	325.318	0.085	-0.164
-422.530	41.132	-0.101	0.092
-421.515	-200.000	-0.048	0.227
-420.500	100.991	0.047	0.056
-419.486	800.000	0.003	0.010
-418.471	-72.642	-0.366	-0.137
-417.457	-200.000	0.007	0.273
-416.442	-157.050	0.321	-0.020
-415.428	277.223	0.042	-0.075
-414.413	198.282	0.094	-0.145
-413.398	-200.000	-0.002	-0.334
-412.384	-38.881	-0.210	-0.112
-411.369	800.000	-0.092	-0.375
-410.355	64.378	0.310	-0.316
-409.340	800.000	-0.104	-0.296
-408.325	-200.000	-0.066	0.379
-407.311	-117.426	-0.090	0.016
-406.296	161.733	-0.050	0.070
-405.282	104.036	-0.103	-0.122
-404.267	-17.295	0.265	0.169
-403.252	426.105	0.101	-0.220
-402.238	-64.210	0.293	-0.121
-401.223	-98.042	0.226	0.059
-400.209	-58.577	-0.142	0.062
-399.194	-144.964	-0.161	-0.015
-398.179	-94.822	0.018	-0.005
-397.165	-73.434	0.032	0.012
-396.150	-89.557	0.235	0.070
-395.136	-9.619	0.157	-0.106
-394.121	800.000	0.116	-0.375
-393.106	-50.706	-0.094	0.045
-392.092	-41.660	-0.159	-0.082
-391.077	800.000	0.047	-0.201
-390.063	18.262	0.270	0.218
-389.048	-200.000	-0.018	0.094
-388.033	-200.000	-0.114	-0.593
-387.019	-200.000	0.019	-0.186
-386.004	-58.514	0.214	-0.094
-384.990	-155.607	-0.018	0.001
-383.975	-24.038	-0.372	-0.225
-382.960	5.272	0.154	0.115
-381.946	16.544	0.061	0.049
-380.931	-108.597	0.180	-0.039
-379.917	-69.324	-0.121	0.047
-378.902	800.000	-0.037	-0.129
-377.888	-149.053	-0.213	0.017
-376.873	800.000	0.026	-0.096
-375.858	7.447	0.110	-0.083
-374.844	140.622	0.189	-0.253
-373.829	-29.006	0.111	0.065
-372.815	26.896	0.243	-0.206
-371.800	-123.887	0.173	-0.028
-370.785	-35.242	-0.064	-0.035
-369.771	800.000	-0.064	0.234
-368.756	597.954	0.026	-0.066
-367.742	-200.000	0.015	-0.149
-366.727	-106.777	-0.091	-0.020
-365.712	-200.000	0.026	0.148
-364.698	-200.000	-0.067	0.000
-363.683	-185.148	-0.515	-0.008
-362.669	-68.255	0.202	0.079
-361.654	-200.000	0.026	-0.190
-360.639	43.318	0.063	-0.058
-359.625	-200.000	-0.036	0.315
-358.610	800.000	-0.020	-0.084
-357.596	-61.400	-0.223	0.095
-356.581	-200.000	-0.006	0.103
-355.566	800.000	0.051	-0.194
-354.552	-67.681	-0.045	-0.018
-353.537	222.047	-0.153	-0.248
-352.523	85.045	-0.140	0.155
-351.508	-5.280	0.131	0.091
-350.493	-136.704	-0.389	-0.045
-349.479	-194.288	-0.478	0.004
-348.464	-103.846	0.172	0.040
-347.450	-135.448	-0.060	0.007
-346.435	-200.000	-0.190	-0.000
-345.420	-110.899	0.276	-0.057
-344.406	-43.312	-0.088	0.045
-343.391	-200.000	0.001	-0.031
-342.377	-114.445	-0.214	-0.042
-341.362	398.569	-0.087	0.183
-340.348	121.569	-0.099	0.125
-339.333	28.509	0.041	-0.035
-338.318	95.385	-0.165	-0.190
-337.304	-23.048	-0.180	-0.109
-336.289	-102.584	-0.222	-0.053
-335.275	-2.600	0.087	0.061
-334.260	-93.416	0.283	-0.079
-333.245	-200.000	0.003	-0.081
-332.231	-200.000	0.019	0.353
-331.216	-200.000	0.017	-0.282
-330.202	-17.049	0.285	0.181
-329.187	-192.371	-0.339	-0.003
-328.172	800.000	-0.095	0.306
-327.158	736.819	-0.072	-0.194
-326.143	563.563	0.066	-0.161
-325.129	80.937	-0.094	0.103
-324.114	54.393	0.178	0.173
-323.099	113.003	0.201	0.246
-322.085	56.245	0.136	0.133
-321.070	458.684	0.061	-0.137
-320.056	8.689	0.308	0.234
-319.041	-200.000	0.009	0.282
-318.026	121.713	-0.090	0.113
-317.012	-106.335	0.280	0.063
-315.997	-120.868	-0.233	-0.039
-314.983	107.851	-0.128	-0.154
-313.968	99.665	0.162	-0.188
-312.953	-200.000	0.092	0.492
-311.939	-91.838	0.035	0.010
-310.924	-200.000	0.062	0.415
-309.910	379.487	0.066	0.137
-308.895	-21.233	0.272	-0.167
-307.880	223.189	0.081	0.132
-306.866	-78.563	0.097	0.033
-305.851	202.725	-0.103	0.160
-304.837	-2.297	0.288	0.204
-303.822	-200.000	-0.000	-0.003
-302.807	-26.930	0.191	0.112
-301.793	449.995	0.138	0.307
-300.778	-200.000	0.001	0.022
-299.764	92.284	-0.185	-0.210
-298.749	-43.980	0.113	-0.057
-297.735	800.000	0.050	0.181
-296.720	-71.309	-0.058	0.022
-295.705	22.702	0.342	-0.282
-294.691	-200.000	0.004	-0.032
-293.676	-172.086	0.315	-0.010
-292.662	-85.881	-0.182	-0.057
-291.647	12.931	0.098	0.076
-290.632	-123.829	0.201	0.032
-289.618	13.371	0.139	0.109
-288.603	61.751	0.320	0.321
-287.589	334.561	0.183	0.358
-286.574	-70.369	-0.246	-0.094
-285.559	366.830	0.071	-0.145
-284.545	800.000	0.026	0.078
-283.530	111.716	-0.137	-0.167
-282.516	800.000	0.090	-0.284
-281.501	138.344	-0.233	0.308
-280.486	55.234	0.237	0.231
-279.472	367.142	0.056	-0.114
-278.457	-188.133	-0.085	0.001
-277.443	57.108	0.189	0.186
-276.428	-58.340	-0.094	-0.041
-275.413	19.398	-0.350	-0.283
-274.399	95.420	-0.083	-0.095
-273.384	-166.507	-0.285	0.012
-272.370	-53.093	0.213	-0.098
-271.355	-55.981	-0.119	0.054
-270.340	118.058	0.139	-0.172
-269.326	70.824	-0.114	-0.118
-268.311	-117.954	0.146	-0.026
-267.297	23.006	0.299	-0.246
-266.282	-64.834	-0.113	0.046
-265.267	-145.022	-0.173	-0.016
-264.253	-60.773	-0.210	-0.090
-263.238	132.696	-0.119	0.155
-262.224	-200.000	-0.048	0.306
-261.209	-64.261	0.073	-0.030
-260.195	312.726	-0.102	0.193
-259.180	-1.986	-0.110	0.077
-258.165	-114.156	-0.093	0.018
-257.151	-200.000	0.000	0.056
-256.136	-45.651	-0.273	-0.136
-255.122	-200.000	0.022	0.158
-254.107	11.471	0.182	-0.140
-253.092	-153.509	-0.305	-0.021
-252.078	399.484	0.181	-0.380
-251.063	-38.429	-0.200	0.106
-250.049	-88.666	-0.024	-0.007
-249.034	279.446	-0.044	0.079
-248.019	-97.832	-0.345	-0.090
-247.005	800.000	0.035	-0.121
-245.990	-1.733	0.340	-0.241
-244.976	-46.054	0.268	-0.132
-243.961	94.343	-0.121	-0.138
-242.946	51.276	0.137	-0.131
-241.932	134.152	0.018	0.024
-240.917	-200.000	0.009	0.156
-239.903	-100.206	-0.376	-0.094
-238.888	-153.953	-0.048	-0.003
-237.873	-36.152	0.257	0.140
-236.859	630.436	0.080	0.204
-235.844	213.702	-0.123	-0.196
-234.830	-86.967	-0.175	0.054
-233.815	174.485	-0.063	0.091
-232.800	-137.594	-0.211	0.024
-231.786	10.019	0.079	0.060
-230.771	-200.000	-0.055	-0.385
-229.757	168.969	0.186	0.266
-228.742	-89.980	-0.318	0.093
-227.727	-132.672	0.037	-0.005
-226.713	147.136	0.055	0.075
-225.698	-68.229	-0.261	0.102
-224.684	-200.000	0.016	0.154
-223.669	75.784	-0.237	-0.251
-222.655	-82.001	-0.139	0.046
-221.640	268.481	-0.073	-0.129
-220.625	-70.161	-0.318	0.121
-219.611	800.000	0.017	-0.061
-218.596	-102.777	0.130	0.031
-217.582	-5.220	-0.131	0.090
-216.567	-98.489	-0.307	0.079
-215.552	-200.000	-0.061	0.538
-214.538	800.000	0.062	0.245
-213.523	-155.574	0.272	-0.018
-212.509	-97.392	0.406	0.106
-211.494	800.000	-0.072	0.312
-210.479	-154.234	-0.110	-0.007
-209.465	48.144	-0.206	-0.193
-208.450	-179.951	-0.327	-0.007
-207.436	-35.858	-0.140	0.076
-206.421	323.302	0.076	0.145
-205.406	87.064	0.155	0.172
-204.392	-113.726	0.378	-0.074
-203.377	-200.000	-0.141	0.000
-202.363	-200.000	-0.011	0.052
-201.348	42.055	0.239	0.218
-200.333	94.646	0.187	0.213
-199.319	152.940	-0.180	0.246
-198.304	-118.761	-0.185	0.033
-197.290	137.592	-0.140	-0.184
-196.275	-129.680	-0.048	-0.007
-195.260	10.681	-0.175	-0.134
-194.246	156.140	0.079	-0.110
-193.231	-94.771	-0.188	-0.051
-192.217	105.907	-0.157	-0.187
-191.202	19.773	0.186	0.150
-190.187	-11.051	-0.286	0.189
-189.173	-200.000	-0.001	-0.068
-188.158	-200.000	-0.005	-0.031
-187.144	36.422	0.178	0.157
-186.129	413.942	-0.065	0.139
-185.114	-141.750	0.165	-0.017
-184.100	99.828	0.303	0.352
-183.085	800.000	0.034	0.099
-182.071	-3.355	0.085	-0.060
-181.056	-57.004	-0.323	-0.143
-180.042	-49.226	0.118	-0.057
-179.027	-200.000	-0.002	0.075
-178.012	-200.000	0.023	-0.403
-176.998	96.036	-0.195	0.224
-175.983	-52.863	-0.108	-0.050
-174.969	-154.193	0.183	-0.012
-173.954	-200.000	0.053	-0.324
-172.939	-147.759	0.199	0.017
-171.925	21.500	-0.033	0.027
-170.910	800.000	-0.038	0.163
-169.896	800.000	-0.011	-0.046
-168.881	-47.256	-0.007	0.003
-167.866	265.204	0.194	-0.338
-166.852	-200.000	-0.014	-0.290
-165.837	17.822	-0.247	-0.197
-164.823	-11.079	0.149	-0.098
-163.808	-200.000	0.035	-0.183
-162.793	-200.000	-0.028	-0.239
-161.779	55.183	-0.078	0.075
-160.764	800.000	0.074	-0.215
-159.750	-54.650	-0.397	-0.180
-158.735	-64.664	0.152	0.062
-157.720	-15.068	0.180	0.115
-156.706	-145.125	0.405	-0.037
-155.691	-139.068	-0.245	-0.027
-154.677	-126.205	0.120	-0.018
-153.662	-200.000	0.039	-0.298
-152.647	-74.998	-0.091	-0.033
-151.633	60.611	0.061	0.060
-150.618	-178.061	0.316	-0.008
-149.604	105.100	0.059	0.069
-148.589	-200.000	0.033	0.217
-147.574	129.442	-0.024	0.030
-146.560	-200.000	0.012	-0.263
-145.545	-132.140	-0.212	0.028
-144.531	-168.490	0.152	0.006
-143.516	4.994	0.110	0.081
-142.502	800.000	0.089	0.339
-141.487	565.264	0.070	0.171
-140.472	14.024	-0.597	-0.465
-139.458	-151.605	-0.173	-0.013
-138.443	-100.026	-0.276	-0.069
-137.429	-108.138	-0.127	-0.027
-136.414	-22.650	0.157	0.095
-135.399	40.442	0.041	0.037
-134.385	-200.000	0.000	-0.226
-133.370	131.981	-0.108	-0.139
-132.356	-98.683	-0.409	0.104
-131.341	119.745	0.104	0.129
-130.326	38.452	0.200	-0.178
-129.312	-57.931	0.316	0.138
-128.297	-200.000	0.012	0.134
-127.283	197.477	0.058	0.089
-126.268	218.838	0.095	0.151
-125.253	-186.429	0.133	0.002
-124.239	-200.000	0.019	-0.256
-123.224	-52.819	0.216	0.100
-122.210	800.000	-0.061	0.213
-121.195	-117.492	-0.374	-0.067
-120.180	-48.948	-0.352	0.169
-119.166	-200.000	0.017	-0.193
-118.151	165.256	0.222	0.313
-117.137	623.159	-0.101	-0.255
-116.122	-15.412	-0.230	-0.147
-115.107	800.000	-0.073	-0.204
-114.093	-97.349	-0.081	0.021
-113.078	-176.450	0.471	-0.012
-112.064	-77.274	0.110	-0.038
-111.049	16.523	0.368	-0.290
-110.034	-200.000	-0.012	-0.275
-109.020	13.178	-0.084	-0.065
-108.005	-108.671	-0.340	0.073
-106.991	29.116	-0.126	-0.107
-105.976	-70.629	0.109	-0.041
-104.962	137.056	0.053	-0.070
-103.947	38.245	-0.258	0.230
-102.932	-72.307	-0.137	0.051
-101.918	277.937	0.144	-0.256
-100.903	93.910	-0.201	0.227
-99.889	-59.591	0.208	0.089
-98.874	-200.000	-0.041	-0.258
-97.859	-1.496	0.303	-0.213
-96.845	800.000	0.095	0.330
-95.830	223.012	-0.090	-0.145
-94.816	800.000	0.050	-0.175
-93.801	800.000	-0.053	-0.193
-92.786	-200.000	-0.060	-0.285
-91.772	152.628	0.234	-0.319
-90.757	-200.000	0.021	0.328
-89.743	586.964	-0.128	0.314
-88.728	370.564	-0.193	-0.391
-87.713	-39.088	-0.185	-0.097
-86.699	-110.846	0.508	-0.104
-85.684	-167.031	0.201	0.008
-84.670	-200.000	-0.015	-0.181
-83.655	-114.550	-0.085	-0.016
-82.640	-171.251	-0.282	0.009
-81.626	-152.605	-0.278	-0.020
-80.611	496.931	-0.043	-0.098
-79.597	9.665	-0.081	0.061
-78.582	206.435	0.215	0.333
-77.567	160.479	-0.114	-0.158
-76.553	800.000	0.031	-0.132
-75.538	0.239	0.193	0.137
-74.524	329.203	-0.057	-0.109
-73.509	-4.634	-0.229	-0.158
-72.494	-57.475	0.307	0.134
-71.480	800.000	0.094	-0.299
-70.465	263.083	-0.033	0.057
-69.451	-18.678	0.124	-0.077
-68.436	-68.990	-0.339	0.130
-67.422	-200.000	-0.000	-0.224
-66.407	-200.000	-0.028	0.171
-65.392	-200.000	-0.027	-0.267
-64.378	-140.136	0.109	-0.011
-63.363	63.196	-0.038	-0.038
-62.349	800.000	-0.181	0.506
-61.334	-36.800	-0.766	-0.410
-60.319	263.933	0.276	0.479
-59.305	-200.000	-0.111	-0.488
-58.290	274.012	0.397	0.701
-57.276	786.632	0.596	1.631
-56.261	-200.000	75.623	532.147
-55.246	559.429	1307.965	3148.541
-54.232	146.600	2535.149	3395.679
-53.217	121.933	2231.852	2776.624
-52.203	54.274	1750.990	1680.360
-51.188	46.319	1546.166	1428.787
-50.173	43.381	1516.459	1381.225
-49.159	60.337	1552.735	1531.547
-48.144	66.921	1572.457	1596.266
-47.130	46.749	1535.759	1421.910
-46.115	42.971	1521.366	1382.659
-45.100	42.866	1517.920	1378.748
-44.086	42.740	1516.312	1376.373
-43.071	42.648	1514.269	1373.838
-42.057	42.558	1512.443	1371.511
-41.042	42.666	1510.691	1370.605
-40.027	42.614	1509.362	1368.988
-39.013	42.728	1507.501	1368.022
-37.998	42.583	1506.826	1366.368
-36.984	42.576	1505.491	1365.060
-35.969	42.777	1503.937	1364.958
-34.954	42.647	1502.832	1363.022
-33.940	42.710	1501.044	1361.773
-32.925	42.601	1499.873	1359.920
-31.911	42.648	1498.399	1358.845
-30.896	42.723	1496.929	1357.963
-29.881	42.781	1495.366	1356.883
-28.867	42.722	1494.443	1355.597
-27.852	42.733	1493.198	1354.483
-26.838	42.716	1491.419	1352.704
-25.823	42.763	1489.796	1351.496
-24.809	42.743	1487.784	1349.482
-23.794	42.645	1486.568	1347.666
-22.779	42.784	1485.186	1347.294
-21.765	42.709	1484.165	1345.809
-20.750	42.828	1482.935	1345.436
-19.736	42.657	1482.167	1343.541
-18.721	42.711	1480.796	1342.611
-17.706	42.694	1480.054	1341.772
-16.692	42.601	1479.019	1340.156
-15.677	42.656	1477.636	1339.218
-14.663	42.569	1476.937	1337.954
-13.648	42.697	1475.635	1337.569
-12.633	42.658	1474.360	1336.099
-11.619	42.711	1473.776	1335.875
-10.604	42.588	1473.539	1334.787
-9.590	42.605	1472.403	1333.821
-8.575	42.599	1471.783	1333.166
-7.560	42.649	1470.873	1332.621
-6.546	42.606	1469.938	1331.432
-5.531	42.673	1469.072	1331.039
-4.517	42.553	1468.677	1329.833
-3.502	42.596	1466.971	1328.522
-2.487	42.643	1465.741	1327.666
-1.473	42.670	1464.766	1326.909
-0.458	42.685	1463.377	1325.698
0.556	41.960	1453.281	1312.607
1.571	38.118	1425.581	1262.689
2.586	33.392	1362.523	1177.432
3.600	31.006	1279.059	1091.262
4.615	29.251	1231.138	1040.387
5.629	24.262	1174.045	965.116
6.644	12.320	1082.938	830.136
7.659	2.974	1035.939	748.665
8.673	1.417	1030.155	736.872
9.688	1.251	1027.126	733.841
10.702	1.195	1025.357	732.242
11.717	1.117	1024.030	730.851
12.731	4.914	1028.834	752.578
13.746	15.608	1043.461	815.354
14.761	22.902	1052.715	858.086
15.775	23.956	1052.817	863.212
16.790	24.034	1052.370	863.147
17.804	24.019	1051.533	862.312
18.819	23.674	1050.994	860.120
19.834	23.786	1050.292	860.014
20.848	23.867	1049.684	859.831
21.863	23.804	1049.691	859.458
22.877	23.756	1049.563	859.042
23.892	23.859	1048.448	858.551
24.907	23.678	1047.797	857.069
25.921	23.758	1046.834	856.593
26.936	23.743	1046.642	856.286
27.950	23.842	1045.000	855.343
28.965	23.724	1044.055	853.925
29.980	23.611	1042.522	852.055
30.994	23.620	1041.459	851.154
32.009	23.743	1040.550	850.924
33.023	23.833	1039.775	850.646
34.038	23.641	1038.510	848.621
35.053	23.603	1038.038	847.975
36.067	23.810	1037.368	848.341
37.082	23.812	1036.371	847.461
38.096	23.879	1035.989	847.394
39.111	24.028	1035.185	847.372
40.126	24.145	1034.385	847.200
41.140	24.074	1032.859	845.533
42.155	23.726	1031.820	842.960
43.169	23.296	1030.715	839.943
44.184	23.437	1029.445	839.503
45.199	23.523	1028.649	839.183
46.213	23.434	1027.801	838.000
47.228	23.417	1027.002	837.194
48.242	23.643	1025.992	837.361
49.257	23.634	1025.734	837.034
50.271	23.746	1024.829	836.750
51.286	23.694	1024.510	836.171
52.301	23.811	1023.497	835.820
53.315	23.797	1023.007	835.280
54.330	23.878	1022.353	835.052
55.344	23.865	1021.232	834.004
56.359	23.821	1020.447	833.079
57.374	23.787	1019.567	832.129
58.388	23.644	1018.584	830.585
59.403	23.601	1017.965	829.805
60.417	23.615	1017.455	829.383
61.432	23.437	1016.474	827.676
62.447	23.417	1015.801	826.960
63.461	23.642	1015.278	827.514
64.476	23.698	1014.006	826.663
65.490	23.587	1013.575	825.724
66.505	23.446	1012.587	824.191
67.520	23.499	1011.735	823.668
68.534	23.708	1010.718	823.738
69.549	23.397	1010.191	821.793
70.563	23.133	1009.025	819.550
71.578	23.020	1008.237	818.312
72.593	23.148	1007.332	818.100
73.607	22.867	1006.095	815.722
74.622	22.926	1005.186	815.187
75.636	23.239	1004.667	816.135
76.651	23.382	1003.931	816.125
77.666	23.398	1002.833	815.235
78.680	23.060	1002.390	813.246
79.695	23.197	1002.008	813.498
80.709	23.454	1001.030	813.807
81.724	23.413	1000.838	813.395
82.739	23.376	999.774	812.288
83.753	23.332	999.082	811.453
84.768	23.595	998.578	812.174
85.782	24.086	997.685	813.622
86.797	24.179	997.105	813.501
87.812	24.033	996.336	812.134
88.826	23.916	995.307	810.690
89.841	23.923	994.390	809.906
90.855	24.071	993.383	809.686
91.870	24.072	993.062	809.354
92.884	24.085	991.969	808.453
93.899	24.007	991.081	807.305
94.914	23.847	990.396	805.949
95.928	23.927	989.259	805.316
96.943	23.970	988.522	804.838
97.957	23.684	987.356	802.523
98.972	23.484	986.911	801.189
99.987	23.289	985.557	799.140
101.001	23.390	984.957	799.037
102.016	23.647	984.538	799.785
103.030	23.845	983.522	799.779
104.045	23.684	982.763	798.369
105.060	23.629	981.731	797.212
106.074	23.388	980.315	794.909
107.089	23.490	979.128	794.337
108.103	23.673	979.396	795.302
109.118	23.777	978.629	795.073
110.133	23.659	977.049	793.194
111.147	23.496	976.023	791.563
112.162	23.445	975.286	790.665
113.176	23.327	973.832	788.893
114.191	23.306	973.494	788.457
115.206	23.462	972.399	788.194
116.220	23.223	971.521	786.350
117.235	23.017	970.425	784.477
118.249	23.197	969.644	784.576
119.264	23.231	969.051	784.177
120.279	23.055	968.073	782.539
121.293	23.055	967.276	781.825
122.308	23.148	966.774	781.759
123.322	23.133	966.010	781.009
124.337	23.140	965.122	780.250
125.352	23.071	963.512	778.578
126.366	22.749	961.982	775.856
127.381	22.420	960.607	773.231
128.395	22.936	960.098	775.020
129.410	23.363	960.335	777.017
130.424	23.886	959.384	778.467
131.439	23.641	958.840	776.886
132.454	23.692	957.328	775.815
133.468	23.766	956.627	775.503
134.483	23.706	955.761	774.468
135.497	23.802	955.180	774.347
136.512	23.831	954.971	774.238
137.527	24.027	953.980	774.215
138.541	23.985	953.586	773.647
139.556	23.879	953.114	772.733
140.570	24.005	951.965	772.279
141.585	23.970	951.156	771.405
142.600	24.038	950.724	771.282
143.614	23.848	949.849	769.679
144.629	24.030	949.078	769.775
145.643	24.294	948.368	770.270
146.658	24.170	947.141	768.673
147.673	24.038	946.079	767.171
148.687	23.889	945.088	765.658
149.702	23.872	943.709	764.400
150.716	23.730	942.796	762.983
151.731	23.729	941.590	761.936
152.746	23.686	941.125	761.311
153.760	23.844	940.820	761.673
154.775	24.079	940.045	761.983
155.789	24.063	938.943	760.954
156.804	24.021	938.053	759.984
157.819	23.980	936.992	758.883
158.833	24.018	936.388	758.491
159.848	24.130	935.629	758.283
160.862	24.234	935.226	758.335
161.877	24.029	933.859	756.288
162.892	23.998	932.829	755.253
163.906	24.060	932.127	754.881
164.921	24.034	931.635	754.306
165.935	24.032	930.416	753.246
166.950	24.005	929.255	752.122
167.964	24.046	928.187	751.365
168.979	24.001	927.520	750.570
169.994	23.938	926.275	749.232
171.008	23.837	925.356	747.995
172.023	23.984	924.467	747.827
173.037	23.972	924.696	747.896
174.052	23.958	923.200	746.564
175.067	23.960	921.536	745.158
176.081	23.629	921.457	743.642
177.096	23.812	920.397	743.488
178.110	23.802	919.808	742.902
179.125	23.651	918.858	741.440
180.140	23.495	917.601	739.708
181.154	23.506	916.418	738.737
182.169	23.592	916.680	739.240
183.183	23.713	916.339	739.403
184.198	24.067	915.897	740.454
185.213	24.118	915.145	739.994
186.227	23.973	914.340	738.674
187.242	24.013	913.834	738.367
188.256	24.125	912.947	738.047
189.271	24.079	912.218	737.204
190.286	24.251	911.606	737.357
191.300	24.100	911.130	736.279
192.315	23.496	909.324	732.265
193.329	22.744	907.893	727.947
194.344	22.337	906.848	725.363
195.359	22.857	907.477	727.948
196.373	23.755	907.543	731.636
197.388	24.041	907.005	732.314
198.402	23.896	906.367	731.141
199.417	23.888	905.930	730.687
200.432	23.935	905.679	730.617
201.446	23.916	904.532	729.548
202.461	23.503	904.173	727.500
203.475	23.696	903.386	727.592
204.490	23.145	902.055	724.201
205.504	22.085	899.911	718.084
206.519	22.424	899.568	719.132
207.534	23.246	900.497	723.172
208.548	23.455	899.872	723.457
209.563	23.833	899.558	724.683
210.577	23.980	898.695	724.524
211.592	23.636	897.911	722.428
212.607	23.976	897.954	723.782
213.621	24.146	897.263	723.851
214.636	23.978	897.013	722.903
215.650	23.997	896.512	722.513
216.665	23.957	895.966	721.846
217.680	24.029	895.482	721.686
218.694	24.155	894.792	721.573
219.709	23.899	894.107	719.923
220.723	23.598	892.704	717.514
221.738	23.647	892.785	717.711
222.753	23.928	891.704	717.914
223.767	23.769	891.339	716.915
224.782	23.955	890.718	717.102
225.796	24.212	889.842	717.369
226.811	24.377	889.176	717.430
227.826	23.869	888.185	714.526
228.840	23.011	886.600	709.746
229.855	22.905	886.218	708.950
230.869	23.260	885.931	710.082
231.884	22.837	884.967	707.550
232.899	22.902	884.465	707.350
233.913	23.623	885.064	710.654
234.928	23.883	884.418	711.113
235.942	23.795	883.465	709.930
236.957	23.771	882.876	709.300
237.972	23.561	881.719	707.467
238.986	23.666	880.777	707.070
240.001	23.707	880.868	707.243
241.015	23.605	880.548	706.518
242.030	23.683	879.641	706.036
243.045	23.834	879.536	706.490
244.059	23.820	878.742	705.735
245.074	24.068	878.038	706.090
246.088	24.072	877.388	705.522
247.103	23.741	876.239	703.224
248.117	23.728	875.719	702.692
249.132	24.188	876.159	704.805
250.147	24.637	875.890	706.300
251.161	24.663	875.022	705.643
252.176	24.764	874.810	705.806
253.190	24.765	874.515	705.511
254.205	24.809	873.517	704.815
255.220	24.958	873.352	705.208
256.234	24.974	872.949	704.884
257.249	24.906	872.079	703.852
258.263	24.913	870.985	702.931
259.278	24.722	870.934	702.080
260.293	24.773	870.711	702.036
261.307	24.982	869.697	701.977
262.322	24.752	869.345	700.729
263.336	24.608	868.380	699.326
264.351	24.188	867.030	696.535
265.366	23.098	865.108	690.677
266.380	22.588	864.199	687.900
267.395	23.570	864.537	691.939
268.409	24.428	864.515	695.202
269.424	24.296	864.108	694.301
270.439	24.247	863.814	693.814
271.453	24.546	862.886	694.169
272.468	24.630	862.156	693.847
273.482	24.717	861.974	693.977
274.497	24.849	861.652	694.168
275.512	24.795	860.155	692.689
276.526	24.235	858.840	689.405
277.541	24.252	858.827	689.399
278.555	24.621	858.677	690.645
279.570	24.477	857.843	689.355
280.585	24.166	857.248	687.618
281.599	24.428	856.423	687.905
282.614	24.637	856.227	688.491
283.628	24.028	855.316	685.356
284.643	23.831	854.349	683.761
285.657	24.252	853.813	684.888
286.672	24.106	853.477	683.998
287.687	23.510	852.612	680.958
288.701	23.868	852.330	682.043
289.716	24.326	852.204	683.640
290.730	24.037	851.265	681.719
291.745	23.773	850.768	680.250
292.760	23.729	849.685	679.157
293.774	23.634	848.897	678.106
294.789	24.373	849.894	681.665
295.803	24.997	849.851	683.952
296.818	25.089	849.241	683.752
297.833	25.307	848.731	684.113
298.847	24.914	847.525	681.586
299.862	24.631	846.703	679.787
300.876	24.857	846.347	680.299
301.891	25.102	846.262	681.101
302.906	25.139	845.537	680.599
303.920	24.829	844.010	678.135
304.935	24.708	843.276	677.028
305.949	25.028	843.587	678.429
306.964	25.186	843.086	678.565
307.979	24.939	842.230	676.882
308.993	24.887	841.790	676.270
310.008	25.122	841.442	676.817
311.022	25.199	841.386	677.005
312.037	25.110	840.668	676.031
313.052	24.993	839.890	674.904
314.066	24.913	839.175	673.969
315.081	24.140	838.084	670.125
316.095	23.510	836.291	666.266
317.110	23.757	836.849	667.583
318.125	24.800	836.791	671.394
319.139	24.435	835.930	669.275
320.154	23.475	833.979	664.061
321.168	22.821	832.815	660.626
322.183	23.322	833.302	662.832
323.197	24.434	833.707	667.254
324.212	24.490	833.715	667.413
325.227	24.599	833.320	667.445
326.241	24.845	833.117	668.140
327.256	24.833	832.090	667.211
328.270	24.824	831.315	666.500
329.285	24.603	830.609	665.052
330.300	24.607	829.704	664.284
331.314	24.191	829.436	662.463
332.329	24.323	828.761	662.356
333.343	24.775	828.078	663.426
334.358	24.892	828.358	664.026
335.373	24.958	827.149	663.245
336.387	24.942	827.031	663.031
337.402	25.242	826.591	663.732
338.416	25.518	826.226	664.398
339.431	25.287	826.219	663.481
340.446	25.398	825.124	662.953
341.460	25.679	824.807	663.674
342.475	25.590	824.296	662.875
343.489	25.376	823.125	661.090
344.504	25.278	822.668	660.302
345.519	25.727	822.091	661.431
346.533	25.820	822.167	661.775
347.548	25.864	821.793	661.577
348.562	25.875	821.337	661.192
349.577	25.772	820.696	660.240
350.592	25.699	820.181	659.501
351.606	25.715	819.569	659.007
352.621	25.757	819.281	658.872
353.635	25.765	818.729	658.399
354.650	25.485	818.349	657.011
355.665	25.303	817.337	655.479
356.679	24.298	815.306	650.128
357.694	24.037	814.867	648.767
358.708	24.660	815.088	651.157
359.723	24.621	814.394	650.405
360.738	25.038	813.794	651.382
361.752	25.417	814.088	652.939
362.767	25.439	813.750	652.691
363.781	25.750	813.608	653.647
364.796	25.865	813.452	653.883
365.810	25.906	813.167	653.744
366.825	26.259	812.567	654.483
367.840	26.195	812.378	654.039
368.854	25.928	811.696	652.465
369.869	25.568	810.763	650.358
370.883	25.411	809.876	649.022
371.898	25.492	809.600	649.034
372.913	25.586	808.650	648.554
373.927	25.438	808.247	647.641
374.942	25.565	807.824	647.701
375.956	25.773	807.083	647.798
376.971	25.831	806.840	647.755
377.986	25.961	806.392	647.808
379.000	25.977	805.840	647.364
380.015	26.122	805.481	647.537
381.029	25.881	805.024	646.247
382.044	26.065	803.990	646.018
383.059	26.107	803.556	645.765
384.073	26.195	803.208	645.744
385.088	26.089	802.777	644.959
386.102	26.083	802.273	644.475
387.117	25.951	801.612	643.417
388.132	25.738	801.101	642.192
389.146	25.631	800.495	641.265
390.161	25.121	799.317	638.451
391.175	25.185	799.161	638.499
392.190	25.627	799.546	640.323
393.205	25.702	799.054	640.136
394.219	24.916	796.857	635.533
395.234	23.256	794.748	627.911
396.248	22.494	793.427	624.114
397.263	23.500	794.452	628.433
398.278	25.166	795.735	635.299
399.292	25.730	795.279	636.875
400.307	25.582	794.692	635.826
401.321	25.347	794.498	634.782
402.336	25.395	794.208	634.666
403.350	25.806	793.993	635.886
404.365	26.153	793.892	636.977
405.380	26.462	793.755	637.898
406.394	26.697	793.480	638.449
407.409	26.917	792.984	638.767
408.423	26.811	792.620	638.045
409.438	26.605	792.308	637.015
410.453	26.673	791.934	636.897
411.467	26.754	792.003	637.180
412.482	26.603	791.123	635.886
413.496	26.745	790.054	635.466
414.511	26.864	790.106	635.870
415.526	26.968	789.359	635.576
416.540	26.919	789.140	635.171
417.555	26.726	788.816	634.179
418.569	26.439	788.149	632.583
419.584	26.458	787.610	632.162
420.599	26.418	786.930	631.420
421.613	91.061	1251.807	1347.609
422.628	77.535	1319.573	1347.719
