DTS Sentinel unit serial number:	SN413079Multiplexer serial number:	ORYXHardware model number:	OX4-SRSoftware version number:	ORYX F/W v4.00 Oryx Data Collector v3.7.2.0data status	okinstallation	princeton_trtdifferential loss correction	single-endedforward channel	channel 3reverse channel	N/Adate	2019/09/15time	18:40:35forward acquisition time	60.00reverse acquisition time	0.00gamma	496.2192k internal	0.2287k external	0.2287temperature offset calibration	0.9931default loss term (dB/km)	0.3790temperature slope calibration	1.0000multiplexer offset coefficient	1.0000multiplexer slope coefficient	1.0000fibre end	0.00T internal ref (°C)	43.67T ext. ref 1 (°C)	6.84T ext. ref 2 (°C)	36.93length (m)	temperature (°C)	Stokes	anti-Stokes-747.200	-99.090	0.213	-0.055
-746.185	-92.582	-0.269	0.078
-745.171	142.214	-0.195	0.265
-744.156	259.620	0.065	0.115
-743.142	-169.197	-0.311	0.012
-742.127	800.000	0.137	0.420
-741.112	342.867	-0.070	0.140
-740.098	-200.000	0.089	0.445
-739.083	-115.120	0.275	0.053
-738.069	-200.000	-0.012	0.531
-737.054	-4.349	-0.111	-0.079
-736.039	-137.799	-0.356	0.041
-735.025	225.274	-0.120	0.199
-734.010	98.529	-0.309	0.366
-732.996	-200.000	-0.011	-0.160
-731.981	-200.000	-0.018	0.119
-730.966	281.766	0.093	0.172
-729.952	-55.780	-0.267	0.123
-728.937	217.230	-0.156	0.255
-727.923	-200.000	0.023	0.128
-726.908	-58.472	0.112	0.050
-725.894	-196.328	0.193	0.001
-724.879	800.000	0.039	0.138
-723.864	2.363	-0.105	-0.078
-722.850	214.013	0.074	-0.121
-721.835	-200.000	-0.004	-0.324
-720.821	391.737	0.097	-0.206
-719.806	-71.122	-0.088	0.034
-718.791	-14.985	0.194	-0.128
-717.777	-31.897	0.024	0.014
-716.762	788.945	0.024	0.067
-715.748	-200.000	-0.030	0.172
-714.733	800.000	0.094	0.306
-713.718	-200.000	-0.025	-0.229
-712.704	-52.693	-0.244	0.115
-711.689	-174.885	0.097	-0.003
-710.675	800.000	-0.033	-0.132
-709.660	78.901	-0.179	0.196
-708.645	457.814	0.074	-0.169
-707.631	248.363	-0.108	-0.187
-706.616	564.869	-0.056	0.139
-705.602	-132.623	0.052	-0.007
-704.587	512.094	-0.096	-0.230
-703.572	-200.000	-0.005	0.091
-702.558	800.000	-0.048	0.197
-701.543	45.518	0.276	-0.261
-700.529	800.000	0.027	-0.101
-699.514	245.574	0.106	-0.183
-698.499	-51.748	0.121	-0.058
-697.485	-83.826	0.391	0.128
-696.470	-200.000	-0.004	0.117
-695.456	-200.000	0.012	0.108
-694.441	-30.942	-0.140	0.081
-693.426	-200.000	-0.037	0.221
-692.412	190.893	-0.039	-0.061
-691.397	416.318	0.145	0.317
-690.383	399.186	0.098	-0.210
-689.368	-200.000	0.024	-0.176
-688.354	-102.416	-0.267	-0.065
-687.339	87.382	-0.126	-0.143
-686.324	-200.000	-0.017	-0.429
-685.310	-97.155	-0.290	-0.078
-684.295	-200.000	0.018	-0.274
-683.281	116.019	-0.209	0.262
-682.266	-120.862	0.245	-0.042
-681.251	-76.710	-0.218	-0.078
-680.237	800.000	-0.024	-0.070
-679.222	194.625	0.178	0.277
-678.208	47.201	-0.054	0.051
-677.193	-200.000	0.019	-0.253
-676.178	-27.905	-0.036	-0.021
-675.164	322.337	0.046	-0.090
-674.149	-93.509	-0.138	0.039
-673.135	4.867	0.306	0.230
-672.120	1.700	-0.301	-0.222
-671.105	-200.000	0.037	0.240
-670.091	72.914	0.098	-0.105
-669.076	149.529	0.167	-0.231
-668.062	-200.000	-0.029	-0.187
-667.047	-128.645	-0.296	-0.043
-666.032	30.062	-0.185	-0.162
-665.018	516.611	0.134	-0.321
-664.003	253.863	0.222	0.388
-662.989	800.000	-0.098	-0.327
-661.974	-153.280	-0.327	-0.023
-660.959	-88.734	-0.051	0.016
-659.945	800.000	0.045	0.166
-658.930	538.856	-0.035	0.086
-657.916	581.756	0.121	0.303
-656.901	-118.693	0.243	0.044
-655.886	-68.219	0.106	0.042
-654.872	-83.506	0.134	0.044
-653.857	-63.467	-0.169	-0.071
-652.843	800.000	-0.027	0.117
-651.828	-91.135	-0.079	0.023
-650.814	-154.313	-0.328	0.023
-649.799	18.749	0.128	-0.105
-648.784	72.915	0.145	0.155
-647.770	119.853	-0.163	0.207
-646.755	83.361	0.066	0.073
-645.741	-110.165	-0.302	0.064
-644.726	477.750	-0.074	0.171
-643.711	-126.733	0.109	-0.017
-642.697	198.794	-0.161	0.252
-641.682	125.164	-0.205	0.264
-640.668	26.151	0.142	-0.121
-639.653	-131.591	-0.379	0.051
-638.638	-37.388	-0.035	-0.019
-637.624	-200.000	0.006	-0.379
-636.609	704.620	0.137	-0.370
-635.595	30.257	-0.288	-0.251
-634.580	-200.000	0.014	-0.172
-633.565	-99.898	-0.159	-0.041
-632.551	-200.000	0.019	0.095
-631.536	44.430	0.268	-0.251
-630.522	-200.000	-0.039	0.176
-629.507	800.000	-0.013	-0.051
-628.492	41.402	0.082	-0.076
-627.478	-105.941	0.316	-0.073
-626.463	-137.117	0.083	0.010
-625.449	-200.000	-0.024	-0.192
-624.434	288.899	-0.073	-0.134
-623.419	-128.347	0.361	0.052
-622.405	-200.000	-0.020	-0.220
-621.390	-200.000	-0.221	-0.000
-620.376	268.890	-0.101	0.180
-619.361	-22.144	-0.196	0.121
-618.346	-189.769	-0.244	0.003
-617.332	-1.574	-0.212	-0.152
-616.317	-200.000	0.035	-0.192
-615.303	-200.000	-0.017	-0.129
-614.288	800.000	-0.023	-0.082
-613.273	25.558	-0.168	0.143
-612.259	-31.449	0.170	0.097
-611.244	-62.662	-0.064	0.027
-610.230	222.632	-0.078	-0.128
-609.215	100.654	-0.046	-0.054
-608.201	-200.000	0.082	-0.424
-607.186	-200.000	-0.023	-0.178
-606.171	345.054	0.050	0.100
-605.157	-37.185	-0.242	0.132
-604.142	-138.249	0.166	0.019
-603.128	-155.799	0.247	-0.016
-602.113	643.376	-0.065	0.168
-601.098	-81.514	-0.161	-0.054
-600.084	-200.000	0.029	0.320
-599.069	-152.590	0.172	0.013
-598.055	-34.812	-0.121	0.067
-597.040	-97.620	0.256	-0.068
-596.025	-59.450	0.137	-0.060
-595.011	-23.242	-0.151	-0.093
-593.996	9.128	0.156	0.120
-592.982	371.533	-0.057	-0.117
-591.967	-200.000	-0.024	-0.317
-590.952	-30.874	0.254	-0.147
-589.938	-1.809	-0.218	0.156
-588.923	800.000	0.043	-0.138
-587.909	-43.823	-0.138	-0.071
-586.894	161.646	-0.170	0.242
-585.879	-101.831	-0.260	0.064
-584.865	800.000	0.039	-0.135
-583.850	-200.000	0.031	0.263
-582.836	196.364	-0.112	-0.174
-581.821	-58.814	-0.134	-0.059
-580.806	64.515	0.131	-0.135
-579.792	116.956	0.144	0.181
-578.777	113.477	0.112	0.139
-577.763	201.505	-0.140	-0.219
-576.748	108.780	-0.094	-0.114
-575.733	-78.027	-0.068	-0.024
-574.719	81.046	0.024	-0.026
-573.704	800.000	-0.124	-0.360
-572.690	23.725	-0.179	-0.150
-571.675	-42.669	0.067	-0.035
-570.661	-85.296	0.107	-0.034
-569.646	800.000	-0.058	-0.195
-568.631	21.988	0.138	-0.115
-567.617	320.778	-0.174	-0.336
-566.602	14.050	0.243	0.192
-565.588	800.000	-0.084	-0.373
-564.573	-42.949	0.123	0.063
-563.558	-57.238	0.377	0.169
-562.544	-200.000	0.037	0.226
-561.529	-200.000	0.005	-0.293
-560.515	35.959	-0.099	-0.089
-559.500	800.000	-0.078	-0.345
-558.485	800.000	0.050	-0.162
-557.471	-125.819	-0.130	0.020
-556.456	-64.336	-0.219	-0.091
-555.442	-29.358	0.362	-0.211
-554.427	389.115	0.165	-0.347
-553.412	-77.649	-0.406	-0.143
-552.398	800.000	0.089	0.306
-551.383	232.087	-0.103	0.171
-550.369	506.318	-0.112	0.264
-549.354	159.011	-0.151	-0.214
-548.339	-100.530	-0.185	0.047
-547.325	383.713	0.124	-0.260
-546.310	-200.000	0.003	0.017
-545.296	-74.543	0.226	0.083
-544.281	-41.868	0.464	-0.242
-543.266	214.595	-0.240	-0.387
-542.252	309.491	-0.159	-0.303
-541.237	-173.321	0.177	-0.005
-540.223	-49.057	0.054	-0.026
-539.208	-200.000	-0.101	0.486
-538.193	256.144	-0.129	-0.226
-537.179	-200.000	-0.023	-0.173
-536.164	-200.000	-0.030	-0.204
-535.150	-80.660	-0.186	-0.063
-534.135	-140.165	-0.317	-0.034
-533.121	-135.713	0.198	0.024
-532.106	213.250	-0.097	0.155
-531.091	-42.927	0.101	0.052
-530.077	-171.854	0.278	-0.009
-529.062	800.000	0.053	0.208
-528.048	554.987	-0.074	-0.180
-527.033	-132.308	0.106	0.014
-526.018	-200.000	0.020	-0.120
-525.004	340.384	-0.077	0.154
-523.989	50.697	0.087	-0.084
-522.975	-200.000	0.012	0.228
-521.960	800.000	-0.088	0.267
-520.945	3.269	0.103	0.076
-519.931	-198.528	-0.325	0.002
-518.916	-80.178	-0.107	-0.036
-517.902	9.454	0.130	0.100
-516.887	-200.000	0.034	-0.193
-515.872	-158.709	0.171	-0.010
-514.858	-142.519	0.178	-0.018
-513.843	-75.933	0.065	0.023
-512.829	81.823	-0.306	-0.337
-511.814	-52.526	0.109	-0.051
-510.799	-56.826	-0.289	0.130
-509.785	17.769	0.226	0.182
-508.770	129.959	0.076	0.099
-507.756	-117.639	-0.229	0.042
-506.741	86.293	-0.177	0.198
-505.726	800.000	0.094	0.315
-504.712	269.148	0.106	0.189
-503.697	-200.000	0.017	0.129
-502.683	800.000	-0.019	-0.067
-501.668	-33.733	-0.171	-0.096
-500.653	674.006	0.174	0.458
-499.639	-102.056	0.311	-0.076
-498.624	467.332	0.016	0.035
-497.610	-200.000	-0.026	-0.521
-496.595	-144.890	-0.081	-0.008
-495.581	-200.000	0.031	0.176
-494.566	-200.000	0.033	0.267
-493.551	76.505	0.340	-0.366
-492.537	-148.961	-0.295	-0.024
-491.522	274.584	0.048	0.087
-490.508	183.085	0.168	-0.253
-489.493	-66.355	-0.122	-0.049
-488.478	-200.000	-0.011	-0.099
-487.464	5.017	0.060	-0.045
-486.449	-200.000	0.028	-0.166
-485.435	-200.000	0.062	0.344
-484.420	-39.937	0.283	0.150
-483.405	-200.000	-0.035	0.198
-482.391	-200.000	0.023	0.220
-481.376	226.033	-0.072	0.118
-480.362	-134.520	-0.125	-0.016
-479.347	-200.000	-0.012	-0.101
-478.332	105.622	-0.116	0.139
-477.318	-7.043	-0.174	0.120
-476.303	157.215	0.233	0.328
-475.289	49.225	0.158	-0.151
-474.274	-127.061	-0.373	-0.056
-473.259	800.000	-0.082	0.295
-472.245	89.192	-0.084	-0.095
-471.230	117.673	0.112	0.139
-470.216	-100.624	0.217	-0.054
-469.201	-200.000	0.014	0.337
-468.186	129.759	0.224	0.290
-467.172	39.956	-0.220	0.200
-466.157	-129.723	-0.214	-0.030
-465.143	33.122	0.125	-0.110
-464.128	101.275	-0.146	0.172
-463.113	-200.000	-0.001	-0.286
-462.099	-141.376	0.140	-0.014
-461.084	228.148	-0.045	0.075
-460.070	314.337	-0.082	0.157
-459.055	224.673	-0.099	0.162
-458.040	-167.851	-0.386	-0.015
-457.026	200.169	0.070	0.110
-456.011	136.753	-0.065	0.087
-454.997	-200.000	-0.017	0.080
-453.982	-188.779	-0.229	0.003
-452.968	800.000	0.085	0.296
-451.953	-129.976	-0.053	-0.007
-450.938	-200.000	-0.136	0.000
-449.924	-25.601	0.157	0.094
-448.909	221.736	0.180	0.293
-447.895	-140.634	0.081	0.008
-446.880	702.777	-0.073	0.196
-445.865	-64.349	0.180	0.074
-444.851	-152.642	-0.048	-0.003
-443.836	-112.715	-0.178	-0.036
-442.822	800.000	-0.095	0.379
-441.807	39.131	0.061	-0.055
-440.792	171.916	-0.128	-0.187
-439.778	-200.000	0.056	-0.378
-438.763	800.000	0.042	-0.121
-437.749	54.979	-0.142	-0.139
-436.734	-20.295	0.247	-0.154
-435.719	178.515	-0.052	0.076
-434.705	-152.179	-0.231	-0.017
-433.690	-57.823	0.263	0.117
-432.676	291.299	0.070	-0.129
-431.661	-24.292	0.083	0.050
-430.646	-200.000	-0.059	-0.307
-429.632	-1.486	0.114	-0.081
-428.617	41.022	0.130	0.119
-427.603	742.860	-0.167	0.455
-426.588	2.418	-0.076	-0.056
-425.573	-200.000	-0.040	0.183
-424.559	-41.319	0.256	0.134
-423.544	-76.803	0.383	-0.136
-422.530	52.118	0.115	-0.111
-421.515	-132.289	0.306	0.040
-420.500	-52.025	0.140	-0.066
-419.486	-74.177	0.239	-0.088
-418.471	-200.000	0.003	0.233
-417.457	-1.963	-0.309	0.220
-416.442	75.952	-0.105	-0.113
-415.428	-200.000	-0.082	-0.398
-414.413	-134.210	0.072	0.009
-413.398	-200.000	0.038	-0.281
-412.384	800.000	0.052	0.214
-411.369	-33.549	-0.558	0.312
-410.355	-200.000	-0.014	-0.066
-409.340	-104.377	-0.125	0.029
-408.325	113.725	-0.084	-0.103
-407.311	169.308	0.059	-0.085
-406.296	14.648	-0.356	0.282
-405.282	-3.613	-0.187	0.132
-404.267	-71.864	-0.015	0.006
-403.252	-152.389	-0.196	0.014
-402.238	-107.194	0.268	-0.060
-401.223	-13.762	-0.081	0.053
-400.209	800.000	0.094	0.300
-399.194	800.000	0.071	0.234
-398.179	-89.921	-0.229	0.068
-397.165	-68.509	0.196	0.077
-396.150	234.485	-0.141	-0.236
-395.136	-200.000	-0.023	-0.202
-394.121	14.797	-0.160	-0.126
-393.106	108.616	-0.126	-0.152
-392.092	343.612	0.032	0.063
-391.077	-200.000	0.028	0.201
-390.063	-49.347	0.036	-0.018
-389.048	-40.483	0.130	0.068
-388.033	-81.732	0.227	0.075
-387.019	-200.000	-0.030	0.175
-386.004	-200.000	0.029	0.182
-384.990	157.988	-0.125	0.176
-383.975	-105.395	-0.215	0.049
-382.960	718.101	-0.041	-0.111
-381.946	502.054	0.189	-0.441
-380.931	766.416	-0.100	0.275
-379.917	691.688	0.119	0.315
-378.902	370.710	0.070	-0.144
-377.888	17.297	0.194	-0.155
-376.873	-115.523	0.151	-0.029
-375.858	327.962	-0.078	-0.152
-374.844	-200.000	0.000	0.010
-373.829	312.303	-0.255	0.484
-372.815	-200.000	0.023	0.257
-371.800	-152.845	-0.113	-0.008
-370.785	800.000	0.154	-0.582
-369.771	134.276	-0.049	0.064
-368.756	188.907	-0.143	-0.216
-367.742	-91.633	0.176	0.051
-366.727	50.954	-0.202	-0.193
-365.712	359.892	0.080	-0.162
-364.698	70.289	0.168	0.176
-363.683	-40.029	0.291	0.154
-362.669	32.110	-0.184	0.161
-361.654	800.000	-0.032	0.100
-360.639	99.261	0.031	0.036
-359.625	-200.000	-0.016	0.131
-358.610	800.000	0.052	0.171
-357.596	15.961	0.167	0.133
-356.581	-200.000	-0.032	-0.167
-355.566	159.823	-0.115	0.161
-354.552	235.694	0.116	-0.193
-353.537	-114.402	-0.181	0.035
-352.523	-93.022	0.362	0.102
-351.508	-93.372	-0.333	-0.093
-350.493	-200.000	-0.027	0.195
-349.479	-37.515	-0.145	-0.078
-348.464	-63.200	0.211	0.088
-347.450	800.000	-0.086	0.313
-346.435	-51.058	0.233	-0.110
-345.420	-200.000	0.031	-0.294
-344.406	-200.000	0.036	0.256
-343.391	53.567	0.142	-0.138
-342.377	-200.000	0.001	-0.150
-341.362	-165.927	0.150	0.006
-340.348	-27.293	0.359	0.211
-339.333	-54.782	0.210	0.096
-338.318	457.513	0.030	-0.068
-337.304	-200.000	-0.052	0.292
-336.289	-200.000	-0.007	0.238
-335.275	-54.455	0.178	0.081
-334.260	522.025	-0.086	-0.203
-333.245	19.644	0.387	-0.314
-332.231	58.927	0.162	-0.161
-331.216	741.587	0.031	0.085
-330.202	-157.579	-0.275	0.017
-329.187	800.000	-0.034	0.135
-328.172	800.000	0.090	-0.261
-327.158	11.447	-0.065	0.050
-326.143	59.273	0.076	-0.076
-325.129	200.184	-0.080	0.124
-324.114	-200.000	0.002	-0.043
-323.099	-100.452	0.185	-0.046
-322.085	-150.915	0.217	-0.017
-321.070	800.000	-0.055	0.178
-320.056	-141.896	-0.097	0.010
-319.041	-104.043	0.349	-0.082
-318.026	-155.535	-0.494	-0.032
-317.012	44.324	0.148	-0.137
-315.997	800.000	-0.042	-0.124
-314.983	-109.065	0.417	0.090
-313.968	-143.632	0.204	0.020
-312.953	-89.897	-0.039	-0.012
-311.939	-147.934	-0.353	-0.030
-310.924	-100.047	0.112	-0.028
-309.910	509.242	0.155	0.364
-308.895	-0.496	-0.124	0.089
-307.880	-156.420	0.348	-0.022
-306.866	-103.954	-0.323	0.076
-305.851	-85.358	0.412	0.130
-304.837	-200.000	0.030	-0.185
-303.822	439.413	-0.057	0.125
-302.807	140.047	-0.121	0.160
-301.793	-200.000	0.024	0.288
-300.778	-200.000	0.032	-0.315
-299.764	33.608	0.192	0.168
-298.749	800.000	0.025	-0.101
-297.735	-100.214	0.398	-0.100
-296.720	-164.904	-0.369	-0.017
-295.705	240.930	0.040	0.067
-294.691	96.308	0.052	-0.060
-293.676	-143.601	-0.130	0.012
-292.662	40.251	0.131	0.119
-291.647	-43.666	0.400	-0.203
-290.632	-200.000	0.005	-0.058
-289.618	387.491	-0.050	0.104
-288.603	15.820	-0.153	-0.121
-287.589	-121.547	-0.124	-0.021
-286.574	59.934	0.141	0.140
-285.559	121.276	0.121	-0.152
-284.545	618.641	-0.075	0.189
-283.530	34.360	-0.217	0.191
-282.516	-200.000	0.002	-0.017
-281.501	-200.000	0.011	0.053
-280.486	65.456	0.156	0.159
-279.472	-22.072	0.128	-0.078
-278.457	-17.376	-0.216	-0.137
-277.443	-31.119	0.357	0.203
-276.428	73.224	-0.130	0.137
-275.413	40.670	0.029	-0.027
-274.399	78.219	-0.300	-0.322
-273.384	-200.000	0.007	-0.242
-272.370	800.000	0.082	-0.288
-271.355	593.775	-0.136	-0.338
-270.340	800.000	-0.094	-0.319
-269.326	33.976	-0.362	-0.317
-268.311	383.363	0.085	-0.175
-267.297	800.000	0.052	-0.152
-266.282	-117.054	0.285	0.052
-265.267	-74.384	-0.287	0.104
-264.253	341.661	0.198	0.390
-263.238	800.000	-0.024	0.083
-262.224	69.462	0.172	-0.178
-261.209	332.109	0.044	0.085
-260.195	201.983	-0.199	0.308
-259.180	-200.000	-0.003	-0.212
-258.165	-157.371	-0.160	-0.010
-257.151	272.038	-0.059	-0.104
-256.136	-1.855	-0.275	0.195
-255.122	68.511	-0.289	0.298
-254.107	-200.000	-0.008	0.356
-253.092	-174.928	-0.383	-0.011
-252.078	-200.000	0.012	-0.391
-251.063	-116.361	0.160	-0.030
-250.049	-166.010	-0.226	-0.010
-249.034	219.771	0.231	0.371
-248.019	-113.376	0.191	-0.038
-247.005	800.000	0.048	0.160
-245.990	-200.000	-0.018	-0.099
-244.976	-3.833	-0.083	0.058
-243.961	307.606	-0.036	0.067
-242.946	800.000	-0.157	-0.438
-241.932	4.252	-0.110	-0.081
-240.917	800.000	-0.078	-0.275
-239.903	113.555	-0.089	-0.109
-238.888	-146.318	0.458	0.040
-237.873	-136.577	0.061	0.007
-236.859	144.055	-0.169	-0.227
-235.844	-7.299	0.310	-0.211
-234.830	78.387	-0.108	-0.116
-233.815	412.480	-0.175	-0.375
-232.800	116.105	-0.183	-0.225
-231.786	185.879	0.134	-0.200
-230.771	800.000	-0.019	-0.054
-229.757	13.552	-0.043	0.033
-228.742	800.000	-0.039	0.132
-227.727	-68.119	0.283	0.111
-226.713	-200.000	-0.008	-0.147
-225.698	109.493	-0.088	-0.106
-224.684	-200.000	0.039	0.230
-223.669	-200.000	-0.018	-0.211
-222.655	79.926	-0.087	0.094
-221.640	333.725	-0.080	0.155
-220.625	-33.322	0.085	0.047
-219.611	420.231	0.078	-0.167
-218.596	22.192	0.122	-0.100
-217.582	-83.149	-0.024	-0.008
-216.567	-119.871	0.155	-0.027
-215.552	-200.000	-0.020	0.295
-214.538	800.000	0.084	-0.286
-213.523	398.719	0.104	0.218
-212.509	800.000	-0.067	0.218
-211.494	52.976	-0.240	-0.230
-210.479	-162.670	0.153	-0.008
-209.465	-200.000	0.025	0.181
-208.450	105.680	0.053	-0.063
-207.436	-200.000	0.033	0.154
-206.421	-200.000	0.001	-0.217
-205.406	60.627	-0.038	0.037
-204.392	-200.000	0.007	-0.131
-203.377	312.110	0.019	0.036
-202.363	-200.000	0.013	-0.091
-201.348	336.348	-0.080	-0.157
-200.333	800.000	-0.033	-0.145
-199.319	-46.908	0.120	0.059
-198.304	377.731	-0.039	-0.080
-197.290	576.666	-0.128	0.315
-196.275	-27.994	0.140	-0.082
-195.260	-200.000	0.024	-0.285
-194.246	800.000	0.071	-0.225
-193.231	-6.930	0.165	0.113
-192.217	-200.000	0.009	0.074
-191.202	-171.287	-0.034	0.001
-190.187	-179.232	-0.127	0.003
-189.173	800.000	-0.009	-0.028
-188.158	109.459	0.343	0.413
-187.144	-200.000	0.024	-0.207
-186.129	211.718	-0.179	-0.282
-185.114	-80.913	-0.258	-0.086
-184.100	188.683	-0.119	-0.179
-183.085	-78.801	-0.128	0.044
-182.071	15.231	0.134	-0.106
-181.056	408.691	0.183	0.388
-180.042	-103.817	-0.260	0.061
-179.027	800.000	-0.036	-0.145
-178.012	-83.512	0.254	0.081
-176.998	-200.000	0.030	-0.141
-175.983	113.852	0.171	0.209
-174.969	-39.052	-0.237	-0.125
-173.954	59.070	0.105	-0.103
-172.939	800.000	-0.061	0.180
-171.925	26.143	-0.144	0.121
-170.910	89.611	0.193	-0.216
-169.896	-97.541	-0.207	-0.054
-168.881	80.870	-0.178	-0.193
-167.866	136.273	-0.120	0.156
-166.852	800.000	-0.072	0.228
-165.837	744.726	-0.121	0.325
-164.823	-100.941	0.157	-0.039
-163.808	28.031	-0.332	0.281
-162.793	-200.000	0.072	0.436
-161.779	-107.605	0.246	0.054
-160.764	479.093	-0.054	-0.124
-159.750	-11.940	0.040	0.026
-158.735	-98.833	-0.207	0.053
-157.720	-200.000	-0.039	0.219
-156.706	-136.510	0.111	-0.013
-155.691	185.156	-0.160	0.238
-154.677	445.098	0.019	0.041
-153.662	-57.157	0.142	-0.063
-152.647	11.013	0.065	-0.049
-151.633	-5.520	-0.095	0.065
-150.618	160.669	-0.118	-0.165
-149.604	420.707	0.017	-0.036
-148.589	377.111	0.051	0.105
-147.574	-136.239	-0.214	-0.025
-146.560	-67.968	0.037	0.014
-145.545	509.036	-0.025	0.059
-144.531	800.000	-0.098	0.278
-143.516	-88.467	0.050	0.015
-142.502	800.000	-0.046	0.131
-141.487	-200.000	0.013	0.097
-140.472	-7.876	0.066	0.044
-139.458	-82.634	-0.222	-0.072
-138.443	-200.000	-0.014	-0.128
-137.429	800.000	0.020	0.071
-136.414	-6.102	0.129	0.088
-135.399	43.968	-0.110	-0.101
-134.385	-200.000	0.017	0.163
-133.370	66.552	-0.266	0.271
-132.356	262.846	0.097	0.169
-131.341	424.633	-0.128	-0.276
-130.326	-153.718	0.169	-0.012
-129.312	800.000	-0.173	0.570
-128.297	-6.261	0.128	0.087
-127.283	-144.091	-0.057	-0.005
-126.268	-71.023	0.250	-0.094
-125.253	-200.000	0.018	0.319
-124.239	800.000	-0.051	-0.180
-123.224	66.412	0.078	0.079
-122.210	-172.208	0.095	0.003
-121.195	-12.407	-0.222	-0.145
-120.180	146.495	0.169	0.228
-119.166	185.045	-0.027	-0.039
-118.151	95.091	0.266	0.303
-117.137	-134.353	0.033	0.004
-116.122	14.873	-0.055	0.043
-115.107	196.454	0.089	0.135
-114.093	-0.673	0.150	-0.107
-113.078	-107.920	0.228	0.050
-112.064	800.000	-0.072	-0.225
-111.049	-200.000	0.027	0.273
-110.034	139.728	0.077	0.102
-109.020	-17.114	-0.344	-0.217
-108.005	181.472	-0.249	0.366
-106.991	-200.000	-0.076	0.354
-105.976	111.849	0.111	0.134
-104.962	800.000	0.052	0.197
-103.947	-200.000	-0.009	-0.117
-102.932	-26.724	0.139	0.081
-101.918	273.396	0.054	-0.096
-100.903	-200.000	0.001	0.045
-99.889	100.328	-0.151	-0.175
-98.874	800.000	-0.095	0.279
-97.859	16.530	0.285	0.225
-96.845	-71.738	0.233	0.087
-95.830	-57.971	0.050	-0.022
-94.816	145.222	0.132	0.177
-93.801	61.982	-0.164	-0.164
-92.786	-164.313	0.332	-0.015
-91.772	286.551	-0.248	-0.448
-90.757	-4.248	-0.067	-0.046
-89.743	173.427	0.154	0.222
-88.728	-93.728	-0.246	0.068
-87.713	61.751	-0.074	0.074
-86.699	-143.835	0.307	0.029
-85.684	800.000	-0.050	-0.144
-84.670	-200.000	0.007	0.066
-83.655	-200.000	-0.031	-0.162
-82.640	800.000	-0.079	-0.288
-81.626	-200.000	0.003	0.114
-80.611	-200.000	-0.087	-0.397
-79.597	-119.995	0.269	0.046
-78.582	-56.305	0.230	-0.102
-77.567	-105.186	0.161	0.037
-76.553	800.000	0.053	-0.161
-75.538	800.000	0.091	-0.259
-74.524	17.633	-0.063	0.050
-73.509	69.235	0.295	-0.303
-72.494	35.303	0.100	-0.087
-71.480	-84.320	-0.439	-0.139
-70.465	-120.243	0.235	-0.040
-69.451	447.475	-0.139	0.306
-68.436	778.238	-0.065	-0.176
-67.422	-200.000	-0.044	0.258
-66.407	-120.989	-0.270	0.045
-65.392	-142.316	0.115	-0.011
-64.378	139.017	-0.268	0.352
-63.363	-20.739	0.396	0.243
-62.349	-200.000	0.006	0.081
-61.334	104.437	-0.466	-0.548
-60.319	-165.690	0.332	-0.014
-59.305	-200.000	-0.092	-0.698
-58.290	434.614	0.316	0.685
-57.276	800.000	0.549	1.758
-56.261	-200.000	74.693	582.092
-55.246	596.085	1300.361	3214.774
-54.232	145.193	2514.449	3359.676
-53.217	123.481	2240.171	2804.910
-52.203	55.865	1755.264	1699.424
-51.188	47.519	1547.909	1440.916
-50.173	44.373	1517.420	1390.986
-49.159	60.747	1553.688	1537.616
-48.144	68.378	1573.188	1609.415
-47.130	47.888	1535.913	1432.070
-46.115	43.888	1522.056	1391.688
-45.100	43.746	1518.338	1387.261
-44.086	43.662	1516.635	1385.071
-43.071	43.566	1514.954	1382.825
-42.057	43.657	1512.809	1381.432
-41.042	43.536	1511.529	1379.386
-40.027	43.695	1510.225	1379.226
-39.013	43.599	1508.337	1376.790
-37.998	43.609	1506.940	1375.530
-36.984	43.522	1506.601	1374.573
-35.969	43.690	1505.097	1374.288
-34.954	43.744	1503.158	1372.831
-33.940	43.618	1502.000	1370.862
-32.925	43.717	1499.897	1369.560
-31.911	43.765	1498.947	1368.965
-30.896	43.665	1497.851	1367.232
-29.881	43.815	1496.463	1366.927
-28.867	43.767	1495.129	1365.330
-27.852	43.855	1493.501	1364.382
-26.838	43.730	1492.199	1362.296
-25.823	43.642	1490.551	1360.147
-24.809	43.771	1488.513	1359.097
-23.794	43.744	1487.689	1358.111
-22.779	43.779	1486.009	1356.756
-21.765	43.700	1485.328	1355.549
-20.750	43.692	1484.229	1354.439
-19.736	43.655	1483.279	1353.270
-18.721	43.711	1481.731	1352.180
-17.706	43.710	1480.225	1350.744
-16.692	43.669	1479.552	1349.806
-15.677	43.586	1478.880	1348.586
-14.663	43.547	1477.634	1347.137
-13.648	43.614	1476.610	1346.594
-12.633	43.640	1475.158	1345.390
-11.619	43.678	1474.622	1345.102
-10.604	43.660	1473.724	1344.110
-9.590	43.603	1473.230	1343.225
-8.575	43.692	1472.105	1342.737
-7.560	43.571	1471.605	1341.424
-6.546	43.702	1470.477	1341.212
-5.531	43.631	1469.383	1339.693
-4.517	43.572	1468.606	1338.535
-3.502	43.593	1467.610	1337.716
-2.487	43.588	1466.107	1336.258
-1.473	43.637	1465.251	1335.748
-0.458	43.610	1463.689	1334.098
0.556	41.437	1454.025	1322.104
1.571	37.608	1425.230	1270.865
2.586	32.279	1360.267	1179.512
3.600	29.166	1275.446	1087.517
4.615	26.557	1226.797	1031.101
5.629	22.670	1171.075	963.005
6.644	14.651	1086.084	852.258
7.659	8.190	1042.900	786.528
8.673	7.055	1036.728	776.240
9.688	6.873	1033.758	773.058
10.702	6.729	1032.487	771.333
11.717	6.723	1030.943	770.083
12.731	9.138	1033.634	783.823
13.746	15.401	1041.856	820.713
14.761	18.779	1045.000	839.659
15.775	17.860	1043.029	833.514
16.790	16.830	1040.581	826.464
17.804	15.663	1038.438	819.006
18.819	14.861	1036.529	813.526
19.834	14.365	1034.486	809.442
20.848	13.853	1034.185	806.649
21.863	13.713	1033.006	804.978
22.877	13.410	1033.000	803.433
23.892	13.303	1031.920	802.001
24.907	13.044	1031.217	800.129
25.921	13.171	1030.292	799.955
26.936	13.210	1029.671	799.591
27.950	13.266	1028.538	798.911
28.965	13.130	1027.590	797.449
29.980	13.256	1026.398	797.058
30.994	13.327	1025.145	796.356
32.009	13.459	1023.966	796.005
33.023	13.492	1023.488	795.721
34.038	13.499	1022.197	794.683
35.053	13.413	1021.617	793.750
36.067	13.471	1020.339	792.965
37.082	13.394	1019.537	791.901
38.096	13.339	1019.249	791.344
39.111	13.335	1018.477	790.654
40.126	13.427	1017.290	790.105
41.140	13.325	1016.193	788.694
42.155	13.191	1015.441	787.405
43.169	13.241	1014.354	786.729
44.184	13.093	1013.503	785.294
45.199	13.143	1012.092	784.372
46.213	13.129	1011.100	783.465
47.228	13.066	1010.579	782.692
48.242	13.145	1009.084	781.841
49.257	13.181	1008.637	781.596
50.271	13.262	1007.187	780.785
51.286	13.317	1006.346	780.324
52.301	13.434	1005.792	780.375
53.315	13.304	1005.005	779.085
54.330	13.193	1004.589	778.169
55.344	13.193	1003.682	777.399
56.359	13.165	1002.352	776.167
57.374	13.231	1001.568	775.803
58.388	13.221	1000.952	775.211
59.403	13.159	1000.310	774.353
60.417	13.172	999.290	773.557
61.432	13.161	998.856	773.099
62.447	13.109	997.991	772.119
63.461	13.057	997.052	771.080
64.476	12.963	996.234	769.941
65.490	12.941	995.335	769.076
66.505	13.002	994.369	768.544
67.520	12.895	993.904	767.619
68.534	13.096	992.964	767.760
69.549	13.162	992.270	767.463
70.563	13.047	991.614	766.353
71.578	13.051	991.457	766.183
72.593	13.048	990.433	765.313
73.607	12.941	989.296	763.867
74.622	12.868	988.436	762.801
75.636	12.838	987.639	761.977
76.651	12.911	986.741	761.555
77.666	12.992	985.755	761.100
78.680	13.021	985.235	760.765
79.695	12.935	984.978	760.103
80.709	13.042	984.288	759.998
81.724	13.178	982.973	759.542
82.739	13.127	982.396	758.794
83.753	13.110	981.886	758.253
84.768	13.127	981.245	757.769
85.782	13.365	980.149	757.948
86.797	13.572	979.419	758.262
87.812	13.384	978.986	757.000
88.826	13.206	978.187	755.501
89.841	13.313	976.880	754.913
90.855	13.244	976.455	754.201
91.870	13.363	975.247	753.744
92.884	13.338	974.574	753.045
93.899	13.329	974.178	752.631
94.914	13.400	973.472	752.342
95.928	13.332	972.978	751.585
96.943	13.510	972.122	751.665
97.957	13.419	971.135	750.425
98.972	13.441	970.147	749.692
99.987	13.438	969.476	749.093
101.001	13.492	968.906	748.830
102.016	13.482	968.034	748.047
103.030	13.305	967.306	746.618
104.045	13.397	966.225	746.132
105.060	13.503	965.433	745.931
106.074	13.419	964.433	744.715
107.089	13.342	963.639	743.692
108.103	13.214	962.623	742.264
109.118	13.135	961.543	741.011
110.133	13.065	961.138	740.322
111.147	13.098	960.323	739.776
112.162	13.044	959.348	738.719
113.176	13.105	958.512	738.283
114.191	13.174	957.791	737.968
115.206	13.211	956.651	737.190
116.220	13.399	955.617	737.167
117.235	13.197	955.190	735.871
118.249	13.150	954.198	734.836
119.264	13.172	952.989	733.934
120.279	13.139	952.761	733.550
121.293	13.044	952.190	732.622
122.308	13.032	951.551	732.012
123.322	12.999	950.338	730.868
124.337	13.174	948.835	730.420
125.352	13.067	948.148	729.353
126.366	13.117	947.092	728.699
127.381	13.113	946.406	728.091
128.395	12.927	945.558	726.551
129.410	12.987	944.665	726.069
130.424	13.246	943.261	726.060
131.439	13.110	942.619	724.905
132.454	13.289	941.828	725.017
133.468	13.221	941.551	724.442
134.483	13.225	940.969	723.946
135.497	13.269	939.942	723.285
136.512	13.266	939.401	722.795
137.527	13.249	938.694	722.113
138.541	13.350	937.355	721.457
139.556	13.334	936.865	720.948
140.570	13.372	936.129	720.482
141.585	13.405	935.505	720.083
142.600	13.459	934.783	719.698
143.614	13.612	934.279	719.911
144.629	13.515	933.533	718.852
145.643	13.446	932.934	718.025
146.658	13.574	931.495	717.410
147.673	13.499	930.839	716.515
148.687	13.317	930.361	715.301
149.702	13.403	929.175	714.696
150.716	13.284	928.560	713.646
151.731	13.210	928.019	712.848
152.746	13.345	926.834	712.457
153.760	13.222	926.674	711.740
154.775	13.401	925.298	711.387
155.789	13.298	924.763	710.474
156.804	13.395	924.029	710.261
157.819	13.352	923.253	709.417
158.833	13.453	922.434	709.159
159.848	13.466	921.977	708.801
160.862	13.492	921.497	708.479
161.877	13.482	920.563	707.658
162.892	13.460	919.197	706.448
163.906	13.508	918.595	706.130
164.921	13.329	917.950	704.810
165.935	13.326	917.047	704.038
166.950	13.429	916.391	703.911
167.964	13.437	915.256	703.014
168.979	13.572	914.023	702.577
169.994	13.438	912.881	701.066
171.008	13.453	912.455	700.743
172.023	13.437	911.882	700.174
173.037	13.522	911.271	700.003
174.052	13.547	910.628	699.548
175.067	13.558	909.936	699.005
176.081	13.492	909.007	697.951
177.096	13.395	908.257	696.903
178.110	13.408	907.565	696.367
179.125	13.467	906.853	696.004
180.140	13.423	905.862	695.001
181.154	13.471	905.357	694.751
182.169	13.654	904.369	694.697
183.183	13.558	903.910	693.885
184.198	13.712	903.149	693.883
185.213	13.666	902.826	693.381
186.227	13.730	902.117	693.042
187.242	13.556	902.165	692.288
188.256	13.694	900.972	691.886
189.271	13.700	900.328	691.360
190.286	13.788	899.599	691.104
191.300	13.810	898.647	690.404
192.315	13.473	898.002	688.446
193.329	13.620	896.802	688.073
194.344	13.509	896.506	687.325
195.359	13.398	896.153	686.535
196.373	13.556	895.632	686.730
197.388	13.654	894.984	686.575
198.402	13.880	894.378	686.986
199.417	13.833	894.139	686.549
200.432	13.934	893.911	686.731
201.446	13.903	893.352	686.110
202.461	14.144	892.508	686.396
203.475	14.060	892.281	685.813
204.490	13.992	891.882	685.167
205.504	13.858	891.058	683.924
206.519	13.804	890.242	683.013
207.534	13.936	889.314	682.784
208.548	13.868	888.622	681.913
209.563	13.882	888.193	681.582
210.577	13.989	887.229	681.220
211.592	13.985	886.436	680.535
212.607	14.019	886.113	680.366
213.621	14.133	885.641	680.409
214.636	14.085	884.859	679.551
215.650	14.077	884.340	679.061
216.665	14.125	883.708	678.708
217.680	14.107	883.694	678.567
218.694	14.136	883.250	678.285
219.709	14.190	882.056	677.525
220.723	14.197	881.827	677.320
221.738	14.186	881.290	676.803
222.753	14.220	880.212	676.053
223.767	14.331	879.316	675.753
224.782	14.236	878.876	674.971
225.796	14.364	878.195	674.909
226.811	14.176	878.079	673.995
227.826	14.459	876.662	673.992
228.840	14.302	876.216	672.957
229.855	14.048	875.583	671.386
230.869	14.186	874.820	671.295
231.884	14.330	874.291	671.415
232.899	14.240	873.579	670.443
233.913	14.169	872.664	669.398
234.928	14.200	872.197	669.104
235.942	14.207	871.683	668.677
236.957	14.177	870.897	667.897
237.972	14.199	870.086	667.301
238.986	14.250	869.655	667.120
240.001	14.209	869.066	666.442
241.015	14.265	868.274	665.999
242.030	14.244	867.736	665.444
243.045	14.454	866.676	665.413
244.059	14.351	866.489	664.798
245.074	14.253	865.595	663.662
246.088	14.442	864.799	663.745
247.103	14.354	864.703	663.264
248.117	14.530	863.946	663.325
249.132	14.545	863.605	663.063
250.147	14.561	862.948	662.564
251.161	14.702	862.288	662.557
252.176	14.795	861.580	662.323
253.190	14.784	860.736	661.575
254.205	14.762	860.431	661.195
255.220	14.912	859.793	661.239
256.234	14.946	859.010	660.712
257.249	14.834	858.496	659.816
258.263	14.789	858.234	659.378
259.278	14.808	857.500	658.832
260.293	14.954	856.872	658.865
261.307	14.960	856.468	658.519
262.322	14.909	855.864	657.796
263.336	14.913	855.530	657.495
264.351	14.876	855.173	657.019
265.366	14.995	853.783	656.362
266.380	14.931	853.396	655.753
267.395	14.962	852.906	655.441
268.409	14.966	852.078	654.762
269.424	15.054	851.016	654.233
270.439	15.089	850.402	653.840
271.453	14.962	849.783	652.808
272.468	14.942	849.334	652.328
273.482	14.981	848.662	651.906
274.497	14.916	848.051	651.126
275.512	14.798	847.532	650.212
276.526	14.976	846.613	650.141
277.541	14.954	846.273	649.737
278.555	15.049	845.465	649.426
279.570	15.092	845.040	649.211
280.585	15.126	844.674	649.004
281.599	15.246	843.942	648.847
282.614	15.269	843.163	648.283
283.628	15.129	842.800	647.402
284.643	15.143	841.865	646.683
285.657	15.070	841.652	646.177
286.672	15.161	841.023	645.989
287.687	15.194	840.911	645.974
288.701	15.269	839.941	645.459
289.716	15.242	839.533	644.984
290.730	15.281	838.820	644.532
291.745	15.379	838.050	644.257
292.760	15.183	837.604	643.107
293.774	15.262	837.307	643.125
294.789	15.398	836.533	642.996
295.803	15.384	835.973	642.455
296.818	15.229	835.808	641.677
297.833	15.266	834.558	640.801
298.847	15.322	834.061	640.578
299.862	15.408	833.412	640.350
300.876	15.247	832.715	639.143
301.891	15.360	832.159	639.093
302.906	15.414	831.420	638.673
303.920	15.401	831.013	638.254
304.935	15.598	830.302	638.400
305.949	15.706	829.623	638.231
306.964	15.785	828.856	637.886
307.979	15.578	828.824	637.017
308.993	15.556	828.267	636.452
310.008	15.517	827.660	635.782
311.022	15.650	827.389	636.020
312.037	15.646	826.536	635.292
313.052	15.470	826.509	634.551
314.066	15.488	825.752	633.980
315.081	15.594	824.766	633.568
316.095	15.556	824.476	633.144
317.110	15.479	824.145	632.545
318.125	15.449	823.811	632.118
319.139	15.562	822.874	631.768
320.154	15.532	822.353	631.203
321.168	15.775	821.615	631.490
322.183	15.420	821.468	629.988
323.197	15.615	820.929	630.252
324.212	15.609	820.202	629.614
325.227	15.654	819.782	629.407
326.241	15.776	818.935	629.158
327.256	15.779	818.539	628.807
328.270	15.661	818.224	628.067
329.285	15.781	817.504	627.908
330.300	15.667	817.073	627.096
331.314	15.602	816.644	626.471
332.329	15.568	815.735	625.591
333.343	15.784	815.143	625.883
334.358	15.617	815.046	625.133
335.373	15.740	814.110	624.817
336.387	15.779	813.421	624.377
337.402	15.689	813.249	623.857
338.416	15.968	812.615	624.350
339.431	16.028	812.015	624.056
340.446	15.973	811.680	623.540
341.460	16.080	810.817	623.218
342.475	16.000	810.876	622.910
343.489	16.053	810.059	622.424
344.504	15.965	809.387	621.529
345.519	16.274	808.883	622.224
346.533	16.197	808.392	621.507
347.548	16.241	808.042	621.347
348.562	16.133	807.268	620.299
349.577	16.159	806.828	620.002
350.592	16.021	806.404	619.114
351.606	16.141	806.070	619.242
352.621	16.111	805.485	618.630
353.635	16.079	805.076	618.142
354.650	16.052	804.827	617.797
355.665	16.225	804.184	617.885
356.679	16.115	803.988	617.278
357.694	16.309	803.307	617.408
358.708	16.227	802.651	616.548
359.723	16.208	802.009	615.932
360.738	16.218	801.777	615.734
361.752	16.216	801.198	615.228
362.767	16.205	800.588	614.665
363.781	16.432	800.122	615.079
364.796	16.364	799.750	614.492
365.810	16.384	799.805	614.554
366.825	16.491	798.878	614.176
367.840	16.531	799.098	614.435
368.854	16.549	798.180	613.743
369.869	16.623	797.963	613.790
370.883	16.592	797.248	613.073
371.898	16.419	796.810	612.055
372.913	16.530	796.022	611.797
373.927	16.530	795.856	611.613
374.942	16.612	795.104	611.280
375.956	16.664	794.011	610.573
376.971	16.515	794.238	610.154
377.986	16.660	793.279	609.886
379.000	16.705	792.900	609.705
380.015	16.661	792.761	609.383
381.029	16.772	792.126	609.240
382.044	16.679	791.413	608.305
383.059	16.790	790.432	607.896
384.073	16.762	790.438	607.746
385.088	16.624	790.036	606.890
386.102	16.674	789.300	606.450
387.117	16.623	788.613	605.684
388.132	16.727	787.964	605.502
389.146	16.677	787.802	605.147
390.161	16.672	787.742	605.031
391.175	16.555	787.494	604.369
392.190	16.870	786.886	604.972
393.205	16.939	786.360	604.761
394.219	16.670	786.007	603.475
395.234	16.859	785.413	603.639
396.248	16.761	785.212	603.084
397.263	16.669	784.560	602.201
398.278	16.674	783.998	601.733
399.292	16.645	783.719	601.366
400.307	16.672	783.036	600.882
401.321	16.703	782.604	600.608
402.336	16.685	782.625	600.506
403.350	16.831	782.078	600.551
404.365	16.848	781.577	600.173
405.380	16.996	780.921	600.142
406.394	16.974	780.515	599.697
407.409	17.016	780.179	599.536
408.423	17.119	779.556	599.366
409.438	17.084	779.419	599.084
410.453	16.956	779.131	598.360
411.467	17.169	778.580	598.633
412.482	17.197	777.907	598.162
413.496	16.996	777.869	597.374
414.511	17.212	777.399	597.718
415.526	17.191	776.745	597.090
416.540	17.268	776.813	597.357
417.555	17.146	776.400	596.559
418.569	17.271	775.804	596.487
419.584	17.186	775.541	595.934
420.599	17.298	774.762	595.676
421.613	82.952	1245.050	1311.559
422.628	69.809	1313.611	1311.709
