DTS Sentinel unit serial number:	SN413079Multiplexer serial number:	ORYXHardware model number:	OX4-SRSoftware version number:	ORYX F/W v4.00 Oryx Data Collector v3.7.2.0data status	okinstallation	princeton_trtdifferential loss correction	single-endedforward channel	channel 3reverse channel	N/Adate	2019/09/18time	08:28:34forward acquisition time	60.00reverse acquisition time	0.00gamma	496.2192k internal	0.2341k external	0.2341temperature offset calibration	0.9946default loss term (dB/km)	0.3790temperature slope calibration	1.0000multiplexer offset coefficient	1.0000multiplexer slope coefficient	1.0000fibre end	0.00T internal ref (°C)	24.25T ext. ref 1 (°C)	0.22T ext. ref 2 (°C)	19.99length (m)	temperature (°C)	Stokes	anti-Stokes-747.200	188.859	0.197	0.295
-746.185	-33.218	0.304	0.169
-745.171	-146.842	0.106	0.009
-744.156	-109.847	0.213	-0.045
-743.142	212.566	-0.171	0.270
-742.127	-147.855	0.248	0.021
-741.112	67.333	-0.074	0.075
-740.098	-149.867	-0.335	0.026
-739.083	-131.577	-0.086	-0.011
-738.069	34.227	-0.287	0.251
-737.054	800.000	0.035	-0.098
-736.039	-200.000	-0.034	0.201
-735.025	-137.933	-0.511	-0.057
-734.010	-82.065	-0.367	0.120
-732.996	800.000	0.034	-0.094
-731.981	-112.777	-0.385	-0.077
-730.966	-49.840	-0.114	0.054
-729.952	94.145	-0.078	0.088
-728.937	-200.000	-0.052	-0.232
-727.923	-200.000	-0.011	-0.121
-726.908	-149.133	-0.211	-0.017
-725.894	-62.719	-0.220	0.091
-724.879	-22.811	-0.243	0.147
-723.864	359.972	-0.127	-0.254
-722.850	461.215	-0.060	-0.133
-721.835	267.575	-0.149	0.261
-720.821	-53.201	-0.255	-0.117
-719.806	46.479	0.342	-0.317
-718.791	351.242	-0.116	0.231
-717.777	-171.035	-0.335	0.011
-716.762	86.385	0.169	-0.186
-715.748	-200.000	-0.009	-0.265
-714.733	37.667	-0.045	-0.040
-713.718	-152.833	-0.171	0.012
-712.704	-200.000	0.007	0.175
-711.689	235.289	0.271	0.447
-710.675	227.455	0.101	-0.165
-709.660	-39.086	0.296	-0.156
-708.645	-121.789	-0.266	-0.044
-707.631	-200.000	0.002	0.283
-706.616	205.163	0.234	0.364
-705.602	-177.991	-0.180	0.004
-704.587	105.888	-0.080	0.095
-703.572	-200.000	-0.011	-0.184
-702.558	-129.046	0.342	-0.048
-701.543	-71.880	-0.126	-0.047
-700.529	-121.717	-0.086	0.014
-699.514	-25.827	-0.255	-0.150
-698.499	-109.548	-0.161	0.034
-697.485	10.675	0.068	-0.052
-696.470	800.000	0.041	0.137
-695.456	348.849	-0.208	-0.411
-694.441	-200.000	0.010	-0.390
-693.426	-200.000	0.002	-0.020
-692.412	-200.000	0.001	0.271
-691.397	-120.907	0.124	-0.021
-690.383	-200.000	0.040	0.234
-689.368	800.000	0.037	-0.139
-688.354	235.822	0.158	-0.261
-687.339	-7.811	-0.347	-0.234
-686.324	-172.924	0.108	0.003
-685.310	-46.545	0.232	0.114
-684.295	-62.745	0.173	0.072
-683.281	22.244	0.007	0.006
-682.266	-42.285	0.157	0.080
-681.251	-200.000	0.004	0.145
-680.237	-40.999	-0.283	0.146
-679.222	-200.000	0.064	-0.345
-678.208	77.937	0.254	0.271
-677.193	202.665	0.079	-0.123
-676.178	12.877	-0.196	-0.152
-675.164	-158.831	-0.340	0.019
-674.149	23.145	-0.340	-0.279
-673.135	-83.651	-0.089	-0.028
-672.120	-174.082	0.124	-0.004
-671.105	-116.660	-0.215	0.039
-670.091	-103.504	-0.268	-0.063
-669.076	800.000	-0.028	-0.085
-668.062	-9.960	-0.306	0.204
-667.047	25.306	-0.350	-0.291
-666.032	332.088	0.064	-0.123
-665.018	-200.000	0.023	0.117
-664.003	-200.000	-0.006	0.036
-662.989	-148.581	0.146	-0.012
-661.974	-182.125	-0.580	-0.011
-660.959	-200.000	-0.087	-0.543
-659.945	-18.535	0.078	-0.048
-658.930	342.200	-0.115	-0.225
-657.916	-200.000	-0.016	0.211
-656.901	-69.221	-0.237	0.091
-655.886	-111.778	0.086	0.017
-654.872	-159.732	0.423	-0.023
-653.857	-91.873	-0.202	-0.057
-652.843	-36.849	0.199	0.106
-651.828	800.000	-0.027	-0.092
-650.814	-5.596	-0.110	-0.075
-649.799	-141.269	0.201	-0.020
-648.784	36.462	0.021	0.018
-647.770	531.197	0.035	0.083
-646.755	-115.577	-0.179	0.034
-645.741	208.007	-0.171	0.267
-644.726	446.512	-0.057	-0.124
-643.711	189.084	-0.238	-0.356
-642.697	-25.613	0.279	-0.165
-641.682	680.692	-0.072	-0.187
-640.668	-200.000	-0.009	0.089
-639.653	308.122	-0.061	0.113
-638.638	-59.442	0.157	-0.067
-637.624	-200.000	0.028	0.180
-636.609	800.000	0.052	-0.150
-635.595	-14.708	-0.169	0.108
-634.580	55.153	0.125	0.120
-633.565	-200.000	-0.074	0.334
-632.551	-118.458	-0.266	0.047
-631.536	142.867	0.065	-0.087
-630.522	455.719	0.052	-0.115
-629.507	-69.781	-0.166	-0.063
-628.492	-141.377	0.056	-0.006
-627.478	800.000	0.070	0.225
-626.463	67.812	-0.169	0.172
-625.449	-200.000	0.054	-0.332
-624.434	-200.000	-0.017	-0.188
-623.419	-200.000	0.008	0.443
-622.405	95.289	0.138	0.157
-621.390	-200.000	-0.044	-0.200
-620.376	-21.177	-0.270	-0.165
-619.361	800.000	-0.116	-0.412
-618.346	-120.005	0.073	0.012
-617.332	125.098	0.054	0.068
-616.317	-153.961	-0.334	0.023
-615.303	102.278	-0.238	0.277
-614.288	451.045	-0.038	0.083
-613.273	106.608	-0.050	0.059
-612.259	500.025	-0.035	0.081
-611.244	-30.204	-0.265	-0.150
-610.230	-70.667	0.283	0.106
-609.215	-191.497	-0.349	0.003
-608.201	-200.000	0.040	-0.205
-607.186	800.000	0.023	-0.088
-606.171	-200.000	0.033	-0.163
-605.157	-200.000	-0.025	-0.392
-604.142	156.948	-0.129	0.177
-603.128	234.782	0.074	-0.122
-602.113	105.159	-0.030	0.035
-601.098	-37.407	-0.050	0.027
-600.084	-200.000	-0.001	0.089
-599.069	-51.657	0.489	-0.227
-598.055	-168.372	-0.294	-0.011
-597.040	-95.631	0.180	0.048
-596.025	-41.021	-0.317	0.163
-595.011	58.324	0.046	0.045
-593.996	650.944	-0.008	0.020
-592.982	-200.000	0.006	-0.128
-591.967	354.964	0.154	-0.305
-590.952	-154.022	-0.226	-0.015
-589.938	-200.000	-0.016	0.251
-588.923	-70.913	0.043	0.016
-587.909	205.933	-0.120	0.186
-586.894	800.000	-0.065	0.210
-585.879	444.779	0.113	-0.246
-584.865	176.166	-0.211	-0.305
-583.850	-200.000	0.016	-0.194
-582.836	506.448	-0.097	0.223
-581.821	-200.000	0.015	-0.145
-580.806	-18.881	0.281	-0.174
-579.792	261.149	-0.109	0.188
-578.777	-200.000	0.007	-0.135
-577.763	-200.000	-0.034	-0.201
-576.748	53.871	-0.137	0.131
-575.733	-38.041	0.078	0.041
-574.719	-200.000	0.042	0.223
-573.704	-74.265	-0.070	0.025
-572.690	-89.741	0.090	-0.026
-571.675	-57.778	0.183	0.080
-570.661	120.906	-0.006	0.007
-569.646	15.514	-0.089	0.069
-568.631	58.033	-0.147	0.143
-567.617	800.000	0.002	-0.007
-566.602	-73.734	-0.250	-0.091
-565.588	-116.782	0.270	-0.049
-564.573	800.000	0.081	-0.296
-563.558	-156.577	-0.427	-0.026
-562.544	-85.243	-0.077	-0.024
-561.529	-200.000	-0.010	-0.098
-560.515	244.719	-0.089	0.149
-559.500	-200.000	0.007	0.066
-558.485	-93.447	-0.338	-0.093
-557.471	-75.382	-0.046	0.016
-556.456	-153.461	-0.283	0.020
-555.442	-2.745	-0.109	0.076
-554.427	-108.314	0.273	0.059
-553.412	137.573	-0.229	0.299
-552.398	128.864	-0.060	0.076
-551.383	-101.780	0.149	-0.036
-550.369	-200.000	-0.008	-0.261
-549.354	-4.766	-0.144	-0.099
-548.339	-200.000	0.034	0.213
-547.325	800.000	0.033	0.109
-546.310	494.890	-0.078	-0.177
-545.296	-127.704	0.098	0.014
-544.281	-200.000	0.011	-0.111
-543.266	-18.561	0.030	-0.019
-542.252	25.607	-0.094	-0.078
-541.237	172.835	-0.138	0.197
-540.223	191.754	0.041	-0.061
-539.208	160.847	0.163	0.226
-538.193	-200.000	-0.032	0.149
-537.179	800.000	-0.027	0.107
-536.164	210.518	-0.076	-0.118
-535.150	-79.039	-0.188	0.064
-534.135	-33.878	-0.211	-0.116
-533.121	-15.767	0.177	0.112
-532.106	-167.162	-0.167	-0.007
-531.091	-89.363	-0.210	0.061
-530.077	-200.000	0.004	0.217
-529.062	114.912	-0.046	0.056
-528.048	800.000	0.029	0.104
-527.033	428.456	0.151	0.324
-526.018	-42.402	-0.252	0.128
-525.004	145.219	-0.316	0.420
-523.989	800.000	-0.041	0.165
-522.975	132.352	0.247	-0.317
-521.960	-6.541	-0.282	-0.191
-520.945	23.394	-0.150	-0.122
-519.931	-200.000	-0.008	0.430
-518.916	335.678	0.187	0.361
-517.902	-40.467	-0.208	0.107
-516.887	362.946	0.043	-0.087
-515.872	-28.725	-0.062	-0.035
-514.858	-200.000	0.014	-0.141
-513.843	-200.000	0.012	0.117
-512.829	-175.139	0.371	0.010
-511.814	68.767	-0.084	-0.085
-510.799	-151.018	0.024	-0.002
-509.785	-6.206	-0.223	0.151
-508.770	19.782	-0.117	-0.094
-507.756	-200.000	0.025	-0.203
-506.741	189.462	-0.070	-0.104
-505.726	180.584	-0.119	0.173
-504.712	273.371	-0.077	-0.135
-503.697	800.000	-0.043	0.136
-502.683	7.599	0.146	-0.109
-501.668	-200.000	-0.020	0.172
-500.653	49.169	0.079	0.074
-499.639	800.000	-0.105	-0.362
-498.624	-200.000	0.029	-0.223
-497.610	-19.755	0.099	0.061
-496.595	800.000	-0.009	0.039
-495.581	10.463	0.027	0.021
-494.566	8.852	-0.143	-0.107
-493.551	368.150	-0.138	-0.278
-492.537	-91.135	-0.152	-0.043
-491.522	-154.100	-0.230	-0.015
-490.508	-200.000	-0.002	0.138
-489.493	64.488	-0.261	0.261
-488.478	-93.783	-0.253	0.069
-487.464	-153.873	0.244	-0.017
-486.449	-15.093	-0.311	-0.197
-485.435	16.752	0.128	0.100
-484.420	-200.000	-0.034	-0.272
-483.405	-150.484	-0.126	0.010
-482.391	325.796	0.136	0.259
-481.376	-200.000	-0.004	0.029
-480.362	118.156	-0.241	-0.294
-479.347	75.158	-0.198	0.207
-478.332	-75.190	0.205	0.073
-477.318	800.000	-0.066	-0.188
-476.303	800.000	0.128	-0.443
-475.289	223.468	0.223	0.356
-474.274	-200.000	-0.033	0.211
-473.259	-200.000	-0.001	-0.103
-472.245	5.849	0.113	0.083
-471.230	12.092	0.148	0.113
-470.216	-57.724	0.221	-0.096
-469.201	476.409	-0.083	-0.186
-468.186	-110.727	-0.264	-0.054
-467.172	640.810	0.068	0.171
-466.157	-200.000	0.003	0.167
-465.143	-0.029	0.067	0.047
-464.128	-59.426	-0.252	0.108
-463.113	-130.101	0.286	0.039
-462.099	-200.000	-0.037	-0.161
-461.084	105.346	0.180	-0.210
-460.070	-61.435	0.116	0.048
-459.055	800.000	-0.045	0.137
-458.040	800.000	-0.029	0.089
-457.026	48.137	-0.229	0.212
-456.011	385.331	0.215	-0.439
-454.997	-170.564	0.092	-0.003
-453.982	800.000	-0.094	0.337
-452.968	191.825	0.042	0.062
-451.953	800.000	-0.157	-0.432
-450.938	164.336	0.140	0.196
-449.924	136.541	0.093	0.121
-448.909	-19.360	-0.024	0.015
-447.895	192.849	-0.041	-0.061
-446.880	92.004	0.413	-0.460
-445.865	-200.000	0.008	0.144
-444.851	222.003	-0.139	-0.222
-443.836	215.447	-0.107	-0.169
-442.822	-103.388	-0.142	-0.033
-441.807	-160.975	0.162	0.008
-440.792	-51.837	-0.227	0.105
-439.778	263.190	0.062	0.106
-438.763	345.530	0.013	-0.025
-437.749	342.593	0.076	-0.147
-436.734	800.000	0.099	-0.306
-435.719	-200.000	0.004	-0.243
-434.705	-77.599	0.327	0.112
-433.690	-200.000	-0.042	0.215
-432.676	-73.764	-0.122	0.044
-431.661	-55.166	-0.148	-0.066
-430.646	604.173	0.089	0.218
-429.632	-168.199	-0.116	0.004
-428.617	-119.533	0.403	0.069
-427.603	-124.257	-0.093	0.014
-426.588	-104.421	0.191	-0.044
-425.573	-78.597	-0.258	-0.087
-424.559	-200.000	0.259	0.000
-423.544	67.611	0.299	0.302
-422.530	352.920	-0.183	-0.358
-421.515	25.686	-0.037	0.030
-420.500	364.481	0.097	0.193
-419.486	23.750	0.209	-0.171
-418.471	-200.000	-0.023	0.169
-417.457	39.596	0.178	-0.158
-416.442	-94.282	0.049	-0.013
-415.428	-47.337	0.099	-0.048
-414.413	458.908	-0.222	-0.489
-413.398	-59.344	0.148	0.063
-412.384	-200.000	0.079	0.000
-411.369	-200.000	0.010	-0.108
-410.355	-200.000	-0.009	-0.151
-409.340	800.000	-0.115	-0.340
-408.325	-80.488	0.056	0.018
-407.311	800.000	-0.092	-0.302
-406.296	-171.865	0.121	-0.004
-405.282	-200.000	0.003	0.104
-404.267	5.757	0.289	0.211
-403.252	108.694	-0.077	-0.090
-402.238	-40.990	-0.157	0.080
-401.223	32.114	-0.188	-0.160
-400.209	-125.933	-0.212	0.032
-399.194	800.000	0.025	-0.074
-398.179	242.313	-0.089	-0.147
-397.165	-52.638	0.249	0.113
-396.150	-76.719	0.170	0.059
-395.136	-122.048	-0.410	0.067
-394.121	800.000	0.051	0.200
-393.106	-11.714	-0.072	-0.047
-392.092	163.559	0.238	-0.330
-391.077	546.603	0.149	0.352
-390.063	-101.405	0.156	0.038
-389.048	30.943	-0.181	0.153
-388.033	88.759	0.231	0.254
-387.019	-17.949	-0.138	-0.086
-386.004	-121.638	-0.176	-0.029
-384.990	382.912	0.125	0.255
-383.975	-200.000	0.026	0.546
-382.960	50.848	0.169	0.158
-381.946	-37.007	-0.149	-0.079
-380.931	-81.477	-0.171	-0.056
-379.917	800.000	0.028	0.099
-378.902	-54.954	-0.351	0.156
-377.888	-200.000	-0.015	0.295
-376.873	220.833	0.199	0.315
-375.858	23.121	0.289	0.234
-374.844	256.480	0.056	0.095
-373.829	27.263	-0.166	0.138
-372.815	-120.203	-0.151	-0.026
-371.800	-111.148	-0.299	0.060
-370.785	31.898	0.281	-0.239
-369.771	-177.216	0.275	0.007
-368.756	-0.926	-0.307	0.215
-367.742	-13.070	0.282	-0.181
-366.727	-200.000	-0.001	0.045
-365.712	-200.000	-0.007	-0.215
-364.698	-200.000	-0.014	0.144
-363.683	800.000	-0.035	0.115
-362.669	800.000	-0.007	0.022
-361.654	-200.000	-0.003	0.083
-360.639	12.473	0.179	-0.136
-359.625	493.852	-0.115	0.260
-358.610	111.283	0.019	0.023
-357.596	-200.000	0.069	0.333
-356.581	-79.456	-0.206	-0.069
-355.566	-100.181	0.281	-0.069
-354.552	-125.136	0.110	0.017
-353.537	-160.446	0.296	0.016
-352.523	714.816	0.073	0.191
-351.508	260.815	0.144	-0.247
-350.493	-131.157	0.237	-0.031
-349.479	-22.259	-0.354	0.212
-348.464	-137.493	0.084	0.009
-347.450	-116.190	0.049	0.009
-346.435	117.262	0.196	0.238
-345.420	-93.719	0.139	-0.038
-344.406	-200.000	-0.039	0.267
-343.391	800.000	0.045	-0.146
-342.377	11.280	0.306	-0.231
-341.362	199.642	-0.032	0.049
-340.348	-200.000	0.041	0.472
-339.333	-163.518	-0.363	-0.017
-338.318	-4.898	-0.221	-0.150
-337.304	-118.508	-0.190	-0.033
-336.289	310.345	-0.154	0.285
-335.275	60.406	-0.131	0.128
-334.260	-62.308	0.156	0.064
-333.245	-48.506	-0.369	-0.175
-332.231	-200.000	-0.014	-0.079
-331.216	-200.000	-0.006	-0.265
-330.202	746.154	0.017	0.046
-329.187	140.918	-0.156	0.203
-328.172	74.684	-0.197	-0.204
-327.158	-179.512	-0.258	0.006
-326.143	317.953	0.231	0.431
-325.129	-176.864	-0.092	-0.002
-324.114	143.134	-0.100	-0.132
-323.099	-149.930	-0.119	0.009
-322.085	7.767	0.232	0.171
-321.070	-89.697	0.446	-0.129
-320.056	800.000	0.079	-0.319
-319.041	-81.916	-0.155	-0.050
-318.026	-175.711	0.190	-0.005
-317.012	171.275	0.039	0.056
-315.997	-9.350	-0.269	-0.177
-314.983	-8.506	0.196	0.130
-313.968	771.965	0.036	0.097
-312.953	197.126	-0.020	0.030
-311.939	-192.093	0.313	0.003
-310.924	125.365	0.117	0.145
-309.910	1.728	0.303	-0.215
-308.895	26.451	0.041	0.034
-307.880	223.318	0.135	-0.214
-306.866	-200.000	-0.080	-0.374
-305.851	800.000	-0.039	0.137
-304.837	-55.385	-0.132	0.059
-303.822	-52.242	0.178	0.081
-302.807	610.513	0.093	0.229
-301.793	-74.301	-0.172	0.061
-300.778	61.367	0.100	0.098
-299.764	-59.481	-0.213	-0.090
-298.749	31.155	0.090	-0.076
-297.735	63.693	0.393	-0.389
-296.720	474.122	-0.140	-0.312
-295.705	-9.345	0.204	0.134
-294.691	-76.941	0.137	-0.047
-293.676	-79.206	-0.333	-0.111
-292.662	65.405	-0.121	-0.121
-291.647	-159.450	0.078	0.004
-290.632	749.714	-0.051	-0.136
-289.618	-200.000	-0.046	0.331
-288.603	-65.601	-0.171	0.068
-287.589	-11.562	0.151	-0.098
-286.574	381.498	-0.102	0.206
-285.559	553.155	0.054	0.128
-284.545	-137.261	0.150	0.017
-283.530	800.000	0.113	0.325
-282.516	-200.000	0.024	-0.229
-281.501	-200.000	0.008	0.272
-280.486	314.270	-0.080	0.148
-279.472	-200.000	0.031	-0.312
-278.457	57.782	0.251	-0.242
-277.443	-131.628	-0.101	-0.013
-276.428	-112.883	-0.092	0.018
-275.413	-54.755	0.072	-0.032
-274.399	-78.233	-0.259	-0.088
-273.384	800.000	0.032	-0.101
-272.370	-109.754	0.061	0.013
-271.355	-69.348	0.062	-0.023
-270.340	-53.617	-0.254	-0.114
-269.326	608.737	-0.127	0.311
-268.311	-69.618	0.136	-0.051
-267.297	-200.000	0.007	0.349
-266.282	-139.154	-0.264	-0.028
-265.267	-200.000	0.022	-0.390
-264.253	-98.322	0.284	-0.072
-263.238	-9.137	0.331	-0.218
-262.224	45.889	0.222	0.202
-261.209	-200.000	-0.053	-0.355
-260.195	-64.640	0.037	0.015
-259.180	32.521	0.306	0.260
-258.165	-200.000	0.022	-0.146
-257.151	-151.390	-0.284	-0.021
-256.136	-200.000	-0.010	-0.175
-255.122	136.392	-0.142	-0.182
-254.107	148.862	0.013	-0.017
-253.092	-200.000	0.049	0.349
-252.078	518.950	-0.070	-0.161
-251.063	-37.921	0.063	0.033
-250.049	800.000	-0.042	-0.117
-249.034	-162.512	0.229	-0.011
-248.019	-200.000	0.042	-0.193
-247.005	129.560	-0.111	0.139
-245.990	147.541	0.179	0.238
-244.976	223.167	0.091	0.144
-243.961	-88.937	-0.349	0.102
-242.946	-173.143	0.364	-0.011
-241.932	-101.773	0.247	-0.059
-240.917	-81.644	-0.312	-0.101
-239.903	65.551	-0.322	-0.320
-238.888	188.123	-0.237	-0.348
-237.873	251.266	0.122	0.203
-236.859	6.407	-0.291	-0.213
-235.844	262.248	-0.035	0.060
-234.830	-200.000	-0.021	0.259
-233.815	-26.234	0.193	-0.111
-232.800	38.610	0.177	-0.155
-231.786	-45.900	0.043	-0.021
-230.771	178.062	0.146	0.209
-229.757	-49.969	0.058	-0.027
-228.742	-31.489	-0.159	-0.088
-227.727	-109.812	0.116	-0.024
-226.713	-3.778	-0.246	-0.168
-225.698	-127.992	0.074	-0.010
-224.684	-98.718	0.064	-0.016
-223.669	62.580	0.065	-0.064
-222.655	343.751	0.078	-0.150
-221.640	-155.548	0.041	-0.003
-220.625	-45.413	0.254	0.124
-219.611	369.796	0.060	0.119
-218.596	624.902	0.153	0.378
-217.582	361.268	0.192	0.378
-216.567	-125.130	0.251	-0.038
-215.552	574.824	-0.059	-0.142
-214.538	611.640	-0.100	0.245
-213.523	-93.469	0.130	-0.035
-212.509	-141.796	0.323	0.032
-211.494	-200.000	0.008	0.324
-210.479	157.718	0.126	0.172
-209.465	-200.000	0.030	0.174
-208.450	-200.000	-0.017	0.105
-207.436	440.346	0.198	-0.426
-206.421	-200.000	-0.012	0.081
-205.406	-200.000	0.020	0.095
-204.392	-200.000	0.002	-0.011
-203.377	250.693	-0.080	-0.133
-202.363	800.000	0.061	-0.171
-201.348	-53.873	-0.330	0.147
-200.333	388.621	0.155	-0.315
-199.319	127.492	-0.183	-0.228
-198.304	-115.851	-0.111	-0.020
-197.290	-126.423	0.298	0.044
-196.275	213.359	-0.179	0.278
-195.260	484.893	0.010	-0.023
-194.246	-23.607	-0.079	0.047
-193.231	-45.688	0.087	0.042
-192.217	-200.000	-0.020	-0.243
-191.202	41.728	-0.115	0.102
-190.187	800.000	0.058	-0.226
-189.173	-159.434	0.210	0.012
-188.158	-71.513	-0.393	0.144
-187.144	-200.000	0.038	0.373
-186.129	-200.000	0.055	0.268
-185.114	39.175	0.191	-0.168
-184.100	177.163	-0.055	0.079
-183.085	-180.133	-0.347	-0.007
-182.071	-200.000	0.038	-0.463
-181.056	800.000	-0.021	-0.073
-180.042	-112.916	-0.441	-0.086
-179.027	149.641	0.189	-0.251
-178.012	140.813	0.102	-0.132
-176.998	800.000	0.019	0.077
-175.983	-200.000	0.005	-0.029
-174.969	69.233	-0.109	-0.110
-173.954	800.000	0.054	0.188
-172.939	399.273	0.173	-0.356
-171.925	-200.000	0.048	0.221
-170.910	-154.873	0.336	-0.022
-169.896	800.000	-0.045	-0.175
-168.881	583.497	0.058	0.140
-167.866	-140.644	0.218	0.022
-166.852	-2.901	0.073	0.050
-165.837	-200.000	-0.011	-0.209
-164.823	204.296	0.049	0.075
-163.808	-200.000	-0.010	-0.377
-162.793	-97.835	-0.073	-0.018
-161.779	-93.116	-0.202	0.055
-160.764	-34.030	0.344	0.186
-159.750	800.000	-0.028	-0.112
-158.735	-125.639	0.196	0.029
-157.720	461.372	0.065	-0.142
-156.706	-20.536	0.282	-0.170
-155.691	301.491	0.158	-0.285
-154.677	-200.000	-0.028	-0.291
-153.662	-89.582	-0.425	-0.122
-152.647	41.324	0.108	-0.096
-151.633	479.418	0.037	0.082
-150.618	-78.551	0.635	0.213
-149.604	-157.192	-0.102	-0.006
-148.589	-200.000	0.037	-0.274
-147.574	38.291	-0.305	-0.266
-146.560	-200.000	0.001	-0.107
-145.545	-115.297	0.329	0.061
-144.531	-0.913	0.245	-0.170
-143.516	-200.000	-0.005	-0.083
-142.502	-28.667	0.050	0.028
-141.487	-19.048	0.235	0.143
-140.472	20.290	-0.392	0.310
-139.458	-88.235	-0.145	0.043
-138.443	-38.098	-0.152	0.079
-137.429	77.330	0.226	-0.235
-136.414	-25.913	-0.145	0.083
-135.399	190.075	0.087	0.128
-134.385	-178.004	0.111	-0.003
-133.370	407.410	-0.018	0.038
-132.356	-84.336	-0.033	0.010
-131.341	-121.242	0.321	0.052
-130.326	-200.000	0.041	0.307
-129.312	147.034	0.034	-0.045
-128.297	-1.716	-0.090	-0.062
-127.283	365.620	-0.091	-0.179
-126.268	-143.873	0.221	0.020
-125.253	800.000	0.020	0.057
-124.239	-130.504	0.346	-0.046
-123.224	301.532	0.088	0.159
-122.210	508.069	-0.130	0.295
-121.195	-200.000	0.059	0.257
-120.180	-200.000	-0.077	-0.396
-119.166	-47.090	-0.151	0.072
-118.151	104.065	-0.100	0.115
-117.137	-50.009	-0.139	0.065
-116.122	36.134	-0.098	0.085
-115.107	-116.215	0.290	-0.053
-114.093	-28.230	0.179	0.101
-113.078	-107.358	-0.237	0.051
-112.064	21.564	0.154	-0.122
-111.049	-84.275	-0.136	0.042
-110.034	-142.305	0.125	0.012
-109.020	-200.000	-0.525	-0.002
-108.005	85.948	-0.155	0.167
-106.991	1.986	0.115	-0.081
-105.976	210.169	0.124	0.190
-104.962	17.960	0.164	-0.128
-103.947	383.193	-0.170	-0.342
-102.932	-200.000	0.051	-0.334
-101.918	-109.621	-0.211	-0.044
-100.903	-69.267	0.244	0.091
-99.889	87.403	-0.210	-0.227
-98.874	616.062	0.028	0.069
-97.859	-158.375	-0.147	-0.008
-96.845	554.892	0.105	0.246
-95.830	-151.861	0.152	0.011
-94.816	-200.000	-0.004	0.326
-93.801	-115.156	0.397	-0.073
-92.786	108.507	0.050	0.058
-91.772	280.763	0.207	-0.363
-90.757	50.393	-0.032	0.029
-89.743	32.269	-0.127	0.107
-88.728	95.626	-0.245	0.274
-87.713	-117.352	-0.222	0.039
-86.699	222.975	0.029	0.045
-85.684	-200.000	0.001	0.037
-84.670	109.487	-0.226	-0.264
-83.655	-31.363	-0.053	0.029
-82.640	-93.884	0.102	0.027
-81.626	-3.929	0.087	-0.059
-80.611	171.362	-0.086	0.120
-79.597	486.706	0.065	-0.146
-78.582	161.364	-0.212	0.289
-77.567	-139.159	-0.120	-0.013
-76.553	-200.000	0.018	0.084
-75.538	-59.529	-0.295	-0.124
-74.524	-53.696	-0.181	-0.081
-73.509	579.602	0.127	-0.303
-72.494	-1.917	-0.304	-0.209
-71.480	467.399	0.151	-0.331
-70.465	92.864	-0.266	0.293
-69.451	197.537	0.067	0.100
-68.436	-148.366	-0.116	0.009
-67.422	-59.297	0.125	-0.053
-66.407	317.806	-0.146	-0.269
-65.392	-115.872	0.197	-0.036
-64.378	-6.127	-0.156	-0.104
-63.363	-75.455	0.352	0.122
-62.349	-68.515	-0.161	-0.061
-61.334	68.165	-1.232	-1.231
-60.319	628.658	0.290	0.714
-59.305	-200.000	-0.143	-1.398
-58.290	452.831	0.642	1.385
-57.276	252.057	0.973	1.617
-56.261	-200.000	121.773	620.082
-55.246	392.806	1564.932	3175.561
-54.232	142.596	2727.571	3534.505
-53.217	94.380	2191.389	2428.019
-52.203	34.656	1706.921	1455.316
-51.188	27.241	1524.601	1249.103
-50.173	25.341	1500.351	1216.334
-49.159	47.378	1568.936	1425.890
-48.144	45.338	1582.948	1424.368
-47.130	27.333	1532.594	1256.090
-46.115	24.502	1517.117	1223.982
-45.100	24.333	1513.456	1219.823
-44.086	24.264	1511.766	1217.944
-43.071	24.299	1509.458	1216.273
-42.057	24.307	1507.726	1214.886
-41.042	24.364	1506.011	1213.842
-40.027	24.330	1504.723	1212.521
-39.013	24.221	1503.209	1210.511
-37.998	24.093	1502.963	1209.401
-36.984	24.218	1500.705	1208.380
-35.969	24.159	1499.604	1207.047
-34.954	24.254	1497.916	1206.283
-33.940	24.207	1496.943	1205.136
-32.925	24.249	1495.314	1204.057
-31.911	24.289	1494.151	1203.341
-30.896	24.254	1492.998	1202.132
-29.881	24.303	1492.020	1201.630
-28.867	24.311	1490.336	1200.274
-27.852	24.219	1489.194	1198.689
-26.838	24.339	1487.732	1198.276
-25.823	24.292	1485.984	1196.499
-24.809	24.303	1484.076	1194.994
-23.794	24.344	1482.877	1194.253
-22.779	24.318	1482.151	1193.450
-21.765	24.339	1480.680	1192.356
-20.750	24.360	1479.332	1191.366
-19.736	24.282	1478.653	1190.247
-18.721	24.240	1477.625	1189.096
-17.706	24.263	1476.488	1188.285
-16.692	24.282	1475.572	1187.628
-15.677	24.342	1474.383	1187.019
-14.663	24.347	1473.489	1186.291
-13.648	24.217	1473.008	1184.993
-12.633	24.223	1472.078	1184.232
-11.619	24.106	1471.092	1182.620
-10.604	24.209	1470.296	1182.611
-9.590	24.198	1469.170	1181.591
-8.575	24.248	1467.977	1180.915
-7.560	24.171	1467.383	1179.877
-6.546	24.309	1466.310	1179.883
-5.531	24.225	1465.269	1178.444
-4.517	24.180	1464.521	1177.494
-3.502	24.124	1463.672	1176.397
-2.487	24.165	1462.850	1175.963
-1.473	24.171	1461.617	1174.962
-0.458	24.199	1460.899	1174.525
0.556	22.624	1450.588	1163.897
1.571	19.960	1426.982	1127.528
2.586	16.936	1364.584	1059.270
3.600	15.497	1281.346	986.123
4.615	14.484	1237.534	946.575
5.629	12.549	1180.385	892.294
6.644	6.051	1097.851	796.954
7.659	0.955	1061.189	745.238
8.673	0.372	1055.908	738.606
9.688	0.264	1052.304	735.492
10.702	0.179	1050.951	734.068
11.717	0.086	1048.914	732.130
12.731	2.231	1050.173	743.382
13.746	8.791	1059.268	781.858
14.761	14.742	1066.767	816.494
15.775	16.599	1068.751	827.027
16.790	16.335	1067.507	824.704
17.804	15.439	1065.208	818.488
18.819	14.568	1063.170	812.605
19.834	14.130	1062.135	809.613
20.848	13.909	1060.995	807.597
21.863	13.659	1060.219	805.718
22.877	13.522	1059.275	804.265
23.892	13.181	1058.798	802.176
24.907	13.098	1058.058	801.141
25.921	13.115	1057.432	800.681
26.936	13.168	1056.770	800.364
27.950	13.212	1055.822	799.788
28.965	13.135	1055.425	799.045
29.980	13.203	1054.159	798.343
30.994	13.371	1053.013	798.214
32.009	13.374	1052.210	797.551
33.023	13.422	1051.556	797.215
34.038	13.341	1050.860	796.230
35.053	13.228	1050.013	794.973
36.067	13.319	1048.833	794.446
37.082	13.203	1048.593	793.639
38.096	13.269	1047.381	792.964
39.111	13.249	1046.790	792.353
40.126	13.269	1045.565	791.453
41.140	13.292	1044.183	790.445
42.155	13.174	1043.731	789.469
43.169	13.138	1043.000	788.675
44.184	13.131	1041.267	787.262
45.199	13.166	1040.459	786.747
46.213	13.179	1039.709	786.173
47.228	13.218	1038.550	785.413
48.242	13.182	1037.883	784.665
49.257	13.259	1036.746	784.102
50.271	13.259	1035.959	783.440
51.286	13.209	1034.821	782.271
52.301	13.260	1034.294	782.044
53.315	13.233	1033.198	781.021
54.330	13.338	1032.366	780.818
55.344	13.145	1031.927	779.505
56.359	13.121	1030.737	778.422
57.374	13.094	1029.924	777.615
58.388	13.098	1029.228	777.039
59.403	13.178	1028.133	776.521
60.417	13.199	1027.435	776.023
61.432	13.132	1026.678	775.067
62.447	13.175	1025.868	774.591
63.461	13.180	1024.783	773.724
64.476	13.092	1024.168	772.781
65.490	13.070	1023.331	771.975
66.505	13.042	1022.631	771.250
67.520	13.091	1021.958	770.901
68.534	13.118	1021.222	770.405
69.549	13.115	1020.411	769.714
70.563	13.251	1019.674	769.723
71.578	13.102	1019.241	768.634
72.593	13.117	1017.894	767.621
73.607	12.921	1017.369	766.243
74.622	13.017	1016.140	765.697
75.636	12.943	1015.668	764.929
76.651	13.188	1013.956	764.709
77.666	12.993	1014.348	764.031
78.680	13.062	1013.136	763.372
79.695	13.103	1012.033	762.661
80.709	13.079	1011.986	762.450
81.724	13.176	1010.943	762.043
82.739	13.137	1010.492	761.455
83.753	13.172	1009.662	760.925
84.768	13.170	1008.980	760.333
85.782	13.210	1007.838	759.591
86.797	13.351	1007.125	759.633
87.812	13.333	1006.319	758.876
88.826	13.286	1005.502	757.975
89.841	13.088	1004.777	756.452
90.855	13.236	1003.975	756.459
91.870	13.257	1003.486	756.122
92.884	13.345	1002.353	755.602
93.899	13.303	1001.837	754.956
94.914	13.257	1001.125	754.144
95.928	13.362	1000.264	753.906
96.943	13.455	999.572	753.739
97.957	13.535	998.276	753.059
98.972	13.276	998.069	751.660
99.987	13.460	996.741	751.431
101.001	13.283	996.766	750.577
102.016	13.393	995.509	750.065
103.030	13.297	994.953	749.143
104.045	13.361	993.946	748.607
105.060	13.368	992.658	747.606
106.074	13.454	991.614	747.140
107.089	13.314	990.859	745.873
108.103	13.190	990.400	744.903
109.118	13.198	989.696	744.343
110.133	13.261	988.504	743.665
111.147	13.161	987.674	742.526
112.162	13.240	986.907	742.236
113.176	13.266	986.609	742.063
114.191	13.284	985.693	741.392
115.206	13.146	984.469	739.785
116.220	13.390	983.209	739.867
117.235	13.258	982.744	738.859
118.249	13.348	982.074	738.693
119.264	13.345	980.788	737.647
120.279	13.357	979.764	736.866
121.293	13.174	979.469	735.763
122.308	13.248	978.769	735.500
123.322	13.102	978.467	734.560
124.337	13.219	976.843	733.797
125.352	13.218	975.751	732.905
126.366	13.184	975.013	732.134
127.381	13.211	973.673	731.185
128.395	13.248	972.413	730.337
129.410	13.240	971.420	729.491
130.424	13.315	970.429	729.014
131.439	13.320	969.912	728.580
132.454	13.332	969.142	727.990
133.468	13.281	968.148	726.955
134.483	13.326	967.302	726.454
135.497	13.157	966.933	725.369
136.512	13.221	966.382	725.173
137.527	13.370	965.292	724.947
138.541	13.378	964.217	724.108
139.556	13.368	963.939	723.791
140.570	13.321	962.847	722.702
141.585	13.331	962.245	722.230
142.600	13.405	961.678	722.065
143.614	13.363	960.943	721.267
144.629	13.424	960.058	720.805
145.643	13.435	959.501	720.370
146.658	13.515	958.008	719.531
147.673	13.434	957.526	718.756
148.687	13.494	956.478	718.166
149.702	13.450	955.346	717.059
150.716	13.332	954.960	716.197
151.731	13.469	953.930	715.952
152.746	13.458	953.516	715.531
153.760	13.483	952.417	714.751
154.775	13.473	952.138	714.437
155.789	13.563	950.984	713.894
156.804	13.553	950.270	713.254
157.819	13.472	949.564	712.312
158.833	13.505	949.017	711.980
159.848	13.659	948.560	712.237
160.862	13.707	947.709	711.741
161.877	13.580	947.060	710.645
162.892	13.638	946.217	710.198
163.906	13.594	945.528	709.430
164.921	13.622	944.316	708.576
165.935	13.560	943.677	707.771
166.950	13.509	942.563	706.653
167.964	13.567	941.420	705.982
168.979	13.595	940.717	705.512
169.994	13.608	939.733	704.764
171.008	13.641	938.810	704.154
172.023	13.612	938.434	703.684
173.037	13.770	937.571	703.644
174.052	13.689	936.922	702.752
175.067	13.762	935.690	702.076
176.081	13.723	935.242	701.514
177.096	13.622	934.181	700.227
178.110	13.661	933.357	699.711
179.125	13.695	932.597	699.222
180.140	13.673	931.851	698.511
181.154	13.730	931.113	698.134
182.169	13.719	930.956	697.909
183.183	13.681	930.359	697.242
184.198	13.786	929.139	696.704
185.213	13.812	928.782	696.485
186.227	13.820	927.918	695.811
187.242	13.870	927.683	695.779
188.256	13.911	926.802	695.230
189.271	13.905	926.585	694.980
190.286	13.897	925.253	693.889
191.300	13.800	924.625	692.951
192.315	13.740	923.814	692.030
193.329	13.703	922.811	691.064
194.344	13.766	922.351	690.922
195.359	13.659	921.757	689.969
196.373	13.820	921.650	690.499
197.388	13.955	920.735	690.312
198.402	13.984	920.385	690.110
199.417	13.935	920.391	689.848
200.432	14.080	919.569	689.772
201.446	14.064	919.103	689.297
202.461	14.116	918.569	689.050
203.475	14.210	917.694	688.721
204.490	14.171	917.407	688.284
205.504	14.196	916.224	687.441
206.519	14.089	915.726	686.562
207.534	14.153	915.074	686.277
208.548	14.123	914.466	685.636
209.563	14.065	913.777	684.822
210.577	14.135	913.122	684.558
211.592	14.182	912.565	684.271
212.607	14.257	911.612	683.807
213.621	14.355	910.742	683.494
214.636	14.226	910.432	682.671
215.650	14.177	909.816	681.949
216.665	14.276	909.317	681.920
217.680	14.291	908.821	681.549
218.694	14.282	908.452	681.177
219.709	14.368	908.027	681.149
220.723	14.319	907.235	680.295
221.738	14.261	906.334	679.322
222.753	14.281	905.817	678.956
223.767	14.393	905.224	678.908
224.782	14.398	904.256	678.142
225.796	14.386	903.569	677.518
226.811	14.531	902.582	677.307
227.826	14.360	902.169	676.242
228.840	14.513	901.271	676.130
229.855	14.431	901.154	675.649
230.869	14.463	900.070	674.906
231.884	14.399	899.509	674.168
232.899	14.388	898.784	673.519
233.913	14.462	898.182	673.310
234.928	14.497	897.198	672.652
235.942	14.472	896.499	671.968
236.957	14.467	895.981	671.500
237.972	14.335	895.525	670.568
238.986	14.492	894.613	670.455
240.001	14.555	893.768	670.018
241.015	14.516	892.974	669.206
242.030	14.496	892.304	668.565
243.045	14.648	891.702	668.663
244.059	14.588	891.338	668.089
245.074	14.546	890.874	667.514
246.088	14.737	890.017	667.578
247.103	14.699	889.461	666.952
248.117	14.732	888.694	666.449
249.132	14.640	888.587	665.941
250.147	14.683	887.950	665.577
251.161	14.884	887.330	665.855
252.176	14.842	886.707	665.158
253.190	14.914	885.887	664.774
254.205	14.907	885.007	664.025
255.220	14.976	884.339	663.741
256.234	14.943	883.984	663.284
257.249	14.832	883.423	662.362
258.263	15.032	882.808	662.635
259.278	15.039	882.362	662.271
260.293	15.084	881.933	662.066
261.307	15.000	881.344	661.236
262.322	15.119	880.267	660.836
263.336	15.086	879.709	660.229
264.351	15.140	879.431	660.176
265.366	15.170	878.542	659.570
266.380	15.088	878.125	658.876
267.395	15.298	877.294	659.016
268.409	15.275	876.316	658.133
269.424	15.213	875.746	657.404
270.439	15.189	874.733	656.492
271.453	15.221	874.391	656.305
272.468	15.222	873.161	655.326
273.482	15.122	873.064	654.803
274.497	15.092	872.759	654.399
275.512	15.174	871.665	653.843
276.526	15.174	870.831	653.159
277.541	15.150	870.448	652.718
278.555	15.188	870.058	652.519
279.570	15.349	869.551	652.706
280.585	15.331	869.023	652.181
281.599	15.464	867.980	651.860
282.614	15.330	867.548	650.956
283.628	15.313	866.804	650.276
284.643	15.233	866.780	649.887
285.657	15.268	865.971	649.360
286.672	15.425	865.416	649.493
287.687	15.476	864.742	649.130
288.701	15.404	864.366	648.509
289.716	15.405	864.203	648.335
290.730	15.290	863.567	647.356
291.745	15.345	862.882	646.997
292.760	15.573	861.654	646.898
293.774	15.433	861.514	646.196
294.789	15.555	860.678	645.982
295.803	15.473	859.946	645.061
296.818	15.505	859.525	644.810
297.833	15.440	858.603	643.813
298.847	15.491	857.964	643.469
299.862	15.588	857.626	643.531
300.876	15.485	857.190	642.753
301.891	15.602	856.332	642.500
302.906	15.683	855.360	642.023
303.920	15.794	854.585	641.810
304.935	15.684	854.160	641.012
305.949	15.746	853.854	640.963
306.964	15.894	852.730	640.626
307.979	15.666	852.332	639.404
308.993	15.906	851.520	639.647
310.008	15.740	851.358	638.842
311.022	15.850	850.458	638.526
312.037	15.783	850.124	637.965
313.052	15.829	849.541	637.644
314.066	15.776	849.242	637.164
315.081	15.773	848.412	636.472
316.095	15.790	847.928	636.119
317.110	15.790	847.301	635.592
318.125	15.950	846.531	635.561
319.139	15.764	846.529	634.802
320.154	15.732	846.093	634.300
321.168	15.903	845.265	634.266
322.183	15.969	844.852	634.149
323.197	15.950	844.460	633.727
324.212	16.000	843.656	633.253
325.227	15.946	842.904	632.430
326.241	15.921	842.500	631.977
327.256	15.952	842.034	631.691
328.270	16.029	841.550	631.557
329.285	16.011	840.783	630.859
330.300	16.049	840.300	630.583
331.314	15.941	839.804	629.750
332.329	15.927	839.230	629.214
333.343	16.106	838.385	629.193
334.358	16.214	837.818	629.112
335.373	16.025	837.857	628.383
336.387	16.043	837.064	627.799
337.402	16.157	836.640	627.849
338.416	16.138	835.873	627.148
339.431	16.243	835.290	627.044
340.446	16.156	834.905	626.380
341.460	16.171	833.955	625.665
342.475	16.341	833.585	625.963
343.489	16.364	832.960	625.522
344.504	16.273	832.786	625.000
345.519	16.205	832.274	624.308
346.533	16.357	831.702	624.387
347.548	16.299	831.204	623.744
348.562	16.146	830.868	622.872
349.577	16.256	830.519	622.959
350.592	16.393	829.653	622.762
351.606	16.226	828.905	621.527
352.621	16.407	828.567	621.885
353.635	16.352	828.165	621.329
354.650	16.389	828.018	621.298
355.665	16.365	827.613	620.850
356.679	16.471	826.724	620.517
357.694	16.479	826.249	620.138
358.708	16.535	825.643	619.830
359.723	16.330	825.269	618.747
360.738	16.565	824.551	619.013
361.752	16.488	824.214	618.424
362.767	16.599	823.558	618.282
363.781	16.620	823.295	618.105
364.796	16.693	822.875	618.003
365.810	16.708	822.210	617.504
366.825	16.713	821.907	617.239
367.840	16.688	821.737	616.965
368.854	16.790	820.969	616.707
369.869	16.673	820.739	616.052
370.883	16.555	820.448	615.350
371.898	16.707	819.174	614.894
372.913	16.827	818.687	614.910
373.927	16.825	818.549	614.743
374.942	16.716	817.946	613.841
375.956	16.648	817.197	612.978
376.971	16.795	816.814	613.169
377.986	16.851	816.079	612.764
379.000	16.888	815.275	612.239
380.015	16.883	815.149	612.074
381.029	16.888	814.477	611.532
382.044	16.866	814.128	611.138
383.059	16.963	813.101	610.661
384.073	16.964	813.047	610.569
385.088	17.011	812.407	610.204
386.102	17.024	811.900	609.817
387.117	16.825	811.298	608.595
388.132	17.057	810.858	609.045
389.146	16.943	810.589	608.382
390.161	17.025	810.031	608.203
391.175	17.071	809.950	608.250
392.190	17.146	809.140	607.856
393.205	17.020	808.930	607.195
394.219	17.154	808.022	606.940
395.234	16.932	807.983	606.063
396.248	17.021	807.301	605.817
397.263	17.086	806.756	605.584
398.278	16.837	806.575	604.509
399.292	16.892	806.062	604.267
400.307	16.944	805.557	604.017
401.321	16.887	805.388	603.635
402.336	17.175	804.654	604.057
403.350	17.248	803.990	603.762
404.365	17.195	803.682	603.292
405.380	17.283	803.024	603.057
406.394	17.275	803.099	603.030
407.409	17.248	802.930	602.755
408.423	17.267	802.016	602.081
409.438	17.238	801.475	601.518
410.453	17.315	801.182	601.518
411.467	17.471	800.633	601.604
412.482	17.475	799.962	601.063
413.496	17.546	799.361	600.807
414.511	17.497	799.181	600.445
415.526	17.536	798.808	600.251
416.540	17.531	798.696	600.097
417.555	17.627	798.192	600.002
418.569	17.476	797.667	599.023
419.584	17.448	796.869	598.271
420.599	17.624	796.632	598.660
421.613	113.479	1296.751	1487.607
422.628	97.736	1369.551	1487.685
