DTS Sentinel unit serial number:	SN413079Multiplexer serial number:	ORYXHardware model number:	OX4-SRSoftware version number:	ORYX F/W v4.00 Oryx Data Collector v3.7.2.0data status	okinstallation	princeton_trtdifferential loss correction	single-endedforward channel	channel 3reverse channel	N/Adate	2019/09/12time	14:22:11forward acquisition time	60.00reverse acquisition time	0.00gamma	496.2192k internal	0.2294k external	0.2294temperature offset calibration	1.0057default loss term (dB/km)	0.3790temperature slope calibration	1.0000multiplexer offset coefficient	1.0000multiplexer slope coefficient	1.0000fibre end	0.00T internal ref (°C)	40.16T ext. ref 1 (°C)	2.28T ext. ref 2 (°C)	34.79length (m)	temperature (°C)	Stokes	anti-Stokes-747.200	33.414	0.277	-0.246
-746.185	1.898	-0.195	0.144
-745.171	19.888	-0.260	-0.215
-744.156	123.823	0.158	0.203
-743.142	-37.496	0.161	-0.088
-742.127	-156.681	-0.316	0.020
-741.112	-50.535	0.268	0.129
-740.098	800.000	0.083	0.336
-739.083	59.915	-0.172	-0.173
-738.069	-67.006	-0.209	-0.084
-737.054	-113.026	-0.183	0.037
-736.039	-84.267	-0.198	-0.064
-735.025	-119.173	0.147	0.026
-734.010	380.002	-0.158	0.331
-732.996	40.985	-0.054	0.050
-731.981	37.042	0.409	-0.370
-730.966	-128.219	-0.201	-0.029
-729.952	-200.000	0.012	-0.306
-728.937	-135.327	0.112	0.014
-727.923	-200.000	-0.024	0.120
-726.908	-112.021	0.275	-0.057
-725.894	106.114	-0.091	-0.111
-724.879	40.315	0.219	-0.201
-723.864	164.589	-0.184	0.266
-722.850	10.050	0.144	0.111
-721.835	800.000	-0.127	0.366
-720.821	-33.896	-0.175	0.099
-719.806	-200.000	0.019	-0.258
-718.791	-200.000	0.021	-0.352
-717.777	-4.458	0.373	-0.264
-716.762	200.497	0.168	-0.264
-715.748	-69.780	-0.257	-0.100
-714.733	23.946	0.096	-0.081
-713.718	-200.000	0.007	0.291
-712.704	-43.549	-0.095	0.049
-711.689	10.001	0.037	0.029
-710.675	576.766	0.080	-0.199
-709.660	332.767	-0.008	0.015
-708.645	65.374	-0.088	0.091
-707.631	-26.673	0.227	-0.136
-706.616	-200.000	-0.072	-0.371
-705.602	-200.000	-0.017	0.089
-704.587	-3.764	-0.188	0.134
-703.572	247.210	0.045	0.078
-702.558	800.000	0.123	0.379
-701.543	21.857	-0.136	0.113
-700.529	800.000	0.053	0.149
-699.514	75.498	-0.291	0.313
-698.499	-58.829	-0.272	0.120
-697.485	235.949	-0.136	0.229
-696.470	159.416	0.221	0.314
-695.456	33.647	-0.303	0.269
-694.441	800.000	0.105	0.338
-693.426	-74.453	0.208	0.077
-692.412	-89.405	0.122	0.037
-691.397	-54.186	0.104	0.048
-690.383	-99.325	-0.114	-0.029
-689.368	-94.885	0.069	0.019
-688.354	157.897	0.124	-0.176
-687.339	326.643	0.137	-0.268
-686.324	-85.407	-0.110	-0.035
-685.310	-200.000	0.035	-0.316
-684.295	800.000	-0.033	-0.131
-683.281	-200.000	0.034	-0.283
-682.266	-200.000	-0.006	-0.157
-681.251	47.073	-0.136	0.129
-680.237	-87.162	-0.162	-0.050
-679.222	302.522	0.036	0.067
-678.208	-108.726	-0.065	-0.014
-677.193	-196.136	-0.254	-0.002
-676.178	-61.877	0.300	0.128
-675.164	83.856	0.364	-0.405
-674.149	-10.790	-0.221	-0.149
-673.135	121.402	-0.135	0.171
-672.120	129.067	-0.139	-0.181
-671.105	-166.132	-0.239	0.010
-670.091	800.000	0.022	-0.086
-669.076	-130.756	-0.176	0.024
-668.062	-51.018	-0.495	0.237
-667.047	-10.800	0.289	0.195
-666.032	800.000	0.066	0.225
-665.018	-112.070	-0.156	-0.032
-664.003	-52.405	0.089	-0.042
-662.989	-38.984	-0.180	0.097
-661.974	121.064	-0.149	0.189
-660.959	204.900	0.143	0.226
-659.945	800.000	-0.069	-0.303
-658.930	-35.097	-0.104	0.058
-657.916	163.353	-0.131	-0.188
-656.901	23.368	0.034	-0.029
-655.886	-14.310	0.165	0.108
-654.872	376.463	-0.125	0.260
-653.857	22.009	0.220	0.183
-652.843	33.547	0.101	0.089
-651.828	326.508	-0.105	-0.204
-650.814	125.454	0.107	0.138
-649.799	224.757	0.110	-0.181
-648.784	59.267	0.078	-0.078
-647.770	-200.000	0.027	-0.126
-646.755	-84.534	0.096	0.031
-645.741	-19.529	0.120	0.076
-644.726	800.000	0.101	-0.344
-643.711	-200.000	0.033	-0.180
-642.697	174.931	-0.091	0.135
-641.682	399.340	0.128	-0.273
-640.668	-200.000	0.079	0.407
-639.653	550.036	-0.045	0.109
-638.638	157.268	0.136	-0.192
-637.624	800.000	0.036	-0.133
-636.609	-6.469	0.104	-0.072
-635.595	302.084	-0.109	0.205
-634.580	-200.000	-0.008	-0.225
-633.565	-200.000	-0.053	-0.273
-632.551	-25.921	0.134	0.080
-631.536	-200.000	0.001	-0.132
-630.522	626.822	-0.065	-0.166
-629.507	55.068	0.321	0.316
-628.492	800.000	0.057	0.205
-627.478	14.965	0.117	-0.094
-626.463	-200.000	-0.030	-0.215
-625.449	53.074	-0.143	-0.139
-624.434	575.446	-0.047	0.117
-623.419	-200.000	0.016	-0.124
-622.405	-200.000	-0.034	-0.368
-621.390	437.553	-0.111	0.246
-620.376	-127.863	0.057	-0.008
-619.361	103.967	-0.122	0.146
-618.346	1.807	-0.120	-0.088
-617.332	-15.131	-0.261	-0.170
-616.317	-73.078	-0.135	0.050
-615.303	-157.639	0.288	-0.017
-614.288	-99.831	-0.364	0.093
-613.273	800.000	-0.048	-0.139
-612.259	-200.000	-0.006	-0.105
-611.244	-200.000	-0.026	-0.397
-610.230	-112.708	-0.111	0.023
-609.215	-81.799	0.167	0.056
-608.201	-102.962	0.169	0.041
-607.186	555.172	0.153	-0.374
-606.171	143.840	-0.064	-0.087
-605.157	-23.719	0.195	0.119
-604.142	-105.720	0.046	-0.011
-603.128	374.023	-0.013	0.028
-602.113	185.622	-0.100	-0.151
-601.098	-200.000	-0.064	-0.333
-600.084	51.463	0.248	0.240
-599.069	-84.778	0.059	-0.019
-598.055	-200.000	0.002	-0.284
-597.040	-200.000	0.001	0.078
-596.025	-29.534	0.275	-0.160
-595.011	-42.226	-0.293	-0.152
-593.996	378.508	0.106	-0.220
-592.982	-8.144	0.153	0.105
-591.967	122.503	-0.180	0.228
-590.952	54.112	-0.145	-0.141
-589.938	43.421	0.026	0.024
-588.923	-200.000	0.032	-0.252
-587.909	-21.892	0.319	0.197
-586.894	56.373	-0.077	0.076
-585.879	800.000	0.018	0.052
-584.865	446.354	-0.018	-0.040
-583.850	-36.937	-0.209	-0.114
-582.836	-200.000	0.026	0.197
-581.821	-200.000	0.015	0.083
-580.806	-43.001	-0.110	0.057
-579.792	-200.000	-0.013	0.062
-578.777	-200.000	0.055	-0.331
-577.763	-200.000	-0.017	-0.564
-576.748	33.185	0.141	-0.124
-575.733	-152.391	0.134	-0.010
-574.719	10.106	-0.235	-0.181
-573.704	-132.222	0.211	0.028
-572.690	-200.000	0.043	0.481
-571.675	-35.546	0.181	0.100
-570.661	-200.000	-0.067	-0.321
-569.646	800.000	0.028	0.097
-568.631	679.574	-0.043	-0.113
-567.617	420.546	-0.049	0.107
-566.602	-161.067	0.215	0.011
-565.588	-2.344	-0.081	0.058
-564.573	14.491	-0.112	-0.089
-563.558	164.639	-0.066	0.094
-562.544	-200.000	0.022	0.188
-561.529	678.503	-0.086	0.228
-560.515	380.264	0.079	-0.165
-559.500	11.614	-0.156	0.122
-558.485	82.428	0.187	0.206
-557.471	-113.426	0.294	0.058
-556.456	257.183	-0.104	-0.182
-555.442	125.445	-0.143	0.183
-554.427	193.073	0.049	-0.076
-553.412	-90.304	-0.311	-0.092
-552.398	-200.000	0.011	0.180
-551.383	12.754	-0.189	-0.148
-550.369	0.601	-0.137	-0.099
-549.354	-57.773	-0.266	-0.118
-548.339	800.000	-0.184	-0.547
-547.325	-48.901	0.197	-0.096
-546.310	-200.000	0.017	-0.211
-545.296	-200.000	-0.076	-0.343
-544.281	33.316	0.130	0.114
-543.266	555.148	0.035	0.086
-542.252	-109.671	0.353	-0.075
-541.237	-200.000	-0.011	-0.076
-540.223	562.452	-0.098	0.241
-539.208	800.000	-0.063	0.228
-538.193	800.000	-0.119	-0.431
-537.179	-118.745	-0.070	0.013
-536.164	52.918	0.092	0.089
-535.150	800.000	-0.018	0.070
-534.135	473.330	-0.132	-0.301
-533.121	-200.000	0.005	0.382
-532.106	416.147	0.109	0.236
-531.091	11.404	-0.260	-0.202
-530.077	384.231	0.057	0.119
-529.062	-134.983	-0.139	0.017
-528.048	-200.000	-0.009	0.417
-527.033	-66.050	0.204	-0.083
-526.018	41.469	-0.015	-0.014
-525.004	-127.625	-0.261	-0.038
-523.989	-200.000	-0.046	-0.226
-522.975	126.299	-0.202	-0.259
-521.960	-142.296	0.157	-0.016
-520.945	122.064	0.034	0.043
-519.931	-9.943	-0.305	-0.206
-518.916	-77.052	0.346	0.122
-517.902	34.399	-0.174	0.154
-516.887	286.069	-0.019	0.035
-515.872	800.000	-0.046	0.157
-514.858	-110.032	-0.102	-0.022
-513.843	-16.894	-0.165	0.106
-512.829	-20.950	0.148	-0.092
-511.814	-128.802	0.423	-0.060
-510.799	-174.056	-0.249	0.007
-509.785	-43.873	0.284	0.145
-508.770	41.905	0.098	0.090
-507.756	449.620	0.062	-0.139
-506.741	-200.000	0.042	0.224
-505.726	473.507	0.039	0.088
-504.712	-200.000	0.029	0.147
-503.697	800.000	-0.101	0.306
-502.683	24.950	0.258	0.216
-501.668	-56.303	-0.204	-0.092
-500.653	-52.000	-0.203	0.095
-499.639	-84.956	-0.013	-0.004
-498.624	-92.314	-0.255	0.073
-497.610	309.271	-0.080	0.152
-496.595	278.700	0.301	0.543
-495.581	13.338	0.152	-0.119
-494.566	111.810	-0.361	0.442
-493.551	-200.000	0.009	0.130
-492.537	-200.000	-0.024	-0.219
-491.522	-63.000	-0.234	0.098
-490.508	-21.808	-0.061	0.038
-489.493	-48.801	0.132	0.064
-488.478	61.505	0.121	-0.122
-487.464	-19.152	0.184	0.116
-486.449	-39.104	0.321	0.171
-485.435	-154.372	0.227	0.015
-484.420	80.963	-0.232	0.253
-483.405	570.296	-0.037	-0.091
-482.391	-200.000	0.051	0.404
-481.376	86.265	0.106	0.119
-480.362	-80.168	0.263	0.089
-479.347	-56.842	-0.247	-0.111
-478.332	-120.744	-0.252	-0.043
-477.318	69.297	0.170	-0.177
-476.303	281.700	0.107	0.194
-475.289	-49.037	0.219	-0.106
-474.274	233.061	-0.073	-0.121
-473.259	-62.381	0.321	0.135
-472.245	270.864	-0.189	0.337
-471.230	-6.398	-0.080	-0.055
-470.216	-196.655	-0.325	0.002
-469.201	800.000	-0.059	-0.206
-468.186	107.074	0.246	0.296
-467.172	-200.000	0.046	-0.212
-466.157	-154.896	0.329	0.022
-465.143	-83.125	0.278	0.091
-464.128	389.018	0.220	0.462
-463.113	-85.072	-0.110	-0.035
-462.099	101.641	0.150	-0.177
-461.084	-187.412	-0.100	0.001
-460.070	27.282	-0.170	-0.145
-459.055	-97.504	0.217	-0.057
-458.040	252.014	0.056	0.097
-457.026	39.165	-0.149	-0.135
-456.011	-55.503	-0.319	0.144
-454.997	41.245	0.327	0.299
-453.982	84.036	0.121	-0.133
-452.968	84.326	-0.177	0.195
-451.953	-148.399	0.434	0.036
-450.938	800.000	0.069	-0.193
-449.924	-99.388	0.108	0.027
-448.909	-82.914	0.028	0.009
-447.895	-200.000	0.042	0.354
-446.880	-117.203	0.220	0.040
-445.865	-49.873	0.140	-0.067
-444.851	-200.000	0.008	0.078
-443.836	-200.000	0.039	0.321
-442.822	253.779	0.157	-0.271
-441.807	-9.273	-0.121	0.081
-440.792	694.867	0.144	0.381
-439.778	350.974	-0.102	0.205
-438.763	800.000	-0.034	0.121
-437.749	-188.397	0.142	-0.002
-436.734	462.395	-0.055	-0.123
-435.719	-165.186	-0.092	0.004
-434.705	-200.000	-0.023	-0.298
-433.690	-73.640	0.251	-0.092
-432.676	-29.591	0.136	-0.078
-431.661	265.482	-0.140	-0.246
-430.646	-200.000	-0.020	0.162
-429.632	215.723	0.203	-0.326
-428.617	-20.137	-0.156	-0.097
-427.603	227.561	-0.109	-0.179
-426.588	-200.000	0.034	0.231
-425.573	-188.302	-0.219	0.003
-424.559	58.575	-0.039	0.039
-423.544	-200.000	0.039	0.269
-422.530	511.948	-0.132	-0.310
-421.515	230.967	0.216	-0.357
-420.500	232.417	0.193	0.320
-419.486	-10.871	-0.250	0.167
-418.471	-112.827	-0.151	0.030
-417.457	800.000	-0.024	-0.078
-416.442	97.419	-0.120	0.139
-415.428	-118.565	-0.272	0.048
-414.413	11.264	-0.196	0.152
-413.398	281.987	0.154	-0.279
-412.384	37.654	0.164	-0.147
-411.369	34.860	-0.146	0.129
-410.355	-34.996	-0.276	0.152
-409.340	-65.110	-0.011	-0.005
-408.325	-200.000	0.005	-0.299
-407.311	-200.000	-0.012	0.271
-406.296	-4.887	-0.529	0.368
-405.282	229.665	-0.071	-0.117
-404.267	-200.000	0.003	-0.052
-403.252	-127.667	0.176	-0.026
-402.238	-80.857	-0.294	-0.098
-401.223	132.115	-0.177	0.230
-400.209	-200.000	0.072	0.467
-399.194	-60.831	-0.086	0.037
-398.179	-129.764	0.150	0.021
-397.165	-43.912	-0.177	-0.090
-396.150	171.021	0.042	-0.060
-395.136	-108.768	-0.103	0.022
-394.121	-82.560	0.032	0.011
-393.106	592.631	-0.030	0.074
-392.092	-141.396	-0.087	0.009
-391.077	4.840	-0.114	-0.085
-390.063	60.845	-0.381	0.381
-389.048	-160.155	-0.216	0.012
-388.033	-1.837	-0.129	-0.091
-387.019	321.076	0.051	-0.098
-386.004	-190.665	-0.223	0.002
-384.990	137.547	-0.261	-0.344
-383.975	85.277	0.211	0.233
-382.960	-200.000	-0.023	0.306
-381.946	-200.000	-0.031	0.151
-380.931	800.000	-0.025	-0.106
-379.917	-200.000	-0.030	-0.159
-378.902	-131.393	0.091	-0.012
-377.888	-195.908	0.045	0.000
-376.873	445.302	-0.103	-0.227
-375.858	-115.899	0.052	0.010
-374.844	-200.000	0.031	-0.179
-373.829	470.846	-0.201	-0.456
-372.815	-103.175	0.373	0.089
-371.800	12.103	-0.159	0.124
-370.785	417.664	0.032	0.069
-369.771	236.497	-0.056	-0.094
-368.756	-136.679	0.206	0.024
-367.742	80.898	-0.274	0.297
-366.727	150.661	0.176	-0.241
-365.712	800.000	0.011	-0.036
-364.698	-200.000	-0.016	-0.184
-363.683	201.807	-0.099	0.154
-362.669	-151.106	-0.290	0.022
-361.654	800.000	0.021	0.091
-360.639	86.984	0.121	0.135
-359.625	-55.726	-0.027	0.012
-358.610	-105.238	0.154	-0.035
-357.596	337.403	0.047	-0.093
-356.581	-120.730	0.095	0.016
-355.566	-200.000	0.028	-0.127
-354.552	-57.045	0.169	-0.075
-353.537	-52.372	0.136	-0.063
-352.523	-48.318	-0.098	-0.048
-351.508	-168.184	0.388	0.015
-350.493	-200.000	-0.020	0.115
-349.479	439.265	-0.041	0.089
-348.464	-200.000	0.075	0.535
-347.450	-104.427	0.245	-0.057
-346.435	407.679	0.081	0.172
-345.420	23.994	-0.342	0.284
-344.406	534.489	-0.013	-0.032
-343.391	72.012	0.269	-0.281
-342.377	-95.758	-0.200	-0.054
-341.362	179.143	0.214	0.316
-340.348	800.000	0.106	-0.408
-339.333	-165.229	0.358	0.016
-338.318	-9.645	0.254	0.170
-337.304	73.829	-0.217	0.229
-336.289	-200.000	0.005	0.167
-335.275	197.317	0.082	0.126
-334.260	33.505	0.114	-0.099
-333.245	-83.031	0.169	0.055
-332.231	61.077	0.253	0.252
-331.216	-60.618	-0.189	-0.081
-330.202	-189.474	0.200	0.002
-329.187	-8.529	-0.014	-0.009
-328.172	-200.000	0.035	-0.216
-327.158	-54.938	0.117	0.053
-326.143	800.000	-0.072	0.242
-325.129	-88.606	0.204	0.061
-324.114	206.507	0.152	0.238
-323.099	-173.413	-0.282	-0.009
-322.085	47.800	-0.206	-0.193
-321.070	-200.000	0.030	0.375
-320.056	-90.211	-0.256	-0.075
-319.041	-107.712	-0.359	-0.079
-318.026	800.000	0.058	0.213
-317.012	-77.854	0.085	0.030
-315.997	-145.711	0.133	-0.012
-314.983	34.130	-0.082	-0.072
-313.968	-69.037	-0.356	-0.138
-312.953	534.988	-0.129	-0.308
-311.939	312.656	-0.100	-0.189
-310.924	-200.000	0.037	0.341
-309.910	705.235	-0.062	0.166
-308.895	-111.081	0.113	-0.023
-307.880	-200.000	0.007	0.191
-306.866	-6.098	0.244	0.168
-305.851	339.367	0.093	-0.183
-304.837	-76.752	0.185	0.065
-303.822	-200.000	-0.008	0.215
-302.807	-140.877	-0.300	0.031
-301.793	4.581	0.151	0.112
-300.778	-200.000	0.047	0.311
-299.764	-13.587	-0.175	-0.114
-298.749	-200.000	-0.022	-0.322
-297.735	180.959	0.059	0.087
-296.720	-200.000	0.002	0.080
-295.705	137.485	-0.208	0.274
-294.691	-174.641	-0.207	-0.006
-293.676	-200.000	0.067	-0.592
-292.662	-200.000	-0.016	-0.113
-291.647	83.792	0.175	0.192
-290.632	-200.000	0.029	0.305
-289.618	222.586	-0.153	-0.248
-288.603	223.975	0.091	0.147
-287.589	-44.675	0.282	0.142
-286.574	8.528	0.117	0.088
-285.559	81.971	-0.077	-0.083
-284.545	800.000	0.082	0.233
-283.530	9.614	-0.054	-0.041
-282.516	279.251	0.051	0.092
-281.501	-37.204	-0.299	0.161
-280.486	104.991	-0.007	0.008
-279.472	261.071	0.110	-0.191
-278.457	-200.000	0.037	-0.364
-277.443	-200.000	0.054	-0.371
-276.428	-69.297	-0.172	-0.066
-275.413	-120.990	0.313	-0.053
-274.399	-200.000	0.022	0.287
-273.384	-11.486	-0.146	-0.096
-272.370	-200.000	0.001	0.123
-271.355	100.404	-0.054	-0.063
-270.340	800.000	0.166	0.512
-269.326	104.564	0.208	-0.246
-268.311	-200.000	-0.049	-0.347
-267.297	-200.000	-0.025	0.304
-266.282	74.216	0.072	-0.076
-265.267	-136.702	-0.077	-0.009
-264.253	-200.000	-0.006	0.086
-263.238	58.012	0.186	0.183
-262.224	-18.100	-0.357	-0.224
-261.209	480.467	0.038	0.086
-260.195	386.341	-0.108	0.224
-259.180	-165.375	0.398	-0.018
-258.165	-37.850	0.260	0.139
-257.151	-200.000	0.033	-0.652
-256.136	-120.528	-0.267	-0.045
-255.122	289.556	-0.031	-0.056
-254.107	-38.830	0.179	0.095
-253.092	-52.284	-0.110	-0.051
-252.078	54.054	0.083	-0.080
-251.063	-13.994	0.087	0.057
-250.049	-141.315	-0.072	0.007
-249.034	-23.160	0.161	-0.097
-248.019	-84.253	-0.250	0.080
-247.005	-200.000	-0.014	-0.172
-245.990	411.047	0.123	-0.261
-244.976	-200.000	0.004	0.133
-243.961	-35.483	-0.146	0.080
-242.946	33.713	-0.062	-0.054
-241.932	-25.388	-0.230	0.136
-240.917	-175.170	-0.348	-0.010
-239.903	78.844	0.169	-0.182
-238.888	-109.140	0.244	-0.052
-237.873	-113.431	-0.132	-0.026
-236.859	800.000	-0.062	-0.185
-235.844	-47.218	-0.037	-0.018
-234.830	30.261	-0.359	-0.307
-233.815	-66.355	0.241	-0.096
-232.800	371.467	0.119	-0.242
-231.786	-91.673	0.142	-0.040
-230.771	-200.000	0.007	-0.083
-229.757	86.663	-0.181	-0.201
-228.742	-27.010	-0.076	0.044
-227.727	-7.095	-0.190	-0.129
-226.713	-90.112	-0.390	0.114
-225.698	-37.373	-0.057	-0.031
-224.684	275.309	-0.059	-0.105
-223.669	28.133	0.116	0.098
-222.655	-200.000	-0.008	0.102
-221.640	-200.000	-0.020	-0.133
-220.625	129.386	-0.127	-0.163
-219.611	-19.836	0.300	-0.186
-218.596	13.051	0.153	-0.119
-217.582	-200.000	0.033	0.148
-216.567	607.467	-0.069	0.171
-215.552	-110.347	0.413	0.086
-214.538	-200.000	0.005	0.066
-213.523	-200.000	0.028	0.142
-212.509	543.770	-0.039	-0.093
-211.494	-70.503	-0.178	-0.067
-210.479	-160.863	0.427	-0.023
-209.465	-200.000	0.020	0.247
-208.450	690.370	0.054	0.141
-207.436	1.455	-0.077	-0.056
-206.421	-125.235	0.328	0.050
-205.406	800.000	-0.037	-0.148
-204.392	4.382	0.083	0.061
-203.377	-81.371	-0.146	-0.048
-202.363	172.287	-0.076	0.109
-201.348	9.012	-0.119	0.090
-200.333	424.459	-0.077	0.165
-199.319	322.686	-0.037	-0.070
-198.304	239.374	-0.086	0.144
-197.290	44.649	-0.094	-0.087
-196.275	693.406	0.016	-0.043
-195.260	-200.000	-0.025	-0.523
-194.246	-108.014	0.274	-0.060
-193.231	48.633	-0.181	0.169
-192.217	800.000	0.023	0.086
-191.202	-159.503	0.149	-0.008
-190.187	-200.000	0.013	-0.069
-189.173	800.000	-0.078	-0.280
-188.158	-200.000	0.014	-0.086
-187.144	99.841	0.204	0.236
-186.129	-80.695	-0.260	-0.087
-185.114	466.534	0.078	-0.174
-184.100	270.841	0.058	-0.102
-183.085	172.131	0.106	-0.152
-182.071	-65.682	0.165	0.066
-181.056	-159.165	-0.345	0.019
-180.042	-70.459	-0.126	-0.048
-179.027	209.800	-0.160	0.251
-178.012	-31.895	-0.221	-0.124
-176.998	377.421	0.188	-0.383
-175.983	-187.931	-0.204	0.003
-174.969	104.993	0.109	-0.129
-173.954	-29.147	0.250	-0.144
-172.939	-200.000	0.037	0.185
-171.925	800.000	-0.066	-0.262
-170.910	-134.225	0.249	-0.031
-169.896	-199.759	0.122	-0.001
-168.881	25.542	-0.380	0.316
-167.866	-40.455	-0.463	-0.241
-166.852	-200.000	-0.009	0.082
-165.837	322.282	0.047	-0.090
-164.823	-72.612	-0.278	-0.103
-163.808	-36.095	0.049	0.026
-162.793	-130.823	0.126	0.017
-161.779	-200.000	-0.006	-0.177
-160.764	-180.344	0.300	0.006
-159.750	275.485	0.075	-0.133
-158.735	-200.000	-0.031	-0.218
-157.720	-140.616	-0.225	0.023
-156.706	411.793	0.098	0.209
-155.691	-154.807	-0.262	0.017
-154.677	-200.000	-0.000	0.039
-153.662	-106.651	-0.074	-0.016
-152.647	-65.377	-0.518	0.208
-151.633	1.624	0.166	0.120
-150.618	-156.964	0.342	-0.021
-149.604	-105.425	-0.179	0.041
-148.589	-29.454	-0.277	0.158
-147.574	24.500	-0.079	0.066
-146.560	-200.000	0.022	0.368
-145.545	154.622	-0.219	0.300
-144.531	-144.204	0.284	-0.027
-143.516	262.359	-0.044	-0.076
-142.502	-200.000	-0.014	0.313
-141.487	-142.985	0.201	-0.019
-140.472	17.033	0.099	-0.078
-139.458	139.879	0.093	-0.122
-138.443	-36.887	0.156	-0.084
-137.429	-24.207	0.143	-0.085
-136.414	-67.317	-0.218	-0.086
-135.399	92.072	0.084	0.094
-134.385	-200.000	0.053	0.330
-133.370	-200.000	-0.021	-0.220
-132.356	-200.000	0.076	0.431
-131.341	800.000	0.033	-0.096
-130.326	215.926	0.188	-0.298
-129.312	800.000	-0.046	0.155
-128.297	186.391	-0.071	-0.105
-127.283	33.784	-0.116	0.101
-126.268	-17.463	-0.111	-0.070
-125.253	-111.062	0.029	0.006
-124.239	-200.000	0.001	-0.164
-123.224	-122.149	0.242	0.040
-122.210	-7.846	-0.207	0.139
-121.195	721.715	0.134	0.356
-120.180	309.199	-0.067	-0.125
-119.166	-85.741	-0.042	-0.013
-118.151	491.893	-0.078	0.177
-117.137	-83.488	-0.200	-0.064
-116.122	119.676	0.108	0.134
-115.107	-97.165	0.027	0.007
-114.093	-130.913	-0.250	0.033
-113.078	107.984	0.209	-0.248
-112.064	422.992	0.149	0.320
-111.049	-104.381	-0.282	0.065
-110.034	210.484	0.283	0.443
-109.020	370.821	0.157	0.317
-108.005	-200.000	-0.003	-0.143
-106.991	16.292	0.255	0.201
-105.976	-132.606	0.353	0.045
-104.962	52.448	-0.168	-0.160
-103.947	-11.201	-0.209	-0.137
-102.932	204.205	0.240	0.370
-101.918	260.621	0.170	-0.293
-100.903	55.327	-0.041	0.040
-99.889	-21.033	0.287	0.175
-98.874	177.119	-0.089	0.129
-97.859	250.027	0.180	-0.305
-96.845	239.109	-0.146	0.242
-95.830	71.808	-0.119	-0.123
-94.816	20.863	0.118	0.095
-93.801	101.207	0.142	-0.164
-92.786	239.961	-0.028	-0.047
-91.772	-62.385	-0.131	-0.054
-90.757	-200.000	-0.007	-0.209
-89.743	165.278	0.185	-0.260
-88.728	-28.768	-0.093	0.053
-87.713	-29.352	0.106	-0.061
-86.699	-43.004	-0.119	0.060
-85.684	-9.245	-0.131	0.087
-84.670	-114.448	0.478	0.092
-83.655	-4.529	0.207	-0.143
-82.640	233.649	0.194	-0.318
-81.626	800.000	0.078	0.244
-80.611	-92.090	-0.035	0.010
-79.597	800.000	-0.025	0.088
-78.582	-200.000	-0.030	0.350
-77.567	44.143	0.255	0.233
-76.553	50.972	0.154	0.145
-75.538	-30.285	-0.247	0.140
-74.524	240.427	-0.110	0.183
-73.509	800.000	0.094	0.338
-72.494	93.803	0.153	0.173
-71.480	-45.131	0.129	0.064
-70.465	-79.405	-0.148	-0.050
-69.451	81.454	0.213	-0.229
-68.436	49.565	-0.195	0.183
-67.422	10.143	0.170	-0.128
-66.407	-134.644	0.478	-0.058
-65.392	178.219	-0.128	-0.187
-64.378	166.602	-0.037	-0.053
-63.363	-150.874	-0.240	0.018
-62.349	-53.211	-0.304	-0.139
-61.334	-31.667	-0.786	-0.439
-60.319	-200.000	0.080	0.506
-59.305	-200.000	-0.076	-0.778
-58.290	368.526	0.395	0.795
-57.276	667.631	0.699	1.799
-56.261	-200.000	78.140	510.423
-55.246	512.036	1333.378	3091.430
-54.232	148.436	2556.593	3436.663
-53.217	113.765	2241.721	2711.649
-52.203	50.237	1772.474	1666.467
-51.188	43.367	1574.029	1431.362
-50.173	40.874	1543.890	1386.530
-49.159	56.475	1582.675	1531.681
-48.144	62.234	1601.621	1590.548
-47.130	44.058	1564.548	1427.382
-46.115	40.527	1550.406	1389.734
-45.100	40.341	1546.674	1385.032
-44.086	40.259	1544.968	1382.875
-43.071	40.083	1543.356	1380.151
-42.057	40.068	1540.933	1377.826
-41.042	40.183	1539.174	1377.000
-40.027	39.957	1538.629	1374.882
-39.013	40.109	1536.311	1373.811
-37.998	40.114	1534.716	1372.364
-36.984	40.068	1534.168	1371.500
-35.969	40.211	1532.369	1370.834
-34.954	40.173	1531.271	1369.528
-33.940	40.120	1530.056	1368.023
-32.925	40.201	1528.290	1366.948
-31.911	40.227	1526.799	1365.741
-30.896	40.253	1525.481	1364.688
-29.881	40.252	1524.176	1363.459
-28.867	40.298	1522.475	1362.198
-27.852	40.249	1521.158	1360.632
-26.838	40.281	1519.916	1359.688
-25.823	40.297	1517.711	1357.766
-24.809	40.126	1517.002	1355.908
-23.794	40.236	1514.840	1354.674
-22.779	40.266	1513.975	1354.052
-21.765	40.176	1512.819	1352.348
-20.750	40.215	1511.691	1351.552
-19.736	40.170	1510.383	1350.022
-18.721	40.157	1509.165	1348.795
-17.706	40.177	1508.157	1347.977
-16.692	40.094	1506.854	1346.195
-15.677	40.091	1505.977	1345.337
-14.663	40.187	1504.471	1344.591
-13.648	40.141	1503.837	1343.655
-12.633	40.124	1503.032	1342.764
-11.619	40.087	1502.504	1341.992
-10.604	40.067	1501.335	1340.761
-9.590	40.074	1500.402	1339.920
-8.575	40.119	1499.360	1339.241
-7.560	40.137	1498.201	1338.273
-6.546	40.012	1497.528	1336.777
-5.531	40.049	1496.781	1336.301
-4.517	40.033	1495.432	1334.940
-3.502	39.973	1494.621	1333.755
-2.487	40.065	1493.804	1333.598
-1.473	40.133	1492.275	1332.632
-0.458	40.134	1491.175	1331.605
0.556	40.542	1481.630	1320.291
1.571	37.341	1453.778	1274.401
2.586	33.353	1389.891	1193.219
3.600	31.333	1304.794	1108.094
4.615	29.580	1256.751	1057.177
5.629	25.191	1197.674	983.388
6.644	13.424	1105.996	848.090
7.659	4.101	1058.831	765.933
8.673	2.771	1052.224	754.547
9.688	2.282	1049.429	750.075
10.702	1.999	1048.233	747.769
11.717	2.081	1046.659	746.981
12.731	5.627	1050.814	767.278
13.746	16.511	1066.368	832.417
14.761	24.571	1076.557	880.184
15.775	25.715	1077.098	886.186
16.790	25.882	1076.704	886.606
17.804	25.577	1076.223	884.630
18.819	25.454	1075.019	882.959
19.834	25.578	1074.547	883.101
20.848	25.709	1073.930	883.161
21.863	25.731	1074.032	883.272
22.877	25.792	1073.514	883.068
23.892	25.743	1072.904	882.248
24.907	25.577	1071.653	880.327
25.921	25.664	1071.761	880.766
26.936	25.626	1070.590	879.538
27.950	25.640	1069.541	878.668
28.965	25.513	1068.341	876.984
29.980	25.550	1066.753	875.784
30.994	25.451	1065.372	874.091
32.009	25.717	1064.754	874.800
33.023	25.884	1063.694	874.661
34.038	25.675	1063.043	873.034
35.053	25.501	1062.367	871.558
36.067	25.645	1061.571	871.525
37.082	25.645	1061.002	870.983
38.096	25.672	1060.083	870.283
39.111	25.828	1059.343	870.350
40.126	26.038	1058.506	870.601
41.140	25.902	1057.491	869.032
42.155	25.604	1056.282	866.525
43.169	25.316	1054.902	863.930
44.184	25.417	1053.417	863.123
45.199	25.354	1052.514	862.008
46.213	25.221	1051.744	860.663
47.228	25.215	1051.008	859.956
48.242	25.452	1050.345	860.473
49.257	25.493	1049.746	860.097
50.271	25.613	1048.856	859.867
51.286	25.904	1048.106	860.566
52.301	25.770	1047.722	859.534
53.315	25.776	1046.726	858.673
54.330	25.681	1046.365	857.844
55.344	25.687	1045.259	856.894
56.359	25.642	1044.299	855.814
57.374	25.739	1043.819	855.808
58.388	25.553	1042.533	853.795
59.403	25.348	1042.309	852.564
60.417	25.508	1041.502	852.587
61.432	25.244	1040.621	850.538
62.447	25.333	1039.784	850.198
63.461	25.488	1039.076	850.277
64.476	25.461	1038.252	849.401
65.490	25.319	1037.772	848.265
66.505	25.290	1036.283	846.835
67.520	25.443	1035.376	846.740
68.534	25.544	1034.500	846.425
69.549	25.317	1034.110	844.964
70.563	25.030	1032.469	842.199
71.578	24.951	1032.075	841.431
72.593	24.890	1031.596	840.679
73.607	24.845	1030.117	839.190
74.622	24.721	1029.496	838.025
75.636	25.154	1028.486	839.159
76.651	25.194	1028.272	839.094
77.666	25.127	1027.308	837.923
78.680	25.005	1026.452	836.577
79.695	25.029	1025.969	836.225
80.709	25.143	1025.213	836.063
81.724	25.177	1024.696	835.727
82.739	25.183	1023.764	834.924
83.753	25.311	1022.369	834.304
84.768	25.428	1022.392	834.793
85.782	25.890	1022.260	836.758
86.797	26.042	1021.218	836.534
87.812	26.113	1019.996	835.791
88.826	25.839	1019.257	833.844
89.841	25.865	1018.384	833.175
90.855	25.842	1017.683	832.423
91.870	25.861	1017.256	832.086
92.884	25.836	1016.711	831.449
93.899	25.772	1015.363	829.981
94.914	25.818	1014.054	829.049
95.928	25.803	1013.708	828.621
96.943	25.909	1012.611	828.140
97.957	25.559	1011.486	825.538
98.972	25.410	1010.725	824.164
99.987	25.317	1009.151	822.382
101.001	25.291	1008.991	822.056
102.016	25.571	1008.227	822.646
103.030	25.697	1007.774	822.779
104.045	25.559	1006.285	820.861
105.060	25.365	1005.343	819.134
106.074	25.416	1003.668	817.928
107.089	25.325	1003.315	817.152
108.103	25.521	1002.979	817.701
109.118	25.704	1002.380	817.969
110.133	25.345	1001.220	815.324
111.147	25.328	1000.360	814.471
112.162	25.289	998.965	813.087
113.176	25.075	997.736	811.048
114.191	25.214	997.405	811.334
115.206	25.301	996.685	811.069
116.220	25.160	995.013	809.003
117.235	24.834	994.515	807.058
118.249	25.091	993.833	807.588
119.264	25.042	993.186	806.770
120.279	24.931	991.977	805.219
121.293	25.004	991.334	804.956
122.308	25.045	990.890	804.706
123.322	25.003	990.114	803.815
124.337	24.929	989.109	802.599
125.352	24.839	987.434	800.765
126.366	24.528	985.732	797.925
127.381	24.154	984.849	795.469
128.395	24.643	984.643	797.415
129.410	25.501	984.119	800.745
130.424	25.487	983.628	800.213
131.439	25.438	982.648	799.126
132.454	25.580	981.252	798.550
133.468	25.539	980.942	798.047
134.483	25.493	980.057	797.053
135.497	25.588	979.322	796.805
136.512	25.712	979.006	797.023
137.527	25.678	978.678	796.538
138.541	25.840	977.405	796.146
139.556	25.744	977.008	795.328
140.570	25.754	975.689	794.227
141.585	25.733	975.197	793.666
142.600	25.844	974.482	793.501
143.614	25.763	973.051	791.910
144.629	25.876	972.494	791.882
145.643	26.037	972.006	792.121
146.658	26.014	971.215	791.309
147.673	25.907	969.651	789.492
148.687	25.513	968.971	787.148
149.702	25.596	967.659	786.376
150.716	25.601	966.497	785.380
151.731	25.594	965.334	784.338
152.746	25.535	964.994	783.733
153.760	25.614	964.613	783.700
154.775	25.968	963.339	784.136
155.789	25.911	963.025	783.562
156.804	25.941	961.399	782.298
157.819	25.835	961.012	781.455
158.833	25.884	959.928	780.717
159.848	25.953	959.429	780.540
160.862	26.067	958.392	780.120
161.877	25.984	957.569	779.026
162.892	25.871	956.515	777.611
163.906	25.957	955.724	777.267
164.921	25.777	955.108	775.923
165.935	25.833	953.883	775.102
166.950	25.841	952.928	774.291
167.964	25.959	952.375	774.280
168.979	25.897	951.076	772.888
169.994	25.633	950.403	771.142
171.008	25.573	949.141	769.794
172.023	25.867	948.319	770.317
173.037	25.922	948.014	770.234
174.052	25.852	946.322	768.493
175.067	25.552	945.864	766.777
176.081	25.685	944.599	766.248
177.096	25.727	943.736	765.660
178.110	25.603	943.390	764.781
179.125	25.485	942.264	763.302
180.140	25.172	941.512	761.295
181.154	25.290	940.242	760.701
182.169	25.373	940.227	760.974
183.183	25.602	939.478	761.271
184.198	25.876	939.841	762.656
185.213	25.768	938.878	761.352
186.227	25.842	937.713	760.653
187.242	25.772	937.736	760.307
188.256	25.813	936.909	759.741
189.271	25.931	935.790	759.264
190.286	26.036	935.249	759.201
191.300	25.848	934.625	757.837
192.315	25.258	933.343	754.252
193.329	24.603	931.298	749.784
194.344	24.032	930.341	746.551
195.359	24.730	930.657	749.668
196.373	25.483	931.073	753.093
197.388	25.820	931.030	754.402
198.402	25.606	930.422	752.950
199.417	25.716	929.985	752.987
200.432	25.799	929.136	752.579
201.446	25.517	928.762	751.032
202.461	25.289	927.773	749.217
203.475	25.359	927.426	749.160
204.490	25.074	925.915	746.688
205.504	23.932	923.638	740.036
206.519	24.270	923.350	741.146
207.534	25.139	924.183	745.364
208.548	25.237	923.800	745.393
209.563	25.594	923.445	746.522
210.577	25.677	922.520	746.055
211.592	25.449	921.683	744.368
212.607	25.793	921.685	745.730
213.621	26.005	921.193	746.142
214.636	25.911	920.494	745.121
215.650	25.989	919.580	744.635
216.665	25.909	919.253	743.975
217.680	25.959	918.467	743.479
218.694	26.125	918.274	743.943
219.709	25.637	917.751	741.441
220.723	25.306	916.577	739.066
221.738	25.528	916.038	739.479
222.753	25.799	915.450	740.055
223.767	25.576	915.101	738.787
224.782	25.790	914.010	738.723
225.796	25.997	913.725	739.273
226.811	26.115	913.373	739.407
227.826	25.769	912.028	736.838
228.840	24.883	910.246	731.712
229.855	24.662	910.061	730.594
230.869	24.908	909.457	731.050
231.884	24.600	908.520	728.978
232.899	24.628	908.060	728.657
233.913	25.294	908.575	731.723
234.928	25.786	907.532	732.818
235.942	25.525	907.022	731.280
236.957	25.624	906.167	730.929
237.972	25.354	905.471	729.208
238.986	25.243	904.607	727.996
240.001	25.450	903.958	728.247
241.015	25.328	903.769	727.539
242.030	25.383	903.388	727.389
243.045	25.582	902.757	727.623
244.059	25.558	902.137	726.960
245.074	25.863	901.397	727.531
246.088	25.812	900.752	726.740
247.103	25.449	900.068	724.661
248.117	25.367	899.309	723.656
249.132	26.107	899.259	726.533
250.147	26.289	899.242	727.186
251.161	26.459	898.983	727.596
252.176	26.467	898.550	727.216
253.190	26.573	897.656	726.853
254.205	26.605	897.159	726.514
255.220	26.837	896.352	726.726
256.234	26.782	895.733	725.939
257.249	26.563	895.523	724.829
258.263	26.466	894.613	723.641
259.278	26.536	894.237	723.550
260.293	26.568	894.034	723.450
261.307	26.762	893.134	723.433
262.322	26.598	892.260	722.005
263.336	26.561	891.667	721.313
264.351	26.012	890.317	717.975
265.366	25.104	888.420	712.773
266.380	24.376	887.896	709.394
267.395	25.293	887.959	713.028
268.409	26.171	887.988	716.473
269.424	26.107	887.509	715.770
270.439	26.146	887.221	715.628
271.453	26.385	886.783	716.158
272.468	26.452	885.735	715.514
273.482	26.466	885.762	715.527
274.497	26.639	885.171	715.674
275.512	26.552	883.566	713.968
276.526	25.909	882.581	710.575
277.541	26.101	882.116	710.892
278.555	26.457	882.149	712.260
279.570	26.319	881.323	710.986
280.585	26.150	880.772	709.813
281.599	26.293	880.223	709.870
282.614	26.423	879.695	709.892
283.628	25.910	878.288	706.682
284.643	25.650	877.371	704.866
285.657	25.843	877.609	705.752
286.672	25.879	877.006	705.343
287.687	25.340	875.855	702.249
288.701	25.671	875.853	703.476
289.716	26.142	875.267	704.785
290.730	25.760	874.636	702.726
291.745	25.620	873.845	701.481
292.760	25.471	872.824	700.020
293.774	25.301	872.238	698.824
294.789	26.253	873.007	703.088
295.803	26.950	872.977	705.709
296.818	26.998	872.441	705.402
297.833	27.023	872.067	705.132
298.847	26.683	871.083	702.957
299.862	26.463	869.724	700.945
300.876	26.587	869.519	701.199
301.891	26.875	869.452	702.196
302.906	27.021	868.560	701.978
303.920	26.617	867.334	699.365
304.935	26.441	867.138	698.468
305.949	26.761	866.578	699.188
306.964	26.962	866.192	699.590
307.979	26.658	865.726	697.980
308.993	26.633	865.309	697.486
310.008	26.868	864.965	698.053
311.022	27.087	864.450	698.416
312.037	26.857	863.999	697.109
313.052	26.573	863.321	695.406
314.066	26.658	862.302	694.852
315.081	26.085	860.466	691.118
316.095	25.087	859.895	686.775
317.110	25.665	859.474	688.591
318.125	26.596	859.823	692.370
319.139	26.155	858.955	689.926
320.154	25.002	857.374	684.196
321.168	24.406	856.501	681.162
322.183	25.003	856.855	683.664
323.197	25.932	857.010	687.268
324.212	26.535	856.685	689.245
325.227	26.504	856.383	688.823
326.241	26.771	855.754	689.272
327.256	26.674	855.269	688.450
328.270	26.471	854.612	687.093
329.285	26.405	854.090	686.360
330.300	26.354	852.745	685.025
331.314	26.006	851.866	682.942
332.329	26.172	851.414	683.146
333.343	26.522	851.663	684.610
334.358	26.748	851.441	685.225
335.373	26.833	850.469	684.704
336.387	26.833	849.996	684.262
337.402	27.048	849.929	684.960
338.416	27.125	850.038	685.277
339.431	27.134	848.975	684.393
340.446	27.246	848.335	684.239
341.460	27.380	848.207	684.578
342.475	27.514	847.126	684.149
343.489	27.088	846.522	682.002
344.504	27.240	845.751	681.890
345.519	27.328	845.807	682.202
346.533	27.623	845.303	682.843
347.548	27.586	844.993	682.392
348.562	27.580	844.748	682.111
349.577	27.798	843.788	682.091
350.592	27.598	843.346	680.926
351.606	27.538	842.835	680.229
352.621	27.547	842.105	679.614
353.635	27.434	841.753	678.850
354.650	27.279	841.453	677.971
355.665	27.137	840.442	676.565
356.679	26.020	839.041	671.225
357.694	25.976	837.961	670.136
358.708	26.675	837.872	672.601
359.723	26.518	837.564	671.713
360.738	26.751	837.142	672.181
361.752	27.087	837.402	673.575
362.767	27.368	836.823	674.092
363.781	27.382	837.060	674.273
364.796	27.735	836.492	675.064
365.810	27.965	836.153	675.580
366.825	28.028	835.736	675.415
367.840	28.113	835.482	675.467
368.854	27.784	834.955	673.764
369.869	27.503	833.779	671.719
370.883	27.261	832.962	670.113
371.898	27.414	832.546	670.279
372.913	27.168	832.061	668.927
373.927	27.244	831.282	668.519
374.942	27.423	830.590	668.563
375.956	27.576	830.216	668.762
376.971	27.614	829.986	668.659
377.986	27.647	829.540	668.360
379.000	27.882	829.080	668.792
380.015	28.046	828.189	668.613
381.029	27.887	827.573	667.477
382.044	27.842	826.945	666.744
383.059	27.877	826.625	666.556
384.073	27.955	826.002	666.278
385.088	27.872	825.522	665.532
386.102	27.987	824.867	665.363
387.117	27.729	823.991	663.661
388.132	27.517	823.497	662.433
389.146	27.458	823.003	661.760
390.161	26.886	821.788	658.651
391.175	26.926	821.650	658.626
392.190	27.555	821.701	660.889
393.205	27.598	821.288	660.654
394.219	26.631	819.356	655.545
395.234	24.981	817.108	647.727
396.248	24.102	815.910	643.544
397.263	25.127	816.717	647.832
398.278	27.025	818.284	655.878
399.292	27.624	817.983	657.741
400.307	27.176	817.538	655.708
401.321	26.987	817.305	654.783
402.336	27.091	816.829	654.719
403.350	27.390	816.647	655.591
404.365	27.960	816.827	657.729
405.380	28.233	816.530	658.415
406.394	28.377	816.659	658.979
407.409	28.653	816.090	659.452
408.423	28.577	815.465	658.617
409.438	28.399	814.974	657.525
410.453	28.549	814.447	657.578
411.467	28.741	813.955	657.809
412.482	28.622	813.035	656.585
413.496	28.601	812.889	656.333
414.511	28.650	812.577	656.198
415.526	28.614	812.116	655.639
416.540	28.650	811.833	655.482
417.555	28.617	810.968	654.608
418.569	28.345	810.477	653.183
419.584	28.208	810.230	652.438
420.599	28.291	809.513	652.099
421.613	97.451	1267.976	1388.599
422.628	83.807	1334.803	1388.731
