DTS Sentinel unit serial number:	SN413079Multiplexer serial number:	ORYXHardware model number:	OX4-SRSoftware version number:	ORYX F/W v4.00 Oryx Data Collector v3.7.2.0data status	okinstallation	princeton_trtdifferential loss correction	single-endedforward channel	channel 3reverse channel	N/Adate	2019/09/10time	23:46:11forward acquisition time	60.00reverse acquisition time	0.00gamma	496.2192k internal	0.2331k external	0.2331temperature offset calibration	0.9923default loss term (dB/km)	0.3790temperature slope calibration	1.0000multiplexer offset coefficient	1.0000multiplexer slope coefficient	1.0000fibre end	0.00T internal ref (°C)	29.56T ext. ref 1 (°C)	-0.31T ext. ref 2 (°C)	22.93length (m)	temperature (°C)	Stokes	anti-Stokes-747.200	-41.251	0.188	0.097
-746.185	-35.218	-0.214	0.117
-745.171	226.766	0.045	-0.074
-744.156	-108.288	-0.407	0.088
-743.142	-29.887	-0.333	0.191
-742.127	11.091	-0.281	0.216
-741.112	-98.555	-0.347	0.089
-740.098	447.481	0.063	-0.140
-739.083	263.644	-0.056	-0.098
-738.069	742.627	0.066	-0.180
-737.054	-68.839	-0.070	0.027
-736.039	-200.000	-0.025	0.173
-735.025	-95.611	0.345	0.093
-734.010	77.030	0.252	0.269
-732.996	-200.000	-0.034	-0.195
-731.981	300.308	0.029	-0.054
-730.966	-69.341	-0.148	-0.057
-729.952	-35.734	0.366	0.200
-728.937	43.367	0.039	0.036
-727.923	-135.515	-0.058	0.007
-726.908	-200.000	0.009	-0.359
-725.894	132.453	0.067	-0.087
-724.879	-28.376	-0.097	-0.056
-723.864	19.581	0.187	0.152
-722.850	112.072	-0.294	0.357
-721.835	18.679	-0.178	0.144
-720.821	800.000	0.087	-0.301
-719.806	669.933	0.096	0.251
-718.791	-200.000	-0.060	0.315
-717.777	-66.180	-0.193	-0.077
-716.762	161.636	0.189	-0.267
-715.748	-124.878	-0.038	-0.006
-714.733	56.955	-0.106	-0.104
-713.718	800.000	0.047	0.181
-712.704	-200.000	-0.011	-0.217
-711.689	-200.000	0.074	0.586
-710.675	-82.581	-0.140	-0.046
-709.660	800.000	0.045	-0.193
-708.645	-200.000	0.010	-0.202
-707.631	658.547	0.094	0.243
-706.616	44.991	-0.159	0.147
-705.602	-14.951	0.267	-0.172
-704.587	-17.655	-0.157	0.099
-703.572	-30.456	0.053	0.030
-702.558	-171.675	-0.146	-0.005
-701.543	26.559	0.210	0.176
-700.529	800.000	-0.019	0.062
-699.514	-37.224	-0.262	-0.141
-698.499	-44.339	0.266	-0.134
-697.485	195.436	0.142	-0.217
-696.470	19.617	-0.176	-0.142
-695.456	21.653	-0.117	-0.095
-694.441	-200.000	-0.008	0.110
-693.426	800.000	-0.084	0.262
-692.412	-109.363	-0.391	0.083
-691.397	-150.310	0.061	-0.005
-690.383	-200.000	0.003	0.116
-689.368	103.803	-0.151	-0.178
-688.354	-200.000	0.018	0.135
-687.339	-200.000	-0.004	0.252
-686.324	-200.000	0.000	-0.063
-685.310	-142.288	-0.156	0.015
-684.295	800.000	-0.067	-0.194
-683.281	25.861	0.115	0.096
-682.266	619.457	0.062	0.155
-681.251	267.516	-0.175	0.308
-680.237	-200.000	0.008	0.119
-679.222	-200.000	-0.001	-0.104
-678.208	82.988	0.074	0.080
-677.193	69.860	-0.058	0.060
-676.178	-200.000	0.041	-0.373
-675.164	203.620	-0.070	-0.108
-674.149	800.000	-0.118	-0.340
-673.135	14.928	0.110	-0.087
-672.120	-79.498	-0.410	-0.139
-671.105	-116.925	0.233	-0.043
-670.091	-45.520	0.287	-0.142
-669.076	443.806	0.048	-0.105
-668.062	-200.000	0.031	-0.270
-667.047	-170.927	0.277	0.010
-666.032	-173.603	-0.155	0.005
-665.018	-200.000	-0.003	0.101
-664.003	-40.003	0.182	0.095
-662.989	-200.000	-0.021	-0.197
-661.974	-7.720	0.127	0.086
-660.959	-92.263	-0.216	0.061
-659.945	86.065	0.277	0.306
-658.930	56.707	0.087	-0.085
-657.916	279.185	-0.174	-0.311
-656.901	-177.672	0.062	0.001
-655.886	89.435	-0.043	0.048
-654.872	800.000	-0.095	0.311
-653.857	-32.859	0.093	-0.052
-652.843	-63.169	0.134	-0.055
-651.828	-94.344	0.181	0.050
-650.814	62.810	-0.076	-0.076
-649.799	-200.000	0.013	-0.059
-648.784	69.389	0.235	0.242
-647.770	800.000	0.075	0.230
-646.755	125.813	-0.091	-0.115
-645.741	-85.939	0.262	-0.081
-644.726	-200.000	-0.031	-0.262
-643.711	254.605	-0.072	-0.123
-642.697	-89.082	-0.317	-0.094
-641.682	-6.986	0.388	-0.264
-640.668	-80.817	0.298	0.099
-639.653	114.391	-0.142	-0.173
-638.638	-59.980	-0.150	-0.064
-637.624	675.552	0.130	-0.338
-636.609	622.287	-0.096	0.243
-635.595	204.860	-0.117	0.182
-634.580	-6.692	0.069	-0.047
-633.565	800.000	-0.117	0.392
-632.551	28.997	-0.156	0.133
-631.536	-72.475	0.208	0.077
-630.522	194.256	0.063	-0.096
-629.507	56.457	0.105	0.103
-628.492	31.106	0.051	-0.044
-627.478	27.362	0.056	0.047
-626.463	-85.697	0.197	-0.061
-625.449	-121.079	0.288	-0.048
-624.434	172.109	-0.103	0.149
-623.419	71.612	-0.256	0.267
-622.405	202.924	-0.151	-0.234
-621.390	-8.440	-0.199	0.134
-620.376	-40.471	-0.293	-0.152
-619.361	116.880	-0.079	-0.097
-618.346	800.000	-0.098	-0.346
-617.332	207.486	0.206	-0.322
-616.317	196.674	-0.127	0.194
-615.303	82.689	0.075	0.082
-614.288	-6.653	-0.235	-0.160
-613.273	-166.681	0.201	0.008
-612.259	228.419	0.024	0.039
-611.244	284.090	-0.113	-0.203
-610.230	-117.216	0.106	-0.019
-609.215	-47.047	-0.258	0.126
-608.201	162.830	0.154	0.217
-607.186	120.105	-0.193	-0.240
-606.171	0.353	-0.155	-0.110
-605.157	-43.384	-0.426	-0.215
-604.142	-65.499	0.122	-0.049
-603.128	794.618	0.065	0.180
-602.113	-200.000	0.080	-0.399
-601.098	109.793	-0.103	0.124
-600.084	-200.000	0.028	-0.140
-599.069	163.615	-0.080	0.113
-598.055	-40.117	0.271	-0.141
-597.040	-83.270	-0.318	0.102
-596.025	-200.000	-0.091	-0.412
-595.011	145.184	0.119	-0.159
-593.996	248.939	0.051	0.087
-592.982	695.335	-0.155	-0.406
-591.967	800.000	-0.049	-0.202
-590.952	-200.000	-0.020	-0.122
-589.938	310.004	-0.035	-0.066
-588.923	-118.522	0.213	0.038
-587.909	-200.000	-0.021	-0.130
-586.894	-65.715	-0.160	-0.064
-585.879	-29.698	0.154	-0.088
-584.865	40.973	-0.248	-0.224
-583.850	-99.835	0.193	-0.048
-582.836	260.143	-0.088	0.153
-581.821	800.000	-0.048	-0.171
-580.806	-75.383	-0.077	0.027
-579.792	-20.531	-0.216	0.133
-578.777	43.585	0.011	0.010
-577.763	-175.809	-0.178	0.005
-576.748	-110.662	0.378	0.078
-575.733	90.407	0.165	-0.185
-574.719	448.880	-0.099	-0.217
-573.704	-200.000	0.016	0.331
-572.690	-104.715	-0.302	0.070
-571.675	-200.000	-0.004	0.043
-570.661	-105.130	0.271	0.062
-569.646	-2.770	0.050	-0.035
-568.631	142.938	0.198	-0.263
-567.617	-200.000	-0.003	-0.059
-566.602	-123.070	-0.297	-0.048
-565.588	800.000	-0.094	-0.287
-564.573	-80.164	0.117	-0.039
-563.558	-78.321	0.335	-0.115
-562.544	-19.823	0.202	-0.125
-561.529	52.691	0.110	0.105
-560.515	-200.000	-0.007	0.084
-559.500	-200.000	-0.001	0.052
-558.485	-125.649	0.160	0.024
-557.471	800.000	-0.182	-0.589
-556.456	-121.588	-0.233	0.039
-555.442	108.438	0.201	0.240
-554.427	245.279	0.164	0.276
-553.412	380.884	-0.127	-0.260
-552.398	-31.129	0.239	-0.134
-551.383	-171.133	-0.330	0.011
-550.369	800.000	0.070	-0.248
-549.354	-84.690	-0.258	-0.081
-548.339	-91.122	0.214	-0.061
-547.325	85.191	0.129	0.142
-546.310	-129.594	0.101	0.014
-545.296	-64.660	-0.078	-0.031
-544.281	-200.000	-0.035	-0.233
-543.266	364.142	0.067	0.135
-542.252	768.647	-0.011	0.029
-541.237	-60.988	-0.271	-0.114
-540.223	69.682	0.072	-0.074
-539.208	170.146	-0.222	-0.317
-538.193	800.000	-0.037	-0.142
-537.179	-12.506	0.177	-0.116
-536.164	-103.685	-0.251	-0.059
-535.150	139.967	-0.286	-0.376
-534.135	-147.017	-0.242	-0.021
-533.121	586.091	-0.091	0.222
-532.106	227.197	-0.112	0.182
-531.091	123.450	0.112	-0.140
-530.077	32.228	0.055	-0.047
-529.062	276.086	0.168	0.297
-528.048	66.585	0.216	0.220
-527.033	-142.913	0.208	0.020
-526.018	206.657	-0.257	-0.400
-525.004	-52.324	-0.264	0.122
-523.989	388.686	0.034	-0.071
-522.975	-167.819	-0.245	-0.010
-521.960	333.518	-0.065	-0.125
-520.945	-134.787	0.372	0.045
-519.931	-144.844	0.040	-0.004
-518.916	-112.921	-0.092	0.018
-517.902	800.000	0.031	0.114
-516.887	800.000	-0.071	0.260
-515.872	-200.000	0.046	0.250
-514.858	-31.064	-0.362	-0.204
-513.843	-17.237	0.317	-0.200
-512.829	610.397	0.219	-0.546
-511.814	-200.000	0.012	0.213
-510.799	800.000	-0.094	-0.347
-509.785	-200.000	0.063	0.299
-508.770	-99.328	0.240	-0.060
-507.756	-200.000	-0.011	-0.489
-506.741	-18.827	-0.017	0.010
-505.726	-117.515	-0.241	0.044
-504.712	-66.365	0.181	0.072
-503.697	-122.348	-0.297	-0.048
-502.683	176.673	-0.165	0.240
-501.668	-106.343	0.072	-0.016
-500.653	37.374	-0.225	-0.199
-499.639	-200.000	0.019	0.340
-498.624	-200.000	-0.004	0.227
-497.610	-117.689	0.219	-0.039
-496.595	-200.000	0.061	0.410
-495.581	5.525	-0.072	-0.053
-494.566	106.466	-0.163	-0.193
-493.551	800.000	-0.041	-0.165
-492.537	-141.238	0.253	0.026
-491.522	25.830	-0.247	0.205
-490.508	242.936	-0.232	0.388
-489.493	-10.261	0.426	-0.282
-488.478	-155.173	-0.153	0.010
-487.464	-115.480	-0.281	0.053
-486.449	-47.353	0.120	0.058
-485.435	85.954	-0.051	-0.056
-484.420	122.384	-0.166	-0.207
-483.405	-200.000	-0.017	0.297
-482.391	-200.000	-0.008	0.058
-481.376	800.000	-0.090	0.257
-480.362	118.559	0.080	0.098
-479.347	-46.615	0.151	0.074
-478.332	-103.519	0.145	-0.034
-477.318	-16.980	0.045	-0.028
-476.303	1.530	0.238	-0.171
-475.289	61.249	0.169	-0.167
-474.274	-144.315	-0.019	-0.002
-473.259	263.447	-0.162	0.281
-472.245	76.628	-0.169	-0.178
-471.230	-117.963	0.295	0.053
-470.216	-65.547	-0.089	0.036
-469.201	244.621	0.166	0.279
-468.186	40.893	0.086	-0.077
-467.172	65.880	-0.356	-0.360
-466.157	-21.914	-0.278	-0.168
-465.143	-137.932	0.191	0.021
-464.128	800.000	0.086	-0.331
-463.113	800.000	-0.046	0.167
-462.099	-69.628	0.219	0.084
-461.084	-109.737	-0.151	0.032
-460.070	-176.336	0.291	-0.008
-459.055	-47.466	-0.313	0.152
-458.040	800.000	-0.146	0.408
-457.026	-200.000	-0.014	-0.123
-456.011	-28.674	-0.375	-0.215
-454.997	-200.000	-0.028	-0.177
-453.982	326.427	-0.128	0.244
-452.968	-200.000	-0.036	-0.298
-451.953	-200.000	0.036	0.261
-450.938	-179.892	0.149	0.003
-449.924	230.746	0.174	-0.284
-448.909	402.620	-0.088	-0.183
-447.895	615.369	0.094	0.234
-446.880	800.000	-0.050	-0.161
-445.865	600.245	-0.042	0.103
-444.851	-108.408	0.243	-0.052
-443.836	481.355	-0.076	0.171
-442.822	147.135	0.257	0.344
-441.807	577.762	-0.128	0.312
-440.792	84.732	-0.092	0.100
-439.778	-45.274	-0.214	0.106
-438.763	-95.751	-0.019	0.005
-437.749	139.184	0.088	0.115
-436.734	154.198	0.234	0.319
-435.719	-200.000	0.040	-0.205
-434.705	-68.259	-0.118	-0.046
-433.690	-105.723	0.289	-0.065
-432.676	-37.994	-0.090	-0.048
-431.661	800.000	0.020	0.077
-430.646	70.592	-0.194	0.200
-429.632	-200.000	0.004	0.049
-428.617	-41.878	0.271	0.138
-427.603	-19.993	0.149	0.092
-426.588	-200.000	-0.005	0.093
-425.573	163.527	0.157	-0.219
-424.559	-132.078	0.160	-0.021
-423.544	727.233	0.069	-0.182
-422.530	800.000	-0.107	-0.366
-421.515	-200.000	0.015	-0.333
-420.500	-111.887	-0.106	0.021
-419.486	407.092	0.107	0.225
-418.471	-37.498	-0.165	-0.088
-417.457	-94.466	0.246	0.067
-416.442	-184.329	-0.160	-0.003
-415.428	-200.000	-0.026	-0.134
-414.413	-41.100	0.355	0.182
-413.398	-15.744	0.234	0.148
-412.384	131.202	0.296	0.377
-411.369	219.262	-0.021	0.034
-410.355	-54.581	-0.198	-0.089
-409.340	-200.000	-0.010	0.211
-408.325	-47.661	-0.260	0.126
-407.311	-99.395	0.106	0.027
-406.296	-75.216	0.216	-0.076
-405.282	-183.349	-0.102	-0.002
-404.267	-82.386	-0.189	0.061
-403.252	4.426	-0.136	0.099
-402.238	-8.070	-0.162	0.109
-401.223	-41.445	-0.265	-0.135
-400.209	-200.000	0.027	0.139
-399.194	62.297	-0.202	0.200
-398.179	-200.000	-0.010	0.215
-397.165	-127.934	-0.153	-0.022
-396.150	96.972	0.052	0.059
-395.136	97.352	-0.245	-0.279
-394.121	130.934	0.118	-0.150
-393.106	-200.000	0.052	0.246
-392.092	655.919	0.059	-0.152
-391.077	143.627	-0.056	-0.074
-390.063	367.468	-0.107	-0.215
-389.048	-97.252	0.198	0.051
-388.033	298.713	-0.096	0.176
-387.019	-119.245	0.244	-0.042
-386.004	392.590	-0.056	-0.116
-384.990	224.443	0.195	-0.313
-383.975	127.356	0.184	-0.232
-382.960	-77.885	0.206	-0.071
-381.946	-90.045	0.294	-0.085
-380.931	143.711	-0.363	0.480
-379.917	-200.000	0.042	0.240
-378.902	-64.518	0.263	-0.106
-377.888	43.695	-0.169	0.153
-376.873	800.000	0.051	0.164
-375.858	32.664	0.173	-0.149
-374.844	-200.000	0.000	-0.497
-373.829	87.036	-0.085	0.093
-372.815	-43.796	-0.066	-0.033
-371.800	-19.403	0.305	0.187
-370.785	0.170	-0.112	-0.079
-369.771	-176.925	0.275	0.007
-368.756	-26.075	-0.127	0.074
-367.742	53.857	0.104	-0.099
-366.727	-54.881	-0.300	0.134
-365.712	-55.444	0.076	0.034
-364.698	488.628	-0.081	0.184
-363.683	137.499	-0.061	0.079
-362.669	-99.599	0.040	-0.010
-361.654	800.000	-0.037	-0.116
-360.639	-93.711	-0.166	-0.046
-359.625	-200.000	0.009	-0.108
-358.610	277.508	0.082	-0.145
-357.596	605.646	-0.080	-0.197
-356.581	800.000	0.079	0.218
-355.566	-200.000	0.059	0.454
-354.552	-145.209	-0.068	-0.006
-353.537	-95.410	-0.044	0.012
-352.523	140.280	0.143	0.187
-351.508	403.711	-0.083	-0.173
-350.493	-104.517	-0.091	0.021
-349.479	-157.001	-0.249	-0.015
-348.464	-200.000	0.005	-0.204
-347.450	-200.000	0.011	0.058
-346.435	800.000	-0.053	0.170
-345.420	198.673	0.282	-0.428
-344.406	37.077	0.194	-0.170
-343.391	72.859	0.097	0.100
-342.377	-200.000	0.018	0.305
-341.362	575.850	-0.051	-0.122
-340.348	53.601	0.230	-0.219
-339.333	800.000	0.082	-0.256
-338.318	70.576	-0.120	0.123
-337.304	-200.000	0.002	0.469
-336.289	-83.160	-0.219	-0.070
-335.275	-200.000	-0.026	0.231
-334.260	-13.979	0.184	-0.118
-333.245	-200.000	0.008	-0.209
-332.231	302.464	-0.025	-0.045
-331.216	-200.000	0.085	-0.370
-330.202	-200.000	-0.021	-0.173
-329.187	66.118	-0.153	0.154
-328.172	719.735	-0.064	-0.168
-327.158	-5.167	0.060	-0.041
-326.143	-129.918	-0.103	0.014
-325.129	-97.091	-0.250	-0.065
-324.114	53.870	-0.135	-0.128
-323.099	122.365	0.134	-0.166
-322.085	200.769	0.067	0.102
-321.070	143.193	-0.130	0.171
-320.056	-114.865	0.173	0.033
-319.041	-66.798	-0.112	0.044
-318.026	-200.000	-0.004	0.247
-317.012	-50.486	0.272	0.127
-315.997	85.382	0.053	-0.058
-314.983	12.520	0.154	-0.118
-313.968	-200.000	-0.002	0.084
-312.953	-189.087	0.305	0.004
-311.939	-140.230	-0.300	-0.031
-310.924	205.201	0.157	-0.241
-309.910	369.991	0.134	0.268
-308.895	62.217	-0.134	-0.133
-307.880	141.789	0.236	0.309
-306.866	-200.000	0.016	0.250
-305.851	-143.845	-0.135	0.013
-304.837	-34.991	-0.246	-0.133
-303.822	-200.000	0.053	0.235
-302.807	435.981	-0.089	-0.193
-301.793	-200.000	-0.042	-0.242
-300.778	344.284	-0.044	-0.086
-299.764	800.000	0.075	0.256
-298.749	800.000	0.086	0.343
-297.735	233.014	0.157	0.255
-296.720	224.534	-0.019	-0.031
-295.705	219.127	0.070	0.110
-294.691	103.854	-0.130	0.151
-293.676	-56.948	0.109	0.048
-292.662	-200.000	-0.060	0.298
-291.647	-27.502	-0.201	0.115
-290.632	148.093	0.120	0.160
-289.618	326.328	0.224	0.424
-288.603	-200.000	-0.043	0.204
-287.589	-145.262	0.078	0.007
-286.574	300.197	-0.039	0.072
-285.559	-200.000	-0.062	0.477
-284.545	-55.903	0.161	-0.071
-283.530	61.191	0.191	0.188
-282.516	-200.000	-0.037	0.238
-281.501	-200.000	-0.058	0.386
-280.486	-172.592	0.260	-0.008
-279.472	-152.120	0.025	0.002
-278.457	-182.448	-0.127	-0.002
-277.443	-200.000	0.009	-0.438
-276.428	22.305	0.095	-0.076
-275.413	800.000	-0.033	0.132
-274.399	115.803	0.160	0.194
-273.384	60.264	0.227	-0.222
-272.370	-66.302	0.137	0.054
-271.355	-13.596	0.292	-0.187
-270.340	800.000	0.114	-0.480
-269.326	294.931	0.086	-0.155
-268.311	800.000	0.119	-0.363
-267.297	-200.000	0.010	0.103
-266.282	100.507	0.245	0.281
-265.267	-18.170	0.047	-0.029
-264.253	-169.825	-0.278	-0.010
-263.238	-150.826	0.137	0.010
-262.224	800.000	-0.086	0.354
-261.209	416.800	0.066	0.138
-260.195	-200.000	0.062	0.368
-259.180	800.000	0.055	0.186
-258.165	38.712	-0.268	-0.236
-257.151	73.251	0.305	-0.315
-256.136	142.445	-0.084	-0.110
-255.122	800.000	-0.064	-0.180
-254.107	458.535	-0.043	-0.095
-253.092	-153.345	0.103	-0.007
-252.078	-64.929	0.055	0.022
-251.063	-98.642	0.079	-0.020
-250.049	19.665	0.222	0.176
-249.034	-200.000	0.043	-0.207
-248.019	-200.000	-0.031	-0.298
-247.005	613.661	0.070	0.174
-245.990	73.309	0.167	0.172
-244.976	60.940	0.097	0.095
-243.961	-8.993	0.156	-0.103
-242.946	-200.000	-0.011	-0.048
-241.932	283.372	0.019	-0.033
-240.917	-91.800	0.022	0.006
-239.903	-189.781	0.141	-0.002
-238.888	384.877	0.138	-0.282
-237.873	-95.840	-0.351	-0.092
-236.859	-47.258	0.225	-0.108
-235.844	-63.637	-0.074	-0.030
-234.830	-200.000	-0.003	0.017
-233.815	529.592	0.053	-0.124
-232.800	800.000	0.057	-0.159
-231.786	112.057	-0.118	-0.140
-230.771	-61.306	0.130	0.054
-229.757	-150.075	-0.216	-0.017
-228.742	174.036	-0.042	-0.060
-227.727	-200.000	0.006	0.114
-226.713	-64.471	-0.546	0.219
-225.698	-62.262	0.095	-0.039
-224.684	-200.000	-0.015	-0.344
-223.669	-159.713	-0.381	-0.021
-222.655	32.151	-0.098	0.084
-221.640	-41.398	0.054	-0.027
-220.625	371.662	0.095	0.190
-219.611	800.000	-0.042	0.129
-218.596	-60.671	0.332	0.139
-217.582	-62.240	-0.110	0.045
-216.567	193.250	-0.116	0.173
-215.552	-184.348	-0.141	0.002
-214.538	-200.000	0.061	0.315
-213.523	-108.079	-0.030	-0.006
-212.509	57.760	-0.121	-0.117
-211.494	-58.000	0.328	-0.141
-210.479	171.753	-0.073	-0.103
-209.465	-93.098	-0.092	-0.025
-208.450	-80.848	-0.417	0.136
-207.436	452.022	-0.122	-0.265
-206.421	-200.000	0.035	-0.464
-205.406	-24.098	0.303	-0.178
-204.392	-142.912	-0.174	-0.017
-203.377	-80.215	0.246	0.081
-202.363	256.219	0.094	0.159
-201.348	-200.000	-0.003	0.153
-200.333	40.743	0.293	-0.261
-199.319	-171.472	-0.241	0.008
-198.304	-85.943	-0.163	0.050
-197.290	-161.604	-0.119	0.006
-196.275	-142.717	0.309	0.030
-195.260	800.000	-0.023	-0.075
-194.246	0.805	0.098	-0.069
-193.231	-200.000	0.018	0.105
-192.217	269.479	-0.139	0.240
-191.202	-173.142	-0.134	0.004
-190.187	177.271	-0.048	-0.069
-189.173	-99.203	-0.226	-0.056
-188.158	800.000	0.130	0.392
-187.144	-200.000	0.039	0.267
-186.129	81.044	-0.292	0.311
-185.114	-52.940	-0.089	-0.040
-184.100	8.532	-0.158	0.117
-183.085	-104.074	-0.223	0.051
-182.071	-32.643	0.195	0.107
-181.056	14.726	0.212	-0.163
-180.042	154.977	-0.140	0.190
-179.027	114.219	-0.248	0.297
-178.012	-80.589	-0.170	0.056
-176.998	-59.861	-0.136	-0.057
-175.983	47.790	0.164	-0.151
-174.969	-109.445	-0.360	0.075
-173.954	-92.914	-0.112	0.031
-172.939	-53.471	0.142	0.064
-171.925	-78.457	-0.162	-0.055
-170.910	-200.000	-0.009	0.166
-169.896	710.223	-0.123	0.320
-168.881	237.938	-0.172	-0.280
-167.866	-200.000	-0.042	-0.344
-166.852	-13.975	-0.102	0.065
-165.837	158.661	-0.034	-0.046
-164.823	401.237	0.077	0.159
-163.808	78.712	-0.204	0.215
-162.793	-148.172	0.311	-0.025
-161.779	-18.810	0.323	-0.198
-160.764	-200.000	0.036	0.229
-159.750	89.995	-0.161	-0.177
-158.735	-66.882	0.074	-0.029
-157.720	251.387	-0.076	-0.127
-156.706	-62.266	-0.162	0.066
-155.691	289.328	-0.217	0.386
-154.677	687.721	-0.048	-0.124
-153.662	-30.292	0.123	-0.069
-152.647	-94.600	0.061	0.016
-151.633	28.740	0.066	0.055
-150.618	-88.362	0.165	0.048
-149.604	-200.000	0.030	-0.242
-148.589	800.000	-0.027	-0.079
-147.574	235.922	-0.011	-0.017
-146.560	-200.000	0.030	-0.273
-145.545	521.765	0.134	0.309
-144.531	-95.835	0.195	0.051
-143.516	-69.289	-0.150	-0.057
-142.502	-105.878	0.111	0.025
-141.487	-200.000	-0.067	0.406
-140.472	238.024	-0.170	-0.277
-139.458	328.738	-0.086	0.162
-138.443	465.946	0.041	0.091
-137.429	-123.792	0.281	0.044
-136.414	-167.464	0.329	0.013
-135.399	-124.614	0.265	0.040
-134.385	-50.409	-0.074	-0.034
-133.370	800.000	0.059	0.227
-132.356	35.733	-0.141	0.122
-131.341	-200.000	-0.014	-0.233
-130.326	800.000	-0.114	-0.311
-129.312	34.758	-0.125	-0.107
-128.297	-34.591	0.164	-0.088
-127.283	-200.000	0.043	-0.214
-126.268	144.821	0.115	-0.150
-125.253	-84.978	0.061	-0.019
-124.239	800.000	0.033	0.138
-123.224	-200.000	-0.003	0.090
-122.210	-167.007	0.086	0.003
-121.195	-175.422	-0.292	-0.008
-120.180	103.219	0.227	0.261
-119.166	91.311	-0.112	-0.124
-118.151	449.309	0.110	0.237
-117.137	56.279	0.228	0.217
-116.122	440.971	0.130	-0.279
-115.107	-200.000	0.013	0.211
-114.093	-200.000	-0.021	-0.091
-113.078	407.602	0.125	0.260
-112.064	-200.000	0.049	-0.233
-111.049	-85.717	-0.254	0.077
-110.034	400.392	-0.150	0.310
-109.020	800.000	-0.052	-0.177
-108.005	67.638	0.210	-0.211
-106.991	-121.263	0.110	0.018
-105.976	-200.000	-0.022	-0.205
-104.962	564.700	-0.096	-0.228
-103.947	-200.000	-0.010	-0.126
-102.932	-200.000	-0.039	-0.217
-101.918	800.000	-0.019	0.074
-100.903	-19.938	-0.342	0.207
-99.889	71.475	0.036	0.037
-98.874	-200.000	-0.008	-0.160
-97.859	-127.248	-0.229	0.033
-96.845	-200.000	0.001	0.050
-95.830	-14.692	-0.202	-0.127
-94.816	-61.866	0.264	-0.109
-93.801	424.137	-0.086	-0.183
-92.786	334.653	0.112	0.212
-91.772	-119.058	0.360	-0.062
-90.757	451.438	-0.111	0.241
-89.743	-76.701	-0.359	0.123
-88.728	-200.000	0.082	-0.496
-87.713	661.588	-0.147	0.372
-86.699	-200.000	-0.029	-0.461
-85.684	-200.000	-0.016	0.072
-84.670	-200.000	-0.027	-0.183
-83.655	3.766	0.109	-0.078
-82.640	-34.774	0.127	0.068
-81.626	-92.422	0.275	-0.076
-80.611	-26.048	-0.315	-0.182
-79.597	-56.094	-0.266	-0.116
-78.582	-86.261	0.301	-0.091
-77.567	-6.945	-0.202	0.134
-76.553	183.405	0.132	0.191
-75.538	125.274	0.055	0.068
-74.524	-200.000	-0.031	0.218
-73.509	-115.838	0.259	-0.048
-72.494	168.582	0.147	0.205
-71.480	531.240	-0.097	-0.225
-70.465	-72.863	0.035	-0.012
-69.451	800.000	0.013	0.045
-68.436	-48.960	0.204	-0.096
-67.422	-66.767	0.080	0.031
-66.407	113.504	-0.127	0.151
-65.392	-141.758	0.330	-0.032
-64.378	-200.000	-0.018	-0.106
-63.363	279.886	0.134	-0.234
-62.349	-200.000	0.031	-0.200
-61.334	118.686	-1.026	-1.242
-60.319	42.052	0.359	0.319
-59.305	137.685	-0.766	-0.982
-58.290	159.322	0.602	0.821
-57.276	590.917	0.603	1.458
-56.261	-200.000	106.133	625.202
-55.246	522.283	1504.573	3460.692
-54.232	177.691	2692.830	3844.700
-53.217	111.523	2176.353	2571.245
-52.203	40.262	1698.926	1496.893
-51.188	32.714	1510.982	1280.232
-50.173	30.323	1484.296	1241.601
-49.159	51.773	1540.567	1435.507
-48.144	51.702	1556.918	1450.198
-47.130	32.814	1512.883	1282.322
-46.115	29.773	1498.375	1249.462
-45.100	29.585	1494.893	1245.244
-44.086	29.511	1492.658	1242.831
-43.071	29.556	1490.365	1241.176
-42.057	29.557	1488.587	1239.654
-41.042	29.570	1487.267	1238.592
-40.027	29.555	1485.863	1237.277
-39.013	29.542	1484.343	1235.876
-37.998	29.511	1482.761	1234.299
-36.984	29.511	1481.410	1233.125
-35.969	29.511	1480.365	1232.206
-34.954	29.561	1478.632	1231.048
-33.940	29.503	1477.554	1229.715
-32.925	29.506	1476.151	1228.521
-31.911	29.574	1474.954	1227.930
-30.896	29.519	1474.122	1226.821
-29.881	29.578	1472.605	1225.898
-28.867	29.716	1470.761	1225.232
-27.852	29.665	1469.687	1223.950
-26.838	29.541	1468.517	1222.108
-25.823	29.604	1466.993	1221.209
-24.809	29.672	1465.170	1220.091
-23.794	29.634	1463.886	1218.724
-22.779	29.632	1462.615	1217.602
-21.765	29.604	1461.917	1216.787
-20.750	29.627	1460.455	1215.677
-19.736	29.557	1459.441	1214.324
-18.721	29.564	1458.515	1213.549
-17.706	29.649	1457.175	1212.943
-16.692	29.645	1456.146	1212.015
-15.677	29.535	1455.042	1210.325
-14.663	29.623	1453.864	1209.874
-13.648	29.602	1453.073	1209.031
-12.633	29.559	1452.670	1208.366
-11.619	29.604	1451.173	1207.365
-10.604	29.521	1450.487	1206.207
-9.590	29.483	1449.986	1205.493
-8.575	29.445	1449.224	1204.561
-7.560	29.535	1447.896	1203.999
-6.546	29.519	1447.084	1203.172
-5.531	29.497	1446.602	1202.576
-4.517	29.408	1445.656	1201.165
-3.502	29.533	1444.547	1201.008
-2.487	29.490	1443.600	1199.895
-1.473	29.451	1442.187	1198.421
-0.458	29.598	1440.978	1198.319
0.556	27.364	1431.402	1186.845
1.571	24.207	1406.295	1145.659
2.586	20.899	1346.428	1076.391
3.600	19.384	1265.424	1002.745
4.615	18.227	1221.028	960.984
5.629	15.744	1166.036	904.287
6.644	7.596	1082.892	798.900
7.659	0.914	1043.204	737.091
8.673	-0.158	1037.525	727.819
9.688	-0.258	1034.418	725.095
10.702	-0.438	1033.164	723.281
11.717	-0.375	1030.862	721.909
12.731	2.634	1033.579	738.259
13.746	11.253	1046.059	788.976
14.761	18.150	1055.057	829.252
15.775	19.818	1056.343	838.278
16.790	20.054	1055.835	838.942
17.804	19.717	1055.136	836.683
18.819	19.534	1054.046	834.861
19.834	19.654	1053.903	835.251
20.848	19.730	1053.499	835.228
21.863	19.829	1052.650	834.956
22.877	19.840	1052.471	834.796
23.892	19.799	1051.500	833.755
24.907	19.687	1050.729	832.528
25.921	19.730	1049.951	832.045
26.936	19.764	1049.497	831.778
27.950	19.871	1048.097	831.104
28.965	19.869	1046.364	829.648
29.980	19.622	1045.072	827.367
30.994	19.598	1043.809	826.179
32.009	19.951	1042.781	826.981
33.023	19.890	1042.442	826.349
34.038	19.707	1041.161	824.385
35.053	19.620	1040.398	823.292
36.067	19.807	1039.802	823.642
37.082	19.869	1038.614	822.922
38.096	19.936	1038.355	822.960
39.111	20.075	1037.391	822.785
40.126	20.136	1036.538	822.324
41.140	20.041	1034.976	820.565
42.155	19.762	1033.696	818.158
43.169	19.452	1032.263	815.486
44.184	19.632	1030.807	815.112
45.199	19.545	1030.107	814.074
46.213	19.548	1028.689	812.896
47.228	19.537	1027.797	812.067
48.242	19.521	1027.221	811.466
49.257	19.667	1026.253	811.315
50.271	19.708	1025.364	810.732
51.286	19.849	1024.704	810.800
52.301	19.810	1023.918	809.922
53.315	19.837	1023.183	809.398
54.330	19.778	1022.332	808.376
55.344	19.829	1021.217	807.659
56.359	19.856	1020.576	807.211
57.374	19.727	1020.083	806.148
58.388	19.744	1018.310	804.754
59.403	19.692	1017.488	803.792
60.417	19.746	1017.024	803.603
61.432	19.480	1015.883	801.395
62.447	19.450	1015.816	801.132
63.461	19.734	1014.655	801.463
64.476	19.770	1013.486	800.636
65.490	19.558	1012.782	799.026
66.505	19.665	1011.721	798.615
67.520	19.685	1010.814	797.920
68.534	19.601	1010.168	796.953
69.549	19.521	1009.703	796.144
70.563	19.187	1008.280	793.416
71.578	19.227	1007.032	792.546
72.593	19.352	1006.069	792.293
73.607	19.043	1005.031	789.989
74.622	19.125	1004.207	789.647
75.636	19.549	1003.217	790.741
76.651	19.610	1002.477	790.365
77.666	19.485	1001.914	789.278
78.680	19.400	1000.890	788.017
79.695	19.358	1000.397	787.365
80.709	19.346	1000.042	786.961
81.724	19.521	998.853	786.756
82.739	19.496	998.297	786.133
83.753	19.510	997.077	785.169
84.768	19.660	996.276	785.146
85.782	20.140	995.437	786.595
86.797	20.052	994.972	785.761
87.812	20.199	994.008	785.595
88.826	19.940	993.559	783.999
89.841	19.926	993.073	783.482
90.855	19.933	992.091	782.669
91.870	20.069	990.648	782.077
92.884	20.009	990.316	781.475
93.899	20.050	988.870	780.449
94.914	19.894	987.892	778.905
95.928	19.969	987.559	778.912
96.943	19.948	986.705	778.073
97.957	19.799	985.320	776.245
98.972	19.588	984.291	774.417
99.987	19.310	982.962	772.061
101.001	19.347	982.457	771.759
102.016	19.738	981.706	772.850
103.030	19.850	980.841	772.602
104.045	19.756	979.313	770.909
105.060	19.599	978.111	769.197
106.074	19.282	977.043	766.878
107.089	19.397	976.800	767.133
108.103	19.798	976.334	768.481
109.118	19.916	975.475	768.261
110.133	19.636	974.293	766.018
111.147	19.771	972.762	765.346
112.162	19.493	972.015	763.459
113.176	19.386	970.844	761.999
114.191	19.513	970.143	761.943
115.206	19.541	969.035	761.127
116.220	19.232	967.940	758.840
117.235	19.216	966.599	757.650
118.249	19.204	966.192	757.215
119.264	19.249	965.002	756.409
120.279	19.400	964.042	756.255
121.293	19.297	963.487	755.301
122.308	19.395	963.065	755.332
123.322	19.377	962.296	754.584
124.337	19.490	960.942	753.949
125.352	19.299	959.580	751.982
126.366	19.056	957.256	749.034
127.381	18.676	956.358	746.613
128.395	19.144	956.066	748.351
129.410	19.739	955.868	750.718
130.424	19.869	954.701	750.299
131.439	19.916	953.810	749.735
132.454	19.607	953.222	747.867
133.468	19.777	952.157	747.701
134.483	19.741	951.433	746.913
135.497	19.681	950.559	745.902
136.512	19.967	949.811	746.481
137.527	20.076	948.626	745.953
138.541	19.958	948.439	745.233
139.556	19.998	947.338	744.470
140.570	20.009	946.761	744.002
141.585	19.979	945.974	743.189
142.600	20.110	944.953	742.882
143.614	19.830	944.248	741.061
144.629	20.044	943.483	741.310
145.643	20.264	942.671	741.549
146.658	20.209	941.699	740.482
147.673	20.053	940.780	739.029
148.687	19.951	939.190	737.281
149.702	19.906	938.110	736.177
150.716	19.820	937.204	735.036
151.731	19.875	936.026	734.280
152.746	19.949	935.827	734.374
153.760	19.997	935.036	733.891
154.775	20.228	934.063	734.041
155.789	20.197	933.308	733.252
156.804	20.007	933.038	732.170
157.819	20.160	931.470	731.522
158.833	20.163	931.120	731.192
159.848	20.158	929.908	730.157
160.862	20.182	928.920	729.417
161.877	20.063	928.153	728.250
162.892	20.099	927.327	727.687
163.906	20.198	926.435	727.337
164.921	20.148	925.784	726.555
165.935	20.107	924.349	725.192
166.950	20.288	923.239	725.013
167.964	20.236	922.409	724.082
168.979	20.061	921.355	722.460
169.994	19.967	920.382	721.241
171.008	19.948	919.287	720.239
172.023	20.052	918.771	720.205
173.037	20.379	917.705	720.661
174.052	19.972	917.143	718.468
175.067	19.826	915.604	716.596
176.081	20.011	914.691	716.584
177.096	19.984	914.298	716.101
178.110	20.025	913.426	715.524
179.125	19.683	912.668	713.453
180.140	19.533	911.442	711.816
181.154	19.610	910.250	711.139
182.169	19.712	910.157	711.424
183.183	19.902	909.487	711.616
184.198	20.148	909.140	712.293
185.213	20.097	908.492	711.513
186.227	20.048	908.044	710.898
187.242	20.160	907.605	710.950
188.256	20.134	906.731	710.097
189.271	20.148	905.741	709.314
190.286	20.296	904.735	709.071
191.300	20.119	903.826	707.574
192.315	19.641	902.879	704.818
193.329	19.091	901.022	701.065
194.344	18.627	899.952	698.284
195.359	19.287	900.349	701.218
196.373	19.900	901.076	704.218
197.388	20.212	900.658	705.097
198.402	20.018	899.765	703.545
199.417	19.946	899.306	702.832
200.432	19.960	898.721	702.373
201.446	20.003	897.732	701.708
202.461	19.593	896.766	699.234
203.475	19.548	896.398	698.703
204.490	19.280	894.606	696.160
205.504	18.220	892.903	690.498
206.519	18.604	893.057	692.104
207.534	19.467	893.598	695.945
208.548	19.714	892.600	696.101
209.563	20.065	892.412	697.306
210.577	19.930	891.949	696.342
211.592	19.791	890.612	694.678
212.607	20.066	891.075	696.080
213.621	20.151	890.341	695.786
214.636	20.180	889.508	695.192
215.650	20.311	888.788	695.093
216.665	20.143	888.100	693.821
217.680	20.218	887.409	693.521
218.694	20.257	887.253	693.491
219.709	19.843	886.186	690.943
220.723	19.566	885.251	689.046
221.738	19.785	885.162	689.792
222.753	19.968	884.465	689.917
223.767	19.975	883.299	688.975
224.782	20.129	882.286	688.734
225.796	20.237	882.229	689.056
226.811	20.403	881.467	689.060
227.826	20.011	880.092	686.373
228.840	19.241	878.835	682.282
229.855	19.282	878.292	681.963
230.869	19.336	878.339	682.154
231.884	19.016	876.927	679.730
232.899	19.277	876.219	680.151
233.913	19.799	877.043	682.794
234.928	20.102	876.317	683.364
235.942	19.898	875.887	682.165
236.957	19.983	874.935	681.697
237.972	19.836	873.608	680.022
238.986	19.655	872.765	678.599
240.001	19.808	872.520	678.948
241.015	19.684	871.978	677.979
242.030	19.925	870.859	677.994
243.045	20.062	870.508	678.195
244.059	20.025	870.158	677.716
245.074	20.328	869.696	678.483
246.088	20.218	868.579	677.123
247.103	19.732	867.494	674.322
248.117	19.727	867.132	673.959
249.132	20.303	867.106	676.125
250.147	20.689	866.845	677.363
251.161	20.595	866.331	676.539
252.176	20.778	865.717	676.708
253.190	20.748	864.908	675.902
254.205	20.800	864.751	675.921
255.220	20.978	864.095	676.038
256.234	21.025	863.374	675.596
257.249	20.945	862.555	674.585
258.263	20.884	861.901	673.778
259.278	20.760	861.652	673.046
260.293	20.917	860.621	672.787
261.307	20.938	860.345	672.591
262.322	20.754	859.923	671.494
263.336	20.715	858.667	670.304
264.351	20.299	856.975	667.325
265.366	19.143	855.313	661.531
266.380	18.672	854.545	659.072
267.395	19.638	854.988	663.064
268.409	20.487	855.212	666.435
269.424	20.390	854.500	665.449
270.439	20.423	854.192	665.277
271.453	20.584	853.476	665.278
272.468	20.756	852.839	665.380
273.482	20.806	852.334	665.118
274.497	20.879	852.065	665.126
275.512	20.851	850.496	663.736
276.526	20.369	849.151	660.793
277.541	20.371	849.313	660.870
278.555	20.735	849.094	662.026
279.570	20.502	848.157	660.351
280.585	20.419	846.642	658.798
281.599	20.549	846.330	658.989
282.614	20.591	846.317	659.080
283.628	20.195	844.951	656.460
284.643	19.882	844.633	654.973
285.657	20.335	844.447	656.483
286.672	20.175	843.602	655.161
287.687	19.810	842.614	652.960
288.701	19.985	842.379	653.381
289.716	20.557	842.169	655.315
290.730	20.190	841.165	653.095
291.745	20.011	840.309	651.698
292.760	19.782	839.335	650.026
293.774	19.734	839.072	649.583
294.789	20.631	839.409	653.158
295.803	21.201	839.339	655.187
296.818	21.225	838.892	654.867
297.833	21.295	838.705	654.928
298.847	21.029	837.374	652.833
299.862	20.739	836.244	650.812
300.876	21.001	835.796	651.384
301.891	21.272	835.358	651.996
302.906	21.221	834.867	651.366
303.920	20.852	833.677	649.003
304.935	20.681	832.865	647.677
305.949	20.970	832.820	648.663
306.964	21.025	832.423	648.500
307.979	21.079	831.599	647.999
308.993	20.895	831.590	647.253
310.008	21.244	831.145	648.146
311.022	21.171	830.573	647.370
312.037	21.221	829.861	646.942
313.052	21.089	829.366	646.013
314.066	21.047	828.289	644.959
315.081	20.333	826.962	641.234
316.095	19.601	825.894	637.647
317.110	20.289	825.979	640.196
318.125	21.019	826.198	643.003
319.139	20.591	825.111	640.523
320.154	19.612	823.429	635.558
321.168	18.994	823.290	633.122
322.183	19.663	823.183	635.444
323.197	20.567	823.386	638.870
324.212	20.834	822.964	639.464
325.227	20.841	822.262	638.890
326.241	21.081	821.882	639.418
327.256	20.971	821.297	638.502
328.270	20.787	821.062	637.590
329.285	20.866	820.409	637.313
330.300	20.724	819.538	636.062
331.314	20.398	818.770	634.219
332.329	20.655	817.693	634.267
333.343	20.982	817.413	635.185
334.358	21.037	817.269	635.218
335.373	21.180	816.765	635.289
336.387	21.114	816.223	634.571
337.402	21.322	816.143	635.209
338.416	21.434	815.785	635.281
339.431	21.506	815.171	635.009
340.446	21.516	813.925	634.019
341.460	21.671	813.483	634.180
342.475	21.584	813.309	633.672
343.489	21.612	812.325	632.952
344.504	21.422	811.931	631.902
345.519	21.694	811.515	632.504
346.533	21.838	811.014	632.577
347.548	21.692	811.000	631.985
348.562	21.927	810.432	632.332
349.577	21.934	809.617	631.666
350.592	21.978	809.142	631.399
351.606	21.856	808.570	630.457
352.621	21.880	808.318	630.289
353.635	21.719	807.662	629.144
354.650	21.730	807.287	628.838
355.665	21.473	806.088	626.926
356.679	20.340	804.591	621.653
357.694	20.410	803.777	621.216
358.708	20.936	804.025	623.237
359.723	20.903	803.223	622.441
360.738	21.119	803.192	623.135
361.752	21.632	802.860	624.651
362.767	21.606	802.781	624.441
363.781	21.968	802.391	625.371
364.796	21.986	802.232	625.259
365.810	22.210	801.726	625.605
366.825	22.258	800.954	625.119
367.840	22.227	800.796	624.829
368.854	22.030	800.114	623.544
369.869	21.768	799.515	622.092
370.883	21.719	798.661	621.197
371.898	21.813	798.214	621.129
372.913	21.441	797.802	619.435
373.927	21.420	797.174	618.819
374.942	21.830	796.216	619.468
375.956	21.671	796.277	618.899
376.971	21.853	796.100	619.350
377.986	21.975	795.306	619.109
379.000	22.079	794.796	619.022
380.015	22.219	794.072	618.897
381.029	21.973	793.631	617.633
382.044	21.976	793.025	617.118
383.059	22.204	792.605	617.536
384.073	22.031	792.106	616.486
385.088	22.156	791.486	616.388
386.102	22.151	790.867	615.834
387.117	22.084	790.115	614.958
388.132	21.889	789.875	614.036
389.146	21.770	789.228	613.063
390.161	21.236	788.498	610.574
391.175	21.487	788.216	611.177
392.190	21.721	787.917	611.709
393.205	21.807	787.175	611.378
394.219	20.843	786.087	607.122
395.234	19.397	783.548	600.081
396.248	18.771	783.163	597.553
397.263	19.780	783.956	601.617
398.278	21.674	784.756	608.768
399.292	21.880	784.545	609.265
400.307	21.790	783.973	608.456
401.321	21.618	783.268	607.257
402.336	21.791	783.062	607.645
403.350	21.857	782.985	607.761
404.365	22.402	782.831	609.475
405.380	22.616	782.493	609.897
406.394	22.750	782.435	610.261
407.409	22.933	781.954	610.466
408.423	22.797	781.624	609.684
409.438	22.579	781.066	608.441
410.453	22.728	780.581	608.524
411.467	22.943	779.774	608.581
412.482	22.694	779.409	607.387
413.496	22.696	779.100	607.097
414.511	22.961	778.551	607.528
415.526	22.820	778.163	606.688
416.540	23.013	777.449	606.741
417.555	22.632	777.409	605.347
418.569	22.651	776.477	604.632
419.584	22.432	775.927	603.400
420.599	22.578	775.449	603.474
421.613	158.559	1362.255	1798.305
422.628	136.901	1447.740	1798.416
