DTS Sentinel unit serial number:	SN413079Multiplexer serial number:	ORYXHardware model number:	OX4-SRSoftware version number:	ORYX F/W v4.00 Oryx Data Collector v3.7.2.0data status	okinstallation	princeton_trtdifferential loss correction	single-endedforward channel	channel 3reverse channel	N/Adate	2019/09/16time	21:52:34forward acquisition time	60.00reverse acquisition time	0.00gamma	496.2192k internal	0.2325k external	0.2325temperature offset calibration	0.9936default loss term (dB/km)	0.3790temperature slope calibration	1.0000multiplexer offset coefficient	1.0000multiplexer slope coefficient	1.0000fibre end	0.00T internal ref (°C)	31.25T ext. ref 1 (°C)	0.07T ext. ref 2 (°C)	25.58length (m)	temperature (°C)	Stokes	anti-Stokes-747.200	379.553	0.060	0.123
-746.185	-200.000	-0.002	0.045
-745.171	-121.078	0.232	0.039
-744.156	99.421	-0.215	-0.251
-743.142	7.665	0.079	-0.059
-742.127	-36.633	-0.130	0.070
-741.112	230.281	0.043	0.071
-740.098	520.576	0.067	0.160
-739.083	296.596	-0.079	-0.147
-738.069	-108.161	-0.229	0.050
-737.054	800.000	-0.031	0.139
-736.039	-135.246	-0.191	0.023
-735.025	328.710	0.141	0.273
-734.010	25.159	0.101	0.085
-732.996	-200.000	-0.026	-0.202
-731.981	-200.000	-0.026	-0.116
-730.966	-63.205	-0.242	0.101
-729.952	-107.265	0.166	-0.037
-728.937	-149.222	-0.484	-0.039
-727.923	220.078	-0.145	-0.235
-726.908	-88.646	0.181	0.054
-725.894	21.834	0.061	0.051
-724.879	204.564	-0.121	0.189
-723.864	-131.550	-0.130	-0.017
-722.850	-62.268	0.108	-0.046
-721.835	-63.861	-0.059	0.024
-720.821	210.375	-0.175	-0.277
-719.806	-67.410	-0.076	-0.030
-718.791	-57.993	-0.144	-0.063
-717.777	332.530	-0.016	0.032
-716.762	800.000	0.034	-0.102
-715.748	71.237	-0.182	-0.191
-714.733	-37.156	-0.273	-0.147
-713.718	2.559	0.247	0.180
-712.704	210.000	0.032	-0.051
-711.689	201.759	-0.168	-0.261
-710.675	-52.494	-0.129	-0.060
-709.660	800.000	-0.121	0.369
-708.645	-200.000	-0.006	-0.246
-707.631	-23.288	0.150	-0.091
-706.616	665.034	0.039	-0.101
-705.602	-200.000	0.001	0.260
-704.587	-34.460	-0.284	0.157
-703.572	-177.766	-0.120	0.003
-702.558	-6.510	0.160	0.110
-701.543	-134.694	0.156	-0.019
-700.529	-161.967	0.332	-0.017
-699.514	168.859	-0.080	0.114
-698.499	40.133	-0.369	0.334
-697.485	577.826	0.083	-0.204
-696.470	178.304	0.122	0.179
-695.456	-200.000	0.032	0.232
-694.441	-160.708	0.272	-0.015
-693.426	74.400	-0.188	-0.199
-692.412	-200.000	0.044	-0.308
-691.397	-200.000	0.020	-0.123
-690.383	-200.000	-0.010	-0.200
-689.368	-57.918	0.263	-0.116
-688.354	-200.000	-0.015	-0.145
-687.339	-96.456	-0.304	-0.081
-686.324	-9.683	-0.034	-0.023
-685.310	51.865	0.126	-0.121
-684.295	800.000	0.061	-0.243
-683.281	120.108	-0.186	-0.232
-682.266	792.446	-0.139	0.386
-681.251	-8.104	-0.130	0.088
-680.237	-67.969	0.147	-0.058
-679.222	80.589	0.081	0.088
-678.208	11.215	-0.145	0.111
-677.193	140.381	0.068	-0.091
-676.178	417.050	0.095	-0.204
-675.164	-200.000	-0.016	0.158
-674.149	31.220	-0.233	0.201
-673.135	-66.737	0.105	0.042
-672.120	-200.000	-0.035	-0.163
-671.105	-92.777	0.083	0.023
-670.091	-73.814	-0.271	0.099
-669.076	551.522	-0.062	0.150
-668.062	-165.634	0.054	-0.002
-667.047	-139.639	-0.242	0.026
-666.032	370.166	0.035	0.072
-665.018	800.000	0.065	-0.228
-664.003	112.582	0.273	0.333
-662.989	33.930	-0.089	0.078
-661.974	-64.649	0.090	0.037
-660.959	-104.326	0.026	-0.006
-659.945	-27.668	-0.130	-0.076
-658.930	-200.000	-0.031	-0.221
-657.916	-83.060	0.199	0.064
-656.901	222.559	-0.072	0.117
-655.886	-74.422	-0.206	-0.075
-654.872	-200.000	0.103	0.000
-653.857	-200.000	-0.013	-0.215
-652.843	-119.909	-0.105	-0.018
-651.828	-55.475	0.303	-0.136
-650.814	-9.623	0.081	0.055
-649.799	-135.779	0.170	-0.020
-648.784	5.770	-0.257	-0.191
-647.770	168.647	0.103	-0.148
-646.755	192.049	-0.223	-0.338
-645.741	800.000	0.088	-0.282
-644.726	-83.279	-0.192	0.062
-643.711	75.634	-0.113	0.120
-642.697	342.352	-0.112	-0.221
-641.682	800.000	0.021	-0.088
-640.668	-46.686	-0.094	0.046
-639.653	-157.360	-0.159	0.010
-638.638	-26.769	0.257	0.151
-637.624	800.000	-0.129	-0.375
-636.609	249.976	-0.162	0.277
-635.595	43.872	-0.032	-0.029
-634.580	152.451	-0.132	0.181
-633.565	-118.295	-0.239	-0.043
-632.551	-34.847	-0.192	0.105
-631.536	636.824	0.121	0.309
-630.522	-200.000	0.039	0.312
-629.507	-132.016	0.093	-0.012
-628.492	-200.000	-0.033	-0.197
-627.478	-13.135	-0.050	0.033
-626.463	-140.696	0.144	0.015
-625.449	-0.067	0.159	-0.114
-624.434	66.669	0.242	-0.248
-623.419	800.000	0.101	0.352
-622.405	78.866	0.161	0.173
-621.390	-15.092	-0.209	-0.135
-620.376	-83.513	-0.073	-0.023
-619.361	336.152	-0.067	-0.130
-618.346	116.946	0.157	0.193
-617.332	21.420	-0.178	0.146
-616.317	-99.388	-0.327	0.083
-615.303	217.416	0.092	0.148
-614.288	-200.000	0.001	-0.151
-613.273	223.150	-0.074	0.120
-612.259	-18.069	0.172	-0.108
-611.244	800.000	0.021	0.073
-610.230	-10.905	0.170	-0.113
-609.215	169.142	-0.054	-0.077
-608.201	-200.000	0.003	-0.366
-607.186	800.000	0.037	0.108
-606.171	85.726	-0.006	-0.006
-605.157	429.160	-0.073	-0.157
-604.142	-52.424	0.421	0.195
-603.128	0.456	-0.231	0.165
-602.113	-200.000	-0.001	0.017
-601.098	194.730	-0.142	-0.216
-600.084	-15.039	-0.306	-0.197
-599.069	-200.000	-0.001	-0.119
-598.055	-56.105	-0.187	0.083
-597.040	-65.304	0.147	0.059
-596.025	-200.000	-0.025	0.383
-595.011	-51.639	-0.277	0.130
-593.996	-75.487	0.024	0.009
-592.982	-91.377	0.026	-0.008
-591.967	-163.766	-0.218	-0.010
-590.952	-200.000	0.013	0.228
-589.938	133.727	-0.055	-0.072
-588.923	-57.214	0.048	-0.021
-587.909	622.031	0.082	0.207
-586.894	-101.795	-0.108	-0.026
-585.879	127.665	0.121	0.154
-584.865	231.376	0.044	-0.072
-583.850	92.592	0.060	0.068
-582.836	333.941	-0.211	-0.409
-581.821	-30.847	-0.138	-0.078
-580.806	800.000	0.070	0.260
-579.792	53.417	-0.261	-0.251
-578.777	-110.596	-0.392	-0.081
-577.763	-116.107	0.330	-0.062
-576.748	143.203	-0.242	0.323
-575.733	-15.077	0.253	-0.163
-574.719	79.535	0.067	-0.072
-573.704	103.238	0.118	-0.139
-572.690	-97.228	0.138	-0.036
-571.675	324.327	-0.032	-0.061
-570.661	231.452	-0.237	-0.389
-569.646	392.498	-0.076	-0.157
-568.631	800.000	-0.045	-0.139
-567.617	25.340	0.156	-0.130
-566.602	-200.000	-0.004	-0.037
-565.588	25.957	-0.064	-0.054
-564.573	800.000	-0.107	-0.402
-563.558	-1.536	0.336	-0.237
-562.544	274.552	0.106	0.189
-561.529	-200.000	-0.052	-0.235
-560.515	800.000	0.012	0.045
-559.500	-105.421	-0.144	0.033
-558.485	172.804	-0.083	0.120
-557.471	2.109	-0.455	-0.330
-556.456	103.786	0.110	0.129
-555.442	-9.565	0.068	0.046
-554.427	38.898	0.180	-0.161
-553.412	97.156	0.096	-0.110
-552.398	-200.000	-0.018	0.090
-551.383	-151.241	-0.096	-0.007
-550.369	-67.268	-0.125	-0.049
-549.354	-157.009	-0.291	-0.018
-548.339	-200.000	0.038	-0.172
-547.325	186.852	-0.195	-0.291
-546.310	182.114	-0.153	0.226
-545.296	-200.000	0.051	0.327
-544.281	-200.000	-0.008	0.163
-543.266	-36.644	-0.163	-0.088
-542.252	-110.009	-0.184	0.039
-541.237	56.162	0.175	0.170
-540.223	-11.792	0.208	-0.137
-539.208	9.657	0.093	0.071
-538.193	687.969	-0.049	-0.127
-537.179	376.386	0.074	0.150
-536.164	800.000	0.085	-0.287
-535.150	234.680	0.176	0.291
-534.135	198.954	0.192	-0.294
-533.121	800.000	-0.060	-0.178
-532.106	2.682	0.151	-0.110
-531.091	133.342	0.012	-0.016
-530.077	159.406	-0.105	-0.146
-529.062	187.187	-0.188	-0.281
-528.048	800.000	0.104	-0.382
-527.033	-200.000	0.037	-0.171
-526.018	26.831	0.191	0.160
-525.004	36.771	-0.157	-0.139
-523.989	-101.724	0.217	0.053
-522.975	-1.894	-0.101	-0.071
-521.960	26.511	-0.111	0.093
-520.945	-24.177	-0.101	0.061
-519.931	-29.760	0.091	-0.052
-518.916	180.317	-0.076	-0.111
-517.902	-35.969	0.161	0.087
-516.887	800.000	-0.078	0.256
-515.872	-76.583	0.143	-0.050
-514.858	-23.132	-0.226	-0.136
-513.843	800.000	0.058	0.216
-512.829	3.345	-0.132	-0.096
-511.814	-200.000	-0.028	-0.246
-510.799	239.939	0.255	0.425
-509.785	-200.000	0.009	-0.085
-508.770	800.000	0.067	-0.229
-507.756	-119.518	-0.122	0.021
-506.741	88.382	-0.009	0.010
-505.726	800.000	-0.063	0.185
-504.712	48.312	0.187	0.175
-503.697	-163.532	-0.166	-0.008
-502.683	-5.601	-0.257	0.176
-501.668	-44.461	0.050	-0.025
-500.653	-4.446	0.119	-0.082
-499.639	-200.000	-0.004	-0.387
-498.624	-129.242	-0.096	0.013
-497.610	113.206	0.091	-0.110
-496.595	50.297	0.375	0.354
-495.581	-133.739	0.085	-0.011
-494.566	-75.251	-0.059	0.021
-493.551	800.000	-0.086	0.363
-492.537	-60.687	-0.154	-0.065
-491.522	246.352	0.113	-0.190
-490.508	-123.951	0.255	0.040
-489.493	-200.000	-0.060	-0.268
-488.478	-143.302	-0.234	-0.022
-487.464	-200.000	-0.049	0.219
-486.449	-69.688	-0.401	0.153
-485.435	800.000	-0.118	0.416
-484.420	-99.959	-0.188	-0.047
-483.405	-200.000	0.011	-0.243
-482.391	111.693	-0.123	-0.149
-481.376	-200.000	-0.076	0.709
-480.362	30.642	0.248	-0.212
-479.347	149.063	0.273	0.368
-478.332	745.385	0.077	0.208
-477.318	800.000	-0.036	-0.148
-476.303	-200.000	-0.111	-0.577
-475.289	126.767	-0.215	0.272
-474.274	-58.710	-0.085	-0.037
-473.259	158.597	0.070	-0.096
-472.245	-200.000	-0.022	0.107
-471.230	51.015	0.299	0.283
-470.216	381.864	-0.196	0.403
-469.201	800.000	0.066	-0.202
-468.186	-17.121	0.018	-0.011
-467.172	-116.912	-0.068	-0.012
-466.157	-200.000	-0.024	-0.249
-465.143	11.938	0.458	0.351
-464.128	-50.766	-0.222	0.104
-463.113	-89.979	0.115	0.034
-462.099	116.670	-0.136	0.166
-461.084	34.344	0.019	-0.017
-460.070	-69.334	0.070	0.027
-459.055	-44.265	0.345	-0.172
-458.040	81.024	-0.032	0.034
-457.026	800.000	-0.035	-0.113
-456.011	-122.614	-0.198	-0.032
-454.997	-200.000	0.001	-0.066
-453.982	41.139	-0.242	0.218
-452.968	800.000	-0.111	0.341
-451.953	102.722	0.350	0.408
-450.938	110.315	0.192	0.230
-449.924	-200.000	-0.031	-0.150
-448.909	-118.053	0.211	-0.038
-447.895	-71.437	-0.170	-0.063
-446.880	408.060	0.044	-0.092
-445.865	18.941	-0.103	0.082
-444.851	-117.977	0.117	-0.021
-443.836	-132.482	0.399	-0.051
-442.822	143.857	0.097	0.129
-441.807	-15.573	-0.297	-0.189
-440.792	-74.177	-0.271	-0.098
-439.778	38.448	-0.239	-0.212
-438.763	107.789	0.197	0.234
-437.749	-200.000	0.011	0.219
-436.734	-200.000	-0.000	0.171
-435.719	-49.659	-0.054	-0.026
-434.705	1.727	-0.422	-0.303
-433.690	-31.672	0.028	-0.016
-432.676	170.221	0.067	-0.096
-431.661	0.303	-0.207	0.147
-430.646	196.192	0.224	-0.340
-429.632	-61.217	-0.185	-0.078
-428.617	-131.814	-0.360	0.047
-427.603	-200.000	-0.061	0.307
-426.588	-56.275	0.249	-0.110
-425.573	295.245	-0.094	-0.171
-424.559	608.352	0.077	-0.192
-423.544	-63.280	0.381	0.156
-422.530	-67.285	0.084	-0.033
-421.515	-58.083	-0.284	0.123
-420.500	-48.187	0.233	0.112
-419.486	258.741	0.024	-0.041
-418.471	800.000	-0.128	0.426
-417.457	232.238	0.106	0.173
-416.442	-118.805	-0.316	-0.055
-415.428	-200.000	0.013	0.203
-414.413	649.500	0.047	0.121
-413.398	-59.661	0.229	-0.098
-412.384	81.552	-0.077	0.082
-411.369	20.244	-0.157	0.126
-410.355	-200.000	-0.031	-0.341
-409.340	-200.000	0.017	-0.162
-408.325	-200.000	0.004	0.028
-407.311	167.013	0.158	0.223
-406.296	-200.000	0.011	-0.095
-405.282	126.170	0.114	-0.144
-404.267	-200.000	0.012	0.056
-403.252	-69.549	0.188	-0.072
-402.238	800.000	0.129	-0.406
-401.223	495.428	-0.113	-0.259
-400.209	13.138	0.262	-0.202
-399.194	800.000	0.089	0.319
-398.179	-200.000	0.011	0.156
-397.165	-100.853	0.070	0.017
-396.150	-80.375	-0.342	-0.114
-395.136	263.107	0.031	-0.054
-394.121	-200.000	0.026	-0.147
-393.106	-128.235	0.095	0.013
-392.092	-135.976	0.270	0.032
-391.077	529.100	-0.042	-0.099
-390.063	23.529	-0.153	-0.125
-389.048	-73.811	-0.060	-0.022
-388.033	800.000	0.048	0.174
-387.019	-32.149	0.142	0.079
-386.004	-200.000	-0.039	0.224
-384.990	-200.000	0.025	-0.361
-383.975	-123.467	-0.194	-0.031
-382.960	-84.638	-0.272	0.085
-381.946	33.331	0.078	0.067
-380.931	18.266	-0.135	-0.108
-379.917	-16.067	-0.158	0.100
-378.902	117.647	-0.157	0.192
-377.888	574.184	-0.036	0.087
-376.873	495.187	-0.066	-0.152
-375.858	-97.941	-0.150	0.039
-374.844	324.392	0.081	0.153
-373.829	44.131	0.098	-0.089
-372.815	2.672	0.598	-0.431
-371.800	-200.000	-0.056	0.263
-370.785	-200.000	0.014	-0.151
-369.771	202.960	-0.198	-0.304
-368.756	404.529	-0.049	-0.104
-367.742	147.025	0.100	-0.134
-366.727	-70.613	0.055	0.021
-365.712	800.000	0.028	0.085
-364.698	0.859	0.324	0.231
-363.683	498.104	-0.091	0.209
-362.669	15.286	0.083	0.065
-361.654	331.861	0.031	0.059
-360.639	-167.127	-0.151	-0.006
-359.625	-200.000	0.040	-0.225
-358.610	-104.288	-0.130	0.030
-357.596	-108.278	-0.159	0.034
-356.581	-60.363	0.174	0.074
-355.566	784.796	-0.054	-0.148
-354.552	121.254	0.232	-0.287
-353.537	-25.404	0.059	0.035
-352.523	294.489	-0.093	0.169
-351.508	141.092	0.154	-0.202
-350.493	-46.459	0.122	-0.060
-349.479	124.808	-0.080	0.100
-348.464	-200.000	0.015	-0.324
-347.450	-28.856	0.153	0.088
-346.435	659.008	0.122	0.313
-345.420	-82.628	0.137	-0.044
-344.406	-146.040	-0.177	0.016
-343.391	175.492	0.146	0.210
-342.377	191.130	-0.104	-0.155
-341.362	-105.802	-0.529	0.119
-340.348	59.384	-0.066	0.065
-339.333	-200.000	-0.019	-0.467
-338.318	-25.575	0.141	0.082
-337.304	101.022	-0.040	-0.046
-336.289	-86.356	0.184	-0.056
-335.275	-189.022	-0.248	0.003
-334.260	-54.001	-0.069	-0.031
-333.245	-38.581	0.169	0.089
-332.231	20.905	-0.155	-0.125
-331.216	118.880	0.072	0.088
-330.202	277.604	0.166	0.293
-329.187	456.441	-0.076	0.167
-328.172	293.836	-0.165	-0.300
-327.158	-200.000	-0.032	-0.144
-326.143	723.755	0.074	-0.196
-325.129	17.143	0.106	0.083
-324.114	-200.000	0.024	-0.291
-323.099	-200.000	0.002	-0.119
-322.085	-200.000	-0.039	-0.171
-321.070	-58.150	-0.175	0.076
-320.056	-59.003	0.394	-0.169
-319.041	-200.000	-0.043	-0.212
-318.026	543.610	-0.053	-0.125
-317.012	540.539	0.021	-0.049
-315.997	-200.000	-0.001	-0.099
-314.983	-63.007	-0.101	0.041
-313.968	740.078	0.094	-0.250
-312.953	-124.432	-0.296	-0.046
-311.939	-200.000	0.021	-0.346
-310.924	-200.000	0.076	0.342
-309.910	73.740	0.136	-0.142
-308.895	85.468	0.157	0.172
-307.880	176.221	-0.103	0.149
-306.866	21.228	0.099	-0.080
-305.851	-200.000	0.002	0.180
-304.837	51.139	-0.374	0.352
-303.822	218.194	0.142	-0.224
-302.807	36.692	-0.241	-0.211
-301.793	-37.434	-0.222	0.118
-300.778	-200.000	-0.005	-0.054
-299.764	204.558	-0.235	0.361
-298.749	-99.616	-0.397	0.099
-297.735	-200.000	0.004	0.244
-296.720	800.000	-0.084	0.301
-295.705	-200.000	0.013	0.095
-294.691	-116.192	-0.089	0.016
-293.676	-86.659	0.300	0.091
-292.662	-82.017	-0.163	0.053
-291.647	-125.908	0.369	0.055
-290.632	461.786	0.108	-0.239
-289.618	-200.000	-0.028	0.460
-288.603	800.000	0.047	0.164
-287.589	645.436	-0.054	-0.136
-286.574	55.272	0.207	0.199
-285.559	-200.000	-0.053	-0.247
-284.545	52.581	0.091	-0.086
-283.530	-200.000	-0.004	-0.041
-282.516	0.771	0.141	-0.100
-281.501	558.435	-0.134	-0.320
-280.486	212.678	-0.087	-0.137
-279.472	54.928	0.226	0.216
-278.457	224.275	0.158	-0.253
-277.443	800.000	0.055	-0.200
-276.428	-21.244	0.034	-0.020
-275.413	431.124	0.104	0.223
-274.399	657.696	-0.084	0.215
-273.384	82.660	0.095	0.103
-272.370	-200.000	-0.016	0.222
-271.355	107.549	0.221	0.260
-270.340	-40.291	0.098	-0.050
-269.326	214.063	-0.069	0.108
-268.311	-200.000	0.034	0.207
-267.297	286.439	-0.111	-0.199
-266.282	-41.118	0.276	0.141
-265.267	-19.537	-0.082	0.050
-264.253	216.780	0.183	-0.288
-263.238	800.000	-0.095	0.305
-262.224	800.000	-0.159	-0.455
-261.209	54.798	-0.147	-0.140
-260.195	185.884	-0.132	0.195
-259.180	-200.000	-0.017	-0.156
-258.165	-58.900	-0.153	-0.066
-257.151	800.000	-0.025	-0.087
-256.136	800.000	0.103	0.354
-255.122	25.527	-0.262	0.216
-254.107	221.556	0.153	0.243
-253.092	5.551	-0.147	-0.107
-252.078	-200.000	-0.002	-0.265
-251.063	800.000	-0.023	0.073
-250.049	800.000	-0.041	-0.141
-249.034	23.139	0.259	0.211
-248.019	-0.112	0.139	-0.098
-247.005	-200.000	0.016	-0.118
-245.990	315.514	-0.151	0.282
-244.976	800.000	0.088	0.345
-243.961	177.765	0.168	0.242
-242.946	57.738	0.172	-0.166
-241.932	-29.450	0.266	-0.150
-240.917	-91.215	0.124	0.035
-239.903	-11.081	-0.163	0.106
-238.888	800.000	-0.053	-0.189
-237.873	800.000	0.141	-0.421
-236.859	112.498	-0.083	0.099
-235.844	180.664	0.267	0.388
-234.830	-200.000	0.005	0.165
-233.815	-27.624	0.403	0.231
-232.800	-200.000	0.033	0.322
-231.786	108.840	-0.177	0.210
-230.771	675.849	0.014	-0.036
-229.757	462.902	0.043	-0.095
-228.742	-163.599	-0.213	-0.010
-227.727	-92.826	-0.228	0.063
-226.713	107.685	0.243	-0.286
-225.698	-163.675	0.178	0.008
-224.684	433.160	-0.155	0.332
-223.669	380.221	-0.092	-0.187
-222.655	-135.187	0.017	-0.002
-221.640	-25.680	-0.046	-0.027
-220.625	-200.000	0.029	0.198
-219.611	528.660	-0.047	0.109
-218.596	296.949	0.050	0.091
-217.582	-8.142	0.123	0.082
-216.567	25.005	-0.031	-0.026
-215.552	-130.275	-0.254	-0.034
-214.538	-53.542	0.107	0.048
-213.523	-182.042	0.230	-0.004
-212.509	121.918	-0.050	0.062
-211.494	-200.000	-0.017	0.165
-210.479	58.466	0.298	0.289
-209.465	94.025	-0.186	0.209
-208.450	-1.234	0.113	0.079
-207.436	-200.000	-0.027	0.292
-206.421	92.816	-0.241	0.269
-205.406	-200.000	-0.003	-0.206
-204.392	-85.242	0.226	0.070
-203.377	-200.000	0.005	-0.413
-202.363	631.735	0.103	-0.257
-201.348	-175.867	-0.107	0.003
-200.333	-115.601	0.222	-0.041
-199.319	60.378	-0.106	-0.104
-198.304	800.000	0.097	0.266
-197.290	68.613	-0.100	-0.102
-196.275	-22.235	0.160	-0.096
-195.260	115.686	-0.105	-0.127
-194.246	336.615	0.100	0.192
-193.231	178.062	0.130	0.187
-192.217	-200.000	-0.090	0.589
-191.202	-9.064	0.426	0.282
-190.187	286.668	-0.109	0.195
-189.173	-200.000	-0.012	0.057
-188.158	786.674	0.077	0.209
-187.144	122.890	-0.181	0.224
-186.129	800.000	0.036	-0.126
-185.114	-200.000	0.013	-0.088
-184.100	394.635	0.024	0.050
-183.085	-2.444	-0.049	-0.034
-182.071	-200.000	0.053	-0.523
-181.056	644.605	0.033	-0.084
-180.042	387.801	0.008	0.017
-179.027	-81.708	0.373	0.121
-178.012	71.977	-0.245	0.252
-176.998	287.776	0.218	-0.388
-175.983	532.115	0.070	0.163
-174.969	28.306	0.019	0.016
-173.954	-200.000	0.042	-0.216
-172.939	120.354	-0.175	-0.215
-171.925	800.000	0.095	-0.355
-170.910	-90.390	0.272	0.078
-169.896	-200.000	0.003	-0.126
-168.881	-50.788	0.103	0.048
-167.866	-200.000	0.041	-0.244
-166.852	271.404	0.120	0.209
-165.837	410.204	-0.073	-0.152
-164.823	-200.000	-0.026	-0.297
-163.808	-13.395	-0.261	-0.167
-162.793	197.226	0.122	0.184
-161.779	735.810	0.062	-0.163
-160.764	-167.660	-0.261	0.010
-159.750	54.357	-0.139	-0.132
-158.735	140.895	-0.214	-0.280
-157.720	92.905	0.258	0.287
-156.706	36.411	-0.169	-0.147
-155.691	46.214	-0.252	-0.231
-154.677	800.000	-0.066	-0.191
-153.662	-13.749	0.126	0.080
-152.647	282.104	-0.062	0.110
-151.633	-38.964	0.131	0.068
-150.618	-200.000	0.034	-0.335
-149.604	-61.574	-0.137	0.057
-148.589	-26.109	0.444	0.257
-147.574	13.451	-0.384	0.293
-146.560	652.715	0.069	0.174
-145.545	285.424	0.037	-0.065
-144.531	-200.000	-0.023	-0.133
-143.516	269.331	0.101	0.175
-142.502	-59.816	0.268	0.113
-141.487	800.000	0.134	0.489
-140.472	-131.434	-0.360	-0.047
-139.458	-200.000	0.039	-0.292
-138.443	270.511	-0.225	0.390
-137.429	800.000	-0.051	-0.195
-136.414	-145.278	0.223	-0.020
-135.399	-7.636	0.110	0.073
-134.385	-111.701	0.184	-0.037
-133.370	-200.000	0.002	-0.380
-132.356	800.000	-0.126	-0.488
-131.341	-95.949	0.183	-0.048
-130.326	800.000	-0.074	0.288
-129.312	100.157	0.020	0.023
-128.297	461.266	0.064	0.140
-127.283	-200.000	0.047	0.487
-126.268	-124.936	-0.420	0.064
-125.253	-175.705	0.164	-0.004
-124.239	-200.000	0.038	0.225
-123.224	-200.000	0.001	-0.304
-122.210	-14.436	-0.058	0.036
-121.195	148.672	-0.189	0.251
-120.180	6.007	0.295	-0.215
-119.166	800.000	-0.063	-0.269
-118.151	-200.000	-0.002	-0.217
-117.137	-200.000	0.015	-0.070
-116.122	-102.835	0.075	-0.018
-115.107	-200.000	-0.017	-0.483
-114.093	-136.454	-0.152	-0.017
-113.078	74.406	-0.098	-0.102
-112.064	-98.433	0.208	-0.052
-111.049	800.000	0.066	0.216
-110.034	-6.871	0.209	0.140
-109.020	83.087	0.033	0.036
-108.005	-200.000	0.009	0.247
-106.991	7.028	0.213	0.156
-105.976	9.362	0.025	-0.019
-104.962	-200.000	0.036	-0.249
-103.947	-130.346	0.198	0.026
-102.932	466.195	0.028	-0.062
-101.918	149.110	0.066	-0.088
-100.903	-200.000	-0.004	0.065
-99.889	-52.918	0.153	0.069
-98.874	660.887	0.138	-0.350
-97.859	74.516	-0.103	0.106
-96.845	276.950	-0.086	0.151
-95.830	-200.000	0.021	-0.106
-94.816	-23.337	0.157	-0.093
-93.801	63.900	0.278	0.275
-92.786	157.177	-0.238	0.324
-91.772	404.898	0.037	-0.076
-90.757	273.046	0.112	0.194
-89.743	-200.000	0.003	-0.150
-88.728	-10.239	-0.143	0.094
-87.713	-200.000	-0.206	0.001
-86.699	-200.000	-0.004	0.078
-85.684	-51.644	0.136	0.062
-84.670	1.613	0.167	-0.118
-83.655	-200.000	0.058	-0.331
-82.640	-134.706	-0.062	-0.007
-81.626	-3.995	0.073	-0.050
-80.611	-200.000	-0.011	-0.073
-79.597	170.298	-0.066	0.092
-78.582	-86.747	0.219	0.066
-77.567	34.977	0.130	-0.112
-76.553	199.155	0.098	-0.148
-75.538	-9.101	-0.188	-0.124
-74.524	-108.257	0.062	0.013
-73.509	165.934	0.078	-0.109
-72.494	800.000	-0.033	-0.124
-71.480	31.933	-0.080	0.068
-70.465	-95.006	0.303	0.080
-69.451	-20.656	-0.131	-0.079
-68.436	52.282	0.088	-0.083
-67.422	133.428	0.101	-0.129
-66.407	-200.000	0.003	0.110
-65.392	280.241	0.133	-0.233
-64.378	-200.000	-0.080	-0.410
-63.363	-172.453	-0.109	-0.003
-62.349	-59.744	-0.139	0.059
-61.334	-0.399	-0.750	-0.523
-60.319	24.642	0.469	0.382
-59.305	-200.000	-0.034	-1.424
-58.290	314.263	0.416	0.770
-57.276	800.000	0.469	1.714
-56.261	-200.000	99.372	585.323
-55.246	515.651	1403.881	3220.905
-54.232	158.817	2573.444	3511.225
-53.217	110.488	2156.872	2546.259
-52.203	41.749	1693.692	1507.557
-51.188	34.407	1503.721	1289.000
-50.173	31.936	1476.904	1249.522
-49.159	51.451	1527.714	1425.227
-48.144	53.120	1545.615	1453.189
-47.130	34.576	1504.456	1290.564
-46.115	31.554	1489.400	1257.325
-45.100	31.381	1485.843	1253.116
-44.086	31.238	1484.387	1250.878
-43.071	31.234	1482.294	1249.038
-42.057	31.221	1480.687	1247.550
-41.042	31.216	1479.112	1246.143
-40.027	31.155	1478.077	1244.812
-39.013	31.213	1476.321	1243.672
-37.998	31.259	1474.765	1242.615
-36.984	31.250	1473.747	1241.647
-35.969	31.184	1472.455	1240.075
-34.954	31.224	1470.872	1238.955
-33.940	31.178	1470.349	1238.164
-32.925	31.208	1468.935	1237.118
-31.911	31.367	1466.849	1236.366
-30.896	31.362	1465.945	1235.524
-29.881	31.317	1464.769	1234.183
-28.867	31.371	1463.006	1233.008
-27.852	31.273	1462.407	1231.804
-26.838	31.266	1460.756	1230.321
-25.823	31.222	1459.521	1228.940
-24.809	31.310	1457.054	1227.395
-23.794	31.310	1456.093	1226.536
-22.779	31.292	1455.167	1225.586
-21.765	31.234	1454.179	1224.328
-20.750	31.275	1453.015	1223.569
-19.736	31.259	1451.318	1221.988
-18.721	31.353	1450.100	1221.526
-17.706	31.225	1449.701	1220.305
-16.692	31.280	1448.148	1219.310
-15.677	31.259	1447.092	1218.235
-14.663	31.254	1446.458	1217.619
-13.648	31.254	1445.591	1216.843
-12.633	31.231	1444.489	1215.716
-11.619	31.226	1443.710	1214.978
-10.604	31.147	1443.172	1213.964
-9.590	31.152	1442.159	1213.094
-8.575	31.282	1441.172	1213.064
-7.560	31.276	1440.122	1212.094
-6.546	31.247	1439.461	1211.301
-5.531	31.182	1438.576	1210.085
-4.517	31.123	1438.026	1209.193
-3.502	31.214	1436.235	1208.226
-2.487	31.137	1435.595	1207.141
-1.473	31.154	1434.824	1206.557
-0.458	31.289	1432.912	1205.774
0.556	29.155	1424.097	1194.035
1.571	26.227	1399.326	1154.476
2.586	22.839	1340.382	1084.964
3.600	21.153	1259.786	1009.893
4.615	19.992	1214.771	967.238
5.629	17.300	1158.972	908.364
6.644	8.809	1074.159	799.601
7.659	1.389	1032.814	733.044
8.673	0.183	1027.524	723.435
9.688	0.161	1023.871	720.691
10.702	-0.079	1022.918	718.813
11.717	0.015	1020.979	717.836
12.731	2.738	1023.656	732.671
13.746	11.193	1035.243	781.602
14.761	17.399	1042.547	816.942
15.775	17.459	1041.563	816.385
16.790	16.435	1039.300	809.635
17.804	15.360	1036.877	802.534
18.819	14.463	1035.177	796.861
19.834	14.135	1033.705	794.091
20.848	13.826	1032.654	791.740
21.863	13.514	1032.498	790.063
22.877	13.267	1031.844	788.317
23.892	13.105	1030.686	786.592
24.907	12.970	1030.042	785.387
25.921	12.981	1029.264	784.776
26.936	13.090	1028.816	784.881
27.950	13.114	1027.678	784.057
28.965	12.998	1027.673	783.434
29.980	13.339	1026.003	783.708
30.994	13.237	1025.477	782.752
32.009	13.256	1024.555	782.072
33.023	13.283	1023.601	781.403
34.038	13.314	1023.021	781.036
35.053	13.398	1022.437	780.918
36.067	13.141	1021.604	778.998
37.082	13.126	1021.010	778.407
38.096	13.242	1020.041	778.144
39.111	13.342	1019.079	777.815
40.126	13.278	1017.940	776.573
41.140	13.173	1017.248	775.485
42.155	13.144	1016.369	774.611
43.169	13.157	1015.434	773.891
44.184	12.993	1014.472	772.323
45.199	12.963	1013.620	771.462
46.213	13.040	1012.134	770.624
47.228	13.074	1011.815	770.472
48.242	13.245	1010.281	770.033
49.257	13.194	1009.320	768.996
50.271	13.119	1008.326	767.820
51.286	13.168	1007.411	767.283
52.301	13.164	1007.256	767.077
53.315	13.153	1006.054	766.044
54.330	13.151	1005.430	765.492
55.344	13.039	1004.943	764.534
56.359	13.164	1003.351	763.833
57.374	13.113	1002.990	763.256
58.388	13.137	1002.058	762.592
59.403	12.940	1001.488	761.182
60.417	13.096	1000.525	761.098
61.432	13.012	1000.360	760.519
62.447	12.995	999.336	759.597
63.461	12.897	998.479	758.426
64.476	12.914	997.494	757.688
65.490	12.931	996.806	757.176
66.505	12.953	995.597	756.295
67.520	12.966	995.392	756.132
68.534	13.036	994.368	755.607
69.549	12.917	993.964	754.689
70.563	12.972	992.640	753.868
71.578	12.926	992.321	753.350
72.593	13.017	990.962	752.666
73.607	12.942	990.059	751.572
74.622	12.991	989.264	751.123
75.636	12.907	988.538	750.126
76.651	12.924	988.017	749.740
77.666	12.891	987.126	748.845
78.680	12.910	986.233	748.191
79.695	13.061	985.610	748.334
80.709	12.937	985.274	747.454
81.724	13.056	984.197	747.106
82.739	13.008	983.593	746.366
83.753	13.024	983.290	746.144
84.768	13.029	982.544	745.533
85.782	13.158	981.372	745.157
86.797	13.107	980.987	744.569
87.812	13.183	980.137	744.202
88.826	13.167	979.460	743.548
89.841	13.192	978.246	742.678
90.855	13.200	977.502	742.081
91.870	13.178	976.709	741.314
92.884	13.293	976.116	741.316
93.899	13.267	975.377	740.572
94.914	13.301	974.501	739.992
95.928	13.296	974.333	739.776
96.943	13.299	973.553	739.131
97.957	13.254	972.329	737.936
98.972	13.364	971.457	737.700
99.987	13.320	970.939	737.045
101.001	13.306	970.469	736.560
102.016	13.143	969.730	735.211
103.030	13.221	968.635	734.663
104.045	13.201	967.583	733.711
105.060	13.286	966.748	733.389
106.074	13.261	965.865	732.542
107.089	13.149	965.067	731.380
108.103	13.105	964.050	730.350
109.118	13.083	962.706	729.169
110.133	13.033	962.355	728.618
111.147	13.060	961.414	727.958
112.162	12.997	960.712	727.085
113.176	13.049	960.387	727.006
114.191	13.189	959.400	726.807
115.206	13.218	958.190	725.955
116.220	13.121	957.835	725.196
117.235	13.090	957.032	724.387
118.249	13.124	956.006	723.698
119.264	13.155	954.991	722.998
120.279	13.100	954.153	722.061
121.293	12.979	953.440	720.928
122.308	13.024	952.937	720.680
123.322	12.916	952.554	719.855
124.337	13.075	950.770	719.138
125.352	13.151	949.724	718.612
126.366	12.998	949.137	717.438
127.381	13.198	947.702	717.159
128.395	13.083	947.387	716.358
129.410	13.141	945.719	715.287
130.424	13.137	945.137	714.763
131.439	13.171	944.273	714.196
132.454	13.132	943.748	713.568
133.468	13.149	942.919	712.950
134.483	13.089	942.366	712.210
135.497	13.167	941.216	711.614
136.512	13.107	940.683	710.891
137.527	13.169	939.925	710.521
138.541	13.283	939.063	710.296
139.556	13.169	938.366	709.215
140.570	13.233	937.774	708.981
141.585	13.349	936.624	708.544
142.600	13.291	936.528	708.162
143.614	13.331	935.699	707.643
144.629	13.314	935.191	707.122
145.643	13.317	934.033	706.197
146.658	13.328	933.268	705.605
147.673	13.350	931.976	704.658
148.687	13.201	931.250	703.416
149.702	13.098	930.845	702.605
150.716	13.220	930.104	702.506
151.731	13.122	929.317	701.434
152.746	13.264	928.338	701.235
153.760	13.298	927.349	700.570
154.775	13.307	926.653	700.019
155.789	13.263	926.131	699.377
156.804	13.304	925.581	699.074
157.819	13.445	924.619	698.878
158.833	13.343	924.224	698.090
159.848	13.251	923.710	697.252
160.862	13.469	922.806	697.425
161.877	13.572	921.847	697.072
162.892	13.316	921.510	695.680
163.906	13.343	920.473	694.946
164.921	13.433	919.340	694.410
165.935	13.421	918.427	693.607
166.950	13.276	917.512	692.248
167.964	13.383	916.683	692.007
168.979	13.354	915.866	691.208
169.994	13.337	915.174	690.554
171.008	13.449	913.903	690.001
172.023	13.388	913.425	689.323
173.037	13.430	912.640	688.844
174.052	13.453	911.917	688.336
175.067	13.489	911.164	687.854
176.081	13.445	910.499	687.109
177.096	13.327	909.847	686.066
178.110	13.420	909.219	685.921
179.125	13.502	908.396	685.579
180.140	13.564	907.447	685.056
181.154	13.500	906.687	684.159
182.169	13.559	905.898	683.746
183.183	13.526	905.575	683.307
184.198	13.567	904.719	682.769
185.213	13.557	903.839	682.002
186.227	13.741	903.476	682.425
187.242	13.724	903.034	681.962
188.256	13.719	902.331	681.350
189.271	13.681	901.610	680.589
190.286	13.679	900.418	679.622
191.300	13.516	900.420	678.895
192.315	13.457	899.077	677.578
193.329	13.462	898.711	677.264
194.344	13.532	898.045	676.990
195.359	13.465	897.746	676.429
196.373	13.614	896.980	676.399
197.388	13.651	896.534	676.156
198.402	13.693	895.745	675.669
199.417	13.831	895.395	675.908
200.432	13.743	895.150	675.306
201.446	13.817	894.826	675.304
202.461	13.861	894.284	675.014
203.475	13.909	894.075	674.990
204.490	14.008	892.945	674.481
205.504	13.952	891.788	673.319
206.519	14.051	891.052	673.107
207.534	13.896	890.717	672.166
208.548	13.856	889.986	671.391
209.563	13.835	889.229	670.676
210.577	13.974	888.789	670.848
211.592	13.923	887.712	669.771
212.607	13.971	887.387	669.659
213.621	13.997	887.197	669.561
214.636	14.044	886.145	668.895
215.650	14.018	885.580	668.308
216.665	14.090	884.984	668.087
217.680	14.033	884.640	667.537
218.694	14.164	883.998	667.521
219.709	14.213	883.663	667.405
220.723	14.140	883.394	666.850
221.738	14.236	882.090	666.194
222.753	14.242	881.205	665.489
223.767	14.121	881.044	664.825
224.782	14.213	880.031	664.369
225.796	14.264	879.250	663.923
226.811	14.259	878.637	663.380
227.826	14.146	878.143	662.502
228.840	14.269	877.098	662.144
229.855	14.345	876.076	661.615
230.869	14.266	875.537	660.836
231.884	14.405	875.375	661.208
232.899	14.351	874.731	660.448
233.913	14.206	874.099	659.337
234.928	14.205	873.490	658.814
235.942	14.265	873.056	658.665
236.957	14.252	871.917	657.697
237.972	14.199	871.604	657.196
238.986	14.137	871.032	656.460
240.001	14.275	870.312	656.402
241.015	14.180	870.142	655.841
242.030	14.399	868.958	655.756
243.045	14.363	868.134	654.932
244.059	14.389	867.888	654.793
245.074	14.471	867.056	654.427
246.088	14.373	866.818	653.804
247.103	14.394	866.426	653.536
248.117	14.455	865.506	653.021
249.132	14.473	864.929	652.599
250.147	14.566	864.444	652.538
251.161	14.539	863.877	651.948
252.176	14.597	862.976	651.436
253.190	14.630	861.943	650.729
254.205	14.794	861.921	651.294
255.220	14.800	861.383	650.854
256.234	14.785	860.665	650.193
257.249	14.828	860.435	650.128
258.263	14.714	859.656	649.042
259.278	14.586	859.306	648.223
260.293	14.684	858.586	648.001
261.307	14.838	857.625	647.816
262.322	14.933	856.668	647.403
263.336	14.937	856.667	647.362
264.351	15.044	855.719	647.000
265.366	14.910	855.558	646.304
266.380	14.996	854.708	645.935
267.395	14.919	854.440	645.378
268.409	14.944	853.588	644.775
269.424	14.869	852.958	643.954
270.439	14.822	852.417	643.309
271.453	14.926	851.200	642.732
272.468	14.889	850.709	642.164
273.482	14.883	850.064	641.596
274.497	14.983	849.289	641.336
275.512	14.936	848.824	640.751
276.526	15.011	847.669	640.107
277.541	14.805	847.684	639.273
278.555	14.985	846.690	639.157
279.570	15.005	846.426	638.975
280.585	15.023	846.063	638.713
281.599	15.124	845.372	638.521
282.614	15.090	844.525	637.694
283.628	15.199	843.953	637.622
284.643	15.073	843.404	636.670
285.657	15.110	842.912	636.385
286.672	15.236	842.202	636.269
287.687	15.236	842.062	636.110
288.701	15.147	841.657	635.408
289.716	15.061	841.204	634.686
290.730	15.299	840.184	634.759
291.745	15.207	839.598	633.913
292.760	15.244	838.833	633.420
293.774	15.340	838.365	633.374
294.789	15.201	838.181	632.654
295.803	15.146	837.618	631.964
296.818	15.217	836.648	631.443
297.833	15.189	836.179	630.928
298.847	15.408	834.950	630.768
299.862	15.204	834.933	629.932
300.876	15.308	834.111	629.649
301.891	15.444	833.042	629.296
302.906	15.370	832.948	628.889
303.920	15.532	832.252	628.916
304.935	15.566	831.792	628.642
305.949	15.475	831.158	627.765
306.964	15.515	830.607	627.442
307.979	15.520	830.358	627.219
308.993	15.589	829.218	626.558
310.008	15.661	828.495	626.226
311.022	15.537	828.861	625.986
312.037	15.471	828.007	625.038
313.052	15.519	827.454	624.745
314.066	15.491	826.987	624.231
315.081	15.552	826.147	623.769
316.095	15.495	825.781	623.225
317.110	15.496	825.361	622.857
318.125	15.538	824.815	622.546
319.139	15.481	824.571	622.096
320.154	15.607	823.678	621.834
321.168	15.581	822.934	621.119
322.183	15.747	822.434	621.300
323.197	15.571	822.299	620.495
324.212	15.684	821.707	620.410
325.227	15.641	821.153	619.779
326.241	15.625	820.739	619.351
327.256	15.640	819.904	618.722
328.270	15.586	819.279	617.999
329.285	15.835	818.725	618.439
330.300	15.557	818.313	617.054
331.314	15.524	817.579	616.324
332.329	15.683	816.843	616.298
333.343	15.736	816.183	615.939
334.358	15.750	816.112	615.881
335.373	15.840	815.495	615.691
336.387	15.788	814.805	614.924
337.402	15.909	814.199	614.856
338.416	15.875	813.839	614.404
339.431	15.814	813.195	613.643
340.446	15.948	812.633	613.651
341.460	16.023	812.296	613.618
342.475	15.861	811.830	612.620
343.489	15.952	811.167	612.398
344.504	16.042	810.555	612.209
345.519	16.087	809.865	611.795
346.533	16.330	809.012	611.978
347.548	16.162	809.087	611.371
348.562	16.079	808.618	610.662
349.577	16.124	808.011	610.315
350.592	16.037	807.682	609.694
351.606	16.063	807.044	609.256
352.621	15.954	806.710	608.554
353.635	15.917	806.413	608.143
354.650	16.154	805.647	608.367
355.665	16.150	805.271	608.014
356.679	16.233	804.625	607.771
357.694	16.306	804.462	607.859
358.708	16.127	803.879	606.721
359.723	16.220	803.268	606.539
360.738	16.327	802.775	606.495
361.752	16.312	802.210	605.964
362.767	16.298	801.727	605.493
363.781	16.239	801.521	605.074
364.796	16.408	800.606	604.935
365.810	16.398	800.783	604.977
366.825	16.391	800.444	604.643
367.840	16.400	800.210	604.447
368.854	16.377	799.711	603.934
369.869	16.435	798.996	603.548
370.883	16.470	798.425	603.187
371.898	16.375	798.045	602.507
372.913	16.383	797.283	601.907
373.927	16.656	796.604	602.315
374.942	16.460	796.256	601.299
375.956	16.432	795.366	600.474
376.971	16.570	794.715	600.419
377.986	16.599	794.387	600.223
379.000	16.772	793.663	600.234
380.015	16.691	793.387	599.688
381.029	16.666	793.134	599.353
382.044	16.667	792.266	598.647
383.059	16.790	791.688	598.595
384.073	16.804	791.351	598.335
385.088	16.784	790.782	597.782
386.102	16.757	790.068	597.094
387.117	16.742	789.567	596.609
388.132	16.624	789.341	595.969
389.146	16.748	788.975	596.076
390.161	16.746	788.138	595.384
391.175	16.899	787.873	595.669
392.190	16.699	787.730	594.805
393.205	16.760	787.442	594.751
394.219	16.758	786.894	594.278
395.234	16.701	786.559	593.770
396.248	16.765	786.278	593.731
397.263	16.625	785.488	592.592
398.278	16.715	784.966	592.461
399.292	16.769	784.386	592.160
400.307	16.797	784.273	592.117
401.321	16.745	783.762	591.500
402.336	16.762	783.642	591.417
403.350	16.893	783.020	591.352
404.365	16.862	782.573	590.854
405.380	16.884	781.830	590.316
406.394	17.011	781.367	590.356
407.409	17.198	780.461	590.270
408.423	17.080	780.817	590.078
409.438	17.056	780.507	589.706
410.453	17.097	779.900	589.337
411.467	17.130	779.426	589.042
412.482	17.227	778.901	588.930
413.496	17.226	778.205	588.349
414.511	17.252	778.071	588.286
415.526	17.179	778.046	587.962
416.540	17.168	777.742	587.640
417.555	17.201	777.325	587.389
418.569	17.130	776.769	586.670
419.584	17.206	776.459	586.648
420.599	17.251	775.772	586.232
421.613	108.399	1287.465	1463.221
422.628	92.616	1362.021	1463.348
