DTS Sentinel unit serial number:	SN413079Multiplexer serial number:	ORYXHardware model number:	OX4-SRSoftware version number:	ORYX F/W v4.00 Oryx Data Collector v3.7.2.0data status	okinstallation	princeton_trtdifferential loss correction	single-endedforward channel	channel 3reverse channel	N/Adate	2019/09/12time	21:56:34forward acquisition time	60.00reverse acquisition time	0.00gamma	496.2192k internal	0.2326k external	0.2326temperature offset calibration	1.0129default loss term (dB/km)	0.3790temperature slope calibration	1.0000multiplexer offset coefficient	1.0000multiplexer slope coefficient	1.0000fibre end	0.00T internal ref (°C)	30.12T ext. ref 1 (°C)	3.75T ext. ref 2 (°C)	24.74length (m)	temperature (°C)	Stokes	anti-Stokes-747.200	800.000	-0.084	0.283
-746.185	-200.000	0.016	0.095
-745.171	-47.627	0.308	0.151
-744.156	11.260	-0.207	-0.160
-743.142	-200.000	0.023	0.156
-742.127	-59.777	-0.079	-0.034
-741.112	716.812	-0.104	0.278
-740.098	-63.268	0.076	-0.031
-739.083	-122.802	-0.291	0.047
-738.069	-17.412	-0.143	0.091
-737.054	-200.000	0.001	-0.005
-736.039	47.939	-0.189	-0.178
-735.025	-200.000	0.001	0.269
-734.010	-11.058	0.173	-0.115
-732.996	176.122	-0.123	-0.180
-731.981	800.000	0.110	-0.403
-730.966	800.000	-0.069	0.273
-729.952	-75.866	-0.295	-0.105
-728.937	156.619	-0.145	-0.202
-727.923	800.000	0.068	-0.230
-726.908	-34.748	-0.388	0.214
-725.894	-200.000	-0.009	-0.172
-724.879	-200.000	0.009	-0.255
-723.864	-102.636	0.259	0.062
-722.850	96.792	0.225	-0.260
-721.835	133.209	0.124	0.161
-720.821	110.560	-0.150	0.182
-719.806	-62.468	0.167	0.070
-718.791	174.754	-0.085	-0.124
-717.777	47.959	-0.174	0.164
-716.762	575.399	-0.067	-0.164
-715.748	233.247	-0.127	0.211
-714.733	-79.951	0.206	0.070
-713.718	-60.026	0.173	-0.075
-712.704	-200.000	0.043	-0.200
-711.689	105.388	0.326	-0.388
-710.675	255.259	-0.230	-0.396
-709.660	-66.162	-0.515	-0.207
-708.645	-17.233	-0.224	-0.142
-707.631	-56.750	-0.123	-0.055
-706.616	-67.515	-0.106	0.042
-705.602	505.259	-0.131	0.305
-704.587	-106.026	0.468	-0.106
-703.572	219.258	-0.056	0.090
-702.558	-129.027	0.316	0.045
-701.543	72.291	-0.039	-0.041
-700.529	-5.446	-0.029	0.020
-699.514	297.328	-0.058	-0.107
-698.499	-200.000	-0.033	0.325
-697.485	55.015	0.074	0.072
-696.470	-109.204	0.088	0.019
-695.456	800.000	0.079	-0.260
-694.441	60.733	-0.196	0.195
-693.426	29.488	-0.031	-0.027
-692.412	124.162	0.043	0.054
-691.397	800.000	0.101	-0.314
-690.383	-27.956	-0.187	-0.109
-689.368	-158.940	0.046	-0.003
-688.354	380.529	0.161	-0.333
-687.339	227.186	0.146	0.239
-686.324	800.000	-0.097	-0.271
-685.310	-200.000	-0.027	0.226
-684.295	117.907	0.082	-0.102
-683.281	-158.021	-0.348	0.021
-682.266	-61.246	0.172	-0.073
-681.251	47.531	0.321	-0.301
-680.237	800.000	-0.047	-0.170
-679.222	635.307	-0.219	-0.560
-678.208	-200.000	-0.039	-0.242
-677.193	-76.773	-0.027	0.010
-676.178	-27.509	-0.061	-0.036
-675.164	-200.000	0.050	0.247
-674.149	-40.259	-0.383	0.200
-673.135	-200.000	0.001	0.101
-672.120	149.236	-0.131	-0.179
-671.105	394.510	0.012	-0.025
-670.091	-117.710	-0.189	0.034
-669.076	-111.787	-0.374	0.076
-668.062	-36.719	-0.167	0.090
-667.047	295.821	-0.091	0.167
-666.032	-7.771	-0.205	0.139
-665.018	-108.063	-0.318	-0.069
-664.003	-200.000	-0.096	0.489
-662.989	151.884	-0.208	0.285
-661.974	-132.667	0.168	0.022
-660.959	-200.000	0.010	-0.063
-659.945	-96.160	-0.012	0.003
-658.930	-0.732	0.332	-0.236
-657.916	-102.199	0.087	0.021
-656.901	-61.174	-0.156	-0.066
-655.886	800.000	-0.075	-0.215
-654.872	97.059	-0.244	-0.281
-653.857	526.866	0.125	0.295
-652.843	-52.933	-0.136	0.063
-651.828	-200.000	0.015	-0.126
-650.814	-200.000	-0.011	0.105
-649.799	-98.994	0.111	-0.028
-648.784	-200.000	-0.082	-0.448
-647.770	-25.265	0.229	-0.136
-646.755	800.000	-0.089	-0.370
-645.741	351.112	-0.068	0.134
-644.726	509.291	-0.106	0.249
-643.711	800.000	-0.121	-0.373
-642.697	-9.464	-0.048	-0.032
-641.682	90.121	-0.087	-0.098
-640.668	-61.330	0.136	0.058
-639.653	162.614	0.170	-0.239
-638.638	242.524	-0.132	-0.221
-637.624	-59.758	0.186	0.080
-636.609	-23.161	-0.100	-0.060
-635.595	139.198	0.098	0.129
-634.580	-37.950	-0.100	0.053
-633.565	800.000	0.065	0.205
-632.551	30.714	0.168	-0.144
-631.536	151.317	-0.116	-0.159
-630.522	-200.000	-0.016	0.136
-629.507	-200.000	0.003	0.255
-628.492	-133.867	-0.095	-0.012
-627.478	-103.909	0.315	-0.074
-626.463	226.163	-0.193	0.315
-625.449	421.187	0.102	-0.219
-624.434	-7.543	-0.218	-0.148
-623.419	250.579	-0.082	0.140
-622.405	214.738	0.121	-0.192
-621.390	13.081	-0.120	0.093
-620.376	-200.000	0.030	-0.547
-619.361	-171.928	0.080	-0.003
-618.346	147.840	-0.085	0.114
-617.332	694.164	0.078	0.205
-616.317	-166.363	0.284	-0.012
-615.303	-144.852	0.249	0.023
-614.288	-144.945	-0.193	0.018
-613.273	-200.000	-0.035	0.331
-612.259	-167.223	0.266	-0.011
-611.244	70.705	0.139	0.145
-610.230	-55.507	-0.119	0.053
-609.215	-178.370	-0.206	0.005
-608.201	325.623	-0.062	0.119
-607.186	-80.145	0.128	-0.043
-606.171	-200.000	0.038	0.232
-605.157	20.406	0.082	-0.067
-604.142	-200.000	-0.011	0.167
-603.128	-200.000	-0.012	0.132
-602.113	-171.672	0.310	0.010
-601.098	-34.750	0.184	0.101
-600.084	-17.517	0.111	0.070
-599.069	212.547	0.125	-0.197
-598.055	800.000	-0.025	0.097
-597.040	150.255	-0.173	-0.236
-596.025	68.566	-0.397	-0.408
-595.011	-28.885	-0.365	-0.210
-593.996	-200.000	-0.020	-0.094
-592.982	-180.893	0.597	-0.012
-591.967	-78.857	-0.098	0.034
-590.952	-53.056	-0.097	-0.045
-589.938	155.942	0.054	-0.074
-588.923	800.000	-0.122	-0.396
-587.909	-97.286	-0.217	-0.057
-586.894	309.913	-0.131	0.246
-585.879	29.983	-0.198	-0.169
-584.865	308.026	-0.111	0.208
-583.850	-200.000	-0.000	0.333
-582.836	164.045	-0.157	0.221
-581.821	28.363	-0.249	-0.211
-580.806	-116.645	0.244	0.045
-579.792	62.953	0.249	0.250
-578.777	337.551	-0.081	-0.158
-577.763	536.274	-0.047	-0.112
-576.748	-123.527	0.212	-0.034
-575.733	-60.494	-0.144	0.061
-574.719	202.072	0.287	-0.443
-573.704	451.295	0.162	0.358
-572.690	-115.697	-0.279	-0.052
-571.675	579.513	0.047	0.114
-570.661	-71.865	0.203	0.076
-569.646	207.055	0.140	0.219
-568.631	-163.218	0.143	0.007
-567.617	300.058	-0.215	-0.396
-566.602	-44.243	-0.223	0.112
-565.588	-153.998	0.185	0.013
-564.573	-52.506	-0.169	-0.078
-563.558	800.000	0.062	0.175
-562.544	228.846	-0.096	-0.157
-561.529	-33.231	-0.298	0.165
-560.515	20.503	-0.196	-0.158
-559.500	297.104	0.103	-0.190
-558.485	68.206	-0.147	-0.151
-557.471	270.846	-0.101	-0.178
-556.456	-34.760	0.234	-0.128
-555.442	17.746	0.264	-0.210
-554.427	100.007	0.252	0.292
-553.412	646.724	-0.060	0.153
-552.398	50.313	0.068	-0.065
-551.383	-41.449	0.297	-0.153
-550.369	800.000	-0.025	-0.111
-549.354	-125.959	0.155	-0.023
-548.339	-200.000	-0.006	-0.043
-547.325	90.827	-0.130	-0.146
-546.310	-117.649	-0.173	-0.031
-545.296	-26.563	-0.113	-0.066
-544.281	800.000	0.034	0.101
-543.266	0.774	-0.150	-0.107
-542.252	191.601	0.024	0.036
-541.237	-200.000	0.066	0.329
-540.223	-200.000	-0.050	0.279
-539.208	-43.093	-0.160	0.081
-538.193	800.000	0.067	0.193
-537.179	232.139	-0.070	0.115
-536.164	-200.000	-0.017	0.218
-535.150	236.717	0.199	-0.329
-534.135	-21.813	0.269	0.164
-533.121	-200.000	-0.000	0.209
-532.106	800.000	-0.053	0.156
-531.091	-200.000	-0.024	0.145
-530.077	-58.152	0.079	-0.034
-529.062	-200.000	-0.002	0.020
-528.048	9.895	-0.040	-0.030
-527.033	-200.000	-0.049	-0.225
-526.018	-80.520	-0.120	0.040
-525.004	-67.517	-0.192	0.076
-523.989	-145.702	-0.152	-0.014
-522.975	139.614	0.049	-0.064
-521.960	-200.000	-0.011	0.160
-520.945	-162.512	0.367	0.018
-519.931	-12.506	-0.315	-0.206
-518.916	-163.608	-0.478	0.023
-517.902	-36.010	0.104	0.056
-516.887	-172.637	0.207	-0.007
-515.872	-12.910	0.091	-0.059
-514.858	800.000	0.077	-0.225
-513.843	213.551	0.294	0.464
-512.829	77.911	0.158	-0.169
-511.814	-179.482	0.166	-0.004
-510.799	-99.546	-0.233	-0.059
-509.785	88.178	0.042	-0.047
-508.770	146.031	0.061	-0.081
-507.756	-200.000	0.005	0.374
-506.741	73.428	0.148	-0.155
-505.726	-200.000	-0.011	0.064
-504.712	208.893	0.222	-0.347
-503.697	85.215	-0.176	-0.193
-502.683	-140.021	-0.172	0.018
-501.668	-105.641	0.266	-0.060
-500.653	265.282	-0.225	-0.392
-499.639	151.745	-0.273	-0.372
-498.624	-200.000	-0.039	-0.190
-497.610	-142.569	0.157	-0.015
-496.595	-42.684	0.061	-0.031
-495.581	-200.000	0.003	0.109
-494.566	-85.715	0.231	-0.072
-493.551	237.588	-0.122	0.202
-492.537	-73.290	-0.288	-0.105
-491.522	-84.514	-0.245	-0.077
-490.508	131.136	-0.071	0.091
-489.493	729.380	0.019	0.051
-488.478	-200.000	0.046	0.238
-487.464	151.503	0.220	-0.299
-486.449	64.017	0.104	-0.104
-485.435	2.910	-0.200	0.145
-484.420	79.095	0.133	0.142
-483.405	286.744	0.219	0.396
-482.391	82.764	0.075	-0.081
-481.376	53.355	0.295	-0.282
-480.362	188.449	-0.033	-0.049
-479.347	248.529	0.113	0.191
-478.332	-157.727	-0.332	-0.020
-477.318	795.164	0.078	-0.215
-476.303	-200.000	-0.031	0.403
-475.289	-200.000	-0.015	-0.273
-474.274	677.516	-0.146	-0.379
-473.259	800.000	-0.048	-0.144
-472.245	62.114	0.128	-0.127
-471.230	-156.282	0.075	-0.005
-470.216	6.194	-0.233	0.172
-469.201	800.000	-0.035	-0.122
-468.186	135.297	-0.034	0.043
-467.172	62.723	-0.059	-0.059
-466.157	-72.642	0.086	0.032
-465.143	354.985	-0.059	0.117
-464.128	157.942	-0.240	0.332
-463.113	-200.000	0.032	0.244
-462.099	-175.104	0.140	0.004
-461.084	-200.000	-0.005	0.299
-460.070	214.582	0.235	0.371
-459.055	-200.000	0.008	0.213
-458.040	-7.305	0.128	-0.086
-457.026	-127.336	-0.058	0.008
-456.011	313.304	-0.118	0.222
-454.997	800.000	-0.038	0.117
-453.982	-200.000	-0.015	-0.150
-452.968	800.000	-0.111	-0.481
-451.953	-200.000	0.081	-0.000
-450.938	-200.000	0.001	0.173
-449.924	-59.601	-0.173	-0.074
-448.909	-200.000	0.020	0.259
-447.895	-200.000	0.003	-0.086
-446.880	-75.959	0.140	0.049
-445.865	-133.063	-0.049	-0.006
-444.851	-71.102	0.280	-0.105
-443.836	799.058	0.034	-0.093
-442.822	431.572	0.013	-0.029
-441.807	-175.853	0.302	0.008
-440.792	92.304	0.197	0.222
-439.778	-155.273	0.105	-0.007
-438.763	89.310	0.083	-0.092
-437.749	800.000	-0.120	-0.335
-436.734	62.523	-0.132	-0.131
-435.719	-200.000	0.037	-0.227
-434.705	-200.000	-0.021	-0.136
-433.690	-47.821	-0.147	-0.071
-432.676	-200.000	0.034	0.218
-431.661	34.007	-0.096	0.084
-430.646	-42.333	-0.169	0.086
-429.632	93.691	0.152	-0.172
-428.617	166.308	-0.054	0.076
-427.603	-200.000	-0.012	0.134
-426.588	-191.593	-0.172	-0.002
-425.573	359.131	-0.128	0.255
-424.559	-46.058	0.061	0.030
-423.544	-81.636	-0.090	-0.029
-422.530	-11.632	0.075	0.049
-421.515	-200.000	-0.011	-0.268
-420.500	-134.925	-0.173	0.021
-419.486	-200.000	-0.024	-0.232
-418.471	25.063	0.072	-0.059
-417.457	-200.000	0.069	0.432
-416.442	-200.000	0.042	0.318
-415.428	251.816	-0.209	-0.355
-414.413	68.610	0.098	-0.100
-413.398	-200.000	-0.028	-0.133
-412.384	-150.111	-0.043	-0.003
-411.369	-200.000	-0.034	-0.579
-410.355	100.263	-0.117	-0.135
-409.340	-67.502	0.092	0.036
-408.325	757.371	-0.072	0.195
-407.311	-200.000	0.074	0.413
-406.296	-200.000	0.008	0.047
-405.282	800.000	0.043	0.186
-404.267	-142.585	0.259	0.025
-403.252	-133.078	0.270	0.034
-402.238	-164.068	-0.172	0.008
-401.223	-200.000	-0.005	-0.129
-400.209	800.000	0.050	-0.209
-399.194	-200.000	-0.016	0.255
-398.179	93.072	-0.077	-0.087
-397.165	-110.764	-0.154	-0.032
-396.150	129.322	0.164	0.208
-395.136	-38.417	0.110	0.058
-394.121	-123.599	-0.406	-0.064
-393.106	-200.000	-0.025	-0.117
-392.092	-200.000	-0.021	0.418
-391.077	-161.405	0.355	0.018
-390.063	299.101	0.170	-0.311
-389.048	-68.537	-0.141	-0.054
-388.033	800.000	0.102	0.283
-387.019	800.000	0.046	-0.140
-386.004	41.815	-0.246	-0.221
-384.990	176.434	-0.262	0.379
-383.975	186.205	-0.180	-0.266
-382.960	-71.030	-0.194	0.072
-381.946	562.856	-0.036	0.087
-380.931	4.332	-0.139	0.101
-379.917	-200.000	-0.011	-0.396
-378.902	77.982	-0.166	0.176
-377.888	-200.000	-0.031	0.406
-376.873	670.627	0.091	0.233
-375.858	-70.207	0.100	-0.038
-374.844	-168.786	0.316	-0.012
-373.829	-200.000	-0.009	-0.075
-372.815	-25.777	0.275	-0.161
-371.800	-200.000	-0.004	-0.032
-370.785	-129.001	0.155	0.022
-369.771	-79.963	-0.253	-0.084
-368.756	-200.000	0.024	-0.122
-367.742	800.000	-0.088	0.256
-366.727	-93.173	-0.138	-0.038
-365.712	481.699	-0.070	0.157
-364.698	-200.000	0.003	0.126
-363.683	-156.822	0.217	0.013
-362.669	800.000	-0.082	-0.243
-361.654	800.000	-0.081	-0.293
-360.639	59.764	0.062	-0.061
-359.625	-108.577	0.152	0.032
-358.610	-127.690	0.109	-0.016
-357.596	-183.730	-0.092	0.002
-356.581	239.562	-0.024	-0.040
-355.566	49.826	0.138	0.129
-354.552	72.538	0.411	0.425
-353.537	-151.556	-0.419	0.031
-352.523	-152.955	0.247	-0.017
-351.508	-49.147	-0.131	-0.062
-350.493	-52.113	-0.381	0.176
-349.479	271.747	0.158	0.276
-348.464	134.521	0.184	0.237
-347.450	-23.096	-0.269	-0.161
-346.435	800.000	-0.056	-0.198
-345.420	-3.754	0.191	-0.132
-344.406	409.567	0.040	-0.084
-343.391	39.477	-0.130	-0.116
-342.377	-185.430	-0.155	-0.002
-341.362	800.000	-0.185	0.508
-340.348	-200.000	-0.020	-0.211
-339.333	398.479	0.075	-0.157
-338.318	-122.483	-0.214	0.035
-337.304	-200.000	0.001	0.095
-336.289	53.394	0.101	-0.097
-335.275	-200.000	-0.026	-0.126
-334.260	-200.000	0.007	0.238
-333.245	-10.842	-0.238	0.156
-332.231	-12.387	0.124	0.080
-331.216	145.731	-0.092	0.123
-330.202	-200.000	-0.067	0.342
-329.187	-115.291	0.233	-0.044
-328.172	-200.000	0.052	0.269
-327.158	424.188	-0.067	-0.143
-326.143	142.257	0.072	0.095
-325.129	-152.120	0.635	-0.046
-324.114	446.646	-0.066	0.145
-323.099	525.055	0.089	-0.209
-322.085	-6.296	0.286	-0.194
-321.070	40.079	-0.093	0.083
-320.056	-26.782	-0.050	-0.029
-319.041	219.627	0.007	0.011
-318.026	498.538	0.131	-0.300
-317.012	377.918	-0.040	-0.082
-315.997	-105.415	0.216	-0.049
-314.983	-200.000	-0.017	-0.137
-313.968	800.000	-0.054	-0.186
-312.953	-141.431	0.231	-0.023
-311.939	-200.000	0.018	-0.176
-310.924	-145.024	-0.324	0.029
-309.910	-200.000	-0.015	-0.200
-308.895	-38.608	0.061	0.032
-307.880	232.250	0.040	0.065
-306.866	-200.000	0.027	-0.243
-305.851	-200.000	0.012	0.110
-304.837	434.658	0.146	0.315
-303.822	242.520	0.017	-0.028
-302.807	-25.702	-0.191	0.112
-301.793	38.683	0.156	-0.138
-300.778	-4.262	-0.040	0.027
-299.764	110.912	0.073	0.087
-298.749	-86.427	-0.189	0.057
-297.735	800.000	0.050	-0.208
-296.720	800.000	0.100	-0.365
-295.705	273.233	-0.108	0.189
-294.691	28.048	0.137	-0.115
-293.676	552.501	-0.125	-0.297
-292.662	229.322	0.089	-0.144
-291.647	393.320	0.040	-0.083
-290.632	10.353	-0.031	0.024
-289.618	-104.086	-0.068	-0.016
-288.603	221.692	0.171	-0.273
-287.589	-90.122	-0.223	0.064
-286.574	-88.401	0.260	0.077
-285.559	58.218	0.281	-0.273
-284.545	-108.839	0.158	0.033
-283.530	-73.756	-0.111	0.040
-282.516	800.000	-0.035	-0.150
-281.501	-200.000	0.029	-0.265
-280.486	117.734	0.107	-0.130
-279.472	-73.991	-0.175	-0.063
-278.457	474.936	0.042	-0.094
-277.443	13.321	0.115	0.089
-276.428	357.732	0.102	-0.201
-275.413	558.244	-0.103	-0.245
-274.399	800.000	0.108	-0.352
-273.384	-0.919	0.165	0.116
-272.370	-110.247	-0.213	0.044
-271.355	-72.725	-0.287	-0.105
-270.340	-46.680	-0.248	-0.120
-269.326	55.869	0.044	0.042
-268.311	-14.451	0.180	0.115
-267.297	79.188	0.191	0.203
-266.282	-116.769	-0.289	0.052
-265.267	-170.742	-0.247	-0.008
-264.253	276.210	-0.129	0.226
-263.238	60.423	-0.240	0.235
-262.224	23.915	0.237	-0.193
-261.209	-143.133	0.283	-0.027
-260.195	-108.564	0.236	0.050
-259.180	118.007	-0.076	-0.092
-258.165	-123.401	0.029	-0.005
-257.151	207.893	-0.219	0.339
-256.136	143.451	-0.122	0.161
-255.122	-153.238	-0.210	-0.015
-254.107	-3.785	0.145	-0.100
-253.092	245.955	0.187	-0.312
-252.078	-64.076	-0.223	-0.090
-251.063	-200.000	0.012	0.227
-250.049	-133.740	0.325	-0.040
-249.034	-200.000	0.012	0.078
-248.019	75.444	0.148	0.155
-247.005	29.250	-0.246	-0.207
-245.990	-200.000	-0.006	-0.160
-244.976	-200.000	0.006	-0.203
-243.961	-168.945	0.162	0.006
-242.946	-47.654	-0.080	0.038
-241.932	-109.845	0.158	-0.033
-240.917	44.556	-0.060	-0.055
-239.903	-200.000	-0.004	-0.438
-238.888	800.000	0.089	0.296
-237.873	235.574	-0.194	0.317
-236.859	-19.016	-0.192	-0.118
-235.844	781.961	-0.059	0.160
-234.830	-195.413	0.423	-0.003
-233.815	-72.969	-0.184	0.067
-232.800	-200.000	0.020	-0.245
-231.786	-200.000	-0.025	0.187
-230.771	10.758	0.110	0.083
-229.757	-57.093	-0.381	0.166
-228.742	-200.000	0.037	0.378
-227.727	-27.804	0.021	-0.012
-226.713	-12.952	-0.173	-0.111
-225.698	-200.000	-0.026	-0.290
-224.684	213.481	-0.072	0.113
-223.669	-1.222	-0.230	0.161
-222.655	373.259	0.192	0.386
-221.640	-112.552	-0.218	-0.043
-220.625	83.159	-0.260	0.279
-219.611	-76.443	0.112	0.039
-218.596	-66.296	0.187	0.074
-217.582	15.864	-0.357	0.277
-216.567	800.000	-0.069	0.271
-215.552	403.624	0.089	0.185
-214.538	-36.548	0.023	-0.012
-213.523	67.875	0.162	-0.163
-212.509	43.338	-0.276	0.249
-211.494	-128.798	0.293	-0.041
-210.479	-200.000	0.035	0.261
-209.465	636.815	0.083	-0.208
-208.450	734.245	0.047	-0.125
-207.436	800.000	0.015	-0.052
-206.421	800.000	-0.054	-0.171
-205.406	44.581	-0.058	0.052
-204.392	-200.000	0.026	-0.281
-203.377	800.000	-0.125	-0.392
-202.363	800.000	-0.037	0.157
-201.348	90.253	-0.090	0.099
-200.333	131.044	0.164	0.207
-199.319	800.000	0.072	-0.310
-198.304	-180.063	-0.242	0.005
-197.290	-115.040	-0.175	-0.033
-196.275	183.783	0.085	0.124
-195.260	-200.000	0.109	-0.001
-194.246	-200.000	-0.006	-0.283
-193.231	-200.000	-0.038	0.216
-192.217	800.000	-0.052	0.143
-191.202	-97.234	0.121	-0.031
-190.187	1.820	0.323	0.230
-189.173	-18.943	0.229	0.141
-188.158	-142.698	-0.242	0.023
-187.144	-200.000	-0.017	-0.428
-186.129	-200.000	-0.023	0.175
-185.114	160.132	-0.125	0.172
-184.100	800.000	0.066	0.212
-183.085	-75.304	0.092	0.033
-182.071	-91.716	-0.191	0.054
-181.056	97.163	0.061	-0.069
-180.042	437.363	0.129	-0.278
-179.027	-52.354	-0.280	-0.128
-178.012	-70.382	0.386	0.144
-176.998	800.000	-0.094	0.300
-175.983	-200.000	0.014	0.236
-174.969	-31.565	-0.176	-0.098
-173.954	309.865	0.132	0.243
-172.939	-200.000	-0.035	0.188
-171.925	-200.000	0.003	-0.024
-170.910	-92.552	0.183	-0.051
-169.896	161.209	0.184	-0.254
-168.881	66.360	-0.337	-0.337
-167.866	-42.341	0.187	0.094
-166.852	112.328	-0.296	0.353
-165.837	473.035	0.159	0.353
-164.823	-103.401	-0.375	0.087
-163.808	-109.257	-0.156	-0.033
-162.793	81.971	0.142	-0.151
-161.779	-102.737	0.112	-0.026
-160.764	-33.851	-0.139	-0.075
-159.750	-200.000	0.028	-0.212
-158.735	800.000	0.085	-0.301
-157.720	-8.254	0.236	-0.157
-156.706	-113.797	-0.167	-0.032
-155.691	8.527	-0.185	0.137
-154.677	-200.000	0.033	0.185
-153.662	-200.000	0.008	0.187
-152.647	-200.000	-0.078	0.401
-151.633	-135.641	-0.272	0.032
-150.618	-200.000	-0.024	-0.159
-149.604	210.884	0.153	-0.237
-148.589	-200.000	0.007	-0.335
-147.574	-9.923	0.142	-0.093
-146.560	-200.000	0.023	0.323
-145.545	-127.651	-0.277	0.039
-144.531	-8.160	0.197	-0.130
-143.516	-200.000	-0.002	0.113
-142.502	-200.000	-0.005	0.093
-141.487	101.201	0.161	0.185
-140.472	279.482	-0.191	0.336
-139.458	165.982	-0.096	0.133
-138.443	-99.852	-0.254	-0.063
-137.429	-200.000	0.003	0.063
-136.414	-200.000	0.019	-0.155
-135.399	-78.488	0.057	0.019
-134.385	-188.220	-0.456	0.006
-133.370	-200.000	0.010	0.351
-132.356	-110.861	0.266	0.054
-131.341	125.082	0.039	-0.049
-130.326	173.754	-0.077	-0.110
-129.312	-45.958	-0.187	-0.091
-128.297	211.927	0.120	0.186
-127.283	-71.865	0.289	-0.106
-126.268	201.670	0.050	0.076
-125.253	-200.000	-0.015	-0.142
-124.239	145.603	-0.085	-0.112
-123.224	800.000	0.080	-0.223
-122.210	181.245	-0.059	0.086
-121.195	-200.000	0.069	-0.298
-120.180	223.594	-0.077	-0.123
-119.166	-200.000	-0.021	-0.114
-118.151	-121.979	-0.304	-0.049
-117.137	-45.113	0.123	0.060
-116.122	-31.892	0.303	0.167
-115.107	32.643	-0.193	0.164
-114.093	-108.586	0.092	-0.019
-113.078	253.231	0.040	0.067
-112.064	366.246	0.060	-0.120
-111.049	-200.000	-0.032	-0.380
-110.034	74.994	-0.106	-0.110
-109.020	353.122	0.110	0.215
-108.005	800.000	0.009	0.024
-106.991	335.267	-0.202	-0.385
-105.976	784.022	-0.056	0.152
-104.962	-200.000	0.032	-0.219
-103.947	-122.518	0.104	0.017
-102.932	800.000	0.042	0.119
-101.918	-123.038	-0.362	-0.057
-100.903	-200.000	0.012	0.339
-99.889	-200.000	0.014	-0.071
-98.874	800.000	-0.023	-0.084
-97.859	67.572	0.105	-0.106
-96.845	-81.508	-0.282	-0.091
-95.830	633.812	-0.033	-0.083
-94.816	51.163	-0.099	0.092
-93.801	102.708	-0.177	-0.204
-92.786	273.325	0.078	-0.136
-91.772	224.214	0.121	0.193
-90.757	33.805	0.245	-0.210
-89.743	219.329	-0.063	0.099
-88.728	-200.000	0.005	0.110
-87.713	800.000	0.091	0.282
-86.699	-123.446	0.153	-0.024
-85.684	-51.241	-0.165	-0.076
-84.670	-118.996	-0.094	-0.016
-83.655	800.000	0.091	-0.250
-82.640	-200.000	-0.054	0.244
-81.626	-200.000	0.000	-0.184
-80.611	-2.583	0.234	-0.161
-79.597	-112.296	-0.180	-0.036
-78.582	-127.974	0.340	-0.048
-77.567	-163.100	0.052	0.002
-76.553	-200.000	0.001	-0.097
-75.538	194.233	-0.036	-0.053
-74.524	-74.395	-0.316	-0.112
-73.509	-200.000	0.004	-0.223
-72.494	-146.510	0.471	-0.040
-71.480	103.993	-0.127	0.146
-70.465	-200.000	0.025	-0.188
-69.451	-200.000	0.041	-0.254
-68.436	-100.727	0.223	-0.054
-67.422	307.325	-0.050	-0.092
-66.407	612.531	0.082	-0.202
-65.392	-152.663	-0.156	0.011
-64.378	63.314	-0.194	-0.191
-63.363	-80.007	0.210	-0.069
-62.349	-102.105	0.218	0.051
-61.334	32.701	-1.068	-0.907
-60.319	28.244	0.735	0.610
-59.305	800.000	-0.299	-0.847
-58.290	187.483	0.622	0.912
-57.276	-200.000	0.252	1.388
-56.261	-200.000	105.377	583.261
-55.246	534.503	1453.346	3381.731
-54.232	185.273	2637.900	3843.608
-53.217	112.610	2163.086	2570.317
-52.203	40.557	1695.211	1499.021
-51.188	33.330	1508.128	1284.714
-50.173	30.887	1481.438	1245.615
-49.159	50.769	1535.772	1427.302
-48.144	51.599	1553.285	1449.183
-47.130	33.371	1509.816	1286.222
-46.115	30.427	1495.016	1253.726
-45.100	30.192	1492.011	1249.574
-44.086	30.221	1489.722	1247.806
-43.071	30.179	1487.237	1245.389
-42.057	30.125	1485.991	1243.937
-41.042	30.142	1484.283	1242.570
-40.027	30.060	1483.104	1240.984
-39.013	30.008	1481.584	1239.314
-37.998	30.097	1480.131	1238.644
-36.984	30.075	1479.122	1237.602
-35.969	30.058	1477.935	1236.445
-34.954	30.163	1476.529	1235.924
-33.940	30.037	1475.278	1233.990
-32.925	30.151	1473.791	1233.452
-31.911	30.199	1472.486	1232.633
-30.896	30.157	1471.331	1231.334
-29.881	30.162	1470.203	1230.379
-28.867	30.094	1469.555	1229.337
-27.852	30.234	1466.919	1228.008
-26.838	30.225	1465.644	1226.833
-25.823	30.238	1464.145	1225.617
-24.809	30.188	1463.091	1224.351
-23.794	30.204	1461.413	1223.007
-22.779	30.227	1460.151	1222.053
-21.765	30.104	1459.535	1220.676
-20.750	30.197	1458.358	1220.259
-19.736	30.283	1456.596	1219.304
-18.721	30.137	1456.001	1217.794
-17.706	30.120	1454.790	1216.620
-16.692	30.128	1453.666	1215.689
-15.677	30.186	1452.547	1215.080
-14.663	30.099	1451.941	1213.958
-13.648	30.068	1450.780	1212.737
-12.633	30.006	1450.165	1211.768
-11.619	30.113	1449.067	1211.500
-10.604	30.118	1448.097	1210.676
-9.590	30.005	1447.438	1209.340
-8.575	30.131	1446.155	1209.044
-7.560	30.124	1445.888	1208.722
-6.546	30.070	1444.964	1207.550
-5.531	30.088	1443.676	1206.547
-4.517	30.103	1442.810	1205.871
-3.502	29.979	1442.530	1204.783
-2.487	30.124	1440.508	1203.989
-1.473	30.110	1439.689	1203.162
-0.458	30.058	1438.468	1201.755
0.556	31.610	1429.261	1190.491
1.571	28.480	1403.953	1149.716
2.586	24.840	1345.389	1079.742
3.600	22.970	1264.340	1003.995
4.615	21.730	1218.154	960.438
5.629	18.837	1162.475	901.304
6.644	10.939	1079.630	798.374
7.659	4.848	1040.617	740.563
8.673	3.989	1035.499	732.790
9.688	3.724	1032.354	729.250
10.702	3.660	1030.269	727.410
11.717	3.639	1028.586	726.058
12.731	6.447	1031.053	740.959
13.746	14.529	1042.612	787.501
14.761	21.768	1051.283	828.319
15.775	23.844	1052.806	839.260
16.790	23.466	1052.124	836.858
17.804	22.694	1050.037	831.485
18.819	22.001	1049.257	827.529
19.834	21.872	1047.926	825.797
20.848	21.840	1047.474	825.216
21.863	22.084	1047.303	826.157
22.877	21.880	1046.774	824.709
23.892	21.786	1045.762	823.395
24.907	21.616	1044.897	821.846
25.921	21.592	1044.335	821.220
26.936	21.469	1043.548	819.951
27.950	21.465	1041.970	818.620
28.965	21.346	1041.213	817.396
29.980	21.302	1040.270	816.377
30.994	21.621	1038.976	816.775
32.009	21.821	1038.210	817.034
33.023	21.819	1037.713	816.561
34.038	21.796	1037.028	815.845
35.053	21.732	1036.017	814.681
36.067	21.614	1035.018	813.274
37.082	21.579	1034.002	812.242
38.096	21.528	1033.791	811.764
39.111	21.642	1033.123	811.700
40.126	21.733	1031.872	811.066
41.140	21.567	1031.125	809.637
42.155	21.240	1029.665	806.911
43.169	21.085	1028.137	804.927
44.184	20.956	1027.280	803.587
45.199	20.926	1026.278	802.596
46.213	20.959	1025.005	801.682
47.228	21.056	1024.246	801.463
48.242	21.391	1024.111	802.827
49.257	21.692	1023.569	803.708
50.271	21.590	1022.685	802.477
51.286	21.602	1022.141	802.036
52.301	21.860	1021.608	802.725
53.315	21.797	1020.835	801.758
54.330	21.685	1019.758	800.332
55.344	21.527	1018.653	798.674
56.359	21.385	1017.791	797.280
57.374	21.230	1016.887	795.793
58.388	21.331	1015.963	795.458
59.403	21.097	1015.226	793.749
60.417	21.072	1014.358	792.883
61.432	20.960	1013.916	791.960
62.447	21.084	1012.994	791.731
63.461	20.839	1012.890	790.471
64.476	20.805	1011.408	789.088
65.490	20.749	1010.747	788.250
66.505	20.800	1009.580	787.499
67.520	20.663	1009.256	786.561
68.534	20.824	1008.266	786.447
69.549	20.703	1007.828	785.486
70.563	20.679	1006.388	784.189
71.578	20.519	1005.867	782.994
72.593	20.450	1004.629	781.650
73.607	20.171	1003.651	779.563
74.622	20.136	1002.667	778.573
75.636	20.473	1001.692	779.260
76.651	20.339	1001.941	778.784
77.666	20.482	1000.679	778.376
78.680	20.512	1000.291	778.136
79.695	20.573	999.316	777.584
80.709	20.491	998.966	776.877
81.724	20.706	998.210	777.180
82.739	20.957	997.325	777.541
83.753	20.904	997.254	777.181
84.768	21.393	996.644	778.816
85.782	21.899	996.315	780.741
86.797	22.128	996.166	781.573
87.812	22.131	995.325	780.860
88.826	21.865	994.479	778.943
89.841	21.859	993.157	777.814
90.855	21.978	992.191	777.517
91.870	22.076	991.552	777.380
92.884	22.080	990.856	776.783
93.899	22.099	990.026	776.150
94.914	21.959	989.620	775.144
95.928	21.960	988.722	774.376
96.943	22.054	988.027	774.179
97.957	21.705	986.854	771.653
98.972	21.703	985.910	770.836
99.987	21.691	985.248	770.200
101.001	21.748	984.883	770.096
102.016	21.851	983.822	769.651
103.030	21.581	982.956	767.721
104.045	21.701	982.197	767.587
105.060	21.906	981.188	767.628
106.074	21.729	980.039	765.887
107.089	21.525	978.999	764.115
108.103	21.212	977.591	761.582
109.118	21.114	976.181	759.991
110.133	20.972	975.366	758.669
111.147	20.760	974.419	756.946
112.162	20.594	973.552	755.482
113.176	20.555	972.957	754.785
114.191	20.852	972.228	755.442
115.206	21.008	971.447	755.443
116.220	20.997	971.164	755.110
117.235	20.698	970.372	753.133
118.249	20.828	969.108	752.648
119.264	20.576	968.354	750.907
120.279	20.586	967.524	750.240
121.293	20.552	966.464	749.203
122.308	20.512	965.386	748.132
123.322	20.354	965.045	747.122
124.337	20.322	963.709	745.883
125.352	20.147	962.658	744.254
126.366	20.235	961.494	743.664
127.381	20.227	960.888	743.094
128.395	20.288	960.150	742.718
129.410	20.513	959.048	742.763
130.424	20.456	958.243	741.831
131.439	20.492	957.639	741.450
132.454	20.804	957.391	742.525
133.468	21.012	956.178	742.405
134.483	20.896	955.714	741.483
135.497	21.017	955.137	741.482
136.512	21.037	954.426	740.953
137.527	20.969	953.663	740.005
138.541	21.114	952.958	740.008
139.556	20.931	952.010	738.432
140.570	20.989	951.654	738.337
141.585	21.203	950.948	738.629
142.600	21.537	950.466	739.598
143.614	21.746	949.724	739.838
144.629	21.767	949.465	739.661
145.643	21.816	949.147	739.554
146.658	21.701	947.990	738.103
147.673	21.588	946.335	736.272
148.687	21.420	945.151	734.580
149.702	21.173	944.237	732.768
150.716	21.028	943.037	731.164
151.731	20.983	942.538	730.526
152.746	21.035	941.588	729.941
153.760	21.183	941.150	730.156
154.775	21.264	940.420	729.867
155.789	21.474	939.528	729.986
156.804	21.358	938.980	729.010
157.819	21.321	938.133	728.134
158.833	21.463	937.712	728.333
159.848	21.656	936.893	728.435
160.862	21.856	936.687	729.042
161.877	21.797	935.700	727.966
162.892	21.479	933.931	725.208
163.906	20.958	933.103	722.341
164.921	21.027	932.310	721.949
165.935	20.800	931.335	720.194
166.950	21.064	930.227	720.363
167.964	21.215	929.243	720.157
168.979	21.119	928.428	719.068
169.994	20.974	927.406	717.617
171.008	20.983	926.816	717.134
172.023	21.260	925.778	717.404
173.037	21.326	925.582	717.461
174.052	21.761	924.491	718.333
175.067	21.585	923.891	717.084
176.081	21.265	922.676	714.768
177.096	20.889	921.262	712.070
178.110	20.735	920.465	710.763
179.125	20.623	920.541	710.303
180.140	20.897	919.041	710.201
181.154	20.935	919.271	710.467
182.169	21.179	918.598	710.880
183.183	21.371	918.319	711.381
184.198	21.594	917.584	711.655
185.213	21.549	916.630	710.670
186.227	21.552	916.093	710.204
187.242	21.402	916.011	709.471
188.256	21.604	915.225	709.617
189.271	21.809	914.389	709.734
190.286	21.905	914.006	709.765
191.300	21.566	913.016	707.562
192.315	21.043	911.628	704.314
193.329	20.637	910.467	701.714
194.344	20.655	910.318	701.613
195.359	20.666	910.132	701.449
196.373	20.998	909.705	702.396
197.388	21.195	908.865	702.479
198.402	21.246	909.028	702.747
199.417	21.761	908.510	704.354
200.432	21.927	908.548	704.990
201.446	22.125	907.881	705.205
202.461	22.277	907.965	705.819
203.475	22.340	907.260	705.461
204.490	22.208	906.384	704.187
205.504	21.926	904.743	701.723
206.519	21.535	904.026	699.541
207.534	21.583	903.235	699.057
208.548	21.438	902.651	697.968
209.563	21.488	902.199	697.756
210.577	21.509	901.310	697.090
211.592	21.505	900.923	696.713
212.607	21.831	901.053	698.047
213.621	22.027	900.634	698.441
214.636	22.009	899.566	697.481
215.650	21.739	899.400	696.219
216.665	21.816	898.301	695.610
217.680	22.008	897.656	695.812
218.694	22.091	897.884	696.256
219.709	22.131	897.270	695.874
220.723	22.035	896.521	694.855
221.738	21.779	895.856	693.264
222.753	21.768	894.771	692.320
223.767	21.803	893.878	691.705
224.782	21.814	893.446	691.352
225.796	22.111	892.742	691.919
226.811	22.169	892.325	691.762
227.826	22.009	891.904	690.744
228.840	21.832	890.235	688.698
229.855	21.586	889.747	687.293
230.869	21.584	889.387	686.944
231.884	21.597	888.547	686.284
232.899	21.522	887.948	685.467
233.913	21.509	887.216	684.791
234.928	21.459	886.209	683.760
235.942	21.276	885.690	682.583
236.957	20.981	884.871	680.741
237.972	20.991	884.583	680.499
238.986	20.986	883.921	679.908
240.001	21.148	883.140	679.880
241.015	21.129	882.580	679.312
242.030	21.290	881.813	679.287
243.045	21.521	881.256	679.695
244.059	21.684	880.899	679.997
245.074	21.837	879.933	679.782
246.088	21.669	879.885	679.034
247.103	21.763	879.573	679.095
248.117	21.952	879.202	679.480
249.132	22.308	879.013	680.654
250.147	22.641	878.954	681.837
251.161	22.854	878.896	682.553
252.176	23.204	877.778	682.975
253.190	23.170	877.019	682.193
254.205	23.107	877.139	681.985
255.220	23.180	876.681	681.849
256.234	23.091	875.236	680.321
257.249	22.982	874.659	679.396
258.263	22.967	874.325	679.017
259.278	22.813	873.880	678.021
260.293	22.911	873.133	677.756
261.307	22.917	872.721	677.401
262.322	22.991	872.153	677.184
263.336	23.091	871.679	677.139
264.351	23.056	871.094	676.489
265.366	22.876	870.756	675.480
266.380	22.973	869.916	675.139
267.395	22.945	869.343	674.525
268.409	22.981	868.491	673.944
269.424	22.871	867.734	672.875
270.439	22.799	867.036	672.002
271.453	22.728	866.298	671.102
272.468	22.592	865.386	669.816
273.482	22.515	864.834	669.039
274.497	22.585	863.986	668.589
275.512	22.569	863.520	668.109
276.526	22.436	862.679	666.897
277.541	22.667	862.225	667.360
278.555	22.593	861.568	666.514
279.570	22.929	861.594	667.743
280.585	23.164	860.979	668.093
281.599	23.159	860.901	667.957
282.614	22.979	859.544	666.166
283.628	22.499	859.095	663.952
284.643	22.418	858.647	663.241
285.657	22.492	858.046	662.995
286.672	22.525	857.116	662.341
287.687	22.578	857.060	662.441
288.701	22.613	856.316	661.937
289.716	22.750	855.842	662.027
290.730	22.775	855.187	661.556
291.745	22.683	854.725	660.795
292.760	22.787	854.333	660.821
293.774	22.771	853.659	660.181
294.789	23.169	853.216	661.270
295.803	23.247	852.889	661.248
296.818	23.009	851.813	659.468
297.833	22.668	851.176	657.647
298.847	22.749	850.173	657.116
299.862	22.768	849.787	656.829
300.876	22.797	849.189	656.417
301.891	22.840	848.975	656.352
302.906	23.230	848.441	657.330
303.920	23.502	847.434	657.499
304.935	23.516	847.574	657.603
305.949	23.594	847.348	657.660
306.964	23.470	846.529	656.506
307.979	23.148	845.407	654.384
308.993	23.140	844.742	653.784
310.008	23.305	844.273	653.974
311.022	23.345	843.981	653.838
312.037	23.312	843.326	653.149
313.052	22.978	843.127	651.705
314.066	22.826	842.079	650.278
315.081	22.641	841.065	648.759
316.095	22.463	840.733	647.789
317.110	22.542	840.416	647.779
318.125	22.693	839.431	647.516
319.139	22.564	838.881	646.560
320.154	22.412	838.272	645.478
321.168	22.389	837.699	644.893
322.183	22.460	837.149	644.672
323.197	22.595	837.132	645.096
324.212	22.553	836.884	644.694
325.227	22.569	836.154	644.136
326.241	22.592	835.371	643.557
327.256	22.634	834.557	643.028
328.270	22.467	834.129	642.033
329.285	22.445	833.892	641.712
330.300	22.341	833.124	640.686
331.314	22.511	832.175	640.518
332.329	22.392	831.826	639.761
333.343	22.832	831.154	640.784
334.358	23.194	830.911	641.853
335.373	23.080	830.263	640.882
336.387	23.190	829.748	640.826
337.402	23.190	829.597	640.654
338.416	23.132	829.187	640.072
339.431	23.540	828.752	641.155
340.446	23.780	828.404	641.693
341.460	23.759	827.842	641.125
342.475	23.874	827.664	641.347
343.489	23.871	827.027	640.787
344.504	24.024	826.197	640.636
345.519	23.955	826.284	640.400
346.533	24.135	825.874	640.671
347.548	24.074	825.234	639.899
348.562	23.791	824.394	638.177
349.577	23.426	823.190	635.877
350.592	23.249	822.706	634.812
351.606	23.136	822.162	633.933
352.621	23.062	821.184	632.855
353.635	23.124	820.862	632.774
354.650	23.171	820.712	632.770
355.665	23.203	820.152	632.398
356.679	23.222	820.062	632.340
357.694	23.323	819.666	632.340
358.708	23.476	818.941	632.269
359.723	23.252	818.252	630.886
360.738	23.340	817.538	630.590
361.752	23.282	817.192	630.063
362.767	23.316	817.039	630.010
363.781	23.591	816.856	630.790
364.796	23.847	816.676	631.506
365.810	24.107	816.181	631.987
366.825	24.111	816.163	631.935
367.840	24.243	815.800	632.063
368.854	24.107	815.250	631.100
369.869	23.919	814.449	629.757
370.883	23.785	813.569	628.548
371.898	23.823	812.944	628.145
372.913	23.950	812.423	628.134
373.927	24.020	812.094	628.072
374.942	23.866	811.379	626.921
375.956	23.808	810.914	626.301
376.971	24.060	810.024	626.446
377.986	24.133	809.922	626.568
379.000	24.268	809.440	626.615
380.015	24.356	809.115	626.618
381.029	24.311	808.595	626.000
382.044	24.103	808.517	625.154
383.059	24.188	807.334	624.480
384.073	24.345	806.739	624.516
385.088	24.186	805.958	623.302
386.102	24.013	804.954	621.865
387.117	23.686	804.226	620.106
388.132	23.433	804.312	619.233
389.146	23.622	803.650	619.329
390.161	23.640	802.728	618.626
391.175	23.717	803.076	619.106
392.190	24.137	802.738	620.254
393.205	24.039	802.367	619.573
394.219	23.644	801.631	617.575
395.234	23.537	800.829	616.530
396.248	23.454	799.953	615.513
397.263	23.352	799.326	614.621
398.278	23.388	799.276	614.655
399.292	23.264	798.454	613.540
400.307	23.203	797.910	612.855
401.321	23.193	797.731	612.628
402.336	23.209	797.334	612.323
403.350	23.515	796.938	613.025
404.365	23.589	797.063	613.323
405.380	23.969	796.882	614.440
406.394	24.198	796.653	615.002
407.409	24.462	796.155	615.473
408.423	24.509	795.863	615.354
409.438	24.551	795.372	615.064
410.453	24.767	794.997	615.464
411.467	24.735	794.146	614.640
412.482	24.631	794.292	614.341
413.496	24.589	793.716	613.697
414.511	24.879	793.209	614.247
415.526	24.767	792.898	613.567
416.540	24.591	792.487	612.590
417.555	24.551	791.716	611.803
418.569	24.463	791.407	611.210
419.584	24.698	790.615	611.347
420.599	24.455	790.386	610.287
421.613	163.173	1370.005	1797.203
422.628	141.416	1454.463	1797.292
