DTS Sentinel unit serial number:	SN413079Multiplexer serial number:	ORYXHardware model number:	OX4-SRSoftware version number:	ORYX F/W v4.00 Oryx Data Collector v3.7.2.0data status	okinstallation	princeton_trtdifferential loss correction	single-endedforward channel	channel 3reverse channel	N/Adate	2019/09/16time	08:52:34forward acquisition time	60.00reverse acquisition time	0.00gamma	496.2192k internal	0.2324k external	0.2324temperature offset calibration	0.9954default loss term (dB/km)	0.3790temperature slope calibration	1.0000multiplexer offset coefficient	1.0000multiplexer slope coefficient	1.0000fibre end	0.00T internal ref (°C)	30.09T ext. ref 1 (°C)	12.02T ext. ref 2 (°C)	27.59length (m)	temperature (°C)	Stokes	anti-Stokes-747.200	-72.635	-0.444	-0.165
-746.185	16.981	-0.334	0.267
-745.171	-16.437	0.255	-0.163
-744.156	-84.248	-0.277	0.088
-743.142	800.000	0.082	-0.243
-742.127	800.000	-0.016	0.059
-741.112	369.872	-0.121	0.248
-740.098	35.192	-0.298	0.264
-739.083	-7.188	-0.091	-0.062
-738.069	387.864	-0.030	0.062
-737.054	-119.943	-0.191	-0.033
-736.039	9.202	-0.280	-0.214
-735.025	-37.091	0.478	0.258
-734.010	767.405	-0.136	-0.374
-732.996	-48.160	-0.185	0.090
-731.981	73.042	0.236	-0.249
-730.966	-61.269	-0.129	0.055
-729.952	34.282	-0.131	-0.115
-728.937	800.000	-0.055	0.220
-727.923	149.570	-0.144	-0.197
-726.908	-45.746	-0.156	0.078
-725.894	34.602	-0.246	-0.217
-724.879	-129.891	0.346	-0.048
-723.864	205.988	-0.088	-0.138
-722.850	-200.000	0.008	-0.162
-721.835	-163.698	0.224	0.011
-720.821	-1.541	-0.400	-0.284
-719.806	28.651	0.137	-0.117
-718.791	392.740	-0.147	-0.309
-717.777	85.913	0.114	0.126
-716.762	300.652	-0.086	-0.160
-715.748	-33.924	-0.549	0.305
-714.733	314.209	-0.093	0.177
-713.718	-146.409	-0.111	0.010
-712.704	-66.962	-0.151	0.060
-711.689	-200.000	0.072	-0.412
-710.675	322.087	0.150	0.288
-709.660	203.709	-0.167	0.260
-708.645	-200.000	-0.004	-0.035
-707.631	-89.290	-0.074	0.022
-706.616	-1.716	0.198	0.141
-705.602	796.304	-0.119	-0.330
-704.587	40.979	-0.242	-0.220
-703.572	800.000	0.111	0.434
-702.558	503.324	-0.100	0.232
-701.543	-16.267	-0.171	0.109
-700.529	143.158	0.147	-0.196
-699.514	781.648	-0.162	-0.448
-698.499	800.000	-0.031	0.092
-697.485	-144.316	0.138	-0.013
-696.470	-68.593	0.115	-0.045
-695.456	-88.724	0.144	0.043
-694.441	-190.841	0.339	0.004
-693.426	-101.186	-0.234	-0.058
-692.412	351.124	-0.092	0.183
-691.397	-59.283	0.258	0.112
-690.383	422.085	-0.057	0.123
-689.368	-151.649	-0.205	0.015
-688.354	18.136	-0.259	-0.208
-687.339	-200.000	-0.001	-0.041
-686.324	-146.508	-0.345	0.030
-685.310	438.012	-0.124	0.272
-684.295	230.484	0.249	0.410
-683.281	180.064	-0.161	0.238
-682.266	27.303	-0.153	0.130
-681.251	239.747	-0.077	0.130
-680.237	-200.000	0.026	0.191
-679.222	-172.593	0.249	-0.008
-678.208	295.619	0.034	0.063
-677.193	-127.919	0.248	-0.036
-676.178	800.000	-0.041	-0.149
-675.164	800.000	-0.151	0.431
-674.149	-24.534	-0.239	-0.144
-673.135	-67.651	-0.240	0.095
-672.120	-200.000	-0.029	-0.270
-671.105	399.707	-0.082	0.173
-670.091	0.684	-0.412	-0.297
-669.076	-82.184	-0.417	0.137
-668.062	102.088	0.215	-0.252
-667.047	-14.666	-0.097	-0.063
-666.032	800.000	-0.029	0.105
-665.018	-5.174	-0.128	-0.089
-664.003	800.000	0.130	-0.377
-662.989	-200.000	-0.018	-0.244
-661.974	-4.465	-0.165	-0.115
-660.959	39.337	0.236	0.213
-659.945	800.000	0.083	-0.258
-658.930	19.387	0.004	0.003
-657.916	-18.669	-0.219	-0.137
-656.901	148.938	0.230	0.312
-655.886	-10.654	-0.147	-0.098
-654.872	218.777	-0.127	0.204
-653.857	-16.172	-0.274	-0.175
-652.843	6.631	0.135	0.101
-651.828	-200.000	-0.019	0.344
-650.814	-46.461	-0.158	-0.078
-649.799	0.127	-0.085	0.061
-648.784	274.948	-0.202	-0.361
-647.770	-200.000	-0.007	-0.084
-646.755	767.194	0.078	-0.214
-645.741	54.995	0.194	0.189
-644.726	3.037	0.297	0.217
-643.711	166.083	0.164	-0.233
-642.697	-200.000	-0.004	-0.091
-641.682	-44.773	0.067	0.034
-640.668	-200.000	-0.019	0.254
-639.653	-67.531	0.134	0.053
-638.638	-200.000	-0.009	-0.128
-637.624	-86.043	-0.346	-0.107
-636.609	800.000	-0.039	-0.120
-635.595	-200.000	0.002	-0.166
-634.580	800.000	0.119	0.402
-633.565	264.526	-0.112	0.196
-632.551	-24.880	-0.035	0.021
-631.536	-121.716	-0.137	-0.023
-630.522	769.542	0.086	0.234
-629.507	-200.000	-0.023	-0.183
-628.492	-200.000	0.031	-0.183
-627.478	16.668	0.356	0.283
-626.463	417.060	0.054	-0.115
-625.449	-103.831	-0.038	0.009
-624.434	82.356	0.086	-0.094
-623.419	5.064	0.274	-0.203
-622.405	-84.580	0.164	-0.052
-621.390	244.248	-0.082	-0.139
-620.376	-200.000	-0.038	0.194
-619.361	-110.754	0.312	0.065
-618.346	-200.000	0.026	-0.334
-617.332	116.996	-0.060	-0.074
-616.317	-39.260	0.162	0.085
-615.303	-89.400	-0.391	0.116
-614.288	800.000	0.027	-0.106
-613.273	-200.000	-0.025	-0.118
-612.259	-151.619	-0.447	-0.033
-611.244	137.500	-0.133	-0.174
-610.230	58.131	-0.253	-0.249
-609.215	88.515	-0.169	0.188
-608.201	-126.302	0.332	-0.050
-607.186	-4.125	-0.413	0.287
-606.171	26.649	0.221	0.186
-605.157	-200.000	-0.028	0.150
-604.142	338.475	0.130	-0.254
-603.128	23.849	0.216	-0.179
-602.113	188.791	0.279	-0.419
-601.098	-200.000	-0.008	-0.205
-600.084	800.000	-0.041	-0.125
-599.069	-121.598	-0.154	-0.026
-598.055	-94.127	-0.157	-0.043
-597.040	800.000	0.052	0.169
-596.025	162.943	-0.131	-0.185
-595.011	800.000	-0.092	-0.278
-593.996	-118.147	-0.184	-0.033
-592.982	-89.470	0.138	0.041
-591.967	82.508	-0.150	-0.163
-590.952	30.228	-0.069	0.059
-589.938	-200.000	0.000	-0.236
-588.923	-9.110	-0.172	-0.115
-587.909	-18.552	0.296	-0.185
-586.894	-200.000	0.052	0.257
-585.879	800.000	0.080	-0.254
-584.865	282.252	-0.025	-0.045
-583.850	55.065	-0.452	0.438
-582.836	127.934	-0.149	0.190
-581.821	146.689	-0.174	0.235
-580.806	-36.781	-0.094	-0.051
-579.792	491.606	-0.073	-0.167
-578.777	-71.713	0.087	-0.033
-577.763	-200.000	0.006	0.160
-576.748	-135.290	0.367	0.044
-575.733	-126.281	-0.284	-0.043
-574.719	-200.000	-0.011	-0.051
-573.704	549.985	-0.101	-0.244
-572.690	-176.640	-0.345	-0.009
-571.675	37.096	-0.136	0.121
-570.661	800.000	0.011	-0.048
-569.646	-200.000	-0.007	-0.215
-568.631	800.000	0.052	-0.227
-567.617	-45.736	-0.434	-0.215
-566.602	8.112	-0.237	0.178
-565.588	327.407	0.073	-0.140
-564.573	-200.000	-0.016	-0.141
-563.558	154.056	-0.195	0.269
-562.544	800.000	-0.061	-0.213
-561.529	-200.000	0.014	-0.167
-560.515	23.961	0.107	-0.089
-559.500	800.000	-0.106	-0.437
-558.485	270.012	0.089	-0.156
-557.471	154.301	0.234	0.322
-556.456	-50.165	-0.170	0.081
-555.442	-104.348	-0.213	0.049
-554.427	-171.748	-0.177	0.006
-553.412	-95.230	-0.145	0.039
-552.398	-200.000	0.026	0.225
-551.383	290.151	0.179	0.326
-550.369	622.821	0.099	-0.251
-549.354	17.952	-0.138	-0.110
-548.339	-142.105	0.421	-0.042
-547.325	-200.000	0.022	-0.419
-546.310	125.707	0.179	0.227
-545.296	90.453	-0.244	0.273
-544.281	43.802	0.138	-0.127
-543.266	-73.750	-0.399	-0.145
-542.252	-19.280	0.161	-0.100
-541.237	56.799	0.021	-0.021
-540.223	68.868	-0.168	-0.173
-539.208	-165.624	-0.257	-0.011
-538.193	46.515	0.099	-0.092
-537.179	324.460	-0.128	0.244
-536.164	800.000	-0.131	-0.444
-535.150	-47.989	-0.087	-0.042
-534.135	-15.120	-0.192	-0.123
-533.121	56.224	0.145	0.141
-532.106	177.473	0.178	-0.259
-531.091	-16.762	-0.192	0.121
-530.077	121.238	0.189	-0.235
-529.062	-200.000	-0.095	-0.435
-528.048	200.252	-0.074	-0.114
-527.033	644.588	-0.104	0.264
-526.018	7.866	-0.070	0.052
-525.004	-13.888	0.410	0.265
-523.989	-112.155	-0.275	0.055
-522.975	-200.000	0.004	0.133
-521.960	800.000	-0.108	0.302
-520.945	-114.491	-0.247	0.047
-519.931	-200.000	-0.010	-0.046
-518.916	190.056	0.136	-0.204
-517.902	388.883	-0.166	0.343
-516.887	-24.992	0.433	0.257
-515.872	355.431	0.064	0.128
-514.858	-26.912	0.222	0.129
-513.843	-15.099	0.062	0.040
-512.829	81.867	-0.094	0.102
-511.814	-200.000	0.013	0.066
-510.799	25.292	0.172	-0.143
-509.785	-92.653	0.231	0.065
-508.770	-163.355	0.023	-0.001
-507.756	316.686	0.061	-0.116
-506.741	36.113	0.386	-0.340
-505.726	-40.236	0.212	0.110
-504.712	50.211	-0.080	-0.075
-503.697	-158.250	0.362	0.021
-502.683	800.000	0.072	0.272
-501.668	501.653	0.088	-0.203
-500.653	528.616	0.016	0.037
-499.639	-68.757	0.097	-0.037
-498.624	800.000	0.081	-0.332
-497.610	-78.951	-0.103	-0.035
-496.595	126.999	-0.236	0.299
-495.581	7.702	0.234	0.175
-494.566	-130.604	0.089	0.012
-493.551	99.686	-0.220	0.255
-492.537	236.729	0.186	0.308
-491.522	-66.466	0.029	0.011
-490.508	-0.668	-0.180	0.127
-489.493	1.995	0.347	0.251
-488.478	160.385	0.132	0.184
-487.464	-126.090	-0.373	0.056
-486.449	224.031	0.086	-0.139
-485.435	-129.487	0.235	-0.033
-484.420	790.554	0.035	-0.096
-483.405	39.021	0.062	0.056
-482.391	152.798	0.073	-0.100
-481.376	-1.657	-0.505	-0.355
-480.362	-97.903	-0.318	0.082
-479.347	-99.276	0.111	-0.028
-478.332	-11.635	-0.219	0.144
-477.318	-84.914	-0.316	0.099
-476.303	-63.651	0.153	-0.063
-475.289	63.602	0.140	-0.140
-474.274	470.232	-0.074	0.165
-473.259	-56.613	0.222	-0.098
-472.245	462.464	0.134	0.299
-471.230	82.207	-0.106	-0.114
-470.216	800.000	0.061	-0.250
-469.201	-92.942	0.195	-0.054
-468.186	800.000	-0.116	0.362
-467.172	-56.289	0.135	0.060
-466.157	141.790	-0.198	0.262
-465.143	-200.000	0.012	0.128
-464.128	800.000	-0.043	0.141
-463.113	-34.017	0.091	0.050
-462.099	83.129	0.092	-0.100
-461.084	173.450	0.092	-0.132
-460.070	-49.628	0.280	0.133
-459.055	296.502	0.163	0.299
-458.040	-200.000	-0.056	0.255
-457.026	380.939	-0.086	0.177
-456.011	-94.665	0.178	0.048
-454.997	39.804	-0.205	-0.183
-453.982	341.539	0.070	-0.136
-452.968	-174.296	0.245	-0.007
-451.953	150.406	0.114	-0.154
-450.938	-129.572	0.363	0.050
-449.924	105.524	-0.101	-0.119
-448.909	112.041	0.060	-0.072
-447.895	800.000	-0.075	0.244
-446.880	800.000	-0.102	0.286
-445.865	296.301	-0.105	-0.191
-444.851	-62.051	-0.294	-0.122
-443.836	-200.000	0.043	0.584
-442.822	800.000	-0.068	0.240
-441.807	-200.000	0.086	0.542
-440.792	1.852	0.203	0.146
-439.778	-163.087	-0.310	0.015
-438.763	4.221	-0.181	-0.133
-437.749	800.000	0.059	-0.178
-436.734	471.736	-0.130	0.291
-435.719	-93.740	-0.272	0.075
-434.705	800.000	-0.041	-0.142
-433.690	-200.000	0.019	0.158
-432.676	-116.414	-0.266	0.049
-431.661	-61.882	-0.075	-0.031
-430.646	-57.850	0.251	0.109
-429.632	-65.034	-0.237	-0.095
-428.617	-200.000	0.035	0.179
-427.603	-200.000	0.012	-0.061
-426.588	8.530	0.085	0.064
-425.573	-88.136	0.109	-0.033
-424.559	183.398	0.020	-0.030
-423.544	48.314	0.191	-0.178
-422.530	314.971	-0.145	0.273
-421.515	528.827	-0.037	-0.086
-420.500	-59.220	0.088	-0.038
-419.486	-90.201	-0.255	-0.074
-418.471	-84.424	0.194	-0.061
-417.457	-126.739	-0.272	-0.040
-416.442	417.927	-0.025	0.053
-415.428	-31.605	-0.123	-0.069
-414.413	-47.673	-0.135	-0.065
-413.398	-26.912	-0.029	-0.017
-412.384	-90.474	-0.269	0.078
-411.369	-75.413	0.405	-0.144
-410.355	-111.789	0.043	0.009
-409.340	-40.729	-0.205	-0.106
-408.325	800.000	0.026	-0.092
-407.311	-200.000	0.014	-0.069
-406.296	15.735	0.111	0.087
-405.282	309.004	0.103	0.192
-404.267	-155.959	-0.220	-0.014
-403.252	551.622	0.090	0.216
-402.238	83.966	0.105	0.115
-401.223	59.122	0.209	0.205
-400.209	-34.626	-0.019	-0.010
-399.194	298.545	0.051	-0.093
-398.179	-135.176	-0.318	-0.038
-397.165	-134.868	0.313	-0.038
-396.150	-11.971	-0.086	0.056
-395.136	-200.000	-0.318	-0.001
-394.121	-108.805	0.299	-0.064
-393.106	257.006	-0.059	0.101
-392.092	-200.000	0.019	0.187
-391.077	800.000	-0.097	-0.356
-390.063	215.609	-0.089	-0.141
-389.048	-152.852	-0.341	-0.024
-388.033	-17.214	-0.158	0.099
-387.019	-200.000	0.001	-0.065
-386.004	531.461	-0.036	0.085
-384.990	-200.000	0.032	-0.223
-383.975	-200.000	-0.032	0.190
-382.960	-140.054	0.266	-0.028
-381.946	-200.000	0.017	0.086
-380.931	-200.000	-0.041	-0.184
-379.917	800.000	0.050	-0.155
-378.902	800.000	-0.055	0.170
-377.888	-40.916	-0.177	0.091
-376.873	531.043	0.122	-0.287
-375.858	2.978	-0.264	-0.191
-374.844	161.279	0.086	0.120
-373.829	30.829	0.214	-0.182
-372.815	800.000	0.031	0.113
-371.800	-11.809	0.129	-0.084
-370.785	229.131	-0.135	-0.219
-369.771	-200.000	-0.032	0.171
-368.756	-63.239	-0.200	0.082
-367.742	-104.949	-0.106	0.024
-366.727	-12.194	0.415	-0.270
-365.712	-94.041	-0.318	0.087
-364.698	388.010	0.039	0.080
-363.683	28.075	-0.220	0.184
-362.669	-88.536	-0.214	-0.064
-361.654	-127.868	0.117	-0.017
-360.639	-200.000	-0.014	0.347
-359.625	800.000	-0.097	0.283
-358.610	-90.543	-0.360	0.103
-357.596	-108.586	-0.087	0.019
-356.581	-69.265	0.350	0.134
-355.566	-17.939	0.029	0.018
-354.552	576.488	-0.079	-0.192
-353.537	54.682	0.400	-0.383
-352.523	-200.000	0.015	0.086
-351.508	135.761	-0.021	0.028
-350.493	122.315	-0.200	0.249
-349.479	505.024	0.021	-0.049
-348.464	51.094	-0.249	0.234
-347.450	-102.537	0.358	0.085
-346.435	405.671	-0.027	0.056
-345.420	116.057	0.105	-0.128
-344.406	186.023	0.096	0.142
-343.391	800.000	-0.058	-0.179
-342.377	62.359	0.076	0.076
-341.362	-200.000	0.000	-0.086
-340.348	-200.000	0.001	-0.046
-339.333	-59.146	0.228	-0.098
-338.318	-200.000	0.012	-0.328
-337.304	-97.517	0.276	0.071
-336.289	30.016	0.265	0.224
-335.275	-200.000	0.001	-0.136
-334.260	-91.138	0.121	0.035
-333.245	-50.169	-0.102	0.048
-332.231	-15.937	0.151	-0.096
-331.216	-200.000	-0.019	0.099
-330.202	313.686	-0.047	-0.088
-329.187	-19.449	0.161	-0.099
-328.172	-200.000	-0.057	0.336
-327.158	-200.000	0.055	0.263
-326.143	59.922	-0.152	-0.149
-325.129	208.674	0.126	-0.196
-324.114	338.690	-0.143	0.277
-323.099	-190.331	-0.127	0.001
-322.085	-200.000	0.007	0.245
-321.070	284.887	-0.139	0.249
-320.056	49.384	0.165	-0.154
-319.041	253.822	0.075	-0.127
-318.026	800.000	0.094	-0.307
-317.012	-95.397	0.315	0.084
-315.997	130.979	0.201	-0.256
-314.983	-102.740	-0.295	-0.070
-313.968	-74.857	0.326	-0.116
-312.953	800.000	-0.048	-0.181
-311.939	800.000	0.090	0.250
-310.924	-134.938	0.223	-0.027
-309.910	418.942	-0.033	-0.069
-308.895	-18.593	-0.157	-0.097
-307.880	241.923	-0.037	-0.062
-306.866	-158.294	0.471	-0.027
-305.851	100.193	0.098	-0.113
-304.837	800.000	-0.111	-0.350
-303.822	-149.712	0.348	-0.027
-302.807	752.464	-0.094	0.251
-301.793	388.600	0.110	-0.226
-300.778	800.000	-0.083	-0.293
-299.764	800.000	0.020	0.065
-298.749	800.000	0.075	0.254
-297.735	-122.566	0.114	-0.018
-296.720	-25.916	-0.291	0.170
-295.705	-200.000	0.007	0.070
-294.691	-200.000	0.016	-0.171
-293.676	-165.805	0.096	0.004
-292.662	17.249	-0.271	0.213
-291.647	-200.000	-0.006	-0.205
-290.632	-200.000	-0.030	-0.135
-289.618	-74.953	-0.200	0.071
-288.603	46.703	0.196	-0.180
-287.589	-45.060	0.213	0.105
-286.574	43.564	0.067	0.060
-285.559	-99.303	0.076	-0.019
-284.545	298.621	0.161	-0.294
-283.530	-79.781	-0.245	-0.082
-282.516	-95.741	0.248	-0.066
-281.501	92.164	-0.190	-0.212
-280.486	-58.637	-0.345	0.148
-279.472	182.581	0.173	0.253
-278.457	269.105	0.074	-0.129
-277.443	238.902	0.169	0.278
-276.428	-200.000	0.000	-0.112
-275.413	-200.000	-0.019	-0.124
-274.399	-200.000	0.004	0.058
-273.384	-200.000	-0.000	0.141
-272.370	800.000	-0.105	0.317
-271.355	-68.037	-0.169	-0.065
-270.340	38.454	0.103	0.091
-269.326	114.848	0.034	-0.041
-268.311	74.934	0.309	-0.323
-267.297	473.857	-0.216	-0.482
-266.282	-141.799	0.332	0.033
-265.267	800.000	0.021	-0.082
-264.253	-54.889	0.247	-0.110
-263.238	800.000	0.076	-0.287
-262.224	239.438	-0.169	0.278
-261.209	-200.000	0.016	0.278
-260.195	-27.023	0.331	-0.192
-259.180	-200.000	0.021	-0.126
-258.165	83.372	-0.192	-0.207
-257.151	442.169	-0.022	0.047
-256.136	109.259	0.123	0.145
-255.122	-52.945	-0.240	-0.109
-254.107	800.000	0.054	-0.187
-253.092	3.225	-0.152	-0.109
-252.078	-70.493	0.030	-0.011
-251.063	2.225	0.221	-0.158
-250.049	-138.609	-0.047	-0.005
-249.034	-151.794	-0.277	0.020
-248.019	577.337	0.115	0.278
-247.005	-104.212	-0.268	0.062
-245.990	17.175	0.094	-0.074
-244.976	106.876	0.033	0.039
-243.961	18.141	-0.066	0.052
-242.946	340.573	0.172	0.332
-241.932	23.935	-0.071	0.058
-240.917	-82.603	0.073	0.024
-239.903	-200.000	-0.019	-0.200
-238.888	-67.732	0.244	-0.095
-237.873	87.012	-0.178	-0.195
-236.859	-132.391	0.249	-0.032
-235.844	-200.000	-0.317	-0.001
-234.830	-106.704	-0.114	0.025
-233.815	17.610	-0.484	-0.381
-232.800	-200.000	0.060	-0.365
-231.786	-164.257	-0.210	0.010
-230.771	-20.166	-0.394	0.240
-229.757	-200.000	-0.017	-0.126
-228.742	7.665	0.277	0.205
-227.727	-109.315	0.336	-0.070
-226.713	-52.731	0.205	-0.094
-225.698	-12.002	0.299	-0.193
-224.684	286.386	-0.137	0.245
-223.669	-24.172	-0.024	-0.014
-222.655	-200.000	-0.008	-0.291
-221.640	-53.310	0.043	-0.019
-220.625	84.318	-0.087	0.094
-219.611	800.000	0.070	-0.281
-218.596	13.550	-0.016	-0.013
-217.582	11.703	0.134	-0.102
-216.567	-108.966	0.271	-0.057
-215.552	-35.785	0.080	-0.043
-214.538	-103.336	0.134	0.031
-213.523	171.971	-0.094	0.134
-212.509	-57.563	-0.067	0.029
-211.494	-89.133	-0.475	-0.139
-210.479	-185.791	-0.107	0.002
-209.465	3.591	-0.107	-0.077
-208.450	-80.587	0.059	-0.019
-207.436	84.034	-0.285	0.308
-206.421	-200.000	-0.004	0.148
-205.406	412.256	-0.294	0.617
-204.392	800.000	0.132	-0.372
-203.377	-81.761	-0.178	0.058
-202.363	100.863	0.083	0.095
-201.348	-158.176	-0.109	0.006
-200.333	138.324	-0.174	-0.225
-199.319	291.284	0.039	0.070
-198.304	-1.140	0.230	0.160
-197.290	-107.864	0.316	0.068
-196.275	465.845	0.133	-0.294
-195.260	425.925	-0.242	0.516
-194.246	-80.783	0.121	0.040
-193.231	-98.214	-0.169	-0.043
-192.217	374.270	0.054	0.109
-191.202	447.792	0.129	-0.280
-190.187	-200.000	0.013	0.100
-189.173	121.902	-0.208	0.256
-188.158	800.000	0.154	-0.448
-187.144	92.499	-0.098	-0.109
-186.129	558.688	0.046	0.110
-185.114	-91.118	0.091	0.026
-184.100	-50.024	-0.329	0.154
-183.085	387.484	0.119	-0.243
-182.071	-50.901	0.109	-0.051
-181.056	2.615	-0.115	0.082
-180.042	-134.852	0.107	0.013
-179.027	-163.042	0.380	0.018
-178.012	800.000	0.154	-0.456
-176.998	800.000	0.109	-0.362
-175.983	-200.000	0.006	0.257
-174.969	40.111	-0.287	0.255
-173.954	800.000	0.025	0.092
-172.939	221.935	-0.029	-0.046
-171.925	-146.790	0.396	-0.034
-170.910	176.507	-0.110	0.158
-169.896	800.000	-0.127	0.402
-168.881	-113.560	0.142	0.027
-167.866	-19.583	0.240	0.146
-166.852	-133.291	-0.142	0.018
-165.837	800.000	-0.156	0.459
-164.823	147.815	0.302	0.402
-163.808	-91.281	0.208	0.059
-162.793	-49.055	-0.123	0.058
-161.779	-39.683	-0.159	-0.082
-160.764	122.341	0.043	0.053
-159.750	118.244	-0.293	0.356
-158.735	-200.000	-0.027	0.134
-157.720	800.000	-0.030	0.091
-156.706	128.811	0.098	0.123
-155.691	-132.979	-0.362	-0.045
-154.677	-54.652	-0.158	0.070
-153.662	800.000	-0.100	-0.347
-152.647	263.468	-0.062	-0.106
-151.633	222.941	-0.114	0.181
-150.618	-200.000	-0.013	-0.246
-149.604	-200.000	0.017	0.339
-148.589	-105.834	-0.348	-0.077
-147.574	-158.122	-0.027	0.002
-146.560	-120.995	-0.109	-0.018
-145.545	-53.939	0.253	0.114
-144.531	-146.759	0.100	-0.009
-143.516	0.934	0.135	-0.096
-142.502	-200.000	-0.008	-0.164
-141.487	205.831	-0.068	-0.105
-140.472	-57.420	0.292	-0.126
-139.458	69.801	0.026	0.027
-138.443	-200.000	0.040	-0.268
-137.429	281.898	-0.106	0.188
-136.414	-29.679	-0.024	0.013
-135.399	-33.532	0.257	-0.140
-134.385	4.339	-0.052	0.038
-133.370	-47.295	-0.076	0.037
-132.356	728.115	0.035	-0.093
-131.341	88.393	-0.156	0.171
-130.326	188.271	-0.106	0.155
-129.312	-101.318	0.097	0.023
-128.297	-200.000	-0.024	0.452
-127.283	-136.001	-0.329	0.038
-126.268	-200.000	0.069	0.345
-125.253	82.124	0.340	0.363
-124.239	-117.683	0.057	-0.010
-123.224	-200.000	-0.009	-0.201
-122.210	-95.754	-0.225	-0.059
-121.195	-14.677	-0.177	0.112
-120.180	800.000	0.061	-0.175
-119.166	393.906	-0.080	0.164
-118.151	-121.923	0.149	-0.024
-117.137	676.906	-0.068	-0.175
-116.122	162.540	0.096	0.133
-115.107	159.517	0.086	-0.118
-114.093	800.000	0.163	0.448
-113.078	-57.873	-0.357	-0.154
-112.064	-81.346	-0.411	-0.133
-111.049	180.874	-0.108	0.156
-110.034	-132.002	-0.199	-0.025
-109.020	87.818	-0.131	0.143
-108.005	800.000	-0.101	0.312
-106.991	-9.150	-0.248	-0.163
-105.976	-155.192	0.142	0.009
-104.962	800.000	0.069	-0.276
-103.947	-13.684	-0.173	0.110
-102.932	-186.844	-0.191	0.003
-101.918	260.084	0.248	-0.422
-100.903	270.000	-0.038	-0.065
-99.889	111.809	0.028	0.033
-98.874	-74.441	-0.302	0.107
-97.859	-106.635	-0.477	-0.105
-96.845	255.035	-0.094	-0.159
-95.830	-105.142	-0.095	0.021
-94.816	28.399	-0.162	-0.135
-93.801	-142.208	0.147	0.014
-92.786	272.466	0.126	-0.218
-91.772	301.998	0.065	-0.119
-90.757	800.000	-0.057	-0.163
-89.743	-200.000	0.027	-0.124
-88.728	-200.000	0.029	0.162
-87.713	800.000	-0.021	-0.059
-86.699	28.390	0.088	0.073
-85.684	218.151	0.081	0.127
-84.670	800.000	0.036	0.143
-83.655	787.226	0.052	-0.141
-82.640	-151.475	0.165	-0.012
-81.626	800.000	-0.090	0.256
-80.611	-144.005	-0.137	-0.013
-79.597	79.922	-0.153	0.162
-78.582	6.272	-0.222	-0.162
-77.567	11.001	-0.091	-0.069
-76.553	800.000	0.050	0.137
-75.538	-54.005	0.072	0.032
-74.524	800.000	-0.057	-0.227
-73.509	238.296	0.090	0.148
-72.494	150.759	-0.133	0.177
-71.480	307.576	-0.154	0.283
-70.465	54.237	0.190	0.180
-69.451	18.262	-0.259	0.203
-68.436	-112.321	0.089	0.017
-67.422	-95.114	-0.343	-0.091
-66.407	493.806	-0.149	-0.336
-65.392	-200.000	-0.039	0.314
-64.378	-39.332	0.149	0.077
-63.363	128.536	-0.224	0.280
-62.349	165.776	-0.204	0.283
-61.334	39.413	-1.058	-0.931
-60.319	-57.374	0.601	0.259
-59.305	-200.000	-0.157	-1.139
-58.290	113.225	0.836	0.997
-57.276	545.210	0.674	1.583
-56.261	-200.000	100.630	567.600
-55.246	472.236	1438.398	3181.959
-54.232	150.781	2631.775	3514.121
-53.217	108.351	2188.924	2565.915
-52.203	40.726	1712.199	1516.503
-51.188	33.242	1519.167	1294.516
-50.173	30.848	1492.221	1255.387
-49.159	50.753	1544.154	1436.093
-48.144	51.623	1562.138	1458.734
-47.130	33.562	1520.150	1297.338
-46.115	30.386	1505.067	1262.853
-45.100	30.219	1501.600	1258.761
-44.086	30.282	1499.329	1257.236
-43.071	30.203	1498.022	1255.551
-42.057	30.065	1496.132	1252.985
-41.042	30.063	1494.850	1251.851
-40.027	30.170	1493.354	1251.269
-39.013	30.018	1491.953	1249.017
-37.998	30.073	1490.242	1247.910
-36.984	30.148	1489.190	1247.481
-35.969	30.092	1487.731	1245.832
-34.954	30.042	1486.250	1244.206
-33.940	30.008	1485.204	1243.052
-32.925	30.097	1483.386	1242.082
-31.911	30.131	1482.280	1241.334
-30.896	30.150	1481.201	1240.509
-29.881	30.208	1480.138	1239.957
-28.867	30.161	1478.231	1237.997
-27.852	30.131	1477.122	1236.820
-26.838	30.139	1475.670	1235.606
-25.823	30.188	1474.055	1234.528
-24.809	30.089	1472.407	1232.446
-23.794	30.150	1471.500	1232.038
-22.779	30.145	1470.406	1231.042
-21.765	30.119	1469.199	1229.814
-20.750	30.180	1467.894	1229.076
-19.736	30.081	1466.646	1227.327
-18.721	30.063	1465.735	1226.393
-17.706	30.059	1464.743	1225.488
-16.692	30.091	1463.619	1224.710
-15.677	30.085	1462.686	1223.841
-14.663	30.135	1461.061	1222.762
-13.648	30.188	1460.421	1222.530
-12.633	30.186	1459.228	1221.471
-11.619	30.139	1458.603	1220.591
-10.604	30.001	1457.885	1219.028
-9.590	30.010	1457.080	1218.371
-8.575	30.024	1456.138	1217.623
-7.560	30.066	1455.340	1217.187
-6.546	29.996	1454.362	1215.861
-5.531	30.029	1453.850	1215.595
-4.517	30.048	1452.577	1214.612
-3.502	30.107	1451.373	1213.940
-2.487	30.079	1450.498	1212.982
-1.473	30.065	1449.324	1211.859
-0.458	30.078	1447.947	1210.745
0.556	28.803	1438.933	1202.241
1.571	26.483	1414.754	1166.993
2.586	23.848	1356.172	1102.252
3.600	22.569	1274.154	1028.044
4.615	21.213	1228.679	983.633
5.629	19.882	1176.096	934.273
6.644	16.108	1098.072	853.154
7.659	12.636	1061.748	807.844
8.673	12.031	1057.187	801.350
9.688	11.998	1053.759	798.516
10.702	11.998	1052.243	797.298
11.717	12.063	1050.136	795.947
12.731	13.560	1051.195	803.951
13.746	17.250	1056.029	825.530
14.761	18.883	1057.122	834.246
15.775	18.169	1054.991	829.029
16.790	17.253	1052.681	822.711
17.804	15.961	1050.819	814.935
18.819	15.023	1049.059	808.966
19.834	14.537	1046.751	804.773
20.848	14.227	1046.396	802.931
21.863	13.886	1045.496	800.528
22.877	13.643	1044.758	798.721
23.892	13.522	1043.565	797.153
24.907	13.416	1043.001	796.144
25.921	13.385	1042.275	795.371
26.936	13.483	1041.247	794.987
27.950	13.448	1040.421	794.116
28.965	13.591	1039.371	793.931
29.980	13.659	1037.943	793.093
30.994	13.651	1037.245	792.452
32.009	13.757	1036.043	791.969
33.023	13.741	1035.533	791.433
34.038	13.732	1034.379	790.439
35.053	13.790	1033.383	789.885
36.067	13.577	1033.028	788.528
37.082	13.682	1031.606	787.874
38.096	13.683	1030.717	787.129
39.111	13.680	1030.416	786.818
40.126	13.685	1029.741	786.255
41.140	13.743	1028.219	785.298
42.155	13.498	1027.597	783.591
43.169	13.448	1026.770	782.658
44.184	13.527	1025.832	782.245
45.199	13.323	1024.633	780.301
46.213	13.440	1023.441	779.874
47.228	13.505	1022.801	779.621
48.242	13.562	1021.438	778.784
49.257	13.588	1020.580	778.183
50.271	13.634	1019.392	777.423
51.286	13.553	1018.870	776.578
52.301	13.545	1017.898	775.732
53.315	13.593	1017.002	775.202
54.330	13.457	1016.293	773.961
55.344	13.399	1015.418	772.953
56.359	13.425	1014.254	772.121
57.374	13.639	1012.709	771.872
58.388	13.496	1012.152	770.715
59.403	13.463	1011.743	770.183
60.417	13.453	1010.761	769.320
61.432	13.441	1010.454	768.959
62.447	13.299	1009.723	767.679
63.461	13.303	1008.618	766.789
64.476	13.317	1007.814	766.172
65.490	13.320	1006.969	765.475
66.505	13.373	1005.788	764.757
67.520	13.473	1005.149	764.665
68.534	13.411	1004.765	764.020
69.549	13.438	1003.721	763.283
70.563	13.488	1002.738	762.696
71.578	13.405	1002.618	762.157
72.593	13.286	1001.731	760.868
73.607	13.242	1000.799	759.888
74.622	13.195	999.799	758.849
75.636	13.156	999.342	758.255
76.651	13.208	998.241	757.589
77.666	13.327	997.548	757.544
78.680	13.262	996.979	756.745
79.695	13.314	996.592	756.624
80.709	13.438	995.350	756.181
81.724	13.351	994.839	755.327
82.739	13.444	994.025	755.068
83.753	13.444	993.110	754.306
84.768	13.571	992.062	754.021
85.782	13.510	991.830	753.501
86.797	13.686	991.151	753.717
87.812	13.610	989.848	752.315
88.826	13.555	989.340	751.614
89.841	13.522	988.570	750.810
90.855	13.645	987.372	750.391
91.870	13.543	987.257	749.775
92.884	13.621	986.339	749.366
93.899	13.717	985.206	748.870
94.914	13.684	984.482	748.106
95.928	13.788	983.828	748.012
96.943	13.673	983.425	747.123
97.957	13.796	982.192	746.671
98.972	13.719	981.880	746.023
99.987	13.610	980.791	744.639
101.001	13.687	980.260	744.516
102.016	13.590	979.150	743.172
103.030	13.589	978.390	742.527
104.045	13.647	977.224	741.832
105.060	13.794	975.840	741.374
106.074	13.678	975.549	740.570
107.089	13.603	974.787	739.591
108.103	13.420	973.833	737.985
109.118	13.407	972.724	737.024
110.133	13.457	971.863	736.529
111.147	13.472	971.131	735.972
112.162	13.301	970.763	734.869
113.176	13.532	969.349	734.760
114.191	13.432	968.950	733.951
115.206	13.469	967.907	733.259
116.220	13.490	967.015	732.612
117.235	13.584	965.964	732.163
118.249	13.499	965.513	731.382
119.264	13.490	964.300	730.361
120.279	13.448	963.249	729.315
121.293	13.375	962.727	728.530
122.308	13.476	961.943	728.318
123.322	13.607	960.733	727.912
124.337	13.441	960.278	726.778
125.352	13.387	958.995	725.503
126.366	13.454	957.873	724.882
127.381	13.395	956.900	723.825
128.395	13.292	956.405	722.936
129.410	13.384	954.773	722.041
130.424	13.326	954.210	721.297
131.439	13.351	953.391	720.727
132.454	13.581	952.221	720.778
133.468	13.435	952.025	719.928
134.483	13.504	951.331	719.641
135.497	13.547	950.693	719.284
136.512	13.432	949.970	718.173
137.527	13.378	949.008	717.146
138.541	13.457	948.489	717.033
139.556	13.652	947.154	716.805
140.570	13.568	946.769	716.084
141.585	13.469	946.034	715.040
142.600	13.565	945.255	714.802
143.614	13.683	944.128	714.393
144.629	13.654	943.846	713.992
145.643	13.831	942.845	713.936
146.658	13.792	941.667	712.811
147.673	13.803	940.806	712.146
148.687	13.563	940.517	710.833
149.702	13.532	939.367	709.768
150.716	13.703	938.304	709.634
151.731	13.558	937.756	708.537
152.746	13.480	937.264	707.767
153.760	13.608	936.436	707.628
154.775	13.672	935.784	707.344
155.789	13.720	934.702	706.668
156.804	13.697	934.257	706.171
157.819	13.858	933.125	705.940
158.833	13.973	932.492	705.886
159.848	13.772	932.067	704.650
160.862	13.780	931.620	704.283
161.877	13.806	930.734	703.659
162.892	13.778	929.964	702.895
163.906	13.688	929.018	701.738
164.921	13.617	928.350	700.873
165.935	13.691	926.906	700.033
166.950	13.677	926.151	699.339
167.964	13.776	925.373	699.107
168.979	13.816	924.607	698.636
169.994	13.781	923.361	697.487
171.008	13.771	922.722	696.900
172.023	13.771	921.786	696.132
173.037	13.872	921.166	696.025
174.052	13.870	920.613	695.537
175.067	13.937	920.066	695.343
176.081	13.845	919.016	694.104
177.096	13.682	918.904	693.277
178.110	13.771	917.460	692.498
179.125	13.777	916.911	692.045
180.140	13.880	916.030	691.749
181.154	13.790	915.451	690.876
182.169	13.801	914.854	690.408
183.183	13.807	914.414	690.043
184.198	13.977	913.536	690.025
185.213	14.033	912.666	689.537
186.227	13.912	912.342	688.732
187.242	13.963	911.860	688.516
188.256	14.216	910.881	688.766
189.271	14.105	910.281	687.790
190.286	14.032	909.557	686.880
191.300	13.956	908.686	685.850
192.315	13.879	908.147	685.064
193.329	13.823	907.438	684.236
194.344	13.728	906.982	683.441
195.359	13.881	906.486	683.636
196.373	13.897	906.192	683.422
197.388	14.034	905.196	683.170
198.402	14.118	904.652	683.046
199.417	14.246	904.459	683.366
200.432	14.146	903.840	682.429
201.446	14.302	903.301	682.598
202.461	14.251	903.173	682.235
203.475	14.385	902.620	682.303
204.490	14.207	902.145	681.155
205.504	14.285	900.839	680.429
206.519	14.157	900.106	679.292
207.534	14.204	899.332	678.840
208.548	14.241	898.634	678.404
209.563	14.244	897.914	677.811
210.577	14.233	897.378	677.301
211.592	14.329	896.354	676.858
212.607	14.228	896.322	676.365
213.621	14.404	895.522	676.416
214.636	14.422	894.877	675.942
215.650	14.418	894.351	675.470
216.665	14.340	893.716	674.616
217.680	14.411	893.124	674.393
218.694	14.463	892.592	674.144
219.709	14.574	892.116	674.173
220.723	14.463	891.464	673.173
221.738	14.598	890.627	673.027
222.753	14.570	889.851	672.267
223.767	14.581	889.372	671.889
224.782	14.467	888.530	670.736
225.796	14.549	887.918	670.543
226.811	14.630	887.047	670.153
227.826	14.560	886.454	669.363
228.840	14.609	886.090	669.227
229.855	14.628	885.318	668.659
230.869	14.613	884.243	667.728
231.884	14.635	884.107	667.654
232.899	14.480	883.465	666.493
233.913	14.529	882.600	665.976
234.928	14.623	881.813	665.697
235.942	14.558	881.064	664.817
236.957	14.599	880.701	664.647
237.972	14.577	880.085	664.036
238.986	14.556	879.151	663.186
240.001	14.601	878.856	663.085
241.015	14.571	878.088	662.327
242.030	14.676	877.268	662.066
243.045	14.539	876.780	661.097
244.059	14.545	876.333	660.725
245.074	14.618	875.562	660.376
246.088	14.755	874.998	660.432
247.103	14.852	874.149	660.115
248.117	14.920	873.337	659.711
249.132	14.781	872.935	658.804
250.147	14.946	872.543	659.098
251.161	14.973	871.871	658.640
252.176	14.936	871.319	658.018
253.190	15.008	870.652	657.741
254.205	15.091	869.725	657.306
255.220	15.247	869.060	657.357
256.234	15.280	868.489	656.999
257.249	15.232	867.860	656.277
258.263	15.120	867.677	655.639
259.278	15.026	867.184	654.840
260.293	15.121	866.559	654.682
261.307	15.257	865.953	654.700
262.322	15.183	865.425	653.954
263.336	15.328	864.595	653.834
264.351	15.400	863.950	653.568
265.366	15.407	863.365	653.095
266.380	15.373	862.503	652.254
267.395	15.318	862.098	651.674
268.409	15.325	861.162	650.936
269.424	15.332	860.828	650.654
270.439	15.290	860.329	650.055
271.453	15.236	859.484	649.150
272.468	15.342	858.477	648.742
273.482	15.289	857.971	648.098
274.497	15.249	857.815	647.768
275.512	15.251	856.631	646.827
276.526	15.307	855.931	646.456
277.541	15.344	855.149	645.948
278.555	15.418	854.946	646.023
279.570	15.399	854.529	645.580
280.585	15.448	854.197	645.458
281.599	15.507	853.416	645.040
282.614	15.394	852.753	644.049
283.628	15.609	851.970	644.222
284.643	15.397	851.378	642.905
285.657	15.472	851.004	642.855
286.672	15.475	850.540	642.457
287.687	15.518	850.222	642.327
288.701	15.585	849.586	642.043
289.716	15.559	848.710	641.226
290.730	15.447	848.501	640.585
291.745	15.478	847.868	640.167
292.760	15.626	846.659	639.763
293.774	15.664	846.201	639.504
294.789	15.525	846.046	638.801
295.803	15.781	844.987	638.919
296.818	15.683	844.856	638.391
297.833	15.747	844.177	638.063
298.847	15.705	843.231	637.133
299.862	15.699	842.594	636.572
300.876	15.769	841.745	636.140
301.891	15.809	840.938	635.626
302.906	15.746	840.653	635.116
303.920	15.935	839.996	635.274
304.935	15.978	839.329	634.875
305.949	15.940	839.027	634.448
306.964	15.942	838.310	633.857
307.979	15.928	837.480	633.124
308.993	15.934	837.011	632.735
310.008	16.062	836.150	632.507
311.022	16.013	836.230	632.326
312.037	16.014	835.515	631.734
313.052	15.863	835.080	630.783
314.066	15.984	834.489	630.735
315.081	15.960	833.743	630.027
316.095	15.912	833.537	629.635
317.110	16.007	832.558	629.193
318.125	15.924	832.372	628.690
319.139	15.879	831.695	627.952
320.154	15.887	831.246	627.588
321.168	15.970	830.670	627.407
322.183	16.056	829.919	627.106
323.197	15.946	829.398	626.245
324.212	15.934	829.271	626.050
325.227	15.935	828.892	625.713
326.241	16.085	827.991	625.533
327.256	15.964	827.529	624.682
328.270	16.006	827.118	624.472
329.285	16.064	826.481	624.148
330.300	15.967	826.025	623.389
331.314	15.932	824.935	622.385
332.329	16.104	824.171	622.386
333.343	16.058	824.017	622.046
334.358	16.065	823.734	621.804
335.373	16.188	822.552	621.309
336.387	16.339	822.219	621.559
337.402	16.146	821.988	620.619
338.416	16.353	821.339	620.836
339.431	16.285	821.051	620.313
340.446	16.257	820.204	619.516
341.460	16.415	819.221	619.295
342.475	16.308	819.016	618.696
343.489	16.468	818.558	618.882
344.504	16.589	817.700	618.620
345.519	16.447	817.631	617.993
346.533	16.551	816.793	617.683
347.548	16.523	816.139	617.035
348.562	16.448	815.964	616.574
349.577	16.453	815.497	616.183
350.592	16.329	815.082	615.366
351.606	16.301	814.669	614.894
352.621	16.389	813.950	614.617
353.635	16.352	813.604	614.169
354.650	16.430	813.218	614.106
355.665	16.409	812.659	613.554
356.679	16.390	812.836	613.564
357.694	16.450	812.162	613.220
358.708	16.547	811.434	612.966
359.723	16.667	810.309	612.495
360.738	16.418	810.389	611.601
361.752	16.523	809.439	611.211
362.767	16.673	809.271	611.572
363.781	16.720	808.926	611.426
364.796	16.820	808.034	611.057
365.810	16.706	807.956	610.533
366.825	16.767	807.725	610.526
367.840	16.752	807.232	610.045
368.854	16.764	806.575	609.539
369.869	16.703	806.201	608.980
370.883	16.798	805.624	608.833
371.898	16.736	805.159	608.206
372.913	16.872	804.405	608.071
373.927	16.833	804.011	607.579
374.942	16.791	803.783	607.202
375.956	16.760	802.774	606.275
376.971	16.842	802.135	606.032
377.986	17.066	801.626	606.394
379.000	17.179	801.024	606.290
380.015	17.097	800.861	605.817
381.029	17.093	800.282	605.312
382.044	17.038	799.936	604.800
383.059	17.231	799.085	604.790
384.073	17.142	798.432	603.925
385.088	17.066	798.256	603.470
386.102	17.044	797.284	602.602
387.117	17.132	796.826	602.517
388.132	17.102	796.853	602.377
389.146	16.946	796.789	601.721
390.161	17.033	796.192	601.525
391.175	17.075	795.522	601.114
392.190	17.343	794.641	601.346
393.205	17.208	794.532	600.733
394.219	17.170	793.825	600.009
395.234	17.147	793.371	599.533
396.248	17.009	793.171	598.839
397.263	17.167	792.331	598.711
398.278	17.012	792.167	597.989
399.292	17.168	791.769	598.184
400.307	17.098	791.279	597.513
401.321	17.173	790.917	597.452
402.336	17.169	790.889	597.363
403.350	17.119	790.612	596.927
404.365	17.254	790.048	596.921
405.380	17.182	789.371	596.105
406.394	17.311	789.058	596.266
407.409	17.300	788.344	595.639
408.423	17.379	787.853	595.490
409.438	17.539	787.261	595.551
410.453	17.347	787.127	594.723
411.467	17.521	786.216	594.592
412.482	17.638	785.933	594.731
413.496	17.486	785.571	593.875
414.511	17.561	785.289	593.871
415.526	17.602	784.887	593.657
416.540	17.566	784.663	593.310
417.555	17.521	784.392	592.896
418.569	17.573	783.666	592.476
419.584	17.608	783.100	592.117
420.599	17.564	782.990	591.829
421.613	109.291	1288.204	1466.166
422.628	93.631	1361.806	1466.276
