DTS Sentinel unit serial number:	SN413079Multiplexer serial number:	ORYXHardware model number:	OX4-SRSoftware version number:	ORYX F/W v4.00 Oryx Data Collector v3.7.2.0data status	okinstallation	princeton_trtdifferential loss correction	single-endedforward channel	channel 3reverse channel	N/Adate	2019/09/12time	18:49:04forward acquisition time	15.00reverse acquisition time	0.00gamma	496.2192k internal	0.2319k external	0.2319temperature offset calibration	1.0102default loss term (dB/km)	0.3790temperature slope calibration	1.0000multiplexer offset coefficient	1.0000multiplexer slope coefficient	1.0000fibre end	0.00T internal ref (°C)	32.94T ext. ref 1 (°C)	2.99T ext. ref 2 (°C)	27.43length (m)	temperature (°C)	Stokes	anti-Stokes-747.200	-97.574	0.376	0.099
-746.185	-157.123	0.749	0.046
-745.171	152.787	0.175	-0.242
-744.156	-113.759	0.899	-0.177
-743.142	124.398	0.343	-0.437
-742.127	60.596	-0.341	0.342
-741.112	800.000	-0.354	-1.036
-740.098	800.000	0.126	0.461
-739.083	2.652	0.372	0.273
-738.069	-15.409	0.487	0.315
-737.054	-200.000	0.030	0.344
-736.039	-200.000	-0.108	-0.521
-735.025	-200.000	-0.135	0.599
-734.010	43.487	-0.306	0.283
-732.996	-154.303	0.671	-0.046
-731.981	-200.000	-0.061	-0.283
-730.966	66.894	-0.978	-1.007
-729.952	-1.515	0.553	-0.394
-728.937	-187.849	-0.528	0.007
-727.923	371.553	-0.351	0.721
-726.908	-6.009	-0.244	-0.169
-725.894	-200.000	-0.095	-0.583
-724.879	278.076	-0.148	-0.266
-723.864	2.552	0.291	0.213
-722.850	-84.357	0.471	-0.151
-721.835	73.270	0.282	-0.298
-720.821	35.485	-0.197	0.175
-719.806	-165.229	-0.381	0.017
-718.791	68.851	-0.276	-0.287
-717.777	102.029	0.646	0.762
-716.762	611.588	-0.364	-0.921
-715.748	188.975	-0.332	0.503
-714.733	499.010	-0.198	-0.462
-713.718	-168.566	0.184	0.007
-712.704	-57.154	-0.472	-0.210
-711.689	-50.910	1.275	0.605
-710.675	348.507	0.271	0.539
-709.660	652.559	0.298	0.772
-708.645	-72.417	-0.350	0.131
-707.631	67.777	0.546	-0.564
-706.616	-162.002	0.423	0.022
-705.602	800.000	-0.334	1.066
-704.587	48.508	0.346	-0.328
-703.572	800.000	0.215	-0.824
-702.558	95.691	-0.136	-0.157
-701.543	64.925	-0.122	0.124
-700.529	-92.122	-0.408	0.116
-699.514	-179.836	0.336	-0.007
-698.499	-59.306	-0.819	-0.356
-697.485	97.689	-0.066	0.077
-696.470	-163.432	-0.242	0.012
-695.456	-200.000	0.040	-0.209
-694.441	-200.000	0.001	0.070
-693.426	72.306	0.540	-0.568
-692.412	-190.712	-0.822	-0.009
-691.397	-57.611	-0.713	-0.315
-690.383	-200.000	0.922	0.003
-689.368	-136.286	0.978	0.115
-688.354	61.926	0.389	-0.391
-687.339	-64.588	-0.556	-0.228
-686.324	109.799	-0.272	-0.330
-685.310	-0.642	-0.393	-0.281
-684.295	800.000	0.040	0.154
-683.281	-89.430	0.297	0.088
-682.266	-200.000	-0.003	-0.051
-681.251	-59.727	1.217	-0.526
-680.237	38.981	0.561	0.506
-679.222	-159.084	-0.305	0.017
-678.208	200.999	0.288	0.448
-677.193	437.915	-0.260	-0.573
-676.178	-163.476	-0.856	0.041
-675.164	73.208	-0.832	-0.878
-674.149	213.546	-0.115	-0.183
-673.135	-200.000	0.019	0.303
-672.120	-127.115	-0.343	0.051
-671.105	-200.000	-0.002	-0.721
-670.091	257.485	0.354	0.615
-669.076	314.263	0.474	-0.901
-668.062	-103.787	-0.348	-0.082
-667.047	227.622	0.348	0.571
-666.032	-27.625	0.200	0.117
-665.018	-200.000	0.097	-0.669
-664.003	25.657	-0.195	0.164
-662.989	267.051	0.041	-0.072
-661.974	-74.677	-0.542	-0.196
-660.959	61.553	0.492	0.494
-659.945	800.000	-0.248	0.704
-658.930	-200.000	0.077	-0.860
-657.916	-121.573	0.258	0.043
-656.901	800.000	0.187	-0.540
-655.886	-15.346	0.301	0.194
-654.872	-19.290	1.215	0.760
-653.857	-109.129	0.057	0.012
-652.843	592.480	0.191	0.476
-651.828	84.579	-0.131	-0.145
-650.814	-200.000	0.217	-0.969
-649.799	320.706	-0.237	-0.454
-648.784	-51.587	-0.152	0.071
-647.770	-200.000	-0.008	-0.633
-646.755	800.000	-0.261	-1.110
-645.741	-200.000	0.003	-0.517
-644.726	-200.000	-0.022	-0.735
-643.711	-37.866	0.308	0.165
-642.697	800.000	0.190	0.661
-641.682	8.523	0.559	0.424
-640.668	-200.000	-0.044	0.484
-639.653	482.661	-0.098	0.224
-638.638	-200.000	-0.093	-0.877
-637.624	747.524	0.100	-0.272
-636.609	501.496	0.139	0.324
-635.595	800.000	0.143	-0.484
-634.580	17.671	-0.205	0.164
-633.565	-38.080	-0.674	0.361
-632.551	287.488	-0.118	-0.215
-631.536	-12.637	0.419	0.275
-630.522	800.000	0.073	0.289
-629.507	43.902	0.296	0.273
-628.492	769.440	-0.219	-0.599
-627.478	172.458	-0.137	0.199
-626.463	-179.465	0.738	-0.016
-625.449	-14.170	-0.184	-0.120
-624.434	-200.000	-0.084	0.843
-623.419	-20.986	0.798	0.492
-622.405	800.000	0.133	-0.427
-621.390	-200.000	-0.004	0.233
-620.376	-200.000	-0.018	-0.412
-619.361	47.428	0.070	0.066
-618.346	-200.000	0.038	-0.254
-617.332	-189.435	0.431	0.005
-616.317	-200.000	0.174	0.773
-615.303	-63.742	-0.329	-0.136
-614.288	-200.000	0.044	-0.211
-613.273	500.444	-0.063	-0.147
-612.259	-200.000	-0.019	-0.484
-611.244	-19.194	-0.217	-0.135
-610.230	37.426	-0.140	-0.125
-609.215	-55.213	-0.142	0.064
-608.201	677.484	0.196	-0.512
-607.186	622.063	-0.136	-0.344
-606.171	800.000	-0.187	-0.633
-605.157	-29.878	-0.086	0.049
-604.142	-12.167	-0.535	-0.352
-603.128	242.972	-0.192	0.324
-602.113	120.597	-0.157	0.196
-601.098	-108.836	0.121	0.026
-600.084	172.586	-0.588	-0.852
-599.069	138.510	0.367	0.485
-598.055	46.918	-0.494	0.462
-597.040	-94.484	-0.329	-0.090
-596.025	27.741	-0.773	-0.655
-595.011	285.772	-0.221	0.402
-593.996	131.018	-0.159	0.205
-592.982	-130.809	0.297	0.040
-591.967	800.000	-0.042	0.152
-590.952	-4.541	0.249	-0.173
-589.938	-193.948	0.272	-0.002
-588.923	-42.868	-0.250	-0.128
-587.909	-200.000	0.080	0.438
-586.894	800.000	-0.169	0.543
-585.879	-170.245	0.664	0.024
-584.865	372.180	0.166	0.339
-583.850	266.296	-0.238	-0.418
-582.836	-184.984	-0.207	-0.003
-581.821	-99.996	-0.511	-0.128
-580.806	-44.288	0.093	-0.047
-579.792	-64.081	0.459	0.188
-578.777	-200.000	0.032	0.437
-577.763	16.786	-0.356	0.284
-576.748	-195.947	0.492	-0.004
-575.733	123.498	0.356	0.449
-574.719	173.227	-0.180	0.261
-573.704	-42.179	0.258	-0.133
-572.690	-62.688	-0.676	-0.282
-571.675	-200.000	-0.018	-0.902
-570.661	800.000	-0.020	-0.061
-569.646	170.998	0.186	0.267
-568.631	778.787	0.195	0.535
-567.617	263.814	-0.100	0.175
-566.602	125.432	0.544	-0.690
-565.588	800.000	-0.133	-0.550
-564.573	608.861	-0.081	-0.203
-563.558	81.426	-0.196	-0.213
-562.544	-178.711	0.612	0.014
-561.529	-94.622	0.340	0.093
-560.515	-68.534	0.208	0.081
-559.500	-7.766	0.383	0.260
-558.485	800.000	-0.171	-0.532
-557.471	-200.000	-0.080	-0.995
-556.456	32.892	-0.329	-0.286
-555.442	-85.997	0.479	0.149
-554.427	-44.937	-0.669	0.334
-553.412	66.247	0.808	-0.824
-552.398	80.722	-0.152	0.165
-551.383	-63.728	0.492	0.203
-550.369	22.458	-0.903	-0.741
-549.354	800.000	-0.075	-0.282
-548.339	13.156	0.190	-0.148
-547.325	35.184	-0.381	0.335
-546.310	-53.651	-0.476	0.218
-545.296	242.889	-0.105	-0.176
-544.281	-84.566	-0.160	-0.051
-543.266	664.271	0.202	0.525
-542.252	-153.334	-0.174	0.012
-541.237	146.771	-0.516	0.696
-540.223	91.007	0.576	0.649
-539.208	767.607	0.376	-1.027
-538.193	-110.751	-0.552	0.114
-537.179	-199.153	1.064	-0.006
-536.164	-92.821	-0.810	0.227
-535.150	18.498	-0.222	-0.178
-534.135	265.088	-0.266	-0.465
-533.121	-30.256	0.828	0.472
-532.106	-52.399	-1.055	0.490
-531.091	0.200	-0.340	-0.243
-530.077	-200.000	-0.035	-0.204
-529.062	-62.784	-1.164	-0.484
-528.048	131.487	0.113	0.146
-527.033	-8.387	0.239	-0.161
-526.018	306.450	0.357	0.667
-525.004	759.894	-0.171	0.465
-523.989	107.510	-0.293	-0.349
-522.975	-200.000	0.002	-0.157
-521.960	-32.637	0.759	-0.424
-520.945	-200.000	-0.008	0.588
-519.931	-90.815	0.376	0.109
-518.916	-108.517	-0.161	-0.035
-517.902	-57.834	0.125	0.055
-516.887	-200.000	-0.074	-0.365
-515.872	-58.733	0.296	-0.128
-514.858	-65.983	0.562	0.225
-513.843	-18.130	-1.094	0.686
-512.829	-200.000	0.027	-0.187
-511.814	-153.273	0.624	0.044
-510.799	-200.000	0.003	0.680
-509.785	109.016	0.384	-0.460
-508.770	658.097	-0.134	0.345
-507.756	-10.969	-0.518	0.343
-506.741	-22.306	-0.820	0.498
-505.726	18.997	0.155	-0.124
-504.712	105.618	0.298	-0.353
-503.697	17.741	-0.797	0.636
-502.683	800.000	0.232	-0.992
-501.668	260.672	-0.386	-0.669
-500.653	3.696	0.394	0.288
-499.639	800.000	0.205	0.844
-498.624	-68.870	0.513	0.199
-497.610	-175.558	-0.784	0.021
-496.595	20.909	-0.433	-0.351
-495.581	-200.000	0.102	0.566
-494.566	79.545	0.361	0.388
-493.551	-200.000	0.166	-0.739
-492.537	-69.788	0.238	-0.091
-491.522	-22.047	-0.232	0.141
-490.508	62.778	-0.374	0.374
-489.493	94.665	0.308	-0.351
-488.478	800.000	-0.077	0.317
-487.464	800.000	0.214	-0.647
-486.449	-102.334	-0.208	0.050
-485.435	-200.000	-0.011	0.162
-484.420	-57.636	-0.514	-0.226
-483.405	-23.977	-0.962	0.576
-482.391	-127.783	-0.913	-0.132
-481.376	-91.190	0.777	0.223
-480.362	-200.000	-0.043	0.260
-479.347	15.190	0.386	0.303
-478.332	-200.000	-0.027	0.539
-477.318	21.999	0.805	0.657
-476.303	-200.000	-0.030	0.199
-475.289	196.021	0.185	-0.281
-474.274	29.817	-0.273	0.233
-473.259	57.146	0.033	0.032
-472.245	682.064	-0.240	0.626
-471.230	-7.318	-0.130	0.088
-470.216	-47.669	-0.486	0.236
-469.201	-137.389	0.165	-0.019
-468.186	3.764	0.850	0.621
-467.172	-200.000	0.059	0.445
-466.157	-200.000	-0.078	-0.620
-465.143	-182.348	1.244	-0.023
-464.128	-105.345	0.694	0.158
-463.113	-118.811	-0.949	0.167
-462.099	-104.710	0.914	0.211
-461.084	66.340	0.318	0.323
-460.070	60.454	0.078	0.077
-459.055	800.000	0.173	-0.589
-458.040	86.032	0.244	-0.268
-457.026	-45.942	-0.513	-0.253
-456.011	-34.883	-0.450	0.246
-454.997	-200.000	0.698	0.001
-453.982	-58.789	1.033	-0.447
-452.968	-37.968	-0.340	0.180
-451.953	418.001	0.296	0.633
-450.938	-61.775	-0.732	-0.307
-449.924	800.000	-0.216	-0.686
-448.909	-74.517	-0.309	0.111
-447.895	800.000	-0.050	-0.165
-446.880	-37.126	-0.493	0.264
-445.865	119.665	0.240	0.298
-444.851	-200.000	-0.222	1.074
-443.836	-200.000	0.026	0.279
-442.822	-138.735	-0.662	-0.072
-441.807	185.074	0.484	-0.718
-440.792	-153.279	-0.096	-0.007
-439.778	-17.147	0.250	0.158
-438.763	-177.302	-0.623	-0.015
-437.749	-200.000	-0.013	-0.432
-436.734	-161.623	0.595	-0.030
-435.719	-84.707	-0.273	-0.086
-434.705	51.994	-0.492	-0.468
-433.690	-200.000	-0.117	0.624
-432.676	-88.435	0.281	-0.084
-431.661	-116.541	0.151	0.028
-430.646	-122.144	-0.816	0.134
-429.632	-200.000	0.014	-0.482
-428.617	659.223	0.189	0.487
-427.603	-0.841	-0.085	0.060
-426.588	31.910	0.596	-0.513
-425.573	46.425	0.383	0.355
-424.559	-93.983	-0.398	0.109
-423.544	132.581	-0.432	-0.556
-422.530	-200.000	0.006	1.053
-421.515	-57.195	-0.968	0.426
-420.500	135.707	-0.168	-0.218
-419.486	575.046	-0.159	-0.389
-418.471	-200.000	-0.052	0.956
-417.457	-10.042	0.127	0.084
-416.442	-200.000	0.034	-0.385
-415.428	800.000	-0.154	0.478
-414.413	26.233	0.453	0.378
-413.398	20.038	0.897	0.722
-412.384	-93.478	-0.406	0.112
-411.369	509.053	-0.180	-0.418
-410.355	134.178	-0.411	-0.532
-409.340	551.819	-0.118	0.282
-408.325	-15.164	-0.168	0.107
-407.311	-16.943	0.367	0.231
-406.296	-57.091	0.686	-0.302
-405.282	-41.227	0.880	-0.453
-404.267	-200.000	-0.052	-0.445
-403.252	-102.778	-0.648	-0.154
-402.238	-29.267	0.522	-0.298
-401.223	-6.124	-1.052	0.718
-400.209	-121.363	0.140	0.023
-399.194	-59.512	-0.817	-0.350
-398.179	-200.000	-0.002	-0.164
-397.165	800.000	-0.134	-0.369
-396.150	450.611	0.348	-0.767
-395.136	-117.034	0.570	-0.104
-394.121	42.327	0.150	-0.136
-393.106	-24.204	0.492	-0.293
-392.092	800.000	0.108	0.345
-391.077	403.501	-0.329	0.692
-390.063	284.118	-0.222	-0.398
-389.048	35.812	0.283	-0.248
-388.033	51.112	-0.178	0.169
-387.019	-61.608	-0.690	0.289
-386.004	413.044	-0.571	1.210
-384.990	-123.570	-0.183	-0.029
-383.975	10.842	0.363	-0.276
-382.960	-200.000	0.150	1.164
-381.946	97.600	0.336	-0.385
-380.931	-100.275	-0.517	0.128
-379.917	-130.599	-0.439	0.059
-378.902	-38.932	-0.588	-0.309
-377.888	613.032	-0.067	-0.168
-376.873	-93.093	0.300	-0.083
-375.858	547.237	-0.244	-0.582
-374.844	31.713	-0.045	0.039
-373.829	34.332	0.384	0.334
-372.815	-65.241	-0.108	0.043
-371.800	-66.981	-0.661	0.260
-370.785	-200.000	-0.086	0.435
-369.771	210.697	-0.295	-0.462
-368.756	-200.000	0.037	0.511
-367.742	-26.330	-0.385	-0.225
-366.727	-40.889	-0.421	-0.217
-365.712	-106.043	-0.470	-0.105
-364.698	-160.977	0.566	-0.030
-363.683	383.863	-0.042	0.086
-362.669	-46.150	0.482	-0.237
-361.654	-200.000	-0.009	0.212
-360.639	-50.187	0.126	-0.059
-359.625	-133.245	0.722	-0.091
-358.610	-14.158	-0.424	0.272
-357.596	90.659	-0.310	-0.346
-356.581	780.318	-0.078	-0.212
-355.566	-126.521	0.491	-0.073
-354.552	-47.663	0.276	0.133
-353.537	-159.199	0.376	0.021
-352.523	-140.574	-0.054	0.006
-351.508	-48.070	0.743	0.358
-350.493	800.000	-0.112	-0.482
-349.479	34.338	0.402	-0.349
-348.464	97.531	0.542	-0.620
-347.450	-115.610	-0.558	-0.104
-346.435	-109.752	-0.213	-0.045
-345.420	659.466	-0.100	-0.257
-344.406	-83.259	0.480	-0.154
-343.391	800.000	-0.248	0.845
-342.377	-64.184	-0.407	-0.165
-341.362	-127.669	-0.502	-0.072
-340.348	56.057	-0.097	0.094
-339.333	-145.090	0.427	-0.039
-338.318	-200.000	-0.014	-0.295
-337.304	-105.352	0.758	0.172
-336.289	-7.133	-0.568	-0.383
-335.275	14.346	-1.027	-0.797
-334.260	-200.000	-0.002	0.441
-333.245	800.000	0.144	-0.493
-332.231	-142.630	0.992	-0.097
-331.216	-170.178	0.523	-0.018
-330.202	-127.362	0.542	-0.079
-329.187	-200.000	-0.076	-1.031
-328.172	99.547	-0.359	0.413
-327.158	-200.000	0.014	0.369
-326.143	207.901	-0.283	0.440
-325.129	436.871	0.065	0.142
-324.114	-196.561	-0.124	-0.001
-323.099	-47.768	0.323	0.156
-322.085	136.033	-0.231	0.299
-321.070	28.137	0.469	0.394
-320.056	-138.346	0.306	-0.034
-319.041	800.000	-0.027	-0.073
-318.026	-200.000	-0.019	-0.388
-317.012	215.217	-0.260	0.410
-315.997	-200.000	-0.106	0.464
-314.983	-147.778	-0.146	0.012
-313.968	-47.542	0.579	-0.280
-312.953	-95.857	0.046	-0.012
-311.939	34.692	-0.546	0.475
-310.924	-200.000	0.029	0.825
-309.910	-200.000	0.020	0.190
-308.895	-99.537	0.515	0.129
-307.880	-200.000	0.136	0.626
-306.866	81.946	-0.243	-0.262
-305.851	-161.720	0.458	0.023
-304.837	116.304	0.390	0.475
-303.822	265.120	-0.167	0.289
-302.807	132.048	0.478	0.611
-301.793	-105.291	-0.281	-0.064
-300.778	-113.743	0.542	-0.105
-299.764	-200.000	-0.097	0.438
-298.749	390.450	-0.283	-0.583
-297.735	-200.000	-0.010	0.165
-296.720	-47.678	0.472	0.228
-295.705	177.075	-0.129	-0.187
-294.691	800.000	0.098	-0.277
-293.676	-200.000	0.497	0.000
-292.662	-200.000	0.037	0.325
-291.647	591.254	-0.171	-0.419
-290.632	-31.793	-0.516	0.288
-289.618	41.234	0.688	-0.618
-288.603	-122.783	0.195	-0.031
-287.589	-70.973	-0.305	0.114
-286.574	-112.943	0.410	-0.081
-285.559	640.367	0.274	-0.694
-284.545	800.000	0.047	-0.198
-283.530	93.084	0.139	-0.156
-282.516	-200.000	-0.015	-0.727
-281.501	299.092	0.564	1.032
-280.486	36.904	-1.394	1.224
-279.472	346.202	-0.130	0.254
-278.457	6.787	0.774	-0.572
-277.443	205.068	0.430	0.663
-276.428	190.491	0.462	-0.689
-275.413	95.203	-0.523	-0.592
-274.399	266.867	0.215	0.373
-273.384	-53.657	0.132	-0.060
-272.370	311.586	0.201	0.373
-271.355	-200.000	0.074	-0.365
-270.340	-32.046	-0.729	-0.405
-269.326	61.908	-0.196	-0.194
-268.311	82.781	0.365	-0.394
-267.297	-145.789	0.074	-0.007
-266.282	-200.000	0.045	0.712
-265.267	800.000	0.053	0.166
-264.253	566.746	-0.146	-0.353
-263.238	-91.590	-0.804	0.227
-262.224	-200.000	0.030	-0.163
-261.209	-84.417	-0.481	-0.151
-260.195	-125.614	0.548	0.083
-259.180	-85.141	0.608	0.189
-258.165	800.000	-0.161	-0.632
-257.151	175.938	0.231	-0.333
-256.136	323.585	0.224	0.424
-255.122	-50.785	-0.511	-0.239
-254.107	-13.557	0.496	-0.319
-253.092	-71.533	-1.164	0.432
-252.078	504.975	-0.216	0.496
-251.063	800.000	0.207	-0.702
-250.049	518.822	-0.250	0.582
-249.034	-200.000	-0.014	0.114
-248.019	193.839	0.125	-0.188
-247.005	-30.953	-0.766	-0.429
-245.990	182.746	0.523	-0.765
-244.976	-200.000	-0.148	-0.671
-243.961	176.641	-0.308	-0.445
-242.946	-155.531	-0.834	0.053
-241.932	164.688	0.251	-0.351
-240.917	-81.835	0.699	0.227
-239.903	800.000	0.238	-0.727
-238.888	16.264	0.087	-0.068
-237.873	-65.413	0.279	-0.111
-236.859	-109.094	-0.385	0.081
-235.844	201.228	-0.280	-0.427
-234.830	-20.498	0.594	-0.362
-233.815	115.369	0.510	-0.618
-232.800	-68.853	0.858	-0.329
-231.786	-149.707	-0.332	0.026
-230.771	93.150	0.159	0.179
-229.757	-180.100	-0.315	-0.007
-228.742	-29.651	-0.062	0.035
-227.727	-60.899	0.031	0.013
-226.713	15.191	-0.706	-0.549
-225.698	48.506	0.667	-0.620
-224.684	255.203	0.392	0.666
-223.669	77.723	0.618	-0.653
-222.655	-64.801	-0.440	0.177
-221.640	2.006	0.345	0.247
-220.625	-32.956	0.011	-0.006
-219.611	-8.956	0.523	-0.347
-218.596	-200.000	0.157	0.834
-217.582	384.307	-0.248	0.506
-216.567	-117.437	0.195	-0.035
-215.552	-146.303	-0.303	0.026
-214.538	46.976	0.829	0.764
-213.523	204.546	-0.106	0.163
-212.509	56.951	-0.186	0.179
-211.494	62.434	-0.311	-0.308
-210.479	-200.000	0.072	0.568
-209.465	-189.054	-0.435	-0.005
-208.450	-73.631	-0.998	-0.360
-207.436	377.615	-0.167	0.339
-206.421	87.564	0.493	0.540
-205.406	-129.426	-0.857	-0.118
-204.392	-200.000	0.129	-0.641
-203.377	800.000	0.195	0.839
-202.363	0.572	0.632	0.448
-201.348	-87.698	0.046	-0.014
-200.333	58.925	-0.283	-0.275
-199.319	427.288	-0.339	-0.724
-198.304	-200.000	-0.045	0.511
-197.290	-118.522	0.199	-0.035
-196.275	73.829	-0.328	-0.340
-195.260	20.293	0.166	-0.133
-194.246	226.881	0.223	-0.359
-193.231	-200.000	0.064	0.614
-192.217	-87.146	-0.333	-0.100
-191.202	53.838	0.332	0.316
-190.187	-99.101	-0.123	-0.031
-189.173	800.000	0.112	0.476
-188.158	-45.932	0.947	0.463
-187.144	-96.513	-0.734	0.192
-186.129	-88.257	0.512	-0.152
-185.114	416.718	0.053	0.112
-184.100	-59.760	0.176	0.074
-183.085	3.707	0.411	-0.297
-182.071	1.491	-0.388	0.276
-181.056	-48.379	0.585	-0.279
-180.042	120.102	0.433	0.531
-179.027	-200.000	-0.030	-0.808
-178.012	13.016	-0.166	-0.127
-176.998	136.066	-0.259	-0.334
-175.983	205.185	0.137	-0.210
-174.969	20.559	0.352	0.282
-173.954	59.125	0.227	0.221
-172.939	800.000	-0.093	0.355
-171.925	133.583	-0.186	-0.238
-170.910	29.396	-0.356	0.300
-169.896	-200.000	0.026	-0.490
-168.881	-200.000	-0.026	0.447
-167.866	44.824	0.032	-0.029
-166.852	17.745	-0.236	0.186
-165.837	113.406	-0.506	0.608
-164.823	21.963	0.285	-0.230
-163.808	-200.000	0.157	-0.945
-162.793	-36.751	-0.589	-0.313
-161.779	-133.580	0.623	-0.077
-160.764	246.125	-0.367	-0.612
-159.750	-200.000	-0.052	0.487
-158.735	460.058	-0.200	0.440
-157.720	304.251	-0.273	0.501
-156.706	235.137	0.110	0.180
-155.691	-200.000	0.009	-0.132
-154.677	-200.000	0.129	-0.576
-153.662	-69.148	-0.800	-0.304
-152.647	-71.310	0.473	-0.175
-151.633	26.909	-0.612	-0.507
-150.618	608.791	-0.143	-0.353
-149.604	163.769	0.171	-0.238
-148.589	353.584	0.233	0.458
-147.574	-7.100	-0.054	0.036
-146.560	-200.000	-0.014	0.314
-145.545	-200.000	-0.001	-0.675
-144.531	-200.000	0.004	-0.255
-143.516	243.621	-0.045	-0.074
-142.502	663.423	0.079	0.201
-141.487	175.653	-0.292	0.419
-140.472	-200.000	0.070	-0.481
-139.458	800.000	0.145	-0.544
-138.443	-117.214	-1.224	0.220
-137.429	716.393	-0.351	-0.921
-136.414	-46.835	0.323	0.156
-135.399	-147.591	0.378	0.031
-134.385	66.426	0.086	0.086
-133.370	140.343	0.546	-0.712
-132.356	125.636	-0.749	-0.934
-131.341	212.080	-0.221	-0.344
-130.326	-37.931	-0.234	0.123
-129.312	-88.902	-0.922	0.270
-128.297	-94.097	-0.138	-0.037
-127.283	-3.532	0.945	-0.649
-126.268	126.235	-0.425	-0.531
-125.253	-200.000	0.058	-0.743
-124.239	626.400	0.154	0.384
-123.224	192.523	-0.494	0.736
-122.210	2.806	0.310	0.222
-121.195	-200.000	0.139	-0.644
-120.180	-125.795	-0.206	0.031
-119.166	-200.000	0.030	-0.298
-118.151	175.110	-0.219	0.312
-117.137	31.867	-0.575	0.489
-116.122	-179.789	-0.479	-0.010
-115.107	-24.018	0.825	-0.487
-114.093	-164.885	0.135	-0.006
-113.078	-34.820	0.082	-0.044
-112.064	606.645	-0.131	-0.323
-111.049	115.178	-0.322	-0.388
-110.034	37.806	-0.349	0.306
-109.020	-200.000	0.088	-0.392
-108.005	433.389	0.228	0.489
-106.991	-200.000	-0.105	-0.940
-105.976	79.522	-0.525	0.556
-104.962	-171.120	0.452	0.015
-103.947	800.000	0.309	0.950
-102.932	18.326	0.393	0.310
-101.918	-174.868	-0.062	-0.002
-100.903	800.000	0.292	-0.817
-99.889	800.000	0.094	0.347
-98.874	200.268	0.372	0.564
-97.859	-200.000	-0.024	0.717
-96.845	214.399	-0.046	-0.072
-95.830	800.000	-0.054	0.207
-94.816	-108.848	-0.647	0.136
-93.801	800.000	0.238	-0.952
-92.786	-52.325	0.521	-0.238
-91.772	-6.590	-0.415	0.278
-90.757	800.000	-0.281	-0.845
-89.743	198.685	-0.062	0.094
-88.728	233.138	0.185	0.299
-87.713	-28.522	-0.669	0.380
-86.699	9.145	-0.433	-0.322
-85.684	-80.047	-0.288	-0.095
-84.670	345.023	0.411	-0.795
-83.655	45.882	-0.450	-0.410
-82.640	125.609	0.158	-0.196
-81.626	-18.103	0.154	-0.095
-80.611	-200.000	-0.007	0.074
-79.597	-95.045	-0.631	-0.168
-78.582	800.000	-0.157	-0.465
-77.567	-59.850	0.703	0.296
-76.553	-42.027	-0.658	-0.332
-75.538	543.998	-0.372	0.875
-74.524	69.714	-0.280	-0.285
-73.509	731.149	-0.259	-0.681
-72.494	800.000	-0.509	1.474
-71.480	-200.000	0.041	-0.555
-70.465	-200.000	0.001	-0.245
-69.451	-42.844	-0.224	-0.112
-68.436	161.640	0.098	0.135
-67.422	669.414	0.080	-0.205
-66.407	-200.000	0.188	0.869
-65.392	73.881	0.769	0.795
-64.378	74.374	-0.325	0.336
-63.363	-200.000	-0.103	0.495
-62.349	800.000	0.040	-0.116
-61.334	25.026	-1.366	-1.116
-60.319	147.267	0.649	0.860
-59.305	-200.000	-0.091	-1.315
-58.290	152.384	1.156	1.555
-57.276	313.520	1.260	2.334
-56.261	-200.000	95.044	581.541
-55.246	659.887	1362.760	3454.889
-54.232	202.367	2526.343	3839.365
-53.217	117.753	2146.098	2601.960
-52.203	43.355	1695.995	1525.698
-51.188	36.109	1510.739	1309.975
-50.173	33.723	1484.929	1271.577
-49.159	54.026	1535.045	1453.182
-48.144	54.744	1553.501	1475.491
-47.130	36.304	1511.880	1312.080
-46.115	33.158	1496.937	1277.839
-45.100	32.930	1494.403	1274.093
-44.086	32.969	1492.559	1272.728
-43.071	32.937	1490.861	1271.015
-42.057	33.040	1488.211	1269.395
-41.042	33.178	1486.710	1268.994
-40.027	32.898	1486.065	1266.513
-39.013	32.941	1484.227	1265.185
-37.998	32.671	1484.446	1263.513
-36.984	32.897	1482.326	1263.173
-35.969	33.063	1480.710	1262.856
-34.954	33.042	1478.746	1260.988
-33.940	33.069	1477.929	1260.419
-32.925	32.976	1476.196	1258.271
-31.911	33.116	1474.745	1257.918
-30.896	33.040	1474.312	1256.997
-29.881	33.084	1472.338	1255.553
-28.867	32.988	1471.158	1253.861
-27.852	33.288	1468.879	1253.857
-26.838	33.134	1468.554	1252.508
-25.823	32.995	1467.476	1250.622
-24.809	32.757	1465.745	1247.523
-23.794	33.105	1463.564	1247.915
-22.779	33.122	1461.987	1246.633
-21.765	32.932	1460.991	1244.479
-20.750	32.851	1459.831	1242.907
-19.736	32.777	1459.830	1242.373
-18.721	32.899	1459.026	1242.443
-17.706	32.904	1457.523	1241.146
-16.692	32.915	1455.635	1239.561
-15.677	33.025	1454.612	1239.360
-14.663	32.863	1453.414	1237.228
-13.648	32.863	1453.129	1236.937
-12.633	33.087	1452.629	1237.931
-11.619	32.722	1452.072	1235.014
-10.604	32.788	1451.119	1234.586
-9.590	32.984	1449.856	1234.746
-8.575	32.763	1449.548	1232.987
-7.560	32.803	1448.876	1232.633
-6.546	32.876	1447.377	1231.780
-5.531	32.757	1445.657	1229.494
-4.517	32.964	1445.653	1230.793
-3.502	32.959	1444.735	1229.927
-2.487	33.144	1442.480	1229.162
-1.473	32.887	1442.179	1227.187
-0.458	33.019	1440.128	1226.248
0.556	34.142	1431.219	1215.317
1.571	30.882	1405.941	1173.254
2.586	27.155	1347.989	1102.242
3.600	25.600	1267.719	1027.637
4.615	24.019	1222.276	981.991
5.629	20.527	1165.548	917.925
6.644	11.377	1079.708	805.279
7.659	4.418	1038.022	741.003
8.673	3.149	1033.462	731.649
9.688	3.325	1030.350	730.217
10.702	2.910	1029.136	727.326
11.717	2.579	1027.515	724.550
12.731	5.992	1029.754	742.220
13.746	15.384	1042.988	796.471
14.761	22.794	1052.851	839.304
15.775	24.744	1054.111	849.508
16.790	24.746	1052.812	848.396
17.804	24.482	1053.101	847.300
18.819	24.103	1052.263	844.753
19.834	24.530	1050.564	845.339
20.848	24.271	1050.539	844.015
21.863	24.961	1048.497	845.560
22.877	24.835	1048.075	844.549
23.892	24.689	1048.829	844.396
24.907	24.412	1048.589	842.816
25.921	24.206	1048.845	841.975
26.936	24.413	1046.766	841.206
27.950	24.579	1044.482	840.078
28.965	24.419	1044.204	839.028
29.980	24.336	1043.168	837.734
30.994	24.227	1042.845	836.886
32.009	24.645	1040.777	837.113
33.023	24.586	1040.624	836.637
34.038	24.424	1040.112	835.395
35.053	24.683	1038.225	835.015
36.067	24.449	1038.048	833.707
37.082	24.458	1036.632	832.534
38.096	24.207	1037.090	831.662
39.111	24.378	1036.267	831.721
40.126	24.763	1035.645	832.944
41.140	24.629	1033.293	830.357
42.155	24.130	1032.584	827.396
43.169	23.918	1031.709	825.638
44.184	23.872	1031.405	825.108
45.199	23.909	1029.710	823.849
46.213	24.155	1028.572	824.003
47.228	24.106	1027.484	822.833
48.242	24.203	1028.332	823.891
49.257	24.572	1026.864	824.341
50.271	24.599	1025.469	823.275
51.286	24.491	1025.448	822.684
52.301	24.601	1024.902	822.682
53.315	24.595	1023.817	821.709
54.330	24.494	1023.791	821.152
55.344	24.210	1022.979	819.126
56.359	24.733	1021.385	820.175
57.374	24.436	1020.370	817.926
58.388	24.411	1019.977	817.426
59.403	24.418	1018.747	816.397
60.417	24.247	1018.772	815.564
61.432	24.115	1017.233	813.654
62.447	24.143	1017.288	813.758
63.461	24.167	1016.441	813.115
64.476	24.223	1015.816	812.802
65.490	24.290	1014.595	812.057
66.505	23.922	1014.590	810.302
67.520	24.181	1013.500	810.541
68.534	24.408	1012.479	810.681
69.549	24.092	1011.613	808.483
70.563	23.632	1011.287	806.064
71.578	23.831	1009.350	805.348
72.593	23.731	1008.775	804.367
73.607	23.267	1008.385	801.883
74.622	23.580	1006.624	801.829
75.636	23.897	1005.297	802.130
76.651	24.122	1004.789	802.668
77.666	24.019	1004.243	801.695
78.680	23.650	1004.655	800.293
79.695	23.958	1003.693	800.841
80.709	23.873	1003.300	800.071
81.724	24.001	1002.421	799.878
82.739	24.161	1001.728	799.971
83.753	23.826	1000.724	797.596
84.768	24.353	999.954	799.275
85.782	24.576	1000.098	800.316
86.797	25.084	998.038	800.868
87.812	24.967	998.256	800.450
88.826	24.949	997.176	799.433
89.841	24.495	997.602	797.675
90.855	24.744	996.108	797.523
91.870	24.571	995.879	796.497
92.884	24.972	994.880	797.412
93.899	24.675	993.895	795.232
94.914	24.541	993.342	794.123
95.928	24.638	992.323	793.669
96.943	24.864	991.333	793.808
97.957	24.506	990.456	791.450
98.972	24.550	989.641	790.923
99.987	24.374	988.985	789.552
101.001	24.626	987.513	789.419
102.016	24.699	986.858	789.149
103.030	24.277	986.999	787.328
104.045	24.306	986.073	786.647
105.060	24.625	984.362	786.616
106.074	24.417	983.937	785.294
107.089	24.177	983.150	783.538
108.103	24.583	981.721	784.112
109.118	24.594	980.896	783.435
110.133	24.264	980.242	781.396
111.147	23.950	979.916	779.690
112.162	23.994	978.009	778.296
113.176	23.870	977.482	777.266
114.191	23.883	976.396	776.392
115.206	24.213	975.960	777.418
116.220	24.638	973.733	777.420
117.235	23.803	973.674	773.672
118.249	23.807	973.736	773.672
119.264	23.798	972.282	772.406
120.279	23.888	971.278	771.935
121.293	23.892	969.730	770.652
122.308	23.669	969.609	769.522
123.322	23.950	969.075	770.245
124.337	23.783	967.604	768.285
125.352	23.692	966.517	766.962
126.366	23.136	966.510	764.488
127.381	23.592	964.452	764.757
128.395	23.345	964.876	763.959
129.410	24.347	963.525	767.134
130.424	24.053	963.373	765.684
131.439	24.090	963.177	765.618
132.454	24.517	961.520	766.068
133.468	24.337	960.818	764.668
134.483	24.169	960.232	763.413
135.497	24.321	959.635	763.520
136.512	24.552	957.890	763.052
137.527	24.448	957.664	762.362
138.541	24.445	957.326	762.013
139.556	24.700	956.241	762.169
140.570	24.384	955.409	760.090
141.585	24.217	956.273	759.999
142.600	24.793	953.937	760.523
143.614	24.626	953.602	759.482
144.629	24.726	952.786	759.189
145.643	24.955	952.028	759.488
146.658	24.850	950.503	757.760
147.673	24.694	949.319	756.089
148.687	24.105	949.378	753.578
149.702	24.276	948.578	753.600
150.716	24.410	946.710	752.614
151.731	24.287	946.412	751.791
152.746	24.373	945.033	750.992
153.760	24.802	944.262	752.118
154.775	24.703	943.329	750.890
155.789	24.489	943.679	750.202
156.804	24.660	942.772	750.133
157.819	24.313	942.139	748.108
158.833	24.431	941.060	747.683
159.848	24.964	940.089	749.072
160.862	24.966	939.492	748.537
161.877	24.806	938.690	747.164
162.892	24.243	937.365	743.698
163.906	24.582	936.632	744.463
164.921	24.578	936.296	744.112
165.935	24.424	934.800	742.216
166.950	24.577	933.255	741.562
167.964	24.499	933.409	741.295
168.979	24.583	932.750	741.051
169.994	24.400	931.473	739.212
171.008	24.625	929.762	738.723
172.023	24.631	929.618	738.566
173.037	24.406	929.178	737.222
174.052	24.940	928.390	738.735
175.067	24.916	926.608	737.152
176.081	24.473	925.966	734.753
177.096	24.471	924.637	733.626
178.110	24.457	923.966	732.971
179.125	24.343	922.797	731.512
180.140	24.192	921.871	730.096
181.154	24.329	920.922	729.838
182.169	24.175	920.825	729.066
183.183	24.646	921.160	731.196
184.198	25.016	920.533	732.147
185.213	24.736	919.316	729.968
186.227	24.852	919.340	730.398
187.242	24.523	918.907	728.646
188.256	24.572	918.450	728.420
189.271	24.980	917.187	729.013
190.286	24.739	917.019	727.838
191.300	24.619	916.755	727.072
192.315	24.204	915.350	724.209
193.329	23.602	913.599	720.318
194.344	23.385	912.769	718.720
195.359	24.147	912.599	721.611
196.373	25.003	912.190	724.686
197.388	25.163	912.047	725.157
198.402	24.808	911.722	723.399
199.417	25.268	911.107	724.704
200.432	25.120	910.954	723.921
201.446	25.049	910.118	722.906
202.461	24.855	910.177	722.105
203.475	25.095	909.752	722.673
204.490	25.017	908.398	721.219
205.504	24.069	907.223	716.409
206.519	24.403	907.220	717.690
207.534	24.548	907.669	718.562
208.548	24.871	905.132	717.788
209.563	24.919	904.605	717.497
210.577	24.811	905.029	717.336
211.592	24.685	903.104	715.245
212.607	25.338	902.942	717.665
213.621	25.269	902.434	716.923
214.636	24.749	903.302	715.465
215.650	25.063	901.693	715.384
216.665	25.201	900.988	715.312
217.680	24.807	901.394	713.997
218.694	25.220	900.016	714.487
219.709	25.349	899.220	714.307
220.723	24.843	899.125	712.153
221.738	24.713	898.328	710.942
222.753	24.357	897.869	709.102
223.767	25.036	896.641	710.765
224.782	24.949	895.544	709.486
225.796	25.257	895.322	710.470
226.811	25.044	894.846	709.184
227.826	24.840	894.382	707.945
228.840	24.580	893.068	705.819
229.855	24.402	892.789	704.832
230.869	24.704	892.517	705.746
231.884	24.358	892.089	703.981
232.899	24.404	890.606	702.929
233.913	24.739	890.513	704.111
234.928	24.912	890.036	704.353
235.942	24.817	888.908	703.026
236.957	24.598	887.061	700.646
237.972	24.370	887.111	699.728
238.986	24.285	886.608	698.936
240.001	24.459	886.314	699.323
241.015	24.448	886.154	699.092
242.030	24.237	885.144	697.408
243.045	24.668	884.571	698.578
244.059	24.545	883.944	697.542
245.074	24.791	883.644	698.203
246.088	24.809	883.332	697.968
247.103	24.477	882.972	696.326
248.117	24.907	882.859	697.852
249.132	25.373	881.370	698.427
250.147	25.748	881.738	700.114
251.161	25.887	881.135	700.114
252.176	25.621	880.823	698.771
253.190	25.797	880.330	698.999
254.205	25.642	880.119	698.169
255.220	26.041	879.172	698.902
256.234	25.445	879.117	696.489
257.249	25.507	877.837	695.650
258.263	25.563	877.125	695.243
259.278	25.230	877.219	693.967
260.293	25.750	876.419	695.283
261.307	25.508	876.217	694.126
262.322	25.549	874.522	692.880
263.336	25.425	875.183	692.863
264.351	25.891	874.456	694.020
265.366	25.277	872.692	690.200
266.380	24.944	871.835	688.184
267.395	25.412	872.215	690.218
268.409	25.783	870.430	690.169
269.424	25.300	871.546	689.139
270.439	25.571	870.213	689.061
271.453	25.624	869.599	688.716
272.468	25.257	869.213	686.948
273.482	25.367	867.591	686.025
274.497	25.341	867.769	686.006
275.512	25.875	866.419	686.914
276.526	25.409	865.534	684.375
277.541	24.962	866.670	683.509
278.555	25.743	865.278	685.322
279.570	25.813	864.989	685.302
280.585	25.760	863.807	684.103
281.599	25.830	862.951	683.629
282.614	25.702	862.808	682.971
283.628	25.459	862.037	681.379
284.643	25.271	861.319	680.037
285.657	25.150	861.044	679.302
286.672	25.096	861.008	679.009
287.687	25.199	859.758	678.353
288.701	25.495	858.475	678.398
289.716	25.348	859.326	678.454
290.730	25.211	858.536	677.254
291.745	25.641	857.572	678.056
292.760	25.466	857.478	677.259
293.774	25.309	857.113	676.323
294.789	25.664	856.749	677.312
295.803	25.912	855.533	677.222
296.818	25.767	855.620	676.685
297.833	25.697	854.659	675.603
298.847	25.404	854.577	674.377
299.862	25.296	853.082	672.733
300.876	25.556	852.850	673.467
301.891	25.837	852.425	674.122
302.906	25.776	852.272	673.711
303.920	26.275	849.906	673.646
304.935	25.874	850.604	672.641
305.949	26.136	850.598	673.554
306.964	26.117	849.056	672.204
307.979	25.990	848.094	670.910
308.993	25.802	847.936	670.028
310.008	25.633	847.365	668.887
311.022	26.153	846.479	670.060
312.037	25.699	847.056	668.770
313.052	26.017	846.183	669.204
314.066	25.832	845.553	667.960
315.081	25.306	844.410	665.049
316.095	25.015	843.971	663.565
317.110	25.369	843.827	664.707
318.125	25.440	843.676	664.791
319.139	25.322	842.826	663.625
320.154	24.620	841.976	660.304
321.168	24.558	841.229	659.430
322.183	25.293	840.419	661.447
323.197	25.170	841.310	661.637
324.212	25.239	839.957	660.768
325.227	25.257	840.247	661.003
326.241	25.081	839.031	659.341
327.256	25.020	839.015	659.047
328.270	24.961	838.441	658.319
329.285	25.111	836.581	657.350
330.300	25.100	835.442	656.358
331.314	24.717	835.447	654.902
332.329	25.066	834.900	655.692
333.343	25.471	834.631	656.903
334.358	25.677	833.340	656.580
335.373	25.791	833.702	657.223
336.387	25.848	833.594	657.289
337.402	25.867	832.848	656.711
338.416	25.560	832.589	655.332
339.431	25.898	832.177	656.180
340.446	26.523	831.338	657.731
341.460	26.542	831.211	657.643
342.475	26.289	830.578	656.164
343.489	26.170	830.630	655.715
344.504	26.135	830.596	655.502
345.519	26.526	829.566	656.051
346.533	26.850	827.861	655.814
347.548	26.345	828.458	654.402
348.562	26.517	827.890	654.518
349.577	25.951	827.706	652.268
350.592	26.399	826.549	652.915
351.606	25.858	825.993	650.466
352.621	25.966	825.395	650.327
353.635	25.853	825.455	649.910
354.650	26.092	824.279	649.786
355.665	26.100	823.392	649.060
356.679	25.614	822.499	646.553
357.694	25.830	822.187	647.026
358.708	25.836	823.097	647.706
359.723	26.178	821.722	647.794
360.738	25.907	821.366	646.482
361.752	25.754	820.219	644.976
362.767	25.672	820.074	644.512
363.781	25.898	820.473	645.577
364.796	26.024	820.317	645.848
365.810	26.244	820.131	646.431
366.825	26.512	818.930	646.385
367.840	26.508	818.692	646.125
368.854	26.249	818.593	645.067
369.869	26.079	818.301	644.172
370.883	25.738	817.353	642.154
371.898	26.155	815.732	642.306
372.913	25.886	816.001	641.504
373.927	26.467	815.085	642.794
374.942	26.569	813.174	641.591
375.956	26.367	813.136	640.785
376.971	26.353	813.677	641.108
377.986	26.127	813.354	639.995
379.000	26.317	812.675	640.076
380.015	26.697	811.964	640.804
381.029	26.536	811.294	639.649
382.044	26.455	810.854	638.960
383.059	26.717	809.808	639.004
384.073	26.895	809.642	639.444
385.088	26.487	808.648	637.166
386.102	26.274	808.490	636.234
387.117	26.007	807.600	634.538
388.132	26.066	806.525	633.846
389.146	26.110	806.013	633.542
390.161	25.811	805.941	632.379
391.175	26.418	805.995	634.497
392.190	26.562	805.886	634.858
393.205	26.524	805.535	634.392
394.219	26.296	804.260	632.535
395.234	25.403	802.887	628.275
396.248	25.012	802.319	626.409
397.263	24.998	802.147	626.171
398.278	26.068	802.337	630.003
399.292	25.132	802.945	627.151
400.307	25.368	801.498	626.790
401.321	25.668	800.573	627.057
402.336	25.396	800.325	625.861
403.350	25.680	800.742	627.119
404.365	26.373	800.744	629.481
405.380	26.680	799.685	629.658
406.394	26.649	799.754	629.551
407.409	26.808	799.305	629.692
408.423	27.046	798.508	629.837
409.438	26.900	797.849	628.753
410.453	26.829	797.484	628.163
411.467	26.657	798.053	627.962
412.482	26.582	796.727	626.602
413.496	26.696	795.778	626.194
414.511	26.725	795.713	626.189
415.526	26.510	794.518	624.452
416.540	26.750	794.808	625.451
417.555	26.966	794.161	625.633
418.569	26.881	794.144	625.270
419.584	26.351	793.836	623.144
420.599	26.890	793.031	624.315
421.613	160.202	1369.746	1793.377
422.628	138.818	1453.782	1793.407
