DTS Sentinel unit serial number:	SN413079Multiplexer serial number:	ORYXHardware model number:	OX4-SRSoftware version number:	ORYX F/W v4.00 Oryx Data Collector v3.7.2.0data status	okinstallation	princeton_trtdifferential loss correction	single-endedforward channel	channel 3reverse channel	N/Adate	2019/09/12time	22:52:35forward acquisition time	60.00reverse acquisition time	0.00gamma	496.2192k internal	0.2327k external	0.2327temperature offset calibration	1.0130default loss term (dB/km)	0.3790temperature slope calibration	1.0000multiplexer offset coefficient	1.0000multiplexer slope coefficient	1.0000fibre end	0.00T internal ref (°C)	29.42T ext. ref 1 (°C)	3.73T ext. ref 2 (°C)	23.96length (m)	temperature (°C)	Stokes	anti-Stokes-747.200	224.843	0.231	0.377
-746.185	214.850	0.061	0.097
-745.171	-164.853	-0.278	0.013
-744.156	-93.571	0.151	-0.042
-743.142	572.364	0.031	0.075
-742.127	800.000	-0.086	0.306
-741.112	-44.883	-0.115	-0.058
-740.098	-183.870	-0.181	0.003
-739.083	-200.000	0.004	0.229
-738.069	179.436	-0.209	-0.308
-737.054	137.638	0.157	0.207
-736.039	-119.537	-0.118	-0.021
-735.025	-200.000	0.032	0.370
-734.010	-200.000	-0.024	-0.187
-732.996	-142.912	-0.339	-0.033
-731.981	-51.688	0.259	-0.122
-730.966	735.653	-0.107	0.289
-729.952	-109.833	-0.274	0.058
-728.937	150.367	-0.055	-0.075
-727.923	-93.804	0.110	0.031
-726.908	-101.094	-0.241	-0.059
-725.894	-200.000	-0.036	0.273
-724.879	-200.000	-0.006	0.120
-723.864	-200.000	0.069	-0.484
-722.850	654.130	-0.047	-0.121
-721.835	-39.005	-0.076	-0.041
-720.821	800.000	-0.023	0.078
-719.806	272.388	0.163	0.290
-718.791	-200.000	-0.357	-0.000
-717.777	16.894	-0.272	0.217
-716.762	-200.000	-0.026	-0.205
-715.748	-200.000	-0.010	0.153
-714.733	-99.512	-0.449	-0.114
-713.718	332.654	0.093	-0.182
-712.704	-102.831	-0.115	0.028
-711.689	-156.562	-0.410	0.026
-710.675	-200.000	-0.021	0.304
-709.660	-139.996	0.285	-0.030
-708.645	-14.042	0.210	-0.137
-707.631	381.878	-0.044	-0.092
-706.616	-200.000	0.017	0.120
-705.602	-28.161	0.014	-0.008
-704.587	-139.298	0.370	-0.040
-703.572	-200.000	0.010	0.231
-702.558	-200.000	-0.023	0.115
-701.543	-31.982	0.046	-0.026
-700.529	-141.984	0.040	-0.004
-699.514	-200.000	0.015	-0.268
-698.499	197.561	-0.118	0.182
-697.485	-200.000	0.036	-0.163
-696.470	-200.000	-0.022	0.187
-695.456	71.252	-0.028	0.029
-694.441	-24.597	-0.081	-0.048
-693.426	-200.000	0.028	-0.208
-692.412	19.508	-0.153	-0.124
-691.397	210.954	0.038	-0.060
-690.383	150.857	0.118	0.161
-689.368	14.575	0.162	-0.127
-688.354	-200.000	-0.002	-0.087
-687.339	566.788	-0.019	0.046
-686.324	-200.000	0.012	-0.243
-685.310	-200.000	-0.014	0.162
-684.295	167.216	0.115	-0.165
-683.281	484.604	0.031	0.070
-682.266	263.627	-0.060	-0.105
-681.251	-43.019	0.177	0.090
-680.237	18.688	-0.036	0.029
-679.222	63.862	-0.377	-0.381
-678.208	130.348	0.150	-0.194
-677.193	-40.847	-0.139	-0.072
-676.178	-69.133	-0.115	-0.045
-675.164	85.535	-0.075	-0.083
-674.149	745.017	0.041	0.110
-673.135	-200.000	-0.011	-0.090
-672.120	-166.030	-0.253	-0.011
-671.105	-90.533	-0.376	0.109
-670.091	73.280	-0.310	-0.326
-669.076	-200.000	-0.006	0.242
-668.062	-29.172	-0.186	0.107
-667.047	800.000	0.049	-0.152
-666.032	27.327	-0.113	0.095
-665.018	-69.993	-0.314	0.120
-664.003	-7.045	0.147	0.100
-662.989	-155.012	0.205	-0.014
-661.974	800.000	-0.134	-0.408
-660.959	-24.770	0.131	0.078
-659.945	18.394	-0.157	-0.126
-658.930	98.579	-0.091	-0.106
-657.916	73.927	0.104	0.109
-656.901	605.920	0.022	0.055
-655.886	-124.936	-0.137	0.021
-654.872	-84.350	-0.328	0.104
-653.857	121.937	-0.246	0.308
-652.843	-40.198	0.268	0.140
-651.828	25.368	0.149	-0.124
-650.814	270.934	0.094	-0.167
-649.799	-200.000	0.013	-0.093
-648.784	800.000	-0.106	-0.436
-647.770	-200.000	-0.006	-0.255
-646.755	39.480	0.135	-0.121
-645.741	-32.063	-0.234	0.131
-644.726	-200.000	0.009	0.103
-643.711	-200.000	-0.031	-0.306
-642.697	-9.738	-0.114	-0.076
-641.682	-28.747	-0.269	-0.155
-640.668	-42.709	0.194	0.099
-639.653	-200.000	-0.000	-0.132
-638.638	37.691	0.309	-0.275
-637.624	226.191	0.052	0.085
-636.609	-19.379	-0.282	-0.175
-635.595	-200.000	0.018	-0.170
-634.580	-200.000	0.018	0.285
-633.565	13.042	0.429	-0.333
-632.551	163.198	-0.371	-0.524
-631.536	-200.000	0.018	-0.245
-630.522	262.131	-0.084	0.146
-629.507	-22.427	-0.169	0.103
-628.492	368.298	0.129	0.261
-627.478	0.326	-0.213	0.152
-626.463	-51.506	0.224	-0.105
-625.449	14.434	0.012	-0.009
-624.434	-22.381	-0.247	0.150
-623.419	-98.876	0.224	0.057
-622.405	193.114	-0.036	-0.055
-621.390	-73.047	0.233	-0.086
-620.376	-101.746	0.259	0.063
-619.361	-84.991	-0.437	0.138
-618.346	-200.000	-0.151	0.000
-617.332	-112.857	-0.303	-0.060
-616.317	800.000	-0.065	0.277
-615.303	8.897	-0.100	0.076
-614.288	-111.516	-0.266	-0.054
-613.273	-161.128	-0.544	-0.029
-612.259	37.455	-0.156	0.139
-611.244	-69.392	-0.110	-0.042
-610.230	-94.574	-0.127	0.035
-609.215	-48.427	0.064	-0.031
-608.201	49.105	0.232	0.219
-607.186	800.000	0.085	-0.290
-606.171	800.000	-0.019	-0.066
-605.157	-200.000	-0.087	0.445
-604.142	-156.341	-0.083	-0.005
-603.128	-80.734	-0.178	0.059
-602.113	-200.000	-0.009	0.169
-601.098	-200.000	-0.002	-0.124
-600.084	674.681	0.100	-0.259
-599.069	800.000	-0.035	0.111
-598.055	127.804	0.200	0.255
-597.040	-92.538	-0.284	0.080
-596.025	-200.000	-0.216	-0.000
-595.011	-50.268	-0.396	-0.188
-593.996	141.867	-0.080	-0.107
-592.982	3.051	0.119	-0.087
-591.967	800.000	-0.061	0.204
-590.952	-129.451	-0.406	0.056
-589.938	-66.412	-0.167	0.066
-588.923	-57.169	-0.109	0.048
-587.909	-74.069	-0.356	0.129
-586.894	-79.873	-0.275	0.093
-585.879	-200.000	0.032	-0.150
-584.865	88.079	-0.096	0.107
-583.850	129.860	0.172	-0.221
-582.836	-114.010	-0.279	-0.054
-581.821	105.944	-0.104	0.123
-580.806	191.582	0.162	0.244
-579.792	-200.000	-0.030	0.208
-578.777	173.144	0.187	-0.269
-577.763	-200.000	-0.284	0.001
-576.748	494.104	-0.075	-0.172
-575.733	85.060	0.125	-0.137
-574.719	-48.839	0.190	0.091
-573.704	124.668	0.159	-0.200
-572.690	33.041	0.332	-0.288
-571.675	170.187	-0.149	0.214
-570.661	-123.698	0.324	0.051
-569.646	-109.070	-0.275	0.059
-568.631	219.676	-0.037	-0.060
-567.617	-54.933	-0.192	0.087
-566.602	-96.015	0.256	0.068
-565.588	-200.000	-0.067	-0.409
-564.573	-200.000	0.026	-0.139
-563.558	36.425	0.081	0.071
-562.544	-25.248	0.109	0.065
-561.529	69.157	-0.182	-0.188
-560.515	-119.252	0.095	-0.017
-559.500	-101.336	0.092	0.023
-558.485	800.000	-0.029	0.104
-557.471	22.133	-0.152	-0.124
-556.456	116.865	-0.113	-0.138
-555.442	26.113	0.159	-0.132
-554.427	800.000	0.048	-0.177
-553.412	-90.042	-0.281	0.082
-552.398	-32.113	0.287	0.161
-551.383	-200.000	-0.001	-0.125
-550.369	-200.000	-0.036	-0.238
-549.354	-99.319	0.225	-0.057
-548.339	708.548	-0.094	-0.248
-547.325	480.824	0.086	-0.195
-546.310	800.000	-0.060	-0.219
-545.296	-71.974	-0.302	-0.112
-544.281	32.491	0.050	0.043
-543.266	-85.701	-0.190	-0.059
-542.252	-56.256	0.151	0.067
-541.237	274.168	-0.035	0.062
-540.223	219.149	-0.129	-0.207
-539.208	-150.111	0.327	-0.025
-538.193	-91.251	-0.101	0.029
-537.179	-91.308	0.014	0.004
-536.164	556.974	0.076	-0.183
-535.150	-21.616	-0.172	-0.105
-534.135	-200.000	0.038	0.243
-533.121	-83.419	0.244	-0.078
-532.106	346.003	0.092	0.181
-531.091	800.000	0.053	-0.163
-530.077	37.302	0.417	-0.369
-529.062	-52.716	0.244	-0.113
-528.048	19.482	0.129	0.103
-527.033	-140.244	0.382	0.040
-526.018	800.000	-0.102	-0.379
-525.004	-200.000	-0.041	0.220
-523.989	-13.845	-0.351	0.227
-522.975	-177.265	0.148	0.004
-521.960	-132.328	-0.107	-0.014
-520.945	198.647	0.176	0.269
-519.931	-106.578	-0.151	0.034
-518.916	-200.000	0.058	0.363
-517.902	-33.573	0.234	-0.129
-516.887	-2.164	-0.156	-0.109
-515.872	800.000	-0.156	-0.537
-514.858	-37.828	0.333	0.177
-513.843	29.090	-0.207	-0.175
-512.829	8.223	0.046	0.035
-511.814	220.624	-0.207	-0.331
-510.799	354.494	0.093	0.184
-509.785	27.261	0.087	0.073
-508.770	-123.829	0.276	0.044
-507.756	-69.970	0.130	-0.050
-506.741	-200.000	0.025	-0.120
-505.726	111.828	-0.153	0.185
-504.712	507.276	0.103	0.239
-503.697	636.336	0.149	-0.378
-502.683	-33.280	-0.154	0.085
-501.668	469.069	0.136	0.306
-500.653	-200.000	0.052	-0.241
-499.639	92.296	0.078	-0.088
-498.624	-80.011	0.063	-0.021
-497.610	61.703	0.131	0.130
-496.595	57.269	0.120	0.117
-495.581	55.913	0.098	-0.095
-494.566	242.843	0.180	-0.301
-493.551	-4.145	0.226	-0.156
-492.537	32.628	-0.058	0.050
-491.522	-123.149	0.328	0.052
-490.508	-149.964	-0.220	0.017
-489.493	-200.000	-0.013	-0.139
-488.478	800.000	0.107	-0.374
-487.464	-41.487	0.045	-0.023
-486.449	22.901	0.195	0.159
-485.435	800.000	-0.031	-0.122
-484.420	116.057	-0.096	0.118
-483.405	-139.782	-0.091	-0.010
-482.391	51.873	-0.259	0.246
-481.376	800.000	0.021	0.075
-480.362	134.615	0.162	0.209
-479.347	69.367	0.045	-0.046
-478.332	112.074	-0.153	-0.184
-477.318	800.000	0.075	0.230
-476.303	-106.426	0.196	-0.044
-475.289	456.019	0.071	0.156
-474.274	145.350	-0.045	-0.061
-473.259	-200.000	-0.016	0.184
-472.245	252.527	-0.147	0.249
-471.230	-200.000	0.010	-0.286
-470.216	-200.000	0.046	0.269
-469.201	169.278	0.311	0.442
-468.186	101.865	0.266	0.309
-467.172	159.167	0.150	-0.208
-466.157	-43.082	-0.082	0.041
-465.143	-200.000	0.032	-0.169
-464.128	248.691	-0.155	0.261
-463.113	191.905	0.149	-0.224
-462.099	25.411	-0.217	0.180
-461.084	-39.618	0.086	-0.045
-460.070	800.000	0.029	-0.106
-459.055	66.831	0.186	0.189
-458.040	-53.303	0.197	-0.090
-457.026	-192.082	-0.121	0.001
-456.011	-96.773	0.223	-0.058
-454.997	777.684	-0.034	-0.092
-453.982	-196.648	-0.117	-0.001
-452.968	57.942	0.182	-0.178
-451.953	-200.000	-0.008	0.239
-450.938	-200.000	-0.025	0.375
-449.924	130.139	0.112	-0.143
-448.909	-200.000	-0.002	0.115
-447.895	-94.127	-0.184	0.050
-446.880	-200.000	-0.034	-0.149
-445.865	-200.000	-0.013	0.101
-444.851	29.888	-0.169	0.143
-443.836	3.924	-0.106	-0.077
-442.822	-69.681	-0.526	-0.201
-441.807	54.690	-0.156	-0.150
-440.792	523.407	0.059	0.138
-439.778	87.224	-0.077	-0.085
-438.763	-159.176	-0.110	0.006
-437.749	-200.000	-0.039	0.278
-436.734	800.000	-0.084	-0.263
-435.719	104.945	0.068	0.080
-434.705	213.837	-0.082	0.129
-433.690	-101.399	-0.196	-0.047
-432.676	-200.000	-0.011	-0.057
-431.661	-200.000	-0.043	-0.237
-430.646	119.893	-0.117	0.144
-429.632	-100.275	0.224	0.055
-428.617	-133.653	-0.165	-0.020
-427.603	-200.000	0.005	0.025
-426.588	800.000	0.112	-0.342
-425.573	-130.757	-0.082	0.011
-424.559	-7.810	-0.096	0.064
-423.544	-104.478	-0.453	0.104
-422.530	62.869	-0.077	0.077
-421.515	-93.047	0.366	-0.102
-420.500	800.000	0.078	0.253
-419.486	133.113	-0.091	0.117
-418.471	-8.447	0.153	-0.102
-417.457	-91.113	0.394	0.112
-416.442	-200.000	0.045	-0.252
-415.428	-60.448	-0.155	-0.066
-414.413	-147.356	0.225	0.019
-413.398	-36.157	-0.177	-0.095
-412.384	-200.000	0.000	-0.003
-411.369	-200.000	-0.019	0.209
-410.355	-52.444	0.318	0.146
-409.340	-38.455	0.161	-0.085
-408.325	788.837	-0.088	0.241
-407.311	9.981	0.178	0.135
-406.296	800.000	-0.042	0.135
-405.282	-200.000	0.028	-0.125
-404.267	-184.106	0.118	-0.002
-403.252	271.494	0.190	0.333
-402.238	-200.000	-0.016	0.074
-401.223	-200.000	0.005	-0.058
-400.209	-200.000	0.024	-0.146
-399.194	196.312	0.161	-0.244
-398.179	-71.578	-0.171	0.064
-397.165	-200.000	-0.042	-0.216
-396.150	-179.529	0.179	-0.004
-395.136	-200.000	-0.008	-0.101
-394.121	67.657	-0.215	0.218
-393.106	677.693	0.078	0.202
-392.092	-125.586	0.167	0.025
-391.077	800.000	-0.161	0.525
-390.063	-106.747	0.507	-0.112
-389.048	-36.658	-0.043	0.023
-388.033	87.261	-0.152	0.167
-387.019	150.985	-0.122	-0.165
-386.004	43.392	-0.173	0.157
-384.990	46.804	0.171	-0.158
-383.975	-83.430	-0.198	0.063
-382.960	-96.210	-0.504	-0.133
-381.946	127.423	0.202	-0.255
-380.931	-89.690	0.621	0.181
-379.917	198.061	-0.144	0.219
-378.902	104.554	-0.258	-0.302
-377.888	19.906	-0.328	0.262
-376.873	-28.074	0.323	-0.186
-375.858	-161.856	0.380	-0.019
-374.844	26.651	-0.206	-0.171
-373.829	346.731	0.040	-0.078
-372.815	-35.819	0.221	-0.119
-371.800	-116.734	0.127	0.023
-370.785	-82.955	0.070	0.022
-369.771	-156.508	-0.063	-0.004
-368.756	159.785	0.205	0.284
-367.742	329.153	0.023	-0.044
-366.727	-200.000	-0.013	-0.354
-365.712	125.460	-0.042	-0.052
-364.698	-59.598	-0.143	-0.061
-363.683	-152.216	-0.093	-0.007
-362.669	-177.597	-0.471	0.011
-361.654	222.525	0.039	-0.062
-360.639	-155.211	0.129	-0.008
-359.625	-22.813	-0.270	-0.162
-358.610	156.746	0.156	0.214
-357.596	-200.000	-0.025	0.265
-356.581	-200.000	-0.033	0.443
-355.566	-200.000	0.081	0.395
-354.552	-164.181	0.456	0.021
-353.537	-32.163	0.242	0.134
-352.523	-84.926	-0.149	-0.046
-351.508	800.000	0.043	-0.143
-350.493	-122.867	-0.328	-0.053
-349.479	-22.570	-0.145	-0.087
-348.464	-36.512	-0.323	-0.173
-347.450	210.380	-0.082	-0.128
-346.435	-107.068	-0.230	-0.050
-345.420	36.026	0.207	0.181
-344.406	-145.198	-0.096	-0.009
-343.391	104.201	-0.144	0.169
-342.377	228.400	0.097	-0.156
-341.362	150.007	-0.107	0.144
-340.348	504.403	0.054	0.125
-339.333	-200.000	0.053	0.269
-338.318	203.225	0.041	-0.063
-337.304	-13.797	0.290	0.186
-336.289	119.010	-0.295	0.362
-335.275	16.924	0.181	-0.142
-334.260	-68.249	-0.177	-0.068
-333.245	-61.786	-0.181	0.075
-332.231	-91.752	0.368	-0.104
-331.216	-105.614	-0.110	-0.025
-330.202	-200.000	-0.014	-0.130
-329.187	-33.355	0.220	-0.120
-328.172	500.348	0.069	0.158
-327.158	38.932	-0.275	0.243
-326.143	-81.246	0.358	0.117
-325.129	-109.824	-0.261	0.054
-324.114	172.983	0.033	0.048
-323.099	800.000	-0.059	-0.171
-322.085	-200.000	0.069	-0.360
-321.070	-63.895	0.105	-0.043
-320.056	-53.981	0.113	-0.051
-319.041	191.880	0.197	0.295
-318.026	91.959	-0.084	-0.094
-317.012	323.598	-0.138	-0.261
-315.997	-76.501	-0.006	0.002
-314.983	238.598	0.077	0.126
-313.968	41.246	-0.143	-0.128
-312.953	392.242	-0.087	0.178
-311.939	229.045	-0.068	-0.110
-310.924	566.135	-0.021	-0.052
-309.910	800.000	-0.043	-0.184
-308.895	-141.500	0.073	-0.007
-307.880	-52.163	-0.127	0.058
-306.866	-29.378	-0.272	-0.154
-305.851	-38.744	-0.114	-0.060
-304.837	35.684	-0.167	-0.145
-303.822	181.421	-0.234	0.341
-302.807	800.000	-0.042	0.150
-301.793	-114.443	-0.094	-0.018
-300.778	296.605	0.092	0.167
-299.764	-60.632	-0.195	-0.082
-298.749	190.165	-0.076	-0.114
-297.735	800.000	0.079	-0.231
-296.720	-200.000	0.007	-0.178
-295.705	179.528	0.162	-0.235
-294.691	235.080	0.199	0.325
-293.676	14.285	0.166	0.129
-292.662	256.713	0.057	0.097
-291.647	109.010	-0.085	-0.101
-290.632	-200.000	-0.002	0.389
-289.618	-200.000	0.012	-0.171
-288.603	-7.889	-0.303	0.203
-287.589	116.403	-0.100	-0.121
-286.574	-81.784	0.161	0.052
-285.559	231.562	0.026	-0.042
-284.545	448.826	-0.151	-0.330
-283.530	-200.000	0.049	-0.316
-282.516	-71.223	-0.214	-0.080
-281.501	102.276	0.050	-0.058
-280.486	49.161	0.275	0.256
-279.472	-200.000	0.009	0.334
-278.457	800.000	0.079	-0.261
-277.443	-200.000	0.052	-0.312
-276.428	-27.955	0.134	-0.077
-275.413	6.689	-0.117	0.086
-274.399	-200.000	-0.006	0.164
-273.384	46.503	0.347	-0.318
-272.370	-144.688	0.254	0.023
-271.355	-40.678	0.115	-0.059
-270.340	-39.062	-0.115	0.060
-269.326	-200.000	0.064	0.296
-268.311	130.422	-0.123	-0.155
-267.297	-46.027	-0.133	-0.065
-266.282	-200.000	0.040	0.304
-265.267	-162.791	0.122	0.006
-264.253	92.418	0.233	-0.259
-263.238	800.000	0.117	0.427
-262.224	800.000	-0.070	0.238
-261.209	-136.597	0.057	-0.007
-260.195	-140.784	0.130	-0.013
-259.180	338.259	-0.198	0.381
-258.165	-200.000	0.063	0.393
-257.151	800.000	0.146	0.515
-256.136	-18.460	0.334	-0.206
-255.122	131.128	-0.153	-0.194
-254.107	-98.240	0.341	0.087
-253.092	-200.000	0.093	-0.436
-252.078	-118.891	0.140	0.024
-251.063	-16.188	-0.192	-0.120
-250.049	364.742	-0.097	-0.192
-249.034	21.913	0.088	0.071
-248.019	9.425	0.119	-0.089
-247.005	-200.000	0.009	0.086
-245.990	-135.423	-0.118	0.014
-244.976	800.000	0.037	-0.112
-243.961	360.193	-0.130	0.258
-242.946	247.720	-0.043	-0.071
-241.932	705.997	0.039	0.101
-240.917	-62.024	0.139	-0.057
-239.903	-162.312	-0.199	-0.010
-238.888	81.117	0.045	0.048
-237.873	221.719	-0.023	-0.036
-236.859	49.737	-0.160	-0.149
-235.844	508.032	0.025	-0.057
-234.830	-24.254	-0.151	0.089
-233.815	482.174	-0.137	0.308
-232.800	296.715	-0.085	0.154
-231.786	471.557	-0.086	-0.191
-230.771	-102.776	0.242	-0.057
-229.757	-162.941	0.022	-0.001
-228.742	758.110	0.063	0.170
-227.727	800.000	0.005	0.018
-226.713	-57.235	-0.242	-0.105
-225.698	-59.868	-0.327	0.138
-224.684	756.062	0.062	0.165
-223.669	19.507	0.130	-0.103
-222.655	-75.005	-0.200	-0.071
-221.640	48.752	0.132	0.122
-220.625	233.996	-0.161	0.261
-219.611	-132.320	-0.041	-0.005
-218.596	28.779	0.056	-0.046
-217.582	417.190	0.053	0.111
-216.567	800.000	0.021	-0.061
-215.552	95.415	-0.142	-0.160
-214.538	285.388	0.081	-0.144
-213.523	800.000	-0.066	-0.280
-212.509	179.654	0.219	-0.317
-211.494	-200.000	-0.008	0.128
-210.479	-200.000	0.021	0.090
-209.465	79.058	0.153	-0.162
-208.450	674.657	0.061	0.155
-207.436	-94.473	-0.401	0.108
-206.421	73.519	0.034	-0.035
-205.406	-200.000	-0.007	0.056
-204.392	337.606	-0.072	0.138
-203.377	-8.108	-0.186	0.124
-202.363	-200.000	0.020	-0.133
-201.348	-200.000	-0.035	0.244
-200.333	293.748	-0.086	0.155
-199.319	-60.170	0.035	-0.015
-198.304	-151.838	0.221	0.016
-197.290	81.264	0.099	-0.105
-196.275	25.391	-0.360	0.296
-195.260	-100.807	0.052	0.013
-194.246	-42.613	0.096	-0.048
-193.231	-155.416	0.072	0.005
-192.217	-200.000	0.008	-0.073
-191.202	-109.053	-0.027	-0.006
-190.187	-158.769	0.195	-0.011
-189.173	648.862	-0.046	0.117
-188.158	-200.000	-0.044	-0.203
-187.144	-160.044	0.267	0.014
-186.129	-27.667	-0.253	0.145
-185.114	-135.829	0.365	0.043
-184.100	244.606	-0.079	0.131
-183.085	28.622	0.040	0.033
-182.071	216.790	-0.030	0.047
-181.056	250.162	-0.188	-0.314
-180.042	6.367	-0.195	-0.143
-179.027	-39.388	0.230	-0.119
-178.012	94.996	0.032	0.036
-176.998	-47.435	0.413	0.198
-175.983	-46.268	0.225	0.109
-174.969	93.892	-0.145	-0.163
-173.954	800.000	-0.005	0.019
-172.939	800.000	-0.055	0.198
-171.925	34.869	0.104	0.090
-170.910	10.274	-0.259	-0.195
-169.896	469.492	0.076	-0.168
-168.881	-200.000	-0.005	0.098
-167.866	-151.763	-0.042	0.003
-166.852	757.634	0.069	-0.184
-165.837	-66.503	0.095	0.037
-164.823	-200.000	0.012	-0.059
-163.808	800.000	-0.052	-0.200
-162.793	-200.000	0.028	0.187
-161.779	-83.707	0.311	0.098
-160.764	7.087	0.020	0.015
-159.750	-32.557	0.036	0.020
-158.735	800.000	-0.045	0.141
-157.720	105.696	-0.098	-0.114
-156.706	54.740	0.103	0.098
-155.691	170.761	0.114	-0.161
-154.677	81.723	-0.158	-0.168
-153.662	800.000	-0.045	-0.161
-152.647	-17.975	-0.198	0.122
-151.633	-200.000	0.021	0.210
-150.618	-4.400	0.180	-0.123
-149.604	-89.694	0.104	0.030
-148.589	800.000	-0.009	0.027
-147.574	255.909	-0.109	-0.184
-146.560	34.712	-0.274	-0.236
-145.545	183.143	0.167	-0.243
-144.531	-63.206	-0.167	0.068
-143.516	-200.000	0.018	0.417
-142.502	-98.558	0.074	0.019
-141.487	100.544	0.177	0.203
-140.472	23.711	0.094	0.076
-139.458	569.035	0.049	0.116
-138.443	-101.695	0.195	-0.047
-137.429	-96.758	-0.077	-0.020
-136.414	-80.553	-0.373	0.122
-135.399	89.815	-0.336	0.369
-134.385	-150.177	-0.042	0.003
-133.370	-200.000	0.027	-0.268
-132.356	-113.498	0.131	0.025
-131.341	-148.772	0.068	0.005
-130.326	50.318	-0.213	-0.198
-129.312	-200.000	0.017	0.422
-128.297	351.537	0.088	0.171
-127.283	-132.817	-0.235	-0.030
-126.268	35.001	0.351	-0.303
-125.253	800.000	0.049	0.138
-124.239	80.059	-0.041	0.043
-123.224	800.000	0.038	-0.131
-122.210	-88.695	-0.272	-0.080
-121.195	66.053	0.141	0.141
-120.180	184.880	0.180	0.262
-119.166	800.000	-0.098	0.409
-118.151	714.002	-0.067	0.176
-117.137	-200.000	0.020	-0.223
-116.122	-200.000	0.019	0.563
-115.107	-200.000	0.024	0.136
-114.093	61.744	0.150	-0.147
-113.078	275.719	0.076	-0.133
-112.064	250.000	-0.050	0.083
-111.049	570.076	0.080	0.192
-110.034	800.000	0.078	0.298
-109.020	302.393	-0.035	0.063
-108.005	-164.304	-0.270	-0.012
-106.991	-98.433	-0.078	-0.020
-105.976	-79.920	-0.054	-0.018
-104.962	-200.000	-0.019	0.114
-103.947	-200.000	-0.030	0.208
-102.932	-124.657	0.251	0.038
-101.918	121.929	0.078	-0.096
-100.903	800.000	0.028	0.093
-99.889	800.000	-0.052	0.215
-98.874	93.828	-0.278	-0.310
-97.859	61.955	-0.244	-0.239
-96.845	-107.861	-0.122	0.026
-95.830	73.972	-0.164	-0.170
-94.816	208.884	0.004	-0.006
-93.801	800.000	-0.082	-0.258
-92.786	104.601	-0.258	-0.298
-91.772	-200.000	0.003	-0.085
-90.757	17.751	0.040	0.031
-89.743	584.778	0.019	-0.045
-88.728	800.000	-0.071	-0.211
-87.713	-137.450	-0.243	0.027
-86.699	-200.000	0.024	0.389
-85.684	157.605	0.271	0.369
-84.670	800.000	-0.044	-0.122
-83.655	-200.000	-0.001	0.437
-82.640	198.280	0.164	-0.247
-81.626	-200.000	-0.018	-0.235
-80.611	-200.000	-0.001	0.041
-79.597	800.000	-0.104	-0.294
-78.582	-65.458	-0.131	-0.052
-77.567	37.125	0.224	-0.194
-76.553	-114.702	0.336	-0.063
-75.538	-108.667	-0.187	0.039
-74.524	800.000	0.114	0.397
-73.509	388.979	0.153	0.310
-72.494	80.879	0.330	-0.350
-71.480	-142.323	-0.072	0.007
-70.465	371.194	0.014	-0.028
-69.451	-200.000	0.046	-0.199
-68.436	34.706	0.070	-0.060
-67.422	65.253	0.349	0.346
-66.407	-8.014	0.230	-0.152
-65.392	36.249	0.186	-0.161
-64.378	76.322	-0.124	0.129
-63.363	-71.312	-0.177	-0.065
-62.349	-200.000	0.078	0.436
-61.334	70.387	-1.067	-1.083
-60.319	103.860	0.560	0.646
-59.305	487.785	-0.432	-0.967
-58.290	53.610	0.626	0.589
-57.276	800.000	0.471	1.428
-56.261	-200.000	109.502	605.677
-55.246	509.060	1496.829	3412.451
-54.232	179.048	2678.560	3843.384
-53.217	109.206	2171.642	2549.946
-52.203	39.415	1703.518	1497.004
-51.188	32.500	1519.625	1288.245
-50.173	30.198	1493.808	1250.801
-49.159	50.535	1550.365	1438.621
-48.144	50.917	1566.856	1456.490
-47.130	32.661	1522.035	1291.182
-46.115	29.718	1507.416	1258.727
-45.100	29.512	1503.766	1254.228
-44.086	29.541	1501.485	1252.473
-43.071	29.388	1499.785	1249.970
-42.057	29.376	1498.145	1248.474
-41.042	29.385	1496.598	1247.197
-40.027	29.406	1495.212	1246.130
-39.013	29.292	1493.984	1244.291
-37.998	29.356	1492.275	1243.252
-36.984	29.304	1491.335	1242.069
-35.969	29.413	1489.370	1241.112
-34.954	29.294	1488.714	1239.716
-33.940	29.291	1487.579	1238.704
-32.925	29.434	1485.896	1238.211
-31.911	29.512	1484.452	1237.482
-30.896	29.470	1483.332	1236.220
-29.881	29.467	1482.162	1235.172
-28.867	29.440	1480.904	1233.897
-27.852	29.489	1479.400	1232.923
-26.838	29.350	1478.432	1231.137
-25.823	29.479	1476.487	1230.332
-24.809	29.519	1475.006	1229.317
-23.794	29.453	1473.494	1227.568
-22.779	29.519	1472.603	1227.211
-21.765	29.477	1471.417	1225.898
-20.750	29.566	1470.242	1225.457
-19.736	29.545	1468.978	1224.216
-18.721	29.463	1467.933	1222.757
-17.706	29.396	1467.158	1221.615
-16.692	29.456	1465.898	1220.915
-15.677	29.437	1465.051	1220.036
-14.663	29.375	1463.864	1218.594
-13.648	29.597	1462.518	1218.888
-12.633	29.399	1461.624	1216.785
-11.619	29.406	1461.027	1216.287
-10.604	29.390	1460.213	1215.458
-9.590	29.398	1459.446	1214.824
-8.575	29.371	1458.532	1213.840
-7.560	29.443	1457.879	1213.717
-6.546	29.375	1457.159	1212.626
-5.531	29.402	1456.100	1211.870
-4.517	29.363	1455.214	1210.834
-3.502	29.404	1454.086	1210.113
-2.487	29.406	1452.793	1209.000
-1.473	29.366	1451.819	1207.884
-0.458	29.410	1450.491	1207.018
0.556	30.983	1440.651	1195.259
1.571	27.895	1415.394	1154.714
2.586	24.126	1356.850	1083.964
3.600	22.397	1275.612	1009.072
4.615	21.129	1230.153	966.013
5.629	18.318	1174.263	907.167
6.644	10.797	1090.950	805.572
7.659	4.777	1051.848	747.780
8.673	3.892	1046.292	739.534
9.688	3.826	1042.763	736.661
10.702	3.592	1041.020	734.252
11.717	3.630	1039.597	733.364
12.731	6.449	1041.928	748.348
13.746	14.203	1052.990	793.321
14.761	21.198	1062.123	833.650
15.775	23.384	1063.951	845.454
16.790	23.097	1062.909	843.185
17.804	22.357	1061.233	838.258
18.819	21.723	1059.271	833.618
19.834	21.319	1058.492	831.011
20.848	21.295	1057.870	830.333
21.863	21.596	1057.304	831.246
22.877	21.494	1057.078	830.512
23.892	21.282	1055.966	828.559
24.907	21.058	1055.365	826.950
25.921	21.011	1054.196	825.739
26.936	20.992	1053.771	825.245
27.950	21.076	1052.376	824.475
28.965	20.971	1051.229	823.006
29.980	20.982	1050.266	822.233
30.994	21.190	1049.300	822.382
32.009	21.338	1048.397	822.297
33.023	21.388	1047.948	822.110
34.038	21.299	1047.423	821.207
35.053	21.233	1046.513	820.108
36.067	21.120	1045.353	818.598
37.082	21.076	1044.162	817.385
38.096	21.148	1043.346	817.013
39.111	21.070	1042.939	816.259
40.126	21.280	1041.898	816.354
41.140	21.106	1041.131	814.867
42.155	20.867	1039.700	812.558
43.169	20.533	1038.525	810.011
44.184	20.489	1037.523	808.955
45.199	20.480	1036.163	807.780
46.213	20.609	1035.269	807.611
47.228	20.625	1034.374	806.915
48.242	20.861	1034.330	807.906
49.257	21.230	1033.804	809.135
50.271	21.115	1032.742	807.699
51.286	21.138	1032.227	807.330
52.301	21.287	1031.388	807.293
53.315	21.289	1030.904	806.852
54.330	21.278	1029.399	805.549
55.344	20.943	1028.931	803.567
56.359	20.900	1027.680	802.322
57.374	20.673	1027.313	800.920
58.388	20.727	1025.946	800.030
59.403	20.660	1024.989	798.905
60.417	20.588	1024.166	797.866
61.432	20.452	1023.633	796.756
62.447	20.492	1023.058	796.420
63.461	20.337	1022.238	795.004
64.476	20.303	1020.855	793.702
65.490	20.317	1019.918	792.964
66.505	20.265	1019.352	792.219
67.520	20.354	1018.672	792.023
68.534	20.298	1018.413	791.500
69.549	20.294	1017.293	790.540
70.563	20.251	1016.205	789.427
71.578	20.088	1015.702	788.229
72.593	19.952	1014.699	786.760
73.607	19.772	1013.533	784.971
74.622	19.799	1012.134	783.941
75.636	19.870	1011.669	783.831
76.651	19.975	1011.032	783.743
77.666	19.995	1010.334	783.222
78.680	20.092	1009.324	782.810
79.695	20.190	1008.995	782.927
80.709	20.107	1008.607	782.185
81.724	20.216	1007.812	781.990
82.739	20.413	1007.146	782.291
83.753	20.561	1005.978	781.982
84.768	20.847	1006.492	783.595
85.782	21.265	1006.257	785.225
86.797	21.633	1005.514	786.226
87.812	21.650	1004.577	785.500
88.826	21.438	1003.754	783.837
89.841	21.241	1002.917	782.233
90.855	21.484	1002.256	782.738
91.870	21.449	1001.719	782.092
92.884	21.472	1000.980	781.547
93.899	21.579	1000.052	781.231
94.914	21.400	999.283	779.762
95.928	21.330	998.846	779.039
96.943	21.511	997.751	778.926
97.957	21.376	996.624	777.377
98.972	21.148	995.955	775.773
99.987	21.270	994.818	775.359
101.001	21.472	994.223	775.720
102.016	21.430	993.350	774.785
103.030	21.238	992.597	773.279
104.045	21.359	991.500	772.894
105.060	21.274	990.799	771.900
106.074	21.261	989.759	770.967
107.089	21.022	988.627	768.963
108.103	20.725	987.387	766.622
109.118	20.598	986.098	764.995
110.133	20.380	985.383	763.415
111.147	20.226	984.334	761.858
112.162	20.210	983.188	760.830
113.176	20.256	982.552	760.473
114.191	20.415	981.901	760.599
115.206	20.602	981.150	760.768
116.220	20.431	980.935	759.788
117.235	20.409	979.899	758.820
118.249	20.385	978.880	757.862
119.264	20.262	977.928	756.522
120.279	20.206	976.848	755.372
121.293	20.142	976.322	754.620
122.308	20.073	975.351	753.502
123.322	19.972	974.289	752.179
124.337	19.848	973.201	750.734
125.352	19.745	972.138	749.403
126.366	19.787	971.436	748.975
127.381	19.842	970.082	748.103
128.395	19.789	969.439	747.314
129.410	19.929	968.488	747.118
130.424	19.937	967.925	746.651
131.439	20.210	967.139	747.154
132.454	20.329	966.948	747.454
133.468	20.427	965.835	746.948
134.483	20.492	965.252	746.713
135.497	20.493	964.644	746.179
136.512	20.506	963.900	745.592
137.527	20.631	963.188	745.511
138.541	20.552	962.351	744.462
139.556	20.657	961.937	744.524
140.570	20.580	961.338	743.665
141.585	20.570	961.242	743.484
142.600	21.009	960.172	744.463
143.614	21.189	959.349	744.525
144.629	21.305	958.896	744.603
145.643	21.620	957.872	745.084
146.658	21.433	956.351	743.040
147.673	21.151	955.791	741.343
148.687	20.798	954.532	738.803
149.702	20.741	953.102	737.388
150.716	20.544	952.574	736.081
151.731	20.446	951.696	734.923
152.746	20.451	951.255	734.538
153.760	20.600	950.436	734.471
154.775	20.661	949.976	734.308
155.789	20.819	949.284	734.372
156.804	20.882	948.208	733.742
157.819	21.026	947.218	733.518
158.833	21.032	946.801	733.153
159.848	21.186	946.471	733.480
160.862	21.440	945.711	733.892
161.877	21.362	944.621	732.655
162.892	20.921	943.612	729.960
163.906	20.484	942.679	727.347
164.921	20.460	941.547	726.308
165.935	20.467	939.923	725.019
166.950	20.455	939.445	724.536
167.964	20.611	939.007	724.785
168.979	20.669	938.040	724.216
169.994	20.577	936.561	722.626
171.008	20.467	935.917	721.611
172.023	20.701	935.306	722.044
173.037	20.909	934.852	722.496
174.052	21.273	934.390	723.582
175.067	21.217	933.412	722.527
176.081	20.668	932.399	719.411
177.096	20.306	930.900	716.694
178.110	20.281	930.199	715.988
179.125	20.406	929.089	715.586
180.140	20.481	928.320	715.238
181.154	20.489	928.307	715.200
182.169	20.770	927.990	716.050
183.183	21.011	927.287	716.432
184.198	21.195	926.921	716.840
185.213	21.061	925.965	715.491
186.227	20.915	925.645	714.582
187.242	20.993	925.327	714.593
188.256	21.154	924.784	714.766
189.271	21.207	924.184	714.456
190.286	21.435	923.654	714.917
191.300	21.165	922.272	712.682
192.315	20.524	920.932	708.970
193.329	20.287	920.188	707.369
194.344	20.194	919.597	706.474
195.359	20.542	919.007	707.375
196.373	20.622	918.517	707.257
197.388	20.726	918.742	707.791
198.402	20.959	918.248	708.297
199.417	21.266	918.105	709.368
200.432	21.462	917.926	709.966
201.446	21.584	917.730	710.245
202.461	21.676	916.743	709.792
203.475	21.793	916.488	710.004
204.490	21.620	915.585	708.544
205.504	21.394	914.222	706.512
206.519	21.126	913.325	704.676
207.534	21.121	912.425	703.898
208.548	21.038	912.011	703.181
209.563	21.126	911.411	703.011
210.577	21.024	910.862	702.115
211.592	21.101	909.967	701.673
212.607	21.422	909.942	702.880
213.621	21.688	909.336	703.418
214.636	21.524	908.497	702.048
215.650	21.409	907.850	701.029
216.665	21.436	907.400	700.725
217.680	21.389	907.285	700.387
218.694	21.603	906.522	700.593
219.709	21.718	906.402	700.897
220.723	21.718	905.229	699.928
221.738	21.495	904.798	698.642
222.753	21.494	903.808	697.811
223.767	21.431	903.210	697.039
224.782	21.519	902.630	696.881
225.796	21.575	901.734	696.347
226.811	21.854	901.650	697.332
227.826	21.637	900.747	695.707
228.840	21.431	899.680	694.008
229.855	21.216	899.065	692.617
230.869	21.219	898.738	692.314
231.884	21.277	897.954	691.882
232.899	21.211	896.644	690.549
233.913	20.906	896.752	689.364
234.928	20.805	895.762	688.143
235.942	20.909	894.900	687.833
236.957	20.827	894.041	686.785
237.972	20.762	893.210	685.834
238.986	20.782	893.064	685.736
240.001	20.880	892.164	685.373
241.015	20.742	891.559	684.304
242.030	20.886	891.021	684.395
243.045	21.198	890.361	685.054
244.059	21.244	890.100	684.974
245.074	21.278	889.246	684.387
246.088	21.332	889.144	684.460
247.103	21.360	888.689	684.157
248.117	21.361	888.786	684.174
249.132	21.785	887.792	685.007
250.147	22.204	887.427	686.300
251.161	22.342	887.647	686.950
252.176	22.594	886.740	687.170
253.190	22.638	886.309	686.945
254.205	22.669	885.793	686.606
255.220	22.718	885.346	686.389
256.234	22.636	884.749	685.549
257.249	22.521	883.681	684.213
258.263	22.424	883.100	683.324
259.278	22.397	882.639	682.804
260.293	22.390	881.922	682.162
261.307	22.508	881.610	682.318
262.322	22.750	880.921	682.661
263.336	22.653	880.803	682.131
264.351	22.538	880.162	681.131
265.366	22.520	879.295	680.332
266.380	22.488	878.908	679.849
267.395	22.685	878.042	679.876
268.409	22.568	877.350	678.829
269.424	22.182	876.806	676.864
270.439	22.301	876.320	676.888
271.453	22.295	875.047	675.819
272.468	22.002	874.534	674.241
273.482	22.143	873.441	673.876
274.497	22.099	873.094	673.381
275.512	22.183	872.262	673.002
276.526	22.127	871.564	672.189
277.541	22.045	870.835	671.255
278.555	22.215	870.651	671.704
279.570	22.342	870.563	672.062
280.585	22.666	870.325	673.055
281.599	22.707	869.642	672.624
282.614	22.409	868.693	670.695
283.628	22.244	867.753	669.280
284.643	22.085	866.954	668.002
285.657	22.068	866.695	667.676
286.672	22.148	866.159	667.508
287.687	22.228	865.681	667.387
288.701	22.178	865.431	666.943
289.716	22.174	864.569	666.203
290.730	22.187	864.078	665.817
291.745	22.422	863.056	665.859
292.760	22.474	862.209	665.344
293.774	22.542	861.956	665.345
294.789	22.751	861.784	665.944
295.803	22.798	861.636	665.946
296.818	22.415	860.444	663.526
297.833	22.251	859.471	662.098
298.847	22.142	859.253	661.462
299.862	22.286	858.405	661.293
300.876	22.173	858.354	660.768
301.891	22.504	857.430	661.243
302.906	22.576	857.300	661.355
303.920	22.921	856.306	661.821
304.935	23.014	856.084	661.941
305.949	23.086	855.890	662.000
306.964	23.092	854.639	660.995
307.979	22.840	853.827	659.367
308.993	22.552	853.989	658.359
310.008	22.866	852.904	658.635
311.022	22.816	852.626	658.178
312.037	22.802	852.085	657.650
313.052	22.637	851.466	656.497
314.066	22.367	850.436	654.641
315.081	22.112	849.841	653.179
316.095	22.159	848.959	652.616
317.110	22.217	848.580	652.483
318.125	22.297	847.923	652.216
319.139	22.164	847.414	651.274
320.154	21.934	847.006	650.051
321.168	22.005	846.221	649.655
322.183	22.120	845.852	649.741
323.197	22.226	845.258	649.615
324.212	22.319	844.604	649.400
325.227	22.364	844.412	649.362
326.241	22.419	843.594	648.875
327.256	22.193	843.236	647.714
328.270	22.184	842.368	646.955
329.285	22.156	842.064	646.562
330.300	22.083	841.747	645.992
331.314	22.179	840.588	645.397
332.329	22.049	840.473	644.776
333.343	22.328	839.850	645.264
334.358	22.567	839.516	645.826
335.373	22.555	839.154	645.446
336.387	22.512	838.851	645.001
337.402	22.751	838.094	645.235
338.416	22.974	837.394	645.451
339.431	23.051	837.253	645.568
340.446	23.328	836.949	646.287
341.460	23.438	835.983	645.885
342.475	23.412	836.156	645.866
343.489	23.342	835.688	645.191
344.504	23.681	834.966	645.812
345.519	23.575	834.692	645.158
346.533	23.817	834.106	645.528
347.548	23.796	833.330	644.791
348.562	23.404	832.387	642.586
349.577	23.002	832.032	640.796
350.592	22.872	831.229	639.652
351.606	22.737	830.454	638.509
352.621	22.673	829.866	637.770
353.635	22.466	830.091	637.137
354.650	22.774	829.041	637.389
355.665	22.809	828.675	637.176
356.679	22.735	828.510	636.725
357.694	22.982	828.323	637.415
358.708	23.040	827.423	636.875
359.723	22.955	826.722	635.974
360.738	22.892	826.220	635.303
361.752	22.955	825.653	635.040
362.767	22.889	825.363	634.522
363.781	23.089	825.208	635.065
364.796	23.537	825.044	636.491
365.810	23.506	824.854	636.176
366.825	23.818	824.017	636.592
367.840	23.764	823.985	636.319
368.854	23.730	823.825	636.016
369.869	23.546	822.673	634.415
370.883	23.321	822.126	633.132
371.898	23.236	821.732	632.469
372.913	23.563	821.178	633.152
373.927	23.605	820.427	632.669
374.942	23.663	819.674	632.237
375.956	23.435	819.152	630.969
376.971	23.641	818.581	631.204
377.986	23.789	818.308	631.466
379.000	23.930	817.653	631.406
380.015	24.038	817.117	631.316
381.029	23.831	816.735	630.231
382.044	23.786	816.192	629.600
383.059	23.736	815.301	628.678
384.073	23.987	814.563	628.942
385.088	23.899	813.901	628.062
386.102	23.429	813.222	625.824
387.117	23.507	811.884	625.016
388.132	23.234	812.045	624.122
389.146	23.270	811.589	623.841
390.161	23.270	811.265	623.537
391.175	23.474	810.823	623.861
392.190	23.716	811.191	624.939
393.205	23.710	810.283	624.165
394.219	23.362	809.869	622.568
395.234	23.172	809.022	621.195
396.248	23.051	808.582	620.375
397.263	23.050	808.045	619.905
398.278	23.076	807.172	619.273
399.292	22.927	806.622	618.274
400.307	22.843	806.534	617.859
401.321	22.874	805.837	617.380
402.336	23.032	805.432	617.566
403.350	23.081	805.382	617.646
404.365	23.360	805.285	618.488
405.380	23.600	804.764	618.871
406.394	23.906	804.744	619.867
407.409	24.067	804.200	619.953
408.423	23.987	804.143	619.578
409.438	24.081	803.397	619.275
410.453	24.055	803.042	618.854
411.467	24.246	802.530	619.070
412.482	24.214	801.883	618.406
413.496	24.283	801.477	618.277
414.511	24.507	801.326	618.880
415.526	24.291	801.168	617.957
416.540	24.171	800.476	616.953
417.555	24.128	799.961	616.353
418.569	24.035	799.659	615.745
419.584	24.151	798.934	615.532
420.599	24.048	798.638	614.891
421.613	163.124	1371.180	1797.470
422.628	141.640	1454.602	1797.575
