DTS Sentinel unit serial number:	SN413079Multiplexer serial number:	ORYXHardware model number:	OX4-SRSoftware version number:	ORYX F/W v4.00 Oryx Data Collector v3.7.2.0data status	okinstallation	princeton_trtdifferential loss correction	single-endedforward channel	channel 3reverse channel	N/Adate	2019/09/13time	03:16:35forward acquisition time	60.00reverse acquisition time	0.00gamma	496.2192k internal	0.2334k external	0.2334temperature offset calibration	1.0144default loss term (dB/km)	0.3790temperature slope calibration	1.0000multiplexer offset coefficient	1.0000multiplexer slope coefficient	1.0000fibre end	0.00T internal ref (°C)	27.37T ext. ref 1 (°C)	4.09T ext. ref 2 (°C)	22.10length (m)	temperature (°C)	Stokes	anti-Stokes-747.200	-200.000	-0.015	0.163
-746.185	210.294	-0.242	0.381
-745.171	-136.396	-0.209	0.024
-744.156	-57.059	-0.171	0.076
-743.142	198.738	-0.019	-0.029
-742.127	-56.145	-0.400	0.179
-741.112	-79.235	-0.139	0.047
-740.098	211.798	0.129	0.204
-739.083	281.416	0.144	0.260
-738.069	271.719	-0.153	-0.271
-737.054	-61.298	0.192	0.081
-736.039	-134.052	0.251	0.031
-735.025	410.528	-0.144	-0.307
-734.010	800.000	0.127	-0.352
-732.996	568.671	-0.111	0.270
-731.981	584.201	-0.081	-0.200
-730.966	-40.992	-0.441	0.229
-729.952	-90.424	-0.186	0.054
-728.937	374.282	-0.021	-0.042
-727.923	-200.000	-0.001	0.189
-726.908	82.207	-0.298	-0.324
-725.894	-161.727	-0.221	-0.011
-724.879	-190.844	-0.154	-0.002
-723.864	623.103	-0.083	0.211
-722.850	737.787	0.066	0.177
-721.835	-68.423	-0.263	0.103
-720.821	109.251	-0.081	0.098
-719.806	-49.620	-0.340	-0.163
-718.791	244.279	0.035	-0.059
-717.777	95.184	-0.040	-0.045
-716.762	-200.000	-0.063	-0.437
-715.748	-143.869	0.362	-0.034
-714.733	-100.169	-0.342	-0.085
-713.718	-20.575	-0.248	0.153
-712.704	153.027	0.149	-0.204
-711.689	34.956	0.141	-0.124
-710.675	223.883	0.341	-0.552
-709.660	800.000	-0.055	0.206
-708.645	135.735	-0.089	0.117
-707.631	800.000	0.098	0.307
-706.616	-33.081	0.061	-0.034
-705.602	219.416	0.224	-0.360
-704.587	249.333	-0.112	0.190
-703.572	683.016	0.007	0.018
-702.558	63.764	-0.142	-0.143
-701.543	800.000	-0.045	0.198
-700.529	-37.980	-0.229	0.122
-699.514	-127.895	-0.165	0.024
-698.499	-200.000	0.008	0.186
-697.485	107.655	0.147	-0.176
-696.470	-131.043	0.129	-0.017
-695.456	322.514	0.067	-0.128
-694.441	526.858	-0.047	0.110
-693.426	-76.214	0.244	0.086
-692.412	392.139	-0.048	-0.100
-691.397	-200.000	0.000	-0.093
-690.383	71.108	0.211	-0.219
-689.368	125.862	0.091	0.115
-688.354	61.086	0.087	0.086
-687.339	75.850	0.160	0.169
-686.324	-42.710	-0.131	0.067
-685.310	-200.000	0.013	-0.446
-684.295	25.872	-0.184	-0.154
-683.281	-7.229	0.368	0.250
-682.266	-102.164	-0.272	-0.066
-681.251	-160.124	0.313	0.017
-680.237	15.048	0.184	0.145
-679.222	-82.596	-0.317	0.103
-678.208	160.817	0.102	-0.143
-677.193	352.121	0.112	0.222
-676.178	-14.174	-0.109	0.070
-675.164	800.000	-0.062	-0.172
-674.149	144.823	-0.096	-0.129
-673.135	-72.234	-0.197	0.073
-672.120	-200.000	-0.015	-0.322
-671.105	386.988	-0.134	-0.277
-670.091	0.465	0.082	-0.059
-669.076	-117.706	-0.338	-0.061
-668.062	-200.000	0.031	-0.281
-667.047	-179.016	-0.244	-0.006
-666.032	133.152	-0.146	-0.188
-665.018	-200.000	0.007	-0.033
-664.003	195.387	-0.067	0.102
-662.989	-107.879	0.233	-0.051
-661.974	-29.014	0.025	-0.014
-660.959	181.492	0.186	-0.275
-659.945	532.326	-0.106	0.252
-658.930	245.448	0.111	0.187
-657.916	-163.427	0.174	0.008
-656.901	-98.888	-0.140	0.036
-655.886	25.220	-0.275	-0.229
-654.872	800.000	-0.044	-0.179
-653.857	-131.137	-0.197	0.026
-652.843	-35.776	-0.107	0.058
-651.828	-200.000	0.039	-0.234
-650.814	-107.366	-0.140	0.031
-649.799	332.113	-0.160	-0.310
-648.784	-68.650	0.208	0.080
-647.770	507.799	0.064	0.148
-646.755	261.504	0.114	0.197
-645.741	-200.000	0.042	0.239
-644.726	-95.439	-0.187	-0.050
-643.711	-200.000	0.058	0.402
-642.697	-200.000	-0.022	0.315
-641.682	23.345	0.224	0.184
-640.668	706.781	-0.163	0.430
-639.653	800.000	0.063	0.207
-638.638	-173.948	0.167	-0.005
-637.624	69.406	0.229	-0.236
-636.609	-45.017	0.274	-0.137
-635.595	308.902	0.091	-0.171
-634.580	-108.850	-0.138	0.030
-633.565	463.646	0.038	0.084
-632.551	-124.161	0.117	-0.018
-631.536	800.000	-0.032	-0.094
-630.522	800.000	-0.058	0.172
-629.507	-13.229	-0.251	-0.163
-628.492	94.618	0.260	0.296
-627.478	484.020	0.092	0.209
-626.463	26.216	0.111	-0.093
-625.449	-200.000	-0.058	-0.265
-624.434	110.410	0.242	-0.290
-623.419	-38.501	-0.239	0.126
-622.405	800.000	-0.039	0.109
-621.390	315.037	0.078	0.147
-620.376	480.954	0.102	-0.232
-619.361	-200.000	0.002	-0.106
-618.346	-200.000	0.000	-0.163
-617.332	-90.820	-0.184	0.053
-616.317	156.877	-0.076	-0.104
-615.303	48.866	-0.085	-0.080
-614.288	10.139	0.176	-0.134
-613.273	-65.896	0.110	0.044
-612.259	-200.000	0.042	0.203
-611.244	-48.526	-0.239	0.115
-610.230	-108.497	-0.447	-0.096
-609.215	-22.594	-0.262	-0.159
-608.201	78.466	-0.254	-0.271
-607.186	-87.452	-0.299	-0.091
-606.171	-93.602	0.213	-0.059
-605.157	130.097	0.068	0.087
-604.142	220.961	-0.100	-0.160
-603.128	-170.997	-0.013	0.000
-602.113	-52.237	-0.127	-0.059
-601.098	-54.884	0.155	0.070
-600.084	-200.000	0.008	0.237
-599.069	800.000	-0.038	-0.129
-598.055	466.701	-0.092	-0.207
-597.040	-49.638	-0.131	-0.062
-596.025	258.640	-0.094	-0.162
-595.011	-26.521	0.151	-0.088
-593.996	-40.228	-0.312	0.162
-592.982	63.569	0.232	-0.232
-591.967	196.946	-0.108	-0.164
-590.952	35.516	-0.084	-0.073
-589.938	184.963	-0.057	-0.085
-588.923	-107.400	-0.069	0.015
-587.909	-54.898	-0.419	-0.189
-586.894	39.677	0.192	-0.172
-585.879	223.885	-0.031	0.050
-584.865	-200.000	0.009	-0.199
-583.850	-146.135	0.061	-0.005
-582.836	31.011	-0.072	-0.061
-581.821	219.510	-0.012	0.019
-580.806	51.586	0.245	-0.232
-579.792	62.106	-0.031	0.031
-578.777	357.309	-0.047	0.093
-577.763	202.610	0.170	0.261
-576.748	-200.000	0.020	0.354
-575.733	365.870	0.139	0.280
-574.719	-200.000	0.001	0.247
-573.704	-200.000	0.031	0.265
-572.690	586.689	0.049	0.121
-571.675	-200.000	0.008	0.271
-570.661	-66.316	0.309	0.123
-569.646	561.813	-0.143	-0.345
-568.631	-38.401	-0.210	0.111
-567.617	51.040	-0.395	0.374
-566.602	-163.148	0.157	-0.008
-565.588	356.501	0.147	0.292
-564.573	-123.121	-0.207	0.033
-563.558	-59.115	0.141	-0.061
-562.544	30.096	0.022	-0.018
-561.529	-173.121	-0.232	0.007
-560.515	-5.303	-0.063	-0.043
-559.500	800.000	-0.050	0.153
-558.485	800.000	-0.120	0.342
-557.471	-6.373	0.424	0.289
-556.456	800.000	-0.113	0.483
-555.442	-200.000	0.045	0.231
-554.427	-172.274	0.307	-0.010
-553.412	374.923	-0.199	-0.405
-552.398	-74.607	0.099	-0.035
-551.383	800.000	-0.051	0.162
-550.369	442.268	0.093	0.202
-549.354	637.411	-0.115	0.293
-548.339	48.977	-0.141	0.132
-547.325	-99.015	0.188	0.047
-546.310	-200.000	0.036	0.164
-545.296	4.248	-0.139	0.102
-544.281	-135.923	-0.234	-0.027
-543.266	-132.487	-0.399	0.051
-542.252	-86.940	0.121	0.037
-541.237	-76.205	-0.028	-0.010
-540.223	-130.004	-0.318	-0.043
-539.208	-18.389	-0.184	-0.115
-538.193	800.000	-0.067	0.219
-537.179	-66.449	-0.090	-0.035
-536.164	-102.914	0.172	0.041
-535.150	800.000	0.022	0.064
-534.135	308.358	0.118	-0.220
-533.121	15.967	0.280	0.220
-532.106	-200.000	0.040	-0.300
-531.091	-200.000	0.005	0.064
-530.077	-59.582	-0.087	0.037
-529.062	-28.588	0.134	0.077
-528.048	-200.000	-0.002	-0.211
-527.033	-140.434	0.407	0.042
-526.018	-181.916	-0.156	-0.003
-525.004	-200.000	-0.022	-0.193
-523.989	185.820	0.084	0.125
-522.975	800.000	0.026	-0.106
-521.960	800.000	0.043	-0.153
-520.945	-195.553	-0.429	-0.003
-519.931	-123.771	0.297	-0.047
-518.916	-69.807	0.300	-0.114
-517.902	800.000	-0.148	-0.416
-516.887	800.000	-0.063	-0.228
-515.872	-171.975	-0.330	-0.011
-514.858	-118.990	-0.275	0.048
-513.843	128.425	-0.057	0.073
-512.829	-92.366	-0.305	0.085
-511.814	100.693	-0.066	0.076
-510.799	-200.000	0.019	-0.360
-509.785	78.477	-0.254	-0.271
-508.770	46.378	0.138	-0.127
-507.756	-52.482	0.271	-0.125
-506.741	-75.466	0.159	-0.056
-505.726	-200.000	-0.071	0.324
-504.712	186.921	0.029	-0.043
-503.697	206.892	-0.124	0.192
-502.683	-127.763	0.269	-0.039
-501.668	-84.178	0.117	-0.037
-500.653	9.632	-0.180	-0.136
-499.639	-7.651	0.397	0.267
-498.624	-124.616	-0.142	0.022
-497.610	-136.231	-0.276	0.032
-496.595	-116.012	-0.155	-0.029
-495.581	-19.728	-0.337	0.207
-494.566	-5.288	0.166	-0.113
-493.551	-57.522	0.175	0.076
-492.537	547.646	0.066	0.158
-491.522	-143.195	-0.167	-0.016
-490.508	-160.447	-0.178	-0.010
-489.493	22.380	0.237	-0.193
-488.478	-108.675	0.076	-0.016
-487.464	344.344	-0.036	-0.071
-486.449	-200.000	0.039	-0.176
-485.435	-131.267	0.298	-0.039
-484.420	-5.365	0.017	-0.012
-483.405	4.820	-0.184	0.135
-482.391	-200.000	0.007	0.055
-481.376	230.277	-0.157	0.256
-480.362	98.282	-0.219	-0.251
-479.347	198.413	-0.309	-0.471
-478.332	-58.706	-0.093	0.040
-477.318	-200.000	-0.003	-0.175
-476.303	-200.000	0.032	-0.369
-475.289	91.573	-0.133	0.149
-474.274	-200.000	0.018	0.492
-473.259	-104.168	-0.135	-0.031
-472.245	39.836	-0.036	0.032
-471.230	197.945	0.179	-0.272
-470.216	-107.047	0.272	-0.060
-469.201	55.602	-0.246	-0.237
-468.186	-41.862	0.295	0.150
-467.172	272.582	0.092	-0.161
-466.157	-9.735	-0.249	0.165
-465.143	-85.368	-0.468	0.145
-464.128	-169.146	0.024	0.001
-463.113	-101.416	0.061	-0.015
-462.099	-22.731	0.238	0.143
-461.084	513.160	0.157	0.364
-460.070	800.000	-0.096	0.273
-459.055	293.296	-0.036	-0.066
-458.040	98.164	-0.107	-0.123
-457.026	-152.650	0.096	0.007
-456.011	254.212	-0.139	-0.236
-454.997	257.977	-0.139	-0.237
-453.982	491.346	0.115	-0.262
-452.968	-40.009	-0.052	0.027
-451.953	460.601	-0.158	0.350
-450.938	800.000	0.060	-0.181
-449.924	-200.000	-0.035	0.174
-448.909	-200.000	-0.063	-0.479
-447.895	-200.000	0.006	-0.230
-446.880	-80.554	-0.256	0.085
-445.865	-200.000	-0.012	0.180
-444.851	468.464	0.141	0.313
-443.836	460.262	0.063	0.140
-442.822	311.691	0.086	0.160
-441.807	17.912	-0.280	-0.221
-440.792	-76.558	0.265	-0.092
-439.778	404.594	-0.017	-0.035
-438.763	-200.000	0.030	0.203
-437.749	-20.923	0.099	-0.060
-436.734	-200.000	-0.019	0.136
-435.719	-200.000	0.007	-0.105
-434.705	800.000	0.022	0.061
-433.690	-78.258	-0.242	-0.083
-432.676	496.060	0.127	0.289
-431.661	-94.190	-0.138	0.037
-430.646	-36.991	0.184	-0.098
-429.632	265.021	0.153	-0.265
-428.617	111.180	-0.097	-0.117
-427.603	-200.000	-0.052	-0.236
-426.588	111.151	-0.217	-0.259
-425.573	514.212	-0.048	-0.112
-424.559	-200.000	0.002	0.051
-423.544	-60.331	0.114	0.048
-422.530	-146.146	-0.226	-0.020
-421.515	-102.770	0.188	0.045
-420.500	-200.000	0.024	-0.268
-419.486	211.186	0.185	-0.289
-418.471	656.781	0.089	0.228
-417.457	-9.079	-0.107	0.071
-416.442	-159.541	-0.135	-0.007
-415.428	140.615	-0.112	0.147
-414.413	-59.654	0.216	0.092
-413.398	-129.620	-0.359	-0.049
-412.384	-70.403	-0.184	0.069
-411.369	-28.144	-0.094	0.054
-410.355	-66.444	-0.063	0.025
-409.340	599.733	0.060	0.148
-408.325	-101.510	0.127	-0.031
-407.311	168.661	0.033	-0.047
-406.296	35.419	0.128	-0.111
-405.282	177.197	0.121	-0.174
-404.267	-122.986	-0.228	-0.036
-403.252	800.000	-0.088	-0.267
-402.238	-200.000	-0.001	-0.371
-401.223	-197.662	0.271	-0.002
-400.209	36.879	0.183	-0.160
-399.194	-200.000	0.020	0.093
-398.179	48.635	-0.047	-0.044
-397.165	-70.247	-0.053	-0.020
-396.150	94.312	-0.037	-0.042
-395.136	-27.556	-0.233	-0.134
-394.121	152.738	-0.185	0.250
-393.106	216.866	-0.060	0.094
-392.092	-37.809	-0.260	0.137
-391.077	415.181	-0.039	0.082
-390.063	62.199	0.101	0.100
-389.048	-52.290	0.264	-0.121
-388.033	-86.625	0.223	-0.068
-387.019	800.000	0.072	0.218
-386.004	-200.000	-0.018	0.256
-384.990	-166.253	0.227	0.009
-383.975	-37.320	0.250	0.133
-382.960	-22.682	-0.116	-0.069
-381.946	-46.040	0.054	0.027
-380.931	-200.000	-0.045	0.313
-379.917	-38.262	0.057	-0.030
-378.902	-11.697	-0.214	-0.139
-377.888	-121.354	0.258	-0.043
-376.873	-100.496	0.103	0.025
-375.858	-74.690	0.265	-0.094
-374.844	-200.000	-0.046	0.206
-373.829	-48.933	0.488	-0.231
-372.815	-111.950	-0.199	-0.040
-371.800	-48.785	-0.136	-0.065
-370.785	118.428	0.113	0.139
-369.771	483.427	-0.068	0.153
-368.756	228.902	-0.072	0.116
-367.742	114.328	-0.052	0.063
-366.727	144.353	0.132	-0.175
-365.712	-176.285	-0.178	-0.005
-364.698	-170.236	0.319	-0.011
-363.683	-46.672	0.032	0.016
-362.669	-200.000	-0.029	0.177
-361.654	-200.000	-0.026	0.137
-360.639	35.402	-0.087	-0.075
-359.625	388.070	-0.019	-0.039
-358.610	202.921	0.205	-0.313
-357.596	64.907	0.144	0.144
-356.581	800.000	-0.015	-0.065
-355.566	397.790	0.029	-0.060
-354.552	165.483	-0.067	0.093
-353.537	406.115	0.025	0.052
-352.523	202.491	-0.016	-0.024
-351.508	-89.313	-0.161	-0.047
-350.493	-200.000	-0.005	-0.094
-349.479	-200.000	-0.043	-0.266
-348.464	149.208	0.226	-0.302
-347.450	-130.096	-0.300	0.041
-346.435	800.000	-0.086	-0.236
-345.420	47.168	-0.175	0.161
-344.406	-116.416	0.359	-0.066
-343.391	-88.543	0.229	-0.067
-342.377	-200.000	0.024	-0.248
-341.362	-134.534	-0.251	0.030
-340.348	2.374	-0.314	-0.225
-339.333	-121.872	0.308	-0.050
-338.318	-70.234	0.423	-0.159
-337.304	-200.000	0.012	-0.057
-336.289	-117.945	-0.400	0.071
-335.275	-164.527	-0.089	0.004
-334.260	-6.966	-0.143	-0.096
-333.245	800.000	-0.063	-0.256
-332.231	35.784	0.186	0.161
-331.216	-200.000	-0.006	0.427
-330.202	-200.000	-0.025	0.261
-329.187	436.900	0.156	-0.336
-328.172	-145.149	-0.150	0.013
-327.158	800.000	-0.021	0.089
-326.143	800.000	-0.071	-0.271
-325.129	91.908	-0.200	-0.222
-324.114	282.591	-0.126	0.223
-323.099	77.098	0.219	0.230
-322.085	-126.413	-0.163	0.024
-321.070	-109.327	-0.120	-0.025
-320.056	-200.000	0.059	0.291
-319.041	332.753	0.117	0.223
-318.026	800.000	0.062	-0.180
-317.012	-103.618	0.312	-0.072
-315.997	59.008	-0.174	-0.169
-314.983	-44.247	0.271	0.134
-313.968	-64.893	0.164	-0.066
-312.953	-25.616	0.127	0.074
-311.939	-200.000	0.024	-0.281
-310.924	-88.844	-0.246	0.072
-309.910	22.438	0.252	0.204
-308.895	465.110	0.055	0.121
-307.880	800.000	-0.023	-0.078
-306.866	-200.000	0.062	-0.565
-305.851	800.000	0.007	-0.023
-304.837	-151.626	-0.086	0.006
-303.822	350.285	-0.043	0.084
-302.807	199.621	-0.127	0.193
-301.793	3.718	-0.114	-0.082
-300.778	-56.158	0.250	-0.110
-299.764	-108.608	0.175	-0.037
-298.749	277.299	0.103	0.181
-297.735	396.820	0.076	0.157
-296.720	-200.000	0.020	0.206
-295.705	-22.128	-0.040	-0.024
-294.691	675.321	-0.023	-0.060
-293.676	154.042	0.107	0.145
-292.662	-200.000	0.011	0.094
-291.647	-200.000	0.011	-0.309
-290.632	-98.622	0.221	0.056
-289.618	-200.000	0.024	-0.202
-288.603	727.472	0.065	-0.170
-287.589	-149.042	-0.124	-0.010
-286.574	800.000	-0.069	0.288
-285.559	-31.918	0.123	0.068
-284.545	800.000	-0.007	-0.021
-283.530	104.267	0.218	-0.253
-282.516	-200.000	-0.024	0.350
-281.501	800.000	-0.062	-0.201
-280.486	-200.000	-0.016	-0.231
-279.472	-46.739	-0.231	-0.112
-278.457	-200.000	-0.046	-0.211
-277.443	39.400	-0.308	0.272
-276.428	32.115	0.037	-0.032
-275.413	184.284	0.133	0.195
-274.399	-179.677	0.333	0.007
-273.384	-168.285	0.023	0.001
-272.370	684.041	-0.071	-0.183
-271.355	769.455	0.109	0.294
-270.340	38.778	0.104	-0.092
-269.326	-200.000	-0.004	0.119
-268.311	-23.492	-0.143	-0.085
-267.297	245.042	-0.140	0.233
-266.282	-154.939	-0.098	-0.006
-265.267	74.005	0.058	0.060
-264.253	-200.000	-0.006	0.204
-263.238	-39.650	-0.293	-0.151
-262.224	-72.147	-0.185	0.068
-261.209	326.225	0.081	-0.154
-260.195	258.874	0.158	-0.268
-259.180	-25.016	-0.150	0.088
-258.165	29.960	-0.093	-0.078
-257.151	-122.956	0.193	0.031
-256.136	-200.000	0.046	0.373
-255.122	-52.401	0.521	-0.238
-254.107	-146.860	0.131	0.011
-253.092	800.000	0.082	0.267
-252.078	-112.532	0.243	0.048
-251.063	-161.042	-0.336	-0.017
-250.049	-200.000	0.008	0.094
-249.034	381.163	-0.028	0.056
-248.019	31.101	0.178	-0.151
-247.005	800.000	-0.073	-0.216
-245.990	-200.000	0.047	-0.235
-244.976	37.815	-0.093	0.081
-243.961	-151.781	-0.566	0.041
-242.946	-42.147	-0.399	0.201
-241.932	-7.404	0.051	-0.034
-240.917	-200.000	-0.011	0.460
-239.903	-28.170	-0.070	0.040
-238.888	-114.561	-0.317	-0.060
-237.873	-103.540	-0.081	-0.019
-236.859	4.891	0.213	-0.155
-235.844	292.045	-0.190	-0.341
-234.830	-120.905	-0.152	-0.025
-233.815	-9.312	0.083	-0.055
-232.800	265.111	-0.052	-0.089
-231.786	218.913	0.170	-0.267
-230.771	-200.000	0.017	0.156
-229.757	-10.109	0.124	0.081
-228.742	-90.927	0.217	-0.061
-227.727	-113.931	-0.366	-0.070
-226.713	2.433	-0.211	-0.150
-225.698	-124.467	0.205	-0.031
-224.684	-200.000	0.007	0.121
-223.669	-13.161	0.201	0.129
-222.655	-32.355	0.073	0.040
-221.640	465.103	0.050	-0.111
-220.625	-3.032	0.142	-0.098
-219.611	322.916	0.052	0.097
-218.596	-4.295	0.307	0.209
-217.582	800.000	0.036	0.146
-216.567	-89.123	0.277	0.081
-215.552	69.491	-0.160	-0.162
-214.538	-13.404	-0.311	-0.198
-213.523	136.243	-0.144	-0.185
-212.509	800.000	-0.126	-0.364
-211.494	76.598	0.066	0.069
-210.479	800.000	-0.022	-0.074
-209.465	371.365	0.198	-0.396
-208.450	96.124	-0.277	-0.312
-207.436	-200.000	-0.001	-0.084
-206.421	24.522	0.102	-0.083
-205.406	130.416	-0.049	0.062
-204.392	800.000	0.026	-0.101
-203.377	800.000	-0.040	0.122
-202.363	-200.000	-0.067	0.299
-201.348	-200.000	-0.017	0.171
-200.333	201.679	-0.132	0.201
-199.319	173.860	-0.158	0.224
-198.304	-29.682	0.003	0.002
-197.290	14.972	-0.188	-0.145
-196.275	-172.467	0.166	0.005
-195.260	800.000	0.065	0.182
-194.246	257.577	0.108	-0.183
-193.231	-200.000	-0.013	-0.157
-192.217	800.000	-0.010	0.032
-191.202	-4.564	-0.189	-0.129
-190.187	19.078	0.101	0.079
-189.173	-128.828	0.401	0.056
-188.158	-58.102	0.199	0.085
-187.144	800.000	0.064	-0.183
-186.129	-132.745	0.217	-0.027
-185.114	536.184	-0.069	-0.161
-184.100	-200.000	0.006	-0.033
-183.085	800.000	0.046	0.128
-182.071	-76.121	0.329	0.114
-181.056	-200.000	-0.002	0.239
-180.042	-146.126	-0.283	0.024
-179.027	-48.693	-0.089	0.042
-178.012	-134.064	0.287	-0.035
-176.998	60.388	-0.247	0.241
-175.983	559.687	0.020	0.048
-174.969	392.775	0.083	-0.170
-173.954	79.668	0.358	0.377
-172.939	-31.704	-0.135	0.075
-171.925	3.674	0.019	-0.014
-170.910	1.029	-0.212	-0.149
-169.896	-92.195	0.117	-0.032
-168.881	800.000	-0.030	0.106
-167.866	-200.000	0.042	-0.329
-166.852	44.019	0.186	-0.168
-165.837	385.778	-0.215	-0.437
-164.823	67.038	0.189	-0.190
-163.808	-30.977	-0.229	-0.127
-162.793	-180.783	-0.096	-0.002
-161.779	-200.000	0.039	0.485
-160.764	-189.818	0.119	-0.001
-159.750	-109.635	0.368	0.076
-158.735	325.671	0.186	-0.349
-157.720	-131.352	0.403	0.052
-156.706	800.000	-0.062	0.248
-155.691	-67.894	0.200	0.077
-154.677	-100.642	-0.240	0.058
-153.662	80.976	-0.137	0.145
-152.647	800.000	0.109	0.445
-151.633	204.990	-0.196	0.298
-150.618	149.459	-0.036	-0.048
-149.604	126.375	0.223	0.277
-148.589	-170.473	-0.143	0.005
-147.574	-200.000	0.005	-0.121
-146.560	172.200	-0.108	0.153
-145.545	-200.000	0.026	-0.247
-144.531	-200.000	-0.013	-0.228
-143.516	800.000	0.080	0.332
-142.502	-135.376	-0.224	-0.026
-141.487	-146.829	0.207	0.018
-140.472	-200.000	-0.003	-0.279
-139.458	-133.865	-0.215	-0.026
-138.443	409.820	0.106	0.221
-137.429	395.126	-0.184	-0.376
-136.414	99.884	0.127	-0.145
-135.399	554.103	0.136	-0.322
-134.385	603.333	0.005	-0.013
-133.370	-200.000	0.012	0.108
-132.356	127.782	-0.075	-0.094
-131.341	-129.403	-0.176	0.024
-130.326	-26.174	-0.299	-0.173
-129.312	-77.840	0.254	-0.086
-128.297	-200.000	-0.022	-0.211
-127.283	-2.268	-0.138	0.095
-126.268	298.283	-0.104	0.188
-125.253	-200.000	0.015	-0.335
-124.239	-51.236	0.136	0.062
-123.224	-116.304	-0.369	0.067
-122.210	615.936	-0.087	0.215
-121.195	-16.700	-0.138	-0.086
-120.180	-200.000	-0.019	-0.125
-119.166	50.848	0.375	-0.348
-118.151	179.766	0.109	0.156
-117.137	95.925	0.112	-0.126
-116.122	-68.994	0.324	-0.122
-115.107	104.457	0.030	0.035
-114.093	719.215	0.046	-0.119
-113.078	-3.494	0.100	0.068
-112.064	-108.262	-0.112	0.024
-111.049	204.284	-0.156	0.236
-110.034	331.187	-0.060	-0.114
-109.020	-155.055	-0.293	-0.019
-108.005	-200.000	0.006	0.118
-106.991	276.444	0.148	-0.257
-105.976	-200.000	-0.014	-0.126
-104.962	127.267	0.245	0.304
-103.947	149.639	0.050	0.066
-102.932	15.969	-0.206	-0.159
-101.918	-144.653	0.163	0.015
-100.903	-19.500	0.146	-0.089
-99.889	16.580	0.066	0.051
-98.874	64.846	0.205	-0.203
-97.859	-76.425	0.084	-0.029
-96.845	42.686	0.108	0.096
-95.830	800.000	0.077	0.275
-94.816	76.112	0.103	0.107
-93.801	-27.439	0.172	-0.098
-92.786	169.743	-0.099	0.139
-91.772	-200.000	0.058	0.386
-90.757	800.000	0.085	0.301
-89.743	-89.495	-0.296	0.085
-88.728	54.364	0.244	0.230
-87.713	-12.640	-0.361	-0.230
-86.699	411.140	-0.045	-0.093
-85.684	-3.831	-0.167	0.113
-84.670	-34.873	0.322	0.172
-83.655	-93.345	0.143	0.039
-82.640	-92.154	-0.137	-0.038
-81.626	139.023	0.116	0.150
-80.611	403.184	-0.028	-0.059
-79.597	-45.206	0.284	-0.138
-78.582	11.524	0.277	0.208
-77.567	-200.000	-0.056	-0.251
-76.553	-200.000	0.009	-0.223
-75.538	330.881	-0.149	0.280
-74.524	-26.434	0.087	0.050
-73.509	229.091	-0.140	-0.223
-72.494	-97.889	-0.131	0.033
-71.480	-200.000	-0.041	0.201
-70.465	-48.009	0.012	0.006
-69.451	-49.296	-0.178	-0.083
-68.436	-108.575	0.122	0.026
-67.422	10.359	0.235	0.175
-66.407	-111.370	0.058	-0.012
-65.392	800.000	-0.093	-0.330
-64.378	-63.411	-0.106	-0.043
-63.363	-136.039	0.546	0.063
-62.349	504.019	-0.169	0.383
-61.334	118.125	-1.121	-1.352
-60.319	102.753	0.551	0.631
-59.305	143.926	-0.864	-1.127
-58.290	125.653	1.090	1.346
-57.276	800.000	0.417	1.244
-56.261	-200.000	113.799	658.063
-55.246	545.814	1524.132	3564.164
-54.232	178.713	2690.485	3845.616
-53.217	109.153	2172.974	2543.294
-52.203	37.990	1698.594	1477.355
-51.188	30.432	1516.919	1267.934
-50.173	28.269	1492.504	1232.929
-49.159	52.497	1551.419	1448.530
-48.144	50.893	1566.331	1451.413
-47.130	30.719	1522.424	1274.299
-46.115	27.675	1506.956	1240.630
-45.100	27.491	1503.785	1236.720
-44.086	27.447	1502.011	1234.920
-43.071	27.360	1500.370	1232.931
-42.057	27.411	1498.263	1231.493
-41.042	27.448	1496.548	1230.283
-40.027	27.284	1495.705	1228.439
-39.013	27.290	1494.072	1227.087
-37.998	27.348	1493.153	1226.673
-36.984	27.364	1491.569	1225.432
-35.969	27.356	1490.354	1224.328
-34.954	27.333	1489.026	1223.038
-33.940	27.261	1488.106	1221.747
-32.925	27.455	1486.252	1221.479
-31.911	27.358	1484.943	1219.708
-30.896	27.461	1483.537	1219.195
-29.881	27.421	1482.337	1217.890
-28.867	27.427	1480.917	1216.715
-27.852	27.519	1479.665	1216.256
-26.838	27.400	1478.424	1214.387
-25.823	27.444	1476.760	1213.269
-24.809	27.476	1475.481	1212.380
-23.794	27.411	1473.923	1210.620
-22.779	27.394	1472.854	1209.585
-21.765	27.446	1472.198	1209.345
-20.750	27.418	1470.660	1207.843
-19.736	27.450	1469.694	1207.212
-18.721	27.441	1468.549	1206.169
-17.706	27.319	1468.005	1204.864
-16.692	27.320	1466.738	1203.783
-15.677	27.359	1465.658	1203.110
-14.663	27.498	1464.209	1202.788
-13.648	27.262	1463.890	1200.921
-12.633	27.406	1462.410	1200.608
-11.619	27.344	1462.456	1200.187
-10.604	27.296	1461.752	1199.247
-9.590	27.336	1460.398	1198.350
-8.575	27.426	1459.204	1197.919
-7.560	27.367	1458.957	1197.280
-6.546	27.279	1458.275	1196.095
-5.531	27.305	1457.092	1195.245
-4.517	27.330	1455.697	1194.218
-3.502	27.361	1454.868	1193.696
-2.487	27.340	1454.210	1192.967
-1.473	27.360	1452.628	1191.752
-0.458	27.402	1451.044	1190.686
0.556	29.252	1441.335	1179.557
1.571	26.034	1417.490	1139.643
2.586	22.612	1360.627	1073.037
3.600	20.857	1279.927	999.250
4.615	19.612	1233.834	956.293
5.629	17.327	1177.407	900.390
6.644	10.367	1095.512	803.286
7.659	5.105	1057.237	749.914
8.673	4.282	1052.298	742.408
9.688	4.155	1048.880	739.325
10.702	3.984	1047.002	737.120
11.717	3.940	1045.258	735.620
12.731	6.547	1047.547	749.576
13.746	14.086	1057.482	792.683
14.761	20.784	1066.222	831.248
15.775	22.813	1068.210	842.420
16.790	22.432	1066.541	839.214
17.804	21.426	1064.841	833.012
18.819	20.634	1063.218	827.900
19.834	20.241	1061.904	824.935
20.848	20.274	1061.515	824.715
21.863	20.382	1060.926	824.698
22.877	20.178	1060.147	823.054
23.892	19.950	1059.299	821.239
24.907	19.841	1058.526	820.053
25.921	19.839	1057.248	818.981
26.936	19.826	1056.764	818.468
27.950	19.776	1056.210	817.730
28.965	19.837	1054.925	816.951
29.980	19.774	1053.529	815.504
30.994	19.925	1053.026	815.752
32.009	20.131	1052.026	815.876
33.023	20.209	1051.200	815.532
34.038	20.239	1050.277	814.882
35.053	19.971	1049.774	813.161
36.067	19.853	1048.587	811.617
37.082	19.976	1047.145	811.003
38.096	19.842	1046.991	810.188
39.111	20.104	1046.019	810.588
40.126	20.146	1045.186	810.069
41.140	20.125	1044.083	809.044
42.155	19.693	1042.566	805.780
43.169	19.407	1041.735	803.734
44.184	19.361	1040.369	802.398
45.199	19.239	1039.894	801.393
46.213	19.379	1038.744	801.083
47.228	19.555	1037.782	801.089
48.242	19.878	1037.202	802.068
49.257	19.931	1036.481	801.686
50.271	19.892	1035.272	800.498
51.286	19.903	1034.861	800.159
52.301	20.049	1034.129	800.198
53.315	20.050	1033.520	799.660
54.330	19.950	1032.481	798.327
55.344	19.762	1031.440	796.585
56.359	19.697	1030.212	795.266
57.374	19.648	1029.495	794.416
58.388	19.639	1028.865	793.818
59.403	19.400	1027.992	791.978
60.417	19.315	1027.288	790.975
61.432	19.280	1027.008	790.528
62.447	19.391	1025.867	790.089
63.461	19.272	1024.782	788.641
64.476	19.169	1023.887	787.408
65.490	19.162	1022.970	786.604
66.505	19.118	1021.885	785.497
67.520	19.170	1021.530	785.391
68.534	19.156	1020.947	784.811
69.549	19.122	1019.867	783.755
70.563	19.225	1019.026	783.513
71.578	19.182	1018.428	782.785
72.593	18.925	1017.501	780.836
73.607	18.882	1016.490	779.795
74.622	18.723	1015.662	778.372
75.636	18.826	1014.833	778.135
76.651	19.038	1013.510	778.011
77.666	19.025	1013.027	777.511
78.680	19.057	1012.425	777.125
79.695	18.962	1012.244	776.489
80.709	19.084	1011.867	776.679
81.724	19.333	1010.523	776.703
82.739	19.397	1010.024	776.536
83.753	19.497	1009.306	776.366
84.768	19.706	1009.000	777.001
85.782	20.184	1008.405	778.623
86.797	20.451	1008.003	779.443
87.812	20.420	1007.354	778.731
88.826	20.186	1006.213	776.732
89.841	20.008	1005.418	775.254
90.855	20.221	1004.530	775.452
91.870	20.244	1004.087	775.148
92.884	20.384	1003.491	775.243
93.899	20.330	1002.638	774.275
94.914	20.306	1001.349	773.104
95.928	20.347	1000.999	772.945
96.943	20.352	1000.022	772.144
97.957	20.225	999.393	771.027
98.972	20.160	998.263	769.799
99.987	20.168	997.854	769.452
101.001	20.191	997.403	769.136
102.016	20.199	996.290	768.247
103.030	20.121	995.248	767.028
104.045	20.112	994.338	766.220
105.060	20.263	993.463	766.146
106.074	20.161	992.557	764.927
107.089	19.745	991.646	762.327
108.103	19.490	990.579	760.313
109.118	19.362	989.481	758.841
110.133	19.210	988.109	757.055
111.147	19.095	987.222	755.801
112.162	19.040	986.278	754.772
113.176	19.073	986.249	754.826
114.191	19.310	985.318	755.088
115.206	19.460	984.504	755.052
116.220	19.474	983.663	754.402
117.235	19.341	982.936	753.197
118.249	19.352	981.680	752.213
119.264	19.320	980.884	751.401
120.279	19.206	980.001	750.159
121.293	19.115	979.853	749.584
122.308	19.155	978.594	748.727
123.322	18.954	977.759	747.151
124.337	18.802	976.901	745.767
125.352	18.926	975.295	745.012
126.366	18.899	974.353	744.112
127.381	18.838	973.165	742.872
128.395	18.834	972.476	742.267
129.410	19.032	971.460	742.280
130.424	18.961	970.843	741.436
131.439	19.156	969.912	741.499
132.454	19.233	969.647	741.564
133.468	19.395	968.286	741.152
134.483	19.259	968.131	740.382
135.497	19.459	967.006	740.316
136.512	19.425	966.434	739.668
137.527	19.530	965.573	739.392
138.541	19.497	964.906	738.673
139.556	19.286	964.782	737.612
140.570	19.385	963.664	737.115
141.585	19.682	962.883	737.722
142.600	19.830	962.671	738.124
143.614	20.044	961.673	738.206
144.629	20.061	961.584	738.145
145.643	20.245	960.914	738.347
146.658	20.042	960.182	736.855
147.673	19.912	958.512	734.957
148.687	19.632	957.765	733.131
149.702	19.549	956.630	731.848
150.716	19.430	955.686	730.556
151.731	19.431	954.570	729.642
152.746	19.456	953.929	729.195
153.760	19.667	952.796	729.153
154.775	19.510	952.395	728.120
155.789	19.626	952.179	728.379
156.804	19.759	951.189	728.116
157.819	19.691	950.571	727.294
158.833	19.836	950.022	727.421
159.848	20.073	948.852	727.453
160.862	20.168	949.062	727.950
161.877	20.186	947.975	727.127
162.892	19.761	946.619	724.244
163.906	19.461	945.248	721.874
164.921	19.468	944.233	721.064
165.935	19.525	943.473	720.658
166.950	19.464	942.568	719.651
167.964	19.579	942.102	719.710
168.979	19.619	940.737	718.769
169.994	19.568	939.937	717.885
171.008	19.352	938.953	716.171
172.023	19.701	937.990	716.821
173.037	19.951	937.331	717.290
174.052	20.119	936.751	717.478
175.067	19.994	936.266	716.524
176.081	19.645	934.716	713.834
177.096	19.379	933.693	711.892
178.110	19.415	932.834	711.321
179.125	19.351	932.603	710.817
180.140	19.497	932.102	710.975
181.154	19.637	931.224	710.820
182.169	19.658	931.065	710.723
183.183	19.909	930.713	711.423
184.198	19.971	929.966	711.044
185.213	19.954	929.096	710.244
186.227	19.954	928.618	709.816
187.242	20.133	927.913	709.946
188.256	20.083	927.468	709.341
189.271	20.313	926.825	709.724
190.286	20.293	926.127	709.047
191.300	20.098	925.418	707.645
192.315	19.589	923.785	704.261
193.329	19.293	922.835	702.268
194.344	19.285	922.138	701.643
195.359	19.533	921.846	702.365
196.373	19.636	921.696	702.610
197.388	19.777	921.463	702.942
198.402	20.016	920.338	702.993
199.417	20.157	920.893	703.926
200.432	20.313	920.429	704.142
201.446	20.436	920.050	704.287
202.461	20.571	920.036	704.764
203.475	20.717	919.474	704.862
204.490	20.603	918.757	703.787
205.504	20.351	917.189	701.508
206.519	20.345	915.630	700.226
207.534	20.076	915.399	698.904
208.548	20.039	914.591	698.076
209.563	20.155	913.780	697.862
210.577	20.138	913.177	697.271
211.592	20.171	913.049	697.247
212.607	20.240	912.678	697.178
213.621	20.389	912.702	697.734
214.636	20.472	911.241	696.887
215.650	20.312	910.977	695.981
216.665	20.359	910.366	695.641
217.680	20.516	909.605	695.629
218.694	20.691	909.430	696.132
219.709	20.560	909.022	695.233
220.723	20.663	908.204	694.959
221.738	20.509	907.247	693.549
222.753	20.440	906.540	692.676
223.767	20.262	905.914	691.424
224.782	20.441	905.288	691.598
225.796	20.510	904.829	691.462
226.811	20.832	903.733	691.843
227.826	20.788	903.368	691.325
228.840	20.376	902.576	689.026
229.855	20.328	901.532	687.975
230.869	20.282	900.989	687.320
231.884	20.203	900.403	686.500
232.899	20.103	899.644	685.465
233.913	20.172	898.816	685.043
234.928	20.076	898.197	684.133
235.942	20.017	897.259	683.127
236.957	19.851	896.712	681.995
237.972	19.951	895.973	681.765
238.986	19.988	895.298	681.337
240.001	19.908	894.870	680.638
241.015	19.962	894.268	680.330
242.030	20.063	893.477	680.065
243.045	20.230	892.815	680.158
244.059	20.351	892.659	680.450
245.074	20.346	891.744	679.672
246.088	20.429	891.398	679.674
247.103	20.511	890.988	679.623
248.117	20.555	890.589	679.432
249.132	20.725	890.292	679.808
250.147	21.227	889.735	681.280
251.161	21.429	889.607	681.911
252.176	21.464	889.013	681.533
253.190	21.473	888.406	681.043
254.205	21.567	887.945	680.992
255.220	21.559	887.687	680.704
256.234	21.496	886.609	679.573
257.249	21.327	886.282	678.606
258.263	21.377	885.639	678.248
259.278	21.558	884.533	678.042
260.293	21.339	884.519	677.120
261.307	21.503	883.857	677.190
262.322	21.586	883.143	676.905
263.336	21.568	882.957	676.630
264.351	21.659	882.289	676.414
265.366	21.686	881.672	675.982
266.380	21.630	880.884	675.102
267.395	21.637	880.216	674.560
268.409	21.404	879.640	673.161
269.424	21.319	878.755	672.095
270.439	21.397	878.176	671.893
271.453	21.328	877.317	670.911
272.468	21.147	876.278	669.364
273.482	21.220	875.551	669.031
274.497	21.215	875.047	668.567
275.512	21.215	874.801	668.319
276.526	21.105	873.940	667.183
277.541	21.098	873.264	666.580
278.555	21.258	872.693	666.697
279.570	21.516	872.129	667.190
280.585	21.547	872.148	667.265
281.599	21.705	871.169	667.059
282.614	21.565	870.412	665.885
283.628	21.279	869.805	664.277
284.643	21.226	868.966	663.374
285.657	21.110	868.916	662.837
286.672	21.367	868.086	663.121
287.687	21.207	867.577	662.068
288.701	21.256	866.991	661.747
289.716	21.301	866.372	661.384
290.730	21.444	865.871	661.484
291.745	21.389	865.688	661.079
292.760	21.483	864.461	660.436
293.774	21.518	864.056	660.203
294.789	21.808	863.863	661.092
295.803	21.677	863.464	660.233
296.818	21.488	862.522	658.742
297.833	21.429	861.504	657.683
298.847	21.353	860.776	656.786
299.862	21.238	860.832	656.339
300.876	21.522	859.497	656.326
301.891	21.613	859.248	656.419
302.906	21.818	858.795	656.784
303.920	21.735	858.645	656.301
304.935	22.082	857.603	656.742
305.949	22.208	857.435	657.028
306.964	22.012	856.895	655.825
307.979	21.746	856.263	654.290
308.993	21.702	855.784	653.702
310.008	21.877	854.782	653.528
311.022	21.929	854.296	653.295
312.037	21.891	853.939	652.821
313.052	21.781	853.318	651.879
314.066	21.497	852.356	650.032
315.081	21.237	851.691	648.504
316.095	21.170	851.116	647.758
317.110	21.295	850.912	648.010
318.125	21.453	849.880	647.753
319.139	21.393	849.375	647.086
320.154	21.317	849.315	646.703
321.168	21.321	848.836	646.296
322.183	21.479	848.031	646.211
323.197	21.664	847.242	646.233
324.212	21.536	846.865	645.418
325.227	21.519	846.140	644.747
326.241	21.500	846.035	644.538
327.256	21.464	844.979	643.546
328.270	21.493	844.512	643.237
329.285	21.320	844.011	642.164
330.300	21.466	843.482	642.240
331.314	21.354	843.144	641.515
332.329	21.501	842.123	641.219
333.343	21.542	841.760	641.040
334.358	21.778	841.607	641.727
335.373	21.777	840.787	641.042
336.387	21.859	840.545	641.103
337.402	21.911	839.788	640.656
338.416	21.997	839.539	640.723
339.431	22.167	838.939	640.831
340.446	22.264	838.471	640.769
341.460	22.524	838.407	641.609
342.475	22.488	837.742	640.912
343.489	22.473	837.172	640.364
344.504	22.629	836.754	640.558
345.519	22.673	836.576	640.522
346.533	22.788	835.559	640.103
347.548	22.774	835.154	639.690
348.562	22.334	834.488	637.527
349.577	22.059	833.739	635.904
350.592	21.925	833.021	634.813
351.606	21.823	832.105	633.690
352.621	21.714	832.177	633.296
353.635	21.730	831.683	632.923
354.650	21.915	831.038	633.042
355.665	21.956	830.606	632.806
356.679	22.051	830.502	633.012
357.694	22.214	829.868	633.061
358.708	22.228	828.968	632.369
359.723	22.138	828.333	631.505
360.738	22.227	827.926	631.459
361.752	22.039	827.498	630.401
362.767	22.151	826.971	630.345
363.781	22.430	826.853	631.201
364.796	22.576	826.669	631.527
365.810	22.505	826.424	631.031
366.825	22.864	826.151	632.049
367.840	22.878	825.988	631.919
368.854	22.897	825.397	631.481
369.869	22.638	825.006	630.200
370.883	22.557	823.816	628.945
371.898	22.618	823.172	628.615
372.913	22.654	822.724	628.346
373.927	22.861	822.111	628.560
374.942	22.625	821.518	627.210
375.956	22.503	821.255	626.520
376.971	22.890	820.268	627.085
377.986	22.911	819.778	626.731
379.000	22.997	819.685	626.908
380.015	23.196	819.133	627.138
381.029	22.942	818.557	625.741
382.044	22.827	817.872	624.756
383.059	22.854	817.568	624.563
384.073	23.148	816.567	624.782
385.088	22.944	816.007	623.579
386.102	22.577	815.341	621.720
387.117	22.534	814.359	620.763
388.132	22.518	813.942	620.336
389.146	22.451	813.896	620.008
390.161	22.536	813.291	619.791
391.175	22.839	812.947	620.540
392.190	23.048	812.984	621.248
393.205	22.747	812.358	619.656
394.219	22.631	811.547	618.579
395.234	22.411	811.352	617.601
396.248	22.550	810.473	617.366
397.263	22.312	809.795	615.962
398.278	22.246	809.428	615.396
399.292	22.285	808.725	614.944
400.307	22.237	808.584	614.614
401.321	22.249	808.027	614.180
402.336	22.376	807.562	614.214
403.350	22.302	807.637	613.958
404.365	22.495	807.163	614.217
405.380	22.690	807.076	614.777
406.394	23.036	806.494	615.484
407.409	23.068	805.678	614.916
408.423	23.197	805.656	615.296
409.438	23.247	805.265	615.115
410.453	23.275	804.870	614.857
411.467	23.235	804.576	614.439
412.482	23.489	803.991	614.817
413.496	23.432	803.534	614.217
414.511	23.630	803.048	614.476
415.526	23.552	802.843	613.997
416.540	23.287	802.684	612.903
417.555	23.223	801.880	612.012
418.569	23.256	801.471	611.760
419.584	23.470	800.680	611.841
420.599	23.296	800.195	610.815
421.613	165.100	1371.635	1799.441
422.628	143.470	1454.886	1799.532
