DTS Sentinel unit serial number:	SN413079Multiplexer serial number:	ORYXHardware model number:	OX4-SRSoftware version number:	ORYX F/W v4.00 Oryx Data Collector v3.7.2.0data status	okinstallation	princeton_trtdifferential loss correction	single-endedforward channel	channel 3reverse channel	N/Adate	2019/09/17time	19:36:35forward acquisition time	60.00reverse acquisition time	0.00gamma	496.2192k internal	0.2313k external	0.2313temperature offset calibration	0.9954default loss term (dB/km)	0.3790temperature slope calibration	1.0000multiplexer offset coefficient	1.0000multiplexer slope coefficient	1.0000fibre end	0.00T internal ref (°C)	35.89T ext. ref 1 (°C)	0.25T ext. ref 2 (°C)	24.69length (m)	temperature (°C)	Stokes	anti-Stokes-747.200	128.882	-0.042	-0.054
-746.185	293.828	0.110	0.203
-745.171	-135.666	-0.126	-0.015
-744.156	246.365	-0.041	-0.069
-743.142	174.065	-0.148	0.217
-742.127	197.654	0.124	0.192
-741.112	74.493	-0.050	0.053
-740.098	-93.102	-0.082	-0.023
-739.083	-85.387	-0.054	-0.017
-738.069	-144.103	-0.149	-0.014
-737.054	29.034	0.234	0.201
-736.039	-200.000	0.037	0.482
-735.025	800.000	0.029	-0.104
-734.010	-136.699	-0.311	-0.036
-732.996	-200.000	-0.017	-0.315
-731.981	-20.224	-0.372	0.232
-730.966	-103.956	-0.404	0.095
-729.952	59.246	-0.219	0.218
-728.937	-14.391	0.155	0.101
-727.923	-5.090	-0.194	0.136
-726.908	-200.000	-0.073	0.549
-725.894	14.468	-0.054	0.042
-724.879	800.000	-0.048	-0.149
-723.864	-24.672	0.018	-0.011
-722.850	-200.000	0.018	-0.171
-721.835	241.011	0.104	-0.175
-720.821	-200.000	-0.023	0.119
-719.806	-200.000	0.031	-0.182
-718.791	701.318	0.087	0.232
-717.777	-200.000	-0.098	-0.468
-716.762	107.750	0.026	0.031
-715.748	-2.808	-0.204	0.145
-714.733	84.293	0.193	0.214
-713.718	-200.000	-0.059	0.414
-712.704	352.089	0.134	0.270
-711.689	800.000	-0.095	0.294
-710.675	-101.782	0.179	-0.044
-709.660	-200.000	-0.011	-0.361
-708.645	-155.312	-0.203	-0.013
-707.631	-78.376	-0.243	0.084
-706.616	168.611	-0.139	-0.201
-705.602	17.051	0.124	0.100
-704.587	-17.462	-0.143	0.091
-703.572	-83.137	0.199	-0.065
-702.558	182.912	0.074	-0.110
-701.543	280.229	0.023	0.041
-700.529	-171.318	-0.086	0.003
-699.514	47.187	-0.132	-0.124
-698.499	55.926	0.081	0.080
-697.485	-7.395	-0.083	0.057
-696.470	48.847	-0.117	-0.111
-695.456	127.080	-0.182	-0.233
-694.441	-124.248	0.131	0.021
-693.426	-183.467	0.044	-0.001
-692.412	96.712	0.112	0.130
-691.397	-200.000	0.050	-0.266
-690.383	82.079	0.149	-0.164
-689.368	41.752	0.062	-0.057
-688.354	-158.809	-0.085	-0.005
-687.339	-55.767	0.345	-0.156
-686.324	40.149	-0.301	0.274
-685.310	-137.313	-0.433	-0.050
-684.295	82.707	0.090	-0.099
-683.281	385.677	0.106	-0.220
-682.266	-134.452	0.329	-0.041
-681.251	107.469	0.138	-0.167
-680.237	29.350	0.216	0.186
-679.222	-25.565	-0.301	-0.180
-678.208	12.335	-0.176	0.137
-677.193	800.000	0.138	0.486
-676.178	-96.329	0.289	-0.077
-675.164	9.478	-0.073	-0.056
-674.149	-21.705	-0.158	0.097
-673.135	-200.000	-0.047	-0.233
-672.120	-200.000	-0.006	0.109
-671.105	-200.000	-0.008	0.116
-670.091	193.845	0.026	0.040
-669.076	40.512	0.312	0.284
-668.062	-80.072	0.247	-0.084
-667.047	-194.486	0.298	-0.002
-666.032	-200.000	0.243	0.000
-665.018	120.846	-0.176	0.221
-664.003	-11.871	0.282	-0.187
-662.989	182.197	-0.210	-0.313
-661.974	-162.900	-0.216	0.011
-660.959	-38.891	-0.309	0.165
-659.945	302.782	0.106	-0.199
-658.930	620.505	0.092	0.233
-657.916	-29.884	0.223	0.129
-656.901	-157.162	0.142	0.009
-655.886	-138.656	-0.168	-0.019
-654.872	-84.791	-0.335	0.106
-653.857	-123.749	0.220	-0.035
-652.843	98.869	-0.145	0.170
-651.828	193.824	0.039	0.060
-650.814	-200.000	0.023	0.324
-649.799	244.707	0.159	-0.271
-648.784	221.734	-0.118	-0.192
-647.770	-135.905	-0.176	-0.021
-646.755	225.473	0.140	-0.229
-645.741	-200.000	-0.001	-0.236
-644.726	-170.260	-0.051	-0.002
-643.711	-173.905	0.392	0.012
-642.697	-159.461	0.144	0.008
-641.682	800.000	-0.070	0.211
-640.668	195.281	-0.019	-0.029
-639.653	-166.722	0.040	-0.002
-638.638	-25.696	0.366	0.218
-637.624	800.000	0.040	0.152
-636.609	800.000	0.055	-0.154
-635.595	-0.680	-0.381	-0.273
-634.580	160.357	0.171	0.241
-633.565	-120.605	-0.367	-0.063
-632.551	161.715	0.074	-0.105
-631.536	-200.000	-0.016	-0.175
-630.522	125.361	-0.051	-0.065
-629.507	-200.000	-0.041	-0.183
-628.492	-5.457	0.436	-0.302
-627.478	208.751	0.061	0.097
-626.463	396.550	0.117	0.247
-625.449	4.248	0.151	-0.112
-624.434	138.690	0.037	-0.050
-623.419	728.753	0.105	0.284
-622.405	656.111	-0.012	0.032
-621.390	-59.006	0.207	0.090
-620.376	-27.893	-0.119	0.070
-619.361	-200.000	-0.014	-0.088
-618.346	-57.844	-0.218	-0.096
-617.332	-177.504	-0.224	-0.006
-616.317	-161.049	0.030	0.002
-615.303	591.737	0.045	-0.112
-614.288	-200.000	-0.005	0.142
-613.273	-147.214	-0.200	0.017
-612.259	464.807	0.084	-0.191
-611.244	276.266	0.036	0.064
-610.230	207.595	-0.163	-0.256
-609.215	-53.600	0.153	-0.071
-608.201	-200.000	-0.064	0.342
-607.186	158.151	0.084	-0.117
-606.171	166.311	-0.234	0.335
-605.157	-166.940	-0.211	0.009
-604.142	-67.557	0.301	-0.119
-603.128	-146.885	0.112	0.010
-602.113	-49.070	-0.106	-0.051
-601.098	109.526	0.121	-0.147
-600.084	-200.000	0.028	0.148
-599.069	800.000	0.037	0.139
-598.055	92.626	0.149	-0.169
-597.040	-200.000	0.015	0.105
-596.025	-16.824	-0.267	-0.170
-595.011	-41.563	0.112	-0.058
-593.996	-118.167	0.336	-0.060
-592.982	-6.119	-0.202	0.139
-591.967	33.662	-0.051	0.045
-590.952	58.538	-0.033	-0.033
-589.938	183.792	-0.044	0.066
-588.923	-200.000	0.016	-0.112
-587.909	137.550	-0.281	0.371
-586.894	800.000	-0.122	-0.369
-585.879	-162.555	0.411	0.020
-584.865	31.225	0.452	0.391
-583.850	800.000	0.083	0.360
-582.836	800.000	0.060	0.232
-581.821	-63.521	-0.241	0.100
-580.806	-108.954	0.062	-0.013
-579.792	800.000	0.030	0.106
-578.777	-11.831	-0.262	0.173
-577.763	-20.188	-0.090	-0.056
-576.748	-115.074	-0.251	0.048
-575.733	800.000	-0.036	-0.104
-574.719	-181.621	-0.169	-0.003
-573.704	-200.000	0.002	0.246
-572.690	97.853	-0.119	0.138
-571.675	-53.896	-0.332	-0.153
-570.661	-200.000	0.024	0.225
-569.646	-200.000	-0.039	0.175
-568.631	-200.000	-0.013	-0.084
-567.617	-92.382	-0.178	-0.051
-566.602	800.000	0.099	-0.282
-565.588	-200.000	0.019	-0.129
-564.573	328.105	-0.156	-0.302
-563.558	-200.000	0.084	-0.444
-562.544	-200.000	0.005	0.189
-561.529	-60.712	0.341	0.146
-560.515	-144.810	-0.248	-0.023
-559.500	85.305	-0.061	-0.067
-558.485	418.289	-0.130	-0.280
-557.471	-200.000	0.013	-0.065
-556.456	-40.798	-0.097	-0.050
-555.442	94.725	-0.103	-0.118
-554.427	210.189	0.109	-0.172
-553.412	-48.788	-0.109	-0.053
-552.398	66.403	-0.158	-0.162
-551.383	391.761	-0.078	0.164
-550.369	50.209	0.254	-0.242
-549.354	328.169	-0.133	-0.256
-548.339	-200.000	-0.010	0.175
-547.325	-78.921	0.176	0.060
-546.310	800.000	-0.096	-0.293
-545.296	5.603	0.073	-0.054
-544.281	377.397	0.031	0.063
-543.266	-200.000	-0.008	0.053
-542.252	448.722	0.119	-0.263
-541.237	1.408	0.070	-0.050
-540.223	800.000	-0.115	0.427
-539.208	-23.143	-0.203	0.123
-538.193	-200.000	0.076	0.434
-537.179	-15.068	-0.296	0.191
-536.164	800.000	0.105	0.304
-535.150	-200.000	-0.007	-0.169
-534.135	29.864	-0.157	-0.135
-533.121	-68.696	0.426	-0.166
-532.106	26.863	0.262	-0.221
-531.091	-200.000	-0.019	-0.228
-530.077	-200.000	-0.001	-0.054
-529.062	-200.000	0.018	-0.218
-528.048	12.044	-0.206	-0.159
-527.033	271.319	-0.209	-0.369
-526.018	-159.498	-0.108	0.006
-525.004	800.000	-0.062	-0.236
-523.989	333.804	0.178	0.346
-522.975	94.209	-0.312	0.356
-521.960	-105.276	0.278	0.064
-520.945	7.901	0.064	0.049
-519.931	53.046	0.327	0.315
-518.916	-139.194	0.104	-0.011
-517.902	-92.210	0.182	0.052
-516.887	252.562	0.079	0.136
-515.872	63.440	0.254	-0.256
-514.858	-37.798	-0.366	0.196
-513.843	233.409	-0.020	0.033
-512.829	242.790	0.100	0.169
-511.814	-161.731	-0.367	0.019
-510.799	-138.296	0.154	0.017
-509.785	71.069	-0.157	0.163
-508.770	14.088	0.098	0.077
-507.756	246.703	-0.079	0.133
-506.741	-70.004	0.115	-0.044
-505.726	-200.000	0.058	0.495
-504.712	-200.000	0.039	0.327
-503.697	290.582	-0.194	0.355
-502.683	56.295	-0.109	0.107
-501.668	-46.632	0.305	-0.150
-500.653	-107.271	0.283	-0.063
-499.639	176.940	0.208	0.304
-498.624	-200.000	-0.069	-0.388
-497.610	58.825	0.363	0.358
-496.595	800.000	-0.063	0.195
-495.581	-200.000	-0.025	-0.448
-494.566	-200.000	0.005	-0.214
-493.551	18.982	0.062	0.050
-492.537	-200.000	-0.000	-0.197
-491.522	-126.515	-0.235	0.035
-490.508	142.093	-0.064	0.085
-489.493	-40.526	0.132	0.069
-488.478	-200.000	0.196	0.000
-487.464	-200.000	-0.003	-0.351
-486.449	-200.000	0.192	0.000
-485.435	167.324	0.068	-0.098
-484.420	95.818	0.286	-0.328
-483.405	273.537	-0.169	-0.299
-482.391	251.238	-0.020	0.033
-481.376	-200.000	-0.083	-0.432
-480.362	-89.507	0.159	-0.047
-479.347	-63.753	0.408	0.168
-478.332	-23.349	-0.168	-0.101
-477.318	70.551	-0.061	-0.063
-476.303	7.555	-0.103	0.078
-475.289	-148.888	-0.430	-0.035
-474.274	-35.754	-0.234	0.127
-473.259	-200.000	0.028	0.148
-472.245	-76.037	0.165	0.059
-471.230	350.598	-0.071	0.141
-470.216	167.691	-0.137	0.195
-469.201	-200.000	-0.015	0.171
-468.186	115.866	0.337	-0.414
-467.172	-200.000	0.002	-0.201
-466.157	181.974	-0.405	0.599
-465.143	-109.512	0.213	0.045
-464.128	-80.539	0.214	0.071
-463.113	-158.510	-0.281	0.016
-462.099	-2.711	0.160	0.112
-461.084	-200.000	0.099	0.484
-460.070	800.000	-0.044	-0.142
-459.055	45.871	-0.319	-0.296
-458.040	-200.000	-0.018	0.281
-457.026	33.767	-0.169	-0.148
-456.011	-115.704	-0.191	0.036
-454.997	762.346	0.058	-0.158
-453.982	-113.534	-0.176	0.035
-452.968	228.022	0.198	-0.323
-451.953	-71.306	0.323	0.121
-450.938	-58.282	0.259	-0.113
-449.924	71.834	0.258	-0.269
-448.909	800.000	-0.081	-0.309
-447.895	800.000	-0.075	-0.233
-446.880	-40.416	-0.247	0.129
-445.865	-110.165	-0.138	-0.029
-444.851	-200.000	0.018	0.090
-443.836	-11.312	-0.108	0.072
-442.822	-200.000	0.008	0.114
-441.807	-200.000	-0.002	0.102
-440.792	-200.000	0.009	-0.080
-439.778	-57.220	0.323	-0.143
-438.763	-2.885	-0.273	-0.191
-437.749	354.785	-0.045	-0.089
-436.734	754.617	0.052	-0.142
-435.719	-200.000	0.037	-0.313
-434.705	-170.474	0.209	-0.007
-433.690	-200.000	-0.022	0.128
-432.676	91.283	0.172	0.194
-431.661	-200.000	-0.059	0.310
-430.646	800.000	-0.071	-0.234
-429.632	238.733	0.090	-0.149
-428.617	-101.255	0.168	-0.041
-427.603	-200.000	-0.029	-0.146
-426.588	38.883	-0.173	-0.155
-425.573	-64.849	-0.125	-0.051
-424.559	368.208	0.102	-0.207
-423.544	-200.000	0.036	0.214
-422.530	321.071	-0.188	0.358
-421.515	-56.867	0.011	0.005
-420.500	98.018	-0.180	-0.208
-419.486	42.002	-0.038	0.035
-418.471	-200.000	-0.043	0.198
-417.457	189.439	0.253	0.379
-416.442	26.937	0.161	-0.135
-415.428	-78.792	-0.159	-0.054
-414.413	2.195	0.285	-0.206
-413.398	-200.000	0.009	-0.164
-412.384	-113.881	-0.095	-0.019
-411.369	800.000	-0.030	-0.085
-410.355	93.026	0.238	0.270
-409.340	-101.349	0.295	-0.072
-408.325	688.096	0.054	-0.142
-407.311	-110.452	-0.209	0.043
-406.296	655.918	0.130	0.334
-405.282	-140.639	0.224	0.023
-404.267	667.895	0.125	0.323
-403.252	-28.079	0.479	0.277
-402.238	-83.948	0.375	-0.119
-401.223	800.000	0.025	-0.107
-400.209	-200.000	0.018	-0.084
-399.194	201.090	-0.079	0.122
-398.179	293.062	-0.117	-0.214
-397.165	304.156	0.167	-0.309
-396.150	-28.884	0.302	0.174
-395.136	-71.099	0.242	0.091
-394.121	-29.185	-0.175	-0.101
-393.106	-134.745	0.152	-0.018
-392.092	-59.005	-0.292	0.126
-391.077	-38.761	-0.460	0.243
-390.063	254.907	-0.194	-0.332
-389.048	46.665	-0.133	-0.124
-388.033	16.932	-0.092	-0.073
-387.019	-49.209	-0.127	0.061
-386.004	-98.996	-0.284	-0.072
-384.990	-78.624	0.138	-0.047
-383.975	-137.757	0.547	0.061
-382.960	33.529	-0.081	0.070
-381.946	-49.933	-0.460	0.218
-380.931	0.385	0.206	0.147
-379.917	136.035	0.130	-0.169
-378.902	-60.501	0.403	0.171
-377.888	-59.535	-0.137	0.059
-376.873	800.000	0.008	-0.026
-375.858	-81.436	0.227	-0.075
-374.844	12.297	0.082	0.063
-373.829	-40.109	0.329	0.171
-372.815	-54.224	-0.179	-0.081
-371.800	-15.428	0.348	0.223
-370.785	243.705	0.276	0.463
-369.771	-26.294	0.035	0.021
-368.756	800.000	-0.061	0.215
-367.742	-104.649	0.211	-0.049
-366.727	-200.000	-0.027	0.149
-365.712	-200.000	0.017	0.268
-364.698	99.479	-0.171	0.198
-363.683	-200.000	0.018	-0.133
-362.669	408.111	-0.096	-0.203
-361.654	-31.712	0.148	-0.083
-360.639	-11.746	-0.424	0.278
-359.625	-103.822	-0.303	-0.071
-358.610	-24.144	-0.154	-0.092
-357.596	800.000	0.145	0.410
-356.581	-35.426	0.364	0.198
-355.566	-7.756	0.232	-0.157
-354.552	-200.000	-0.001	0.057
-353.537	-30.585	0.323	-0.183
-352.523	-200.000	-0.002	-0.236
-351.508	-200.000	0.119	-0.000
-350.493	22.988	-0.115	0.094
-349.479	672.683	-0.086	0.222
-348.464	-10.398	0.189	0.125
-347.450	-107.967	-0.209	-0.045
-346.435	-192.537	-0.051	-0.000
-345.420	-200.000	-0.003	-0.331
-344.406	-73.817	-0.182	0.066
-343.391	-34.494	0.277	0.152
-342.377	-48.605	-0.203	0.098
-341.362	-200.000	0.034	0.182
-340.348	63.038	0.062	0.062
-339.333	46.576	0.416	0.386
-338.318	800.000	-0.118	0.348
-337.304	-66.596	-0.174	-0.069
-336.289	-126.030	0.203	0.031
-335.275	-72.041	0.150	-0.056
-334.260	286.427	-0.175	-0.316
-333.245	167.206	0.192	-0.272
-332.231	84.886	0.096	0.105
-331.216	-184.784	-0.156	0.002
-330.202	-162.841	0.356	0.017
-329.187	-19.141	-0.303	-0.188
-328.172	-200.000	-0.008	0.057
-327.158	94.803	0.188	0.213
-326.143	449.665	-0.122	-0.268
-325.129	660.409	-0.139	0.358
-324.114	-124.581	-0.111	0.017
-323.099	-169.554	-0.195	0.007
-322.085	279.851	0.156	-0.279
-321.070	92.912	0.042	0.048
-320.056	-97.845	0.380	0.098
-319.041	669.812	-0.027	-0.069
-318.026	-200.000	0.005	0.078
-317.012	398.710	0.090	0.188
-315.997	13.019	-0.322	0.249
-314.983	64.806	-0.326	-0.328
-313.968	-11.759	-0.108	0.071
-312.953	-35.837	-0.313	-0.169
-311.939	-126.503	-0.434	-0.064
-310.924	800.000	0.090	0.259
-309.910	357.586	0.151	-0.300
-308.895	-56.981	0.072	0.032
-307.880	-185.271	-0.257	0.004
-306.866	-200.000	-0.013	0.066
-305.851	148.967	0.043	0.057
-304.837	-200.000	-0.030	0.459
-303.822	-22.910	-0.094	-0.056
-302.807	-62.921	0.086	0.036
-301.793	13.248	-0.063	-0.049
-300.778	-76.818	0.118	-0.041
-299.764	-155.364	-0.400	-0.026
-298.749	-95.618	0.025	0.007
-297.735	57.068	-0.122	-0.118
-296.720	-200.000	0.021	-0.115
-295.705	800.000	-0.038	0.136
-294.691	-0.185	-0.062	0.044
-293.676	354.659	-0.116	0.229
-292.662	66.079	0.147	0.149
-291.647	153.068	0.132	-0.179
-290.632	-200.000	0.004	-0.292
-289.618	-142.087	0.321	-0.032
-288.603	-200.000	0.004	-0.150
-287.589	217.177	-0.129	-0.205
-286.574	-200.000	0.014	-0.063
-285.559	-144.718	-0.225	-0.021
-284.545	43.357	-0.154	-0.140
-283.530	71.178	0.136	-0.141
-282.516	688.225	-0.059	-0.154
-281.501	136.681	0.132	-0.172
-280.486	-174.116	0.378	-0.011
-279.472	800.000	-0.028	-0.112
-278.457	-142.332	-0.295	0.029
-277.443	-200.000	0.039	-0.190
-276.428	3.549	-0.149	-0.108
-275.413	-98.529	-0.244	0.062
-274.399	-77.461	0.358	-0.124
-273.384	53.294	-0.269	-0.257
-272.370	-38.354	-0.103	-0.054
-271.355	-82.456	-0.054	0.017
-270.340	-86.477	-0.117	0.036
-269.326	-122.498	-0.150	-0.024
-268.311	26.067	0.180	0.150
-267.297	46.516	-0.233	0.215
-266.282	171.990	0.077	0.110
-265.267	-200.000	0.029	0.214
-264.253	-200.000	0.004	-0.076
-263.238	800.000	0.103	0.306
-262.224	800.000	0.089	-0.388
-261.209	-3.632	-0.116	-0.080
-260.195	-200.000	0.007	0.099
-259.180	250.426	-0.046	0.078
-258.165	-74.180	-0.181	-0.065
-257.151	51.236	0.026	-0.024
-256.136	-98.306	-0.270	-0.069
-255.122	-16.320	0.128	-0.081
-254.107	-136.166	0.222	-0.026
-253.092	-49.774	-0.322	0.152
-252.078	-115.664	-0.123	-0.023
-251.063	800.000	-0.022	-0.086
-250.049	800.000	-0.053	-0.170
-249.034	733.580	-0.031	0.083
-248.019	784.842	-0.049	-0.132
-247.005	493.729	-0.120	-0.274
-245.990	122.192	0.224	-0.279
-244.976	-31.265	0.118	-0.066
-243.961	-75.111	-0.280	-0.100
-242.946	-34.419	0.193	0.105
-241.932	-200.000	-0.014	-0.114
-240.917	-200.000	0.074	-0.380
-239.903	800.000	0.025	-0.088
-238.888	800.000	0.074	-0.259
-237.873	233.072	0.197	-0.322
-236.859	371.283	-0.142	-0.286
-235.844	8.543	-0.212	-0.159
-234.830	-200.000	-0.031	-0.134
-233.815	-156.761	0.274	-0.017
-232.800	39.512	-0.192	-0.171
-231.786	-125.787	-0.391	-0.059
-230.771	-61.093	0.230	0.097
-229.757	-200.000	0.007	-0.070
-228.742	800.000	0.048	0.162
-227.727	-161.302	-0.352	-0.018
-226.713	72.172	-0.175	0.182
-225.698	-200.000	0.008	0.082
-224.684	-200.000	0.019	0.135
-223.669	66.009	-0.066	-0.067
-222.655	3.902	-0.222	-0.161
-221.640	308.026	0.251	0.465
-220.625	194.311	0.104	-0.157
-219.611	396.290	0.008	-0.017
-218.596	5.781	-0.210	0.154
-217.582	-128.664	-0.156	0.022
-216.567	-200.000	-0.018	0.267
-215.552	344.586	-0.202	0.394
-214.538	-67.600	0.158	-0.062
-213.523	363.559	-0.111	0.221
-212.509	-111.378	0.103	0.021
-211.494	-200.000	0.014	-0.086
-210.479	-162.238	0.087	-0.004
-209.465	-200.000	0.035	-0.175
-208.450	-9.987	0.154	0.102
-207.436	800.000	-0.072	-0.262
-206.421	-200.000	-0.047	-0.280
-205.406	-200.000	0.025	0.300
-204.392	110.423	-0.213	-0.254
-203.377	-200.000	-0.002	-0.028
-202.363	-66.328	0.123	-0.049
-201.348	800.000	0.115	0.333
-200.333	800.000	0.102	0.325
-199.319	3.602	0.327	-0.237
-198.304	800.000	-0.065	-0.235
-197.290	-118.084	0.248	0.044
-196.275	51.636	-0.107	0.101
-195.260	228.730	-0.140	0.227
-194.246	553.383	-0.136	0.325
-193.231	-156.532	-0.375	-0.023
-192.217	40.256	-0.161	0.144
-191.202	508.677	-0.099	-0.227
-190.187	111.216	0.158	-0.189
-189.173	-84.381	-0.237	0.074
-188.158	-56.266	0.234	-0.103
-187.144	69.554	-0.288	0.295
-186.129	145.788	-0.085	-0.113
-185.114	48.067	0.188	0.175
-184.100	800.000	0.040	-0.139
-183.085	164.312	-0.122	0.171
-182.071	-200.000	-0.007	0.190
-181.056	-88.285	-0.185	-0.055
-180.042	418.240	0.055	0.117
-179.027	32.865	-0.092	0.079
-178.012	99.545	0.056	-0.065
-176.998	-119.526	-0.089	0.015
-175.983	-39.178	0.075	-0.039
-174.969	304.148	0.117	-0.215
-173.954	1.333	-0.069	-0.049
-172.939	-134.051	-0.083	0.010
-171.925	800.000	0.021	-0.076
-170.910	412.525	0.031	0.066
-169.896	14.883	-0.072	0.056
-168.881	-147.958	-0.169	-0.014
-167.866	325.051	-0.119	0.226
-166.852	-21.718	0.487	0.294
-165.837	800.000	-0.033	0.112
-164.823	-200.000	-0.008	0.084
-163.808	-124.860	0.256	-0.039
-162.793	-48.184	-0.056	-0.027
-161.779	-200.000	0.013	-0.224
-160.764	-115.859	-0.298	0.055
-159.750	-200.000	0.002	0.075
-158.735	800.000	-0.145	0.482
-157.720	132.231	0.105	-0.133
-156.706	30.894	-0.205	-0.174
-155.691	-104.949	0.322	-0.073
-154.677	764.512	0.096	0.259
-153.662	72.082	-0.138	0.142
-152.647	800.000	0.035	-0.110
-151.633	404.081	-0.182	-0.379
-150.618	131.733	0.075	0.096
-149.604	51.049	0.278	0.262
-148.589	-200.000	-0.007	-0.053
-147.574	-169.428	0.240	0.009
-146.560	275.882	-0.130	0.229
-145.545	800.000	0.040	-0.126
-144.531	-7.531	-0.114	-0.077
-143.516	13.065	0.167	0.128
-142.502	-122.955	-0.042	-0.007
-141.487	137.565	0.203	-0.263
-140.472	-200.000	-0.087	-0.475
-139.458	115.234	-0.178	0.215
-138.443	800.000	-0.009	-0.033
-137.429	-114.208	-0.127	0.024
-136.414	394.308	0.054	-0.112
-135.399	65.972	0.234	-0.235
-134.385	55.249	0.180	-0.173
-133.370	-200.000	-0.006	-0.190
-132.356	-75.397	0.207	-0.073
-131.341	132.890	0.122	-0.156
-130.326	-104.256	-0.391	0.090
-129.312	-200.000	-0.000	0.050
-128.297	-6.749	-0.172	0.116
-127.283	-200.000	-0.002	0.206
-126.268	-66.103	-0.040	-0.016
-125.253	800.000	-0.052	0.195
-124.239	-12.159	-0.305	0.197
-123.224	282.745	-0.086	-0.154
-122.210	-106.157	-0.102	-0.023
-121.195	161.865	-0.023	0.032
-120.180	50.062	0.125	-0.117
-119.166	10.278	-0.299	0.226
-118.151	-200.000	0.003	0.020
-117.137	-46.548	-0.187	0.091
-116.122	157.781	-0.237	-0.325
-115.107	-85.100	0.252	0.078
-114.093	800.000	0.026	-0.088
-113.078	7.927	0.119	-0.088
-112.064	339.082	0.127	-0.245
-111.049	-107.812	0.171	0.037
-110.034	339.880	-0.042	-0.081
-109.020	-200.000	0.037	-0.187
-108.005	694.295	-0.025	-0.066
-106.991	-55.702	0.141	-0.062
-105.976	8.516	-0.066	-0.049
-104.962	-56.722	-0.168	-0.073
-103.947	-36.263	-0.348	0.186
-102.932	800.000	0.012	0.046
-101.918	130.335	0.278	0.352
-100.903	-9.056	0.143	0.095
-99.889	-56.762	0.093	-0.041
-98.874	-127.727	-0.197	0.028
-97.859	-200.000	-0.032	0.203
-96.845	89.564	0.221	0.244
-95.830	-84.537	-0.153	-0.048
-94.816	184.017	-0.175	0.257
-93.801	-61.329	0.387	0.161
-92.786	-106.481	0.135	-0.030
-91.772	179.953	-0.168	0.244
-90.757	740.019	-0.123	0.327
-89.743	-200.000	-0.006	0.082
-88.728	-131.101	-0.170	-0.022
-87.713	-104.154	-0.286	0.066
-86.699	-68.662	0.304	-0.116
-85.684	-200.000	0.001	-0.340
-84.670	53.401	-0.078	0.074
-83.655	-35.472	0.177	-0.095
-82.640	-75.955	0.185	0.065
-81.626	-200.000	-0.027	-0.143
-80.611	249.215	0.102	0.171
-79.597	-46.960	0.216	0.104
-78.582	-136.413	0.263	0.030
-77.567	-64.478	-0.095	-0.038
-76.553	-200.000	-0.052	-0.404
-75.538	800.000	-0.076	-0.299
-74.524	-200.000	-0.003	0.121
-73.509	-200.000	-0.006	0.377
-72.494	-200.000	-0.067	-0.371
-71.480	-29.655	-0.147	0.083
-70.465	37.931	0.205	0.180
-69.451	-200.000	-0.017	0.153
-68.436	-17.527	-0.314	-0.195
-67.422	90.039	-0.203	-0.225
-66.407	-82.963	0.126	0.040
-65.392	58.056	-0.236	0.228
-64.378	160.601	0.137	0.189
-63.363	-107.297	-0.264	0.057
-62.349	800.000	0.120	0.344
-61.334	11.302	-1.047	-0.792
-60.319	81.099	0.581	0.620
-59.305	800.000	-0.271	-1.075
-58.290	-200.000	0.241	1.069
-57.276	222.873	0.694	1.104
-56.261	-200.000	94.222	556.588
-55.246	546.617	1367.809	3230.674
-54.232	157.451	2554.937	3491.734
-53.217	113.419	2183.173	2616.527
-52.203	46.199	1721.601	1574.739
-51.188	39.101	1529.765	1350.652
-50.173	36.555	1502.319	1309.149
-49.159	55.079	1550.402	1478.850
-48.144	58.525	1569.021	1520.242
-47.130	39.295	1526.788	1349.138
-46.115	36.081	1511.958	1314.107
-45.100	35.895	1508.944	1310.173
-44.086	36.026	1506.369	1308.773
-43.071	35.879	1505.066	1306.590
-42.057	35.791	1503.414	1304.505
-41.042	35.778	1501.908	1303.061
-40.027	35.766	1500.731	1301.906
-39.013	35.860	1498.613	1300.652
-37.998	35.846	1497.540	1299.574
-36.984	35.926	1496.433	1299.105
-35.969	35.820	1495.457	1297.490
-34.954	35.909	1493.447	1296.295
-33.940	35.854	1491.652	1294.312
-32.925	35.769	1491.018	1293.145
-31.911	35.881	1489.281	1292.338
-30.896	36.005	1488.274	1292.244
-29.881	35.933	1486.961	1290.570
-28.867	36.017	1484.959	1289.341
-27.852	36.015	1484.069	1288.502
-26.838	35.967	1483.079	1287.277
-25.823	35.906	1481.190	1285.179
-24.809	35.927	1479.242	1283.573
-23.794	35.923	1478.078	1282.488
-22.779	35.740	1477.077	1280.348
-21.765	35.855	1475.955	1280.091
-20.750	35.923	1474.624	1279.339
-19.736	35.987	1473.688	1278.902
-18.721	35.890	1472.970	1277.580
-17.706	36.019	1471.363	1276.993
-16.692	35.894	1470.339	1275.225
-15.677	35.852	1469.697	1274.342
-14.663	35.987	1468.036	1273.739
-13.648	35.920	1467.352	1272.657
-12.633	35.757	1466.867	1271.107
-11.619	35.911	1465.709	1271.068
-10.604	35.848	1464.975	1269.967
-9.590	35.875	1464.203	1269.424
-8.575	35.943	1462.950	1268.737
-7.560	35.892	1462.528	1267.982
-6.546	35.817	1461.534	1266.579
-5.531	35.854	1460.558	1265.926
-4.517	35.800	1459.713	1264.790
-3.502	35.917	1458.282	1264.267
-2.487	35.862	1457.286	1262.993
-1.473	35.819	1456.579	1262.044
-0.458	35.813	1455.186	1260.748
0.556	33.606	1444.162	1244.420
1.571	28.565	1414.430	1186.194
2.586	22.502	1348.963	1093.678
3.600	19.473	1263.287	1006.484
4.615	17.734	1216.808	959.592
5.629	15.451	1162.427	904.339
6.644	8.107	1079.328	802.753
7.659	1.499	1038.032	739.885
8.673	0.443	1032.122	730.499
9.688	0.258	1029.438	727.641
10.702	0.065	1028.326	725.858
11.717	0.244	1025.814	724.881
12.731	2.562	1027.633	737.267
13.746	9.976	1037.925	780.518
14.761	16.224	1045.567	816.517
15.775	17.213	1046.115	821.660
16.790	16.615	1044.207	817.198
17.804	15.630	1042.364	810.937
18.819	14.734	1040.380	805.001
19.834	14.210	1039.120	801.435
20.848	13.834	1038.524	799.093
21.863	13.730	1037.137	797.454
22.877	13.467	1036.938	795.965
23.892	13.252	1035.761	793.961
24.907	13.190	1034.946	792.967
25.921	13.087	1034.160	791.801
26.936	13.239	1033.491	791.946
27.950	13.245	1032.818	791.392
28.965	13.338	1031.848	791.023
29.980	13.289	1031.362	790.345
30.994	13.534	1029.967	790.375
32.009	13.381	1029.409	789.148
33.023	13.463	1028.475	788.751
34.038	13.485	1028.014	788.436
35.053	13.365	1027.144	787.126
36.067	13.334	1026.460	786.386
37.082	13.289	1025.401	785.290
38.096	13.453	1024.474	785.291
39.111	13.381	1024.211	784.678
40.126	13.419	1023.132	783.958
41.140	13.450	1022.081	783.234
42.155	13.283	1021.419	781.866
43.169	13.222	1020.384	780.716
44.184	13.122	1019.871	779.781
45.199	13.192	1018.668	779.124
46.213	13.263	1017.123	778.210
47.228	13.215	1016.691	777.583
48.242	13.274	1015.214	776.660
49.257	13.301	1014.268	775.997
50.271	13.224	1013.806	775.210
51.286	13.182	1013.066	774.382
52.301	13.340	1011.771	774.063
53.315	13.431	1011.111	773.912
54.330	13.299	1010.394	772.682
55.344	13.209	1009.739	771.691
56.359	13.142	1009.002	770.746
57.374	13.137	1007.946	769.848
58.388	13.266	1007.078	769.720
59.403	13.168	1006.404	768.678
60.417	13.055	1005.721	767.562
61.432	13.211	1005.014	767.679
62.447	13.104	1004.538	766.752
63.461	13.094	1003.316	765.704
64.476	13.154	1002.571	765.349
65.490	13.145	1001.937	764.754
66.505	13.091	1000.703	763.495
67.520	13.188	999.847	763.224
68.534	13.216	999.191	762.784
69.549	13.219	998.546	762.237
70.563	13.134	997.793	761.204
71.578	13.314	997.109	761.442
72.593	13.201	996.385	760.301
73.607	13.163	995.649	759.498
74.622	13.110	994.484	758.298
75.636	12.899	993.957	756.863
76.651	13.070	992.797	756.697
77.666	13.172	991.930	756.435
78.680	13.120	991.450	755.765
79.695	13.040	991.348	755.254
80.709	13.003	990.924	754.695
81.724	13.117	989.577	754.124
82.739	13.249	988.724	754.008
83.753	13.154	988.264	753.158
84.768	13.153	987.396	752.425
85.782	13.363	986.696	752.781
86.797	13.329	985.850	751.913
87.812	13.394	984.828	751.365
88.826	13.400	983.721	750.480
89.841	13.268	983.503	749.647
90.855	13.339	982.662	749.263
91.870	13.419	981.481	748.656
92.884	13.269	981.601	748.007
93.899	13.306	980.655	747.384
94.914	13.299	979.895	746.709
95.928	13.606	978.784	747.179
96.943	13.475	978.092	745.995
97.957	13.507	977.403	745.548
98.972	13.454	976.333	744.427
99.987	13.446	975.684	743.832
101.001	13.325	975.478	743.065
102.016	13.355	974.735	742.567
103.030	13.399	973.347	741.641
104.045	13.376	972.377	740.734
105.060	13.380	971.113	739.722
106.074	13.263	970.722	738.835
107.089	13.393	969.723	738.589
108.103	13.330	968.833	737.566
109.118	13.210	967.964	736.307
110.133	13.336	967.262	736.266
111.147	13.142	966.902	735.066
112.162	13.149	966.155	734.464
113.176	13.220	965.070	733.888
114.191	13.271	964.191	733.382
115.206	13.395	963.165	733.087
116.220	13.354	962.222	732.123
117.235	13.290	961.662	731.349
118.249	13.376	960.669	730.906
119.264	13.283	960.010	729.933
120.279	13.274	959.363	729.336
121.293	13.284	958.527	728.680
122.308	13.259	957.814	727.963
123.322	13.279	956.808	727.219
124.337	13.288	955.595	726.272
125.352	13.200	954.859	725.263
126.366	13.232	953.829	724.558
127.381	13.244	952.484	723.524
128.395	13.133	951.900	722.534
129.410	13.236	951.238	722.417
130.424	13.358	949.942	721.902
131.439	13.422	949.304	721.631
132.454	13.408	948.016	720.526
133.468	13.357	947.701	720.003
134.483	13.450	946.649	719.542
135.497	13.404	946.150	718.902
136.512	13.359	945.658	718.269
137.527	13.240	945.099	717.261
138.541	13.431	943.758	717.008
139.556	13.275	943.492	716.067
140.570	13.376	942.402	715.615
141.585	13.422	941.504	715.066
142.600	13.546	940.834	715.032
143.614	13.464	940.240	714.162
144.629	13.470	939.345	713.446
145.643	13.600	938.831	713.551
146.658	13.549	937.921	712.577
147.673	13.454	937.036	711.435
148.687	13.548	935.833	710.860
149.702	13.450	935.521	710.140
150.716	13.395	934.482	709.053
151.731	13.361	933.653	708.216
152.746	13.383	933.080	707.814
153.760	13.382	932.195	707.074
154.775	13.473	931.339	706.753
155.789	13.520	930.723	706.421
156.804	13.541	929.774	705.729
157.819	13.496	929.447	705.226
158.833	13.611	928.609	705.019
159.848	13.602	927.867	704.352
160.862	13.551	927.569	703.849
161.877	13.549	926.640	703.073
162.892	13.450	926.144	702.214
163.906	13.440	924.959	701.212
164.921	13.593	924.095	701.143
165.935	13.594	922.901	700.178
166.950	13.466	922.685	699.412
167.964	13.623	921.614	699.200
168.979	13.602	920.333	698.077
169.994	13.579	919.556	697.327
171.008	13.433	919.212	696.392
172.023	13.597	918.259	696.297
173.037	13.603	917.171	695.438
174.052	13.618	916.774	695.139
175.067	13.713	915.887	694.801
176.081	13.651	915.165	693.933
177.096	13.716	914.021	693.277
178.110	13.656	913.781	692.784
179.125	13.677	913.260	692.414
180.140	13.647	912.049	691.310
181.154	13.736	911.423	691.142
182.169	13.752	910.672	690.579
183.183	13.786	910.196	690.299
184.198	13.818	909.689	689.986
185.213	13.854	908.678	689.307
186.227	13.874	908.476	689.176
187.242	13.775	907.899	688.267
188.256	13.862	907.497	688.264
189.271	14.012	906.498	688.066
190.286	13.911	905.833	687.081
191.300	13.720	905.376	685.884
192.315	13.627	904.817	685.017
193.329	13.680	903.868	684.454
194.344	13.742	903.027	684.015
195.359	13.783	902.527	683.743
196.373	13.900	901.559	683.432
197.388	13.960	901.478	683.556
198.402	13.982	900.822	683.088
199.417	13.886	900.718	682.557
200.432	14.123	899.809	682.780
201.446	14.031	899.716	682.269
202.461	14.301	898.859	682.669
203.475	14.189	898.487	681.864
204.490	14.181	897.869	681.302
205.504	14.163	897.108	680.592
206.519	14.083	896.431	679.692
207.534	14.090	895.713	679.117
208.548	14.060	894.734	678.191
209.563	13.998	894.325	677.567
210.577	14.232	893.469	677.811
211.592	14.177	893.003	677.176
212.607	14.228	892.701	677.091
213.621	14.313	892.037	676.875
214.636	14.255	891.253	675.986
215.650	14.160	890.726	675.141
216.665	14.334	889.884	675.148
217.680	14.248	889.367	674.346
218.694	14.325	888.671	674.070
219.709	14.330	888.217	673.685
220.723	14.333	888.070	673.528
221.738	14.362	886.898	672.695
222.753	14.222	886.724	671.939
223.767	14.276	886.067	671.601
224.782	14.315	884.967	670.867
225.796	14.441	884.425	670.903
226.811	14.446	883.704	670.317
227.826	14.501	882.575	669.621
228.840	14.478	881.985	669.022
229.855	14.498	881.738	668.854
230.869	14.551	880.919	668.389
231.884	14.437	880.244	667.360
232.899	14.379	879.661	666.626
233.913	14.524	878.719	666.433
234.928	14.498	878.335	665.978
235.942	14.391	877.748	665.049
236.957	14.365	877.336	664.573
237.972	14.408	876.378	663.960
238.986	14.439	875.805	663.590
240.001	14.484	875.212	663.262
241.015	14.457	874.276	662.386
242.030	14.500	873.954	662.255
243.045	14.482	873.168	661.529
244.059	14.597	872.589	661.487
245.074	14.652	871.995	661.195
246.088	14.575	871.059	660.125
247.103	14.692	870.723	660.273
248.117	14.696	869.991	659.678
249.132	14.625	869.947	659.303
250.147	14.759	868.935	659.007
251.161	14.686	868.633	658.431
252.176	15.017	867.585	658.883
253.190	14.791	867.216	657.654
254.205	14.941	866.591	657.714
255.220	14.980	865.736	657.159
256.234	15.000	865.083	656.682
257.249	14.901	864.606	655.875
258.263	15.057	864.162	656.092
259.278	14.931	863.667	655.166
260.293	15.006	863.334	655.146
261.307	15.013	862.500	654.485
262.322	15.160	861.764	654.442
263.336	15.023	861.324	653.513
264.351	15.217	860.488	653.577
265.366	15.151	860.007	652.900
266.380	15.179	859.491	652.557
267.395	15.192	858.620	651.891
268.409	15.094	858.099	651.057
269.424	15.206	857.355	650.870
270.439	15.054	856.925	649.892
271.453	15.151	856.206	649.668
272.468	15.209	855.367	649.197
273.482	15.158	854.873	648.568
274.497	15.096	854.271	647.814
275.512	15.095	853.535	647.194
276.526	15.173	852.773	646.861
277.541	15.083	852.180	646.007
278.555	15.154	851.460	645.677
279.570	15.221	850.980	645.513
280.585	15.308	850.317	645.290
281.599	15.318	849.992	645.024
282.614	15.417	849.399	644.896
283.628	15.406	848.510	644.123
284.643	15.233	848.288	643.233
285.657	15.334	847.633	643.068
286.672	15.308	847.142	642.537
287.687	15.478	846.483	642.632
288.701	15.409	846.095	642.016
289.716	15.410	845.561	641.560
290.730	15.274	845.022	640.572
291.745	15.490	844.496	640.943
292.760	15.493	843.685	640.280
293.774	15.463	843.330	639.842
294.789	15.608	842.805	639.941
295.803	15.522	842.094	639.014
296.818	15.433	841.599	638.244
297.833	15.592	840.414	637.892
298.847	15.597	839.828	637.412
299.862	15.559	839.356	636.852
300.876	15.745	838.449	636.811
301.891	15.639	837.992	636.006
302.906	15.702	837.481	635.801
303.920	15.652	837.091	635.261
304.935	15.633	836.225	634.474
305.949	15.777	835.517	634.425
306.964	15.590	835.385	633.563
307.979	15.667	834.503	633.130
308.993	15.798	834.174	633.318
310.008	15.881	833.341	632.940
311.022	15.840	832.882	632.382
312.037	15.821	832.434	631.914
313.052	15.897	831.740	631.617
314.066	15.750	831.120	630.538
315.081	15.702	830.585	629.897
316.095	15.784	830.252	629.894
317.110	15.870	829.276	629.421
318.125	15.846	828.974	629.045
319.139	15.815	828.503	628.516
320.154	15.789	828.226	628.154
321.168	15.742	827.440	627.327
322.183	15.771	827.015	627.057
323.197	15.801	826.616	626.812
324.212	16.018	825.787	626.934
325.227	15.990	825.168	626.305
326.241	15.905	825.087	625.874
327.256	15.888	824.238	625.110
328.270	15.935	823.747	624.858
329.285	15.920	823.118	624.269
330.300	16.022	822.482	624.109
331.314	16.120	822.095	624.123
332.329	16.036	821.200	623.078
333.343	16.000	820.561	622.406
334.358	15.946	820.960	622.452
335.373	16.191	819.703	622.347
336.387	16.025	819.516	621.539
337.402	16.150	818.916	621.490
338.416	16.128	818.481	621.024
339.431	16.250	817.706	620.831
340.446	16.310	817.200	620.609
341.460	16.327	816.363	619.985
342.475	16.298	816.055	619.588
343.489	16.392	815.316	619.315
344.504	16.314	814.631	618.455
345.519	16.472	814.373	618.785
346.533	16.362	813.751	617.854
347.548	16.457	813.476	617.938
348.562	16.509	812.763	617.532
349.577	16.386	812.961	617.179
350.592	16.342	811.980	616.217
351.606	16.359	811.410	615.792
352.621	16.298	811.101	615.282
353.635	16.320	810.828	615.100
354.650	16.295	809.983	614.315
355.665	16.544	809.858	615.070
356.679	16.403	809.461	614.203
357.694	16.255	809.332	613.512
358.708	16.513	808.304	613.613
359.723	16.426	807.559	612.678
360.738	16.547	806.944	612.596
361.752	16.419	806.788	611.962
362.767	16.489	806.406	611.869
363.781	16.477	805.950	611.426
364.796	16.564	805.499	611.345
365.810	16.808	805.020	611.808
366.825	16.619	804.545	610.709
367.840	16.596	804.626	610.635
368.854	16.680	803.622	610.120
369.869	16.672	803.310	609.804
370.883	16.681	803.074	609.602
371.898	16.770	802.389	609.349
372.913	16.723	801.775	608.659
373.927	16.716	801.303	608.222
374.942	16.852	800.345	607.927
375.956	16.827	799.648	607.254
376.971	16.949	799.430	607.472
377.986	16.871	798.927	606.757
379.000	16.948	798.359	606.549
380.015	16.978	797.627	606.046
381.029	16.956	797.182	605.576
382.044	16.914	796.657	604.973
383.059	16.926	796.201	604.615
384.073	16.871	795.956	604.181
385.088	16.948	795.589	604.122
386.102	16.897	794.652	603.177
387.117	16.957	794.165	602.968
388.132	16.908	793.839	602.491
389.146	16.998	793.385	602.415
390.161	17.083	793.305	602.601
391.175	17.126	792.580	602.149
392.190	17.084	792.103	601.585
393.205	16.979	792.156	601.198
394.219	17.059	791.724	601.102
395.234	16.951	791.043	600.149
396.248	17.119	790.259	600.097
397.263	16.990	789.892	599.309
398.278	16.899	789.516	598.650
399.292	16.981	788.793	598.338
400.307	16.997	788.413	598.052
401.321	16.961	788.482	597.924
402.336	17.121	787.957	598.038
403.350	17.090	787.613	597.615
404.365	17.038	787.181	597.051
405.380	17.258	786.544	597.287
406.394	17.201	786.271	596.826
407.409	17.236	785.632	596.412
408.423	17.249	785.320	596.170
409.438	17.352	784.784	596.070
410.453	17.381	784.406	595.831
411.467	17.457	783.672	595.487
412.482	17.464	782.955	594.914
413.496	17.397	782.733	594.458
414.511	17.481	782.563	594.572
415.526	17.565	781.985	594.372
416.540	17.396	781.879	593.649
417.555	17.363	781.523	593.210
418.569	17.473	780.864	593.040
419.584	17.643	780.295	593.149
420.599	17.621	780.131	592.894
421.613	104.774	1281.718	1443.711
422.628	89.509	1354.792	1443.845
