DTS Sentinel unit serial number:	SN413079Multiplexer serial number:	ORYXHardware model number:	OX4-SRSoftware version number:	ORYX F/W v4.00 Oryx Data Collector v3.7.2.0data status	okinstallation	princeton_trtdifferential loss correction	single-endedforward channel	channel 3reverse channel	N/Adate	2019/09/16time	11:08:35forward acquisition time	60.00reverse acquisition time	0.00gamma	496.2192k internal	0.2299k external	0.2299temperature offset calibration	0.9948default loss term (dB/km)	0.3790temperature slope calibration	1.0000multiplexer offset coefficient	1.0000multiplexer slope coefficient	1.0000fibre end	0.00T internal ref (°C)	37.06T ext. ref 1 (°C)	12.80T ext. ref 2 (°C)	33.43length (m)	temperature (°C)	Stokes	anti-Stokes-747.200	-134.169	-0.380	-0.048
-746.185	-200.000	-0.171	-0.000
-745.171	377.982	-0.131	0.273
-744.156	-2.992	-0.052	0.037
-743.142	341.785	-0.052	0.104
-742.127	14.413	-0.269	0.214
-741.112	1.477	-0.092	0.068
-740.098	114.502	-0.023	0.028
-739.083	-69.859	0.219	0.085
-738.069	634.002	-0.064	0.164
-737.054	365.100	0.132	0.270
-736.039	800.000	0.027	-0.104
-735.025	-19.235	0.177	-0.112
-734.010	130.456	0.138	-0.180
-732.996	-97.432	0.144	0.038
-731.981	45.732	0.295	-0.278
-730.966	800.000	-0.056	-0.243
-729.952	531.482	-0.141	-0.341
-728.937	140.030	0.069	-0.093
-727.923	109.016	-0.261	0.318
-726.908	4.940	0.160	-0.120
-725.894	41.991	-0.081	-0.075
-724.879	-8.140	-0.197	0.135
-723.864	147.341	0.126	0.173
-722.850	800.000	0.074	0.265
-721.835	657.427	-0.029	-0.077
-720.821	323.451	-0.125	0.242
-719.806	-46.721	-0.375	-0.187
-718.791	143.419	0.036	-0.049
-717.777	105.469	-0.193	0.233
-716.762	-80.793	-0.164	-0.056
-715.748	-71.064	0.255	-0.098
-714.733	-200.000	0.014	0.117
-713.718	-35.656	-0.265	-0.146
-712.704	-89.142	0.287	0.086
-711.689	9.835	-0.160	0.124
-710.675	800.000	0.009	-0.031
-709.660	-57.269	-0.195	0.088
-708.645	-33.346	0.370	0.209
-707.631	-57.511	-0.227	-0.101
-706.616	-109.555	-0.340	-0.073
-705.602	-28.347	-0.240	-0.141
-704.587	739.965	0.075	-0.206
-703.572	-56.001	-0.200	0.091
-702.558	359.244	0.167	-0.340
-701.543	163.287	-0.148	-0.212
-700.529	268.553	0.105	0.187
-699.514	146.288	0.136	-0.185
-698.499	-67.694	-0.279	0.111
-697.485	19.512	-0.172	-0.141
-696.470	245.256	0.105	-0.180
-695.456	57.907	-0.259	-0.258
-694.441	800.000	-0.051	0.216
-693.426	-42.754	-0.187	0.097
-692.412	-200.000	-0.021	0.585
-691.397	-96.692	-0.197	0.053
-690.383	-200.000	0.014	-0.112
-689.368	-72.036	-0.252	0.095
-688.354	436.421	-0.233	0.517
-687.339	-44.834	0.396	-0.201
-686.324	407.989	0.058	0.125
-685.310	12.184	-0.125	-0.098
-684.295	197.608	0.036	-0.055
-683.281	230.104	-0.156	0.260
-682.266	-200.000	-0.022	0.101
-681.251	-119.851	0.267	-0.047
-680.237	-153.532	-0.235	-0.017
-679.222	-101.257	-0.196	-0.049
-678.208	372.060	0.040	-0.083
-677.193	-15.625	-0.097	0.063
-676.178	-200.000	-0.005	-0.063
-675.164	109.016	-0.118	0.144
-674.149	-16.850	-0.289	0.186
-673.135	124.916	-0.030	0.038
-672.120	293.545	0.156	-0.290
-671.105	221.970	-0.100	0.163
-670.091	-200.000	0.076	0.352
-669.076	-200.000	-0.020	-0.147
-668.062	-51.513	0.233	0.111
-667.047	-166.113	0.213	0.009
-666.032	-200.000	0.076	0.363
-665.018	735.204	-0.108	0.294
-664.003	105.273	-0.103	-0.123
-662.989	-160.382	0.231	-0.013
-661.974	800.000	0.066	0.258
-660.959	316.158	-0.170	-0.326
-659.945	-70.737	-0.141	-0.054
-658.930	-7.682	-0.139	0.095
-657.916	264.505	0.090	0.159
-656.901	-158.350	0.360	-0.021
-655.886	69.236	-0.188	0.196
-654.872	-52.431	-0.127	-0.060
-653.857	-102.608	-0.164	0.040
-652.843	800.000	-0.043	-0.122
-651.828	800.000	-0.066	-0.273
-650.814	90.237	-0.098	-0.111
-649.799	-85.612	-0.109	0.035
-648.784	-91.094	-0.085	-0.025
-647.770	521.989	-0.044	0.105
-646.755	17.722	0.144	0.116
-645.741	-37.015	0.188	-0.102
-644.726	-200.000	-0.012	-0.120
-643.711	129.127	0.244	0.316
-642.697	-130.410	-0.380	-0.052
-641.682	436.494	0.045	0.100
-640.668	-108.347	0.148	-0.032
-639.653	-52.612	-0.271	-0.127
-638.638	65.112	0.017	-0.018
-637.624	-200.000	0.009	0.080
-636.609	6.274	0.210	-0.158
-635.595	43.552	-0.319	0.296
-634.580	22.568	0.071	0.059
-633.565	-6.672	0.304	-0.210
-632.551	-60.040	-0.062	0.027
-631.536	-200.000	0.018	-0.389
-630.522	-200.000	-0.051	-0.327
-629.507	-61.354	0.169	-0.072
-628.492	588.992	0.032	-0.081
-627.478	10.968	-0.163	0.126
-626.463	648.218	0.188	0.487
-625.449	800.000	0.059	-0.211
-624.434	64.214	-0.026	0.027
-623.419	-123.104	-0.260	-0.042
-622.405	-200.000	0.078	-0.383
-621.390	-130.682	-0.153	0.021
-620.376	215.399	-0.206	-0.332
-619.361	4.690	0.162	-0.121
-618.346	-132.039	-0.273	0.036
-617.332	-55.951	-0.121	-0.055
-616.317	-107.368	0.212	0.047
-615.303	233.931	0.143	0.239
-614.288	532.675	-0.145	-0.349
-613.273	13.839	-0.085	-0.067
-612.259	-200.000	0.055	0.415
-611.244	-79.024	0.218	0.075
-610.230	-200.000	-0.028	0.324
-609.215	-13.210	0.082	0.054
-608.201	-125.270	0.114	-0.018
-607.186	-152.493	0.403	-0.029
-606.171	11.916	-0.061	-0.047
-605.157	-56.404	-0.273	0.123
-604.142	10.340	0.284	-0.220
-603.128	800.000	-0.072	0.258
-602.113	67.690	0.150	-0.156
-601.098	-200.000	0.002	0.028
-600.084	-35.938	-0.052	-0.029
-599.069	-200.000	-0.103	-0.472
-598.055	-80.540	-0.237	0.080
-597.040	20.023	0.118	0.097
-596.025	-200.000	0.090	0.431
-595.011	-118.000	0.166	-0.030
-593.996	46.288	0.183	-0.172
-592.982	259.080	0.212	-0.370
-591.967	141.589	0.083	0.111
-590.952	111.053	0.230	0.281
-589.938	-12.886	0.165	0.109
-588.923	-48.863	0.240	0.117
-587.909	577.653	-0.053	-0.131
-586.894	-200.000	-0.012	0.388
-585.879	-94.715	0.109	0.030
-584.865	1.460	-0.231	0.169
-583.850	284.882	-0.212	0.388
-582.836	-135.524	0.215	-0.026
-581.821	-44.953	-0.391	0.197
-580.806	-200.000	-0.080	-0.430
-579.792	21.311	-0.071	-0.058
-578.777	339.767	0.141	0.280
-577.763	-200.000	-0.031	0.219
-576.748	-200.000	-0.006	-0.179
-575.733	-127.015	-0.227	-0.034
-574.719	-167.319	-0.202	-0.008
-573.704	15.200	-0.046	0.037
-572.690	62.876	-0.198	0.200
-571.675	800.000	-0.052	-0.147
-570.661	-76.354	-0.079	-0.028
-569.646	-200.000	0.002	-0.025
-568.631	-200.000	-0.039	0.299
-567.617	191.614	0.106	0.162
-566.602	47.863	0.091	-0.086
-565.588	-90.544	0.082	0.024
-564.573	-200.000	-0.020	-0.093
-563.558	-73.274	-0.422	-0.156
-562.544	-56.275	0.088	0.039
-561.529	800.000	0.042	0.123
-560.515	-166.462	0.184	-0.008
-559.500	-200.000	-0.012	-0.305
-558.485	-115.876	-0.230	-0.044
-557.471	123.131	0.130	0.165
-556.456	800.000	-0.056	-0.193
-555.442	-18.038	-0.154	-0.098
-554.427	-66.919	0.165	0.066
-553.412	-126.370	-0.146	0.022
-552.398	-42.969	0.214	-0.110
-551.383	-200.000	-0.079	-0.389
-550.369	76.237	0.074	0.080
-549.354	282.364	-0.089	0.161
-548.339	-200.000	0.028	-0.334
-547.325	386.522	0.093	-0.195
-546.310	346.261	-0.244	0.485
-545.296	-200.000	-0.045	0.251
-544.281	49.715	-0.113	0.108
-543.266	-107.217	-0.294	0.066
-542.252	-200.000	0.057	0.332
-541.237	800.000	0.057	0.209
-540.223	800.000	0.058	0.182
-539.208	-3.862	0.127	-0.089
-538.193	0.801	0.157	-0.114
-537.179	-200.000	0.051	0.246
-536.164	-75.220	0.098	-0.035
-535.150	-93.815	0.422	-0.118
-534.135	578.125	0.080	-0.197
-533.121	41.700	-0.293	0.269
-532.106	-17.964	-0.045	-0.029
-531.091	-200.000	0.030	0.141
-530.077	-189.205	0.327	0.004
-529.062	14.679	0.115	-0.091
-528.048	-10.807	0.076	-0.051
-527.033	-67.364	0.249	-0.099
-526.018	16.199	-0.071	0.056
-525.004	64.573	0.211	-0.216
-523.989	15.416	-0.120	0.095
-522.975	77.526	-0.111	-0.119
-521.960	-56.043	-0.095	0.043
-520.945	101.414	0.136	0.160
-519.931	-200.000	-0.001	-0.168
-518.916	800.000	0.070	-0.302
-517.902	-58.343	0.206	-0.091
-516.887	-47.858	0.218	0.107
-515.872	296.285	0.039	0.072
-514.858	-200.000	0.020	-0.089
-513.843	-200.000	0.035	0.225
-512.829	158.456	0.048	0.067
-511.814	84.858	-0.189	0.209
-510.799	-112.048	-0.270	0.055
-509.785	317.319	0.039	-0.074
-508.770	-118.129	0.059	-0.011
-507.756	136.052	0.054	-0.072
-506.741	-142.814	0.177	-0.017
-505.726	394.916	0.061	-0.128
-504.712	691.677	0.092	0.243
-503.697	-123.460	0.210	-0.034
-502.683	-87.882	0.070	-0.021
-501.668	-11.557	-0.183	-0.122
-500.653	-80.978	0.119	0.040
-499.639	-129.809	-0.531	0.074
-498.624	66.043	0.325	-0.333
-497.610	34.136	0.066	-0.058
-496.595	-81.411	-0.047	-0.016
-495.581	-3.250	-0.213	-0.150
-494.566	244.930	-0.094	-0.159
-493.551	170.307	-0.057	-0.083
-492.537	-200.000	-0.007	0.209
-491.522	-200.000	-0.047	0.246
-490.508	800.000	0.026	0.079
-489.493	-135.867	-0.192	0.023
-488.478	-87.357	0.246	0.075
-487.464	-162.711	0.206	-0.010
-486.449	-5.018	0.121	-0.084
-485.435	-200.000	-0.026	0.164
-484.420	6.021	0.307	-0.229
-483.405	46.230	0.203	-0.190
-482.391	13.779	-0.271	0.213
-481.376	-10.517	0.024	-0.016
-480.362	1.066	0.269	0.195
-479.347	472.957	0.051	0.116
-478.332	-1.162	-0.026	-0.018
-477.318	-200.000	0.025	0.371
-476.303	89.011	0.068	-0.077
-475.289	-63.473	-0.357	-0.148
-474.274	-200.000	0.028	-0.159
-473.259	-147.719	-0.390	0.033
-472.245	-36.108	-0.124	-0.067
-471.230	372.378	0.097	-0.198
-470.216	0.913	0.143	-0.103
-469.201	-200.000	0.105	0.523
-468.186	-175.556	0.184	0.005
-467.172	-10.839	0.324	0.216
-466.157	59.372	-0.047	-0.047
-465.143	153.729	-0.189	0.261
-464.128	3.488	0.065	-0.048
-463.113	-148.706	0.216	0.018
-462.099	-84.789	0.214	-0.068
-461.084	800.000	-0.056	0.187
-460.070	130.912	-0.031	0.040
-459.055	115.683	-0.112	-0.139
-458.040	-58.076	-0.065	-0.029
-457.026	-80.026	-0.269	-0.091
-456.011	-41.943	0.087	0.045
-454.997	-107.783	-0.153	0.034
-453.982	-83.922	0.219	0.070
-452.968	157.709	0.124	0.174
-451.953	342.321	0.100	-0.198
-450.938	397.555	-0.059	-0.125
-449.924	-124.251	0.128	-0.020
-448.909	252.672	0.239	-0.410
-447.895	508.376	-0.021	-0.050
-446.880	-69.841	0.131	0.050
-445.865	800.000	0.016	-0.046
-444.851	-200.000	-0.004	0.243
-443.836	32.850	0.168	-0.147
-442.822	378.438	0.111	-0.228
-441.807	-32.684	0.049	0.028
-440.792	-41.663	0.131	0.068
-439.778	-200.000	-0.004	-0.053
-438.763	485.185	0.034	-0.078
-437.749	-64.499	-0.107	0.044
-436.734	-64.570	0.201	-0.082
-435.719	-178.092	0.179	0.004
-434.705	-72.325	0.183	-0.068
-433.690	234.468	-0.081	0.134
-432.676	13.298	-0.212	-0.165
-431.661	-139.108	-0.281	-0.031
-430.646	67.221	0.301	0.309
-429.632	-200.000	0.028	0.241
-428.617	51.982	0.062	0.060
-427.603	240.478	0.125	0.210
-426.588	-47.295	-0.099	-0.049
-425.573	166.085	-0.163	-0.233
-424.559	-80.695	-0.288	-0.096
-423.544	412.160	-0.020	0.043
-422.530	102.188	0.276	-0.324
-421.515	800.000	0.078	0.236
-420.500	-30.734	-0.241	0.137
-419.486	138.118	-0.033	0.043
-418.471	84.256	0.106	-0.117
-417.457	38.493	-0.283	0.254
-416.442	-18.877	-0.239	0.150
-415.428	800.000	-0.069	-0.271
-414.413	-76.022	-0.292	-0.104
-413.398	-114.244	-0.080	-0.015
-412.384	-156.538	-0.300	-0.019
-411.369	-21.925	-0.158	-0.097
-410.355	20.047	-0.075	0.061
-409.340	-70.083	0.239	-0.092
-408.325	-200.000	0.057	-0.258
-407.311	75.562	0.123	-0.130
-406.296	-71.159	0.261	-0.099
-405.282	426.929	0.216	0.470
-404.267	-200.000	0.002	-0.212
-403.252	208.762	-0.124	-0.195
-402.238	-52.308	0.199	-0.093
-401.223	-63.183	0.312	0.129
-400.209	-52.788	0.145	-0.067
-399.194	476.204	0.043	0.097
-398.179	183.615	-0.093	-0.138
-397.165	-52.149	0.312	-0.146
-396.150	-200.000	-0.005	-0.092
-395.136	-99.203	-0.353	-0.090
-394.121	103.071	-0.329	0.388
-393.106	-60.873	-0.180	-0.077
-392.092	-19.539	0.196	0.122
-391.077	696.701	-0.057	0.152
-390.063	-103.122	-0.255	-0.061
-389.048	-89.733	-0.043	-0.013
-388.033	-200.000	-0.014	-0.178
-387.019	-43.781	-0.198	0.100
-386.004	-200.000	0.027	-0.143
-384.990	-144.130	0.330	-0.031
-383.975	-100.247	-0.187	-0.047
-382.960	-143.012	0.114	0.011
-381.946	235.995	-0.124	0.206
-380.931	353.354	0.072	-0.145
-379.917	800.000	-0.080	-0.288
-378.902	-39.097	0.117	0.062
-377.888	-109.657	0.251	0.053
-376.873	800.000	-0.094	0.402
-375.858	-200.000	-0.021	0.267
-374.844	800.000	-0.061	0.200
-373.829	-92.072	-0.132	-0.038
-372.815	-200.000	-0.015	0.218
-371.800	-123.420	-0.108	0.017
-370.785	-145.278	0.258	0.023
-369.771	719.226	0.085	-0.228
-368.756	-90.913	-0.136	-0.039
-367.742	354.233	0.179	0.358
-366.727	-6.363	0.097	0.067
-365.712	176.854	-0.071	0.104
-364.698	-65.422	-0.126	0.051
-363.683	-41.683	-0.157	0.081
-362.669	162.175	-0.027	-0.038
-361.654	-200.000	-0.010	-0.149
-360.639	39.023	0.252	0.226
-359.625	-200.000	0.052	-0.250
-358.610	79.395	-0.182	-0.196
-357.596	-85.341	-0.240	-0.075
-356.581	188.672	-0.122	0.184
-355.566	-200.000	0.023	0.389
-354.552	509.727	0.046	0.108
-353.537	-61.965	-0.222	-0.093
-352.523	-150.538	-0.394	-0.030
-351.508	-124.071	0.078	0.012
-350.493	-200.000	-0.016	-0.240
-349.479	-138.446	-0.179	-0.020
-348.464	-15.428	-0.037	-0.024
-347.450	800.000	0.070	0.248
-346.435	560.507	-0.103	0.250
-345.420	54.303	-0.077	-0.074
-344.406	152.945	0.156	-0.215
-343.391	764.401	-0.186	-0.507
-342.377	344.083	0.152	0.300
-341.362	-200.000	-0.005	-0.201
-340.348	-200.000	-0.001	-0.100
-339.333	86.201	-0.101	-0.111
-338.318	-200.000	-0.001	0.368
-337.304	-178.364	0.283	-0.007
-336.289	-200.000	0.009	0.044
-335.275	47.682	-0.132	0.124
-334.260	115.664	-0.236	0.290
-333.245	-69.908	-0.262	0.100
-332.231	-200.000	0.017	-0.170
-331.216	-200.000	0.016	0.100
-330.202	-93.874	0.252	-0.070
-329.187	88.612	-0.212	-0.236
-328.172	118.943	-0.084	-0.104
-327.158	-200.000	0.039	-0.349
-326.143	-72.494	0.053	-0.020
-325.129	-14.632	0.275	-0.177
-324.114	156.289	0.045	0.062
-323.099	-200.000	-0.002	-0.136
-322.085	338.642	0.085	0.165
-321.070	-20.733	-0.289	-0.178
-320.056	401.665	0.041	0.087
-319.041	-15.173	-0.286	-0.184
-318.026	-200.000	-0.034	-0.152
-317.012	117.590	-0.244	-0.302
-315.997	-41.468	-0.085	0.044
-314.983	302.596	0.072	0.133
-313.968	208.952	-0.221	-0.347
-312.953	-120.273	-0.171	-0.029
-311.939	-51.463	-0.042	-0.020
-310.924	-200.000	0.005	0.169
-309.910	-84.478	0.321	0.102
-308.895	-22.283	-0.145	-0.088
-307.880	-101.211	-0.229	0.056
-306.866	181.590	-0.132	0.194
-305.851	-92.609	-0.073	0.020
-304.837	-186.239	-0.412	0.006
-303.822	-65.446	-0.217	-0.088
-302.807	-34.236	0.086	0.047
-301.793	465.766	0.133	0.299
-300.778	-77.938	0.087	0.030
-299.764	800.000	-0.105	0.455
-298.749	259.316	-0.065	-0.113
-297.735	-200.000	-0.010	-0.144
-296.720	-73.355	-0.187	0.069
-295.705	-24.152	-0.248	0.149
-294.691	-171.502	0.145	0.005
-293.676	-161.364	0.111	0.006
-292.662	-33.597	0.184	0.102
-291.647	46.237	-0.190	0.176
-290.632	1.629	-0.091	-0.066
-289.618	-89.742	0.106	-0.031
-288.603	783.247	-0.020	0.054
-287.589	-200.000	0.003	-0.173
-286.574	-89.627	0.088	0.026
-285.559	31.147	-0.152	0.130
-284.545	-200.000	-0.027	0.255
-283.530	-42.637	-0.271	0.138
-282.516	-10.384	0.154	0.102
-281.501	-200.000	-0.069	-0.351
-280.486	87.127	0.289	0.320
-279.472	110.257	-0.036	-0.043
-278.457	-69.529	0.056	-0.022
-277.443	-200.000	0.032	-0.262
-276.428	-169.253	-0.588	0.022
-275.413	-200.000	0.031	0.162
-274.399	24.617	0.266	-0.220
-273.384	39.975	-0.209	0.188
-272.370	800.000	-0.048	0.163
-271.355	-200.000	-0.035	-0.271
-270.340	800.000	-0.114	0.500
-269.326	800.000	-0.073	-0.309
-268.311	394.289	0.222	-0.463
-267.297	800.000	0.061	-0.254
-266.282	-92.770	0.195	-0.055
-265.267	144.636	-0.074	-0.099
-264.253	78.924	0.446	-0.478
-263.238	-136.754	-0.141	-0.016
-262.224	-200.000	0.002	0.182
-261.209	-21.816	0.100	-0.061
-260.195	27.600	-0.209	-0.176
-259.180	33.634	-0.060	-0.053
-258.165	-161.121	0.237	-0.012
-257.151	-70.050	0.225	-0.086
-256.136	-200.000	0.015	0.110
-255.122	282.910	0.134	0.240
-254.107	207.152	0.049	-0.077
-253.092	-200.000	0.012	0.184
-252.078	43.067	-0.094	0.086
-251.063	-108.758	0.039	-0.008
-250.049	-200.000	-0.023	-0.126
-249.034	182.503	-0.102	-0.151
-248.019	161.279	0.209	-0.292
-247.005	135.342	-0.154	0.201
-245.990	-200.000	-0.008	0.185
-244.976	-200.000	0.023	0.257
-243.961	-22.131	-0.125	0.076
-242.946	23.432	-0.244	-0.201
-241.932	-200.000	0.016	0.119
-240.917	-169.883	0.206	0.007
-239.903	-200.000	0.032	-0.432
-238.888	394.024	-0.165	-0.343
-237.873	104.222	0.087	0.102
-236.859	-9.800	-0.279	-0.186
-235.844	-185.418	0.246	0.004
-234.830	800.000	0.029	0.116
-233.815	-97.161	-0.181	0.047
-232.800	-77.059	0.241	0.084
-231.786	5.434	-0.121	0.090
-230.771	-200.000	-0.045	0.280
-229.757	-67.603	-0.169	0.066
-228.742	81.601	-0.093	0.100
-227.727	-151.394	0.113	0.008
-226.713	97.833	0.401	-0.461
-225.698	179.875	-0.098	0.143
-224.684	-200.000	0.027	-0.253
-223.669	-200.000	0.019	-0.106
-222.655	88.400	0.111	-0.123
-221.640	102.972	-0.089	0.105
-220.625	-58.418	-0.404	0.176
-219.611	34.463	0.261	-0.228
-218.596	101.028	0.244	-0.284
-217.582	280.978	0.152	0.272
-216.567	-200.000	-0.044	-0.400
-215.552	-31.218	-0.037	-0.021
-214.538	-54.367	-0.339	-0.154
-213.523	-200.000	0.053	0.378
-212.509	130.857	-0.231	-0.296
-211.494	7.173	-0.056	-0.042
-210.479	-91.455	-0.295	-0.084
-209.465	-34.191	0.197	0.108
-208.450	63.284	0.108	-0.108
-207.436	61.573	-0.129	0.128
-206.421	117.336	0.202	0.248
-205.406	552.665	-0.061	-0.146
-204.392	544.222	-0.045	0.107
-203.377	-200.000	0.015	0.320
-202.363	-60.410	-0.093	-0.040
-201.348	-80.215	0.202	0.068
-200.333	-154.351	-0.089	-0.006
-199.319	-139.972	-0.402	0.042
-198.304	-69.837	-0.220	0.084
-197.290	-85.044	0.156	-0.049
-196.275	800.000	0.025	0.086
-195.260	-54.422	-0.042	-0.019
-194.246	-200.000	0.001	0.068
-193.231	-173.909	0.143	0.004
-192.217	164.571	-0.075	0.106
-191.202	-30.387	0.339	-0.192
-190.187	6.052	-0.067	0.049
-189.173	-95.704	0.211	0.056
-188.158	45.338	-0.288	0.265
-187.144	-144.148	0.241	0.022
-186.129	270.978	0.117	-0.206
-185.114	293.394	0.245	0.446
-184.100	508.351	0.072	-0.167
-183.085	415.768	0.089	-0.190
-182.071	-148.660	0.271	-0.022
-181.056	551.303	-0.109	-0.260
-180.042	800.000	0.053	-0.159
-179.027	-122.448	-0.242	-0.039
-178.012	-135.992	-0.224	0.026
-176.998	115.576	-0.097	-0.119
-175.983	-29.825	-0.288	-0.164
-174.969	-84.516	-0.235	0.074
-173.954	800.000	0.050	0.216
-172.939	-200.000	-0.114	0.000
-171.925	-180.797	0.228	-0.005
-170.910	-78.333	0.237	0.081
-169.896	-137.847	-0.082	0.009
-168.881	-200.000	0.007	0.103
-167.866	656.366	0.171	-0.438
-166.852	-200.000	0.012	-0.188
-165.837	-1.536	0.196	0.138
-164.823	-197.858	0.138	-0.001
-163.808	166.437	-0.093	0.131
-162.793	14.656	-0.064	-0.050
-161.779	-69.519	0.206	-0.079
-160.764	-200.000	-0.044	-0.304
-159.750	69.779	0.011	-0.012
-158.735	-200.000	0.005	0.108
-157.720	99.971	-0.182	0.211
-156.706	86.839	0.092	-0.101
-155.691	-200.000	-0.017	-0.089
-154.677	21.586	-0.041	0.033
-153.662	239.220	0.082	-0.136
-152.647	-46.716	0.122	0.060
-151.633	-200.000	-0.003	0.124
-150.618	-75.430	0.269	0.095
-149.604	338.643	0.126	0.244
-148.589	35.140	0.143	-0.125
-147.574	-200.000	-0.044	-0.211
-146.560	2.118	0.216	-0.155
-145.545	186.704	-0.072	0.107
-144.531	331.727	0.063	-0.122
-143.516	-166.307	0.141	0.006
-142.502	24.369	0.047	-0.039
-141.487	800.000	0.009	-0.037
-140.472	166.822	-0.154	0.218
-139.458	-57.169	0.066	-0.029
-138.443	142.413	0.124	-0.164
-137.429	-87.215	-0.125	-0.038
-136.414	111.157	-0.211	0.254
-135.399	-26.523	-0.012	0.007
-134.385	226.587	0.115	-0.186
-133.370	-200.000	0.013	-0.306
-132.356	127.767	0.146	-0.185
-131.341	239.689	0.137	-0.226
-130.326	800.000	-0.018	-0.059
-129.312	-84.209	0.226	-0.071
-128.297	15.694	-0.103	-0.080
-127.283	-200.000	0.017	0.127
-126.268	65.978	0.178	0.179
-125.253	-92.886	-0.081	-0.023
-124.239	-182.703	-0.309	-0.006
-123.224	148.817	-0.064	-0.087
-122.210	-200.000	0.068	0.425
-121.195	-200.000	-0.026	0.175
-120.180	-46.707	-0.278	-0.135
-119.166	-72.739	-0.232	-0.085
-118.151	-200.000	-0.017	-0.587
-117.137	-200.000	-0.036	-0.172
-116.122	-93.814	0.082	0.022
-115.107	144.628	-0.105	0.139
-114.093	800.000	-0.034	0.106
-113.078	-33.965	0.269	-0.148
-112.064	-200.000	0.014	0.253
-111.049	360.531	-0.086	0.171
-110.034	79.464	-0.246	-0.263
-109.020	46.152	0.219	0.202
-108.005	-133.969	-0.127	0.016
-106.991	581.930	-0.117	-0.285
-105.976	17.880	0.167	0.133
-104.962	-103.440	-0.265	0.062
-103.947	-13.601	-0.222	0.143
-102.932	-49.935	0.224	0.106
-101.918	232.286	0.020	0.033
-100.903	-200.000	-0.044	-0.343
-99.889	12.287	0.236	-0.181
-98.874	-200.000	0.017	-0.156
-97.859	-26.732	0.325	0.189
-96.845	-22.260	-0.076	-0.046
-95.830	77.859	0.245	-0.260
-94.816	800.000	-0.050	0.203
-93.801	180.256	-0.183	-0.267
-92.786	-76.761	0.177	-0.062
-91.772	-157.753	0.308	-0.018
-90.757	297.170	0.045	-0.082
-89.743	-150.854	-0.110	-0.008
-88.728	-116.667	0.306	-0.056
-87.713	-43.005	-0.126	-0.064
-86.699	209.544	-0.108	0.168
-85.684	170.478	0.103	0.147
-84.670	513.225	-0.144	0.335
-83.655	160.288	0.131	-0.181
-82.640	157.663	0.125	-0.172
-81.626	130.446	0.156	0.198
-80.611	-124.997	-0.097	-0.015
-79.597	800.000	-0.124	-0.342
-78.582	-37.814	0.169	0.090
-77.567	800.000	-0.121	0.404
-76.553	-200.000	-0.110	-0.517
-75.538	-83.321	-0.105	0.033
-74.524	-102.863	0.083	0.020
-73.509	-117.792	0.300	-0.054
-72.494	263.902	0.117	0.202
-71.480	800.000	0.097	0.282
-70.465	-200.000	0.087	0.437
-69.451	553.535	0.045	0.108
-68.436	84.222	-0.059	0.064
-67.422	196.864	0.152	-0.230
-66.407	161.631	-0.183	-0.255
-65.392	-200.000	-0.039	0.329
-64.378	-94.159	-0.447	0.122
-63.363	-78.392	0.296	-0.101
-62.349	41.244	-0.197	0.177
-61.334	22.632	-0.793	-0.645
-60.319	-9.474	0.342	0.227
-59.305	-200.000	0.044	-0.748
-58.290	133.365	0.643	0.826
-57.276	800.000	0.523	1.684
-56.261	-200.000	87.333	495.524
-55.246	429.994	1420.201	3051.323
-54.232	140.721	2644.193	3468.933
-53.217	107.520	2271.424	2683.914
-52.203	46.579	1786.305	1646.284
-51.188	39.950	1588.891	1416.953
-50.173	37.640	1559.959	1374.806
-49.159	53.703	1605.152	1530.048
-48.144	57.521	1624.786	1576.092
-47.130	40.601	1583.346	1416.433
-46.115	37.394	1567.295	1379.309
-45.100	37.127	1564.536	1374.937
-44.086	37.092	1562.363	1372.724
-43.071	36.970	1560.227	1369.930
-42.057	37.055	1558.409	1368.878
-41.042	36.944	1557.415	1367.164
-40.027	37.089	1555.691	1366.623
-39.013	37.033	1554.124	1364.797
-37.998	36.969	1552.843	1363.167
-36.984	36.980	1551.666	1362.158
-35.969	36.955	1550.840	1361.206
-34.954	37.042	1548.912	1360.067
-33.940	37.046	1547.482	1358.787
-32.925	37.203	1545.818	1358.369
-31.911	37.118	1544.738	1356.774
-30.896	37.086	1543.119	1355.073
-29.881	37.187	1541.872	1354.630
-28.867	37.198	1539.989	1352.998
-27.852	37.111	1539.037	1351.503
-26.838	37.125	1537.507	1350.199
-25.823	37.221	1535.249	1348.834
-24.809	37.094	1534.068	1346.860
-23.794	37.093	1532.261	1345.209
-22.779	37.095	1531.601	1344.595
-21.765	37.171	1530.241	1343.875
-20.750	37.134	1529.015	1342.483
-19.736	37.134	1527.912	1341.463
-18.721	36.995	1527.759	1340.315
-17.706	37.209	1525.330	1339.611
-16.692	37.070	1524.707	1338.047
-15.677	37.045	1524.127	1337.318
-14.663	37.015	1522.564	1335.687
-13.648	37.011	1521.694	1334.842
-12.633	37.010	1520.340	1333.593
-11.619	37.010	1519.657	1332.938
-10.604	37.083	1518.264	1332.170
-9.590	37.040	1517.617	1331.253
-8.575	36.923	1517.112	1329.951
-7.560	36.951	1516.182	1329.278
-6.546	37.034	1514.669	1328.466
-5.531	36.967	1514.124	1327.473
-4.517	37.003	1513.190	1326.850
-3.502	37.052	1511.547	1325.695
-2.487	37.065	1511.006	1325.252
-1.473	36.990	1509.896	1323.717
-0.458	37.031	1508.631	1322.833
0.556	35.422	1499.644	1312.795
1.571	32.753	1472.211	1270.712
2.586	28.973	1408.302	1191.023
3.600	26.967	1321.922	1105.669
4.615	25.183	1273.504	1054.597
5.629	22.967	1217.940	996.019
6.644	17.979	1134.890	901.752
7.659	13.778	1094.229	847.943
8.673	12.924	1089.083	839.534
9.688	12.859	1085.564	836.414
10.702	12.693	1084.316	834.537
11.717	12.735	1082.774	833.492
12.731	14.765	1084.355	844.913
13.746	19.042	1090.036	870.962
14.761	20.240	1090.637	877.425
15.775	18.366	1087.135	865.078
16.790	17.119	1083.623	855.921
17.804	15.949	1081.868	848.571
18.819	15.051	1080.092	842.581
19.834	14.550	1078.005	838.362
20.848	14.292	1076.448	835.786
21.863	13.833	1076.545	833.480
22.877	13.621	1075.673	831.667
23.892	13.493	1073.899	829.580
24.907	13.498	1073.683	829.364
25.921	13.358	1073.166	828.192
26.936	13.337	1072.466	827.471
27.950	13.484	1071.010	827.012
28.965	13.580	1069.633	826.354
29.980	13.586	1068.993	825.814
30.994	13.534	1067.643	824.440
32.009	13.528	1067.020	823.860
33.023	13.683	1065.870	823.666
34.038	13.594	1065.383	822.778
35.053	13.538	1064.441	821.698
36.067	13.456	1063.512	820.501
37.082	13.587	1062.212	820.072
38.096	13.544	1061.884	819.536
39.111	13.581	1060.974	818.943
40.126	13.511	1060.723	818.331
41.140	13.479	1059.086	816.837
42.155	13.339	1057.860	815.132
43.169	13.318	1057.116	814.380
44.184	13.356	1056.180	813.774
45.199	13.314	1054.369	812.100
46.213	13.431	1053.624	812.033
47.228	13.295	1052.856	810.698
48.242	13.445	1051.684	810.461
49.257	13.430	1050.951	809.749
50.271	13.385	1049.810	808.578
51.286	13.480	1048.930	808.296
52.301	13.402	1048.281	807.343
53.315	13.494	1047.641	807.224
54.330	13.469	1046.309	806.008
55.344	13.406	1045.228	804.794
56.359	13.371	1044.459	803.965
57.374	13.324	1043.865	803.208
58.388	13.390	1042.734	802.584
59.403	13.302	1042.017	801.535
60.417	13.250	1041.320	800.679
61.432	13.231	1040.762	800.084
62.447	13.332	1039.983	799.904
63.461	13.233	1039.093	798.672
64.476	13.134	1038.152	797.400
65.490	13.178	1037.023	796.674
66.505	13.340	1035.910	796.526
67.520	13.281	1035.090	795.542
68.534	13.298	1034.277	794.930
69.549	13.374	1033.277	794.457
70.563	13.235	1032.811	793.361
71.578	13.272	1032.469	793.204
72.593	13.221	1030.904	791.688
73.607	13.216	1030.006	790.905
74.622	13.147	1029.140	789.841
75.636	13.209	1028.201	789.345
76.651	13.193	1027.183	788.417
77.666	13.146	1026.807	787.833
78.680	13.189	1026.116	787.437
79.695	13.096	1025.590	786.522
80.709	13.149	1025.044	786.287
81.724	13.330	1024.021	786.293
82.739	13.274	1023.024	785.192
83.753	13.275	1022.458	784.694
84.768	13.420	1021.573	784.631
85.782	13.449	1020.786	784.097
86.797	13.642	1019.935	784.285
87.812	13.560	1019.095	783.181
88.826	13.446	1018.028	781.755
89.841	13.392	1017.424	780.968
90.855	13.506	1016.089	780.410
91.870	13.404	1016.010	779.799
92.884	13.444	1015.311	779.382
93.899	13.572	1014.302	779.140
94.914	13.570	1013.289	778.284
95.928	13.436	1013.050	777.404
96.943	13.588	1011.987	777.233
97.957	13.663	1010.891	776.671
98.972	13.595	1010.697	776.137
99.987	13.403	1010.307	774.868
101.001	13.546	1009.222	774.636
102.016	13.585	1008.235	773.994
103.030	13.455	1007.352	772.641
104.045	13.604	1006.083	772.294
105.060	13.552	1005.299	771.383
106.074	13.558	1004.150	770.457
107.089	13.450	1003.468	769.365
108.103	13.319	1002.971	768.307
109.118	13.208	1001.883	766.893
110.133	13.256	1001.276	766.581
111.147	13.321	999.989	765.832
112.162	13.256	998.991	764.696
113.176	13.337	998.186	764.389
114.191	13.282	997.397	763.463
115.206	13.373	996.484	763.114
116.220	13.377	995.866	762.594
117.235	13.324	994.936	761.570
118.249	13.328	994.039	760.834
119.264	13.418	992.752	760.193
120.279	13.386	992.225	759.576
121.293	13.297	991.382	758.458
122.308	13.441	990.264	758.194
123.322	13.287	989.791	757.057
124.337	13.211	988.543	755.692
125.352	13.317	987.584	755.374
126.366	13.328	986.228	754.319
127.381	13.391	985.048	753.636
128.395	13.314	984.209	752.581
129.410	13.177	983.784	751.563
130.424	13.320	982.676	751.304
131.439	13.228	981.801	750.150
132.454	13.305	981.178	749.957
133.468	13.328	980.205	749.251
134.483	13.391	979.362	748.822
135.497	13.431	978.547	748.315
136.512	13.459	978.013	747.966
137.527	13.422	977.134	747.062
138.541	13.447	976.411	746.556
139.556	13.443	975.583	745.837
140.570	13.448	974.822	745.212
141.585	13.487	974.491	745.069
142.600	13.413	973.858	744.186
143.614	13.602	972.129	743.648
144.629	13.680	971.388	743.363
145.643	13.680	971.074	743.061
146.658	13.650	969.913	741.971
147.673	13.544	969.307	740.969
148.687	13.597	968.298	740.368
149.702	13.418	967.147	738.621
150.716	13.283	966.775	737.670
151.731	13.431	965.816	737.533
152.746	13.500	964.840	737.032
153.760	13.503	963.955	736.301
154.775	13.418	963.299	735.359
155.789	13.584	962.245	735.227
156.804	13.519	961.553	734.345
157.819	13.457	960.756	733.395
158.833	13.628	960.079	733.570
159.848	13.630	959.715	733.236
160.862	13.655	959.086	732.801
161.877	13.679	958.025	732.033
162.892	13.496	957.484	730.745
163.906	13.391	956.618	729.559
164.921	13.563	955.893	729.699
165.935	13.602	954.034	728.385
166.950	13.584	953.059	727.501
167.964	13.626	952.384	727.102
168.979	13.622	951.435	726.295
169.994	13.504	950.908	725.311
171.008	13.548	950.108	724.833
172.023	13.661	948.920	724.354
173.037	13.563	948.338	723.417
174.052	13.573	948.116	723.230
175.067	13.787	946.895	723.167
176.081	13.673	946.344	722.185
177.096	13.711	945.043	721.294
178.110	13.660	944.052	720.251
179.125	13.628	944.261	720.207
180.140	13.773	942.361	719.323
181.154	13.653	942.132	718.564
182.169	13.739	941.729	718.566
183.183	13.919	940.864	718.621
184.198	13.804	940.467	717.760
185.213	13.837	939.859	717.371
186.227	13.867	939.325	717.034
187.242	13.884	938.962	716.765
188.256	13.917	938.115	716.195
189.271	13.902	937.346	715.484
190.286	13.938	936.708	715.089
191.300	13.914	935.389	713.912
192.315	13.640	934.934	712.327
193.329	13.640	934.325	711.798
194.344	13.671	933.597	711.312
195.359	13.692	932.920	710.823
196.373	13.709	932.483	710.501
197.388	13.754	932.005	710.266
198.402	13.973	931.284	710.592
199.417	13.996	931.054	710.451
200.432	14.123	930.489	710.502
201.446	14.166	930.207	710.407
202.461	13.996	929.794	709.303
203.475	14.199	929.046	709.533
204.490	14.256	928.307	709.151
205.504	14.171	927.110	707.812
206.519	14.137	926.638	707.243
207.534	14.093	925.866	706.406
208.548	14.091	925.395	705.977
209.563	14.038	924.974	705.365
210.577	14.090	924.039	704.813
211.592	14.215	922.734	704.281
212.607	14.227	922.490	704.083
213.621	14.238	922.051	703.732
214.636	14.260	921.124	703.056
215.650	14.191	920.689	702.373
216.665	14.299	919.940	702.193
217.680	14.295	919.794	702.002
218.694	14.208	919.430	701.298
219.709	14.338	918.711	701.235
220.723	14.453	917.591	700.799
221.738	14.345	917.059	699.880
222.753	14.320	916.553	699.326
223.767	14.279	915.971	698.646
224.782	14.224	915.315	697.853
225.796	14.362	914.309	697.605
226.811	14.396	913.445	697.024
227.826	14.439	912.626	696.516
228.840	14.364	912.270	695.870
229.855	14.370	911.267	695.072
230.869	14.474	910.449	694.817
231.884	14.388	910.006	694.060
232.899	14.304	909.516	693.276
233.913	14.275	908.542	692.350
234.928	14.260	908.165	691.940
235.942	14.468	907.129	691.955
236.957	14.392	906.287	690.935
237.972	14.349	905.923	690.417
238.986	14.463	905.157	690.244
240.001	14.470	904.580	689.771
241.015	14.475	903.853	689.179
242.030	14.495	903.311	688.786
243.045	14.522	902.759	688.415
244.059	14.531	902.087	687.879
245.074	14.526	901.665	687.477
246.088	14.473	900.925	686.633
247.103	14.584	900.288	686.542
248.117	14.632	899.424	686.021
249.132	14.629	899.379	685.915
250.147	14.806	898.495	685.903
251.161	14.796	897.982	685.411
252.176	14.882	897.207	685.112
253.190	14.846	896.624	684.458
254.205	14.953	895.705	684.136
255.220	14.859	895.544	683.566
256.234	14.985	893.975	682.823
257.249	14.960	893.691	682.442
258.263	14.975	892.915	681.851
259.278	14.996	892.769	681.765
260.293	15.090	892.418	681.820
261.307	15.166	891.340	681.247
262.322	15.058	890.978	680.467
263.336	15.183	890.521	680.568
264.351	15.068	889.987	679.634
265.366	15.256	888.898	679.504
266.380	15.273	888.097	678.900
267.395	15.099	887.623	677.774
268.409	15.187	886.907	677.524
269.424	15.140	886.380	676.869
270.439	15.133	886.074	676.548
271.453	15.071	884.901	675.340
272.468	15.146	883.862	674.793
273.482	15.092	883.554	674.279
274.497	15.121	882.745	673.718
275.512	15.237	882.031	673.582
276.526	15.089	881.670	672.652
277.541	15.267	881.008	672.799
278.555	15.058	880.628	671.611
279.570	15.386	879.582	672.069
280.585	15.284	879.176	671.292
281.599	15.220	878.728	670.634
282.614	15.300	878.299	670.567
283.628	15.335	877.424	669.980
284.643	15.199	876.971	669.031
285.657	15.368	876.557	669.332
286.672	15.292	876.188	668.684
287.687	15.360	875.441	668.327
288.701	15.434	874.480	667.830
289.716	15.327	874.516	667.371
290.730	15.367	873.614	666.782
291.745	15.437	873.023	666.551
292.760	15.387	872.141	665.623
293.774	15.538	871.421	665.611
294.789	15.326	871.469	664.748
295.803	15.499	870.425	664.580
296.818	15.480	869.741	663.922
297.833	15.450	869.372	663.465
298.847	15.469	868.621	662.905
299.862	15.485	867.971	662.414
300.876	15.554	867.006	661.893
301.891	15.543	866.440	661.358
302.906	15.649	865.996	661.376
303.920	15.635	865.228	660.677
304.935	15.692	864.721	660.455
305.949	15.676	864.045	659.820
306.964	15.788	863.296	659.626
307.979	15.776	862.499	658.912
308.993	15.643	862.309	658.187
310.008	15.752	861.646	658.050
311.022	15.831	860.720	657.593
312.037	15.838	860.439	657.350
313.052	15.831	859.611	656.629
314.066	15.816	859.444	656.386
315.081	15.735	858.804	655.523
316.095	15.690	858.113	654.761
317.110	15.607	857.580	653.975
318.125	15.807	856.892	654.172
319.139	15.700	856.453	653.361
320.154	15.774	855.952	653.207
321.168	15.577	855.887	652.335
322.183	15.866	854.757	652.536
323.197	15.836	854.362	652.063
324.212	15.797	853.933	651.526
325.227	15.769	853.223	650.818
326.241	15.749	852.735	650.313
327.256	15.928	851.902	650.309
328.270	15.903	851.239	649.651
329.285	15.896	850.597	649.077
330.300	15.948	850.074	648.818
331.314	15.998	849.489	648.509
332.329	16.095	848.616	648.155
333.343	15.918	848.502	647.334
334.358	15.964	847.994	647.066
335.373	16.121	847.272	647.057
336.387	16.070	846.703	646.370
337.402	16.014	846.484	645.934
338.416	15.984	846.111	645.476
339.431	16.149	845.106	645.283
340.446	16.237	844.289	644.936
341.460	16.224	844.298	644.837
342.475	16.182	843.696	644.162
343.489	16.265	842.852	643.775
344.504	16.246	842.385	643.291
345.519	16.331	841.972	643.243
346.533	16.394	841.429	643.010
347.548	16.495	840.738	642.809
348.562	16.270	840.407	641.642
349.577	16.254	839.877	641.120
350.592	16.277	839.198	640.635
351.606	16.235	838.699	640.036
352.621	16.235	838.152	639.565
353.635	16.352	837.660	639.573
354.650	16.205	837.467	638.813
355.665	16.201	837.348	638.653
356.679	16.360	836.534	638.574
357.694	16.472	835.971	638.512
358.708	16.332	835.705	637.724
359.723	16.295	835.329	637.242
360.738	16.403	834.207	636.736
361.752	16.370	834.152	636.511
362.767	16.446	833.682	636.385
363.781	16.568	833.019	636.282
364.796	16.520	832.575	635.704
365.810	16.709	831.734	635.716
366.825	16.591	831.851	635.305
367.840	16.612	831.949	635.402
368.854	16.564	831.435	634.775
369.869	16.483	831.038	634.112
370.883	16.739	829.617	633.930
371.898	16.574	829.545	633.200
372.913	16.783	828.941	633.466
373.927	16.664	828.392	632.545
374.942	16.786	827.369	632.162
375.956	16.869	826.689	631.896
376.971	16.651	826.186	630.644
377.986	16.666	826.137	630.606
379.000	16.762	825.400	630.346
380.015	16.822	824.930	630.156
381.029	16.850	824.694	630.023
382.044	16.835	823.729	629.173
383.059	16.892	823.033	628.797
384.073	16.846	822.747	628.353
385.088	16.898	822.162	628.042
386.102	16.900	821.389	627.406
387.117	16.785	821.074	626.682
388.132	16.940	820.206	626.536
389.146	16.878	820.116	626.183
390.161	16.832	819.762	625.689
391.175	16.922	819.541	625.796
392.190	17.027	818.855	625.604
393.205	17.099	818.352	625.432
394.219	16.949	818.338	624.812
395.234	16.890	817.241	623.700
396.248	16.880	816.854	623.315
397.263	16.718	816.618	622.482
398.278	16.711	816.061	621.978
399.292	16.803	815.360	621.726
400.307	16.845	815.249	621.742
401.321	16.908	814.653	621.461
402.336	16.972	814.067	621.194
403.350	16.953	813.967	620.994
404.365	17.026	813.566	620.899
405.380	17.087	812.991	620.628
406.394	17.071	812.641	620.249
407.409	17.107	812.497	620.216
408.423	17.092	811.743	619.530
409.438	17.302	810.911	619.608
410.453	17.199	810.716	619.028
411.467	17.207	810.491	618.832
412.482	17.263	809.747	618.411
413.496	17.384	808.957	618.193
414.511	17.311	808.919	617.844
415.526	17.360	808.960	617.997
416.540	17.418	808.580	617.863
417.555	17.371	807.772	617.021
418.569	17.360	807.083	616.401
419.584	17.343	807.020	616.235
420.599	17.441	806.439	616.092
421.613	99.137	1278.792	1420.946
422.628	85.095	1347.618	1421.071
