DTS Sentinel unit serial number:	SN413079Multiplexer serial number:	ORYXHardware model number:	OX4-SRSoftware version number:	ORYX F/W v4.00 Oryx Data Collector v3.7.2.0data status	okinstallation	princeton_trtdifferential loss correction	single-endedforward channel	channel 3reverse channel	N/Adate	2019/09/18time	04:28:34forward acquisition time	60.00reverse acquisition time	0.00gamma	496.2192k internal	0.2343k external	0.2343temperature offset calibration	0.9947default loss term (dB/km)	0.3790temperature slope calibration	1.0000multiplexer offset coefficient	1.0000multiplexer slope coefficient	1.0000fibre end	0.00T internal ref (°C)	23.37T ext. ref 1 (°C)	0.19T ext. ref 2 (°C)	17.57length (m)	temperature (°C)	Stokes	anti-Stokes-747.200	142.510	-0.116	0.154
-746.185	22.356	-0.118	0.097
-745.171	-56.230	-0.228	0.102
-744.156	-200.000	0.024	-0.236
-743.142	351.364	-0.073	-0.145
-742.127	-200.000	-0.010	0.316
-741.112	328.467	-0.070	0.134
-740.098	-41.676	-0.272	0.140
-739.083	-51.700	0.162	0.076
-738.069	800.000	0.079	0.339
-737.054	325.588	0.061	-0.117
-736.039	-121.210	-0.120	0.020
-735.025	-168.344	0.251	0.010
-734.010	800.000	-0.073	-0.250
-732.996	-0.815	0.163	-0.116
-731.981	-26.681	-0.408	0.239
-730.966	-200.000	0.037	-0.413
-729.952	-104.853	0.228	0.052
-728.937	-67.338	-0.405	-0.160
-727.923	-200.000	0.005	0.091
-726.908	189.216	-0.190	-0.285
-725.894	-192.783	-0.100	-0.001
-724.879	92.291	-0.244	-0.275
-723.864	108.397	0.116	-0.139
-722.850	-181.980	0.120	0.002
-721.835	-179.958	0.089	0.002
-720.821	-200.000	-0.022	0.118
-719.806	-200.000	-0.018	-0.137
-718.791	-57.184	-0.265	-0.117
-717.777	-30.599	0.246	0.139
-716.762	172.200	-0.172	-0.248
-715.748	106.420	0.122	-0.145
-714.733	800.000	0.021	-0.073
-713.718	64.891	-0.103	-0.104
-712.704	800.000	-0.074	0.251
-711.689	47.283	-0.070	-0.065
-710.675	9.873	-0.146	-0.111
-709.660	-22.583	-0.166	-0.100
-708.645	-200.000	-0.033	-0.244
-707.631	-160.067	0.228	0.012
-706.616	62.861	0.073	-0.073
-705.602	191.048	0.188	-0.282
-704.587	-200.000	0.061	-0.345
-703.572	440.505	-0.018	-0.039
-702.558	-200.000	-0.028	0.183
-701.543	-180.809	-0.028	0.001
-700.529	-124.318	-0.129	0.020
-699.514	384.385	0.089	-0.183
-698.499	-28.268	-0.160	-0.092
-697.485	-200.000	0.057	-0.258
-696.470	-116.277	-0.296	-0.055
-695.456	-105.893	0.201	0.045
-694.441	-200.000	0.055	0.319
-693.426	173.793	0.213	-0.307
-692.412	11.780	0.148	-0.113
-691.397	328.460	-0.070	0.134
-690.383	-118.419	-0.153	0.027
-689.368	4.877	-0.100	0.073
-688.354	164.611	-0.187	-0.264
-687.339	800.000	0.064	-0.252
-686.324	-26.133	0.324	-0.191
-685.310	-192.609	0.115	-0.001
-684.295	215.175	-0.092	0.147
-683.281	79.010	0.214	-0.228
-682.266	-104.286	-0.293	0.068
-681.251	238.061	0.177	0.293
-680.237	-150.546	0.297	0.023
-679.222	96.831	-0.183	0.209
-678.208	-96.178	-0.113	-0.030
-677.193	55.136	0.295	0.285
-676.178	-54.137	0.090	0.041
-675.164	243.251	-0.039	0.065
-674.149	21.361	-0.086	-0.070
-673.135	-57.541	0.078	-0.034
-672.120	-161.300	0.082	-0.004
-671.105	-200.000	0.046	-0.247
-670.091	-200.000	-0.005	-0.052
-669.076	-91.387	0.240	-0.069
-668.062	-116.833	0.303	-0.055
-667.047	27.500	0.250	-0.210
-666.032	-108.966	-0.211	-0.045
-665.018	227.558	-0.122	-0.199
-664.003	-102.504	0.152	0.036
-662.989	-100.781	-0.134	0.033
-661.974	-200.000	-0.076	-0.401
-660.959	59.845	0.205	0.202
-659.945	39.587	-0.175	0.157
-658.930	529.154	-0.048	0.113
-657.916	-74.775	-0.240	0.086
-656.901	557.596	-0.087	-0.209
-655.886	-92.614	0.239	-0.067
-654.872	56.864	-0.219	-0.213
-653.857	-53.802	0.038	0.017
-652.843	-200.000	-0.004	-0.287
-651.828	33.744	-0.291	-0.252
-650.814	800.000	0.032	0.102
-649.799	-200.000	-0.006	0.198
-648.784	626.116	-0.066	-0.166
-647.770	-200.000	-0.003	0.103
-646.755	277.537	0.163	0.289
-645.741	79.472	0.184	0.197
-644.726	-200.000	-0.000	-0.134
-643.711	291.799	-0.125	-0.226
-642.697	177.036	0.093	0.134
-641.682	421.474	-0.016	0.034
-640.668	-72.871	0.323	-0.118
-639.653	669.904	0.084	-0.216
-638.638	-154.316	-0.271	0.018
-637.624	296.953	0.111	0.203
-636.609	-187.241	-0.097	0.001
-635.595	-200.000	0.006	-0.130
-634.580	132.819	0.196	-0.252
-633.565	31.589	0.221	-0.190
-632.551	245.394	-0.131	-0.219
-631.536	-200.000	-0.006	-0.177
-630.522	800.000	0.048	-0.137
-629.507	127.100	-0.116	-0.147
-628.492	259.306	-0.105	-0.181
-627.478	85.509	-0.255	0.280
-626.463	800.000	0.134	-0.449
-625.449	-128.280	-0.380	-0.054
-624.434	225.586	0.188	0.304
-623.419	15.763	0.158	-0.124
-622.405	-56.939	-0.182	-0.080
-621.390	-200.000	0.050	0.300
-620.376	-200.000	0.001	-0.051
-619.361	-117.951	0.133	0.024
-618.346	-200.000	0.002	-0.085
-617.332	-200.000	-0.031	0.152
-616.317	-187.102	0.150	0.002
-615.303	-127.756	0.281	0.040
-614.288	-65.492	0.244	0.098
-613.273	-200.000	-0.007	0.109
-612.259	188.202	-0.140	-0.209
-611.244	-93.319	-0.071	0.020
-610.230	158.260	0.193	-0.267
-609.215	10.518	0.128	0.097
-608.201	800.000	-0.087	-0.252
-607.186	-200.000	-0.002	-0.043
-606.171	31.771	-0.155	0.133
-605.157	-172.896	-0.241	0.007
-604.142	179.915	-0.161	-0.235
-603.128	116.199	0.260	-0.318
-602.113	-17.432	0.259	0.162
-601.098	-125.048	0.073	0.011
-600.084	110.514	0.216	0.259
-599.069	67.083	-0.027	0.027
-598.055	-200.000	-0.206	-0.000
-597.040	-36.825	0.212	0.113
-596.025	254.135	-0.111	0.188
-595.011	460.664	0.157	-0.349
-593.996	800.000	-0.080	-0.316
-592.982	-200.000	0.035	-0.159
-591.967	800.000	0.046	-0.162
-590.952	-94.251	0.268	0.073
-589.938	82.748	0.102	-0.111
-588.923	-70.335	-0.107	-0.041
-587.909	800.000	0.038	0.135
-586.894	250.079	0.007	-0.012
-585.879	231.975	-0.174	-0.285
-584.865	-139.710	-0.155	0.016
-583.850	58.992	-0.078	-0.077
-582.836	-200.000	0.059	-0.312
-581.821	-200.000	0.024	-0.218
-580.806	144.228	0.095	-0.126
-579.792	-200.000	0.019	-0.239
-578.777	-25.962	-0.071	0.042
-577.763	-180.533	0.223	0.005
-576.748	-98.489	-0.072	0.018
-575.733	800.000	-0.009	-0.027
-574.719	231.842	0.080	0.131
-573.704	-200.000	0.010	0.126
-572.690	-28.699	0.235	0.134
-571.675	91.236	-0.110	-0.123
-570.661	800.000	-0.094	0.360
-569.646	-200.000	0.006	0.058
-568.631	-53.981	0.207	0.094
-567.617	-200.000	-0.002	0.056
-566.602	-102.533	0.196	-0.047
-565.588	-137.779	-0.095	-0.011
-564.573	-33.307	-0.169	-0.093
-563.558	-133.269	0.150	0.019
-562.544	118.465	-0.092	0.113
-561.529	62.538	-0.081	0.080
-560.515	17.858	-0.156	0.123
-559.500	377.992	-0.059	0.120
-558.485	32.672	0.264	-0.227
-557.471	332.453	0.012	0.023
-556.456	161.042	-0.151	0.209
-555.442	-93.812	0.191	0.052
-554.427	108.723	0.154	-0.183
-553.412	134.116	-0.181	0.233
-552.398	362.408	-0.119	0.237
-551.383	-200.000	0.018	-0.238
-550.369	800.000	-0.031	0.102
-549.354	150.385	-0.117	-0.159
-548.339	800.000	0.042	0.142
-547.325	96.086	-0.053	0.060
-546.310	27.028	-0.264	0.220
-545.296	-88.473	0.344	0.102
-544.281	510.768	-0.108	0.249
-543.266	-36.234	-0.058	-0.031
-542.252	-62.773	-0.074	-0.030
-541.237	-103.034	-0.380	-0.090
-540.223	-200.000	0.006	0.145
-539.208	586.603	-0.038	0.094
-538.193	296.003	-0.111	0.201
-537.179	-200.000	0.014	0.061
-536.164	-47.929	-0.169	0.081
-535.150	-72.812	-0.297	-0.109
-534.135	285.862	0.079	-0.141
-533.121	-200.000	-0.036	0.247
-532.106	83.894	-0.180	-0.195
-531.091	10.068	-0.082	0.062
-530.077	800.000	0.045	-0.165
-529.062	-200.000	0.024	0.107
-528.048	6.153	-0.198	-0.146
-527.033	-133.962	0.207	0.025
-526.018	-200.000	0.022	-0.313
-525.004	800.000	0.049	0.150
-523.989	-200.000	-0.008	-0.260
-522.975	-56.797	-0.250	0.110
-521.960	56.249	-0.129	-0.125
-520.945	-110.664	-0.175	0.036
-519.931	-28.060	-0.121	0.069
-518.916	-200.000	0.003	-0.179
-517.902	561.232	-0.136	0.326
-516.887	69.323	-0.145	-0.148
-515.872	-200.000	0.001	-0.084
-514.858	-106.726	-0.265	0.059
-513.843	-200.000	-0.061	-0.397
-512.829	27.683	0.367	0.307
-511.814	-200.000	-0.003	-0.083
-510.799	800.000	-0.132	0.387
-509.785	289.070	0.173	-0.310
-508.770	-163.993	0.200	-0.009
-507.756	-147.658	0.278	0.023
-506.741	800.000	0.092	-0.310
-505.726	800.000	-0.042	0.171
-504.712	-91.887	0.302	0.085
-503.697	800.000	0.022	-0.078
-502.683	-32.231	0.303	-0.168
-501.668	416.038	-0.139	-0.294
-500.653	-200.000	0.004	0.025
-499.639	-200.000	-0.013	-0.239
-498.624	-200.000	0.011	-0.130
-497.610	-77.139	-0.242	0.084
-496.595	-92.359	0.491	0.137
-495.581	800.000	0.042	0.134
-494.566	-200.000	-0.000	-0.354
-493.551	509.193	0.086	-0.199
-492.537	-0.045	-0.122	0.086
-491.522	-200.000	0.045	0.300
-490.508	-57.276	0.232	0.101
-489.493	-200.000	-0.029	0.258
-488.478	-200.000	0.009	0.121
-487.464	-38.170	-0.189	-0.099
-486.449	433.651	-0.187	0.404
-485.435	-26.508	-0.236	-0.137
-484.420	14.766	-0.271	-0.210
-483.405	249.438	0.068	-0.115
-482.391	-76.138	-0.254	-0.089
-481.376	458.168	-0.090	-0.198
-480.362	48.982	-0.082	-0.076
-479.347	197.347	0.119	-0.180
-478.332	59.601	-0.096	0.093
-477.318	94.302	-0.233	0.262
-476.303	-15.364	0.220	0.140
-475.289	-61.919	-0.148	-0.061
-474.274	-41.969	-0.179	0.091
-473.259	54.750	-0.156	0.149
-472.245	480.358	0.109	0.245
-471.230	-200.000	0.013	-0.106
-470.216	-120.907	-0.420	0.070
-469.201	800.000	-0.081	0.241
-468.186	95.889	-0.082	-0.093
-467.172	65.157	0.150	-0.150
-466.157	198.791	-0.077	-0.117
-465.143	-131.426	0.141	-0.018
-464.128	311.870	-0.082	-0.153
-463.113	11.971	0.201	0.153
-462.099	-200.000	-0.018	0.258
-461.084	-51.829	-0.151	-0.070
-460.070	-123.766	0.216	0.034
-459.055	-200.000	-0.011	-0.298
-458.040	33.821	-0.165	0.142
-457.026	-200.000	0.041	-0.243
-456.011	-32.468	0.293	0.162
-454.997	-43.214	0.221	-0.111
-453.982	-200.000	0.027	-0.246
-452.968	-56.274	-0.294	-0.130
-451.953	-25.454	0.250	0.146
-450.938	-200.000	0.072	-0.361
-449.924	-200.000	0.002	0.281
-448.909	-200.000	0.007	0.212
-447.895	-50.391	-0.096	-0.045
-446.880	217.715	0.085	-0.135
-445.865	130.793	0.111	0.140
-444.851	-106.801	0.183	-0.040
-443.836	244.635	0.073	0.122
-442.822	208.980	-0.203	0.315
-441.807	42.263	0.146	0.131
-440.792	800.000	0.167	0.543
-439.778	-200.000	0.072	0.000
-438.763	-92.512	0.385	-0.107
-437.749	380.052	-0.095	0.193
-436.734	-79.749	0.209	-0.070
-435.719	93.466	-0.402	0.450
-434.705	800.000	-0.098	-0.303
-433.690	186.012	0.086	0.126
-432.676	106.195	0.210	0.247
-431.661	-200.000	-0.018	-0.581
-430.646	-68.236	-0.212	0.082
-429.632	-89.979	-0.083	-0.024
-428.617	-200.000	0.059	-0.357
-427.603	47.335	-0.193	-0.178
-426.588	800.000	-0.045	-0.179
-425.573	133.032	-0.136	-0.173
-424.559	-128.768	-0.283	0.039
-423.544	-200.000	-0.055	-0.251
-422.530	-74.737	0.360	-0.128
-421.515	-80.743	-0.168	0.055
-420.500	-73.229	-0.109	-0.039
-419.486	-200.000	-0.089	-0.534
-418.471	-117.125	0.058	-0.010
-417.457	-64.885	-0.182	0.073
-416.442	598.617	-0.086	-0.212
-415.428	-89.775	-0.289	0.084
-414.413	-61.728	0.249	-0.103
-413.398	-58.935	-0.120	-0.051
-412.384	124.306	0.047	-0.059
-411.369	-200.000	-0.000	-0.011
-410.355	418.740	0.030	-0.063
-409.340	-22.296	-0.161	0.097
-408.325	800.000	-0.091	0.372
-407.311	-200.000	-0.024	0.250
-406.296	306.414	0.125	0.230
-405.282	800.000	0.051	-0.167
-404.267	-37.644	0.336	0.177
-403.252	79.146	0.331	0.351
-402.238	-66.954	0.286	0.111
-401.223	-20.549	0.214	-0.130
-400.209	800.000	0.098	0.408
-399.194	97.039	-0.170	-0.193
-398.179	747.165	0.184	-0.490
-397.165	-39.526	-0.262	-0.136
-396.150	-129.578	0.178	0.024
-395.136	20.453	0.260	-0.207
-394.121	-200.000	0.034	0.159
-393.106	-21.664	0.307	-0.185
-392.092	55.977	0.045	-0.043
-391.077	800.000	0.073	0.247
-390.063	-200.000	0.022	0.163
-389.048	112.265	-0.186	-0.222
-388.033	292.226	0.093	-0.167
-387.019	35.007	0.136	0.117
-386.004	237.980	0.083	-0.137
-384.990	800.000	0.095	0.403
-383.975	-124.875	0.479	0.073
-382.960	-182.988	-0.201	0.004
-381.946	-62.529	-0.571	0.234
-380.931	-54.671	0.142	-0.063
-379.917	-99.878	-0.313	-0.077
-378.902	-200.000	-0.009	-0.061
-377.888	-72.048	0.251	-0.092
-376.873	283.205	-0.280	-0.497
-375.858	-67.382	0.142	0.055
-374.844	62.541	-0.110	-0.109
-373.829	116.899	-0.150	-0.181
-372.815	473.901	-0.056	-0.124
-371.800	-77.848	0.064	-0.022
-370.785	800.000	0.038	-0.110
-369.771	89.381	-0.349	0.384
-368.756	800.000	0.036	-0.111
-367.742	562.725	-0.124	0.296
-366.727	52.952	-0.199	-0.188
-365.712	-200.000	-0.019	0.101
-364.698	-200.000	0.024	0.192
-363.683	-200.000	-0.014	0.200
-362.669	-44.650	0.206	0.102
-361.654	45.544	-0.194	0.177
-360.639	200.456	0.070	-0.107
-359.625	11.798	-0.050	0.038
-358.610	-200.000	-0.001	-0.060
-357.596	168.968	-0.073	0.102
-356.581	372.511	-0.056	-0.112
-355.566	-38.518	-0.186	-0.097
-354.552	-132.869	0.349	-0.044
-353.537	225.754	0.064	-0.102
-352.523	-24.609	0.199	0.117
-351.508	-115.874	-0.175	0.032
-350.493	-200.000	0.024	0.204
-349.479	289.819	-0.146	-0.261
-348.464	139.213	0.098	0.128
-347.450	-95.771	-0.237	0.062
-346.435	-58.983	-0.233	-0.099
-345.420	63.953	-0.074	0.073
-344.406	225.980	0.179	-0.285
-343.391	-131.608	-0.281	0.036
-342.377	100.974	0.171	-0.197
-341.362	1.388	0.172	0.122
-340.348	-64.808	-0.151	-0.060
-339.333	0.686	-0.063	-0.045
-338.318	-38.495	-0.091	-0.047
-337.304	-80.815	-0.266	0.087
-336.289	112.637	0.107	-0.128
-335.275	555.065	0.033	-0.078
-334.260	177.487	-0.249	-0.358
-333.245	-186.183	0.296	-0.004
-332.231	-67.998	-0.237	0.091
-331.216	-92.204	-0.259	-0.072
-330.202	-77.214	-0.372	-0.128
-329.187	-200.000	0.033	-0.265
-328.172	-200.000	0.030	-0.250
-327.158	-200.000	0.028	0.178
-326.143	800.000	0.017	0.071
-325.129	-98.395	-0.143	-0.036
-324.114	-133.409	0.330	0.041
-323.099	-162.389	-0.040	0.002
-322.085	462.577	-0.172	-0.378
-321.070	800.000	-0.059	0.215
-320.056	56.975	-0.039	0.037
-319.041	800.000	-0.049	-0.137
-318.026	98.257	-0.281	0.318
-317.012	800.000	0.046	-0.150
-315.997	161.311	0.113	0.155
-314.983	-200.000	-0.069	-0.460
-313.968	800.000	-0.030	-0.084
-312.953	556.858	-0.061	-0.146
-311.939	1.952	-0.072	0.051
-310.924	-200.000	-0.047	-0.388
-309.910	-43.236	-0.123	0.061
-308.895	-200.000	0.017	0.258
-307.880	85.874	-0.110	0.119
-306.866	-111.376	-0.077	0.015
-305.851	-200.000	-0.037	0.181
-304.837	-165.545	0.216	0.009
-303.822	-41.504	0.170	-0.086
-302.807	304.270	-0.050	-0.091
-301.793	-48.411	-0.069	-0.033
-300.778	-5.312	-0.383	0.259
-299.764	19.614	-0.309	0.245
-298.749	-76.415	0.387	-0.134
-297.735	-25.427	-0.025	-0.014
-296.720	120.953	0.283	-0.347
-295.705	79.380	0.086	0.091
-294.691	-75.606	-0.091	-0.032
-293.676	-81.940	0.245	-0.079
-292.662	404.031	0.020	0.041
-291.647	800.000	-0.035	-0.127
-290.632	800.000	0.014	0.044
-289.618	-128.302	-0.380	0.053
-288.603	800.000	0.098	0.291
-287.589	-200.000	0.005	0.339
-286.574	-122.525	-0.232	-0.037
-285.559	268.905	0.131	0.226
-284.545	-200.000	-0.055	-0.268
-283.530	-20.215	-0.104	-0.063
-282.516	-195.174	-0.173	-0.001
-281.501	-33.767	-0.211	0.115
-280.486	-69.813	0.172	-0.065
-279.472	28.961	0.190	0.158
-278.457	64.979	0.130	0.130
-277.443	-200.000	-0.014	-0.157
-276.428	-54.445	-0.187	0.083
-275.413	232.878	0.188	0.304
-274.399	-77.170	-0.137	0.047
-273.384	-64.270	-0.221	0.089
-272.370	-72.790	-0.206	-0.075
-271.355	-164.597	0.340	-0.015
-270.340	52.023	-0.166	0.156
-269.326	580.749	0.048	-0.116
-268.311	265.317	0.139	0.237
-267.297	-200.000	-0.036	-0.179
-266.282	164.191	-0.168	0.233
-265.267	42.207	0.204	-0.182
-264.253	66.928	0.195	-0.195
-263.238	-200.000	0.018	-0.121
-262.224	664.592	-0.097	-0.246
-261.209	-140.794	0.115	0.012
-260.195	-158.300	-0.115	0.007
-259.180	-200.000	-0.029	0.312
-258.165	-77.361	0.394	-0.134
-257.151	123.449	0.141	0.173
-256.136	-200.000	-0.009	0.194
-255.122	160.548	0.187	-0.256
-254.107	476.429	0.105	-0.233
-253.092	-30.439	0.049	0.027
-252.078	698.855	-0.034	0.088
-251.063	-172.036	0.164	-0.005
-250.049	-26.505	-0.226	0.130
-249.034	-0.352	0.225	0.157
-248.019	64.117	-0.304	-0.300
-247.005	248.038	-0.061	-0.101
-245.990	-65.115	0.312	0.124
-244.976	59.420	0.090	-0.087
-243.961	40.759	0.090	-0.080
-242.946	461.771	0.060	0.132
-241.932	47.407	-0.285	0.261
-240.917	-61.322	0.331	0.137
-239.903	-200.000	0.054	0.331
-238.888	-55.318	0.434	-0.191
-237.873	68.489	-0.111	-0.112
-236.859	-72.710	0.229	0.083
-235.844	-200.000	-0.014	-0.302
-234.830	271.874	-0.063	0.109
-233.815	-200.000	-0.046	0.413
-232.800	-200.000	0.004	-0.062
-231.786	-5.788	-0.103	0.069
-230.771	-6.615	0.119	0.079
-229.757	800.000	-0.062	0.190
-228.742	278.919	0.063	-0.111
-227.727	-200.000	-0.005	-0.189
-226.713	-200.000	0.014	0.087
-225.698	-43.745	0.194	0.096
-224.684	-139.128	-0.312	0.033
-223.669	-176.519	0.279	-0.007
-222.655	195.351	-0.156	0.233
-221.640	-111.796	0.101	-0.020
-220.625	-87.331	-0.202	0.060
-219.611	29.805	-0.061	0.051
-218.596	-91.222	-0.413	0.116
-217.582	-87.171	0.037	-0.011
-216.567	-200.000	-0.055	0.356
-215.552	-7.623	0.053	0.035
-214.538	-69.049	-0.169	0.064
-213.523	134.567	-0.140	-0.178
-212.509	-200.000	-0.032	-0.214
-211.494	71.752	0.116	-0.119
-210.479	-160.092	-0.209	-0.011
-209.465	-200.000	-0.073	-0.329
-208.450	800.000	-0.029	-0.093
-207.436	566.760	-0.025	-0.059
-206.421	126.113	0.173	0.215
-205.406	-153.503	0.124	-0.008
-204.392	-157.794	-0.229	0.013
-203.377	-46.619	0.045	0.021
-202.363	737.807	0.032	0.085
-201.348	-93.464	-0.291	0.079
-200.333	453.792	0.230	0.499
-199.319	-123.932	0.183	0.028
-198.304	-42.161	-0.182	-0.091
-197.290	-200.000	-0.113	0.523
-196.275	-200.000	0.033	0.148
-195.260	-107.728	0.035	0.007
-194.246	425.893	0.083	-0.176
-193.231	-77.058	0.096	0.033
-192.217	121.560	0.106	0.129
-191.202	-200.000	0.000	0.069
-190.187	800.000	0.032	0.097
-189.173	800.000	-0.073	0.218
-188.158	-85.463	0.060	0.018
-187.144	-140.339	0.219	0.022
-186.129	-163.264	-0.323	-0.015
-185.114	202.176	0.144	-0.218
-184.100	490.023	0.082	-0.183
-183.085	451.196	-0.041	0.088
-182.071	-200.000	-0.006	-0.436
-181.056	-60.163	-0.242	0.101
-180.042	-138.286	0.446	0.048
-179.027	100.528	-0.154	-0.175
-178.012	800.000	0.035	0.103
-176.998	-41.147	0.112	0.056
-175.983	800.000	-0.074	-0.203
-174.969	-2.258	0.155	0.107
-173.954	27.895	0.188	-0.155
-172.939	-130.665	0.119	-0.016
-171.925	-87.877	-0.244	-0.072
-170.910	-30.419	-0.170	0.094
-169.896	38.467	0.378	0.330
-168.881	151.307	-0.069	0.092
-167.866	-135.886	0.094	-0.011
-166.852	-169.339	-0.100	0.004
-165.837	-58.531	-0.141	0.060
-164.823	-101.224	0.402	0.096
-163.808	186.412	0.096	0.140
-162.793	-0.572	0.267	-0.185
-161.779	-57.070	0.072	-0.031
-160.764	-200.000	-0.016	0.308
-159.750	158.010	0.155	0.210
-158.735	-116.850	-0.091	-0.016
-157.720	25.809	-0.304	0.248
-156.706	800.000	-0.069	-0.235
-155.691	-41.287	0.177	-0.089
-154.677	-200.000	0.006	0.148
-153.662	93.488	0.087	0.096
-152.647	-132.751	0.340	-0.043
-151.633	-35.379	-0.197	-0.105
-150.618	-47.700	0.300	-0.143
-149.604	-160.570	0.195	0.010
-148.589	519.928	-0.028	0.064
-147.574	-113.813	-0.045	-0.008
-146.560	-90.213	0.270	0.077
-145.545	-135.265	-0.153	-0.018
-144.531	-200.000	-0.020	0.153
-143.516	-53.465	0.077	-0.035
-142.502	-151.969	0.204	0.015
-141.487	336.963	-0.214	0.406
-140.472	-92.213	0.145	0.040
-139.458	46.640	-0.212	-0.192
-138.443	-183.070	-0.270	-0.005
-137.429	380.750	0.104	0.209
-136.414	-61.996	0.160	-0.065
-135.399	-121.941	0.553	-0.089
-134.385	-37.876	0.254	0.132
-133.370	-200.000	0.016	0.243
-132.356	-76.732	-0.136	0.047
-131.341	800.000	-0.076	-0.264
-130.326	104.462	0.149	0.172
-129.312	-115.895	-0.170	0.031
-128.297	-143.875	0.165	-0.015
-127.283	-200.000	0.039	-0.195
-126.268	160.642	0.283	-0.386
-125.253	61.738	-0.084	-0.082
-124.239	-166.715	-0.285	-0.012
-123.224	3.043	-0.122	0.087
-122.210	75.504	-0.166	0.171
-121.195	190.576	-0.158	-0.233
-120.180	-94.823	-0.371	-0.098
-119.166	23.831	0.238	0.192
-118.151	161.729	-0.072	-0.098
-117.137	800.000	-0.011	0.041
-116.122	73.199	-0.195	0.199
-115.107	180.195	-0.221	0.317
-114.093	-200.000	-0.043	-0.360
-113.078	800.000	-0.040	0.111
-112.064	715.397	0.002	0.006
-111.049	257.086	-0.039	0.066
-110.034	-94.137	-0.203	-0.054
-109.020	-66.368	-0.125	-0.049
-108.005	-96.084	0.405	-0.105
-106.991	90.443	-0.068	-0.074
-105.976	-55.324	0.157	0.069
-104.962	-50.022	0.215	0.099
-103.947	-200.000	-0.009	-0.174
-102.932	-152.502	-0.222	0.016
-101.918	-38.357	0.344	-0.178
-100.903	-80.972	0.274	0.089
-99.889	-19.997	0.289	0.174
-98.874	-99.428	0.322	0.079
-97.859	558.294	0.185	0.437
-96.845	-108.554	0.025	0.005
-95.830	-1.163	-0.311	-0.215
-94.816	369.979	0.137	0.270
-93.801	-200.000	-0.053	0.471
-92.786	72.419	0.298	-0.304
-91.772	116.536	0.125	-0.150
-90.757	-35.196	-0.365	-0.194
-89.743	800.000	0.042	0.151
-88.728	266.238	0.105	-0.178
-87.713	800.000	0.016	-0.065
-86.699	-200.000	-0.022	0.122
-85.684	128.783	0.145	0.181
-84.670	65.477	-0.188	0.186
-83.655	-17.826	-0.234	0.143
-82.640	91.024	0.262	0.287
-81.626	-55.100	-0.309	0.136
-80.611	-200.000	0.000	-0.144
-79.597	388.620	-0.067	0.135
-78.582	143.939	-0.140	-0.183
-77.567	117.327	0.229	-0.275
-76.553	25.697	0.095	-0.077
-75.538	-50.200	-0.064	-0.030
-74.524	-43.566	0.077	0.038
-73.509	800.000	-0.036	0.101
-72.494	-200.000	0.013	0.231
-71.480	-200.000	-0.075	0.393
-70.465	-200.000	-0.018	0.377
-69.451	-200.000	0.024	0.250
-68.436	92.827	0.159	-0.175
-67.422	-200.000	0.059	0.319
-66.407	-90.030	-0.206	0.059
-65.392	446.893	-0.115	0.248
-64.378	189.967	-0.204	-0.299
-63.363	101.912	-0.134	0.152
-62.349	246.121	0.193	0.318
-61.334	61.996	-1.133	-1.101
-60.319	130.195	0.646	0.806
-59.305	526.099	-0.527	-1.210
-58.290	563.065	0.642	1.516
-57.276	800.000	0.485	1.393
-56.261	-200.000	124.077	642.292
-55.246	413.817	1562.339	3240.764
-54.232	143.606	2721.562	3534.084
-53.217	95.035	2185.384	2425.231
-52.203	33.897	1703.365	1445.336
-51.188	26.360	1521.182	1239.266
-50.173	24.486	1497.006	1206.867
-49.159	47.846	1569.040	1428.051
-48.144	45.600	1581.807	1424.019
-47.130	26.613	1530.211	1248.164
-46.115	23.652	1514.316	1214.921
-45.100	23.474	1510.770	1210.812
-44.086	23.419	1509.490	1209.363
-43.071	23.444	1507.234	1207.676
-42.057	23.333	1505.630	1205.589
-41.042	23.364	1503.934	1204.391
-40.027	23.306	1502.726	1202.986
-39.013	23.312	1501.177	1201.739
-37.998	23.342	1499.732	1200.739
-36.984	23.338	1499.180	1200.222
-35.969	23.375	1497.268	1198.893
-34.954	23.352	1495.645	1197.388
-33.940	23.365	1493.975	1196.095
-32.925	23.469	1493.102	1196.046
-31.911	23.340	1491.875	1194.147
-30.896	23.478	1490.253	1193.734
-29.881	23.451	1489.310	1192.746
-28.867	23.446	1488.214	1191.789
-27.852	23.409	1486.498	1190.116
-26.838	23.439	1484.654	1188.794
-25.823	23.451	1483.151	1187.626
-24.809	23.416	1481.448	1185.983
-23.794	23.359	1480.228	1184.575
-22.779	23.420	1479.017	1183.967
-21.765	23.437	1477.821	1183.073
-20.750	23.394	1477.056	1182.132
-19.736	23.412	1475.655	1181.079
-18.721	23.333	1475.218	1180.159
-17.706	23.345	1473.801	1179.060
-16.692	23.336	1472.674	1178.052
-15.677	23.375	1471.631	1177.426
-14.663	23.318	1471.331	1176.760
-13.648	23.437	1469.540	1176.071
-12.633	23.393	1468.876	1175.203
-11.619	23.285	1468.435	1174.087
-10.604	23.380	1467.278	1173.746
-9.590	23.343	1466.798	1173.068
-8.575	23.320	1465.553	1171.872
-7.560	23.364	1464.583	1171.345
-6.546	23.394	1463.251	1170.433
-5.531	23.352	1462.837	1169.776
-4.517	23.366	1461.899	1169.075
-3.502	23.384	1461.058	1168.470
-2.487	23.342	1460.053	1167.346
-1.473	23.402	1458.579	1166.514
-0.458	23.399	1457.408	1165.513
0.556	21.620	1447.877	1154.131
1.571	18.701	1423.706	1115.820
2.586	15.417	1362.310	1047.147
3.600	14.010	1278.929	974.719
4.615	13.027	1235.634	936.071
5.629	11.405	1179.541	884.707
6.644	5.557	1097.799	793.743
7.659	0.902	1062.049	744.952
8.673	0.289	1056.549	738.030
9.688	0.125	1054.041	735.412
10.702	0.135	1051.746	733.791
11.717	0.201	1049.566	732.528
12.731	2.160	1050.324	742.523
13.746	8.382	1059.685	779.516
14.761	14.434	1067.143	814.594
15.775	16.707	1069.295	827.283
16.790	16.366	1068.261	824.746
17.804	15.427	1066.068	818.402
18.819	14.486	1064.608	812.623
19.834	14.199	1062.600	809.621
20.848	13.939	1062.031	807.851
21.863	13.802	1061.080	806.392
22.877	13.535	1060.199	804.354
23.892	13.160	1059.691	802.076
24.907	13.103	1058.919	801.144
25.921	13.199	1057.972	800.823
26.936	13.125	1057.460	800.005
27.950	13.178	1056.751	799.655
28.965	13.345	1056.015	799.838
29.980	13.191	1055.143	798.359
30.994	13.370	1053.866	798.188
32.009	13.388	1053.112	797.631
33.023	13.353	1052.591	796.999
34.038	13.378	1051.608	796.305
35.053	13.394	1051.039	795.878
36.067	13.406	1050.254	795.275
37.082	13.276	1049.438	793.962
38.096	13.366	1048.560	793.658
39.111	13.323	1047.768	792.782
40.126	13.390	1047.047	792.487
41.140	13.338	1045.522	791.013
42.155	13.214	1044.949	789.917
43.169	13.273	1043.847	789.297
44.184	13.081	1043.072	787.727
45.199	13.123	1041.897	786.966
46.213	13.268	1040.396	786.457
47.228	13.271	1039.762	785.922
48.242	13.292	1038.640	785.103
49.257	13.314	1037.780	784.488
50.271	13.261	1036.869	783.475
51.286	13.320	1035.898	782.952
52.301	13.267	1035.276	782.162
53.315	13.412	1033.983	781.803
54.330	13.171	1033.870	780.512
55.344	13.129	1032.578	779.266
56.359	13.284	1031.490	779.109
57.374	13.324	1030.629	778.579
58.388	13.273	1029.499	777.414
59.403	13.136	1029.117	776.411
60.417	13.085	1028.061	775.307
61.432	13.127	1027.795	775.237
62.447	13.087	1026.805	774.232
63.461	13.072	1026.209	773.644
64.476	13.115	1025.104	772.944
65.490	13.005	1024.066	771.577
66.505	13.005	1023.247	770.897
67.520	13.106	1022.235	770.533
68.534	13.229	1021.712	770.647
69.549	13.157	1021.129	769.803
70.563	13.118	1020.543	769.109
71.578	13.056	1019.786	768.184
72.593	13.166	1018.496	767.656
73.607	13.105	1017.541	766.586
74.622	12.971	1017.224	765.654
75.636	13.083	1016.063	765.235
76.651	13.168	1014.962	764.731
77.666	13.130	1014.118	763.849
78.680	13.089	1013.689	763.270
79.695	13.096	1013.314	762.952
80.709	13.154	1012.495	762.537
81.724	13.152	1011.811	761.947
82.739	13.147	1010.596	760.942
83.753	13.170	1010.223	760.700
84.768	13.218	1009.251	760.120
85.782	13.307	1008.441	759.849
86.797	13.354	1007.843	759.551
87.812	13.303	1006.948	758.573
88.826	13.204	1006.188	757.481
89.841	13.271	1005.147	756.934
90.855	13.327	1004.156	756.380
91.870	13.223	1004.001	755.720
92.884	13.292	1002.883	755.125
93.899	13.277	1002.397	754.624
94.914	13.378	1001.223	754.135
95.928	13.354	1000.850	753.678
96.943	13.409	1000.191	753.364
97.957	13.501	998.859	752.715
98.972	13.439	998.284	751.930
99.987	13.362	997.702	751.078
101.001	13.467	997.013	750.967
102.016	13.323	996.007	749.492
103.030	13.414	994.742	748.885
104.045	13.264	994.309	747.816
105.060	13.467	992.871	747.585
106.074	13.470	992.017	746.888
107.089	13.344	991.453	745.830
108.103	13.294	990.564	744.869
109.118	13.140	989.685	743.449
110.133	13.218	989.082	743.281
111.147	13.299	988.133	742.866
112.162	13.381	987.060	742.360
113.176	13.234	986.650	741.328
114.191	13.377	985.699	741.190
115.206	13.391	984.415	740.220
116.220	13.273	983.998	739.313
117.235	13.487	982.576	739.135
118.249	13.482	982.018	738.630
119.264	13.251	981.060	736.812
120.279	13.394	980.183	736.726
121.293	13.281	979.820	735.887
122.308	13.226	978.855	734.852
123.322	13.361	978.208	734.902
124.337	13.154	977.148	733.122
125.352	13.228	975.953	732.486
126.366	13.320	974.815	731.975
127.381	13.216	973.471	730.442
128.395	13.185	972.891	729.805
129.410	13.264	971.694	729.192
130.424	13.194	970.783	728.135
131.439	13.124	970.034	727.201
132.454	13.292	969.196	727.247
133.468	13.357	968.069	726.620
134.483	13.270	967.801	725.973
135.497	13.244	967.325	725.436
136.512	13.356	965.982	724.857
137.527	13.270	965.262	723.879
138.541	13.377	964.067	723.383
139.556	13.329	964.014	723.069
140.570	13.309	962.690	721.927
141.585	13.432	962.017	721.896
142.600	13.477	961.463	721.611
143.614	13.429	960.749	720.804
144.629	13.437	960.029	720.235
145.643	13.581	959.215	720.187
146.658	13.504	958.583	719.313
147.673	13.447	957.748	718.375
148.687	13.446	956.880	717.656
149.702	13.495	955.980	717.127
150.716	13.542	954.927	716.479
151.731	13.294	954.678	715.156
152.746	13.578	953.442	715.392
153.760	13.490	952.955	714.587
154.775	13.538	952.096	714.086
155.789	13.460	951.501	713.239
156.804	13.463	950.417	712.376
157.819	13.604	949.750	712.421
158.833	13.560	949.225	711.773
159.848	13.721	948.277	711.690
160.862	13.566	947.781	710.591
161.877	13.610	947.020	710.146
162.892	13.506	946.216	709.033
163.906	13.600	945.224	708.631
164.921	13.546	944.739	707.974
165.935	13.589	943.254	706.982
166.950	13.582	942.332	706.199
167.964	13.569	941.749	705.643
168.979	13.539	940.505	704.522
169.994	13.580	939.770	704.085
171.008	13.509	939.052	703.183
172.023	13.588	937.957	702.633
173.037	13.621	937.237	702.174
174.052	13.725	936.445	701.956
175.067	13.699	935.639	701.179
176.081	13.714	934.751	700.517
177.096	13.617	934.084	699.547
178.110	13.615	933.058	698.708
179.125	13.604	932.922	698.499
180.140	13.763	931.882	698.327
181.154	13.695	930.850	697.203
182.169	13.762	930.639	697.265
183.183	13.782	929.487	696.426
184.198	13.859	928.974	696.303
185.213	13.781	928.654	695.673
186.227	13.884	927.534	695.206
187.242	13.853	927.251	694.803
188.256	13.943	926.546	694.590
189.271	13.936	925.586	693.777
190.286	13.953	924.764	693.173
191.300	13.845	924.333	692.338
192.315	13.799	923.507	691.466
193.329	13.632	922.938	690.280
194.344	13.682	922.274	689.932
195.359	13.805	921.417	689.742
196.373	13.848	921.359	689.817
197.388	13.733	921.118	689.098
198.402	13.825	920.314	688.816
199.417	13.955	919.801	688.910
200.432	13.988	919.592	688.828
201.446	14.168	918.734	688.873
202.461	14.125	918.190	688.224
203.475	14.126	917.718	687.814
204.490	14.128	917.383	687.510
205.504	14.071	916.098	686.252
206.519	14.098	915.440	685.808
207.534	14.071	914.742	685.113
208.548	14.127	913.916	684.665
209.563	14.141	913.081	684.037
210.577	14.268	912.493	684.059
211.592	14.175	911.796	683.094
212.607	14.111	911.396	682.472
213.621	14.255	910.647	682.440
214.636	14.169	909.994	681.537
215.650	14.117	909.401	680.819
216.665	14.370	908.531	681.142
217.680	14.342	908.234	680.745
218.694	14.302	907.824	680.215
219.709	14.313	907.121	679.672
220.723	14.244	906.707	679.022
221.738	14.275	905.931	678.508
222.753	14.378	904.988	678.157
223.767	14.388	904.192	677.545
224.782	14.384	903.442	676.904
225.796	14.512	902.893	676.954
226.811	14.486	902.086	676.181
227.826	14.442	901.866	675.779
228.840	14.463	900.794	675.004
229.855	14.447	900.315	674.518
230.869	14.607	899.100	674.196
231.884	14.397	899.141	673.318
232.899	14.334	898.845	672.782
233.913	14.415	897.746	672.226
234.928	14.588	896.302	671.783
235.942	14.461	896.057	671.028
236.957	14.421	895.391	670.310
237.972	14.428	895.141	670.090
238.986	14.489	894.356	669.688
240.001	14.516	893.438	669.052
241.015	14.416	893.070	668.316
242.030	14.480	892.523	668.103
243.045	14.534	891.814	667.728
244.059	14.720	890.592	667.498
245.074	14.627	890.309	666.857
246.088	14.540	890.109	666.300
247.103	14.685	889.308	666.218
248.117	14.736	888.481	665.744
249.132	14.683	888.057	665.158
250.147	14.769	887.439	664.977
251.161	14.910	886.554	664.815
252.176	14.882	886.213	664.388
253.190	14.906	885.642	664.000
254.205	14.873	885.038	663.355
255.220	14.987	884.298	663.194
256.234	14.975	883.685	662.628
257.249	14.996	883.254	662.331
258.263	15.068	882.496	661.989
259.278	14.984	881.843	661.108
260.293	14.982	881.534	660.808
261.307	14.920	881.056	660.150
262.322	15.034	879.970	659.725
263.336	15.094	879.307	659.405
264.351	15.087	878.900	659.014
265.366	15.103	878.170	658.473
266.380	15.193	877.578	658.323
267.395	15.228	876.649	657.707
268.409	15.110	876.207	656.855
269.424	15.149	875.609	656.500
270.439	15.123	874.962	655.853
271.453	15.223	873.962	655.440
272.468	15.218	873.055	654.682
273.482	15.115	872.733	653.978
274.497	15.073	872.101	653.282
275.512	15.176	871.541	653.209
276.526	15.244	870.828	652.879
277.541	15.173	870.232	652.097
278.555	15.177	869.710	651.666
279.570	15.153	868.981	650.968
280.585	15.280	868.129	650.765
281.599	15.275	867.834	650.469
282.614	15.313	867.183	650.072
283.628	15.354	866.779	649.869
284.643	15.280	866.274	649.147
285.657	15.455	865.127	648.906
286.672	15.346	865.107	648.413
287.687	15.348	864.652	648.021
288.701	15.425	863.940	647.726
289.716	15.440	863.634	647.499
290.730	15.404	862.862	646.722
291.745	15.528	862.241	646.677
292.760	15.500	861.307	645.813
293.774	15.389	860.808	644.953
294.789	15.516	860.382	645.065
295.803	15.613	859.675	644.851
296.818	15.636	858.885	644.289
297.833	15.558	858.451	643.609
298.847	15.553	857.703	642.973
299.862	15.519	857.024	642.276
300.876	15.570	856.213	641.808
301.891	15.629	855.616	641.528
302.906	15.595	854.898	640.804
303.920	15.612	854.627	640.606
304.935	15.655	853.734	640.044
305.949	15.783	853.080	639.986
306.964	15.756	852.586	639.454
307.979	15.887	851.721	639.247
308.993	15.723	851.413	638.338
310.008	15.877	850.885	638.468
311.022	15.832	850.120	637.668
312.037	15.922	849.454	637.453
313.052	15.854	849.409	637.106
314.066	15.919	848.518	636.626
315.081	15.786	848.431	636.001
316.095	15.721	847.738	635.182
317.110	15.934	846.777	635.209
318.125	15.828	846.438	634.499
319.139	15.878	846.004	634.303
320.154	15.895	845.417	633.872
321.168	15.910	844.739	633.364
322.183	15.847	844.276	632.726
323.197	15.815	844.044	632.373
324.212	15.854	843.178	631.815
325.227	15.882	842.636	631.460
326.241	16.016	842.352	631.692
327.256	16.041	841.669	631.217
328.270	16.154	840.895	631.006
329.285	15.888	840.516	629.671
330.300	15.856	839.980	629.091
331.314	15.992	839.802	629.413
332.329	16.087	838.502	628.738
333.343	15.996	838.196	628.113
334.358	15.960	838.047	627.810
335.373	15.995	836.973	627.083
336.387	16.098	836.305	626.907
337.402	16.070	836.111	626.601
338.416	16.151	835.291	626.233
339.431	16.209	834.699	625.948
340.446	16.349	834.098	625.961
341.460	16.232	833.500	625.025
342.475	16.491	832.895	625.475
343.489	16.290	832.794	624.599
344.504	16.417	831.985	624.407
345.519	16.444	831.351	623.977
346.533	16.499	830.834	623.734
347.548	16.417	830.430	623.075
348.562	16.309	830.345	622.558
349.577	16.279	829.717	621.919
350.592	16.397	828.690	621.529
351.606	16.251	828.910	621.102
352.621	16.307	828.054	620.612
353.635	16.338	827.556	620.298
354.650	16.424	827.637	620.620
355.665	16.376	826.927	619.856
356.679	16.355	826.567	619.454
357.694	16.539	825.687	619.415
358.708	16.477	825.110	618.699
359.723	16.509	824.826	618.550
360.738	16.392	824.253	617.638
361.752	16.517	823.520	617.491
362.767	16.614	823.108	617.481
363.781	16.423	823.099	616.721
364.796	16.634	822.259	616.806
365.810	16.611	821.807	616.330
366.825	16.854	821.179	616.688
367.840	16.594	821.360	615.825
368.854	16.734	820.863	615.905
369.869	16.768	820.465	615.676
370.883	16.834	819.319	614.999
371.898	16.770	818.888	614.392
372.913	16.623	818.481	613.499
373.927	16.734	817.969	613.462
374.942	16.783	817.264	613.056
375.956	16.921	816.467	612.903
376.971	16.948	815.836	612.473
377.986	16.805	815.681	611.785
379.000	16.926	815.184	611.796
380.015	17.030	814.690	611.745
381.029	17.066	814.343	611.559
382.044	16.871	813.694	610.316
383.059	17.069	812.597	610.150
384.073	17.046	812.340	609.823
385.088	17.029	811.853	609.341
386.102	16.981	811.094	608.546
387.117	16.998	810.520	608.123
388.132	16.978	810.231	607.778
389.146	16.913	810.060	607.364
390.161	16.949	810.125	607.490
391.175	16.968	809.491	607.030
392.190	17.124	808.887	607.079
393.205	16.988	808.529	606.272
394.219	17.105	807.749	606.051
395.234	16.994	807.463	605.384
396.248	17.082	806.907	605.230
397.263	17.098	806.617	605.014
398.278	16.944	805.935	603.901
399.292	17.039	805.649	603.972
400.307	17.070	805.302	603.768
401.321	17.181	804.851	603.773
402.336	17.092	804.437	603.093
403.350	17.119	804.201	602.957
404.365	17.097	803.532	602.326
405.380	17.048	802.978	601.682
406.394	17.191	802.554	601.819
407.409	17.297	802.421	602.040
408.423	17.324	801.594	601.461
409.438	17.394	800.783	601.046
410.453	17.381	800.630	600.833
411.467	17.442	800.191	600.666
412.482	17.456	799.668	600.270
413.496	17.512	799.351	600.176
414.511	17.421	799.048	599.576
415.526	17.462	798.460	599.225
416.540	17.406	798.408	598.936
417.555	17.511	797.880	598.855
418.569	17.487	797.481	598.418
419.584	17.467	796.860	597.830
420.599	17.408	796.523	597.317
421.613	113.428	1297.521	1486.991
422.628	97.662	1370.484	1487.055
