DTS Sentinel unit serial number:	SN413079Multiplexer serial number:	ORYXHardware model number:	OX4-SRSoftware version number:	ORYX F/W v4.00 Oryx Data Collector v3.7.2.0data status	okinstallation	princeton_trtdifferential loss correction	single-endedforward channel	channel 3reverse channel	N/Adate	2019/09/18time	02:00:35forward acquisition time	60.00reverse acquisition time	0.00gamma	496.2192k internal	0.2345k external	0.2345temperature offset calibration	0.9945default loss term (dB/km)	0.3790temperature slope calibration	1.0000multiplexer offset coefficient	1.0000multiplexer slope coefficient	1.0000fibre end	0.00T internal ref (°C)	22.94T ext. ref 1 (°C)	0.16T ext. ref 2 (°C)	16.68length (m)	temperature (°C)	Stokes	anti-Stokes-747.200	-65.768	0.133	-0.053
-746.185	-8.706	0.199	0.134
-745.171	76.658	0.326	0.347
-744.156	800.000	-0.035	0.150
-743.142	187.626	0.209	0.312
-742.127	-200.000	0.013	0.095
-741.112	-120.198	0.335	-0.057
-740.098	570.559	-0.063	-0.153
-739.083	-113.600	-0.134	0.026
-738.069	111.965	0.061	0.074
-737.054	-87.264	0.171	0.052
-736.039	-51.590	-0.561	-0.262
-735.025	-146.915	0.202	0.017
-734.010	-200.000	-0.068	-0.320
-732.996	526.075	0.123	-0.289
-731.981	-200.000	-0.066	-0.416
-730.966	29.314	0.229	-0.194
-729.952	118.335	-0.184	0.227
-728.937	-62.096	0.070	-0.029
-727.923	624.155	-0.061	0.155
-726.908	-200.000	-0.012	-0.069
-725.894	32.088	0.197	0.170
-724.879	800.000	0.092	-0.290
-723.864	62.882	-0.047	-0.047
-722.850	-200.000	-0.070	0.410
-721.835	-88.712	-0.099	-0.029
-720.821	-200.000	-0.026	-0.126
-719.806	-100.605	0.323	-0.080
-718.791	800.000	-0.060	-0.224
-717.777	-52.870	-0.375	0.173
-716.762	341.939	-0.153	-0.299
-715.748	109.459	0.164	-0.196
-714.733	-20.010	0.344	0.212
-713.718	-151.177	-0.191	-0.014
-712.704	298.383	-0.114	-0.210
-711.689	-200.000	0.032	-0.168
-710.675	-76.317	-0.216	0.076
-709.660	265.481	0.099	-0.173
-708.645	800.000	-0.062	-0.184
-707.631	-200.000	-0.006	0.087
-706.616	-95.508	0.177	-0.047
-705.602	186.121	0.161	-0.240
-704.587	-72.041	-0.236	0.088
-703.572	53.312	-0.358	-0.343
-702.558	-200.000	0.013	-0.150
-701.543	3.117	0.321	0.233
-700.529	-13.978	-0.251	-0.162
-699.514	-184.831	-0.023	-0.000
-698.499	1.144	0.126	-0.090
-697.485	800.000	0.051	-0.172
-696.470	261.834	-0.126	-0.218
-695.456	-106.823	0.127	0.028
-694.441	-49.060	-0.108	0.052
-693.426	112.951	-0.243	0.294
-692.412	141.058	0.209	-0.276
-691.397	303.130	0.118	-0.219
-690.383	545.751	-0.176	0.421
-689.368	-11.617	0.151	-0.099
-688.354	0.435	0.427	-0.305
-687.339	-64.503	-0.071	0.029
-686.324	-18.239	0.203	-0.127
-685.310	-2.627	0.166	0.116
-684.295	-200.000	0.013	-0.172
-683.281	-122.632	-0.240	-0.039
-682.266	-71.141	0.210	0.079
-681.251	629.051	-0.057	0.143
-680.237	5.573	0.029	0.021
-679.222	-111.089	-0.203	-0.042
-678.208	-72.509	0.124	0.046
-677.193	-83.907	-0.005	0.002
-676.178	-21.948	0.176	-0.107
-675.164	800.000	-0.063	0.231
-674.149	-76.183	0.229	0.081
-673.135	139.236	0.053	0.070
-672.120	311.222	-0.139	-0.260
-671.105	755.963	0.010	0.028
-670.091	9.738	-0.152	-0.115
-669.076	-200.000	0.075	-0.385
-668.062	10.007	0.143	-0.108
-667.047	168.901	0.140	-0.200
-666.032	-200.000	0.007	0.236
-665.018	-72.671	-0.045	-0.016
-664.003	37.885	0.041	-0.037
-662.989	76.087	0.139	0.146
-661.974	22.403	-0.293	-0.239
-660.959	89.568	-0.197	-0.219
-659.945	-76.480	0.178	-0.062
-658.930	-65.649	-0.508	0.203
-657.916	-1.702	0.099	0.069
-656.901	204.113	-0.146	-0.225
-655.886	44.684	-0.272	-0.249
-654.872	-92.169	0.136	-0.038
-653.857	229.738	-0.142	0.231
-652.843	-122.528	-0.073	-0.012
-651.828	-200.000	-0.030	-0.168
-650.814	-0.353	-0.148	-0.105
-649.799	-63.611	0.101	-0.041
-648.784	-81.070	-0.099	-0.033
-647.770	-0.728	-0.324	0.229
-646.755	83.045	-0.041	-0.044
-645.741	251.800	0.174	0.296
-644.726	126.566	-0.200	0.253
-643.711	-200.000	-0.006	0.219
-642.697	-141.095	-0.272	-0.028
-641.682	159.643	-0.053	-0.073
-640.668	-200.000	0.019	-0.100
-639.653	-78.897	-0.310	0.105
-638.638	149.263	-0.101	0.137
-637.624	250.617	-0.146	-0.248
-636.609	-72.067	0.075	0.028
-635.595	-20.733	-0.207	0.127
-634.580	527.858	-0.008	-0.018
-633.565	123.164	-0.208	-0.259
-632.551	228.257	-0.185	-0.301
-631.536	-2.094	0.147	0.103
-630.522	-116.128	0.250	0.046
-629.507	-89.410	0.378	-0.111
-628.492	-42.156	-0.132	-0.067
-627.478	102.190	-0.175	-0.204
-626.463	-78.100	-0.131	-0.045
-625.449	46.699	0.089	0.082
-624.434	-110.211	0.191	0.040
-623.419	-8.522	0.329	0.220
-622.405	-14.581	0.120	0.077
-621.390	-200.000	0.017	-0.174
-620.376	800.000	0.021	-0.067
-619.361	-200.000	-0.008	-0.377
-618.346	-200.000	-0.054	-0.276
-617.332	116.741	0.097	0.119
-616.317	-29.101	-0.121	-0.069
-615.303	-200.000	0.017	-0.186
-614.288	-39.463	-0.182	-0.095
-613.273	800.000	-0.027	0.092
-612.259	-116.330	-0.255	-0.047
-611.244	-143.103	0.102	-0.010
-610.230	-38.598	-0.243	-0.128
-609.215	-121.404	-0.083	0.014
-608.201	468.821	0.054	-0.122
-607.186	-73.067	0.068	-0.025
-606.171	75.488	-0.118	-0.124
-605.157	14.728	-0.158	0.123
-604.142	-200.000	-0.006	0.060
-603.128	800.000	0.036	-0.110
-602.113	308.170	0.055	0.102
-601.098	-28.724	-0.123	-0.070
-600.084	-81.905	-0.207	0.067
-599.069	-15.612	0.142	-0.090
-598.055	-137.734	0.268	0.030
-597.040	195.512	0.064	-0.097
-596.025	25.725	-0.078	0.064
-595.011	66.864	-0.179	0.182
-593.996	-52.997	0.171	0.078
-592.982	800.000	0.081	-0.240
-591.967	494.370	-0.093	-0.213
-590.952	108.772	-0.338	-0.401
-589.938	420.521	0.102	0.217
-588.923	-200.000	0.024	0.260
-587.909	24.812	0.076	0.063
-586.894	800.000	0.034	-0.105
-585.879	-33.642	0.323	0.177
-584.865	-43.159	0.044	0.022
-583.850	-200.000	-0.021	0.118
-582.836	664.453	0.151	0.387
-581.821	57.889	-0.186	0.181
-580.806	-200.000	-0.002	-0.022
-579.792	-200.000	-0.099	-0.502
-578.777	-121.083	0.245	0.041
-577.763	55.070	-0.262	0.252
-576.748	-142.336	0.371	0.036
-575.733	-200.000	-0.002	0.198
-574.719	800.000	-0.142	-0.404
-573.704	800.000	-0.039	-0.129
-572.690	-200.000	0.016	0.139
-571.675	-119.390	-0.311	-0.054
-570.661	47.643	-0.078	0.073
-569.646	-105.869	0.318	-0.071
-568.631	800.000	0.104	-0.407
-567.617	723.015	0.168	0.443
-566.602	800.000	-0.070	0.214
-565.588	465.048	-0.144	0.321
-564.573	-200.000	-0.268	0.000
-563.558	-200.000	-0.034	-0.214
-562.544	283.999	-0.123	-0.220
-561.529	-95.168	0.084	0.022
-560.515	-152.541	-0.221	-0.016
-559.500	627.214	-0.162	-0.406
-558.485	-200.000	-0.020	-0.404
-557.471	-200.000	0.005	0.052
-556.456	250.198	0.203	-0.342
-555.442	-120.171	0.139	0.024
-554.427	-54.110	0.144	0.065
-553.412	75.771	0.059	-0.062
-552.398	99.584	0.101	0.116
-551.383	172.116	-0.190	0.271
-550.369	140.728	-0.104	0.136
-549.354	195.880	0.012	-0.017
-548.339	-19.379	0.213	-0.131
-547.325	255.181	-0.057	0.097
-546.310	-103.496	-0.429	0.100
-545.296	575.156	0.074	0.178
-544.281	544.669	0.195	0.461
-543.266	-200.000	0.004	0.117
-542.252	800.000	-0.008	-0.034
-541.237	-200.000	0.061	0.357
-540.223	-19.103	0.135	-0.084
-539.208	-126.510	-0.382	0.056
-538.193	145.422	0.390	0.518
-537.179	-200.000	-0.035	0.268
-536.164	-117.455	-0.500	0.090
-535.150	-76.263	-0.119	0.042
-534.135	766.827	-0.060	-0.163
-533.121	-19.716	0.432	-0.265
-532.106	-127.783	-0.241	-0.035
-531.091	-0.113	-0.267	-0.188
-530.077	29.500	0.185	-0.156
-529.062	-102.768	-0.074	-0.018
-528.048	-58.130	-0.206	-0.089
-527.033	25.082	0.207	-0.170
-526.018	60.173	0.196	0.192
-525.004	711.676	0.091	0.240
-523.989	-158.137	-0.103	0.006
-522.975	410.693	0.154	0.325
-521.960	181.577	-0.241	-0.352
-520.945	-90.272	-0.081	-0.023
-519.931	-133.745	0.048	-0.006
-518.916	88.255	-0.102	0.112
-517.902	105.721	-0.086	-0.101
-516.887	-85.379	0.106	-0.033
-515.872	800.000	-0.032	0.127
-514.858	-17.738	0.137	0.085
-513.843	-18.591	0.205	-0.127
-512.829	450.716	-0.075	-0.165
-511.814	-109.234	-0.143	0.030
-510.799	52.612	-0.212	0.201
-509.785	-56.908	0.064	-0.028
-508.770	188.290	-0.228	-0.338
-507.756	-145.499	0.235	0.021
-506.741	610.656	0.046	-0.114
-505.726	40.686	-0.231	0.206
-504.712	38.469	-0.132	-0.117
-503.697	-60.675	0.235	-0.099
-502.683	89.681	-0.182	-0.201
-501.668	148.233	0.022	-0.029
-500.653	800.000	0.022	-0.087
-499.639	37.435	-0.201	-0.176
-498.624	62.737	0.137	0.136
-497.610	-200.000	-0.021	0.137
-496.595	-200.000	0.006	-0.525
-495.581	-200.000	0.021	-0.131
-494.566	-4.733	-0.258	0.176
-493.551	-200.000	-0.055	-0.316
-492.537	-81.203	-0.342	-0.112
-491.522	-33.437	0.181	0.099
-490.508	96.071	-0.165	-0.187
-489.493	-135.782	0.090	0.011
-488.478	26.748	-0.244	0.202
-487.464	477.335	-0.177	0.396
-486.449	-200.000	0.054	0.328
-485.435	39.227	-0.133	0.117
-484.420	-30.707	0.027	-0.015
-483.405	800.000	0.084	-0.354
-482.391	53.651	-0.201	-0.191
-481.376	-164.529	-0.197	-0.009
-480.362	524.504	0.198	0.461
-479.347	800.000	0.073	0.213
-478.332	800.000	0.029	0.120
-477.318	-118.583	0.166	0.029
-476.303	-94.744	-0.212	-0.057
-475.289	0.183	-0.103	0.073
-474.274	-10.398	0.356	-0.234
-473.259	-130.970	0.103	-0.014
-472.245	-6.978	-0.156	0.105
-471.230	180.361	0.206	0.300
-470.216	-200.000	-0.009	0.202
-469.201	226.298	0.079	-0.128
-468.186	135.752	0.228	0.294
-467.172	-134.878	0.225	-0.027
-466.157	-200.000	0.064	-0.280
-465.143	210.062	0.099	0.153
-464.128	-200.000	-0.000	0.149
-463.113	294.098	-0.141	-0.255
-462.099	-44.031	0.103	-0.051
-461.084	174.540	-0.226	0.324
-460.070	752.902	0.073	0.194
-459.055	-10.916	0.235	-0.154
-458.040	-170.729	-0.625	0.021
-457.026	8.298	0.393	-0.293
-456.011	-23.029	-0.028	-0.017
-454.997	800.000	-0.045	-0.167
-453.982	13.108	0.128	-0.098
-452.968	-87.715	0.216	0.064
-451.953	165.197	-0.064	-0.089
-450.938	28.836	-0.115	0.096
-449.924	800.000	-0.078	-0.231
-448.909	800.000	0.034	-0.095
-447.895	83.968	0.135	-0.146
-446.880	27.582	0.091	0.076
-445.865	-116.414	-0.276	-0.050
-444.851	720.117	0.057	0.149
-443.836	-145.789	0.304	0.027
-442.822	13.584	-0.124	0.095
-441.807	-200.000	0.062	-0.363
-440.792	48.779	-0.266	-0.247
-439.778	800.000	-0.073	-0.252
-438.763	230.290	-0.131	0.211
-437.749	7.636	-0.133	-0.098
-436.734	800.000	-0.054	0.180
-435.719	-148.977	-0.223	0.018
-434.705	800.000	0.030	-0.101
-433.690	-99.393	-0.062	-0.016
-432.676	482.589	-0.042	-0.094
-431.661	800.000	-0.075	0.221
-430.646	170.836	0.189	-0.267
-429.632	-54.083	-0.074	0.033
-428.617	-77.198	-0.147	0.051
-427.603	93.818	-0.198	-0.222
-426.588	-200.000	0.014	0.284
-425.573	-2.534	0.345	0.239
-424.559	-75.877	-0.106	-0.037
-423.544	193.328	0.112	-0.167
-422.530	-39.070	-0.052	0.027
-421.515	800.000	0.060	-0.238
-420.500	-48.872	0.195	-0.092
-419.486	72.705	-0.207	0.213
-418.471	43.243	0.199	0.179
-417.457	-200.000	-0.001	-0.078
-416.442	-200.000	-0.002	0.057
-415.428	800.000	-0.090	0.361
-414.413	178.841	0.100	0.144
-413.398	800.000	-0.067	0.219
-412.384	-200.000	0.004	0.081
-411.369	800.000	-0.045	0.129
-410.355	529.251	0.100	0.233
-409.340	-110.965	0.090	0.018
-408.325	-200.000	0.051	-0.225
-407.311	-129.645	0.161	0.022
-406.296	152.224	-0.054	-0.073
-405.282	-187.256	0.082	-0.001
-404.267	739.228	-0.162	-0.430
-403.252	211.357	0.152	-0.236
-402.238	-165.501	0.340	-0.015
-401.223	800.000	-0.039	-0.142
-400.209	-73.114	0.170	0.061
-399.194	-73.922	0.106	-0.038
-398.179	-40.230	0.098	-0.050
-397.165	-161.485	0.305	-0.016
-396.150	800.000	-0.044	-0.168
-395.136	57.617	-0.227	0.219
-394.121	290.325	0.224	-0.402
-393.106	-200.000	0.031	-0.180
-392.092	800.000	0.122	0.387
-391.077	770.923	-0.048	-0.130
-390.063	800.000	-0.033	-0.104
-389.048	181.030	-0.129	0.187
-388.033	328.701	0.110	0.209
-387.019	-15.670	-0.113	-0.071
-386.004	137.486	-0.164	-0.212
-384.990	285.458	0.087	-0.155
-383.975	300.660	-0.240	-0.436
-382.960	-200.000	0.036	-0.302
-381.946	272.414	-0.124	-0.216
-380.931	4.761	0.090	0.065
-379.917	173.743	0.128	-0.183
-378.902	-84.130	-0.117	-0.037
-377.888	481.150	0.166	0.371
-376.873	58.687	-0.427	0.414
-375.858	34.999	0.096	-0.083
-374.844	-69.624	-0.146	-0.055
-373.829	59.153	0.140	-0.136
-372.815	-107.730	0.031	0.007
-371.800	-159.390	-0.327	0.018
-370.785	-42.005	-0.130	-0.066
-369.771	-87.230	0.162	0.048
-368.756	76.188	0.145	0.151
-367.742	183.887	-0.093	0.135
-366.727	27.926	-0.090	-0.074
-365.712	-104.123	0.310	-0.071
-364.698	46.122	0.270	-0.247
-363.683	-56.204	-0.365	-0.160
-362.669	-55.949	0.142	-0.062
-361.654	-88.387	-0.259	-0.076
-360.639	282.394	0.070	0.124
-359.625	-200.000	0.003	0.215
-358.610	-81.402	-0.269	-0.087
-357.596	207.330	-0.050	0.078
-356.581	-200.000	0.020	0.276
-355.566	10.840	-0.277	0.208
-354.552	478.324	-0.085	-0.191
-353.537	119.464	-0.061	0.075
-352.523	-200.000	0.089	-0.577
-351.508	-200.000	0.078	-0.410
-350.493	374.660	0.083	-0.167
-349.479	-80.840	0.386	-0.126
-348.464	-22.468	-0.119	-0.071
-347.450	-81.279	-0.131	0.043
-346.435	-0.132	0.253	0.177
-345.420	-144.967	-0.146	-0.013
-344.406	-200.000	-0.028	0.284
-343.391	173.335	-0.136	0.193
-342.377	800.000	-0.056	0.188
-341.362	800.000	-0.084	-0.323
-340.348	-89.234	0.119	0.035
-339.333	-120.187	-0.207	0.035
-338.318	-133.015	0.189	0.024
-337.304	461.298	0.111	0.244
-336.289	-200.000	0.010	-0.137
-335.275	319.252	-0.017	-0.033
-334.260	-120.273	0.390	-0.066
-333.245	-11.852	-0.315	-0.204
-332.231	101.797	-0.171	0.197
-331.216	541.051	0.146	0.343
-330.202	-200.000	-0.001	-0.087
-329.187	-18.949	-0.160	0.098
-328.172	123.201	0.254	0.314
-327.158	-200.000	0.003	0.035
-326.143	-92.084	-0.278	-0.077
-325.129	-112.637	0.066	0.013
-324.114	461.585	0.220	-0.483
-323.099	-37.221	-0.179	-0.094
-322.085	-167.028	-0.094	0.004
-321.070	-57.981	-0.167	0.072
-320.056	244.779	0.158	-0.261
-319.041	84.156	0.050	-0.054
-318.026	-42.238	0.163	-0.082
-317.012	-56.984	0.206	0.090
-315.997	800.000	0.031	-0.120
-314.983	800.000	0.135	-0.520
-313.968	19.107	-0.219	0.173
-312.953	-45.994	0.269	0.130
-311.939	348.050	-0.108	-0.209
-310.924	-191.914	-0.491	-0.005
-309.910	-48.688	0.102	0.048
-308.895	-200.000	-0.000	0.119
-307.880	-198.226	0.222	0.001
-306.866	-182.790	0.261	0.005
-305.851	-200.000	-0.047	0.257
-304.837	-148.292	0.040	-0.003
-303.822	2.104	0.211	0.150
-302.807	-200.000	-0.012	-0.117
-301.793	-200.000	-0.092	0.418
-300.778	76.437	-0.196	0.204
-299.764	-79.709	0.176	0.058
-298.749	-200.000	-0.014	0.157
-297.735	55.258	0.028	0.026
-296.720	-200.000	-0.002	-0.049
-295.705	800.000	0.089	0.296
-294.691	157.358	-0.197	0.268
-293.676	12.036	-0.240	0.181
-292.662	-200.000	-0.008	-0.145
-291.647	-62.445	0.077	-0.032
-290.632	-200.000	0.007	-0.051
-289.618	746.284	-0.050	-0.133
-288.603	-200.000	-0.044	-0.192
-287.589	800.000	0.111	-0.352
-286.574	-200.000	-0.018	-0.119
-285.559	-200.000	-0.003	-0.018
-284.545	-200.000	0.025	-0.165
-283.530	-5.854	0.325	-0.219
-282.516	-200.000	0.047	0.256
-281.501	18.592	-0.247	0.194
-280.486	-76.003	-0.130	0.045
-279.472	-66.114	0.173	0.068
-278.457	800.000	-0.022	-0.070
-277.443	355.297	0.154	-0.301
-276.428	738.640	0.072	0.191
-275.413	-200.000	0.024	0.254
-274.399	290.029	-0.068	0.121
-273.384	306.594	-0.075	0.136
-272.370	-200.000	-0.006	0.032
-271.355	113.527	-0.018	-0.021
-270.340	-200.000	0.014	0.232
-269.326	-200.000	-0.056	-0.356
-268.311	52.173	-0.110	0.103
-267.297	800.000	0.081	0.253
-266.282	-116.292	0.290	-0.053
-265.267	74.478	0.338	-0.349
-264.253	800.000	-0.101	0.301
-263.238	710.024	0.056	0.145
-262.224	-20.281	-0.208	0.126
-261.209	800.000	-0.084	0.261
-260.195	800.000	-0.114	0.401
-259.180	159.185	-0.046	0.063
-258.165	-200.000	0.022	0.270
-257.151	246.268	0.179	0.296
-256.136	800.000	0.123	-0.372
-255.122	152.951	-0.109	0.146
-254.107	200.586	0.129	0.195
-253.092	800.000	-0.030	0.108
-252.078	800.000	0.069	0.255
-251.063	800.000	-0.067	0.235
-250.049	-200.000	0.009	-0.100
-249.034	-182.541	0.268	-0.005
-248.019	-200.000	-0.063	0.282
-247.005	-9.723	-0.314	-0.205
-245.990	-35.853	0.129	0.068
-244.976	-200.000	0.037	0.286
-243.961	-200.000	0.013	-0.215
-242.946	526.582	0.157	-0.363
-241.932	-65.659	-0.057	-0.022
-240.917	-75.931	-0.078	-0.027
-239.903	-123.219	-0.191	-0.030
-238.888	-200.000	0.005	-0.199
-237.873	764.730	-0.060	-0.161
-236.859	-135.088	0.219	0.026
-235.844	54.662	0.103	-0.098
-234.830	-19.043	-0.117	-0.071
-233.815	800.000	0.083	0.284
-232.800	-200.000	-0.004	-0.090
-231.786	1.196	-0.162	-0.114
-230.771	-48.562	-0.176	0.083
-229.757	-200.000	0.037	0.272
-228.742	-64.655	0.157	-0.063
-227.727	-73.819	-0.367	-0.131
-226.713	-130.795	0.348	-0.046
-225.698	222.330	0.159	-0.251
-224.684	99.789	0.205	0.232
-223.669	-4.625	0.381	-0.258
-222.655	304.142	0.088	-0.161
-221.640	394.772	0.133	-0.273
-220.625	-116.301	0.093	-0.017
-219.611	-27.160	0.059	-0.034
-218.596	368.942	-0.052	0.104
-217.582	47.013	-0.125	0.114
-216.567	9.077	0.235	0.174
-215.552	559.392	0.079	0.187
-214.538	-47.978	0.297	-0.141
-213.523	-128.363	-0.224	0.031
-212.509	642.537	-0.013	-0.032
-211.494	800.000	0.108	0.424
-210.479	800.000	-0.064	0.178
-209.465	-200.000	-0.036	0.335
-208.450	413.300	-0.034	0.070
-207.436	-200.000	0.020	-0.106
-206.421	215.395	-0.193	-0.300
-205.406	298.470	0.073	-0.131
-204.392	99.570	0.143	-0.162
-203.377	-84.559	-0.185	0.057
-202.363	-47.587	0.280	-0.133
-201.348	-55.819	-0.218	0.095
-200.333	609.418	0.045	0.110
-199.319	-132.230	-0.289	-0.037
-198.304	3.799	0.026	0.018
-197.290	623.852	-0.019	-0.046
-196.275	311.410	-0.167	-0.306
-195.260	4.522	0.250	-0.180
-194.246	12.406	-0.201	0.152
-193.231	-125.110	-0.216	0.032
-192.217	219.050	-0.091	0.142
-191.202	93.375	0.084	0.093
-190.187	-146.939	0.100	-0.008
-189.173	147.797	-0.167	-0.221
-188.158	150.548	0.179	0.238
-187.144	-72.902	0.368	-0.132
-186.129	262.143	-0.017	0.028
-185.114	426.996	0.083	0.176
-184.100	800.000	0.039	-0.146
-183.085	-38.004	0.187	-0.097
-182.071	-200.000	0.006	0.264
-181.056	738.416	0.100	0.261
-180.042	10.136	0.177	-0.132
-179.027	-200.000	-0.019	0.405
-178.012	800.000	0.024	0.068
-176.998	-200.000	0.021	-0.157
-175.983	100.820	0.294	-0.335
-174.969	198.730	-0.062	-0.093
-173.954	-122.533	-0.257	-0.041
-172.939	-102.073	0.291	-0.069
-171.925	21.035	0.094	0.075
-170.910	800.000	0.041	-0.120
-169.896	268.537	0.024	0.042
-168.881	-200.000	0.075	-0.425
-167.866	800.000	0.023	0.075
-166.852	260.314	-0.038	0.063
-165.837	143.065	-0.150	-0.195
-164.823	800.000	0.040	0.138
-163.808	215.704	0.098	0.152
-162.793	19.849	0.160	0.126
-161.779	800.000	-0.037	-0.140
-160.764	-168.395	0.046	-0.002
-159.750	-159.647	-0.161	0.009
-158.735	15.819	0.309	0.238
-157.720	508.143	0.168	0.381
-156.706	-36.639	-0.357	-0.188
-155.691	94.724	-0.178	-0.198
-154.677	-48.800	-0.085	0.040
-153.662	9.876	-0.173	-0.128
-152.647	4.674	-0.234	-0.168
-151.633	23.961	0.142	-0.115
-150.618	800.000	-0.096	0.266
-149.604	-200.000	0.015	-0.177
-148.589	-200.000	0.023	0.132
-147.574	800.000	0.057	-0.157
-146.560	-58.949	-0.331	0.140
-145.545	-20.289	0.423	-0.255
-144.531	-92.004	-0.192	0.053
-143.516	202.655	-0.009	-0.013
-142.502	7.468	0.113	0.083
-141.487	-49.423	0.199	-0.093
-140.472	-141.026	0.229	-0.023
-139.458	-200.000	0.077	0.334
-138.443	-200.000	0.011	-0.391
-137.429	64.889	-0.194	0.191
-136.414	-37.829	-0.059	-0.031
-135.399	-46.919	0.290	-0.138
-134.385	-200.000	-0.017	-0.075
-133.370	-112.533	-0.171	0.033
-132.356	88.695	-0.134	-0.146
-131.341	-136.508	-0.035	-0.004
-130.326	60.506	-0.273	-0.264
-129.312	64.909	0.110	0.108
-128.297	800.000	-0.014	0.061
-127.283	-43.666	0.087	-0.043
-126.268	-86.722	0.118	0.035
-125.253	140.889	0.169	-0.218
-124.239	-55.548	0.150	-0.065
-123.224	-155.242	0.424	0.027
-122.210	546.018	-0.098	0.229
-121.195	45.337	-0.185	-0.167
-120.180	800.000	0.068	-0.228
-119.166	22.842	-0.108	0.086
-118.151	248.833	-0.114	-0.188
-117.137	666.640	0.027	0.068
-116.122	800.000	-0.041	0.166
-115.107	571.826	0.115	0.274
-114.093	-200.000	-0.054	0.521
-113.078	-114.050	-0.347	0.066
-112.064	524.430	-0.089	0.204
-111.049	-200.000	-0.055	-0.361
-110.034	-143.686	0.392	0.036
-109.020	-200.000	-0.032	0.137
-108.005	-200.000	0.023	-0.236
-106.991	700.959	-0.139	0.356
-105.976	-200.000	-0.017	0.111
-104.962	-200.000	-0.025	-0.189
-103.947	-200.000	-0.006	0.234
-102.932	-128.892	0.206	-0.028
-101.918	252.451	0.050	-0.084
-100.903	20.854	0.142	-0.112
-99.889	-200.000	0.034	0.205
-98.874	113.823	0.070	-0.083
-97.859	265.465	0.158	0.269
-96.845	70.264	-0.101	0.102
-95.830	128.123	-0.128	0.159
-94.816	800.000	0.099	0.324
-93.801	-118.035	0.061	-0.011
-92.786	-200.000	-0.050	0.258
-91.772	-74.191	-0.129	0.046
-90.757	177.994	-0.107	0.153
-89.743	-195.541	0.151	0.001
-88.728	-168.107	0.245	0.009
-87.713	-200.000	-0.076	0.434
-86.699	-1.339	0.132	0.091
-85.684	122.451	-0.257	-0.313
-84.670	-85.404	-0.208	0.063
-83.655	-200.000	0.011	-0.278
-82.640	-16.557	0.197	0.122
-81.626	-200.000	0.056	0.306
-80.611	-200.000	-0.011	0.205
-79.597	-22.367	0.064	-0.038
-78.582	-126.726	0.448	-0.065
-77.567	-85.184	-0.189	0.058
-76.553	112.767	0.131	-0.155
-75.538	-200.000	-0.059	-0.292
-74.524	109.090	-0.223	-0.260
-73.509	-77.404	0.267	-0.090
-72.494	222.238	-0.105	-0.165
-71.480	58.492	0.302	-0.289
-70.465	-115.257	0.357	-0.066
-69.451	-93.038	-0.289	0.079
-68.436	-200.000	0.005	0.144
-67.422	-122.339	-0.084	0.013
-66.407	84.061	0.320	0.341
-65.392	-117.419	0.567	0.100
-64.378	573.058	-0.099	-0.235
-63.363	800.000	0.048	-0.159
-62.349	66.545	0.021	-0.021
-61.334	152.891	-0.882	-1.175
-60.319	211.926	0.578	0.887
-59.305	235.000	-0.690	-1.110
-58.290	240.319	1.043	1.693
-57.276	800.000	0.469	1.524
-56.261	-200.000	127.705	675.123
-55.246	412.156	1603.239	3316.909
-54.232	139.641	2755.827	3534.818
-53.217	94.572	2180.471	2413.585
-52.203	33.210	1696.402	1432.980
-51.188	26.015	1514.232	1230.180
-50.173	24.099	1490.407	1197.903
-49.159	48.773	1563.111	1427.761
-48.144	45.569	1575.670	1417.048
-47.130	26.018	1523.715	1237.705
-46.115	23.144	1507.586	1205.015
-45.100	23.046	1503.607	1201.122
-44.086	23.017	1502.070	1199.645
-43.071	22.936	1500.799	1198.034
-42.057	23.014	1498.618	1196.776
-41.042	22.931	1497.310	1195.121
-40.027	22.966	1495.876	1194.165
-39.013	22.885	1493.850	1191.955
-37.998	22.855	1493.736	1191.612
-36.984	22.887	1492.542	1190.830
-35.969	22.861	1490.830	1189.240
-34.954	22.862	1489.826	1188.402
-33.940	22.866	1487.836	1186.791
-32.925	22.896	1486.733	1186.068
-31.911	22.936	1485.085	1184.975
-30.896	23.103	1483.570	1184.840
-29.881	22.976	1483.009	1183.493
-28.867	22.991	1481.514	1182.352
-27.852	22.941	1480.503	1181.162
-26.838	22.979	1478.643	1179.885
-25.823	22.929	1477.687	1178.741
-24.809	22.935	1475.537	1177.021
-23.794	22.912	1474.413	1175.925
-22.779	22.968	1473.452	1175.484
-21.765	22.990	1472.153	1174.547
-20.750	23.060	1470.426	1173.587
-19.736	22.989	1469.575	1172.393
-18.721	22.946	1468.689	1171.352
-17.706	22.942	1467.655	1170.454
-16.692	22.901	1466.849	1169.493
-15.677	22.944	1465.780	1168.881
-14.663	23.007	1464.152	1167.951
-13.648	22.991	1463.708	1167.443
-12.633	22.937	1462.711	1166.250
-11.619	22.881	1461.930	1165.209
-10.604	22.995	1460.918	1165.111
-9.590	22.898	1460.342	1163.961
-8.575	23.005	1459.179	1163.693
-7.560	22.896	1458.759	1162.594
-6.546	23.001	1457.611	1162.322
-5.531	22.931	1457.163	1161.463
-4.517	22.989	1455.536	1160.498
-3.502	22.953	1454.472	1159.367
-2.487	22.942	1453.843	1158.751
-1.473	22.913	1452.924	1157.780
-0.458	22.856	1451.505	1156.231
0.556	21.174	1441.002	1144.966
1.571	18.041	1417.081	1105.618
2.586	14.720	1356.200	1037.429
3.600	13.250	1272.879	965.031
4.615	12.257	1229.959	926.803
5.629	10.673	1173.242	875.452
6.644	5.169	1092.556	787.472
7.659	0.774	1057.315	740.514
8.673	0.241	1052.270	734.315
9.688	0.182	1048.617	731.417
10.702	0.127	1047.241	730.124
11.717	0.100	1044.755	728.196
12.731	1.889	1045.924	737.608
13.746	8.015	1054.145	773.140
14.761	14.172	1062.068	808.903
15.775	16.643	1064.580	822.774
16.790	16.469	1063.363	820.916
17.804	15.414	1061.367	814.185
18.819	14.677	1059.287	808.949
19.834	14.039	1058.226	804.978
20.848	13.896	1057.183	803.421
21.863	13.634	1056.251	801.375
22.877	13.369	1055.905	799.761
23.892	13.181	1055.026	798.118
24.907	13.056	1054.360	796.937
25.921	13.080	1053.393	796.251
26.936	13.123	1052.979	796.077
27.950	13.275	1051.505	795.622
28.965	13.195	1051.148	794.897
29.980	13.321	1050.416	794.877
30.994	13.327	1049.426	794.091
32.009	13.298	1048.640	793.282
33.023	13.359	1047.809	792.879
34.038	13.531	1046.558	792.685
35.053	13.397	1045.968	791.528
36.067	13.295	1045.590	790.681
37.082	13.334	1044.554	790.017
38.096	13.438	1043.649	789.757
39.111	13.374	1042.873	788.794
40.126	13.177	1042.774	787.713
41.140	13.241	1041.237	786.785
42.155	13.117	1040.306	785.425
43.169	13.086	1039.177	784.354
44.184	13.083	1038.498	783.758
45.199	13.190	1036.896	782.984
46.213	13.057	1036.692	782.132
47.228	13.197	1035.119	781.539
48.242	13.285	1033.989	781.032
49.257	13.220	1033.661	780.411
50.271	13.239	1032.306	779.406
51.286	13.352	1031.532	779.284
52.301	13.315	1030.738	778.444
53.315	13.248	1029.999	777.500
54.330	13.244	1029.035	776.685
55.344	13.319	1027.756	776.003
56.359	13.301	1026.704	775.057
57.374	13.163	1026.307	774.041
58.388	13.113	1025.834	773.382
59.403	13.184	1024.366	772.536
60.417	13.043	1023.731	771.331
61.432	13.231	1022.915	771.528
62.447	13.135	1022.465	770.672
63.461	13.055	1021.477	769.484
64.476	13.138	1020.330	768.941
65.490	13.115	1019.648	768.249
66.505	13.073	1019.039	767.531
67.520	13.065	1018.316	766.878
68.534	13.105	1017.459	766.350
69.549	13.092	1016.960	765.847
70.563	13.205	1016.134	765.679
71.578	13.180	1015.483	765.006
72.593	13.057	1014.528	763.652
73.607	13.088	1013.662	763.075
74.622	12.997	1012.699	761.861
75.636	13.039	1011.735	761.264
76.651	13.019	1011.353	760.815
77.666	13.013	1010.387	759.994
78.680	13.052	1009.291	759.281
79.695	12.934	1009.428	758.774
80.709	13.085	1008.585	758.768
81.724	13.036	1007.912	757.971
82.739	13.250	1006.776	758.029
83.753	13.124	1006.141	756.908
84.768	13.242	1005.271	756.725
85.782	13.248	1004.361	756.003
86.797	13.470	1003.752	756.491
87.812	13.432	1002.890	755.601
88.826	13.276	1002.179	754.285
89.841	13.292	1001.340	753.661
90.855	13.389	1000.513	753.415
91.870	13.275	1000.086	752.507
92.884	13.399	999.395	752.484
93.899	13.375	998.526	751.653
94.914	13.534	997.623	751.630
95.928	13.352	997.250	750.458
96.943	13.303	996.640	749.710
97.957	13.509	995.317	749.580
98.972	13.382	994.794	748.547
99.987	13.282	994.388	747.722
101.001	13.427	993.424	747.584
102.016	13.398	992.659	746.814
103.030	13.373	991.810	745.996
104.045	13.439	990.936	745.568
105.060	13.421	989.612	744.428
106.074	13.334	988.889	743.426
107.089	13.412	988.034	743.069
108.103	13.182	988.125	742.038
109.118	13.126	986.619	740.588
110.133	13.295	985.376	740.350
111.147	13.084	984.904	738.984
112.162	13.154	984.199	738.704
113.176	13.322	983.357	738.754
114.191	13.359	982.092	737.903
115.206	13.329	981.449	737.220
116.220	13.345	980.475	736.499
117.235	13.284	979.768	735.628
118.249	13.242	979.058	734.845
119.264	13.404	977.838	734.584
120.279	13.203	977.438	733.324
121.293	13.247	976.398	732.677
122.308	13.272	975.701	732.198
123.322	13.204	974.688	731.073
124.337	13.273	973.318	730.284
125.352	13.157	972.676	729.227
126.366	13.210	971.286	728.355
127.381	13.195	970.595	727.706
128.395	13.236	969.430	726.949
129.410	13.128	968.686	725.851
130.424	13.258	967.466	725.442
131.439	13.040	967.180	724.207
132.454	13.294	965.755	724.189
133.468	13.323	965.526	724.080
134.483	13.377	964.472	723.464
135.497	13.307	963.930	722.686
136.512	13.221	963.307	721.781
137.527	13.214	962.554	721.120
138.541	13.210	961.526	720.268
139.556	13.249	961.105	720.062
140.570	13.219	960.804	719.642
141.585	13.300	959.488	718.944
142.600	13.318	958.737	718.395
143.614	13.493	957.913	718.475
144.629	13.446	956.990	717.514
145.643	13.466	956.734	717.346
146.658	13.547	955.502	716.707
147.673	13.381	954.885	715.465
148.687	13.461	954.255	715.274
149.702	13.432	953.244	714.329
150.716	13.271	952.568	713.063
151.731	13.377	951.757	712.851
152.746	13.359	950.870	712.045
153.760	13.327	950.379	711.477
154.775	13.374	949.177	710.715
155.789	13.488	948.613	710.720
156.804	13.607	947.706	710.490
157.819	13.496	947.271	709.626
158.833	13.589	946.458	709.351
159.848	13.589	945.980	708.929
160.862	13.659	945.134	708.530
161.877	13.616	944.361	707.704
162.892	13.594	943.666	707.026
163.906	13.635	942.205	706.045
164.921	13.504	942.076	705.329
165.935	13.511	941.160	704.610
166.950	13.582	939.945	703.941
167.964	13.531	939.230	703.128
168.979	13.468	937.933	701.826
169.994	13.649	936.835	701.709
171.008	13.554	936.147	700.731
172.023	13.682	935.168	700.478
173.037	13.603	934.663	699.700
174.052	13.674	933.949	699.406
175.067	13.720	933.092	698.894
176.081	13.650	932.656	698.210
177.096	13.618	931.641	697.253
178.110	13.575	930.853	696.422
179.125	13.666	930.273	696.309
180.140	13.635	929.316	695.401
181.154	13.705	928.742	695.203
182.169	13.606	928.253	694.361
183.183	13.775	927.596	694.515
184.198	13.744	926.797	693.729
185.213	13.794	926.229	693.449
186.227	13.973	924.982	693.200
187.242	13.841	925.144	692.713
188.256	13.946	924.321	692.470
189.271	13.987	922.937	691.543
190.286	13.897	922.885	691.070
191.300	13.798	922.165	690.058
192.315	13.677	921.443	688.951
193.329	13.666	920.888	688.432
194.344	13.824	919.854	688.253
195.359	13.744	919.489	687.588
196.373	13.897	918.715	687.580
197.388	13.964	918.220	687.425
198.402	13.955	917.952	687.126
199.417	13.990	917.375	686.781
200.432	13.991	916.888	686.360
201.446	14.120	916.363	686.439
202.461	14.179	916.049	686.384
203.475	14.143	915.528	685.786
204.490	14.182	914.819	685.355
205.504	14.044	914.306	684.341
206.519	14.125	913.017	683.651
207.534	14.151	912.463	683.279
208.548	14.146	911.556	682.522
209.563	13.990	911.456	681.745
210.577	14.104	910.275	681.269
211.592	14.098	909.635	680.706
212.607	14.230	909.141	680.814
213.621	14.241	908.624	680.411
214.636	14.316	907.455	679.783
215.650	14.128	907.381	678.901
216.665	14.353	906.275	678.930
217.680	14.393	905.671	678.580
218.694	14.333	905.620	678.236
219.709	14.215	905.520	677.623
220.723	14.408	904.183	677.347
221.738	14.485	903.282	676.923
222.753	14.292	902.820	675.734
223.767	14.359	902.223	675.498
224.782	14.349	901.536	674.887
225.796	14.484	900.272	674.424
226.811	14.391	900.150	673.898
227.826	14.457	899.425	673.562
228.840	14.430	898.919	673.014
229.855	14.429	898.115	672.348
230.869	14.455	897.611	672.017
231.884	14.275	897.162	670.895
232.899	14.326	896.166	670.296
233.913	14.465	895.306	670.152
234.928	14.436	894.570	669.425
235.942	14.433	893.981	668.914
236.957	14.410	893.240	668.210
237.972	14.522	892.350	667.933
238.986	14.537	891.918	667.610
240.001	14.407	891.545	666.753
241.015	14.477	890.547	666.227
242.030	14.498	889.936	665.795
243.045	14.659	889.451	666.016
244.059	14.535	888.776	664.957
245.074	14.543	888.336	664.599
246.088	14.693	887.321	664.381
247.103	14.493	887.455	663.626
248.117	14.629	886.625	663.485
249.132	14.693	886.113	663.298
250.147	14.766	885.148	662.807
251.161	14.750	884.392	662.118
252.176	14.774	884.189	662.004
253.190	14.874	883.388	661.741
254.205	14.787	882.879	660.958
255.220	14.979	882.117	661.086
256.234	14.931	881.434	660.325
257.249	14.948	880.500	659.635
258.263	15.159	879.931	659.981
259.278	14.956	879.354	658.693
260.293	15.047	878.924	658.671
261.307	14.982	878.604	658.114
262.322	15.117	878.040	658.166
263.336	15.093	877.565	657.658
264.351	15.087	876.557	656.822
265.366	14.972	876.049	655.931
266.380	15.130	875.244	655.891
267.395	15.320	874.629	656.112
268.409	15.166	873.998	654.982
269.424	15.141	873.614	654.535
270.439	15.283	872.522	654.213
271.453	15.155	871.950	653.228
272.468	15.194	871.104	652.687
273.482	15.204	870.713	652.376
274.497	15.135	870.355	651.783
275.512	15.158	869.404	651.100
276.526	15.172	868.519	650.436
277.541	15.235	867.801	650.085
278.555	15.180	867.549	649.624
279.570	15.243	866.977	649.385
280.585	15.452	866.300	649.628
281.599	15.271	865.716	648.432
282.614	15.341	865.239	648.289
283.628	15.376	864.439	647.768
284.643	15.293	864.259	647.253
285.657	15.398	863.519	647.048
286.672	15.504	862.842	646.890
287.687	15.470	862.585	646.509
288.701	15.352	862.260	645.756
289.716	15.482	861.183	645.392
290.730	15.441	860.984	645.028
291.745	15.396	860.403	644.363
292.760	15.463	859.549	643.924
293.774	15.441	858.965	643.346
294.789	15.620	858.261	643.447
295.803	15.531	858.083	642.917
296.818	15.514	856.914	641.917
297.833	15.607	856.473	641.885
298.847	15.642	855.627	641.329
299.862	15.514	855.410	640.620
300.876	15.624	854.182	640.063
301.891	15.581	853.717	639.496
302.906	15.717	853.147	639.527
303.920	15.715	852.609	639.060
304.935	15.806	851.896	638.815
305.949	15.702	851.458	638.034
306.964	15.818	850.868	637.977
307.979	15.768	849.639	636.808
308.993	15.740	849.307	636.397
310.008	15.838	849.083	636.543
311.022	15.859	848.598	636.206
312.037	15.895	848.178	635.968
313.052	15.911	847.456	635.431
314.066	15.832	846.784	634.574
315.081	15.825	846.312	634.138
316.095	15.946	845.456	633.897
317.110	15.750	845.030	632.782
318.125	15.880	844.622	632.909
319.139	15.814	844.136	632.243
320.154	15.826	844.011	632.139
321.168	15.891	842.942	631.524
322.183	16.054	842.249	631.562
323.197	15.900	842.279	630.951
324.212	15.882	841.689	630.384
325.227	16.200	840.622	630.720
326.241	15.934	840.590	629.644
327.256	16.033	840.253	629.708
328.270	16.009	839.227	628.793
329.285	16.026	838.652	628.370
330.300	16.024	838.067	627.866
331.314	15.938	837.403	626.996
332.329	16.049	836.707	626.830
333.343	16.079	836.126	626.450
334.358	16.013	835.652	625.795
335.373	16.100	835.164	625.699
336.387	16.178	834.746	625.618
337.402	16.329	834.013	625.574
338.416	16.296	833.473	624.991
339.431	16.276	832.846	624.393
340.446	16.199	832.817	624.031
341.460	16.273	831.911	623.569
342.475	16.290	831.256	623.086
343.489	16.274	830.980	622.764
344.504	16.281	830.626	622.469
345.519	16.290	830.195	622.126
346.533	16.389	829.347	621.800
347.548	16.393	829.227	621.669
348.562	16.388	828.155	620.791
349.577	16.375	827.877	620.481
350.592	16.389	827.171	619.946
351.606	16.316	826.772	619.327
352.621	16.359	826.491	619.219
353.635	16.347	826.001	618.753
354.650	16.441	825.424	618.611
355.665	16.477	825.089	618.436
356.679	16.378	824.729	617.749
357.694	16.523	823.986	617.668
358.708	16.511	823.466	617.178
359.723	16.557	822.997	616.941
360.738	16.417	822.458	615.971
361.752	16.413	822.005	615.565
362.767	16.573	821.281	615.549
363.781	16.484	820.926	614.904
364.796	16.603	820.448	614.924
365.810	16.685	819.955	614.799
366.825	16.519	819.925	614.121
367.840	16.719	819.629	614.570
368.854	16.679	819.017	613.911
369.869	16.711	818.752	613.775
370.883	16.916	817.731	613.697
371.898	16.783	817.332	612.862
372.913	16.815	816.655	612.417
373.927	16.625	816.307	611.415
374.942	16.862	815.277	611.444
375.956	16.799	814.834	610.829
376.971	16.740	814.347	610.197
377.986	16.914	813.426	610.081
379.000	16.928	813.249	609.944
380.015	16.998	812.605	609.659
381.029	16.863	812.580	609.102
382.044	16.976	811.742	608.824
383.059	17.110	810.919	608.634
384.073	16.916	810.724	607.739
385.088	17.044	809.721	607.390
386.102	17.010	809.639	607.152
387.117	16.795	809.397	606.151
388.132	16.887	808.740	605.933
389.146	17.091	808.216	606.215
390.161	17.019	807.844	605.625
391.175	16.934	807.490	605.002
392.190	16.975	807.125	604.822
393.205	17.116	806.194	604.572
394.219	17.115	806.029	604.391
395.234	17.025	805.813	603.854
396.248	17.037	805.290	603.455
397.263	17.111	804.700	603.219
398.278	16.883	804.149	601.945
399.292	16.917	804.030	601.923
400.307	17.105	803.281	601.976
401.321	17.142	802.687	601.611
402.336	17.118	802.276	601.161
403.350	17.218	802.129	601.353
404.365	17.104	801.653	600.540
405.380	17.246	800.985	600.489
406.394	17.205	800.657	600.046
407.409	17.297	800.411	600.133
408.423	17.158	800.463	599.625
409.438	17.192	799.589	599.040
410.453	17.359	799.309	599.366
411.467	17.428	798.748	599.134
412.482	17.303	798.260	598.275
413.496	17.386	797.669	598.072
414.511	17.453	797.540	598.157
415.526	17.445	796.997	597.670
416.540	17.730	796.318	598.107
417.555	17.506	796.093	597.100
418.569	17.490	795.434	596.496
419.584	17.486	795.200	596.252
420.599	17.510	794.668	595.886
421.613	113.798	1297.343	1487.621
422.628	97.960	1370.529	1487.709
