DTS Sentinel unit serial number:	SN413079Multiplexer serial number:	ORYXHardware model number:	OX4-SRSoftware version number:	ORYX F/W v4.00 Oryx Data Collector v3.7.2.0data status	okinstallation	princeton_trtdifferential loss correction	single-endedforward channel	channel 3reverse channel	N/Adate	2019/09/13time	21:36:34forward acquisition time	60.00reverse acquisition time	0.00gamma	496.2192k internal	0.2334k external	0.2334temperature offset calibration	1.0064default loss term (dB/km)	0.3790temperature slope calibration	1.0000multiplexer offset coefficient	1.0000multiplexer slope coefficient	1.0000fibre end	0.00T internal ref (°C)	28.19T ext. ref 1 (°C)	3.19T ext. ref 2 (°C)	22.84length (m)	temperature (°C)	Stokes	anti-Stokes-747.200	-137.350	-0.256	-0.029
-746.185	-178.924	-0.112	-0.003
-745.171	800.000	-0.099	0.302
-744.156	-200.000	-0.009	0.282
-743.142	167.793	-0.075	-0.108
-742.127	329.541	0.262	0.507
-741.112	552.877	-0.040	0.097
-740.098	8.137	-0.097	-0.073
-739.083	245.510	-0.079	-0.134
-738.069	99.702	0.071	0.082
-737.054	-102.366	0.125	0.030
-736.039	209.912	-0.064	0.101
-735.025	-43.717	0.262	0.133
-734.010	210.395	-0.173	-0.273
-732.996	-200.000	-0.034	-0.268
-731.981	789.795	0.044	-0.121
-730.966	-40.218	-0.092	-0.048
-729.952	-68.141	-0.134	-0.053
-728.937	209.677	0.014	0.021
-727.923	116.761	0.070	-0.086
-726.908	101.479	0.173	0.202
-725.894	-97.267	-0.089	0.023
-724.879	-145.901	-0.193	-0.017
-723.864	-200.000	0.002	-0.203
-722.850	1.214	0.297	0.214
-721.835	-181.020	0.138	0.003
-720.821	241.751	-0.192	-0.323
-719.806	302.955	0.097	0.180
-718.791	-200.000	0.009	-0.154
-717.777	250.562	-0.034	-0.059
-716.762	800.000	-0.024	0.096
-715.748	135.123	0.132	-0.172
-714.733	-76.931	-0.190	-0.067
-713.718	51.917	0.152	0.145
-712.704	-28.414	0.083	-0.048
-711.689	-23.085	0.316	-0.191
-710.675	26.386	0.058	-0.049
-709.660	0.525	-0.148	-0.106
-708.645	-9.673	-0.168	0.113
-707.631	492.328	0.024	-0.054
-706.616	-200.000	-0.014	0.278
-705.602	800.000	0.070	-0.196
-704.587	-103.293	0.416	0.099
-703.572	-33.591	-0.143	0.079
-702.558	-28.217	0.198	-0.115
-701.543	-27.267	0.224	0.131
-700.529	-58.661	-0.266	-0.116
-699.514	106.125	0.206	0.245
-698.499	-122.441	-0.230	-0.038
-697.485	358.786	-0.159	0.318
-696.470	-200.000	-0.030	0.176
-695.456	68.396	-0.078	-0.081
-694.441	-147.394	-0.143	0.012
-693.426	44.134	-0.029	0.026
-692.412	-57.437	0.169	0.074
-691.397	-169.700	0.217	-0.008
-690.383	800.000	-0.069	-0.302
-689.368	622.722	-0.064	0.161
-688.354	-200.000	-0.013	-0.447
-687.339	-200.000	0.018	-0.121
-686.324	35.033	0.057	-0.050
-685.310	130.129	0.090	-0.115
-684.295	-64.170	-0.218	-0.089
-683.281	77.453	-0.275	0.294
-682.266	-102.094	0.296	-0.071
-681.251	-129.594	0.129	0.018
-680.237	268.048	0.115	0.202
-679.222	160.500	-0.093	0.131
-678.208	78.209	-0.168	-0.180
-677.193	275.376	0.071	-0.126
-676.178	-60.614	-0.233	0.099
-675.164	-37.122	0.240	-0.129
-674.149	286.231	0.120	0.218
-673.135	364.111	-0.076	0.153
-672.120	-200.000	0.011	-0.097
-671.105	-87.194	-0.062	0.019
-670.091	-54.812	-0.254	0.115
-669.076	-200.000	0.017	0.101
-668.062	22.889	-0.304	0.250
-667.047	341.112	0.054	-0.106
-666.032	143.802	0.066	0.089
-665.018	-147.437	-0.291	-0.025
-664.003	-115.149	0.190	-0.036
-662.989	190.700	-0.112	-0.168
-661.974	200.256	-0.102	0.158
-660.959	-200.000	0.032	-0.151
-659.945	800.000	-0.017	-0.064
-658.930	-200.000	0.016	0.136
-657.916	-82.948	0.362	0.117
-656.901	-154.959	-0.124	-0.008
-655.886	800.000	-0.115	-0.355
-654.872	83.364	0.150	-0.164
-653.857	800.000	0.008	-0.030
-652.843	-200.000	0.002	-0.065
-651.828	-103.095	0.337	0.080
-650.814	-65.600	0.172	-0.069
-649.799	-200.000	0.001	-0.232
-648.784	800.000	-0.057	0.182
-647.770	-200.000	0.008	0.239
-646.755	-16.661	0.051	-0.033
-645.741	-64.190	-0.150	0.061
-644.726	-74.365	0.196	-0.071
-643.711	132.204	-0.119	-0.153
-642.697	800.000	0.055	0.157
-641.682	-100.927	0.362	0.089
-640.668	196.713	0.084	0.128
-639.653	-65.002	-0.498	-0.202
-638.638	-58.896	0.235	-0.102
-637.624	-87.357	0.095	0.029
-636.609	43.859	0.071	-0.065
-635.595	-29.458	-0.216	0.124
-634.580	200.478	0.196	0.301
-633.565	165.741	-0.143	0.203
-632.551	-200.000	-0.013	-0.110
-631.536	-37.469	0.180	-0.096
-630.522	-6.302	0.146	-0.100
-629.507	10.565	-0.320	0.244
-628.492	7.990	-0.124	-0.093
-627.478	-200.000	0.007	-0.222
-626.463	212.044	-0.334	0.527
-625.449	330.631	-0.092	-0.178
-624.434	-200.000	0.019	-0.166
-623.419	-127.548	-0.105	0.015
-622.405	17.758	0.135	0.108
-621.390	-151.440	0.389	-0.029
-620.376	275.128	0.091	0.161
-619.361	-33.993	-0.218	-0.120
-618.346	-186.399	0.146	-0.002
-617.332	-108.830	0.210	-0.045
-616.317	-45.748	-0.458	0.226
-615.303	252.273	0.140	0.238
-614.288	512.057	-0.078	-0.182
-613.273	-86.667	0.130	-0.040
-612.259	130.569	0.133	0.170
-611.244	-85.973	-0.149	0.046
-610.230	-62.230	-0.252	0.105
-609.215	-200.000	0.020	-0.140
-608.201	411.116	-0.052	-0.111
-607.186	-200.000	-0.012	-0.158
-606.171	-54.797	-0.363	-0.164
-605.157	800.000	-0.085	0.361
-604.142	-200.000	0.004	0.155
-603.128	-41.724	0.227	0.117
-602.113	90.817	-0.230	0.257
-601.098	-44.370	0.066	0.033
-600.084	800.000	-0.044	-0.181
-599.069	-79.114	-0.381	-0.129
-598.055	266.360	-0.167	-0.292
-597.040	-163.347	0.376	-0.018
-596.025	-80.397	0.109	-0.036
-595.011	-115.172	0.255	0.048
-593.996	-200.000	-0.031	-0.262
-592.982	-12.152	0.251	-0.164
-591.967	800.000	-0.005	-0.022
-590.952	-106.680	-0.099	-0.022
-589.938	-81.749	-0.006	-0.002
-588.923	-79.816	-0.385	0.129
-587.909	-52.630	-0.164	0.076
-586.894	71.304	-0.091	-0.094
-585.879	186.366	-0.209	0.310
-584.865	-200.000	0.039	0.254
-583.850	-15.293	0.161	0.103
-582.836	-42.119	0.241	0.123
-581.821	-88.425	-0.464	0.138
-580.806	183.192	0.233	-0.343
-579.792	35.177	-0.101	-0.089
-578.777	-200.000	-0.014	-0.137
-577.763	38.566	0.206	0.184
-576.748	118.196	-0.271	0.334
-575.733	230.061	-0.115	0.187
-574.719	-80.922	0.406	-0.135
-573.704	20.262	-0.065	-0.053
-572.690	-96.119	0.349	-0.093
-571.675	800.000	-0.082	-0.276
-570.661	110.213	0.109	0.131
-569.646	-53.503	-0.356	-0.163
-568.631	-134.572	0.162	0.020
-567.617	-200.000	-0.001	0.241
-566.602	-30.270	-0.191	0.108
-565.588	35.945	0.258	0.227
-564.573	203.438	-0.155	-0.239
-563.558	-2.455	-0.068	0.047
-562.544	-87.931	-0.428	0.129
-561.529	154.365	0.100	-0.138
-560.515	109.752	0.138	-0.166
-559.500	-31.413	0.067	-0.038
-558.485	157.248	0.238	-0.328
-557.471	-51.835	-0.280	-0.130
-556.456	-22.936	0.193	0.116
-555.442	45.735	0.292	0.270
-554.427	-102.993	0.383	-0.091
-553.412	70.811	-0.116	-0.120
-552.398	481.260	0.044	-0.099
-551.383	-49.148	0.282	0.134
-550.369	-200.000	-0.004	-0.107
-549.354	-18.820	0.166	0.103
-548.339	46.442	0.112	0.104
-547.325	333.566	-0.127	0.245
-546.310	-47.521	0.166	-0.081
-545.296	205.401	0.068	0.105
-544.281	800.000	0.098	-0.297
-543.266	-64.069	0.122	-0.050
-542.252	20.850	-0.462	-0.373
-541.237	-2.504	-0.142	0.099
-540.223	-102.502	-0.439	0.105
-539.208	30.346	-0.116	0.098
-538.193	-105.929	0.131	0.030
-537.179	16.510	0.080	0.063
-536.164	-83.377	0.082	0.026
-535.150	-56.870	-0.179	0.079
-534.135	-200.000	0.001	-0.017
-533.121	-146.313	-0.280	-0.024
-532.106	-200.000	-0.044	-0.305
-531.091	4.501	-0.189	-0.138
-530.077	-43.269	-0.389	0.196
-529.062	117.908	0.113	-0.139
-528.048	630.498	0.070	-0.177
-527.033	176.640	0.088	0.128
-526.018	-73.269	0.098	-0.036
-525.004	274.965	-0.177	-0.313
-523.989	-26.623	0.287	-0.168
-522.975	135.949	-0.170	0.221
-521.960	126.629	0.052	0.065
-520.945	-120.769	0.420	-0.071
-519.931	-144.610	0.113	-0.010
-518.916	168.654	-0.215	-0.305
-517.902	12.519	0.301	-0.231
-516.887	90.182	0.094	-0.105
-515.872	260.299	0.076	0.130
-514.858	20.332	-0.232	-0.187
-513.843	-88.046	-0.238	0.071
-512.829	196.987	-0.115	-0.174
-511.814	-114.906	0.079	-0.015
-510.799	-57.289	0.129	-0.056
-509.785	36.778	0.184	0.162
-508.770	111.031	-0.076	-0.091
-507.756	31.886	-0.247	0.212
-506.741	-130.938	0.117	-0.016
-505.726	626.533	0.155	-0.390
-504.712	-122.677	0.072	-0.012
-503.697	64.237	0.152	0.152
-502.683	272.096	0.181	-0.319
-501.668	-200.000	-0.006	-0.175
-500.653	800.000	0.020	-0.080
-499.639	-61.869	-0.101	0.042
-498.624	-108.410	-0.429	-0.092
-497.610	-200.000	-0.020	0.206
-496.595	29.645	0.278	-0.236
-495.581	514.544	-0.045	0.105
-494.566	415.375	0.070	-0.149
-493.551	-122.525	-0.453	-0.073
-492.537	-76.441	0.192	-0.067
-491.522	-79.252	-0.125	0.042
-490.508	-154.027	0.089	0.006
-489.493	298.698	-0.204	-0.374
-488.478	39.283	0.296	-0.263
-487.464	-52.480	-0.249	0.115
-486.449	-200.000	0.010	-0.065
-485.435	-21.351	-0.396	-0.240
-484.420	-133.956	-0.088	-0.011
-483.405	-116.434	-0.567	0.104
-482.391	-37.599	-0.086	0.046
-481.376	479.395	0.073	-0.166
-480.362	-3.382	-0.081	0.056
-479.347	162.618	0.243	-0.340
-478.332	-55.437	-0.407	-0.181
-477.318	22.834	-0.204	-0.166
-476.303	-89.173	0.455	0.134
-475.289	433.446	0.130	0.281
-474.274	417.080	0.054	-0.114
-473.259	-82.594	-0.278	-0.090
-472.245	508.735	-0.147	-0.339
-471.230	-42.140	-0.321	0.163
-470.216	-200.000	0.049	-0.230
-469.201	-159.463	-0.289	0.016
-468.186	-200.000	0.015	-0.207
-467.172	-200.000	0.049	-0.489
-466.157	-50.329	0.060	0.028
-465.143	-200.000	0.010	0.190
-464.128	106.344	0.113	-0.134
-463.113	21.117	0.321	-0.259
-462.099	584.075	-0.035	-0.087
-461.084	-68.439	-0.084	0.032
-460.070	-200.000	0.007	-0.164
-459.055	184.862	0.228	0.336
-458.040	-200.000	-0.018	-0.319
-457.026	5.515	-0.034	0.025
-456.011	-200.000	0.050	0.262
-454.997	800.000	-0.025	0.089
-453.982	38.402	-0.045	0.040
-452.968	15.965	0.186	-0.145
-451.953	2.956	-0.124	0.090
-450.938	136.697	0.122	-0.159
-449.924	214.793	-0.198	-0.311
-448.909	-125.957	0.058	0.009
-447.895	-200.000	0.020	-0.249
-446.880	-200.000	-0.004	-0.063
-445.865	409.376	0.192	0.405
-444.851	62.697	0.055	-0.054
-443.836	159.800	0.083	-0.115
-442.822	-62.340	-0.052	0.022
-441.807	-127.500	-0.362	-0.052
-440.792	-40.733	0.175	0.090
-439.778	-200.000	-0.048	0.347
-438.763	-136.906	0.127	0.015
-437.749	573.574	0.120	0.291
-436.734	-192.462	0.096	-0.001
-435.719	7.605	0.264	-0.196
-434.705	-89.297	-0.165	-0.048
-433.690	800.000	-0.057	0.189
-432.676	33.372	-0.062	-0.053
-431.661	10.850	0.121	0.092
-430.646	800.000	0.053	0.181
-429.632	-148.083	-0.237	0.020
-428.617	-113.613	0.189	-0.037
-427.603	800.000	-0.041	-0.140
-426.588	-47.599	0.212	-0.102
-425.573	-200.000	0.024	0.127
-424.559	-162.255	-0.057	-0.003
-423.544	-179.352	-0.225	-0.005
-422.530	800.000	-0.018	-0.063
-421.515	-10.462	-0.166	-0.109
-420.500	452.581	0.021	-0.047
-419.486	-200.000	-0.009	0.153
-418.471	-24.435	0.198	-0.117
-417.457	-80.589	0.272	0.090
-416.442	216.330	0.129	-0.204
-415.428	-200.000	0.009	0.040
-414.413	-103.429	0.023	-0.005
-413.398	690.519	-0.034	0.089
-412.384	-200.000	0.043	0.193
-411.369	800.000	0.023	-0.068
-410.355	-85.030	-0.293	0.091
-409.340	104.890	-0.151	0.176
-408.325	-200.000	-0.023	-0.107
-407.311	-51.561	-0.126	0.058
-406.296	-200.000	-0.026	-0.202
-405.282	53.795	-0.234	0.223
-404.267	561.095	-0.086	0.205
-403.252	678.182	-0.071	0.183
-402.238	729.806	0.022	0.058
-401.223	-29.288	-0.040	0.023
-400.209	52.672	0.134	0.127
-399.194	-41.045	-0.308	0.158
-398.179	369.700	-0.087	0.174
-397.165	-83.644	0.124	0.039
-396.150	64.866	-0.199	0.199
-395.136	161.603	-0.156	-0.217
-394.121	-76.238	0.163	0.057
-393.106	-29.254	-0.153	-0.087
-392.092	182.956	-0.114	0.167
-391.077	-2.586	0.111	0.077
-390.063	-162.274	0.537	-0.027
-389.048	800.000	-0.059	0.165
-388.033	-127.569	0.209	-0.030
-387.019	121.284	0.062	-0.077
-386.004	-200.000	-0.024	0.149
-384.990	-47.452	0.178	-0.086
-383.975	-153.325	-0.344	-0.024
-382.960	-109.193	0.141	-0.030
-381.946	-124.138	-0.122	-0.019
-380.931	-108.946	0.367	0.078
-379.917	-200.000	0.030	0.305
-378.902	-33.748	-0.259	-0.142
-377.888	98.483	0.153	0.174
-376.873	800.000	0.050	-0.172
-375.858	-100.560	-0.245	0.060
-374.844	22.931	0.114	-0.093
-373.829	-200.000	0.003	0.133
-372.815	-200.000	-0.001	0.072
-371.800	-125.296	0.263	0.040
-370.785	-200.000	-0.033	-0.245
-369.771	-200.000	-0.060	0.390
-368.756	-163.845	-0.138	-0.006
-367.742	-200.000	-0.022	-0.321
-366.727	-137.405	0.176	0.020
-365.712	28.799	-0.074	-0.062
-364.698	-97.668	-0.075	-0.019
-363.683	-95.146	0.306	-0.082
-362.669	-176.345	0.277	-0.007
-361.654	34.108	-0.241	0.208
-360.639	-123.916	-0.420	-0.066
-359.625	-200.000	0.018	-0.210
-358.610	255.475	0.071	-0.121
-357.596	-88.825	0.192	-0.057
-356.581	-200.000	-0.075	0.388
-355.566	-121.029	0.287	-0.048
-354.552	-18.581	0.231	0.143
-353.537	-200.000	0.007	0.090
-352.523	-60.923	0.131	0.055
-351.508	135.622	0.042	-0.055
-350.493	56.719	-0.033	-0.032
-349.479	72.519	-0.071	-0.073
-348.464	-200.000	-0.004	-0.097
-347.450	-200.000	0.000	0.162
-346.435	-87.998	-0.292	0.087
-345.420	160.737	0.131	0.181
-344.406	800.000	-0.066	-0.204
-343.391	69.881	-0.039	-0.040
-342.377	-163.978	-0.225	0.010
-341.362	-141.433	-0.289	0.029
-340.348	34.599	-0.095	0.082
-339.333	173.712	-0.153	-0.218
-338.318	-87.028	0.092	-0.028
-337.304	-200.000	-0.055	0.335
-336.289	251.042	-0.173	-0.291
-335.275	800.000	0.118	-0.408
-334.260	800.000	0.087	-0.351
-333.245	800.000	-0.040	0.111
-332.231	-200.000	-0.020	0.265
-331.216	-147.436	-0.229	-0.019
-330.202	-100.714	-0.437	-0.107
-329.187	800.000	0.061	0.213
-328.172	-8.706	-0.082	0.055
-327.158	-151.686	-0.228	0.017
-326.143	-36.276	-0.245	-0.131
-325.129	6.920	-0.058	0.043
-324.114	-64.209	-0.238	0.096
-323.099	800.000	-0.031	-0.117
-322.085	-99.474	-0.173	-0.043
-321.070	68.767	0.194	0.197
-320.056	-131.084	0.060	-0.008
-319.041	800.000	-0.060	0.240
-318.026	-200.000	0.019	0.152
-317.012	800.000	0.080	0.267
-315.997	-103.234	0.343	0.080
-314.983	800.000	0.067	0.230
-313.968	-98.030	0.143	-0.036
-312.953	-51.884	0.250	0.115
-311.939	-200.000	0.025	-0.258
-310.924	39.980	0.147	0.131
-309.910	-69.445	0.219	0.083
-308.895	82.229	-0.174	-0.187
-307.880	-160.518	0.169	-0.009
-306.866	7.187	-0.168	-0.124
-305.851	392.752	-0.092	0.190
-304.837	-83.115	0.379	0.120
-303.822	800.000	0.023	-0.088
-302.807	15.185	-0.135	-0.105
-301.793	74.791	0.117	-0.121
-300.778	800.000	0.027	-0.111
-299.764	58.558	0.074	0.071
-298.749	-29.050	-0.235	0.133
-297.735	-200.000	0.006	0.217
-296.720	-33.757	-0.060	0.033
-295.705	-12.438	0.175	-0.113
-294.691	-35.969	-0.049	0.026
-293.676	286.991	-0.156	0.278
-292.662	-92.594	-0.430	-0.119
-291.647	-2.106	0.242	0.168
-290.632	568.732	0.203	0.487
-289.618	800.000	-0.046	-0.150
-288.603	6.585	-0.032	-0.024
-287.589	-200.000	-0.017	-0.158
-286.574	135.826	0.150	-0.192
-285.559	-158.319	0.059	0.003
-284.545	-200.000	0.032	-0.292
-283.530	-28.264	-0.082	-0.047
-282.516	-76.596	0.194	-0.067
-281.501	-13.582	0.225	-0.144
-280.486	-193.368	-0.482	0.004
-279.472	-104.562	-0.219	-0.050
-278.457	-200.000	0.057	0.347
-277.443	-69.902	-0.216	0.081
-276.428	119.747	-0.098	0.120
-275.413	371.197	0.154	0.309
-274.399	7.396	-0.329	-0.243
-273.384	-91.173	0.159	0.045
-272.370	-200.000	-0.018	-0.356
-271.355	83.513	-0.070	0.075
-270.340	-77.819	0.345	-0.118
-269.326	205.061	0.187	-0.286
-268.311	-200.000	-0.060	-0.481
-267.297	-200.000	0.045	0.305
-266.282	-66.547	-0.070	-0.027
-265.267	91.691	0.087	-0.097
-264.253	282.420	0.078	0.138
-263.238	325.585	-0.047	0.089
-262.224	172.202	0.192	0.273
-261.209	-126.232	0.157	-0.023
-260.195	-30.707	-0.216	0.120
-259.180	-15.453	0.308	-0.194
-258.165	-122.029	0.419	0.068
-257.151	318.315	-0.168	-0.314
-256.136	-81.445	0.294	-0.096
-255.122	71.849	-0.055	0.057
-254.107	-154.429	-0.081	-0.005
-253.092	800.000	0.102	-0.410
-252.078	154.074	-0.014	0.020
-251.063	-146.363	-0.119	-0.010
-250.049	758.157	0.077	0.205
-249.034	-78.709	0.367	0.124
-248.019	479.508	0.161	0.361
-247.005	-5.109	-0.143	0.097
-245.990	40.800	-0.196	-0.175
-244.976	167.294	-0.142	0.199
-243.961	-102.283	0.308	0.073
-242.946	-5.332	0.225	-0.152
-241.932	-200.000	-0.045	-0.343
-240.917	504.516	-0.111	0.254
-239.903	-101.668	0.135	0.032
-238.888	-75.433	0.217	0.076
-237.873	-23.652	0.309	-0.183
-236.859	205.774	0.159	-0.244
-235.844	676.073	0.031	0.079
-234.830	73.951	0.110	0.114
-233.815	-70.264	0.157	-0.059
-232.800	288.985	0.147	0.263
-231.786	-64.626	-0.324	0.130
-230.771	29.067	0.178	0.149
-229.757	800.000	-0.048	0.164
-228.742	-83.964	0.186	-0.058
-227.727	-151.076	-0.320	-0.024
-226.713	-106.439	-0.441	0.097
-225.698	800.000	0.014	0.042
-224.684	-74.057	0.185	0.066
-223.669	-187.160	0.253	0.003
-222.655	-6.657	-0.180	0.121
-221.640	-58.048	0.498	0.214
-220.625	-114.231	0.242	0.046
-219.611	-154.196	-0.274	-0.018
-218.596	-146.978	0.352	0.030
-217.582	-200.000	0.005	0.121
-216.567	318.267	0.165	-0.307
-215.552	29.994	-0.259	-0.218
-214.538	314.015	0.102	-0.190
-213.523	168.689	0.098	0.138
-212.509	800.000	0.037	-0.104
-211.494	-143.950	-0.243	-0.023
-210.479	153.050	-0.182	0.245
-209.465	-200.000	-0.034	-0.159
-208.450	28.478	-0.092	0.077
-207.436	0.012	0.097	-0.068
-206.421	-126.806	-0.222	0.032
-205.406	-200.000	-0.012	0.131
-204.392	72.281	-0.175	-0.180
-203.377	497.510	-0.041	0.092
-202.363	-132.035	-0.163	-0.021
-201.348	281.404	-0.120	-0.211
-200.333	-200.000	-0.052	0.239
-199.319	-123.140	-0.177	-0.028
-198.304	96.714	0.287	0.323
-197.290	-200.000	-0.003	0.040
-196.275	184.658	0.110	0.160
-195.260	70.895	-0.244	-0.249
-194.246	-51.436	-0.086	0.040
-193.231	-200.000	-0.028	0.358
-192.217	-199.718	0.006	0.000
-191.202	-58.332	0.283	-0.121
-190.187	79.345	-0.019	-0.020
-189.173	-200.000	-0.040	-0.371
-188.158	-200.000	0.031	0.157
-187.144	432.113	0.197	0.420
-186.129	-200.000	-0.025	0.157
-185.114	-58.889	0.141	0.060
-184.100	29.709	0.034	-0.029
-183.085	-87.138	-0.115	0.034
-182.071	414.768	-0.058	-0.121
-181.056	-24.381	0.136	0.080
-180.042	800.000	-0.042	0.123
-179.027	537.681	0.019	-0.044
-178.012	-117.161	0.386	0.069
-176.998	141.379	0.094	-0.122
-175.983	499.950	0.060	-0.135
-174.969	-200.000	0.035	0.171
-173.954	-25.502	0.033	0.019
-172.939	800.000	0.067	0.184
-171.925	800.000	-0.069	0.196
-170.910	72.256	0.196	-0.201
-169.896	296.383	-0.069	-0.125
-168.881	-200.000	0.025	-0.167
-167.866	18.788	0.064	-0.050
-166.852	-160.524	-0.370	-0.019
-165.837	-68.820	0.139	0.053
-164.823	633.081	0.078	-0.194
-163.808	-200.000	-0.053	-0.264
-162.793	155.026	-0.156	-0.211
-161.779	-57.264	-0.327	-0.142
-160.764	-39.618	-0.174	-0.089
-159.750	-122.509	0.339	0.054
-158.735	362.097	-0.202	0.398
-157.720	800.000	-0.030	0.083
-156.706	316.328	-0.119	0.221
-155.691	251.412	-0.033	0.056
-154.677	-200.000	-0.007	-0.053
-153.662	-85.223	0.338	-0.104
-152.647	-26.752	-0.228	0.131
-151.633	-84.153	0.089	-0.028
-150.618	-3.350	0.137	-0.094
-149.604	350.579	0.145	-0.281
-148.589	126.428	0.106	-0.132
-147.574	212.690	0.207	-0.320
-146.560	-160.810	0.443	0.023
-145.545	41.858	-0.086	0.076
-144.531	-128.242	-0.121	-0.017
-143.516	-142.886	-0.103	-0.010
-142.502	-82.151	-0.476	-0.152
-141.487	-200.000	0.008	-0.056
-140.472	199.421	-0.156	-0.235
-139.458	-34.880	-0.352	-0.189
-138.443	-200.000	-0.005	0.065
-137.429	-6.589	0.209	-0.140
-136.414	-200.000	0.013	0.239
-135.399	-56.242	0.213	0.093
-134.385	-103.486	-0.152	-0.035
-133.370	-155.139	0.210	0.013
-132.356	-56.701	0.257	0.112
-131.341	-200.000	-0.002	0.159
-130.326	7.905	0.130	-0.096
-129.312	8.384	-0.152	0.112
-128.297	86.462	0.177	0.191
-127.283	-103.268	0.365	0.085
-126.268	0.745	0.243	0.171
-125.253	-200.000	-0.032	-0.418
-124.239	-200.000	-0.021	0.091
-123.224	-58.458	0.130	0.055
-122.210	-200.000	0.049	0.254
-121.195	-28.509	0.034	0.019
-120.180	309.537	-0.091	-0.166
-119.166	-200.000	0.036	-0.229
-118.151	-109.743	0.106	0.022
-117.137	304.037	-0.038	0.070
-116.122	104.222	0.326	0.376
-115.107	-200.000	-0.001	0.402
-114.093	800.000	-0.061	0.204
-113.078	15.780	0.186	0.144
-112.064	-200.000	-0.003	0.286
-111.049	137.585	0.070	-0.090
-110.034	192.746	-0.136	-0.202
-109.020	-56.115	0.313	-0.137
-108.005	204.162	-0.124	0.189
-106.991	-60.232	0.318	-0.133
-105.976	398.555	0.108	0.222
-104.962	31.684	-0.319	0.269
-103.947	800.000	-0.077	-0.219
-102.932	125.895	-0.164	0.204
-101.918	211.118	0.126	0.194
-100.903	-46.452	0.099	0.048
-99.889	-111.426	0.157	0.031
-98.874	7.353	0.154	-0.113
-97.859	24.785	-0.183	0.148
-96.845	-105.448	0.050	0.011
-95.830	-200.000	0.016	0.194
-94.816	668.037	-0.075	-0.191
-93.801	34.466	-0.179	-0.153
-92.786	-102.581	-0.543	0.127
-91.772	-124.263	0.089	-0.014
-90.757	3.020	0.197	0.140
-89.743	-175.796	-0.311	0.008
-88.728	-200.000	0.037	-0.466
-87.713	-143.351	-0.381	0.036
-86.699	-200.000	0.010	0.144
-85.684	-118.601	0.171	-0.030
-84.670	-200.000	-0.060	0.300
-83.655	-153.705	-0.092	-0.006
-82.640	-200.000	0.016	-0.207
-81.626	-51.206	0.341	-0.157
-80.611	-165.972	0.302	-0.013
-79.597	-34.753	-0.240	-0.128
-78.582	-66.058	-0.238	-0.093
-77.567	-140.675	0.249	-0.025
-76.553	66.007	0.081	-0.081
-75.538	246.624	0.219	0.362
-74.524	305.914	-0.026	0.048
-73.509	7.771	0.180	-0.132
-72.494	-200.000	0.110	0.687
-71.480	-19.689	0.057	-0.034
-70.465	73.932	0.324	0.333
-69.451	-65.876	0.202	-0.079
-68.436	-200.000	-0.031	0.307
-67.422	-200.000	0.006	-0.032
-66.407	-23.511	0.302	-0.177
-65.392	-38.418	0.044	-0.023
-64.378	-200.000	0.012	-0.173
-63.363	-200.000	-0.007	-0.093
-62.349	36.443	0.114	0.098
-61.334	74.963	-0.926	-0.954
-60.319	195.101	0.615	0.914
-59.305	-200.000	-0.218	-1.037
-58.290	447.811	0.575	1.239
-57.276	307.336	0.822	1.499
-56.261	-200.000	113.247	661.707
-55.246	552.584	1511.802	3554.065
-54.232	179.978	2679.454	3842.834
-53.217	112.524	2169.530	2569.051
-52.203	38.940	1699.243	1485.589
-51.188	31.292	1518.412	1275.464
-50.173	28.972	1493.904	1239.221
-49.159	53.752	1552.231	1458.259
-48.144	52.228	1567.263	1461.895
-47.130	31.571	1523.597	1281.525
-46.115	28.465	1508.977	1248.072
-45.100	28.293	1505.517	1243.990
-44.086	28.265	1503.286	1241.912
-43.071	28.127	1502.040	1239.898
-42.057	28.172	1500.068	1238.523
-41.042	28.205	1498.865	1237.704
-40.027	28.227	1497.107	1236.355
-39.013	28.173	1495.556	1234.660
-37.998	28.073	1494.589	1233.136
-36.984	28.230	1493.433	1233.189
-35.969	28.244	1491.734	1231.833
-34.954	28.123	1490.688	1230.109
-33.940	28.191	1489.274	1229.349
-32.925	28.214	1487.390	1227.899
-31.911	28.153	1486.675	1226.851
-30.896	28.229	1485.204	1226.099
-29.881	28.249	1483.766	1224.995
-28.867	28.189	1482.858	1223.798
-27.852	28.123	1481.840	1222.466
-26.838	28.240	1480.409	1222.020
-25.823	28.234	1478.532	1220.383
-24.809	28.163	1477.303	1218.842
-23.794	28.280	1475.187	1217.827
-22.779	28.136	1474.649	1216.382
-21.765	28.229	1473.702	1216.169
-20.750	28.209	1472.631	1215.101
-19.736	28.199	1471.592	1214.129
-18.721	28.223	1470.239	1213.125
-17.706	28.190	1469.361	1212.132
-16.692	28.239	1468.431	1211.640
-15.677	28.233	1466.914	1210.304
-14.663	28.206	1466.061	1209.371
-13.648	28.146	1465.208	1208.229
-12.633	28.158	1464.061	1207.308
-11.619	28.216	1463.478	1207.168
-10.604	28.288	1462.151	1206.500
-9.590	28.145	1461.652	1205.097
-8.575	28.251	1460.454	1204.755
-7.560	28.171	1459.767	1203.616
-6.546	28.133	1459.142	1202.806
-5.531	28.120	1458.468	1202.114
-4.517	28.144	1457.427	1201.367
-3.502	28.106	1456.264	1200.110
-2.487	28.251	1455.246	1200.176
-1.473	28.196	1453.991	1198.732
-0.458	28.275	1452.683	1198.122
0.556	28.593	1442.695	1186.166
1.571	25.463	1417.804	1145.675
2.586	21.785	1356.024	1073.183
3.600	20.001	1272.352	996.622
4.615	18.720	1227.812	954.527
5.629	16.207	1171.691	897.471
6.644	9.291	1089.873	800.398
7.659	3.917	1052.471	746.971
8.673	3.354	1046.527	739.983
9.688	3.187	1043.901	737.261
10.702	3.034	1042.480	735.461
11.717	3.194	1040.103	734.482
12.731	5.111	1041.442	744.514
13.746	12.060	1051.429	784.964
14.761	18.455	1059.422	821.620
15.775	19.896	1061.152	829.802
16.790	19.569	1059.066	826.534
17.804	18.537	1057.092	819.986
18.819	17.573	1055.551	814.114
19.834	17.228	1054.095	811.270
20.848	17.043	1053.399	809.782
21.863	16.990	1052.607	808.849
22.877	16.732	1051.690	806.841
23.892	16.634	1050.743	805.576
24.907	16.493	1050.274	804.476
25.921	16.435	1048.980	803.138
26.936	16.466	1048.592	802.920
27.950	16.459	1047.774	802.187
28.965	16.532	1046.198	801.254
29.980	16.615	1045.406	800.970
30.994	16.813	1044.201	800.915
32.009	16.883	1043.547	800.673
33.023	16.923	1042.791	800.211
34.038	16.878	1041.807	799.171
35.053	16.720	1041.423	798.060
36.067	16.766	1039.884	797.028
37.082	16.586	1039.804	796.049
38.096	16.702	1038.477	795.509
39.111	16.629	1038.270	794.938
40.126	16.891	1036.626	794.837
41.140	16.610	1035.805	792.818
42.155	16.576	1034.325	791.455
43.169	16.264	1033.845	789.562
44.184	16.231	1032.885	788.603
45.199	16.268	1031.204	787.421
46.213	16.247	1030.332	786.589
47.228	16.257	1030.121	786.405
48.242	16.461	1029.026	786.451
49.257	16.654	1027.849	786.375
50.271	16.615	1026.855	785.364
51.286	16.591	1025.900	784.454
52.301	16.663	1025.218	784.198
53.315	16.800	1024.288	784.050
54.330	16.677	1023.255	782.622
55.344	16.435	1022.811	781.093
56.359	16.342	1021.433	779.545
57.374	16.495	1020.673	779.602
58.388	16.336	1020.214	778.448
59.403	16.348	1018.951	777.471
60.417	16.272	1018.050	776.367
61.432	16.361	1017.192	776.052
62.447	16.341	1016.669	775.493
63.461	16.169	1015.853	774.013
64.476	16.142	1015.071	773.224
65.490	16.079	1014.174	772.184
66.505	16.234	1013.127	772.028
67.520	16.110	1012.680	771.053
68.534	16.146	1012.031	770.652
69.549	16.217	1010.930	770.070
70.563	16.251	1010.214	769.612
71.578	16.125	1009.412	768.360
72.593	16.143	1008.390	767.597
73.607	16.041	1007.603	766.465
74.622	15.954	1006.638	765.267
75.636	15.861	1005.763	764.111
76.651	15.907	1005.759	764.248
77.666	16.110	1003.960	763.733
78.680	16.172	1003.499	763.596
79.695	16.130	1003.057	763.001
80.709	16.117	1002.623	762.548
81.724	16.137	1001.640	761.824
82.739	16.287	1001.309	762.181
83.753	16.303	1000.716	761.733
84.768	16.451	1000.075	761.844
85.782	16.689	999.534	762.439
86.797	16.844	998.766	762.481
87.812	16.853	997.646	761.598
88.826	16.780	996.503	760.331
89.841	16.602	996.155	759.202
90.855	16.604	995.451	758.606
91.870	16.718	994.465	758.297
92.884	16.842	993.660	758.172
93.899	16.702	993.265	757.178
94.914	16.729	992.438	756.600
95.928	16.840	991.444	756.270
96.943	17.019	990.445	756.241
97.957	16.872	989.972	755.155
98.972	16.689	989.056	753.579
99.987	16.713	988.303	753.043
101.001	16.788	987.724	752.870
102.016	16.670	986.901	751.652
103.030	16.624	985.823	750.560
104.045	16.721	984.948	750.255
105.060	16.897	983.869	750.147
106.074	16.730	982.721	748.469
107.089	16.463	981.993	746.668
108.103	16.387	981.001	745.514
109.118	16.393	979.752	744.525
110.133	16.144	979.494	743.164
111.147	16.196	978.440	742.527
112.162	16.119	977.289	741.251
113.176	16.359	976.381	741.548
114.191	16.331	975.767	740.897
115.206	16.412	974.985	740.590
116.220	16.338	974.282	739.667
117.235	16.246	973.748	738.794
118.249	16.294	972.597	738.063
119.264	16.295	971.488	737.161
120.279	16.232	971.076	736.510
121.293	16.206	969.710	735.294
122.308	16.178	969.346	734.831
123.322	16.128	968.333	733.782
124.337	16.084	967.108	732.595
125.352	16.010	966.340	731.628
126.366	16.007	965.192	730.683
127.381	16.030	963.937	729.767
128.395	16.023	963.813	729.579
129.410	16.043	962.279	728.437
130.424	16.104	961.420	727.990
131.439	16.129	960.983	727.701
132.454	16.296	960.075	727.668
133.468	16.410	959.349	727.545
134.483	16.289	958.855	726.584
135.497	16.319	958.070	726.052
136.512	16.310	957.550	725.558
137.527	16.206	956.515	724.262
138.541	16.496	955.798	724.900
139.556	16.324	955.318	723.732
140.570	16.291	954.583	722.973
141.585	16.367	953.796	722.637
142.600	16.544	953.104	722.806
143.614	16.665	952.216	722.585
144.629	16.726	951.553	722.277
145.643	16.816	951.014	722.189
146.658	16.774	950.243	721.359
147.673	16.643	948.671	719.545
148.687	16.656	947.971	719.008
149.702	16.395	947.269	717.303
150.716	16.210	946.614	715.959
151.731	16.322	945.320	715.392
152.746	16.433	944.490	715.168
153.760	16.454	944.040	714.853
154.775	16.404	943.584	714.234
155.789	16.567	942.291	713.881
156.804	16.669	941.676	713.780
157.819	16.758	940.792	713.421
158.833	16.678	940.075	712.479
159.848	16.882	939.958	713.184
160.862	16.776	939.405	712.257
161.877	16.960	938.010	711.908
162.892	16.766	937.110	710.350
163.906	16.507	936.615	708.828
164.921	16.523	935.329	707.858
165.935	16.513	934.542	707.158
166.950	16.501	933.480	706.241
167.964	16.571	932.992	706.101
168.979	16.564	931.785	705.097
169.994	16.626	930.490	704.314
171.008	16.570	929.900	703.571
172.023	16.565	929.175	702.938
173.037	16.603	928.782	702.737
174.052	16.729	928.081	702.666
175.067	16.720	927.797	702.354
176.081	16.673	926.423	701.056
177.096	16.579	925.216	699.690
178.110	16.522	924.682	698.991
179.125	16.461	923.998	698.158
180.140	16.505	923.740	698.085
181.154	16.725	922.403	697.920
182.169	16.785	922.101	697.876
183.183	16.704	921.853	697.295
184.198	16.877	921.116	697.388
185.213	16.937	920.320	696.970
186.227	16.957	919.707	696.526
187.242	16.913	919.468	696.100
188.256	16.968	918.333	695.407
189.271	17.040	917.702	695.163
190.286	17.014	917.319	694.703
191.300	16.945	916.229	693.535
192.315	16.718	914.818	691.479
193.329	16.435	913.947	689.602
194.344	16.477	913.708	689.532
195.359	16.549	913.510	689.619
196.373	16.702	913.118	689.881
197.388	16.768	912.902	689.928
198.402	16.873	911.923	689.554
199.417	17.059	911.853	690.196
200.432	17.214	911.372	690.400
201.446	17.299	911.041	690.433
202.461	17.427	909.918	690.041
203.475	17.436	910.241	690.264
204.490	17.323	909.360	689.075
205.504	17.305	908.308	688.143
206.519	17.021	907.569	686.376
207.534	16.813	907.175	685.173
208.548	16.986	905.925	684.867
209.563	16.964	905.364	684.295
210.577	17.049	904.722	684.091
211.592	17.064	903.970	683.522
212.607	17.192	903.610	683.705
213.621	17.298	903.268	683.815
214.636	17.280	902.866	683.375
215.650	17.225	901.750	682.252
216.665	17.328	901.272	682.242
217.680	17.343	900.863	681.931
218.694	17.335	900.275	681.393
219.709	17.426	900.029	681.512
220.723	17.451	899.239	680.951
221.738	17.293	898.459	679.672
222.753	17.394	897.675	679.419
223.767	17.331	896.986	678.588
224.782	17.485	896.005	678.399
225.796	17.468	896.021	678.285
226.811	17.578	895.176	678.023
227.826	17.506	894.499	677.161
228.840	17.491	893.740	676.467
229.855	17.225	893.100	674.867
230.869	17.360	892.601	674.967
231.884	17.340	891.862	674.271
232.899	17.305	890.851	673.306
233.913	17.227	890.117	672.385
234.928	17.182	889.766	671.880
235.942	17.186	888.702	671.034
236.957	17.225	887.849	670.484
237.972	17.182	887.272	669.820
238.986	17.098	886.848	669.111
240.001	17.365	885.593	669.155
241.015	17.282	885.609	668.781
242.030	17.196	884.860	667.816
243.045	17.364	884.089	667.838
244.059	17.473	883.759	667.957
245.074	17.537	882.963	667.548
246.088	17.451	882.222	666.591
247.103	17.522	882.066	666.690
248.117	17.738	880.964	666.644
249.132	17.885	880.757	667.002
250.147	17.959	880.883	667.328
251.161	18.073	880.228	667.218
252.176	18.152	879.655	667.032
253.190	18.051	878.738	665.884
254.205	18.154	878.341	665.928
255.220	18.297	877.527	665.807
256.234	18.276	876.592	664.956
257.249	18.150	876.417	664.277
258.263	18.205	875.786	663.950
259.278	18.026	875.256	662.798
260.293	18.259	874.435	663.018
261.307	18.174	874.170	662.430
262.322	18.425	872.944	662.415
263.336	18.389	872.542	661.911
264.351	18.275	872.293	661.222
265.366	18.415	871.306	660.957
266.380	18.286	871.229	660.341
267.395	18.349	870.361	659.867
268.409	18.303	869.260	658.798
269.424	18.234	868.653	658.013
270.439	18.134	868.278	657.289
271.453	18.156	867.245	656.530
272.468	18.165	866.670	656.074
273.482	18.052	866.172	655.204
274.497	18.060	865.667	654.796
275.512	18.180	864.879	654.600
276.526	18.209	864.074	654.043
277.541	18.035	863.568	652.940
278.555	18.353	862.701	653.438
279.570	18.242	862.592	652.876
280.585	18.402	862.195	653.126
281.599	18.543	861.585	653.144
282.614	18.492	860.558	652.113
283.628	18.428	859.681	651.150
284.643	18.322	859.581	650.614
285.657	18.271	858.997	649.921
286.672	18.224	858.727	649.478
287.687	18.315	858.015	649.230
288.701	18.300	857.720	648.889
289.716	18.278	856.960	648.174
290.730	18.390	856.208	647.973
291.745	18.460	855.293	647.488
292.760	18.445	854.378	646.681
293.774	18.448	854.745	646.914
294.789	18.694	853.812	647.079
295.803	18.598	853.674	646.554
296.818	18.356	853.122	645.167
297.833	18.403	852.141	644.544
298.847	18.250	851.404	643.354
299.862	18.350	850.869	643.269
300.876	18.342	850.322	642.768
301.891	18.695	849.226	643.205
302.906	18.623	849.068	642.760
303.920	18.693	848.238	642.338
304.935	18.781	848.125	642.523
305.949	18.869	847.296	642.166
306.964	18.742	846.569	641.084
307.979	18.796	845.871	640.701
308.993	18.820	845.116	640.162
310.008	18.881	844.598	639.940
311.022	18.875	844.639	639.893
312.037	18.906	843.990	639.458
313.052	18.723	843.514	638.363
314.066	18.685	842.571	637.449
315.081	18.429	842.182	636.151
316.095	18.474	841.159	635.488
317.110	18.548	841.058	635.629
318.125	18.545	840.289	634.979
319.139	18.450	840.053	634.395
320.154	18.746	838.884	634.549
321.168	18.576	838.742	633.759
322.183	18.606	838.308	633.485
323.197	18.749	837.620	633.436
324.212	18.583	837.243	632.485
325.227	18.744	836.437	632.410
326.241	18.732	836.034	632.006
327.256	18.702	835.392	631.354
328.270	18.625	834.990	630.710
329.285	18.705	834.365	630.478
330.300	18.640	834.102	629.986
331.314	18.524	833.492	629.045
332.329	18.705	832.769	629.106
333.343	18.849	832.032	629.020
334.358	18.983	831.553	629.094
335.373	18.908	831.186	628.484
336.387	18.894	830.740	628.040
337.402	19.000	830.169	627.941
338.416	19.064	829.421	627.552
339.431	19.035	829.185	627.212
340.446	19.199	828.500	627.237
341.460	19.342	827.880	627.233
342.475	19.186	827.745	626.508
343.489	19.300	827.210	626.462
344.504	19.353	826.941	626.395
345.519	19.620	825.808	626.449
346.533	19.540	825.545	625.905
347.548	19.515	824.850	625.230
348.562	19.385	823.909	623.994
349.577	19.399	823.342	623.558
350.592	19.220	822.926	622.541
351.606	19.144	822.278	621.721
352.621	19.043	822.156	621.210
353.635	18.990	822.125	620.938
354.650	19.112	821.549	620.892
355.665	19.098	821.054	620.410
356.679	19.300	820.900	620.967
357.694	19.307	819.917	620.192
358.708	19.295	819.698	619.929
359.723	19.285	818.920	619.250
360.738	19.228	818.622	618.766
361.752	19.163	818.183	618.144
362.767	19.203	817.691	617.863
363.781	19.380	817.595	618.369
364.796	19.607	816.892	618.597
365.810	19.596	816.585	618.271
366.825	19.667	816.356	618.296
367.840	19.714	815.807	617.993
368.854	19.831	815.361	618.020
369.869	19.747	814.434	616.962
370.883	19.631	814.264	616.364
371.898	19.485	813.789	615.430
372.913	19.669	812.973	615.413
373.927	19.623	812.669	614.967
374.942	19.562	811.933	614.138
375.956	19.599	811.099	613.584
376.971	19.858	810.426	613.940
377.986	19.860	810.120	613.662
379.000	20.021	809.600	613.785
380.015	20.084	809.310	613.732
381.029	19.936	808.851	612.805
382.044	19.876	808.245	612.081
383.059	19.890	807.646	611.620
384.073	19.812	806.881	610.711
385.088	20.043	806.438	611.138
386.102	19.918	805.847	610.197
387.117	19.644	805.453	608.878
388.132	19.614	804.659	608.119
389.146	19.690	804.526	608.233
390.161	19.771	803.986	608.056
391.175	20.048	803.381	608.517
392.190	19.964	803.319	608.121
393.205	20.093	802.831	608.149
394.219	19.798	802.232	606.608
395.234	19.817	801.843	606.327
396.248	19.669	801.236	605.297
397.263	19.687	800.925	605.070
398.278	19.471	800.060	603.608
399.292	19.697	799.298	603.770
400.307	19.694	799.041	603.509
401.321	19.659	799.062	603.353
402.336	19.713	798.565	603.109
403.350	19.659	798.147	602.552
404.365	19.808	797.845	602.792
405.380	19.862	797.340	602.545
406.394	20.054	796.645	602.635
407.409	20.050	796.559	602.502
408.423	20.178	796.250	602.660
409.438	20.418	795.682	603.009
410.453	20.314	795.322	602.322
411.467	20.412	794.995	602.363
412.482	20.329	794.216	601.430
413.496	20.473	793.788	601.552
414.511	20.645	793.436	601.826
415.526	20.482	793.546	601.292
416.540	20.271	792.910	600.028
417.555	20.439	792.243	600.053
418.569	20.435	791.881	599.709
419.584	20.369	791.392	599.059
420.599	20.366	790.986	598.688
421.613	161.282	1371.346	1795.967
422.628	139.709	1455.880	1796.046
