DTS Sentinel unit serial number:	SN413079Multiplexer serial number:	ORYXHardware model number:	OX4-SRSoftware version number:	ORYX F/W v4.00 Oryx Data Collector v3.7.2.0data status	okinstallation	princeton_trtdifferential loss correction	single-endedforward channel	channel 3reverse channel	N/Adate	2019/09/13time	00:52:35forward acquisition time	60.00reverse acquisition time	0.00gamma	496.2192k internal	0.2332k external	0.2332temperature offset calibration	1.0116default loss term (dB/km)	0.3790temperature slope calibration	1.0000multiplexer offset coefficient	1.0000multiplexer slope coefficient	1.0000fibre end	0.00T internal ref (°C)	28.14T ext. ref 1 (°C)	3.64T ext. ref 2 (°C)	22.61length (m)	temperature (°C)	Stokes	anti-Stokes-747.200	800.000	0.065	-0.198
-746.185	-125.308	0.180	0.028
-745.171	747.642	-0.125	0.340
-744.156	97.655	-0.210	0.242
-743.142	-21.638	-0.212	0.130
-742.127	19.665	0.386	0.312
-741.112	800.000	0.127	0.475
-740.098	766.348	-0.032	-0.089
-739.083	309.743	0.155	0.291
-738.069	-200.000	-0.105	0.581
-737.054	282.193	0.069	0.125
-736.039	-5.809	-0.104	-0.072
-735.025	242.858	0.070	0.118
-734.010	-200.000	-0.027	-0.179
-732.996	-22.388	-0.188	0.114
-731.981	-200.000	-0.007	-0.236
-730.966	-102.558	-0.390	0.094
-729.952	79.744	-0.205	-0.221
-728.937	185.268	-0.177	-0.264
-727.923	414.328	-0.124	-0.266
-726.908	-87.894	-0.509	-0.154
-725.894	-146.727	0.292	-0.025
-724.879	-64.057	-0.287	0.118
-723.864	-142.851	0.118	-0.012
-722.850	463.711	-0.050	0.111
-721.835	68.203	-0.133	-0.136
-720.821	733.569	-0.075	0.202
-719.806	800.000	-0.028	-0.118
-718.791	53.639	-0.164	0.158
-717.777	413.635	-0.018	0.039
-716.762	-38.065	-0.099	-0.053
-715.748	-200.000	-0.011	-0.052
-714.733	570.728	0.044	0.109
-713.718	387.140	-0.108	-0.224
-712.704	-200.000	-0.077	-0.475
-711.689	-132.116	-0.157	0.021
-710.675	-70.821	-0.393	0.149
-709.660	-39.406	-0.171	-0.090
-708.645	248.553	0.049	-0.084
-707.631	43.695	-0.234	-0.215
-706.616	228.520	-0.202	0.330
-705.602	12.796	0.271	-0.210
-704.587	179.545	-0.134	0.198
-703.572	-112.776	0.067	-0.013
-702.558	241.586	0.159	-0.267
-701.543	-115.856	-0.226	0.043
-700.529	12.547	0.075	-0.058
-699.514	-152.846	-0.197	0.014
-698.499	800.000	-0.068	-0.255
-697.485	-60.080	0.061	0.026
-696.470	800.000	0.026	-0.116
-695.456	-69.380	0.230	-0.089
-694.441	-64.191	0.110	-0.045
-693.426	594.599	0.025	0.062
-692.412	-200.000	0.059	0.405
-691.397	530.119	-0.072	-0.171
-690.383	695.685	-0.069	0.182
-689.368	611.788	-0.139	0.349
-688.354	22.072	-0.133	0.109
-687.339	-143.096	-0.238	0.023
-686.324	54.748	0.202	-0.196
-685.310	234.768	0.065	0.108
-684.295	-162.697	0.167	-0.008
-683.281	-200.000	0.047	0.329
-682.266	23.888	-0.072	0.060
-681.251	479.390	0.066	0.151
-680.237	316.193	-0.172	0.325
-679.222	800.000	-0.043	0.169
-678.208	800.000	-0.066	0.221
-677.193	-200.000	0.013	-0.246
-676.178	15.949	0.093	0.073
-675.164	62.436	-0.109	0.109
-674.149	48.611	0.015	-0.014
-673.135	78.785	0.349	-0.375
-672.120	-153.250	-0.179	-0.013
-671.105	-200.000	-0.047	-0.240
-670.091	-88.559	0.181	-0.054
-669.076	-104.948	-0.094	-0.022
-668.062	237.865	-0.071	-0.119
-667.047	130.941	0.103	-0.133
-666.032	792.557	-0.039	0.108
-665.018	69.801	0.281	-0.291
-664.003	-11.955	-0.128	-0.084
-662.989	-80.258	-0.275	0.092
-661.974	-200.000	-0.008	-0.112
-660.959	-175.508	-0.241	0.007
-659.945	-55.131	0.261	0.118
-658.930	65.734	-0.160	-0.162
-657.916	-81.171	-0.161	0.053
-656.901	-160.902	0.155	0.008
-655.886	-126.924	-0.336	0.050
-654.872	-150.876	-0.308	0.023
-653.857	-200.000	0.010	0.302
-652.843	-94.619	0.240	0.065
-651.828	-1.498	0.126	0.089
-650.814	-19.421	0.164	-0.102
-649.799	-118.519	-0.246	0.044
-648.784	-49.816	-0.432	-0.206
-647.770	-95.197	0.164	0.044
-646.755	83.434	0.050	0.054
-645.741	-200.000	0.095	-0.456
-644.726	-184.956	-0.186	-0.003
-643.711	-200.000	0.053	0.270
-642.697	195.746	0.129	-0.197
-641.682	-122.670	-0.081	0.013
-640.668	-200.000	0.025	0.266
-639.653	253.153	0.122	-0.208
-638.638	800.000	-0.094	0.270
-637.624	8.145	-0.210	-0.158
-636.609	-5.828	0.038	0.026
-635.595	181.930	-0.036	-0.053
-634.580	18.727	0.187	0.150
-633.565	-200.000	0.020	0.347
-632.551	-76.563	0.106	-0.037
-631.536	800.000	0.059	-0.206
-630.522	46.540	0.302	0.280
-629.507	800.000	-0.043	-0.178
-628.492	119.188	0.022	-0.027
-627.478	-200.000	-0.007	0.102
-626.463	173.738	-0.079	-0.115
-625.449	375.627	0.165	-0.337
-624.434	218.861	-0.087	-0.139
-623.419	133.264	-0.102	0.132
-622.405	-60.000	-0.225	-0.096
-621.390	-87.786	-0.157	-0.047
-620.376	81.444	0.142	0.154
-619.361	-128.609	0.381	0.054
-618.346	139.913	-0.165	-0.217
-617.332	-7.936	-0.129	0.087
-616.317	-155.365	0.261	0.017
-615.303	-133.439	-0.316	-0.040
-614.288	64.509	0.259	-0.261
-613.273	-131.692	-0.415	-0.055
-612.259	-41.536	0.153	-0.079
-611.244	58.387	0.109	0.107
-610.230	-200.000	0.052	-0.312
-609.215	154.163	0.275	-0.377
-608.201	-200.000	-0.001	0.129
-607.186	-15.327	0.333	0.213
-606.171	95.199	0.100	0.114
-605.157	149.217	0.170	0.230
-604.142	-130.215	-0.126	0.017
-603.128	-131.648	-0.178	-0.023
-602.113	329.373	0.064	0.122
-601.098	-198.804	-0.221	-0.001
-600.084	-200.000	-0.041	-0.473
-599.069	-116.291	-0.135	-0.025
-598.055	-134.697	0.180	0.022
-597.040	-85.693	-0.142	0.044
-596.025	-84.911	-0.080	0.025
-595.011	-31.631	0.209	0.117
-593.996	-173.091	-0.329	0.010
-592.982	800.000	0.087	-0.290
-591.967	-43.303	-0.163	-0.083
-590.952	800.000	-0.072	-0.264
-589.938	800.000	-0.062	0.253
-588.923	-200.000	-0.065	-0.487
-587.909	-130.646	-0.287	0.039
-586.894	161.486	0.214	-0.299
-585.879	348.847	0.201	0.396
-584.865	709.893	0.056	-0.147
-583.850	-36.831	-0.253	0.136
-582.836	-131.550	-0.159	0.021
-581.821	-139.449	-0.070	0.007
-580.806	-12.820	-0.084	0.055
-579.792	800.000	-0.047	-0.163
-578.777	-83.269	-0.310	-0.099
-577.763	-200.000	0.030	0.331
-576.748	17.700	0.062	0.049
-575.733	800.000	-0.024	0.096
-574.719	124.865	-0.106	-0.133
-573.704	-194.921	-0.325	-0.002
-572.690	-84.518	0.166	0.052
-571.675	89.986	0.132	0.148
-570.661	-200.000	0.009	-0.121
-569.646	65.119	0.194	0.196
-568.631	29.074	0.066	-0.056
-567.617	-200.000	0.007	-0.061
-566.602	-135.417	-0.279	-0.033
-565.588	-164.593	0.265	-0.012
-564.573	-200.000	-0.009	0.112
-563.558	-11.839	0.234	-0.153
-562.544	-17.083	0.398	-0.251
-561.529	-22.714	-0.217	-0.131
-560.515	-200.000	-0.026	-0.331
-559.500	800.000	0.102	0.368
-558.485	95.361	-0.327	-0.372
-557.471	-77.434	0.241	0.084
-556.456	-66.953	-0.057	0.023
-555.442	114.505	-0.285	-0.347
-554.427	330.677	0.082	-0.158
-553.412	-200.000	0.041	-0.260
-552.398	-20.354	-0.148	0.091
-551.383	61.580	-0.308	0.306
-550.369	-200.000	-0.004	0.142
-549.354	-122.815	-0.217	-0.035
-548.339	171.819	0.118	-0.169
-547.325	34.988	-0.300	0.262
-546.310	160.929	0.314	-0.438
-545.296	74.073	0.180	0.189
-544.281	-149.575	-0.247	-0.019
-543.266	-102.496	0.604	-0.144
-542.252	176.795	0.062	0.090
-541.237	-0.634	-0.156	-0.110
-540.223	-157.718	0.161	-0.010
-539.208	-121.428	-0.251	-0.042
-538.193	327.531	0.055	0.105
-537.179	0.765	0.296	-0.211
-536.164	212.626	0.080	0.126
-535.150	-97.584	0.099	-0.026
-534.135	-34.667	0.049	-0.027
-533.121	57.704	-0.241	0.235
-532.106	22.772	-0.226	-0.185
-531.091	800.000	0.056	-0.218
-530.077	204.632	0.136	0.211
-529.062	160.942	0.051	0.071
-528.048	-39.163	-0.344	-0.181
-527.033	-140.525	0.317	0.033
-526.018	-200.000	-0.013	-0.084
-525.004	-46.603	0.066	-0.032
-523.989	324.699	0.056	0.107
-522.975	-10.919	0.151	-0.100
-521.960	-39.566	0.171	0.089
-520.945	545.339	0.036	-0.087
-519.931	436.738	-0.182	-0.395
-518.916	-200.000	0.025	0.157
-517.902	-122.850	-0.161	-0.026
-516.887	-22.471	-0.208	0.126
-515.872	370.781	-0.131	0.265
-514.858	-200.000	-0.056	0.255
-513.843	-200.000	0.001	0.366
-512.829	421.883	0.093	0.199
-511.814	-200.000	-0.074	-0.336
-510.799	-11.259	0.177	0.116
-509.785	-192.313	-0.154	0.001
-508.770	-7.293	-0.180	0.121
-507.756	-77.358	0.172	-0.060
-506.741	-122.640	0.173	-0.028
-505.726	78.459	-0.243	0.258
-504.712	-200.000	0.067	0.356
-503.697	-59.027	-0.201	0.086
-502.683	220.859	0.136	0.218
-501.668	-132.797	-0.446	0.057
-500.653	800.000	-0.031	0.119
-499.639	-88.167	0.229	-0.068
-498.624	-104.002	0.109	-0.025
-497.610	30.368	0.197	-0.167
-496.595	-200.000	-0.042	-0.222
-495.581	267.618	-0.064	0.112
-494.566	-88.909	0.249	-0.074
-493.551	-116.035	-0.124	-0.023
-492.537	-69.354	0.266	-0.102
-491.522	-119.770	-0.164	0.028
-490.508	-53.530	0.092	0.042
-489.493	-13.392	0.104	0.067
-488.478	-200.000	0.015	0.391
-487.464	-70.165	-0.314	-0.119
-486.449	39.763	-0.143	0.128
-485.435	800.000	-0.040	0.157
-484.420	-200.000	0.039	-0.204
-483.405	629.575	0.083	-0.208
-482.391	-200.000	0.060	-0.302
-481.376	800.000	-0.043	-0.122
-480.362	-14.449	0.223	0.143
-479.347	-136.837	0.340	-0.039
-478.332	-144.290	-0.157	-0.015
-477.318	-200.000	0.028	-0.215
-476.303	-128.376	0.159	0.022
-475.289	88.866	0.072	-0.080
-474.274	-51.805	0.020	-0.009
-473.259	800.000	-0.151	-0.457
-472.245	-200.000	0.001	-0.033
-471.230	18.562	-0.178	0.141
-470.216	-11.640	-0.240	-0.157
-469.201	92.981	-0.197	-0.222
-468.186	-73.361	0.089	0.033
-467.172	384.272	-0.043	-0.089
-466.157	800.000	0.081	-0.330
-465.143	112.040	-0.153	-0.184
-464.128	91.883	0.182	-0.203
-463.113	234.609	0.189	-0.310
-462.099	148.577	0.109	0.147
-461.084	-200.000	-0.011	0.071
-460.070	-140.231	0.183	0.019
-459.055	-200.000	0.036	0.193
-458.040	-200.000	-0.016	-0.096
-457.026	119.224	-0.139	-0.171
-456.011	-105.201	0.029	-0.007
-454.997	-200.000	0.022	-0.197
-453.982	800.000	0.077	-0.249
-452.968	-15.499	-0.243	0.154
-451.953	-175.348	0.241	0.007
-450.938	-192.105	0.299	-0.003
-449.924	12.215	0.085	-0.065
-448.909	-99.994	0.361	0.090
-447.895	114.444	-0.122	0.148
-446.880	-152.726	0.307	-0.022
-445.865	-106.697	0.259	0.057
-444.851	106.230	-0.041	-0.049
-443.836	-8.148	-0.068	0.045
-442.822	6.945	-0.324	-0.240
-441.807	372.029	-0.178	-0.359
-440.792	-56.619	-0.108	0.047
-439.778	182.635	-0.163	0.239
-438.763	-44.467	0.191	0.095
-437.749	250.566	-0.142	-0.240
-436.734	-94.812	0.205	0.055
-435.719	32.958	0.145	-0.125
-434.705	-129.216	-0.291	0.040
-433.690	-200.000	0.008	0.076
-432.676	-124.712	-0.147	0.023
-431.661	227.782	0.162	0.263
-430.646	555.574	-0.097	0.233
-429.632	-75.579	-0.510	-0.180
-428.617	719.835	-0.069	0.184
-427.603	85.373	-0.306	-0.334
-426.588	800.000	-0.041	-0.142
-425.573	-24.880	0.267	0.158
-424.559	-32.880	0.125	0.069
-423.544	203.316	-0.130	-0.200
-422.530	-65.200	-0.202	-0.081
-421.515	268.573	-0.061	0.106
-420.500	299.305	0.042	0.078
-419.486	-61.411	0.339	-0.142
-418.471	69.089	0.339	-0.346
-417.457	117.456	0.147	-0.180
-416.442	-35.381	-0.143	0.077
-415.428	-200.000	0.012	-0.226
-414.413	114.034	0.110	0.132
-413.398	-28.988	-0.312	0.178
-412.384	-122.044	0.309	0.050
-411.369	-200.000	0.024	-0.364
-410.355	-98.615	-0.252	0.064
-409.340	93.124	-0.144	-0.162
-408.325	221.687	-0.115	-0.184
-407.311	481.722	0.178	-0.401
-406.296	23.362	-0.075	0.061
-405.282	-200.000	0.027	0.372
-404.267	800.000	0.132	-0.387
-403.252	-98.162	-0.097	-0.025
-402.238	140.775	-0.076	-0.100
-401.223	-4.853	-0.153	-0.105
-400.209	-103.152	0.145	0.034
-399.194	272.953	0.160	0.281
-398.179	-4.970	0.042	-0.029
-397.165	26.441	0.181	0.150
-396.150	-200.000	0.007	0.197
-395.136	-200.000	0.042	0.389
-394.121	61.273	0.138	-0.137
-393.106	-6.617	0.130	0.088
-392.092	362.308	-0.152	0.303
-391.077	-152.504	-0.246	-0.018
-390.063	-200.000	-0.028	-0.138
-389.048	-64.629	0.205	0.082
-388.033	-71.658	0.289	0.107
-387.019	-116.983	0.246	-0.045
-386.004	426.917	-0.044	0.094
-384.990	-116.257	-0.212	0.039
-383.975	414.575	-0.146	-0.309
-382.960	-147.353	-0.418	-0.035
-381.946	20.252	-0.082	0.066
-380.931	163.775	0.143	-0.200
-379.917	8.183	-0.291	0.216
-378.902	-97.905	-0.170	-0.043
-377.888	652.039	-0.006	0.016
-376.873	800.000	0.033	-0.098
-375.858	454.682	0.157	0.346
-374.844	31.798	-0.175	0.149
-373.829	282.628	-0.121	-0.216
-372.815	338.570	-0.071	0.136
-371.800	-155.762	0.360	0.023
-370.785	-40.061	-0.316	0.163
-369.771	-63.944	-0.029	0.012
-368.756	90.599	-0.153	0.170
-367.742	344.940	0.031	-0.060
-366.727	73.319	-0.077	-0.080
-365.712	800.000	0.054	-0.233
-364.698	-200.000	0.019	-0.120
-363.683	362.408	0.178	0.353
-362.669	-124.709	-0.413	0.063
-361.654	-136.314	0.259	-0.030
-360.639	-200.000	-0.011	0.063
-359.625	57.787	-0.095	-0.092
-358.610	101.523	0.127	0.147
-357.596	-200.000	0.014	0.232
-356.581	-81.392	0.187	0.061
-355.566	-175.517	0.087	0.002
-354.552	216.373	-0.167	-0.263
-353.537	159.621	0.144	-0.199
-352.523	-78.489	-0.066	-0.022
-351.508	-37.401	-0.381	0.201
-350.493	-47.992	-0.321	0.154
-349.479	-50.264	-0.302	0.142
-348.464	-200.000	0.026	-0.324
-347.450	-62.028	-0.210	-0.087
-346.435	-51.732	-0.027	-0.012
-345.420	723.496	-0.012	0.032
-344.406	241.719	-0.139	0.231
-343.391	27.170	0.091	-0.075
-342.377	195.999	0.163	0.246
-341.362	-103.887	-0.340	0.079
-340.348	-118.282	0.111	0.020
-339.333	51.068	-0.123	-0.116
-338.318	-149.587	-0.209	0.016
-337.304	-87.134	0.589	-0.177
-336.289	142.270	0.278	-0.366
-335.275	736.260	0.022	-0.060
-334.260	769.227	-0.074	0.200
-333.245	-13.199	-0.149	-0.096
-332.231	185.049	0.064	0.093
-331.216	247.036	-0.038	0.064
-330.202	-118.410	-0.181	0.032
-329.187	195.827	0.106	0.159
-328.172	123.701	-0.329	-0.409
-327.158	205.758	0.181	-0.279
-326.143	62.377	-0.082	0.081
-325.129	259.288	-0.035	-0.059
-324.114	775.469	-0.019	0.052
-323.099	-73.357	-0.477	0.173
-322.085	-200.000	0.001	-0.138
-321.070	-114.589	-0.155	0.029
-320.056	800.000	0.038	0.147
-319.041	679.753	-0.165	0.426
-318.026	602.609	0.023	0.058
-317.012	630.261	0.208	0.521
-315.997	-40.124	-0.234	0.121
-314.983	516.830	-0.176	0.407
-313.968	-101.264	0.005	-0.001
-312.953	-66.147	-0.324	0.128
-311.939	75.594	0.129	0.135
-310.924	202.069	-0.195	0.298
-309.910	435.011	0.056	0.120
-308.895	-164.813	0.213	0.009
-307.880	-142.980	-0.162	0.015
-306.866	-45.953	0.071	0.035
-305.851	298.265	-0.130	-0.237
-304.837	-27.018	-0.190	-0.109
-303.822	-1.773	-0.075	0.052
-302.807	261.350	-0.023	0.040
-301.793	800.000	-0.016	-0.054
-300.778	138.075	0.122	0.158
-299.764	-54.608	-0.316	-0.141
-298.749	-118.118	0.332	0.059
-297.735	-81.075	0.246	-0.080
-296.720	37.554	0.039	-0.034
-295.705	-200.000	-0.022	0.159
-294.691	-46.787	-0.430	0.208
-293.676	29.537	0.155	0.130
-292.662	-114.168	-0.208	0.040
-291.647	-21.164	0.139	0.084
-290.632	240.636	-0.229	0.378
-289.618	-64.682	-0.259	-0.104
-288.603	-100.359	0.532	-0.130
-287.589	651.859	-0.085	0.216
-286.574	75.870	-0.109	0.114
-285.559	-200.000	-0.048	-0.210
-284.545	139.847	0.145	-0.188
-283.530	-200.000	-0.004	-0.272
-282.516	157.151	-0.145	0.198
-281.501	-81.094	-0.191	-0.063
-280.486	-69.390	-0.333	-0.126
-279.472	-54.970	-0.255	-0.114
-278.457	185.821	0.096	-0.142
-277.443	-25.605	0.222	0.130
-276.428	-16.724	0.044	0.028
-275.413	319.255	-0.098	0.184
-274.399	452.174	-0.094	0.205
-273.384	-200.000	-0.044	0.207
-272.370	-132.952	0.343	-0.043
-271.355	-49.068	-0.060	0.029
-270.340	800.000	-0.064	0.248
-269.326	800.000	0.076	-0.245
-268.311	-200.000	-0.032	0.172
-267.297	-200.000	-0.040	-0.241
-266.282	-200.000	-0.008	-0.050
-265.267	-75.144	-0.247	0.087
-264.253	-200.000	-0.002	0.116
-263.238	-47.418	0.201	-0.097
-262.224	-200.000	-0.007	-0.050
-261.209	533.080	0.126	-0.295
-260.195	42.208	0.042	0.038
-259.180	39.743	0.276	-0.245
-258.165	-54.942	-0.158	0.071
-257.151	800.000	0.024	-0.083
-256.136	-200.000	0.044	-0.340
-255.122	50.563	-0.071	0.066
-254.107	320.387	0.126	-0.235
-253.092	229.061	0.123	-0.197
-252.078	63.754	-0.311	0.308
-251.063	-123.777	0.356	0.056
-250.049	-182.900	0.502	0.009
-249.034	121.427	0.181	0.222
-248.019	7.110	0.071	-0.052
-247.005	-109.110	0.175	0.037
-245.990	-2.075	0.058	0.040
-244.976	71.862	0.288	-0.295
-243.961	7.254	0.275	0.203
-242.946	237.675	-0.047	-0.076
-241.932	800.000	-0.048	-0.137
-240.917	59.261	0.112	-0.109
-239.903	214.605	0.104	0.163
-238.888	51.945	0.069	0.065
-237.873	-200.000	0.004	-0.131
-236.859	210.791	-0.125	0.194
-235.844	35.409	0.132	-0.115
-234.830	395.632	-0.152	0.312
-233.815	-24.756	0.368	-0.215
-232.800	800.000	0.053	-0.146
-231.786	91.037	0.114	0.126
-230.771	64.324	0.182	-0.181
-229.757	-137.574	0.203	0.023
-228.742	761.960	-0.093	-0.248
-227.727	-173.013	0.323	-0.010
-226.713	-154.313	-0.343	0.023
-225.698	5.445	0.248	0.181
-224.684	-88.088	-0.191	-0.057
-223.669	-102.895	-0.339	-0.079
-222.655	365.663	0.076	-0.150
-221.640	-84.518	0.254	0.079
-220.625	259.075	0.082	0.140
-219.611	-60.598	0.152	-0.064
-218.596	-78.972	0.297	0.100
-217.582	2.013	0.240	-0.171
-216.567	-34.964	0.117	-0.063
-215.552	-200.000	-0.012	0.206
-214.538	389.747	0.084	-0.172
-213.523	12.173	-0.169	0.128
-212.509	602.268	-0.073	0.179
-211.494	800.000	-0.060	0.203
-210.479	-58.545	0.083	0.036
-209.465	-78.236	0.356	0.121
-208.450	-102.623	-0.274	-0.064
-207.436	-200.000	-0.008	-0.210
-206.421	-200.000	-0.005	-0.117
-205.406	-62.130	0.157	0.065
-204.392	-91.355	-0.125	0.035
-203.377	20.101	0.263	0.209
-202.363	800.000	0.086	-0.260
-201.348	-200.000	0.032	-0.144
-200.333	116.197	-0.098	-0.118
-199.319	-200.000	0.000	-0.036
-198.304	-200.000	0.038	0.290
-197.290	800.000	-0.068	-0.189
-196.275	-15.070	0.224	-0.142
-195.260	-2.514	-0.219	0.151
-194.246	-192.589	0.274	-0.002
-193.231	251.336	0.126	0.211
-192.217	-200.000	-0.007	-0.172
-191.202	-110.725	0.223	0.045
-190.187	800.000	-0.124	-0.372
-189.173	-38.209	-0.138	-0.072
-188.158	157.265	-0.153	-0.208
-187.144	221.631	0.169	-0.267
-186.129	110.383	-0.158	0.187
-185.114	-2.686	-0.272	0.188
-184.100	800.000	-0.101	0.322
-183.085	-156.651	0.425	-0.026
-182.071	-97.045	-0.190	0.049
-181.056	-200.000	-0.015	-0.109
-180.042	800.000	0.051	0.178
-179.027	651.692	-0.116	0.293
-178.012	240.424	-0.009	0.014
-176.998	492.989	-0.080	0.180
-175.983	-200.000	0.017	-0.097
-174.969	-200.000	-0.026	0.185
-173.954	-53.776	-0.318	0.143
-172.939	-200.000	0.044	0.204
-171.925	-135.689	-0.293	0.034
-170.910	800.000	-0.040	0.115
-169.896	34.773	-0.105	0.090
-168.881	7.422	-0.292	-0.215
-167.866	22.327	0.279	0.224
-166.852	-104.780	-0.014	0.003
-165.837	33.735	0.281	0.240
-164.823	14.012	-0.093	0.071
-163.808	59.129	-0.346	-0.335
-162.793	-200.000	0.048	-0.296
-161.779	-134.448	0.432	-0.052
-160.764	-200.000	0.003	0.247
-159.750	-3.821	0.154	-0.105
-158.735	230.668	0.184	0.296
-157.720	795.397	0.046	0.125
-156.706	54.162	0.158	0.149
-155.691	-200.000	-0.034	0.298
-154.677	33.642	-0.193	0.165
-153.662	-63.857	0.147	-0.059
-152.647	22.370	0.077	0.062
-151.633	-200.000	0.048	0.313
-150.618	117.690	-0.043	-0.052
-149.604	1.858	-0.124	0.088
-148.589	800.000	-0.037	-0.122
-147.574	66.251	0.122	-0.122
-146.560	-102.671	-0.152	0.036
-145.545	41.448	-0.121	-0.107
-144.531	-67.381	0.096	0.037
-143.516	-129.099	0.332	0.046
-142.502	-200.000	0.009	-0.067
-141.487	133.223	-0.080	0.102
-140.472	86.400	0.139	0.150
-139.458	-49.013	0.184	0.086
-138.443	89.151	0.291	-0.319
-137.429	27.811	-0.129	0.107
-136.414	-200.000	0.039	-0.200
-135.399	227.067	0.097	0.154
-134.385	81.071	0.100	0.106
-133.370	120.744	-0.066	0.081
-132.356	-103.548	0.155	0.036
-131.341	-200.000	0.048	0.247
-130.326	-87.374	-0.318	0.095
-129.312	-74.425	0.241	-0.085
-128.297	-98.570	-0.279	0.070
-127.283	25.329	0.271	0.221
-126.268	0.127	-0.251	0.176
-125.253	52.433	-0.243	-0.228
-124.239	-200.000	0.034	0.197
-123.224	-138.047	-0.102	-0.011
-122.210	-74.940	-0.194	-0.068
-121.195	27.684	0.100	0.082
-120.180	692.438	-0.051	-0.132
-119.166	756.145	-0.079	-0.209
-118.151	175.046	-0.099	-0.141
-117.137	-74.393	0.220	-0.078
-116.122	-126.878	0.280	-0.040
-115.107	227.006	-0.164	-0.262
-114.093	-200.000	0.022	-0.156
-113.078	-44.796	0.197	-0.097
-112.064	-5.855	-0.321	0.216
-111.049	-58.455	0.192	-0.082
-110.034	199.851	-0.109	-0.164
-109.020	-34.187	0.464	0.250
-108.005	-100.494	-0.112	0.027
-106.991	-200.000	-0.050	0.221
-105.976	800.000	-0.078	-0.261
-104.962	26.609	0.174	-0.143
-103.947	237.127	0.058	0.094
-102.932	-200.000	0.050	-0.237
-101.918	25.009	0.253	-0.206
-100.903	800.000	-0.070	-0.278
-99.889	-46.837	0.249	-0.120
-98.874	138.026	-0.117	0.150
-97.859	-200.000	-0.058	0.306
-96.845	434.439	-0.042	-0.090
-95.830	588.721	-0.046	-0.111
-94.816	-116.845	0.256	-0.046
-93.801	-27.446	-0.324	0.185
-92.786	21.751	0.163	0.130
-91.772	61.164	0.051	-0.050
-90.757	61.167	-0.140	0.136
-89.743	-141.095	0.431	-0.043
-88.728	35.599	0.131	-0.113
-87.713	-200.000	-0.000	-0.184
-86.699	54.867	-0.240	0.227
-85.684	-36.343	0.056	0.029
-84.670	19.161	0.151	0.119
-83.655	6.255	-0.179	0.130
-82.640	-156.159	0.293	-0.018
-81.626	229.589	-0.030	-0.047
-80.611	96.503	-0.194	0.218
-79.597	15.979	0.392	-0.303
-78.582	290.105	-0.072	-0.129
-77.567	-46.797	-0.077	0.037
-76.553	491.381	0.096	-0.214
-75.538	239.105	0.031	0.050
-74.524	-33.366	0.384	-0.208
-73.509	-59.288	-0.304	-0.128
-72.494	272.171	-0.113	0.196
-71.480	-46.251	0.094	0.045
-70.465	99.773	0.208	-0.236
-69.451	-21.358	0.171	0.102
-68.436	-106.361	0.182	0.040
-67.422	-118.379	-0.203	-0.035
-66.407	-88.680	0.184	0.054
-65.392	-119.494	0.276	-0.047
-64.378	-32.934	0.130	-0.071
-63.363	-198.049	0.532	0.003
-62.349	-11.142	-0.188	-0.121
-61.334	66.592	-0.920	-0.917
-60.319	74.829	0.385	0.397
-59.305	-200.000	0.048	-0.829
-58.290	557.155	0.578	1.364
-57.276	252.031	0.934	1.558
-56.261	-200.000	113.172	642.828
-55.246	532.794	1518.279	3519.810
-54.232	178.960	2684.564	3843.741
-53.217	109.932	2169.418	2548.681
-52.203	38.622	1699.721	1484.776
-51.188	31.284	1519.310	1277.181
-50.173	28.918	1495.412	1241.090
-49.159	52.530	1553.129	1451.970
-48.144	51.438	1568.615	1458.892
-47.130	31.436	1524.863	1282.685
-46.115	28.442	1510.127	1249.860
-45.100	28.210	1506.737	1245.430
-44.086	28.123	1504.677	1243.088
-43.071	28.127	1502.841	1241.543
-42.057	28.165	1501.116	1240.328
-41.042	28.140	1499.933	1239.133
-40.027	28.082	1498.176	1237.238
-39.013	28.157	1496.479	1236.299
-37.998	28.125	1495.657	1235.353
-36.984	28.084	1494.438	1234.020
-35.969	28.072	1493.320	1232.967
-34.954	28.158	1491.378	1231.890
-33.940	28.152	1490.168	1230.806
-32.925	28.144	1488.598	1229.402
-31.911	28.166	1487.544	1228.636
-30.896	28.176	1486.594	1227.870
-29.881	28.174	1485.036	1226.519
-28.867	28.144	1483.980	1225.393
-27.852	28.251	1482.019	1224.446
-26.838	28.151	1481.362	1223.185
-25.823	28.161	1479.723	1221.850
-24.809	28.207	1478.352	1220.977
-23.794	28.172	1476.991	1219.566
-22.779	28.242	1475.307	1218.598
-21.765	28.111	1475.296	1217.670
-20.750	28.216	1473.746	1217.039
-19.736	28.186	1472.663	1215.895
-18.721	28.212	1471.412	1214.988
-17.706	28.115	1470.356	1213.426
-16.692	28.142	1469.307	1212.685
-15.677	28.195	1468.478	1212.309
-14.663	28.150	1467.123	1210.843
-13.648	28.073	1466.177	1209.503
-12.633	28.135	1465.183	1209.049
-11.619	28.143	1464.537	1208.519
-10.604	28.181	1463.503	1207.871
-9.590	28.076	1463.019	1206.726
-8.575	28.093	1462.190	1206.108
-7.560	28.050	1460.928	1204.734
-6.546	28.117	1460.055	1204.411
-5.531	28.082	1459.501	1203.672
-4.517	28.129	1458.224	1202.880
-3.502	28.098	1457.515	1202.047
-2.487	28.070	1456.396	1200.889
-1.473	28.138	1455.234	1200.331
-0.458	28.191	1454.371	1199.921
0.556	29.485	1444.180	1187.912
1.571	26.235	1419.775	1147.130
2.586	22.636	1361.562	1078.037
3.600	20.931	1280.312	1003.804
4.615	19.518	1233.766	959.376
5.629	17.148	1177.485	902.945
6.644	9.989	1095.305	804.327
7.659	4.593	1056.959	750.120
8.673	3.917	1051.514	742.947
9.688	3.592	1048.288	739.046
10.702	3.572	1046.353	737.517
11.717	3.499	1044.317	735.671
12.731	6.132	1046.212	749.507
13.746	13.654	1057.357	793.554
14.761	20.688	1065.702	833.565
15.775	22.614	1068.624	845.019
16.790	22.286	1066.663	841.824
17.804	21.405	1064.698	835.991
18.819	20.715	1063.226	831.464
19.834	20.458	1061.713	828.983
20.848	20.451	1061.433	828.656
21.863	20.550	1061.188	828.863
22.877	20.333	1060.564	827.270
23.892	20.249	1059.770	826.176
24.907	20.149	1058.577	824.700
25.921	20.122	1057.876	823.948
26.936	19.971	1057.518	822.880
27.950	20.026	1055.826	821.750
28.965	19.892	1054.676	820.148
29.980	20.017	1053.790	819.981
30.994	20.102	1052.830	819.563
32.009	20.327	1052.177	820.047
33.023	20.465	1051.330	819.962
34.038	20.386	1050.672	819.004
35.053	20.290	1049.596	817.639
36.067	20.130	1048.558	816.008
37.082	20.060	1047.853	815.058
38.096	20.054	1046.845	814.172
39.111	20.225	1046.544	814.672
40.126	20.237	1045.803	814.078
41.140	20.234	1044.625	813.075
42.155	19.915	1042.706	810.015
43.169	19.713	1041.736	808.246
44.184	19.534	1040.512	806.389
45.199	19.483	1039.829	805.550
46.213	19.535	1038.891	804.994
47.228	19.704	1038.092	805.094
48.242	20.057	1037.529	806.227
49.257	20.261	1036.986	806.680
50.271	20.011	1036.372	804.971
51.286	20.201	1035.126	804.814
52.301	20.239	1034.826	804.688
53.315	20.198	1034.015	803.796
54.330	20.098	1033.080	802.535
55.344	20.018	1031.648	800.983
56.359	19.876	1030.735	799.546
57.374	19.715	1029.785	797.994
58.388	19.805	1028.791	797.567
59.403	19.636	1028.350	796.377
60.417	19.630	1027.084	795.299
61.432	19.628	1026.344	794.646
62.447	19.448	1025.971	793.456
63.461	19.375	1025.442	792.642
64.476	19.323	1024.633	791.710
65.490	19.226	1023.832	790.577
66.505	19.325	1022.415	789.866
67.520	19.295	1021.817	789.195
68.534	19.404	1021.273	789.206
69.549	19.331	1020.539	788.232
70.563	19.299	1019.543	787.247
71.578	19.255	1018.396	786.094
72.593	19.023	1017.538	784.302
73.607	18.764	1016.626	782.349
74.622	18.789	1015.701	781.684
75.636	18.929	1015.113	781.797
76.651	19.091	1014.365	781.888
77.666	19.032	1013.665	781.015
78.680	19.203	1012.677	780.959
79.695	19.129	1012.233	780.209
80.709	19.172	1011.516	779.785
81.724	19.421	1010.693	780.209
82.739	19.543	1010.242	780.341
83.753	19.551	1009.638	779.840
84.768	19.935	1008.454	780.589
85.782	20.288	1008.649	782.262
86.797	20.696	1007.831	783.398
87.812	20.608	1007.382	782.582
88.826	20.349	1006.234	780.459
89.841	20.302	1005.409	779.537
90.855	20.338	1005.138	779.419
91.870	20.539	1004.038	779.400
92.884	20.541	1003.212	778.700
93.899	20.473	1003.068	778.214
94.914	20.452	1001.961	777.191
95.928	20.584	1001.012	776.979
96.943	20.643	1000.043	776.420
97.957	20.302	999.724	774.583
98.972	20.284	998.111	773.181
99.987	20.296	997.849	772.963
101.001	20.192	997.607	772.246
102.016	20.281	996.660	771.841
103.030	20.182	995.518	770.446
104.045	20.270	994.453	769.945
105.060	20.421	993.297	769.651
106.074	20.237	992.074	767.820
107.089	20.036	991.288	766.255
108.103	19.561	990.159	763.216
109.118	19.502	989.091	762.066
110.133	19.289	988.712	760.767
111.147	19.237	987.125	759.250
112.162	19.215	985.861	758.111
113.176	19.213	985.362	757.653
114.191	19.497	984.846	758.439
115.206	19.749	983.560	758.486
116.220	19.674	983.314	757.902
117.235	19.530	982.645	756.686
118.249	19.443	981.471	755.335
119.264	19.274	980.793	754.006
120.279	19.205	979.573	752.702
121.293	19.040	978.963	751.442
122.308	19.146	977.864	750.997
123.322	19.029	976.969	749.735
124.337	18.858	976.010	748.186
125.352	18.873	974.677	747.164
126.366	18.794	973.678	745.987
127.381	18.894	972.952	745.801
128.395	18.891	972.175	745.126
129.410	18.963	971.332	744.727
130.424	19.119	970.154	744.429
131.439	19.236	969.500	744.370
132.454	19.239	969.099	744.006
133.468	19.510	968.451	744.615
134.483	19.477	967.535	743.701
135.497	19.479	967.127	743.329
136.512	19.370	966.747	742.503
137.527	19.699	965.802	743.129
138.541	19.613	965.133	742.177
139.556	19.455	964.486	740.935
140.570	19.493	963.629	740.372
141.585	19.759	962.872	740.867
142.600	19.967	962.470	741.383
143.614	20.245	961.281	741.589
144.629	20.339	961.145	741.821
145.643	20.274	960.430	740.925
146.658	20.220	959.676	740.049
147.673	20.052	958.336	738.233
148.687	19.902	957.003	736.505
149.702	19.853	955.889	735.374
150.716	19.608	954.832	733.455
151.731	19.593	953.836	732.561
152.746	19.574	953.801	732.389
153.760	19.782	953.099	732.665
154.775	19.761	951.973	731.646
155.789	19.846	951.660	731.701
156.804	19.936	950.579	731.187
157.819	19.987	950.267	731.097
158.833	19.989	949.476	730.430
159.848	20.209	948.696	730.695
160.862	20.187	948.318	730.246
161.877	20.309	947.375	729.967
162.892	19.887	946.212	727.233
163.906	19.561	944.892	724.789
164.921	19.535	943.904	723.855
165.935	19.477	943.000	722.858
166.950	19.647	942.000	722.735
167.964	19.688	941.155	722.195
168.979	19.819	940.078	721.852
169.994	19.787	938.768	720.649
171.008	19.464	938.509	719.041
172.023	19.810	937.445	719.602
173.037	20.025	937.047	720.126
174.052	20.358	936.242	720.825
175.067	20.203	935.751	719.743
176.081	19.854	934.150	717.002
177.096	19.505	933.272	714.820
178.110	19.450	932.277	713.766
179.125	19.339	932.030	713.053
180.140	19.483	931.332	713.053
181.154	19.507	931.044	712.869
182.169	19.838	930.417	713.691
183.183	19.960	930.301	714.040
184.198	20.147	929.436	714.085
185.213	20.129	928.675	713.363
186.227	19.988	928.286	712.423
187.242	20.073	927.781	712.318
188.256	20.193	927.140	712.258
189.271	20.239	926.582	711.955
190.286	20.521	925.714	712.379
191.300	20.032	924.870	709.663
192.315	19.507	923.593	706.473
193.329	19.340	921.995	704.506
194.344	19.341	921.677	704.206
195.359	19.539	921.161	704.559
196.373	19.538	921.087	704.435
197.388	19.779	920.799	705.133
198.402	19.886	920.514	705.290
199.417	20.351	919.951	706.690
200.432	20.568	919.574	707.220
201.446	20.650	919.144	707.159
202.461	20.668	919.318	707.306
203.475	20.722	918.834	707.087
204.490	20.815	917.746	706.565
205.504	20.538	916.447	704.383
206.519	20.180	915.506	702.148
207.534	20.281	914.498	701.719
208.548	20.046	914.103	700.403
209.563	20.214	913.289	700.400
210.577	19.981	913.029	699.197
211.592	20.198	912.338	699.478
212.607	20.378	912.185	700.027
213.621	20.648	911.451	700.490
214.636	20.607	910.846	699.797
215.650	20.306	910.472	698.235
216.665	20.461	909.882	698.345
217.680	20.396	909.664	697.857
218.694	20.717	909.094	698.647
219.709	20.838	908.268	698.435
220.723	20.708	907.658	697.382
221.738	20.612	906.870	696.332
222.753	20.481	906.260	695.276
223.767	20.490	905.251	694.477
224.782	20.556	904.776	694.314
225.796	20.683	904.482	694.536
226.811	20.837	903.844	694.597
227.826	20.677	902.823	693.114
228.840	20.394	902.088	691.363
229.855	20.414	901.034	690.570
230.869	20.574	899.896	690.275
231.884	20.246	900.046	689.026
232.899	20.282	899.131	688.406
233.913	20.185	898.125	687.193
234.928	20.017	897.982	686.357
235.942	20.024	896.669	685.318
236.957	19.938	896.037	684.435
237.972	19.845	895.289	683.435
238.986	20.037	894.938	683.868
240.001	19.988	894.211	683.056
241.015	19.819	893.890	682.085
242.030	20.119	893.043	682.560
243.045	20.251	892.238	682.403
244.059	20.406	891.740	682.572
245.074	20.212	891.334	681.437
246.088	20.475	890.586	681.838
247.103	20.618	890.240	682.075
248.117	20.658	889.862	681.879
249.132	21.002	889.608	682.972
250.147	21.206	889.603	683.708
251.161	21.480	889.127	684.354
252.176	21.581	888.569	684.258
253.190	21.651	887.895	683.952
254.205	21.733	887.518	683.921
255.220	21.826	887.041	683.854
256.234	21.674	886.007	682.406
257.249	21.590	885.260	681.445
258.263	21.570	884.580	680.782
259.278	21.400	884.256	679.809
260.293	21.464	883.658	679.538
261.307	21.447	883.189	679.053
262.322	21.728	882.506	679.557
263.336	21.782	882.289	679.538
264.351	21.722	881.721	678.811
265.366	21.588	881.179	677.813
266.380	21.724	880.064	677.422
267.395	21.670	879.642	676.827
268.409	21.633	878.454	675.711
269.424	21.424	878.147	674.610
270.439	21.357	877.505	673.800
271.453	21.414	876.206	672.961
272.468	21.249	875.501	671.727
273.482	21.209	875.359	671.404
274.497	21.064	874.921	670.449
275.512	21.081	874.178	669.886
276.526	21.166	872.857	669.143
277.541	21.167	872.719	668.980
278.555	21.166	872.213	668.529
279.570	21.480	871.739	669.308
280.585	21.840	871.133	670.160
281.599	21.721	870.898	669.467
282.614	21.516	870.347	668.201
283.628	21.310	869.293	666.545
284.643	21.256	868.665	665.799
285.657	21.263	868.093	665.330
286.672	21.174	867.800	664.707
287.687	21.235	867.186	664.411
288.701	21.269	867.096	664.413
289.716	21.356	866.029	663.866
290.730	21.330	865.095	662.990
291.745	21.403	864.801	662.985
292.760	21.413	864.320	662.594
293.774	21.637	863.946	663.096
294.789	21.695	863.959	663.267
295.803	21.785	862.871	662.713
296.818	21.532	861.792	660.874
297.833	21.243	861.388	659.414
298.847	21.201	860.714	658.682
299.862	21.368	860.102	658.785
300.876	21.453	859.516	658.596
301.891	21.762	858.592	658.991
302.906	21.759	858.399	658.773
303.920	21.900	857.851	658.823
304.935	22.049	857.498	659.053
305.949	22.195	857.137	659.265
306.964	22.015	856.544	658.078
307.979	21.945	855.383	656.866
308.993	21.670	854.736	655.280
310.008	21.799	854.651	655.643
311.022	22.046	854.077	656.067
312.037	22.053	853.539	655.619
313.052	21.700	853.010	653.840
314.066	21.519	851.886	652.243
315.081	21.282	851.293	650.851
316.095	21.279	850.537	650.204
317.110	21.404	850.057	650.246
318.125	21.296	849.653	649.477
319.139	21.176	849.404	648.784
320.154	21.259	848.423	648.282
321.168	21.198	847.974	647.657
322.183	21.364	847.621	647.944
323.197	21.530	847.025	648.046
324.212	21.464	846.504	647.346
325.227	21.397	846.221	646.825
326.241	21.457	845.225	646.227
327.256	21.297	845.059	645.455
328.270	21.199	844.275	644.435
329.285	21.176	843.884	643.997
330.300	21.379	842.832	643.884
331.314	21.284	842.353	643.110
332.329	21.305	841.791	642.700
333.343	21.576	841.392	643.337
334.358	21.782	840.970	643.715
335.373	21.753	840.927	643.518
336.387	21.753	840.252	642.943
337.402	22.036	839.657	643.469
338.416	22.110	838.911	643.112
339.431	22.225	838.758	643.357
340.446	22.331	838.354	643.380
341.460	22.367	837.936	643.132
342.475	22.389	837.526	642.841
343.489	22.496	836.835	642.646
344.504	22.502	836.422	642.292
345.519	22.760	836.084	642.916
346.533	22.699	835.460	642.155
347.548	22.739	834.631	641.608
348.562	22.356	834.111	639.761
349.577	22.187	833.321	638.483
350.592	22.085	832.564	637.475
351.606	21.788	831.982	635.900
352.621	21.844	831.043	635.327
353.635	21.775	831.031	635.010
354.650	21.880	830.968	635.287
355.665	21.966	830.247	634.991
356.679	21.941	830.009	634.661
357.694	22.103	829.721	634.973
358.708	22.209	828.907	634.677
359.723	22.020	828.335	633.500
360.738	22.175	827.810	633.602
361.752	22.203	826.892	632.944
362.767	22.054	826.983	632.420
363.781	22.139	827.553	633.105
364.796	22.607	826.750	634.119
365.810	22.683	826.331	634.015
366.825	22.867	826.224	634.537
367.840	22.953	825.462	634.204
368.854	22.997	825.039	633.984
369.869	22.621	824.664	632.289
370.883	22.619	823.352	631.220
371.898	22.633	822.677	630.698
372.913	22.792	822.021	630.708
373.927	22.757	821.994	630.506
374.942	22.686	821.220	629.603
375.956	22.597	820.621	628.772
376.971	22.820	820.197	629.184
377.986	22.984	819.676	629.313
379.000	23.073	819.360	629.332
380.015	23.184	819.126	629.493
381.029	23.171	818.098	628.601
382.044	23.070	817.340	627.603
383.059	22.971	817.019	626.948
384.073	23.021	816.620	626.765
385.088	22.957	815.794	625.849
386.102	22.718	814.865	624.236
387.117	22.424	814.011	622.487
388.132	22.447	813.503	622.123
389.146	22.371	813.441	621.755
390.161	22.436	813.036	621.619
391.175	22.569	813.099	622.083
392.190	22.935	812.240	622.657
393.205	22.707	811.911	621.548
394.219	22.508	811.711	620.637
395.234	22.519	810.756	619.893
396.248	22.402	810.253	619.042
397.263	22.292	809.417	617.963
398.278	22.257	808.702	617.237
399.292	22.080	808.644	616.520
400.307	21.879	808.557	615.694
401.321	22.089	807.707	615.727
402.336	22.198	807.309	615.752
403.350	22.263	807.287	615.908
404.365	22.599	806.710	616.589
405.380	22.671	806.749	616.814
406.394	22.888	806.301	617.175
407.409	23.177	805.746	617.705
408.423	23.318	805.351	617.838
409.438	23.309	805.144	617.596
410.453	23.294	804.877	617.282
411.467	23.501	804.053	617.319
412.482	23.477	803.399	616.678
413.496	23.343	803.530	616.256
414.511	23.498	802.893	616.255
415.526	23.533	802.798	616.246
416.540	23.480	802.362	615.673
417.555	23.346	801.635	614.598
418.569	23.214	801.320	613.841
419.584	23.364	800.452	613.644
420.599	23.379	799.921	613.234
421.613	163.488	1370.544	1797.369
422.628	142.018	1453.683	1797.431
