DTS Sentinel unit serial number:	SN413079Multiplexer serial number:	ORYXHardware model number:	OX4-SRSoftware version number:	ORYX F/W v4.00 Oryx Data Collector v3.7.2.0data status	okinstallation	princeton_trtdifferential loss correction	single-endedforward channel	channel 3reverse channel	N/Adate	2019/09/18time	00:20:35forward acquisition time	60.00reverse acquisition time	0.00gamma	496.2192k internal	0.2345k external	0.2345temperature offset calibration	0.9950default loss term (dB/km)	0.3790temperature slope calibration	1.0000multiplexer offset coefficient	1.0000multiplexer slope coefficient	1.0000fibre end	0.00T internal ref (°C)	23.64T ext. ref 1 (°C)	0.17T ext. ref 2 (°C)	17.20length (m)	temperature (°C)	Stokes	anti-Stokes-747.200	-200.000	0.004	-0.048
-746.185	800.000	-0.135	-0.413
-745.171	-117.724	0.183	0.033
-744.156	-200.000	0.018	-0.115
-743.142	120.448	0.065	-0.081
-742.127	281.288	0.081	0.145
-741.112	-25.176	0.113	-0.067
-740.098	-0.262	0.157	-0.112
-739.083	192.932	0.162	-0.245
-738.069	588.299	-0.123	0.303
-737.054	800.000	-0.043	0.163
-736.039	90.174	-0.260	0.290
-735.025	87.502	0.153	-0.169
-734.010	-200.000	-0.042	-0.458
-732.996	-97.741	0.072	-0.019
-731.981	-64.665	-0.359	-0.146
-730.966	-61.045	-0.132	0.056
-729.952	-200.000	-0.003	0.223
-728.937	781.802	0.023	0.063
-727.923	9.939	-0.248	0.188
-726.908	-73.595	-0.314	-0.114
-725.894	-132.052	-0.377	0.049
-724.879	-36.374	-0.326	0.176
-723.864	-78.041	-0.371	-0.128
-722.850	-141.723	0.100	0.010
-721.835	800.000	0.020	0.070
-720.821	-200.000	-0.068	-0.298
-719.806	557.013	0.040	-0.096
-718.791	-33.147	-0.260	-0.144
-717.777	87.828	0.095	-0.105
-716.762	-137.081	-0.218	0.025
-715.748	19.018	-0.198	0.158
-714.733	-200.000	0.007	0.188
-713.718	-47.519	-0.113	-0.055
-712.704	-200.000	0.045	-0.200
-711.689	-43.264	-0.327	-0.165
-710.675	800.000	0.010	-0.035
-709.660	484.261	0.081	-0.185
-708.645	-200.000	0.015	-0.113
-707.631	-60.090	0.243	0.103
-706.616	289.073	-0.107	-0.193
-705.602	-200.000	0.012	-0.076
-704.587	-164.618	0.356	0.016
-703.572	-121.711	0.040	0.007
-702.558	-200.000	-0.031	0.231
-701.543	-44.974	0.307	0.153
-700.529	800.000	0.017	-0.051
-699.514	80.234	-0.021	-0.022
-698.499	473.400	-0.040	0.091
-697.485	169.047	0.082	0.117
-696.470	-93.328	-0.194	0.054
-695.456	78.108	-0.152	0.162
-694.441	3.204	-0.223	-0.162
-693.426	800.000	-0.136	-0.462
-692.412	-128.406	0.081	0.012
-691.397	-141.541	-0.305	-0.031
-690.383	-120.569	-0.280	0.047
-689.368	800.000	-0.014	-0.040
-688.354	-85.092	0.100	-0.031
-687.339	73.790	0.168	0.176
-686.324	439.615	-0.099	-0.217
-685.310	393.026	0.098	0.204
-684.295	72.888	-0.101	-0.106
-683.281	124.980	0.158	-0.199
-682.266	-68.712	-0.351	0.135
-681.251	105.967	0.096	0.114
-680.237	263.569	0.158	0.273
-679.222	-106.989	0.112	-0.025
-678.208	-200.000	0.333	0.001
-677.193	800.000	0.093	0.356
-676.178	-200.000	-0.025	0.256
-675.164	-39.291	0.087	0.046
-674.149	-200.000	-0.008	-0.095
-673.135	-109.620	0.205	-0.043
-672.120	800.000	0.067	-0.200
-671.105	-28.776	0.204	0.117
-670.091	120.920	0.122	-0.152
-669.076	-41.468	-0.211	-0.108
-668.062	289.636	-0.020	-0.035
-667.047	-131.623	0.221	0.029
-666.032	-200.000	-0.019	0.096
-665.018	-91.303	0.225	-0.064
-664.003	-90.457	0.136	-0.039
-662.989	-28.048	-0.313	-0.180
-661.974	6.128	0.209	-0.155
-660.959	-68.376	-0.263	-0.102
-659.945	800.000	0.081	-0.272
-658.930	-200.000	0.054	-0.263
-657.916	-200.000	0.000	0.282
-656.901	101.247	-0.164	-0.191
-655.886	-177.356	-0.201	-0.005
-654.872	331.419	0.080	-0.155
-653.857	488.546	0.011	-0.024
-652.843	-113.286	0.051	-0.010
-651.828	-83.109	0.164	0.053
-650.814	-200.000	-0.049	-0.251
-649.799	-20.607	0.232	-0.142
-648.784	-200.000	0.007	-0.180
-647.770	-200.000	-0.022	-0.103
-646.755	191.313	0.128	-0.192
-645.741	-200.000	0.008	0.200
-644.726	-159.241	-0.115	0.006
-643.711	414.916	-0.029	0.062
-642.697	13.180	0.222	0.171
-641.682	-74.997	-0.191	0.068
-640.668	58.719	0.291	0.284
-639.653	-200.000	0.016	-0.109
-638.638	16.219	0.231	-0.181
-637.624	474.691	0.054	-0.122
-636.609	484.310	0.075	-0.170
-635.595	292.929	-0.131	-0.238
-634.580	102.713	0.094	-0.109
-633.565	-45.574	0.211	-0.104
-632.551	-108.203	-0.179	-0.039
-631.536	246.991	-0.117	0.196
-630.522	69.702	0.071	0.072
-629.507	96.309	-0.311	0.354
-628.492	113.993	-0.210	-0.255
-627.478	-83.050	-0.294	-0.094
-626.463	74.010	-0.212	0.221
-625.449	-93.691	0.374	0.103
-624.434	800.000	0.043	-0.185
-623.419	-109.430	-0.151	-0.032
-622.405	-133.060	0.191	0.024
-621.390	-29.036	0.467	0.267
-620.376	-200.000	0.022	-0.176
-619.361	268.073	0.073	-0.127
-618.346	-63.277	-0.195	-0.080
-617.332	-200.000	0.033	0.182
-616.317	-200.000	0.025	-0.205
-615.303	52.282	0.205	0.195
-614.288	-200.000	-0.009	-0.264
-613.273	246.047	0.098	-0.164
-612.259	269.511	0.173	-0.303
-611.244	800.000	0.055	-0.154
-610.230	537.345	-0.148	-0.350
-609.215	800.000	-0.073	-0.268
-608.201	-83.040	-0.188	-0.060
-607.186	-36.713	0.297	-0.159
-606.171	78.419	-0.121	0.128
-605.157	53.383	-0.193	-0.184
-604.142	-122.082	-0.443	0.072
-603.128	-85.568	-0.201	0.062
-602.113	800.000	-0.020	0.057
-601.098	772.471	0.052	0.141
-600.084	800.000	0.029	0.088
-599.069	-93.763	-0.542	0.149
-598.055	-200.000	-0.022	-0.176
-597.040	55.304	0.137	0.132
-596.025	-49.466	-0.090	0.043
-595.011	-200.000	-0.020	0.167
-593.996	-32.870	0.261	-0.144
-592.982	470.979	-0.117	-0.261
-591.967	269.774	-0.053	-0.092
-590.952	60.989	-0.210	0.207
-589.938	-200.000	-0.004	0.120
-588.923	800.000	-0.073	0.287
-587.909	-200.000	-0.030	0.146
-586.894	-200.000	0.058	0.313
-585.879	-94.586	-0.219	0.059
-584.865	41.922	0.164	-0.148
-583.850	-29.775	0.162	-0.092
-582.836	-200.000	0.004	0.134
-581.821	702.288	-0.135	-0.354
-580.806	-69.981	-0.298	-0.113
-579.792	-168.747	0.199	0.007
-578.777	23.356	-0.325	-0.265
-577.763	342.961	-0.052	-0.101
-576.748	-200.000	0.030	-0.303
-575.733	-34.239	0.028	-0.015
-574.719	589.017	0.151	-0.370
-573.704	249.752	0.141	-0.237
-572.690	-123.467	-0.355	0.056
-571.675	765.655	0.052	0.141
-570.661	-118.664	0.457	-0.080
-569.646	800.000	-0.020	0.076
-568.631	20.790	-0.037	0.030
-567.617	-105.907	-0.338	-0.076
-566.602	292.421	-0.128	-0.233
-565.588	70.510	-0.158	0.163
-564.573	-9.306	0.305	-0.202
-563.558	467.536	-0.018	0.041
-562.544	-131.811	-0.158	-0.021
-561.529	51.106	-0.207	0.195
-560.515	-112.994	-0.069	0.014
-559.500	10.024	0.051	0.038
-558.485	132.082	0.101	-0.129
-557.471	-9.193	-0.177	0.118
-556.456	127.558	0.169	-0.213
-555.442	800.000	-0.022	-0.066
-554.427	80.673	-0.098	0.105
-553.412	-34.350	0.135	-0.073
-552.398	-140.280	0.302	0.031
-551.383	-3.092	-0.171	-0.119
-550.369	327.195	0.101	0.193
-549.354	-200.000	-0.009	0.338
-548.339	2.042	0.213	-0.153
-547.325	-189.916	-0.180	-0.002
-546.310	370.193	-0.076	-0.152
-545.296	800.000	0.027	-0.078
-544.281	-74.717	-0.259	0.093
-543.266	-69.276	0.165	-0.063
-542.252	-126.635	-0.273	-0.040
-541.237	64.637	-0.189	0.190
-540.223	-12.364	-0.080	0.052
-539.208	300.041	0.184	-0.336
-538.193	-73.269	-0.138	-0.050
-537.179	-125.869	0.237	-0.036
-536.164	-92.517	-0.324	0.090
-535.150	153.889	0.179	0.244
-534.135	-128.548	0.061	0.009
-533.121	43.716	0.096	-0.087
-532.106	-31.155	-0.047	0.026
-531.091	800.000	0.013	0.051
-530.077	-111.877	-0.143	-0.029
-529.062	-4.695	-0.051	-0.035
-528.048	88.662	0.134	0.148
-527.033	10.925	0.249	0.189
-526.018	76.274	0.158	0.166
-525.004	-107.263	0.060	-0.013
-523.989	-200.000	-0.006	0.232
-522.975	84.866	-0.197	-0.214
-521.960	-200.000	-0.018	-0.181
-520.945	800.000	-0.189	0.540
-519.931	-76.014	-0.297	0.104
-518.916	95.906	-0.208	-0.236
-517.902	-200.000	-0.015	0.284
-516.887	-114.201	0.313	0.060
-515.872	-200.000	-0.013	-0.202
-514.858	390.566	0.122	-0.251
-513.843	-15.706	-0.157	-0.099
-512.829	800.000	0.051	0.171
-511.814	395.402	0.223	0.460
-510.799	800.000	-0.050	0.167
-509.785	88.883	0.070	0.078
-508.770	800.000	0.056	0.234
-507.756	-76.437	0.146	-0.051
-506.741	800.000	0.081	-0.283
-505.726	-99.796	0.212	0.053
-504.712	16.044	-0.147	-0.115
-503.697	73.702	-0.315	-0.327
-502.683	27.384	-0.134	0.112
-501.668	79.724	-0.043	0.046
-500.653	17.644	-0.077	-0.061
-499.639	674.651	-0.076	-0.197
-498.624	-76.304	0.126	-0.044
-497.610	800.000	0.053	0.170
-496.595	163.169	0.179	0.250
-495.581	-200.000	-0.026	-0.387
-494.566	66.521	-0.207	0.209
-493.551	-200.000	0.000	0.083
-492.537	41.087	-0.224	-0.200
-491.522	61.757	0.160	-0.158
-490.508	-102.291	0.148	-0.035
-489.493	108.772	-0.103	0.122
-488.478	800.000	-0.042	0.170
-487.464	-74.009	-0.267	-0.096
-486.449	-150.217	0.216	0.017
-485.435	-28.808	-0.098	-0.056
-484.420	-50.404	0.220	0.103
-483.405	114.224	0.150	0.181
-482.391	-100.419	0.128	0.032
-481.376	-200.000	-0.007	0.218
-480.362	175.615	-0.180	-0.259
-479.347	-47.632	0.234	-0.112
-478.332	800.000	-0.059	0.203
-477.318	-154.537	0.115	-0.008
-476.303	-30.103	-0.071	0.040
-475.289	-200.000	-0.019	0.098
-474.274	108.580	-0.171	-0.202
-473.259	800.000	0.026	-0.107
-472.245	16.857	-0.140	-0.109
-471.230	-200.000	-0.002	-0.166
-470.216	-200.000	-0.199	0.001
-469.201	-54.337	0.088	0.039
-468.186	-200.000	0.003	-0.189
-467.172	18.547	0.145	0.115
-466.157	-89.973	-0.134	-0.039
-465.143	125.937	0.181	-0.226
-464.128	800.000	-0.025	-0.084
-463.113	-30.370	0.258	0.145
-462.099	63.768	-0.116	-0.115
-461.084	51.709	-0.155	0.146
-460.070	-200.000	-0.238	0.001
-459.055	-45.532	-0.042	-0.021
-458.040	-33.103	-0.045	0.025
-457.026	593.305	-0.115	-0.281
-456.011	695.520	-0.026	-0.068
-454.997	-200.000	0.021	-0.140
-453.982	-112.798	-0.139	-0.027
-452.968	-79.613	0.115	-0.038
-451.953	800.000	0.080	-0.229
-450.938	751.648	-0.049	0.131
-449.924	186.577	0.106	-0.157
-448.909	162.923	0.203	-0.282
-447.895	316.609	0.074	-0.139
-446.880	-200.000	0.025	0.172
-445.865	182.646	-0.127	-0.185
-444.851	165.834	-0.171	-0.239
-443.836	800.000	0.128	-0.392
-442.822	-45.917	-0.164	0.080
-441.807	-89.288	0.155	0.045
-440.792	-182.874	-0.269	-0.005
-439.778	4.296	-0.234	-0.170
-438.763	670.571	-0.096	0.247
-437.749	107.781	0.180	-0.211
-436.734	26.964	0.128	0.106
-435.719	-144.240	0.292	-0.027
-434.705	800.000	0.096	-0.305
-433.690	-189.590	0.202	-0.002
-432.676	-95.464	0.105	-0.028
-431.661	301.729	0.046	0.085
-430.646	-57.838	0.366	0.158
-429.632	19.295	-0.046	-0.036
-428.617	-200.000	0.000	0.210
-427.603	98.840	-0.062	-0.070
-426.588	-200.000	0.030	0.157
-425.573	219.280	-0.158	0.249
-424.559	757.893	0.055	0.146
-423.544	-71.806	-0.248	-0.091
-422.530	183.805	-0.087	0.127
-421.515	-200.000	0.030	0.170
-420.500	-11.754	-0.103	-0.066
-419.486	60.678	-0.217	0.213
-418.471	-118.338	0.335	-0.059
-417.457	-200.000	-0.031	-0.294
-416.442	607.232	0.047	0.117
-415.428	800.000	0.048	0.144
-414.413	-150.248	0.217	0.017
-413.398	-95.522	-0.481	0.127
-412.384	-56.994	-0.165	0.072
-411.369	-57.285	-0.147	0.064
-410.355	117.003	-0.014	-0.017
-409.340	82.047	0.249	-0.266
-408.325	-81.856	-0.236	0.076
-407.311	-16.358	0.104	0.065
-406.296	197.242	-0.113	-0.170
-405.282	-32.243	0.062	0.034
-404.267	-158.619	0.168	-0.010
-403.252	159.921	0.103	0.142
-402.238	-17.858	0.156	0.097
-401.223	-200.000	0.033	-0.286
-400.209	714.345	0.034	0.089
-399.194	98.571	-0.039	-0.044
-398.179	-141.673	0.212	0.021
-397.165	-200.000	0.007	-0.233
-396.150	-93.474	0.396	0.108
-395.136	117.037	-0.086	-0.104
-394.121	-98.452	-0.187	-0.047
-393.106	-60.674	-0.258	-0.108
-392.092	115.191	0.118	-0.143
-391.077	90.215	-0.191	0.211
-390.063	-64.128	-0.091	-0.037
-389.048	-41.731	0.228	0.116
-388.033	-200.000	0.001	-0.395
-387.019	67.087	0.043	0.044
-386.004	428.794	-0.032	0.068
-384.990	11.021	0.196	0.147
-383.975	331.016	0.097	-0.184
-382.960	-21.632	-0.440	-0.265
-381.946	108.561	-0.018	0.021
-380.931	800.000	-0.076	0.278
-379.917	-59.130	-0.257	0.109
-378.902	424.585	0.067	-0.142
-377.888	800.000	-0.049	0.196
-376.873	104.323	-0.110	0.128
-375.858	190.456	-0.057	-0.084
-374.844	-200.000	0.013	0.420
-373.829	-37.659	-0.329	0.173
-372.815	54.459	0.331	0.314
-371.800	511.566	-0.020	0.045
-370.785	-6.452	0.258	0.174
-369.771	-200.000	0.030	-0.208
-368.756	-200.000	0.055	-0.253
-367.742	-9.791	0.103	0.067
-366.727	-200.000	0.068	-0.383
-365.712	-200.000	-0.007	-0.259
-364.698	252.107	0.111	0.186
-363.683	-137.494	-0.316	-0.035
-362.669	220.164	-0.060	-0.095
-361.654	-200.000	-0.020	0.142
-360.639	89.001	0.270	0.296
-359.625	134.335	-0.091	-0.116
-358.610	96.287	-0.119	0.134
-357.596	800.000	0.100	-0.376
-356.581	21.174	0.219	-0.175
-355.566	-32.488	-0.061	0.033
-354.552	-200.000	-0.022	0.107
-353.537	253.802	0.161	0.271
-352.523	-87.414	-0.258	0.077
-351.508	-129.995	-0.299	-0.040
-350.493	106.569	0.052	-0.060
-349.479	-200.000	0.001	0.178
-348.464	23.443	0.267	0.217
-347.450	-87.662	-0.180	0.053
-346.435	-73.067	0.193	0.070
-345.420	-80.805	-0.102	0.033
-344.406	218.701	-0.264	0.415
-343.391	435.563	0.221	-0.473
-342.377	148.970	0.091	-0.121
-341.362	-200.000	0.042	-0.191
-340.348	-144.389	-0.271	0.025
-339.333	91.814	0.249	-0.276
-338.318	553.347	0.154	-0.364
-337.304	275.548	-0.166	-0.289
-336.289	-162.320	-0.273	0.013
-335.275	-200.000	0.038	0.336
-334.260	128.109	-0.095	0.119
-333.245	-101.861	-0.057	0.013
-332.231	-182.024	-0.116	-0.002
-331.216	-200.000	-0.030	0.336
-330.202	-84.289	0.172	-0.053
-329.187	-200.000	0.007	-0.068
-328.172	-123.140	-0.301	0.048
-327.158	16.660	0.167	-0.130
-326.143	313.367	-0.051	0.094
-325.129	800.000	-0.046	-0.141
-324.114	-74.167	0.113	0.040
-323.099	474.546	0.093	-0.205
-322.085	-58.620	-0.486	0.207
-321.070	583.985	0.135	-0.326
-320.056	-200.000	0.004	-0.177
-319.041	-33.534	0.180	-0.098
-318.026	20.078	-0.174	-0.138
-317.012	-36.816	0.163	-0.086
-315.997	-53.668	-0.182	-0.082
-314.983	-200.000	-0.011	-0.356
-313.968	7.687	-0.317	-0.233
-312.953	-112.886	0.283	-0.055
-311.939	17.454	-0.192	0.150
-310.924	-30.812	0.083	-0.046
-309.910	-75.784	0.248	0.086
-308.895	117.719	-0.191	-0.231
-307.880	-108.581	0.027	0.006
-306.866	146.745	0.220	0.290
-305.851	0.742	0.041	-0.029
-304.837	292.699	-0.091	0.162
-303.822	-79.545	-0.117	0.039
-302.807	-52.229	-0.203	0.093
-301.793	-137.586	0.208	-0.023
-300.778	179.884	0.209	-0.302
-299.764	377.923	0.070	-0.141
-298.749	800.000	0.008	0.028
-297.735	342.261	-0.050	-0.096
-296.720	-49.650	0.196	0.092
-295.705	-2.835	-0.229	-0.157
-294.691	-151.800	0.282	-0.020
-293.676	264.777	-0.142	0.244
-292.662	-47.011	-0.210	0.101
-291.647	-85.697	0.142	-0.043
-290.632	194.479	-0.232	0.346
-289.618	62.884	-0.197	0.193
-288.603	-109.116	0.548	0.115
-287.589	114.663	-0.100	-0.120
-286.574	-111.389	-0.162	-0.032
-285.559	-9.900	-0.108	0.071
-284.545	-200.000	0.014	-0.094
-283.530	-90.284	0.056	0.016
-282.516	-93.148	-0.187	-0.051
-281.501	-200.000	0.039	0.347
-280.486	-102.209	-0.194	0.046
-279.472	46.382	0.187	0.171
-278.457	266.314	-0.043	0.073
-277.443	-40.796	-0.253	0.129
-276.428	87.282	0.070	0.076
-275.413	-15.974	-0.532	-0.332
-274.399	-200.000	0.033	-0.309
-273.384	-97.474	0.200	0.051
-272.370	-22.903	0.107	-0.064
-271.355	228.700	0.133	0.213
-270.340	-64.881	-0.422	-0.168
-269.326	-66.971	-0.129	-0.050
-268.311	-200.000	-0.014	-0.248
-267.297	306.478	0.184	0.336
-266.282	377.787	-0.066	0.133
-265.267	163.704	0.121	0.167
-264.253	197.802	0.130	0.195
-263.238	-67.748	0.230	-0.088
-262.224	-80.221	-0.244	-0.080
-261.209	290.265	0.091	0.162
-260.195	339.847	-0.055	0.105
-259.180	-48.875	0.361	-0.170
-258.165	-18.356	0.135	0.083
-257.151	-64.093	0.166	0.066
-256.136	73.555	-0.067	0.068
-255.122	-200.000	-0.002	0.059
-254.107	-200.000	-0.059	0.306
-253.092	-151.224	0.211	-0.016
-252.078	-120.722	0.097	0.016
-251.063	-32.701	0.135	0.074
-250.049	2.625	-0.177	0.126
-249.034	162.556	0.105	0.145
-248.019	136.160	-0.164	-0.210
-247.005	442.498	0.147	-0.316
-245.990	-11.447	0.096	-0.062
-244.976	138.274	0.112	0.144
-243.961	-200.000	0.029	0.196
-242.946	-200.000	0.001	-0.312
-241.932	-74.529	0.053	0.019
-240.917	333.077	0.053	-0.100
-239.903	-200.000	-0.038	0.228
-238.888	27.901	0.059	-0.049
-237.873	-200.000	-0.036	0.292
-236.859	-173.184	0.635	-0.019
-235.844	-121.397	0.055	-0.009
-234.830	107.159	0.163	0.190
-233.815	-48.169	0.074	0.035
-232.800	19.705	0.188	0.148
-231.786	469.957	-0.241	0.532
-230.771	800.000	-0.026	0.097
-229.757	209.112	0.090	0.138
-228.742	800.000	0.069	-0.234
-227.727	597.912	0.082	-0.198
-226.713	-127.200	0.253	-0.036
-225.698	83.420	0.062	-0.066
-224.684	-101.877	-0.301	0.071
-223.669	720.519	-0.003	-0.008
-222.655	232.030	-0.083	0.133
-221.640	39.915	0.220	0.194
-220.625	380.530	-0.046	-0.092
-219.611	269.448	-0.242	0.416
-218.596	-200.000	0.094	0.418
-217.582	-194.571	-0.348	-0.003
-216.567	-133.250	-0.110	-0.014
-215.552	-174.299	-0.074	-0.002
-214.538	11.899	0.120	-0.091
-213.523	248.631	-0.090	-0.150
-212.509	-200.000	0.009	0.045
-211.494	-200.000	-0.019	0.315
-210.479	69.482	0.246	0.248
-209.465	-53.720	-0.370	-0.166
-208.450	-200.000	-0.226	-0.001
-207.436	-200.000	0.073	0.401
-206.421	-79.885	0.125	-0.041
-205.406	49.093	0.102	0.094
-204.392	22.167	-0.072	0.058
-203.377	-200.000	-0.042	-0.241
-202.363	-200.000	0.005	-0.108
-201.348	-62.469	0.167	0.068
-200.333	-143.340	-0.125	0.012
-199.319	-14.181	-0.212	0.134
-198.304	-84.668	-0.040	0.012
-197.290	540.851	-0.173	0.403
-196.275	-200.000	0.006	0.160
-195.260	-200.000	-0.056	-0.645
-194.246	800.000	0.087	-0.338
-193.231	221.247	-0.167	-0.262
-192.217	-94.288	-0.019	-0.005
-191.202	-47.212	-0.145	-0.069
-190.187	277.884	-0.135	0.235
-189.173	-66.416	-0.111	-0.043
-188.158	410.999	0.060	-0.124
-187.144	-142.185	0.250	0.024
-186.129	-166.043	-0.212	-0.009
-185.114	800.000	0.046	-0.172
-184.100	485.873	-0.106	-0.236
-183.085	-111.419	0.109	0.022
-182.071	-200.000	0.072	-0.344
-181.056	214.841	0.093	0.144
-180.042	260.340	-0.047	-0.080
-179.027	-189.955	0.232	-0.003
-178.012	182.609	0.130	-0.188
-176.998	205.386	-0.092	0.140
-175.983	-1.673	0.339	0.233
-174.969	71.822	0.145	0.147
-173.954	-122.685	0.260	-0.041
-172.939	-200.000	-0.002	-0.066
-171.925	-175.356	0.141	-0.004
-170.910	13.879	-0.162	0.123
-169.896	-200.000	-0.002	0.220
-168.881	439.188	0.068	0.145
-167.866	28.328	0.135	0.112
-166.852	800.000	-0.064	0.267
-165.837	-200.000	0.057	0.505
-164.823	78.272	0.158	0.165
-163.808	800.000	-0.032	-0.136
-162.793	-85.121	-0.082	-0.025
-161.779	249.734	0.068	0.113
-160.764	75.159	0.261	-0.269
-159.750	449.901	-0.210	0.452
-158.735	-122.544	0.305	-0.048
-157.720	-31.845	0.118	-0.065
-156.706	143.334	0.051	0.067
-155.691	-190.441	0.048	0.001
-154.677	366.725	-0.115	-0.226
-153.662	124.036	-0.144	0.177
-152.647	49.297	0.183	-0.168
-151.633	-91.848	-0.103	-0.029
-150.618	800.000	0.118	-0.367
-149.604	-200.000	0.023	0.272
-148.589	145.833	-0.065	-0.085
-147.574	800.000	0.033	-0.129
-146.560	-106.450	-0.308	0.067
-145.545	27.822	0.034	0.028
-144.531	360.953	-0.053	-0.105
-143.516	289.072	0.110	0.196
-142.502	-67.836	-0.146	0.056
-141.487	-200.000	-0.012	-0.133
-140.472	800.000	0.063	-0.171
-139.458	-89.434	-0.303	-0.087
-138.443	-200.000	-0.027	0.204
-137.429	-40.495	-0.162	-0.082
-136.414	800.000	-0.112	-0.415
-135.399	5.068	0.113	0.081
-134.385	762.489	0.131	-0.348
-133.370	68.245	0.220	-0.220
-132.356	-98.894	0.259	0.064
-131.341	-195.604	-0.238	0.002
-130.326	-200.000	0.028	0.406
-129.312	-154.833	-0.364	-0.024
-128.297	-200.000	-0.064	-0.508
-127.283	512.968	-0.149	-0.339
-126.268	-46.670	-0.339	-0.162
-125.253	45.765	0.188	-0.170
-124.239	-4.758	-0.211	-0.142
-123.224	67.782	-0.289	-0.289
-122.210	66.823	0.287	-0.285
-121.195	-200.000	-0.006	-0.278
-120.180	-129.932	-0.189	-0.025
-119.166	-200.000	0.012	0.169
-118.151	800.000	-0.066	-0.191
-117.137	-72.495	0.114	0.041
-116.122	-200.000	-0.028	0.300
-115.107	464.413	0.067	-0.145
-114.093	-95.671	-0.102	-0.027
-113.078	130.192	0.060	0.075
-112.064	-114.020	-0.224	-0.042
-111.049	-89.388	-0.127	0.036
-110.034	61.630	-0.173	0.168
-109.020	-4.880	-0.300	0.202
-108.005	28.899	-0.343	0.284
-106.991	-8.815	0.195	-0.127
-105.976	-72.224	-0.197	-0.071
-104.962	-200.000	-0.041	0.275
-103.947	-20.556	-0.175	0.105
-102.932	80.643	0.442	0.465
-101.918	-200.000	0.024	0.189
-100.903	-26.139	0.233	-0.133
-99.889	627.799	0.076	0.187
-98.874	77.843	0.347	-0.360
-97.859	-153.349	-0.017	0.001
-96.845	800.000	0.089	-0.268
-95.830	-126.185	0.236	0.035
-94.816	-158.479	-0.296	-0.017
-93.801	11.770	0.220	-0.165
-92.786	-200.000	-0.057	0.255
-91.772	-0.002	-0.215	0.149
-90.757	-200.000	0.035	0.231
-89.743	459.608	0.142	0.307
-88.728	92.811	0.134	0.148
-87.713	154.621	-0.045	0.060
-86.699	-200.000	-0.027	0.197
-85.684	-160.371	-0.081	0.004
-84.670	-118.517	-0.089	-0.015
-83.655	-80.735	0.118	-0.038
-82.640	34.967	-0.110	-0.094
-81.626	-142.936	0.378	0.036
-80.611	140.843	0.070	0.091
-79.597	152.490	-0.236	-0.314
-78.582	102.667	0.179	0.204
-77.567	-200.000	0.013	0.121
-76.553	596.225	0.118	-0.285
-75.538	122.815	-0.109	-0.133
-74.524	-89.046	0.349	0.101
-73.509	800.000	-0.120	-0.370
-72.494	221.549	-0.087	-0.136
-71.480	370.654	0.130	-0.256
-70.465	-200.000	-0.005	0.139
-69.451	-200.000	0.002	0.229
-68.436	-1.147	0.429	-0.296
-67.422	-4.462	-0.416	0.280
-66.407	89.878	-0.223	-0.242
-65.392	-101.933	0.335	-0.079
-64.378	-108.895	-0.189	-0.039
-63.363	-26.022	-0.107	0.061
-62.349	800.000	-0.047	-0.154
-61.334	69.144	-1.079	-1.081
-60.319	60.093	0.715	0.689
-59.305	520.682	-0.550	-1.257
-58.290	-200.000	0.384	1.778
-57.276	172.717	0.814	1.141
-56.261	-200.000	123.961	665.416
-55.246	441.599	1545.394	3293.626
-54.232	147.830	2692.163	3534.412
-53.217	96.853	2160.285	2410.911
-52.203	34.075	1685.585	1430.176
-51.188	26.736	1504.423	1226.938
-50.173	24.749	1481.586	1195.009
-49.159	49.265	1551.429	1420.253
-48.144	46.163	1564.885	1411.259
-47.130	26.809	1513.853	1234.936
-46.115	23.963	1497.939	1202.690
-45.100	23.756	1494.273	1198.304
-44.086	23.681	1493.027	1196.751
-43.071	23.607	1491.401	1194.902
-42.057	23.503	1489.759	1192.841
-41.042	23.577	1488.017	1191.896
-40.027	23.652	1486.570	1191.195
-39.013	23.615	1484.970	1189.618
-37.998	23.602	1484.142	1188.820
-36.984	23.659	1482.888	1188.152
-35.969	23.611	1481.558	1186.718
-34.954	23.567	1479.990	1185.120
-33.940	23.537	1478.904	1184.004
-32.925	23.658	1476.900	1183.155
-31.911	23.676	1475.994	1182.502
-30.896	23.664	1474.481	1181.165
-29.881	23.664	1473.246	1180.126
-28.867	23.727	1471.949	1179.461
-27.852	23.779	1470.058	1178.243
-26.838	23.709	1468.997	1176.885
-25.823	23.712	1467.650	1175.778
-24.809	23.645	1465.527	1173.587
-23.794	23.632	1464.739	1172.825
-22.779	23.756	1462.922	1172.141
-21.765	23.719	1462.308	1171.360
-20.750	23.694	1461.145	1170.216
-19.736	23.682	1460.118	1169.266
-18.721	23.628	1459.002	1167.970
-17.706	23.562	1458.152	1166.809
-16.692	23.646	1456.438	1165.946
-15.677	23.753	1455.437	1165.800
-14.663	23.728	1454.809	1165.086
-13.648	23.625	1453.860	1163.603
-12.633	23.606	1452.900	1162.664
-11.619	23.539	1453.033	1162.283
-10.604	23.644	1451.107	1161.385
-9.590	23.542	1451.124	1160.686
-8.575	23.570	1449.539	1159.559
-7.560	23.615	1448.742	1159.169
-6.546	23.614	1448.051	1158.563
-5.531	23.627	1446.872	1157.655
-4.517	23.686	1445.941	1157.252
-3.502	23.598	1445.165	1156.009
-2.487	23.614	1444.743	1155.730
-1.473	23.724	1443.017	1155.022
-0.458	23.659	1441.750	1153.537
0.556	21.817	1432.024	1141.270
1.571	18.631	1408.349	1101.878
2.586	15.300	1347.265	1033.496
3.600	13.845	1264.032	961.141
4.615	12.791	1221.679	922.955
5.629	11.033	1165.671	871.157
6.644	5.459	1085.543	783.353
7.659	0.949	1049.803	735.622
8.673	0.220	1044.606	728.389
9.688	0.122	1041.370	725.594
10.702	0.137	1040.092	724.714
11.717	0.181	1037.368	722.962
12.731	1.859	1038.891	732.024
13.746	8.155	1047.336	768.317
14.761	14.566	1054.671	804.646
15.775	16.730	1057.075	816.857
16.790	16.507	1056.004	814.881
17.804	15.398	1054.191	808.072
18.819	14.632	1051.407	802.189
19.834	14.144	1050.771	799.290
20.848	13.862	1049.616	796.984
21.863	13.727	1049.439	796.130
22.877	13.429	1048.230	793.716
23.892	13.303	1046.979	792.094
24.907	13.201	1046.247	790.983
25.921	13.147	1046.084	790.531
26.936	13.168	1045.327	789.991
27.950	13.335	1044.187	789.853
28.965	13.328	1043.452	789.196
29.980	13.375	1042.888	788.924
30.994	13.416	1041.885	788.291
32.009	13.404	1041.145	787.602
33.023	13.480	1040.402	787.333
34.038	13.427	1039.528	786.352
35.053	13.400	1038.630	785.474
36.067	13.444	1037.561	784.806
37.082	13.386	1036.776	783.867
38.096	13.368	1036.668	783.629
39.111	13.453	1035.617	783.168
40.126	13.460	1034.405	782.215
41.140	13.359	1033.522	781.002
42.155	13.286	1032.777	780.027
43.169	13.333	1032.018	779.603
44.184	13.220	1030.953	778.200
45.199	13.147	1029.887	776.981
46.213	13.288	1028.686	776.669
47.228	13.172	1028.022	775.553
48.242	13.212	1026.902	774.831
49.257	13.257	1026.293	774.513
50.271	13.541	1024.367	774.318
51.286	13.311	1024.051	772.934
52.301	13.315	1023.030	772.116
53.315	13.326	1022.614	771.783
54.330	13.300	1021.769	770.955
55.344	13.288	1020.919	770.192
56.359	13.386	1019.882	769.799
57.374	13.220	1019.202	768.446
58.388	13.267	1018.149	767.799
59.403	13.164	1017.470	766.744
60.417	13.308	1016.228	766.405
61.432	13.220	1015.852	765.646
62.447	13.215	1014.982	764.899
63.461	13.160	1013.961	763.809
64.476	13.144	1013.235	763.121
65.490	13.056	1012.501	762.092
66.505	13.180	1011.622	761.936
67.520	13.238	1010.451	761.256
68.534	13.277	1009.926	760.972
69.549	13.280	1009.451	760.560
70.563	13.159	1009.019	759.613
71.578	13.085	1008.399	758.736
72.593	13.120	1007.610	758.236
73.607	13.128	1006.088	757.061
74.622	13.179	1005.117	756.497
75.636	13.099	1004.376	755.508
76.651	13.124	1003.677	755.028
77.666	13.052	1003.150	754.236
78.680	13.057	1002.593	753.772
79.695	13.080	1001.973	753.347
80.709	13.306	1000.722	753.369
81.724	13.256	1000.333	752.778
82.739	13.241	999.457	751.988
83.753	13.266	998.786	751.526
84.768	13.324	998.258	751.327
85.782	13.440	996.934	750.792
86.797	13.454	996.458	750.428
87.812	13.448	995.528	749.635
88.826	13.232	995.042	748.224
89.841	13.273	993.923	747.506
90.855	13.402	993.336	747.578
91.870	13.371	992.661	746.863
92.884	13.497	991.468	746.470
93.899	13.436	991.083	745.838
94.914	13.554	990.096	745.561
95.928	13.422	989.726	744.623
96.943	13.495	988.981	744.324
97.957	13.572	987.693	743.633
98.972	13.426	987.300	742.617
99.987	13.424	986.391	741.861
101.001	13.462	985.645	741.405
102.016	13.390	984.847	740.413
103.030	13.439	983.888	739.847
104.045	13.502	983.388	739.687
105.060	13.408	982.244	738.343
106.074	13.388	981.462	737.602
107.089	13.410	980.177	736.668
108.103	13.337	979.794	735.987
109.118	13.258	979.083	735.039
110.133	13.231	977.812	733.901
111.147	13.302	977.468	733.894
112.162	13.353	976.402	733.251
113.176	13.278	975.458	732.147
114.191	13.354	974.256	731.515
115.206	13.460	973.916	731.665
116.220	13.242	973.254	730.140
117.235	13.306	972.346	729.677
118.249	13.319	971.606	729.111
119.264	13.321	970.707	728.381
120.279	13.409	969.220	727.589
121.293	13.336	968.921	726.979
122.308	13.290	968.113	726.108
123.322	13.200	967.409	725.121
124.337	13.306	966.102	724.541
125.352	13.256	965.130	723.531
126.366	13.304	964.150	722.941
127.381	13.306	963.006	722.029
128.395	13.236	961.989	720.894
129.410	13.168	961.229	719.967
130.424	13.322	960.080	719.710
131.439	13.236	959.413	718.776
132.454	13.397	958.179	718.487
133.468	13.413	957.819	718.221
134.483	13.457	957.044	717.767
135.497	13.351	956.870	717.112
136.512	13.300	955.759	715.999
137.527	13.285	954.937	715.255
138.541	13.322	954.299	714.872
139.556	13.365	953.692	714.538
140.570	13.352	953.156	714.017
141.585	13.462	951.804	713.417
142.600	13.529	951.277	713.247
143.614	13.374	951.163	712.429
144.629	13.661	949.936	712.685
145.643	13.623	948.846	711.638
146.658	13.608	948.706	711.406
147.673	13.427	947.601	709.739
148.687	13.557	946.401	709.335
149.702	13.424	946.171	708.528
150.716	13.466	944.752	707.584
151.731	13.373	944.075	706.616
152.746	13.378	943.746	706.329
153.760	13.507	942.768	706.087
154.775	13.504	941.683	705.198
155.789	13.533	941.260	704.942
156.804	13.689	940.404	704.902
157.819	13.698	939.524	704.218
158.833	13.575	939.545	703.647
159.848	13.767	938.239	703.421
160.862	13.742	937.638	702.802
161.877	13.707	936.974	702.097
162.892	13.670	936.055	701.191
163.906	13.698	935.129	700.551
164.921	13.610	934.296	699.496
165.935	13.660	933.416	698.985
166.950	13.599	932.659	698.099
167.964	13.679	931.347	697.390
168.979	13.641	930.646	696.643
169.994	13.609	929.728	695.760
171.008	13.668	928.906	695.333
172.023	13.824	927.724	695.039
173.037	13.727	927.600	694.477
174.052	13.710	926.880	693.806
175.067	13.834	925.924	693.547
176.081	13.713	925.033	692.313
177.096	13.586	924.443	691.283
178.110	13.570	923.608	690.528
179.125	13.668	923.061	690.469
180.140	13.679	922.095	689.728
181.154	13.730	921.451	689.398
182.169	13.797	920.854	689.169
183.183	13.847	920.099	688.752
184.198	13.867	919.468	688.300
185.213	13.913	918.944	688.037
186.227	13.940	918.152	687.497
187.242	13.965	917.969	687.401
188.256	13.944	917.000	686.528
189.271	13.866	916.435	685.721
190.286	13.935	915.500	685.246
191.300	14.051	914.236	684.719
192.315	13.769	914.158	683.436
193.329	13.730	913.657	682.843
194.344	13.740	913.017	682.342
195.359	13.865	912.405	682.341
196.373	13.784	911.868	681.547
197.388	13.881	911.257	681.426
198.402	14.035	910.390	681.351
199.417	14.054	910.107	681.154
200.432	14.133	909.752	681.155
201.446	14.313	909.053	681.307
202.461	14.156	908.577	680.246
203.475	14.249	908.535	680.535
204.490	14.230	907.632	679.722
205.504	14.064	906.826	678.381
206.519	14.236	905.914	678.341
207.534	14.023	905.285	676.943
208.548	14.179	904.267	676.753
209.563	14.235	903.583	676.408
210.577	14.039	903.191	675.260
211.592	14.107	902.314	674.819
212.607	14.162	902.625	675.218
213.621	14.290	901.442	674.789
214.636	14.470	900.609	674.838
215.650	14.292	900.070	673.653
216.665	14.301	899.379	673.112
217.680	14.324	898.971	672.839
218.694	14.525	897.996	672.864
219.709	14.401	897.874	672.210
220.723	14.366	897.275	671.563
221.738	14.390	896.594	671.090
222.753	14.287	896.291	670.390
223.767	14.427	894.995	669.924
224.782	14.361	894.657	669.347
225.796	14.544	893.213	668.937
226.811	14.647	892.832	669.007
227.826	14.527	892.124	667.939
228.840	14.539	891.478	667.443
229.855	14.458	891.252	666.890
230.869	14.411	890.523	666.097
231.884	14.587	889.356	665.871
232.899	14.558	888.707	665.207
233.913	14.522	887.962	664.451
234.928	14.481	887.472	663.858
235.942	14.541	886.985	663.675
236.957	14.505	886.271	662.941
237.972	14.615	885.498	662.741
238.986	14.461	885.260	661.892
240.001	14.625	884.119	661.631
241.015	14.602	883.734	661.190
242.030	14.581	883.137	660.603
243.045	14.593	882.451	660.080
244.059	14.624	881.619	659.520
245.074	14.706	881.060	659.370
246.088	14.783	880.276	659.027
247.103	14.680	880.056	658.398
248.117	14.650	879.465	657.780
249.132	14.759	878.564	657.475
250.147	14.777	878.429	657.389
251.161	14.910	877.356	657.051
252.176	15.024	876.856	657.066
253.190	14.981	876.287	656.411
254.205	15.094	875.817	656.443
255.220	15.016	874.796	655.315
256.234	15.122	874.133	655.174
257.249	15.074	874.014	654.843
258.263	15.013	873.342	654.040
259.278	14.942	872.937	653.401
260.293	15.042	871.993	653.028
261.307	14.993	871.489	652.403
262.322	15.119	870.958	652.439
263.336	15.155	870.382	652.087
264.351	15.276	869.442	651.796
265.366	15.250	869.236	651.482
266.380	15.235	868.556	650.857
267.395	15.204	867.998	650.261
268.409	15.245	866.822	649.484
269.424	15.191	866.509	648.980
270.439	15.125	866.059	648.331
271.453	15.139	864.938	647.488
272.468	15.243	864.291	647.349
273.482	15.227	863.712	646.798
274.497	15.102	863.552	646.136
275.512	15.205	862.459	645.658
276.526	15.243	861.660	645.150
277.541	15.396	861.049	645.224
278.555	15.131	860.969	644.090
279.570	15.288	860.174	644.038
280.585	15.404	859.604	644.001
281.599	15.346	858.732	643.067
282.614	15.483	858.227	643.158
283.628	15.412	857.664	642.408
284.643	15.499	857.013	642.194
285.657	15.545	856.420	641.871
286.672	15.415	856.177	641.134
287.687	15.493	855.768	641.069
288.701	15.423	855.341	640.426
289.716	15.367	854.942	639.858
290.730	15.493	853.963	639.547
291.745	15.614	853.139	639.334
292.760	15.525	852.125	638.180
293.774	15.584	851.915	638.189
294.789	15.677	851.472	638.154
295.803	15.645	850.556	637.292
296.818	15.501	850.237	636.448
297.833	15.665	849.446	636.420
298.847	15.606	848.895	635.727
299.862	15.574	848.153	634.996
300.876	15.594	847.509	634.535
301.891	15.679	846.698	634.192
302.906	15.758	846.094	633.979
303.920	15.848	845.544	633.853
304.935	15.935	844.905	633.643
305.949	15.963	844.140	633.118
306.964	15.873	843.771	632.449
307.979	15.899	843.231	632.085
308.993	15.838	842.746	631.436
310.008	15.811	842.271	630.925
311.022	15.883	841.446	630.520
312.037	15.904	841.035	630.236
313.052	16.008	840.005	629.794
314.066	15.968	839.834	629.461
315.081	15.962	838.845	628.644
316.095	15.884	838.969	628.388
317.110	15.841	838.465	627.796
318.125	15.714	837.934	626.868
319.139	15.924	837.115	626.983
320.154	15.874	836.475	626.263
321.168	15.958	835.822	626.028
322.183	16.054	835.509	626.096
323.197	16.001	835.085	625.527
324.212	15.968	834.331	624.785
325.227	15.964	834.025	624.485
326.241	16.015	833.781	624.434
327.256	15.985	833.054	623.723
328.270	16.137	832.290	623.660
329.285	15.983	832.185	622.956
330.300	16.109	831.277	622.686
331.314	16.122	830.451	622.062
332.329	16.006	829.796	621.087
333.343	16.058	830.014	621.386
334.358	16.160	829.195	621.095
335.373	16.200	828.612	620.750
336.387	16.086	828.102	619.896
337.402	16.318	827.563	620.288
338.416	16.264	826.869	619.516
339.431	16.270	826.460	619.177
340.446	16.340	825.834	618.910
341.460	16.264	825.185	618.091
342.475	16.464	824.438	618.208
343.489	16.336	824.094	617.428
344.504	16.467	823.609	617.487
345.519	16.391	823.179	616.833
346.533	16.453	822.767	616.695
347.548	16.543	822.201	616.545
348.562	16.303	822.045	615.498
349.577	16.335	820.914	614.713
350.592	16.409	820.376	614.524
351.606	16.356	820.140	614.101
352.621	16.279	819.839	613.544
353.635	16.512	819.047	613.739
354.650	16.400	818.747	613.056
355.665	16.448	818.367	612.892
356.679	16.381	817.829	612.192
357.694	16.540	817.438	612.420
358.708	16.623	816.866	612.236
359.723	16.573	816.182	611.490
360.738	16.458	815.667	610.633
361.752	16.445	815.300	610.258
362.767	16.628	814.883	610.552
363.781	16.706	814.325	610.361
364.796	16.646	813.798	609.697
365.810	16.747	813.684	609.921
366.825	16.764	813.043	609.450
367.840	16.851	812.838	609.554
368.854	16.865	812.412	609.232
369.869	16.899	811.760	608.810
370.883	16.780	810.951	607.722
371.898	16.773	810.563	607.353
372.913	16.907	810.165	607.480
373.927	16.843	809.528	606.721
374.942	16.823	809.048	606.234
375.956	16.927	808.149	605.879
376.971	17.076	807.539	605.899
377.986	16.819	807.372	604.805
379.000	17.006	806.873	605.044
380.015	16.997	806.116	604.391
381.029	17.036	805.737	604.191
382.044	17.121	805.072	603.940
383.059	17.232	804.301	603.704
384.073	17.023	804.333	602.932
385.088	17.082	803.607	602.546
386.102	17.092	802.882	601.983
387.117	17.068	802.316	601.419
388.132	16.957	802.268	600.938
389.146	17.013	801.765	600.707
390.161	16.921	801.256	599.947
391.175	17.119	801.032	600.424
392.190	17.152	800.585	600.152
393.205	17.092	800.344	599.706
394.219	17.045	799.722	599.023
395.234	17.120	798.945	598.653
396.248	17.055	798.691	598.181
397.263	17.108	798.324	598.039
398.278	16.997	797.760	597.175
399.292	17.172	797.351	597.430
400.307	17.144	796.723	596.809
401.321	17.041	796.636	596.329
402.336	17.119	796.150	596.187
403.350	17.146	795.751	595.927
404.365	17.138	795.449	595.620
405.380	17.163	794.743	595.128
406.394	17.394	794.342	595.584
407.409	17.288	793.947	594.862
408.423	17.376	793.388	594.699
409.438	17.564	792.474	594.619
410.453	17.424	792.582	594.159
411.467	17.557	792.075	594.189
412.482	17.510	791.592	593.610
413.496	17.652	790.624	593.326
414.511	17.640	790.416	593.078
415.526	17.501	790.697	592.750
416.540	17.536	790.274	592.502
417.555	17.560	789.850	592.217
418.569	17.630	789.337	592.021
419.584	17.649	788.625	591.501
420.599	17.605	788.285	591.041
421.613	114.007	1296.999	1487.278
422.628	97.966	1371.068	1487.354
