DTS Sentinel unit serial number:	SN413079Multiplexer serial number:	ORYXHardware model number:	OX4-SRSoftware version number:	ORYX F/W v4.00 Oryx Data Collector v3.7.2.0data status	okinstallation	princeton_trtdifferential loss correction	single-endedforward channel	channel 3reverse channel	N/Adate	2019/09/17time	04:32:35forward acquisition time	60.00reverse acquisition time	0.00gamma	496.2192k internal	0.2324k external	0.2324temperature offset calibration	0.9941default loss term (dB/km)	0.3790temperature slope calibration	1.0000multiplexer offset coefficient	1.0000multiplexer slope coefficient	1.0000fibre end	0.00T internal ref (°C)	29.69T ext. ref 1 (°C)	0.13T ext. ref 2 (°C)	24.13length (m)	temperature (°C)	Stokes	anti-Stokes-747.200	-71.029	0.576	0.219
-746.185	-36.003	-0.188	0.102
-745.171	-84.365	-0.277	-0.088
-744.156	-56.125	-0.072	0.032
-743.142	-114.653	0.147	-0.028
-742.127	-11.978	-0.120	0.079
-741.112	-127.628	-0.089	-0.013
-740.098	137.420	-0.067	0.089
-739.083	-123.311	0.255	0.041
-738.069	284.129	0.092	0.168
-737.054	-140.455	0.102	0.011
-736.039	-67.841	-0.280	-0.110
-735.025	203.603	0.196	0.307
-734.010	19.163	0.185	-0.150
-732.996	393.237	0.069	-0.145
-731.981	181.441	-0.189	-0.281
-730.966	-90.741	-0.059	0.017
-729.952	-18.557	0.089	0.056
-728.937	633.888	0.119	0.303
-727.923	180.675	0.128	-0.190
-726.908	800.000	-0.040	-0.160
-725.894	-68.782	0.222	-0.087
-724.879	-63.843	-0.244	0.101
-723.864	674.867	-0.089	-0.232
-722.850	-61.363	-0.199	0.084
-721.835	-115.038	0.219	-0.042
-720.821	-200.000	-0.026	-0.253
-719.806	-59.928	0.125	-0.054
-718.791	-188.833	-0.085	-0.001
-717.777	800.000	-0.041	0.173
-716.762	-139.812	0.229	0.024
-715.748	664.298	-0.036	0.094
-714.733	-200.000	0.049	-0.246
-713.718	-86.300	0.105	0.033
-712.704	548.498	-0.164	0.397
-711.689	-200.000	0.025	0.418
-710.675	42.077	-0.118	0.108
-709.660	696.305	-0.134	-0.354
-708.645	235.407	0.275	-0.457
-707.631	680.072	-0.065	-0.172
-706.616	-194.816	0.208	0.002
-705.602	-152.770	-0.182	-0.013
-704.587	55.426	0.174	-0.170
-703.572	-52.188	0.203	0.095
-702.558	45.733	-0.120	0.112
-701.543	-63.893	-0.120	-0.049
-700.529	-200.000	0.016	0.191
-699.514	140.490	0.091	-0.121
-698.499	800.000	0.100	0.428
-697.485	748.839	-0.128	-0.349
-696.470	800.000	-0.015	-0.056
-695.456	75.152	0.221	0.234
-694.441	-79.692	-0.146	0.050
-693.426	-17.017	-0.091	0.058
-692.412	80.849	-0.257	-0.280
-691.397	-61.866	-0.258	0.109
-690.383	226.984	0.107	0.175
-689.368	415.846	-0.072	-0.154
-688.354	-54.425	-0.166	-0.076
-687.339	191.106	-0.062	-0.093
-686.324	-102.464	-0.469	-0.113
-685.310	-85.141	-0.037	0.012
-684.295	0.900	-0.283	0.204
-683.281	197.011	-0.041	0.064
-682.266	-113.739	-0.323	0.063
-681.251	-200.000	-0.014	-0.328
-680.237	-200.000	-0.008	-0.097
-679.222	110.334	0.252	0.305
-678.208	800.000	-0.057	-0.164
-677.193	-51.133	0.226	-0.107
-676.178	604.766	0.045	0.113
-675.164	-63.373	0.319	0.132
-674.149	232.360	0.119	0.198
-673.135	-200.000	-0.000	0.257
-672.120	8.775	0.303	0.230
-671.105	-200.000	-0.053	0.350
-670.091	-200.000	0.151	-0.687
-669.076	196.707	-0.070	-0.107
-668.062	411.300	-0.079	0.168
-667.047	-200.000	0.013	-0.224
-666.032	25.348	-0.162	0.135
-665.018	-47.530	0.324	-0.158
-664.003	-105.783	-0.447	0.102
-662.989	-134.990	0.083	-0.010
-661.974	28.354	-0.147	-0.125
-660.959	-90.989	-0.076	0.022
-659.945	232.789	-0.112	0.184
-658.930	-53.059	-0.184	-0.085
-657.916	108.408	0.045	0.054
-656.901	160.332	0.147	-0.207
-655.886	-83.560	0.115	0.037
-654.872	149.496	0.101	-0.138
-653.857	11.266	0.066	-0.051
-652.843	153.402	0.183	-0.252
-651.828	532.422	0.032	0.077
-650.814	66.816	0.168	-0.172
-649.799	-200.000	0.002	0.253
-648.784	-47.687	-0.196	-0.096
-647.770	28.151	-0.149	0.126
-646.755	-169.694	0.282	0.010
-645.741	-93.439	0.171	0.048
-644.726	-70.009	-0.179	-0.068
-643.711	67.258	0.083	-0.085
-642.697	-160.071	-0.081	-0.004
-641.682	-95.933	-0.340	0.091
-640.668	151.898	0.093	-0.128
-639.653	-200.000	-0.003	-0.303
-638.638	5.813	0.107	0.079
-637.624	800.000	-0.037	0.129
-636.609	-200.000	0.003	-0.119
-635.595	800.000	0.057	-0.167
-634.580	137.290	0.040	-0.053
-633.565	-200.000	0.068	-0.360
-632.551	113.588	0.116	-0.141
-631.536	-200.000	0.050	-0.479
-630.522	-14.809	-0.301	-0.194
-629.507	278.750	-0.025	0.046
-628.492	-200.000	-0.017	0.352
-627.478	-61.057	-0.288	0.122
-626.463	800.000	-0.088	0.295
-625.449	262.730	-0.058	-0.102
-624.434	-196.655	-0.481	-0.003
-623.419	-200.000	-0.023	0.398
-622.405	89.626	-0.345	0.386
-621.390	800.000	0.083	0.269
-620.376	800.000	-0.085	-0.273
-619.361	-10.655	0.041	0.027
-618.346	800.000	0.054	-0.208
-617.332	102.933	0.069	0.081
-616.317	-200.000	0.043	-0.231
-615.303	-200.000	-0.014	-0.218
-614.288	800.000	-0.080	0.286
-613.273	66.521	-0.124	-0.127
-612.259	746.427	0.041	0.112
-611.244	-43.531	-0.303	0.154
-610.230	38.474	0.246	0.220
-609.215	800.000	-0.069	-0.227
-608.201	694.402	0.186	-0.489
-607.186	636.875	-0.042	-0.107
-606.171	-200.000	0.060	0.491
-605.157	-41.382	0.213	-0.110
-604.142	149.559	-0.168	-0.229
-603.128	-200.000	0.048	-0.245
-602.113	800.000	0.046	-0.162
-601.098	20.476	0.113	0.092
-600.084	14.629	0.252	0.198
-599.069	-155.469	0.101	0.007
-598.055	-16.383	0.182	-0.116
-597.040	-62.493	-0.432	-0.180
-596.025	-129.276	-0.139	-0.019
-595.011	90.247	0.073	-0.082
-593.996	10.452	0.200	0.153
-592.982	-180.499	-0.250	0.005
-591.967	-95.869	0.255	-0.068
-590.952	-200.000	-0.012	0.256
-589.938	-4.881	0.139	-0.096
-588.923	42.075	-0.174	-0.158
-587.909	-200.000	0.034	-0.203
-586.894	250.385	0.086	-0.147
-585.879	3.203	0.390	-0.285
-584.865	68.131	0.231	0.237
-583.850	114.116	0.106	0.129
-582.836	-4.962	0.244	0.169
-581.821	-58.623	0.126	0.055
-580.806	197.545	-0.257	0.394
-579.792	14.466	0.071	0.056
-578.777	-69.617	0.212	0.082
-577.763	-117.751	0.112	-0.020
-576.748	180.155	0.140	-0.206
-575.733	368.071	-0.032	-0.065
-574.719	-125.529	0.168	0.026
-573.704	-200.000	0.047	-0.250
-572.690	-127.721	0.303	0.044
-571.675	-31.444	-0.173	-0.097
-570.661	-200.000	0.002	0.092
-569.646	152.506	-0.255	-0.349
-568.631	193.398	0.163	-0.248
-567.617	-67.379	0.289	-0.114
-566.602	65.091	-0.189	0.191
-565.588	302.133	-0.180	-0.334
-564.573	-200.000	0.018	0.329
-563.558	-17.476	0.004	-0.002
-562.544	800.000	0.147	-0.418
-561.529	323.965	-0.031	-0.059
-560.515	592.402	-0.065	-0.162
-559.500	6.434	-0.049	0.037
-558.485	-200.000	0.036	-0.250
-557.471	7.160	-0.180	0.135
-556.456	-64.023	-0.100	-0.041
-555.442	-161.282	0.138	0.007
-554.427	-200.000	0.003	-0.396
-553.412	51.027	-0.224	0.213
-552.398	-200.000	0.007	-0.055
-551.383	71.002	0.229	-0.238
-550.369	0.701	0.175	0.125
-549.354	25.665	0.126	-0.105
-548.339	-2.598	0.290	0.203
-547.325	111.613	-0.099	0.120
-546.310	-16.397	-0.020	0.013
-545.296	35.721	-0.196	0.173
-544.281	73.635	-0.080	0.084
-543.266	-52.547	0.210	-0.097
-542.252	-111.225	0.372	0.076
-541.237	800.000	-0.046	0.185
-540.223	247.807	-0.155	-0.262
-539.208	42.947	0.256	-0.234
-538.193	57.118	-0.193	-0.189
-537.179	-147.539	-0.292	0.025
-536.164	29.860	0.082	-0.070
-535.150	-156.423	0.224	0.014
-534.135	-128.073	0.222	-0.032
-533.121	103.254	-0.262	0.308
-532.106	-200.000	-0.116	0.659
-531.091	-200.000	-0.049	-0.285
-530.077	-105.492	0.469	0.107
-529.062	15.050	0.185	0.145
-528.048	800.000	-0.020	-0.074
-527.033	-131.244	-0.147	-0.020
-526.018	-200.000	-0.070	0.343
-525.004	800.000	-0.086	-0.254
-523.989	20.973	-0.142	0.115
-522.975	-200.000	0.011	-0.095
-521.960	-200.000	-0.000	0.059
-520.945	3.909	0.267	-0.195
-519.931	-141.838	-0.315	-0.032
-518.916	-200.000	0.032	0.182
-517.902	-151.304	-0.111	0.008
-516.887	72.447	-0.087	-0.091
-515.872	-22.527	-0.150	-0.091
-514.858	-69.137	0.276	-0.106
-513.843	-200.000	-0.006	0.109
-512.829	-200.000	0.005	0.077
-511.814	800.000	-0.164	0.455
-510.799	800.000	0.032	0.115
-509.785	-87.322	-0.234	0.071
-508.770	-34.814	0.190	-0.104
-507.756	0.390	-0.369	0.264
-506.741	-145.279	0.129	-0.012
-505.726	-144.577	0.236	0.022
-504.712	-200.000	0.035	-0.232
-503.697	800.000	-0.094	-0.293
-502.683	100.686	0.126	0.146
-501.668	-88.625	-0.088	-0.026
-500.653	150.888	-0.041	0.056
-499.639	-89.681	0.324	0.095
-498.624	-124.399	0.283	0.044
-497.610	-144.841	-0.474	0.043
-496.595	686.047	0.201	-0.525
-495.581	-129.671	-0.240	-0.033
-494.566	-200.000	0.072	0.361
-493.551	-14.528	-0.089	-0.057
-492.537	398.522	0.072	0.151
-491.522	-48.153	0.166	0.080
-490.508	-200.000	0.003	0.063
-489.493	-174.836	-0.095	0.003
-488.478	-149.550	-0.307	-0.024
-487.464	-98.902	-0.093	-0.024
-486.449	-47.184	0.256	-0.125
-485.435	800.000	-0.076	0.218
-484.420	661.820	-0.094	-0.243
-483.405	-126.419	0.154	-0.023
-482.391	-74.822	-0.197	0.071
-481.376	-69.299	-0.224	0.086
-480.362	-104.848	-0.099	-0.023
-479.347	-8.004	-0.121	-0.082
-478.332	-137.771	-0.207	0.023
-477.318	599.353	0.045	0.111
-476.303	-92.204	-0.189	0.053
-475.289	-200.000	-0.003	-0.128
-474.274	168.024	-0.273	-0.388
-473.259	204.699	0.030	-0.046
-472.245	54.404	-0.158	0.152
-471.230	-200.000	-0.058	0.289
-470.216	123.280	0.107	-0.134
-469.201	212.328	0.036	0.057
-468.186	-34.688	-0.154	0.084
-467.172	116.456	0.318	-0.389
-466.157	-200.000	0.059	-0.441
-465.143	-19.959	-0.067	0.041
-464.128	164.632	0.170	0.240
-463.113	800.000	-0.058	0.174
-462.099	317.627	-0.090	0.171
-461.084	319.067	-0.156	0.295
-460.070	-200.000	0.034	0.187
-459.055	120.639	0.268	-0.333
-458.040	-94.705	-0.232	0.063
-457.026	-179.413	0.479	0.011
-456.011	800.000	-0.079	-0.269
-454.997	82.882	-0.142	0.154
-453.982	52.241	-0.116	-0.111
-452.968	466.466	0.145	0.325
-451.953	315.776	0.028	-0.053
-450.938	318.667	-0.067	-0.127
-449.924	800.000	-0.084	-0.243
-448.909	800.000	0.114	0.359
-447.895	-99.133	0.108	-0.027
-446.880	314.973	0.139	0.261
-445.865	-27.566	-0.100	0.058
-444.851	-34.173	-0.436	0.239
-443.836	151.374	-0.038	-0.052
-442.822	-200.000	-0.007	-0.052
-441.807	58.418	0.272	-0.266
-440.792	-62.005	-0.250	0.104
-439.778	-200.000	-0.011	0.200
-438.763	-200.000	-0.001	0.129
-437.749	-173.106	-0.245	-0.008
-436.734	353.823	-0.214	-0.423
-435.719	-67.896	-0.464	0.181
-434.705	-200.000	0.010	0.374
-433.690	89.037	-0.088	0.098
-432.676	-125.563	0.067	0.010
-431.661	-200.000	0.013	0.088
-430.646	242.890	-0.034	-0.057
-429.632	283.241	0.098	-0.176
-428.617	-92.498	-0.098	-0.027
-427.603	8.324	-0.109	0.082
-426.588	-39.015	0.136	-0.071
-425.573	-48.121	-0.226	-0.109
-424.559	180.499	0.024	-0.036
-423.544	-200.000	-0.010	-0.097
-422.530	275.735	0.131	0.231
-421.515	-154.437	-0.322	0.022
-420.500	0.397	0.256	-0.182
-419.486	-80.959	-0.302	-0.100
-418.471	-14.366	0.381	0.245
-417.457	516.784	0.097	-0.227
-416.442	-121.957	0.089	-0.015
-415.428	518.000	0.069	0.161
-414.413	-200.000	-0.014	0.276
-413.398	-33.015	0.219	0.121
-412.384	-200.000	-0.011	0.178
-411.369	-40.667	-0.130	0.067
-410.355	177.931	0.061	-0.088
-409.340	473.291	0.046	-0.104
-408.325	226.018	-0.178	0.288
-407.311	-73.220	-0.403	0.147
-406.296	-200.000	-0.053	-0.317
-405.282	14.947	-0.289	-0.225
-404.267	-200.000	0.019	-0.163
-403.252	-200.000	-0.200	0.000
-402.238	-57.395	0.281	0.123
-401.223	-132.106	-0.345	0.045
-400.209	800.000	0.068	-0.196
-399.194	16.793	-0.316	-0.249
-398.179	-200.000	-0.029	-0.350
-397.165	586.297	0.100	-0.244
-396.150	-178.922	0.092	-0.002
-395.136	-200.000	-0.067	0.309
-394.121	-134.780	0.325	0.039
-393.106	-31.533	0.175	0.098
-392.092	171.491	-0.177	0.254
-391.077	800.000	0.013	0.053
-390.063	-132.724	0.364	0.046
-389.048	37.990	0.055	-0.049
-388.033	800.000	-0.033	-0.097
-387.019	734.203	-0.041	0.110
-386.004	-155.554	0.247	0.016
-384.990	800.000	-0.044	0.160
-383.975	219.034	-0.067	-0.107
-382.960	141.964	-0.411	0.542
-381.946	-161.969	-0.165	0.008
-380.931	-200.000	0.003	-0.269
-379.917	21.305	-0.206	0.166
-378.902	-131.845	-0.372	0.048
-377.888	97.326	0.041	-0.047
-376.873	188.353	0.125	-0.185
-375.858	463.771	0.029	-0.064
-374.844	800.000	0.076	0.211
-373.829	800.000	0.023	-0.068
-372.815	-200.000	-0.013	-0.467
-371.800	800.000	-0.188	-0.520
-370.785	-49.204	-0.245	-0.117
-369.771	-123.250	0.222	-0.035
-368.756	-124.671	-0.376	-0.058
-367.742	375.388	-0.086	-0.175
-366.727	342.073	0.019	0.037
-365.712	707.260	-0.031	-0.080
-364.698	221.361	0.046	0.074
-363.683	-153.269	-0.476	-0.033
-362.669	149.008	-0.125	-0.168
-361.654	275.162	-0.097	-0.171
-360.639	396.076	0.083	-0.172
-359.625	-62.933	0.268	-0.110
-358.610	-94.753	-0.362	-0.098
-357.596	-112.717	0.191	0.038
-356.581	128.596	0.042	-0.053
-355.566	-200.000	-0.003	-0.225
-354.552	800.000	-0.037	0.134
-353.537	-200.000	0.012	-0.341
-352.523	800.000	-0.049	-0.140
-351.508	211.509	0.289	0.452
-350.493	204.964	0.132	0.204
-349.479	-33.382	0.315	0.173
-348.464	-26.450	0.116	0.068
-347.450	-148.664	-0.161	-0.013
-346.435	619.521	-0.031	-0.078
-345.420	-200.000	-0.036	-0.247
-344.406	-76.572	-0.318	0.111
-343.391	-150.667	-0.305	0.023
-342.377	-4.792	0.031	0.021
-341.362	-143.670	-0.437	0.041
-340.348	-200.000	-0.006	-0.088
-339.333	800.000	0.124	0.353
-338.318	255.324	0.113	0.192
-337.304	94.604	0.227	0.256
-336.289	-200.000	-0.042	0.321
-335.275	-101.892	-0.272	-0.065
-334.260	-76.828	0.198	0.069
-333.245	-74.867	-0.132	-0.047
-332.231	800.000	0.055	-0.196
-331.216	-15.662	-0.206	-0.130
-330.202	100.445	0.211	-0.243
-329.187	752.466	0.049	-0.132
-328.172	-119.295	0.137	0.024
-327.158	-182.816	0.108	-0.002
-326.143	-6.095	0.182	0.124
-325.129	-176.461	-0.104	0.003
-324.114	-95.516	0.273	0.073
-323.099	97.579	-0.170	0.194
-322.085	-200.000	-0.021	-0.228
-321.070	455.179	0.113	0.249
-320.056	211.986	0.228	0.357
-319.041	168.094	-0.049	0.070
-318.026	-153.180	0.242	0.017
-317.012	-111.069	0.162	0.033
-315.997	62.162	-0.220	0.218
-314.983	95.463	0.045	0.051
-313.968	-102.013	0.178	0.043
-312.953	-200.000	-0.008	-0.153
-311.939	-177.711	0.088	0.002
-310.924	624.077	0.095	0.238
-309.910	703.891	0.038	0.099
-308.895	680.324	-0.107	0.278
-307.880	800.000	0.010	0.037
-306.866	-200.000	0.075	0.346
-305.851	-34.758	-0.025	-0.013
-304.837	-65.140	0.180	0.072
-303.822	-200.000	0.001	-0.422
-302.807	-80.666	0.274	-0.090
-301.793	-200.000	-0.037	0.168
-300.778	-200.000	0.002	-0.043
-299.764	-200.000	0.069	0.326
-298.749	54.500	-0.349	0.334
-297.735	-56.615	-0.119	0.052
-296.720	-72.158	-0.122	0.045
-295.705	-132.876	-0.059	0.007
-294.691	144.249	0.072	-0.096
-293.676	-11.083	-0.139	-0.091
-292.662	10.139	-0.076	-0.057
-291.647	63.690	0.012	0.012
-290.632	-1.595	0.176	0.123
-289.618	355.256	-0.097	0.192
-288.603	-123.938	0.196	-0.031
-287.589	-200.000	-0.029	0.171
-286.574	-200.000	-0.050	-0.222
-285.559	613.707	-0.012	0.030
-284.545	800.000	-0.148	0.474
-283.530	217.547	0.160	0.253
-282.516	225.636	0.041	0.066
-281.501	-142.000	0.111	0.011
-280.486	-52.984	0.150	-0.068
-279.472	-129.663	0.180	0.025
-278.457	-200.000	0.042	0.254
-277.443	-118.276	0.104	0.018
-276.428	-95.517	0.324	-0.086
-275.413	-86.766	0.123	-0.037
-274.399	-102.434	0.169	-0.040
-273.384	-200.000	0.072	0.333
-272.370	245.615	0.086	-0.144
-271.355	-200.000	0.036	0.300
-270.340	-54.946	0.270	0.121
-269.326	-52.778	0.117	-0.053
-268.311	800.000	0.105	-0.322
-267.297	800.000	0.019	-0.053
-266.282	273.922	0.052	-0.091
-265.267	685.284	0.029	-0.074
-264.253	24.440	-0.100	-0.082
-263.238	-168.967	0.305	0.011
-262.224	-121.084	-0.141	-0.023
-261.209	244.879	-0.124	0.207
-260.195	800.000	-0.086	-0.258
-259.180	-31.821	0.087	-0.048
-258.165	152.162	0.066	-0.089
-257.151	537.348	-0.045	-0.107
-256.136	-200.000	-0.035	-0.301
-255.122	469.946	0.040	-0.089
-254.107	-200.000	0.001	-0.345
-253.092	179.246	0.099	0.144
-252.078	-134.356	0.271	-0.033
-251.063	-197.812	-0.229	0.001
-250.049	-80.099	-0.297	-0.099
-249.034	39.456	0.175	0.155
-248.019	113.672	0.187	-0.225
-247.005	-159.877	-0.039	0.002
-245.990	360.275	0.111	0.221
-244.976	-4.535	-0.068	0.047
-243.961	55.290	0.128	0.123
-242.946	-117.934	-0.111	-0.020
-241.932	17.120	-0.160	0.126
-240.917	4.693	0.337	-0.245
-239.903	18.461	0.090	0.071
-238.888	-200.000	0.061	0.431
-237.873	-200.000	0.000	0.124
-236.859	-130.343	-0.154	-0.021
-235.844	-81.142	-0.315	-0.103
-234.830	800.000	0.087	0.269
-233.815	172.244	-0.120	0.170
-232.800	800.000	-0.084	0.254
-231.786	-45.670	-0.151	0.074
-230.771	-200.000	-0.009	0.189
-229.757	238.087	0.044	-0.073
-228.742	554.965	-0.181	0.431
-227.727	557.795	-0.092	-0.219
-226.713	800.000	0.068	0.198
-225.698	-101.890	-0.257	0.062
-224.684	213.588	-0.030	-0.047
-223.669	-68.858	0.044	0.017
-222.655	300.417	-0.091	0.166
-221.640	288.242	0.144	0.258
-220.625	289.176	0.102	0.183
-219.611	59.937	-0.163	0.160
-218.596	-200.000	0.037	-0.177
-217.582	108.803	-0.039	-0.046
-216.567	576.185	-0.062	-0.149
-215.552	763.340	-0.046	-0.124
-214.538	281.975	-0.072	0.128
-213.523	800.000	0.015	-0.061
-212.509	-107.950	0.267	-0.057
-211.494	285.013	-0.053	0.094
-210.479	50.941	0.101	-0.095
-209.465	-122.117	-0.049	-0.008
-208.450	-65.679	0.142	0.056
-207.436	-200.000	-0.034	0.265
-206.421	107.145	0.146	0.172
-205.406	-101.003	-0.224	-0.054
-204.392	786.759	-0.042	-0.114
-203.377	-200.000	-0.014	-0.338
-202.363	-2.455	-0.298	-0.206
-201.348	185.188	-0.015	0.023
-200.333	104.654	0.201	-0.234
-199.319	-200.000	-0.124	-0.548
-198.304	563.475	-0.071	-0.169
-197.290	-132.097	0.143	-0.018
-196.275	-79.865	0.111	-0.037
-195.260	-11.046	-0.066	-0.043
-194.246	151.529	-0.067	0.090
-193.231	-200.000	0.015	-0.259
-192.217	-200.000	0.047	0.664
-191.202	-200.000	0.022	0.195
-190.187	294.108	0.031	0.056
-189.173	320.645	0.028	0.053
-188.158	800.000	0.014	-0.042
-187.144	-156.837	0.520	0.032
-186.129	283.746	0.172	0.306
-185.114	-24.233	-0.247	-0.145
-184.100	607.688	-0.028	0.070
-183.085	-79.565	-0.326	-0.109
-182.071	-90.715	0.438	-0.125
-181.056	-200.000	0.041	0.209
-180.042	4.211	-0.303	-0.219
-179.027	-85.153	0.214	-0.066
-178.012	67.086	-0.065	0.065
-176.998	-200.000	0.001	-0.035
-175.983	-126.579	0.298	0.044
-174.969	-37.260	-0.225	-0.119
-173.954	171.175	-0.128	-0.181
-172.939	6.275	0.137	0.100
-171.925	255.819	-0.212	0.360
-170.910	-127.922	-0.271	0.038
-169.896	-188.467	0.231	0.003
-168.881	-23.365	0.230	-0.136
-167.866	-200.000	-0.029	-0.304
-166.852	357.803	0.007	-0.014
-165.837	-121.954	0.093	0.015
-164.823	-140.733	0.188	0.019
-163.808	-200.000	-0.003	-0.234
-162.793	-164.121	-0.146	0.007
-161.779	-200.000	-0.000	-0.278
-160.764	800.000	-0.102	-0.381
-159.750	-53.872	0.166	-0.075
-158.735	-37.461	-0.047	-0.025
-157.720	-179.032	0.179	-0.004
-156.706	-200.000	-0.003	-0.265
-155.691	66.815	0.142	-0.142
-154.677	-200.000	-0.008	-0.380
-153.662	264.085	-0.202	-0.348
-152.647	180.266	0.064	-0.093
-151.633	-52.682	0.134	0.061
-150.618	-78.224	0.256	0.087
-149.604	1.118	0.114	-0.081
-148.589	-200.000	-0.039	0.172
-147.574	-76.763	-0.065	-0.022
-146.560	-48.240	-0.105	-0.050
-145.545	184.053	0.337	-0.493
-144.531	-15.308	0.134	0.085
-143.516	-181.141	0.289	0.006
-142.502	-94.197	0.220	-0.059
-141.487	439.366	-0.093	0.201
-140.472	-138.425	0.206	0.022
-139.458	-99.032	-0.287	-0.072
-138.443	76.457	0.090	-0.094
-137.429	-47.533	-0.039	-0.018
-136.414	-109.750	0.212	0.044
-135.399	111.573	-0.053	-0.063
-134.385	191.703	0.046	-0.069
-133.370	-200.000	0.016	0.102
-132.356	797.964	0.079	0.216
-131.341	-200.000	0.030	0.301
-130.326	173.044	0.153	0.217
-129.312	-200.000	-0.008	-0.038
-128.297	-43.451	-0.188	0.094
-127.283	800.000	-0.167	-0.475
-126.268	2.878	0.169	0.121
-125.253	1.202	-0.122	0.086
-124.239	-14.343	-0.194	-0.123
-123.224	-200.000	-0.017	0.082
-122.210	277.097	-0.086	-0.152
-121.195	-94.194	0.168	0.045
-120.180	-200.000	0.015	0.074
-119.166	433.790	0.173	-0.370
-118.151	-200.000	0.017	0.514
-117.137	800.000	-0.038	-0.161
-116.122	359.013	0.040	-0.079
-115.107	228.947	0.125	0.201
-114.093	428.094	-0.062	0.133
-113.078	84.096	-0.075	-0.080
-112.064	12.934	0.132	0.101
-111.049	-87.189	-0.179	-0.054
-110.034	-200.000	0.021	0.238
-109.020	-130.568	0.256	-0.034
-108.005	-31.895	-0.275	0.152
-106.991	-200.000	0.016	-0.071
-105.976	252.118	-0.011	0.019
-104.962	-200.000	-0.020	0.114
-103.947	-200.000	0.010	0.159
-102.932	-33.683	-0.280	-0.152
-101.918	-191.955	-0.171	-0.002
-100.903	-9.296	0.027	-0.018
-99.889	800.000	-0.025	0.095
-98.874	35.599	-0.033	-0.028
-97.859	-200.000	0.034	-0.453
-96.845	-24.550	0.224	0.131
-95.830	147.025	-0.107	0.142
-94.816	48.525	0.312	-0.288
-93.801	-200.000	-0.028	-0.122
-92.786	106.680	0.036	-0.041
-91.772	-80.306	0.076	-0.025
-90.757	-200.000	0.039	0.526
-89.743	800.000	-0.050	0.154
-88.728	800.000	-0.038	-0.134
-87.713	800.000	0.036	0.126
-86.699	-137.599	0.151	0.017
-85.684	224.642	-0.165	0.262
-84.670	-53.487	0.205	0.092
-83.655	-103.598	0.366	0.085
-82.640	36.423	0.129	-0.112
-81.626	-28.503	0.143	0.081
-80.611	689.573	-0.026	0.067
-79.597	-74.230	-0.242	-0.086
-78.582	168.415	-0.090	0.126
-77.567	90.785	0.218	0.240
-76.553	-200.000	-0.037	0.368
-75.538	-31.435	-0.193	0.107
-74.524	-80.750	0.018	-0.006
-73.509	543.923	0.095	0.224
-72.494	800.000	0.038	0.144
-71.480	31.675	0.054	-0.045
-70.465	-178.526	0.302	0.007
-69.451	254.289	0.093	0.156
-68.436	-200.000	-0.020	0.263
-67.422	800.000	0.029	0.084
-66.407	-200.000	-0.002	-0.238
-65.392	-136.134	0.309	-0.036
-64.378	181.056	-0.025	0.037
-63.363	275.609	0.068	0.119
-62.349	1.249	0.214	0.151
-61.334	124.145	-1.004	-1.241
-60.319	244.428	0.395	0.652
-59.305	800.000	-0.328	-1.064
-58.290	229.014	0.611	0.980
-57.276	-200.000	0.281	1.415
-56.261	-200.000	108.412	590.928
-55.246	445.932	1478.114	3192.373
-54.232	146.832	2661.789	3516.635
-53.217	104.981	2181.166	2528.324
-52.203	39.886	1711.650	1510.179
-51.188	32.687	1525.889	1296.919
-50.173	30.434	1499.375	1259.085
-49.159	50.887	1554.652	1447.329
-48.144	51.287	1571.032	1465.285
-47.130	32.957	1527.788	1300.189
-46.115	30.013	1513.168	1267.585
-45.100	29.806	1509.257	1262.842
-44.086	29.757	1507.407	1260.912
-43.071	29.731	1505.313	1258.929
-42.057	29.573	1503.947	1256.664
-41.042	29.644	1502.195	1255.633
-40.027	29.602	1500.763	1254.102
-39.013	29.672	1499.075	1253.118
-37.998	29.591	1497.579	1251.265
-36.984	29.680	1496.532	1250.944
-35.969	29.623	1495.775	1249.877
-34.954	29.680	1493.988	1248.720
-33.940	29.650	1492.655	1247.351
-32.925	29.674	1491.382	1246.399
-31.911	29.718	1490.160	1245.627
-30.896	29.745	1488.560	1244.424
-29.881	29.806	1487.695	1244.061
-28.867	29.739	1486.281	1242.376
-27.852	29.897	1484.528	1241.921
-26.838	29.711	1483.713	1239.942
-25.823	29.716	1482.563	1238.971
-24.809	29.713	1480.548	1237.216
-23.794	29.716	1479.256	1236.105
-22.779	29.719	1477.798	1234.861
-21.765	29.694	1476.601	1233.642
-20.750	29.759	1475.558	1233.158
-19.736	29.750	1474.389	1232.074
-18.721	29.766	1473.313	1231.230
-17.706	29.589	1472.508	1229.326
-16.692	29.691	1471.212	1228.877
-15.677	29.717	1469.947	1227.946
-14.663	29.730	1468.983	1227.176
-13.648	29.743	1468.057	1226.438
-12.633	29.632	1467.295	1225.020
-11.619	29.757	1465.868	1224.609
-10.604	29.650	1465.516	1223.558
-9.590	29.609	1465.131	1222.917
-8.575	29.665	1463.926	1222.233
-7.560	29.702	1462.739	1221.438
-6.546	29.578	1461.672	1219.680
-5.531	29.518	1461.667	1219.230
-4.517	29.661	1460.114	1218.829
-3.502	29.621	1459.310	1217.847
-2.487	29.651	1458.225	1217.090
-1.473	29.639	1456.885	1215.846
-0.458	29.667	1455.784	1215.058
0.556	27.765	1446.069	1203.413
1.571	24.617	1420.449	1161.562
2.586	21.216	1357.764	1089.027
3.600	19.556	1274.913	1012.760
4.615	18.308	1230.543	970.359
5.629	16.015	1174.042	913.305
6.644	7.948	1089.605	806.816
7.659	1.370	1048.226	743.966
8.673	0.352	1042.791	735.080
9.688	0.076	1039.900	731.632
10.702	0.035	1038.210	730.181
11.717	0.068	1036.187	728.853
12.731	2.554	1039.150	742.940
13.746	10.821	1049.494	790.630
14.761	16.922	1057.337	826.284
15.775	17.339	1056.626	827.687
16.790	16.577	1054.127	821.956
17.804	15.312	1052.808	814.714
18.819	14.503	1050.785	809.151
19.834	14.023	1049.855	806.035
20.848	13.785	1048.644	803.880
21.863	13.521	1047.722	801.825
22.877	13.341	1047.030	800.354
23.892	13.057	1046.340	798.380
24.907	13.079	1045.113	797.481
25.921	12.996	1044.473	796.522
26.936	13.088	1044.055	796.578
27.950	13.137	1043.620	796.411
28.965	13.083	1042.573	795.281
29.980	13.201	1041.518	794.970
30.994	13.253	1040.776	794.588
32.009	13.221	1039.770	793.594
33.023	13.201	1039.460	793.190
34.038	13.391	1038.434	793.249
35.053	13.398	1037.550	792.538
36.067	13.256	1036.164	790.729
37.082	13.279	1035.223	790.053
38.096	13.281	1034.627	789.535
39.111	13.316	1033.882	789.067
40.126	13.303	1033.256	788.456
41.140	13.199	1031.884	786.842
42.155	13.121	1031.256	785.922
43.169	13.180	1030.154	785.295
44.184	13.057	1029.218	783.929
45.199	13.062	1027.802	782.802
46.213	12.987	1027.762	782.346
47.228	12.956	1026.472	781.148
48.242	13.271	1024.947	781.411
49.257	13.201	1024.251	780.478
50.271	13.217	1023.060	779.577
51.286	13.167	1022.645	778.956
52.301	13.100	1022.151	778.197
53.315	13.254	1021.232	778.152
54.330	13.143	1020.529	777.026
55.344	13.133	1019.491	776.120
56.359	13.187	1018.171	775.300
57.374	13.181	1017.459	774.660
58.388	13.037	1016.928	773.512
59.403	13.069	1016.143	772.998
60.417	13.056	1015.230	772.175
61.432	13.013	1014.466	771.322
62.447	13.050	1013.860	770.968
63.461	12.935	1013.047	769.743
64.476	13.054	1011.778	769.266
65.490	13.029	1010.955	768.456
66.505	13.124	1009.802	767.956
67.520	13.043	1009.446	767.237
68.534	13.062	1008.979	766.902
69.549	13.055	1007.665	765.807
70.563	13.100	1006.632	765.159
71.578	12.925	1006.742	764.365
72.593	13.035	1005.309	763.718
73.607	12.952	1004.622	762.748
74.622	12.993	1003.449	761.978
75.636	12.899	1003.228	761.308
76.651	12.853	1002.322	760.342
77.666	12.945	1001.130	759.795
78.680	12.994	1000.686	759.612
79.695	12.971	1000.103	758.997
80.709	12.992	999.610	758.653
81.724	13.083	998.810	758.399
82.739	13.095	997.933	757.720
83.753	13.112	997.439	757.355
84.768	13.149	996.799	756.972
85.782	13.142	995.967	756.241
86.797	13.245	995.206	756.068
87.812	13.318	994.265	755.618
88.826	13.251	993.381	754.574
89.841	13.114	992.997	753.590
90.855	13.212	991.911	753.147
91.870	13.210	991.305	752.614
92.884	13.411	990.321	752.714
93.899	13.281	989.691	751.576
94.914	13.283	989.477	751.354
95.928	13.259	988.644	750.547
96.943	13.327	987.475	749.904
97.957	13.343	986.608	749.252
98.972	13.290	985.891	748.401
99.987	13.249	985.369	747.753
101.001	13.264	984.618	747.184
102.016	13.143	984.227	746.272
103.030	13.219	983.147	745.730
104.045	13.306	982.519	745.582
105.060	13.333	981.205	744.640
106.074	13.248	980.309	743.514
107.089	13.199	979.866	742.891
108.103	13.116	979.004	741.798
109.118	13.170	977.565	740.886
110.133	13.114	976.744	739.945
111.147	13.116	975.689	739.092
112.162	13.189	974.892	738.749
113.176	13.196	974.388	738.333
114.191	13.185	973.687	737.688
115.206	13.238	972.504	736.962
116.220	13.117	971.999	735.976
117.235	13.071	971.351	735.213
118.249	13.175	969.975	734.571
119.264	13.055	969.211	733.393
120.279	13.093	968.424	732.900
121.293	13.072	967.680	732.178
122.308	13.174	966.506	731.678
123.322	13.005	966.413	730.792
124.337	13.049	964.998	729.853
125.352	13.231	963.340	729.339
126.366	13.139	962.726	728.406
127.381	13.163	961.826	727.765
128.395	13.082	960.812	726.575
129.410	13.130	959.854	725.998
130.424	13.152	959.043	725.418
131.439	13.233	957.393	724.460
132.454	13.232	956.708	723.876
133.468	13.140	956.579	723.310
134.483	13.019	956.259	722.471
135.497	13.223	955.213	722.509
136.512	13.169	954.673	721.805
137.527	13.247	953.517	721.206
138.541	13.017	953.469	720.101
139.556	13.180	952.497	720.012
140.570	13.222	951.338	719.258
141.585	13.230	950.365	718.495
142.600	13.147	950.338	718.049
143.614	13.379	949.183	718.119
144.629	13.229	948.742	717.072
145.643	13.361	947.922	716.960
146.658	13.414	946.915	716.365
147.673	13.378	945.940	715.408
148.687	13.187	945.064	713.857
149.702	13.144	944.519	713.197
150.716	13.265	943.043	712.538
151.731	13.184	942.322	711.583
152.746	13.209	941.536	711.035
153.760	13.194	941.219	710.670
154.775	13.321	939.981	710.217
155.789	13.394	939.174	709.856
156.804	13.303	938.691	709.040
157.819	13.355	937.787	708.514
158.833	13.307	937.121	707.746
159.848	13.404	936.591	707.696
160.862	13.612	935.301	707.548
161.877	13.579	935.000	707.117
162.892	13.319	934.363	705.462
163.906	13.333	933.723	704.976
164.921	13.332	932.716	704.149
165.935	13.379	931.493	703.365
166.950	13.371	930.623	702.610
167.964	13.401	929.598	701.902
168.979	13.441	928.992	701.553
169.994	13.399	927.692	700.330
171.008	13.392	927.083	699.779
172.023	13.473	926.095	699.313
173.037	13.437	925.452	698.615
174.052	13.535	924.782	698.462
175.067	13.582	924.094	698.077
176.081	13.418	923.228	696.669
177.096	13.245	922.735	695.510
178.110	13.444	921.488	695.343
179.125	13.462	920.700	694.762
180.140	13.508	919.988	694.359
181.154	13.565	918.954	693.752
182.169	13.488	918.916	693.343
183.183	13.621	918.200	693.297
184.198	13.562	917.774	692.666
185.213	13.655	916.842	692.289
186.227	13.607	916.086	691.456
187.242	13.707	915.784	691.584
188.256	13.710	915.129	691.044
189.271	13.772	914.333	690.638
190.286	13.579	914.010	689.530
191.300	13.644	912.688	688.742
192.315	13.635	912.388	688.416
193.329	13.589	911.159	687.238
194.344	13.544	910.450	686.458
195.359	13.534	910.587	686.460
196.373	13.635	909.482	685.983
197.388	13.806	909.019	686.277
198.402	13.858	908.711	686.202
199.417	13.912	908.169	685.955
200.432	13.871	907.683	685.358
201.446	13.739	907.681	684.750
202.461	13.970	907.009	685.134
203.475	13.889	906.602	684.431
204.490	13.936	905.868	684.010
205.504	14.002	904.619	683.280
206.519	13.821	904.189	682.150
207.534	13.780	903.149	681.136
208.548	13.809	902.849	680.971
209.563	13.934	901.743	680.586
210.577	13.939	900.590	679.676
211.592	14.013	900.201	679.627
212.607	14.082	899.542	679.350
213.621	14.151	899.320	679.405
214.636	14.058	898.489	678.338
215.650	14.050	898.188	678.016
216.665	14.098	897.698	677.781
217.680	14.120	896.805	677.138
218.694	13.889	896.808	676.138
219.709	14.186	895.856	676.572
220.723	14.230	895.141	676.149
221.738	14.224	894.611	675.664
222.753	14.182	893.825	674.843
223.767	14.105	893.307	674.078
224.782	14.326	892.101	674.003
225.796	14.165	891.897	673.136
226.811	14.243	891.041	672.748
227.826	14.288	890.676	672.592
228.840	14.259	890.165	672.032
229.855	14.262	889.190	671.247
230.869	14.259	888.611	670.738
231.884	14.063	888.009	669.436
232.899	14.355	886.739	669.593
233.913	14.224	886.540	668.857
234.928	14.149	885.933	668.041
235.942	14.254	885.037	667.728
236.957	14.162	884.517	666.905
237.972	14.253	883.664	666.568
238.986	14.302	882.990	666.198
240.001	14.294	882.697	665.884
241.015	14.316	882.029	665.409
242.030	14.397	881.068	664.950
243.045	14.324	880.790	664.392
244.059	14.417	880.130	664.206
245.074	14.364	879.368	663.360
246.088	14.398	878.649	662.893
247.103	14.576	878.180	663.188
248.117	14.472	877.549	662.240
249.132	14.506	876.802	661.751
250.147	14.615	876.495	661.894
251.161	14.698	875.735	661.593
252.176	14.654	875.296	661.026
253.190	14.676	874.519	660.466
254.205	14.714	873.976	660.151
255.220	14.698	873.585	659.734
256.234	14.723	872.663	659.078
257.249	14.807	872.296	659.074
258.263	14.642	871.994	658.137
259.278	14.845	870.988	658.119
260.293	14.761	870.466	657.334
261.307	14.808	869.880	657.018
262.322	14.811	869.456	656.653
263.336	14.826	869.134	656.410
264.351	14.898	868.577	656.211
265.366	15.016	867.598	655.877
266.380	15.130	866.604	655.517
267.395	14.965	866.406	654.662
268.409	14.901	865.559	653.713
269.424	14.934	864.862	653.257
270.439	14.940	864.198	652.723
271.453	14.932	863.689	652.249
272.468	14.914	862.595	651.296
273.482	14.771	862.410	650.540
274.497	14.824	861.899	650.303
275.512	14.974	860.890	650.067
276.526	15.029	860.031	649.575
277.541	15.114	859.398	649.368
278.555	14.973	858.762	648.284
279.570	15.054	858.568	648.393
280.585	15.101	858.189	648.232
281.599	15.109	857.528	647.706
282.614	15.207	856.790	647.472
283.628	15.089	856.516	646.751
284.643	15.173	855.714	646.414
285.657	15.242	855.033	646.108
286.672	15.122	854.482	645.172
287.687	15.200	854.037	645.078
288.701	15.017	854.144	644.399
289.716	15.293	852.579	644.219
290.730	15.193	852.448	643.681
291.745	15.216	851.774	643.202
292.760	15.241	850.861	642.554
293.774	15.458	849.699	642.447
294.789	15.385	849.729	642.137
295.803	15.359	849.336	641.683
296.818	15.395	848.438	641.082
297.833	15.294	848.086	640.377
298.847	15.313	847.217	639.736
299.862	15.248	846.776	639.099
300.876	15.369	846.055	638.960
301.891	15.409	845.588	638.699
302.906	15.363	845.028	638.045
303.920	15.634	844.114	638.330
304.935	15.485	843.274	637.071
305.949	15.426	843.106	636.665
306.964	15.653	842.244	636.818
307.979	15.497	841.464	635.583
308.993	15.498	841.094	635.251
310.008	15.686	840.875	635.738
311.022	15.516	840.691	634.900
312.037	15.760	839.727	635.039
313.052	15.706	839.012	634.236
314.066	15.491	838.453	632.950
315.081	15.585	837.540	632.558
316.095	15.444	837.243	631.747
317.110	15.627	836.931	632.144
318.125	15.442	836.572	631.119
319.139	15.554	835.837	630.933
320.154	15.518	835.355	630.375
321.168	15.509	835.232	630.193
322.183	15.543	834.545	629.748
323.197	15.703	833.639	629.607
324.212	15.606	833.290	628.926
325.227	15.669	832.745	628.692
326.241	15.632	832.210	628.096
327.256	15.694	831.293	627.578
328.270	15.776	831.042	627.640
329.285	15.756	830.361	626.996
330.300	15.681	829.721	626.176
331.314	15.824	829.357	626.380
332.329	15.737	828.607	625.435
333.343	15.767	827.949	624.994
334.358	15.674	827.682	624.390
335.373	15.917	826.917	624.661
336.387	15.721	826.683	623.703
337.402	15.893	825.913	623.704
338.416	15.954	825.183	623.323
339.431	16.023	824.832	623.259
340.446	15.902	824.322	622.368
341.460	16.033	823.754	622.368
342.475	16.089	822.999	621.952
343.489	16.175	822.133	621.559
344.504	16.210	821.860	621.425
345.519	16.196	821.289	620.888
346.533	16.106	821.386	620.573
347.548	16.064	820.899	619.997
348.562	16.243	819.974	619.901
349.577	16.056	819.344	618.682
350.592	15.992	819.157	618.251
351.606	16.106	818.552	618.160
352.621	16.152	817.881	617.766
353.635	16.035	817.902	617.301
354.650	16.030	817.438	616.876
355.665	16.101	816.960	616.719
356.679	16.271	816.100	616.637
357.694	16.239	815.916	616.329
358.708	16.389	815.025	616.147
359.723	16.319	814.663	615.563
360.738	16.280	814.226	615.037
361.752	16.275	813.830	614.664
362.767	16.392	813.357	614.677
363.781	16.381	812.849	614.199
364.796	16.351	812.324	613.641
365.810	16.355	812.081	613.417
366.825	16.370	811.578	613.039
367.840	16.554	811.174	613.347
368.854	16.450	810.770	612.611
369.869	16.423	810.013	611.884
370.883	16.387	809.729	611.484
371.898	16.390	809.138	610.996
372.913	16.439	808.510	610.647
373.927	16.567	807.578	610.348
374.942	16.641	807.313	610.360
375.956	16.542	806.227	609.129
376.971	16.686	806.143	609.530
377.986	16.722	805.604	609.200
379.000	16.675	805.036	608.546
380.015	16.755	804.710	608.533
381.029	16.884	804.011	608.414
382.044	16.701	803.667	607.445
383.059	16.837	802.968	607.348
384.073	16.695	802.686	606.572
385.088	16.842	802.071	606.581
386.102	16.637	801.552	605.403
387.117	16.745	800.969	605.293
388.132	16.604	800.350	604.269
389.146	16.793	800.028	604.646
390.161	16.717	799.891	604.217
391.175	16.841	798.963	603.905
392.190	16.722	799.204	603.612
393.205	16.677	798.723	603.034
394.219	16.755	798.210	602.870
395.234	16.844	797.225	602.389
396.248	16.751	797.128	601.933
397.263	16.760	796.485	601.425
398.278	16.728	795.919	600.832
399.292	16.683	795.735	600.481
400.307	16.713	795.451	600.321
401.321	16.738	794.816	599.876
402.336	16.842	794.209	599.730
403.350	16.792	794.209	599.502
404.365	16.790	793.820	599.150
405.380	16.801	793.069	598.566
406.394	17.052	792.836	599.225
407.409	17.110	792.200	598.896
408.423	17.109	791.436	598.261
409.438	17.156	791.467	598.398
410.453	16.968	791.488	597.697
411.467	17.203	790.381	597.635
412.482	17.188	789.956	597.210
413.496	17.237	789.647	597.095
414.511	17.138	789.205	596.359
415.526	17.327	788.569	596.491
416.540	17.250	788.360	596.008
417.555	17.315	788.237	596.091
418.569	17.228	787.638	595.281
419.584	17.224	787.363	595.008
420.599	17.417	786.654	595.093
421.613	108.609	1291.348	1468.830
422.628	93.049	1364.870	1468.906
