DTS Sentinel unit serial number:	SN413079Multiplexer serial number:	ORYXHardware model number:	OX4-SRSoftware version number:	ORYX F/W v4.00 Oryx Data Collector v3.7.2.0data status	okinstallation	princeton_trtdifferential loss correction	single-endedforward channel	channel 3reverse channel	N/Adate	2019/09/12time	19:10:04forward acquisition time	15.00reverse acquisition time	0.00gamma	496.2192k internal	0.2320k external	0.2320temperature offset calibration	1.0101default loss term (dB/km)	0.3790temperature slope calibration	1.0000multiplexer offset coefficient	1.0000multiplexer slope coefficient	1.0000fibre end	0.00T internal ref (°C)	32.62T ext. ref 1 (°C)	3.21T ext. ref 2 (°C)	27.25length (m)	temperature (°C)	Stokes	anti-Stokes-747.200	800.000	0.085	0.328
-746.185	31.846	-0.725	0.631
-745.171	-200.000	-0.028	0.358
-744.156	96.806	-0.622	0.721
-743.142	168.615	0.147	0.211
-742.127	-28.287	0.796	0.465
-741.112	47.914	0.519	0.490
-740.098	-117.418	0.250	-0.046
-739.083	261.836	0.183	0.321
-738.069	324.453	-0.291	-0.562
-737.054	-200.000	-0.144	0.672
-736.039	-55.767	-0.529	0.239
-735.025	706.281	-0.090	0.241
-734.010	127.779	-0.640	-0.822
-732.996	276.215	-0.210	-0.378
-731.981	27.255	0.466	-0.396
-730.966	158.358	-0.542	-0.760
-729.952	-200.000	0.056	-0.449
-728.937	-200.000	0.062	0.412
-727.923	-200.000	-0.061	0.686
-726.908	-169.148	-0.650	0.024
-725.894	59.814	0.599	0.597
-724.879	-91.716	-0.190	0.055
-723.864	456.937	-0.244	0.547
-722.850	-18.127	0.379	-0.240
-721.835	125.171	0.096	0.123
-720.821	10.594	-0.054	-0.041
-719.806	17.062	0.136	-0.109
-718.791	-111.080	0.148	-0.031
-717.777	-114.681	0.185	0.036
-716.762	-43.486	0.464	-0.237
-715.748	90.758	0.163	0.185
-714.733	-200.000	-0.069	0.768
-713.718	289.198	-0.141	-0.258
-712.704	-200.000	-0.050	-1.003
-711.689	652.087	0.155	0.402
-710.675	132.455	0.589	-0.767
-709.660	28.442	-0.461	-0.394
-708.645	-23.984	-0.155	-0.093
-707.631	435.089	-0.383	-0.840
-706.616	-200.000	-0.085	0.547
-705.602	382.573	0.152	-0.315
-704.587	173.534	-0.259	-0.377
-703.572	-103.605	-0.717	0.170
-702.558	-147.790	0.957	-0.081
-701.543	295.809	0.319	-0.591
-700.529	146.436	-0.307	0.416
-699.514	356.805	0.352	-0.708
-698.499	751.620	0.122	-0.333
-697.485	506.036	-0.292	-0.683
-696.470	-87.424	0.049	-0.015
-695.456	-136.423	-0.406	0.048
-694.441	800.000	-0.077	-0.310
-693.426	160.102	-0.361	-0.507
-692.412	-12.138	-0.265	-0.175
-691.397	307.827	0.234	-0.441
-690.383	82.994	-0.097	0.107
-689.368	318.540	0.249	-0.476
-688.354	800.000	0.091	-0.310
-687.339	-9.253	-0.667	-0.450
-686.324	-200.000	0.096	0.445
-685.310	-200.000	0.003	-0.288
-684.295	-64.238	-0.606	0.249
-683.281	-200.000	0.381	-0.001
-682.266	-200.000	0.021	0.206
-681.251	-182.706	0.590	-0.011
-680.237	209.765	-0.402	0.636
-679.222	-200.000	0.079	-0.543
-678.208	-44.697	0.490	0.247
-677.193	800.000	0.213	-0.693
-676.178	267.750	-0.190	-0.336
-675.164	-93.425	0.570	-0.159
-674.149	-200.000	-0.028	-0.310
-673.135	-136.918	0.337	0.039
-672.120	-200.000	0.077	0.792
-671.105	115.346	-0.295	-0.363
-670.091	-200.000	-0.054	0.284
-669.076	23.575	0.240	0.199
-668.062	-70.568	0.769	-0.293
-667.047	-200.000	-0.075	0.636
-666.032	800.000	-0.121	-0.349
-665.018	34.597	-0.568	-0.500
-664.003	800.000	-0.244	0.816
-662.989	800.000	0.028	0.079
-661.974	-59.172	-0.664	0.289
-660.959	-11.599	0.522	-0.346
-659.945	505.561	0.403	-0.940
-658.930	143.316	-0.337	-0.452
-657.916	-85.198	0.224	-0.071
-656.901	29.284	0.595	-0.509
-655.886	-147.348	0.555	0.047
-654.872	-136.027	1.214	0.144
-653.857	250.067	-0.433	0.740
-652.843	224.421	-0.291	-0.473
-651.828	131.432	-0.562	0.728
-650.814	94.606	0.580	0.664
-649.799	144.030	-0.168	-0.226
-648.784	-60.236	-0.238	-0.102
-647.770	-76.034	-0.821	-0.292
-646.755	-200.000	-0.008	-0.039
-645.741	-59.496	0.519	0.225
-644.726	-112.140	-0.495	0.100
-643.711	800.000	-0.154	-0.571
-642.697	-200.000	0.017	0.460
-641.682	-181.290	-0.185	0.004
-640.668	-68.358	-0.297	0.116
-639.653	-0.234	0.306	-0.219
-638.638	-61.239	0.103	-0.044
-637.624	800.000	-0.250	-0.749
-636.609	-200.000	0.012	-0.816
-635.595	10.539	0.093	0.071
-634.580	-43.937	0.565	-0.286
-633.565	78.001	0.346	-0.371
-632.551	234.052	-0.224	-0.371
-631.536	42.404	-0.513	-0.470
-630.522	-200.000	-0.009	0.342
-629.507	39.582	-0.870	0.786
-628.492	308.464	0.079	-0.148
-627.478	-200.000	-0.038	-0.517
-626.463	-141.697	-0.724	0.073
-625.449	-21.245	0.530	0.326
-624.434	405.652	-0.109	0.231
-623.419	-13.145	-0.497	0.325
-622.405	367.884	0.165	0.336
-621.390	11.373	-0.803	-0.619
-620.376	186.203	0.594	-0.890
-619.361	16.046	-0.685	-0.543
-618.346	155.530	0.443	-0.614
-617.332	-123.181	-0.196	-0.032
-616.317	-159.732	-0.897	-0.050
-615.303	506.891	0.137	-0.319
-614.288	65.092	0.672	0.684
-613.273	-75.824	-0.281	-0.100
-612.259	330.709	-0.517	1.003
-611.244	63.132	-0.315	-0.318
-610.230	-4.972	-0.675	0.467
-609.215	189.505	0.239	-0.361
-608.201	-20.616	-0.629	-0.389
-607.186	-87.675	-0.741	-0.225
-606.171	31.447	0.801	-0.692
-605.157	-96.893	0.364	0.096
-604.142	58.836	0.314	0.310
-603.128	74.177	-0.055	-0.058
-602.113	-200.000	0.087	-0.403
-601.098	161.985	0.586	0.826
-600.084	72.506	-0.020	0.021
-599.069	800.000	-0.290	0.822
-598.055	24.548	0.453	0.377
-597.040	226.339	0.177	-0.290
-596.025	425.491	0.240	0.520
-595.011	95.908	-0.822	0.944
-593.996	-200.000	-0.039	-0.429
-592.982	15.678	0.178	-0.140
-591.967	-117.030	0.870	0.160
-590.952	54.101	0.346	-0.335
-589.938	296.561	-0.348	0.641
-588.923	317.982	0.253	0.480
-587.909	-166.199	0.858	0.036
-586.894	243.009	0.044	-0.073
-585.879	800.000	-0.219	0.948
-584.865	127.295	-0.406	0.517
-583.850	-133.150	0.289	0.037
-582.836	258.993	-0.452	0.783
-581.821	176.516	-0.518	-0.756
-580.806	151.028	-0.242	-0.331
-579.792	-49.495	-0.400	-0.191
-578.777	-200.000	-0.037	0.354
-577.763	-42.254	-0.625	-0.321
-576.748	-200.000	-0.019	-0.102
-575.733	-125.453	0.796	0.122
-574.719	800.000	0.119	0.370
-573.704	-52.652	0.753	-0.349
-572.690	-57.624	-0.650	-0.286
-571.675	53.548	-0.533	-0.513
-570.661	725.480	0.041	-0.110
-569.646	99.578	0.649	-0.754
-568.631	-89.190	-0.478	0.142
-567.617	-182.562	-0.177	0.003
-566.602	170.432	0.382	0.550
-565.588	-200.000	0.088	-0.536
-564.573	60.771	-0.100	0.100
-563.558	-200.000	0.006	-0.203
-562.544	-200.000	0.721	0.003
-561.529	-5.641	0.474	0.326
-560.515	-70.250	-0.259	-0.099
-559.500	8.879	-1.049	0.795
-558.485	800.000	-0.064	-0.183
-557.471	800.000	-0.126	0.416
-556.456	-144.060	1.113	0.105
-555.442	800.000	0.145	-0.489
-554.427	-200.000	-0.054	0.541
-553.412	179.946	-0.215	-0.316
-552.398	148.960	-0.238	0.323
-551.383	-74.359	0.773	0.280
-550.369	79.728	-0.254	-0.274
-549.354	800.000	0.105	0.314
-548.339	-147.503	0.889	-0.075
-547.325	800.000	0.300	0.958
-546.310	249.451	0.294	0.500
-545.296	-200.000	0.010	-0.167
-544.281	-120.264	0.812	-0.139
-543.266	-67.819	-0.622	0.244
-542.252	652.760	-0.057	-0.146
-541.237	266.915	-0.297	0.521
-540.223	-10.917	0.301	0.199
-539.208	-185.759	-1.175	0.018
-538.193	-200.000	0.100	1.035
-537.179	-178.246	0.383	-0.009
-536.164	-200.000	-0.032	0.471
-535.150	109.008	-0.267	0.321
-534.135	565.366	0.281	0.685
-533.121	-64.781	0.369	0.150
-532.106	-200.000	-0.007	-0.115
-531.091	-146.537	-0.319	0.028
-530.077	800.000	0.242	1.002
-529.062	91.543	0.172	0.193
-528.048	97.957	-0.349	-0.402
-527.033	-200.000	0.015	0.253
-526.018	54.015	-0.270	-0.260
-525.004	654.643	-0.326	0.839
-523.989	-6.915	-0.431	0.293
-522.975	-200.000	-0.055	-0.937
-521.960	-155.308	0.097	0.006
-520.945	-72.346	0.523	0.194
-519.931	800.000	-0.194	0.579
-518.916	272.777	-0.216	-0.382
-517.902	-200.000	0.013	-0.079
-516.887	-108.408	-0.722	-0.156
-515.872	-18.718	-0.214	-0.134
-514.858	-32.413	0.226	-0.127
-513.843	-48.882	0.379	-0.182
-512.829	-177.308	-0.230	-0.006
-511.814	-200.000	0.091	-1.021
-510.799	342.092	-0.465	-0.911
-509.785	159.568	-0.112	0.156
-508.770	800.000	0.187	0.557
-507.756	77.143	-0.243	-0.259
-506.741	-17.294	-0.550	-0.347
-505.726	26.673	-0.216	-0.181
-504.712	800.000	0.229	-0.728
-503.697	91.948	-0.413	-0.466
-502.683	132.810	0.162	-0.209
-501.668	-119.758	-0.277	0.048
-500.653	-125.382	0.878	-0.134
-499.639	-200.000	-0.028	0.370
-498.624	800.000	0.277	-0.773
-497.610	88.634	0.524	-0.583
-496.595	14.768	-0.893	-0.699
-495.581	-200.000	0.332	0.000
-494.566	27.033	0.506	0.425
-493.551	800.000	-0.209	-0.605
-492.537	-136.735	0.645	-0.074
-491.522	-65.538	0.766	-0.308
-490.508	205.750	-0.118	-0.184
-489.493	-64.262	0.319	0.130
-488.478	800.000	0.308	1.048
-487.464	-200.000	-0.025	0.275
-486.449	85.158	0.336	0.369
-485.435	30.285	-0.096	-0.082
-484.420	-40.580	-0.457	-0.238
-483.405	-200.000	-0.011	0.104
-482.391	17.720	-0.396	-0.316
-481.376	-51.299	-0.560	0.263
-480.362	-17.059	-0.338	-0.214
-479.347	800.000	-0.055	-0.164
-478.332	-200.000	0.153	0.707
-477.318	-17.096	0.437	0.276
-476.303	800.000	-0.149	0.594
-475.289	715.087	0.108	0.286
-474.274	-138.242	-0.231	-0.026
-473.259	800.000	0.012	0.038
-472.245	-63.679	0.383	-0.157
-471.230	49.494	0.189	-0.178
-470.216	-174.232	-0.383	0.011
-469.201	-200.000	-0.005	0.305
-468.186	-200.000	-0.028	0.525
-467.172	-54.555	0.912	0.413
-466.157	-57.054	0.087	-0.038
-465.143	-0.646	-0.609	-0.432
-464.128	21.269	0.616	-0.500
-463.113	-103.457	0.367	0.086
-462.099	800.000	-0.312	0.997
-461.084	-53.834	0.226	0.103
-460.070	-21.787	0.166	-0.101
-459.055	104.826	-0.170	-0.200
-458.040	-143.832	0.344	-0.033
-457.026	281.687	0.191	0.343
-456.011	800.000	0.053	-0.201
-454.997	532.492	0.040	-0.096
-453.982	-157.052	0.460	0.028
-452.968	-107.294	-0.746	-0.164
-451.953	-11.243	0.140	0.092
-450.938	64.972	0.609	-0.615
-449.924	109.091	0.222	0.265
-448.909	-200.000	0.041	-0.511
-447.895	1.067	0.361	0.259
-446.880	-115.776	-0.120	-0.022
-445.865	800.000	0.263	0.802
-444.851	21.951	0.292	-0.238
-443.836	31.340	-0.272	0.234
-442.822	370.621	0.240	-0.486
-441.807	26.328	-0.415	-0.347
-440.792	-20.186	0.394	0.243
-439.778	-52.542	0.723	0.334
-438.763	193.529	-0.429	0.649
-437.749	-150.562	-0.406	0.031
-436.734	84.425	0.131	-0.143
-435.719	219.039	-0.492	-0.786
-434.705	-88.951	1.094	0.324
-433.690	-200.000	-0.084	-0.501
-432.676	-200.000	-0.043	-0.733
-431.661	275.971	-0.318	-0.564
-430.646	-8.485	0.517	0.347
-429.632	46.817	-0.425	0.395
-428.617	320.772	0.304	0.576
-427.603	454.387	-0.169	0.373
-426.588	68.349	-0.112	-0.115
-425.573	-200.000	-0.035	-0.574
-424.559	-200.000	-0.090	-0.433
-423.544	-175.687	0.134	0.004
-422.530	-200.000	0.127	-0.920
-421.515	800.000	0.038	-0.119
-420.500	-197.389	-1.236	-0.008
-419.486	119.425	0.676	0.835
-418.471	800.000	-0.152	0.440
-417.457	-200.000	-0.118	0.572
-416.442	800.000	-0.145	0.496
-415.428	27.664	0.281	0.236
-414.413	-129.228	-0.418	0.058
-413.398	800.000	-0.248	-0.951
-412.384	300.872	-0.319	0.588
-411.369	132.370	0.172	-0.221
-410.355	-31.166	0.734	-0.413
-409.340	498.759	0.327	-0.753
-408.325	-94.395	0.651	0.177
-407.311	24.039	-0.459	0.378
-406.296	-29.424	-0.493	0.282
-405.282	-102.223	-0.536	0.129
-404.267	23.889	0.238	0.196
-403.252	-119.587	0.827	0.143
-402.238	-200.000	-0.064	0.562
-401.223	214.157	0.063	-0.100
-400.209	24.862	0.845	-0.699
-399.194	800.000	-0.265	-0.949
-398.179	-200.000	0.140	-0.751
-397.165	5.465	1.185	0.873
-396.150	-134.851	0.455	0.055
-395.136	407.990	-0.284	0.599
-394.121	-200.000	-0.209	-0.938
-393.106	-159.197	0.427	0.024
-392.092	800.000	0.107	-0.297
-391.077	-200.000	0.014	-0.368
-390.063	-200.000	0.055	-0.433
-389.048	-32.767	0.725	0.402
-388.033	-14.313	0.226	0.145
-387.019	-104.200	1.144	0.265
-386.004	301.885	0.407	0.750
-384.990	-180.762	-0.881	-0.018
-383.975	187.234	-0.085	0.127
-382.960	110.482	0.173	0.208
-381.946	59.251	-0.116	0.114
-380.931	22.042	-0.591	-0.481
-379.917	-200.000	-0.005	0.127
-378.902	194.509	-0.192	0.290
-377.888	391.530	-0.029	-0.061
-376.873	800.000	-0.090	-0.254
-375.858	-80.655	-0.953	0.316
-374.844	-177.588	1.193	-0.029
-373.829	362.356	0.150	-0.300
-372.815	274.161	0.409	0.721
-371.800	9.964	-0.714	-0.540
-370.785	-200.000	0.044	0.950
-369.771	24.881	-0.323	-0.267
-368.756	11.236	-0.584	-0.446
-367.742	-200.000	-0.126	-0.562
-366.727	-105.293	-0.459	0.104
-365.712	-103.565	-0.329	0.077
-364.698	-116.558	-0.646	0.119
-363.683	-154.131	-0.599	0.040
-362.669	-19.957	-0.463	-0.285
-361.654	282.872	-0.038	-0.069
-360.639	285.037	-0.250	-0.450
-359.625	-200.000	0.029	-0.834
-358.610	-38.381	0.335	0.177
-357.596	-27.758	0.285	0.165
-356.581	75.939	0.050	-0.052
-355.566	-200.000	0.093	0.470
-354.552	-94.076	0.788	-0.215
-353.537	800.000	-0.201	-0.829
-352.523	218.781	-0.170	-0.270
-351.508	555.650	-0.259	0.622
-350.493	89.131	-0.413	0.458
-349.479	-200.000	0.069	0.391
-348.464	-99.420	0.642	0.161
-347.450	-48.311	-1.010	0.485
-346.435	74.916	-0.243	0.255
-345.420	9.740	-0.171	-0.129
-344.406	559.794	-0.309	-0.742
-343.391	512.990	0.166	0.385
-342.377	800.000	0.239	0.756
-341.362	-126.708	-0.150	-0.022
-340.348	322.692	0.332	0.630
-339.333	-103.078	0.454	-0.107
-338.318	-200.000	0.002	0.398
-337.304	-91.569	0.840	0.238
-336.289	243.848	0.464	-0.775
-335.275	-42.506	-0.329	0.167
-334.260	126.936	-0.148	0.186
-333.245	377.358	-0.181	0.368
-332.231	800.000	0.310	-1.040
-331.216	-123.235	0.648	-0.103
-330.202	-5.780	-0.575	0.392
-329.187	536.166	0.141	0.333
-328.172	-200.000	-0.063	-0.621
-327.158	62.584	0.564	-0.561
-326.143	800.000	-0.214	-0.671
-325.129	376.430	0.100	-0.203
-324.114	800.000	0.161	-0.698
-323.099	-13.590	-0.674	0.434
-322.085	-94.926	-0.172	-0.046
-321.070	126.225	0.089	0.112
-320.056	579.186	0.384	0.935
-319.041	-200.000	-0.008	0.108
-318.026	-141.184	0.555	0.056
-317.012	-200.000	0.050	-0.558
-315.997	50.029	-0.377	-0.354
-314.983	800.000	-0.057	0.163
-313.968	-1.487	-0.384	0.269
-312.953	-183.063	-0.676	-0.012
-311.939	-4.642	0.513	0.352
-310.924	606.130	-0.211	-0.522
-309.910	-200.000	0.149	-1.391
-308.895	-89.968	-0.161	-0.047
-307.880	578.749	-0.257	0.625
-306.866	-31.173	-0.293	-0.164
-305.851	-19.204	0.896	-0.553
-304.837	-123.621	-0.194	-0.031
-303.822	76.111	-0.370	0.389
-302.807	-200.000	-0.051	0.360
-301.793	-149.353	-1.044	0.083
-300.778	-75.965	0.599	0.211
-299.764	86.883	0.255	0.280
-298.749	638.440	0.355	-0.897
-297.735	6.188	-0.307	-0.226
-296.720	428.024	0.349	0.749
-295.705	-104.226	-0.384	-0.089
-294.691	13.873	0.853	-0.659
-293.676	263.792	-0.274	-0.474
-292.662	-138.478	-0.751	0.082
-291.647	-163.296	1.250	0.059
-290.632	207.511	-0.295	-0.457
-289.618	-200.000	-0.114	-0.661
-288.603	164.893	0.478	0.671
-287.589	-99.540	0.691	-0.173
-286.574	46.106	-0.159	-0.147
-285.559	4.228	-0.348	0.253
-284.545	269.265	0.536	0.935
-283.530	-200.000	-0.076	0.667
-282.516	-54.666	-0.346	0.155
-281.501	-200.000	0.059	-0.589
-280.486	97.352	0.515	0.587
-279.472	72.876	-0.348	0.361
-278.457	202.512	-0.081	-0.124
-277.443	475.411	0.110	-0.247
-276.428	172.858	-0.375	-0.537
-275.413	66.353	0.074	0.075
-274.399	7.384	-0.161	-0.119
-273.384	106.249	-0.625	-0.736
-272.370	800.000	-0.219	0.741
-271.355	94.019	0.567	-0.639
-270.340	150.895	-0.232	0.314
-269.326	800.000	0.066	-0.223
-268.311	-90.483	-1.120	0.322
-267.297	-200.000	-0.043	0.502
-266.282	-17.845	0.619	0.385
-265.267	-64.464	0.268	0.108
-264.253	-165.851	0.908	-0.039
-263.238	-86.334	-0.510	0.156
-262.224	-154.190	0.419	0.028
-261.209	42.225	0.591	-0.533
-260.195	124.762	0.210	0.262
-259.180	66.268	0.197	-0.199
-258.165	38.745	-0.500	-0.443
-257.151	-200.000	0.113	-0.501
-256.136	-200.000	-0.002	-0.191
-255.122	411.518	-0.377	0.794
-254.107	44.891	-0.258	0.236
-253.092	-150.509	-0.853	-0.065
-252.078	800.000	-0.083	-0.280
-251.063	-86.662	-0.811	-0.246
-250.049	109.198	0.249	0.295
-249.034	209.000	0.030	0.046
-248.019	488.736	-0.282	-0.639
-247.005	0.303	-0.415	-0.294
-245.990	-200.000	-0.248	1.114
-244.976	244.295	-0.201	0.335
-243.961	800.000	0.118	-0.393
-242.946	-200.000	-0.153	0.674
-241.932	-114.267	0.263	-0.050
-240.917	35.434	0.651	0.567
-239.903	26.597	0.559	-0.464
-238.888	331.804	0.141	-0.270
-237.873	-142.635	-0.390	0.038
-236.859	-171.029	-0.725	-0.024
-235.844	-104.221	0.750	-0.173
-234.830	354.966	0.275	0.543
-233.815	-16.254	-0.300	0.189
-232.800	800.000	-0.017	-0.057
-231.786	-34.108	-0.480	-0.262
-230.771	-62.333	0.712	0.294
-229.757	260.842	0.257	-0.441
-228.742	127.129	-0.700	-0.881
-227.727	15.708	-0.806	-0.628
-226.713	-65.135	-0.216	0.086
-225.698	234.641	0.130	0.212
-224.684	10.836	-0.052	0.039
-223.669	-200.000	-0.051	0.526
-222.655	192.066	-0.222	-0.332
-221.640	263.567	-0.631	-1.087
-220.625	-171.439	-0.488	0.016
-219.611	-200.000	0.218	1.114
-218.596	260.542	0.525	0.900
-217.582	800.000	-0.197	-0.573
-216.567	-200.000	0.115	-0.614
-215.552	-162.471	-0.326	0.016
-214.538	386.978	-0.032	0.065
-213.523	500.419	-0.358	-0.818
-212.509	-65.070	-0.611	-0.244
-211.494	128.598	-0.189	0.238
-210.479	-93.837	0.428	-0.117
-209.465	-53.062	-0.201	-0.092
-208.450	200.957	0.315	0.481
-207.436	-200.000	0.357	0.000
-206.421	32.570	0.793	-0.679
-205.406	-200.000	-0.064	0.386
-204.392	212.394	-0.274	0.428
-203.377	-200.000	0.110	0.561
-202.363	-84.541	-0.541	0.169
-201.348	182.654	-0.118	0.172
-200.333	77.135	0.308	-0.324
-199.319	-109.615	-0.552	0.115
-198.304	-200.000	-0.427	-0.002
-197.290	-134.906	0.334	0.040
-196.275	129.054	-0.197	0.249
-195.260	58.894	0.195	-0.190
-194.246	-37.878	0.403	-0.212
-193.231	217.586	0.223	-0.351
-192.217	-200.000	-0.134	0.628
-191.202	591.254	0.215	-0.524
-190.187	-200.000	-0.181	-0.789
-189.173	75.301	0.010	-0.010
-188.158	-98.462	0.871	-0.220
-187.144	-90.443	0.464	0.133
-186.129	-200.000	-0.044	0.204
-185.114	148.248	0.390	-0.521
-184.100	-49.407	-0.518	-0.244
-183.085	800.000	-0.117	-0.501
-182.071	-200.000	0.160	-1.100
-181.056	203.959	-0.408	0.625
-180.042	161.085	0.280	0.388
-179.027	800.000	0.160	0.502
-178.012	386.821	-0.237	0.485
-176.998	-136.579	0.817	-0.094
-175.983	-111.744	-1.068	0.214
-174.969	800.000	0.043	-0.137
-173.954	-154.469	1.108	-0.073
-172.939	-1.622	0.402	0.280
-171.925	668.506	0.087	-0.221
-170.910	800.000	0.214	-0.659
-169.896	64.837	0.300	-0.299
-168.881	800.000	-0.047	0.195
-167.866	800.000	-0.207	0.858
-166.852	800.000	0.138	0.515
-165.837	-2.485	-0.324	-0.225
-164.823	-200.000	-0.065	0.323
-163.808	43.007	0.181	0.164
-162.793	800.000	0.097	-0.292
-161.779	-52.085	0.456	-0.209
-160.764	227.825	0.333	-0.536
-159.750	78.718	-1.124	1.188
-158.735	-176.473	-0.298	-0.008
-157.720	144.851	0.191	0.253
-156.706	-28.353	-0.624	-0.356
-155.691	375.303	-0.386	-0.777
-154.677	-160.198	0.375	0.020
-153.662	294.392	-0.207	0.374
-152.647	64.569	0.416	0.415
-151.633	-121.655	-0.239	0.039
-150.618	79.647	-0.417	-0.442
-149.604	64.154	0.139	0.139
-148.589	223.708	-0.132	-0.211
-147.574	20.283	-0.507	0.404
-146.560	-12.001	0.925	0.599
-145.545	146.701	-0.273	0.363
-144.531	110.419	-0.580	-0.688
-143.516	-51.797	0.558	0.257
-142.502	109.061	-0.253	-0.299
-141.487	-125.679	-0.174	-0.026
-140.472	505.421	0.287	-0.656
-139.458	-200.000	-0.054	0.345
-138.443	-106.120	-0.683	0.152
-137.429	-138.841	-0.479	-0.052
-136.414	-32.894	-0.235	0.129
-135.399	210.817	-0.171	-0.265
-134.385	-200.000	-0.016	-0.343
-133.370	-200.000	0.628	-0.001
-132.356	524.684	0.239	-0.554
-131.341	47.894	-0.322	0.297
-130.326	-107.079	0.334	-0.073
-129.312	25.446	0.786	0.645
-128.297	-200.000	-0.107	0.621
-127.283	-87.357	0.149	0.045
-126.268	-200.000	-0.210	0.986
-125.253	-200.000	-0.035	0.550
-124.239	-86.907	-0.271	0.082
-123.224	-107.144	0.407	0.089
-122.210	-43.934	0.234	-0.116
-121.195	131.618	-0.354	-0.449
-120.180	567.214	-0.140	-0.335
-119.166	-200.000	0.043	0.359
-118.151	-59.184	0.676	0.288
-117.137	80.952	0.421	-0.449
-116.122	-200.000	-0.078	0.738
-115.107	96.423	0.282	0.318
-114.093	-84.089	-0.256	0.080
-113.078	-120.606	0.932	0.156
-112.064	-8.853	-0.122	-0.081
-111.049	-86.249	-0.418	0.127
-110.034	-22.223	0.212	-0.127
-109.020	-154.621	0.358	-0.024
-108.005	-103.904	-0.588	0.135
-106.991	-117.189	0.835	0.150
-105.976	-83.406	-0.367	0.116
-104.962	-173.111	0.181	0.005
-103.947	0.477	0.411	-0.290
-102.932	16.784	-0.161	0.126
-101.918	156.768	0.190	-0.258
-100.903	561.488	0.090	0.214
-99.889	-90.582	-0.436	-0.124
-98.874	-82.131	-0.776	-0.249
-97.859	-88.277	-0.871	0.257
-96.845	-142.349	0.287	0.028
-95.830	-200.000	-0.017	0.273
-94.816	-7.722	-0.632	0.421
-93.801	26.930	0.612	0.506
-92.786	-200.000	0.105	-1.105
-91.772	433.512	-0.213	-0.457
-90.757	-200.000	-0.044	1.146
-89.743	-132.739	-1.531	0.193
-88.728	331.089	-0.117	-0.222
-87.713	-57.947	0.909	-0.391
-86.699	340.577	0.207	-0.398
-85.684	263.294	0.184	0.315
-84.670	-164.678	0.934	0.042
-83.655	-114.513	1.354	-0.256
-82.640	-130.545	-0.413	0.055
-81.626	72.733	-0.248	0.255
-80.611	-88.343	0.630	0.185
-79.597	-18.403	-0.309	-0.190
-78.582	56.415	0.206	-0.197
-77.567	415.316	-0.197	-0.414
-76.553	-156.193	-0.312	-0.019
-75.538	675.997	-0.262	-0.671
-74.524	87.823	0.416	-0.454
-73.509	-51.403	1.194	0.550
-72.494	-28.029	-0.749	-0.427
-71.480	261.984	-0.194	0.332
-70.465	-62.294	0.177	0.073
-69.451	-183.304	0.391	-0.007
-68.436	800.000	0.130	0.473
-67.422	-127.910	-0.387	0.055
-66.407	-146.433	-0.329	0.028
-65.392	-77.584	0.767	0.262
-64.378	29.588	-0.686	-0.575
-63.363	262.566	-0.030	0.051
-62.349	-44.362	0.273	-0.135
-61.334	-8.897	-0.965	-0.637
-60.319	105.726	0.584	0.680
-59.305	-57.796	-0.282	-0.121
-58.290	800.000	0.457	1.538
-57.276	-200.000	0.477	2.346
-56.261	-200.000	94.300	588.149
-55.246	680.150	1353.326	3468.997
-54.232	204.472	2515.656	3839.662
-53.217	118.535	2141.578	2602.333
-52.203	43.195	1694.554	1522.764
-51.188	35.726	1508.529	1305.088
-50.173	33.452	1482.376	1267.221
-49.159	53.927	1533.096	1450.268
-48.144	54.633	1550.683	1471.647
-47.130	35.879	1510.470	1307.599
-46.115	32.971	1495.899	1275.333
-45.100	32.544	1491.726	1268.851
-44.086	32.747	1490.663	1269.260
-43.071	32.573	1489.062	1266.674
-42.057	32.459	1488.160	1265.095
-41.042	32.579	1485.947	1263.970
-40.027	32.643	1484.711	1263.295
-39.013	32.540	1482.562	1260.726
-37.998	32.415	1481.955	1259.326
-36.984	32.413	1481.490	1258.867
-35.969	32.455	1479.117	1257.083
-34.954	32.666	1477.652	1257.194
-33.940	32.679	1475.826	1255.678
-32.925	32.398	1475.540	1253.509
-31.911	32.671	1472.976	1253.099
-30.896	32.701	1472.385	1252.742
-29.881	32.855	1470.556	1252.158
-28.867	32.812	1468.809	1250.341
-27.852	32.778	1467.726	1249.144
-26.838	32.700	1466.914	1247.887
-25.823	32.733	1465.329	1246.706
-24.809	32.703	1463.253	1244.689
-23.794	32.778	1461.985	1244.056
-22.779	32.605	1460.848	1241.901
-21.765	32.661	1460.081	1241.571
-20.750	32.536	1459.298	1240.034
-19.736	32.465	1458.429	1238.777
-18.721	32.729	1456.047	1238.436
-17.706	32.470	1455.472	1236.200
-16.692	32.639	1454.795	1236.684
-15.677	32.727	1453.148	1235.814
-14.663	32.620	1451.851	1233.962
-13.648	32.805	1451.069	1234.455
-12.633	32.432	1451.123	1232.014
-11.619	32.656	1449.590	1232.126
-10.604	32.834	1448.450	1232.270
-9.590	32.541	1447.953	1229.886
-8.575	32.869	1446.486	1230.731
-7.560	32.650	1446.348	1229.139
-6.546	32.486	1446.134	1227.832
-5.531	32.478	1444.249	1226.132
-4.517	32.544	1443.836	1226.165
-3.502	32.483	1442.643	1224.708
-2.487	32.719	1441.731	1225.417
-1.473	32.560	1440.292	1223.112
-0.458	32.529	1439.338	1222.052
0.556	33.470	1429.406	1209.270
1.571	30.522	1403.821	1169.011
2.586	26.787	1345.606	1097.868
3.600	25.192	1264.582	1022.580
4.615	23.614	1218.675	976.695
5.629	20.111	1162.682	913.315
6.644	11.352	1077.624	803.458
7.659	4.431	1036.737	740.016
8.673	3.527	1031.309	731.789
9.688	3.227	1026.911	727.185
10.702	3.042	1026.347	725.847
11.717	3.045	1023.885	724.059
12.731	6.198	1027.263	741.264
13.746	15.345	1039.507	793.484
14.761	22.744	1049.273	836.069
15.775	24.769	1050.281	846.388
16.790	24.572	1049.005	844.354
17.804	24.001	1049.364	841.867
18.819	23.865	1047.970	840.032
19.834	23.611	1047.471	838.358
20.848	23.686	1047.138	838.373
21.863	23.704	1047.597	838.752
22.877	23.833	1046.396	838.324
23.892	23.872	1045.068	837.366
24.907	23.742	1045.047	836.663
25.921	23.537	1043.945	834.744
26.936	23.945	1041.384	834.537
27.950	23.909	1040.252	833.386
28.965	23.410	1040.448	831.130
29.980	23.345	1039.504	829.999
30.994	23.565	1038.085	829.820
32.009	23.938	1037.339	830.894
33.023	24.132	1036.466	831.028
34.038	23.888	1036.102	829.522
35.053	23.798	1035.559	828.594
36.067	23.507	1034.958	826.685
37.082	23.470	1033.553	825.318
38.096	23.437	1034.194	825.604
39.111	23.939	1032.465	826.486
40.126	23.478	1032.624	824.393
41.140	23.598	1030.379	823.085
42.155	23.326	1028.622	820.350
43.169	23.109	1027.842	818.653
44.184	23.259	1027.627	819.102
45.199	23.228	1025.992	817.583
46.213	23.162	1024.590	816.088
47.228	23.267	1023.997	816.029
48.242	23.664	1023.839	817.657
49.257	23.524	1024.142	817.185
50.271	23.708	1022.543	816.682
51.286	23.626	1023.391	816.912
52.301	23.699	1022.523	816.479
53.315	23.688	1022.328	816.202
54.330	23.937	1020.017	815.428
55.344	23.772	1018.707	813.553
56.359	23.554	1018.925	812.656
57.374	23.822	1016.075	811.534
58.388	23.825	1016.353	811.699
59.403	23.291	1016.071	808.963
60.417	23.559	1013.778	808.288
61.432	23.394	1013.983	807.627
62.447	23.143	1013.982	806.408
63.461	23.024	1013.815	805.664
64.476	23.275	1011.370	804.789
65.490	23.322	1011.056	804.682
66.505	23.211	1010.204	803.428
67.520	23.060	1009.740	802.304
68.534	23.205	1009.662	802.828
69.549	23.342	1008.384	802.363
70.563	22.879	1006.837	798.965
71.578	22.665	1007.334	798.322
72.593	22.714	1005.444	796.975
73.607	22.441	1003.607	794.218
74.622	22.899	1001.829	794.799
75.636	22.678	1002.200	794.029
76.651	22.718	1002.130	794.085
77.666	22.803	1001.231	793.681
78.680	23.010	999.835	793.437
79.695	22.740	1000.024	792.305
80.709	22.425	999.447	790.365
81.724	22.898	998.801	791.901
82.739	23.173	997.049	791.674
83.753	23.129	997.049	791.409
84.768	23.526	995.559	791.926
85.782	23.611	996.955	793.349
86.797	24.130	995.771	794.653
87.812	24.089	994.932	793.728
88.826	24.306	993.197	793.242
89.841	23.780	993.292	790.903
90.855	24.123	992.431	791.676
91.870	23.874	991.562	789.808
92.884	24.140	990.924	790.410
93.899	23.917	990.474	788.992
94.914	24.037	988.925	788.216
95.928	24.044	987.426	786.987
96.943	24.448	987.288	788.588
97.957	23.874	986.143	785.074
98.972	23.742	985.847	784.187
99.987	23.661	984.801	782.928
101.001	24.126	983.566	783.922
102.016	23.476	984.641	781.844
103.030	24.290	982.255	783.461
104.045	23.740	981.247	780.172
105.060	23.599	981.580	779.747
106.074	23.898	979.962	779.703
107.089	23.859	979.736	779.283
108.103	23.611	978.208	776.913
109.118	23.744	977.291	776.701
110.133	23.158	975.971	773.021
111.147	23.151	974.497	771.758
112.162	22.875	974.082	770.155
113.176	22.934	973.347	769.762
114.191	23.040	972.132	769.195
115.206	23.182	971.303	769.089
116.220	23.057	970.976	768.220
117.235	22.915	970.419	767.092
118.249	22.863	969.855	766.355
119.264	23.008	967.733	765.237
120.279	22.544	967.295	762.815
121.293	22.589	966.129	762.024
122.308	22.822	964.897	761.991
123.322	22.419	964.818	760.120
124.337	22.592	963.368	759.657
125.352	22.424	962.954	758.538
126.366	22.360	962.190	757.593
127.381	22.545	960.988	757.375
128.395	22.742	959.939	757.326
129.410	23.270	959.065	758.834
130.424	22.994	958.801	757.378
131.439	23.106	957.382	756.665
132.454	23.287	956.956	757.038
133.468	23.459	955.980	756.934
134.483	23.361	955.862	756.357
135.497	23.283	954.900	755.192
136.512	23.521	953.953	755.393
137.527	23.603	953.591	755.387
138.541	23.718	952.056	754.592
139.556	23.264	951.999	752.553
140.570	23.330	951.684	752.515
141.585	23.851	950.761	753.930
142.600	24.048	949.425	753.639
143.614	23.923	949.515	753.114
144.629	24.155	948.772	753.438
145.643	24.088	948.683	753.020
146.658	24.083	946.751	751.400
147.673	23.776	946.377	749.741
148.687	23.438	945.768	747.767
149.702	23.416	944.455	746.570
150.716	23.474	943.243	745.788
151.731	23.653	941.999	745.491
152.746	23.223	942.019	743.635
153.760	23.946	941.231	745.980
154.775	24.153	939.099	745.090
155.789	24.019	938.710	744.155
156.804	23.915	939.089	743.955
157.819	23.956	937.266	742.616
158.833	23.686	937.731	741.790
159.848	23.482	937.464	740.663
160.862	23.981	936.208	741.685
161.877	23.848	935.154	740.232
162.892	23.567	934.450	738.439
163.906	23.649	931.447	736.339
164.921	23.475	932.351	736.269
165.935	23.235	931.421	734.474
166.950	23.396	929.317	733.416
167.964	23.651	930.081	735.008
168.979	23.739	928.508	734.062
169.994	23.586	927.358	732.457
171.008	23.567	925.893	731.156
172.023	24.021	924.796	732.095
173.037	24.225	924.029	732.261
174.052	24.221	924.340	732.428
175.067	23.620	924.337	729.888
176.081	23.674	922.420	728.534
177.096	23.485	920.169	725.917
178.110	22.988	920.508	724.084
179.125	22.868	919.742	722.925
180.140	23.146	919.021	723.434
181.154	23.310	917.408	722.768
182.169	23.223	917.572	722.479
183.183	23.579	917.907	724.130
184.198	23.979	917.538	725.408
185.213	23.766	915.870	723.159
186.227	23.846	915.912	723.452
187.242	24.066	915.191	723.713
188.256	23.985	914.474	722.751
189.271	24.040	913.670	722.278
190.286	24.116	913.593	722.459
191.300	23.689	911.480	718.997
192.315	23.247	910.557	716.418
193.329	22.554	910.064	713.161
194.344	23.115	908.511	714.148
195.359	23.009	908.448	713.609
196.373	23.437	908.918	715.643
197.388	23.456	909.271	715.933
198.402	23.982	907.871	716.886
199.417	24.036	908.201	717.301
200.432	24.241	907.454	717.473
201.446	24.626	906.626	718.304
202.461	24.576	906.279	717.765
203.475	24.477	906.209	717.246
204.490	24.086	905.643	715.164
205.504	23.442	903.973	711.200
206.519	23.627	904.225	712.078
207.534	23.828	903.279	712.077
208.548	23.563	902.517	710.350
209.563	23.685	901.657	710.099
210.577	23.899	900.680	710.123
211.592	23.769	901.452	710.147
212.607	23.989	900.157	709.944
213.621	24.330	900.491	711.503
214.636	24.206	898.902	709.693
215.650	23.968	898.650	708.483
216.665	24.125	897.500	708.138
217.680	24.050	897.762	707.985
218.694	24.132	896.879	707.552
219.709	24.232	896.287	707.416
220.723	24.273	895.629	706.999
221.738	23.815	894.211	704.003
222.753	23.620	894.435	703.344
223.767	23.872	892.807	703.000
224.782	23.898	892.101	702.484
225.796	23.948	892.180	702.680
226.811	24.400	891.255	703.674
227.826	24.337	891.183	703.303
228.840	24.039	888.674	700.090
229.855	23.663	888.669	698.546
230.869	23.627	888.159	697.941
231.884	23.474	887.908	697.081
232.899	23.570	887.469	697.051
233.913	23.701	886.529	696.766
234.928	23.932	885.620	696.896
235.942	23.636	885.041	695.220
236.957	23.444	884.630	694.084
237.972	23.372	883.204	692.622
238.986	23.310	882.882	692.066
240.001	23.326	882.721	691.941
241.015	23.192	881.764	690.605
242.030	23.769	880.072	691.465
243.045	23.480	881.084	691.074
244.059	23.939	880.295	692.179
245.074	23.831	879.681	691.218
246.088	23.682	879.003	690.045
247.103	23.621	879.516	690.150
248.117	24.119	878.579	691.284
249.132	24.438	878.361	692.292
250.147	24.671	877.983	692.834
251.161	24.939	877.661	693.557
252.176	25.201	876.933	693.933
253.190	25.163	876.141	693.099
254.205	24.984	875.627	691.940
255.220	25.175	875.316	692.370
256.234	24.709	874.740	690.057
257.249	24.816	873.718	689.600
258.263	24.866	873.656	689.682
259.278	24.913	872.918	689.222
260.293	24.715	872.230	687.853
261.307	24.722	872.150	687.758
262.322	24.941	870.486	687.227
263.336	24.622	871.659	686.863
264.351	24.802	870.802	686.820
265.366	24.574	869.245	684.657
266.380	24.719	867.992	684.165
267.395	25.150	867.702	685.525
268.409	24.994	867.896	685.018
269.424	24.841	866.740	683.460
270.439	24.767	866.779	683.150
271.453	24.871	865.850	682.754
272.468	24.726	864.043	680.716
273.482	24.529	865.082	680.724
274.497	24.721	863.862	680.434
275.512	24.712	863.384	679.962
276.526	24.693	862.361	679.025
277.541	24.698	861.895	678.617
278.555	24.750	861.488	678.433
279.570	25.132	860.541	679.078
280.585	25.029	860.320	678.452
281.599	24.975	859.608	677.626
282.614	24.408	859.574	675.394
283.628	24.248	858.763	674.090
284.643	24.243	857.563	673.070
285.657	24.555	856.544	673.388
286.672	24.403	857.141	673.223
287.687	24.481	855.755	672.369
288.701	24.513	855.629	672.334
289.716	24.827	855.139	673.070
290.730	24.496	854.697	671.418
291.745	24.615	853.804	671.104
292.760	24.677	852.526	670.273
293.774	24.626	852.693	670.152
294.789	25.141	853.094	672.341
295.803	25.397	851.906	672.300
296.818	24.899	851.776	670.275
297.833	24.678	851.547	669.209
298.847	24.786	849.564	667.995
299.862	24.476	850.368	667.410
300.876	24.716	848.652	666.899
301.891	25.144	847.889	667.835
302.906	25.377	847.961	668.701
303.920	25.057	847.221	666.868
304.935	25.558	846.227	667.887
305.949	25.732	845.509	667.905
306.964	25.337	845.923	666.707
307.979	25.219	845.863	666.163
308.993	24.897	844.569	663.891
310.008	24.847	843.583	662.874
311.022	25.175	843.851	664.241
312.037	25.171	843.663	664.017
313.052	25.045	842.875	662.872
314.066	24.794	841.430	660.750
315.081	24.305	841.375	658.841
316.095	24.372	839.903	657.880
317.110	24.617	839.443	658.365
318.125	24.712	839.647	658.817
319.139	24.322	839.302	657.050
320.154	24.247	837.099	654.990
321.168	23.917	837.597	654.110
322.183	24.134	837.094	654.454
323.197	24.312	836.862	654.871
324.212	24.432	836.251	654.773
325.227	24.499	835.465	654.348
326.241	24.648	834.560	654.124
327.256	24.277	834.074	652.332
328.270	24.151	834.332	652.012
329.285	24.192	833.685	651.597
330.300	24.320	832.469	651.057
331.314	24.335	831.438	650.251
332.329	23.965	831.848	649.163
333.343	24.288	831.838	650.277
334.358	24.918	830.425	651.405
335.373	24.762	830.077	650.508
336.387	25.130	828.405	650.476
337.402	25.082	829.187	650.858
338.416	25.123	828.046	650.053
339.431	25.325	829.318	651.728
340.446	25.142	828.365	650.258
341.460	25.962	827.966	652.858
342.475	25.708	826.766	650.936
343.489	25.772	827.009	651.301
344.504	25.663	826.161	650.182
345.519	25.736	825.970	650.239
346.533	25.883	825.255	650.145
347.548	25.802	825.529	650.011
348.562	25.334	824.581	647.520
349.577	25.599	823.697	647.725
350.592	25.429	822.288	645.947
351.606	25.310	822.841	645.897
352.621	25.217	821.366	644.349
353.635	25.358	820.893	644.426
354.650	25.337	820.529	644.007
355.665	25.017	820.219	642.559
356.679	24.854	819.785	641.580
357.694	24.750	820.014	641.329
358.708	25.344	818.252	642.017
359.723	24.882	818.934	640.844
360.738	24.732	817.594	639.201
361.752	24.737	817.004	638.700
362.767	25.042	816.575	639.397
363.781	25.465	817.060	641.231
364.796	25.480	816.744	640.979
365.810	25.684	816.294	641.297
366.825	26.090	814.883	641.577
367.840	25.580	815.744	640.380
368.854	25.816	814.552	640.228
369.869	25.443	813.954	638.377
370.883	25.226	813.415	637.126
371.898	25.232	812.515	636.385
372.913	25.165	812.240	635.878
373.927	25.703	811.504	637.150
374.942	25.779	809.753	635.988
375.956	25.775	809.881	636.017
376.971	25.738	809.625	635.628
377.986	25.966	809.783	636.502
379.000	25.939	808.768	635.554
380.015	25.609	808.478	634.106
381.029	25.308	808.814	633.251
382.044	25.852	807.377	633.985
383.059	25.726	807.929	633.920
384.073	25.873	807.463	634.015
385.088	25.891	806.117	632.966
386.102	25.336	805.310	630.326
387.117	25.330	804.487	629.605
388.132	25.230	802.978	628.018
389.146	25.269	802.474	627.706
390.161	25.184	802.491	627.366
391.175	25.415	802.544	628.162
392.190	26.441	801.890	631.175
393.205	25.819	801.869	628.932
394.219	25.370	801.171	626.762
395.234	25.252	799.524	625.007
396.248	24.794	798.181	622.309
397.263	25.014	799.079	623.720
398.278	25.135	799.428	624.360
399.292	25.017	798.562	623.217
400.307	24.662	797.132	620.812
401.321	24.671	796.885	620.595
402.336	24.681	796.662	620.404
403.350	25.108	796.459	621.669
404.365	26.006	796.137	624.476
405.380	25.685	795.992	623.197
406.394	25.969	796.418	624.456
407.409	26.104	796.194	624.692
408.423	26.170	796.296	624.948
409.438	26.248	795.156	624.266
410.453	26.278	794.941	624.147
411.467	26.450	794.146	624.061
412.482	26.134	793.113	622.103
413.496	26.026	793.263	621.796
414.511	26.122	792.958	621.830
415.526	26.094	792.135	621.034
416.540	26.000	791.660	620.285
417.555	25.988	792.105	620.534
418.569	26.047	790.364	619.322
419.584	26.073	790.885	619.764
420.599	26.269	789.942	619.642
421.613	160.313	1369.429	1793.162
422.628	138.805	1453.920	1793.185
