DTS Sentinel unit serial number:	SN413079Multiplexer serial number:	ORYXHardware model number:	OX4-SRSoftware version number:	ORYX F/W v4.00 Oryx Data Collector v3.7.2.0data status	okinstallation	princeton_trtdifferential loss correction	single-endedforward channel	channel 3reverse channel	N/Adate	2019/09/16time	09:40:35forward acquisition time	60.00reverse acquisition time	0.00gamma	496.2192k internal	0.2319k external	0.2319temperature offset calibration	0.9952default loss term (dB/km)	0.3790temperature slope calibration	1.0000multiplexer offset coefficient	1.0000multiplexer slope coefficient	1.0000fibre end	0.00T internal ref (°C)	32.36T ext. ref 1 (°C)	12.27T ext. ref 2 (°C)	30.38length (m)	temperature (°C)	Stokes	anti-Stokes-747.200	-17.924	0.144	0.092
-746.185	-81.794	-0.259	0.086
-745.171	584.527	0.131	-0.325
-744.156	151.737	-0.242	0.333
-743.142	-12.527	-0.203	-0.134
-742.127	800.000	-0.036	0.120
-741.112	-31.082	0.153	0.087
-740.098	-53.577	-0.265	0.123
-739.083	-92.595	-0.161	0.046
-738.069	-9.528	-0.017	-0.011
-737.054	-200.000	0.069	-0.312
-736.039	223.500	0.044	0.071
-735.025	64.401	-0.065	-0.067
-734.010	-200.000	-0.063	-0.336
-732.996	-200.000	-0.005	-0.200
-731.981	-200.000	-0.032	0.233
-730.966	289.098	-0.127	-0.233
-729.952	17.734	0.284	-0.229
-728.937	-200.000	-0.035	-0.370
-727.923	-143.171	-0.139	0.014
-726.908	-131.344	-0.281	0.038
-725.894	-81.686	0.092	0.030
-724.879	347.743	-0.130	0.259
-723.864	-109.566	0.236	0.050
-722.850	-59.947	-0.142	0.062
-721.835	132.531	-0.188	-0.245
-720.821	-71.963	-0.192	-0.072
-719.806	-200.000	0.003	-0.130
-718.791	-200.000	0.016	0.102
-717.777	12.886	-0.087	0.068
-716.762	-200.000	0.010	0.114
-715.748	-95.794	-0.138	-0.037
-714.733	-26.521	0.282	-0.167
-713.718	6.925	0.050	0.038
-712.704	-27.598	-0.070	-0.041
-711.689	625.753	-0.115	-0.294
-710.675	116.969	-0.198	-0.246
-709.660	-126.127	-0.143	-0.022
-708.645	-200.000	-0.045	-0.213
-707.631	250.255	0.140	0.240
-706.616	-49.691	0.146	-0.070
-705.602	25.883	0.099	-0.083
-704.587	-200.000	0.003	0.131
-703.572	-53.222	0.182	0.084
-702.558	-61.664	0.334	-0.141
-701.543	800.000	0.030	0.122
-700.529	-200.000	0.026	-0.210
-699.514	119.160	0.106	0.132
-698.499	375.598	0.075	0.155
-697.485	800.000	-0.076	-0.279
-696.470	478.289	-0.101	-0.230
-695.456	-101.054	0.325	0.080
-694.441	-19.559	0.094	0.059
-693.426	800.000	0.088	-0.288
-692.412	-76.614	0.227	0.080
-691.397	-107.640	0.086	0.019
-690.383	-34.631	0.471	-0.260
-689.368	800.000	-0.029	0.119
-688.354	800.000	0.058	-0.170
-687.339	110.995	-0.069	0.084
-686.324	189.255	0.042	-0.064
-685.310	800.000	-0.094	0.297
-684.295	-112.330	0.239	-0.048
-683.281	-20.872	-0.166	-0.103
-682.266	-200.000	-0.025	-0.195
-681.251	-56.667	0.327	-0.146
-680.237	712.586	-0.108	-0.289
-679.222	69.017	0.344	0.357
-678.208	-117.675	-0.296	0.054
-677.193	30.560	-0.179	-0.155
-676.178	295.394	-0.129	0.239
-675.164	281.471	-0.072	0.131
-674.149	-142.715	0.349	-0.034
-673.135	-119.654	-0.165	0.029
-672.120	331.412	0.092	-0.179
-671.105	-191.289	0.097	-0.001
-670.091	-135.369	0.232	0.028
-669.076	-114.497	-0.136	0.026
-668.062	800.000	-0.036	-0.119
-667.047	-117.260	0.188	0.034
-666.032	156.668	-0.010	-0.013
-665.018	-200.000	0.012	-0.100
-664.003	599.190	0.092	0.231
-662.989	-123.662	0.374	-0.060
-661.974	89.960	-0.136	0.153
-660.959	34.287	-0.081	0.072
-659.945	108.424	0.164	-0.197
-658.930	-86.911	0.109	-0.034
-657.916	-62.999	0.057	0.024
-656.901	-200.000	0.026	0.172
-655.886	215.550	0.058	0.092
-654.872	-41.443	0.054	0.028
-653.857	-77.527	-0.484	-0.169
-652.843	-8.102	0.170	0.116
-651.828	-200.000	-0.004	-0.065
-650.814	800.000	0.021	-0.060
-649.799	-89.710	0.198	0.059
-648.784	-18.545	-0.275	-0.173
-647.770	-136.254	0.291	0.034
-646.755	-200.000	0.027	0.212
-645.741	-174.749	-0.377	0.011
-644.726	-61.133	-0.154	0.066
-643.711	-43.402	0.313	0.160
-642.697	-85.776	0.202	0.063
-641.682	800.000	-0.018	-0.077
-640.668	800.000	0.110	-0.424
-639.653	-200.000	-0.021	-0.097
-638.638	79.830	0.281	0.304
-637.624	68.347	0.119	-0.123
-636.609	178.138	-0.119	0.176
-635.595	-130.276	-0.372	0.051
-634.580	353.196	-0.089	-0.178
-633.565	363.734	0.096	-0.194
-632.551	-200.000	-0.013	0.177
-631.536	-68.982	-0.354	-0.137
-630.522	17.849	-0.219	-0.175
-629.507	-53.277	0.267	0.123
-628.492	-200.000	0.013	-0.248
-627.478	-103.256	0.482	-0.115
-626.463	16.491	0.096	0.076
-625.449	117.102	-0.274	0.339
-624.434	197.664	-0.139	-0.213
-623.419	800.000	0.049	-0.168
-622.405	100.920	0.127	-0.149
-621.390	73.765	-0.124	0.131
-620.376	-3.137	-0.285	-0.200
-619.361	788.217	0.113	0.312
-618.346	-84.155	0.095	0.030
-617.332	-200.000	-0.040	-0.250
-616.317	32.888	-0.185	0.161
-615.303	397.968	0.114	-0.240
-614.288	-71.947	-0.194	-0.073
-613.273	-67.989	0.268	0.105
-612.259	-131.905	0.287	-0.038
-611.244	99.878	-0.197	0.230
-610.230	-68.838	-0.194	-0.075
-609.215	-64.044	-0.070	0.029
-608.201	76.812	-0.192	0.205
-607.186	-131.711	0.182	0.024
-606.171	-200.000	-0.024	-0.190
-605.157	-200.000	-0.018	0.152
-604.142	296.575	0.259	-0.477
-603.128	153.772	-0.105	-0.145
-602.113	-132.475	-0.089	-0.012
-601.098	144.700	0.212	-0.285
-600.084	-55.047	-0.300	0.136
-599.069	-200.000	-0.013	-0.319
-598.055	800.000	0.087	0.301
-597.040	-200.000	-0.054	-0.373
-596.025	-200.000	-0.001	-0.004
-595.011	-200.000	0.047	0.237
-593.996	-62.981	0.143	-0.059
-592.982	-115.710	-0.114	0.021
-591.967	103.571	-0.044	0.052
-590.952	800.000	-0.057	-0.235
-589.938	-200.000	-0.037	0.297
-588.923	800.000	-0.057	0.224
-587.909	-98.612	-0.525	-0.135
-586.894	800.000	-0.013	0.058
-585.879	800.000	0.061	-0.229
-584.865	29.629	-0.163	-0.139
-583.850	6.023	-0.189	-0.141
-582.836	-200.000	0.010	0.066
-581.821	77.827	-0.227	0.243
-580.806	-200.000	-0.041	-0.242
-579.792	-194.624	-0.276	-0.002
-578.777	-54.031	-0.303	0.138
-577.763	-30.052	0.053	-0.031
-576.748	-151.869	0.207	0.015
-575.733	-18.610	0.325	0.204
-574.719	223.121	-0.122	0.198
-573.704	330.903	-0.147	-0.284
-572.690	800.000	0.101	0.308
-571.675	-46.838	0.202	0.099
-570.661	-61.846	-0.432	-0.182
-569.646	-54.498	0.260	-0.118
-568.631	-200.000	-0.016	-0.394
-567.617	149.025	-0.067	0.091
-566.602	50.501	-0.056	0.053
-565.588	628.258	-0.035	-0.089
-564.573	26.643	0.113	-0.095
-563.558	-29.144	-0.111	0.064
-562.544	800.000	-0.042	-0.151
-561.529	17.917	-0.128	-0.103
-560.515	-77.135	0.225	-0.079
-559.500	-114.376	0.427	0.083
-558.485	-200.000	0.052	-0.389
-557.471	-9.665	0.025	0.017
-556.456	-116.791	-0.116	0.021
-555.442	15.907	0.162	0.128
-554.427	66.981	-0.164	-0.167
-553.412	-19.539	-0.308	-0.192
-552.398	-200.000	-0.037	-0.163
-551.383	565.985	0.070	-0.171
-550.369	-76.137	0.061	-0.022
-549.354	439.621	0.132	0.290
-548.339	-18.758	-0.120	0.075
-547.325	64.542	0.062	-0.063
-546.310	-50.285	0.517	0.245
-545.296	-40.845	0.406	0.211
-544.281	-13.783	-0.245	0.159
-543.266	294.516	-0.086	0.157
-542.252	-197.105	-0.402	0.003
-541.237	346.752	0.141	-0.279
-540.223	800.000	0.060	-0.241
-539.208	366.134	0.075	0.151
-538.193	342.030	-0.235	-0.461
-537.179	244.239	0.298	0.502
-536.164	309.334	-0.139	0.260
-535.150	2.176	-0.204	-0.148
-534.135	5.591	0.097	-0.072
-533.121	42.971	-0.242	0.222
-532.106	119.709	0.088	-0.109
-531.091	-79.861	0.447	-0.151
-530.077	-200.000	-0.028	0.322
-529.062	-200.000	-0.073	0.346
-528.048	-165.004	0.324	-0.014
-527.033	-47.304	0.283	-0.138
-526.018	142.718	-0.076	0.102
-525.004	123.912	-0.069	-0.087
-523.989	-38.122	-0.175	0.093
-522.975	324.169	0.065	0.124
-521.960	87.974	-0.260	-0.289
-520.945	-52.716	-0.063	-0.029
-519.931	800.000	-0.062	-0.211
-518.916	-4.321	0.144	-0.100
-517.902	381.013	-0.102	0.211
-516.887	81.643	0.106	0.115
-515.872	67.333	0.044	-0.045
-514.858	53.854	-0.111	-0.107
-513.843	-61.048	0.033	0.014
-512.829	314.428	0.147	0.278
-511.814	668.300	0.087	-0.227
-510.799	800.000	-0.042	-0.167
-509.785	-200.000	-0.010	0.092
-508.770	-200.000	-0.084	-0.481
-507.756	635.122	0.137	-0.348
-506.741	597.597	-0.027	-0.067
-505.726	-45.047	0.278	0.138
-504.712	800.000	-0.091	-0.301
-503.697	-28.086	0.172	0.100
-502.683	-200.000	-0.013	-0.061
-501.668	-7.995	-0.341	0.230
-500.653	-190.047	-0.248	-0.003
-499.639	34.313	0.056	-0.049
-498.624	800.000	0.034	-0.095
-497.610	800.000	0.093	0.279
-496.595	479.256	-0.044	-0.099
-495.581	-35.140	0.262	-0.143
-494.566	800.000	0.033	0.143
-493.551	124.360	-0.058	0.074
-492.537	-200.000	-0.009	-0.214
-491.522	0.403	0.083	0.059
-490.508	44.220	-0.094	-0.087
-489.493	-26.678	-0.068	0.040
-488.478	-200.000	0.007	-0.262
-487.464	-82.154	0.076	0.025
-486.449	-138.725	-0.123	-0.013
-485.435	-200.000	-0.011	0.082
-484.420	-32.739	0.080	-0.045
-483.405	171.531	-0.209	-0.300
-482.391	-99.163	-0.099	0.025
-481.376	177.720	0.018	-0.027
-480.362	-200.000	-0.005	0.190
-479.347	179.461	0.099	-0.146
-478.332	800.000	0.096	0.306
-477.318	-200.000	-0.028	0.231
-476.303	800.000	-0.067	0.229
-475.289	-100.472	0.352	0.087
-474.274	-200.000	-0.011	-0.075
-473.259	226.347	-0.092	0.150
-472.245	-200.000	-0.020	0.090
-471.230	-54.945	0.173	-0.078
-470.216	5.145	-0.420	0.310
-469.201	-62.672	0.399	-0.166
-468.186	107.143	-0.173	0.206
-467.172	-104.516	-0.215	-0.050
-466.157	44.063	-0.050	0.046
-465.143	-125.797	-0.334	0.051
-464.128	252.942	-0.107	-0.183
-463.113	800.000	0.066	0.214
-462.099	-45.970	0.219	0.108
-461.084	-97.274	0.158	-0.041
-460.070	51.000	0.194	0.184
-459.055	-200.000	0.000	0.005
-458.040	40.973	-0.137	-0.124
-457.026	-200.000	-0.045	0.358
-456.011	-200.000	-0.028	0.199
-454.997	258.399	0.080	-0.138
-453.982	447.831	0.195	-0.429
-452.968	-200.000	0.051	0.271
-451.953	-34.417	-0.151	-0.083
-450.938	230.591	-0.161	-0.264
-449.924	-200.000	-0.002	-0.097
-448.909	55.830	0.230	-0.223
-447.895	4.357	0.392	0.287
-446.880	615.319	0.096	0.240
-445.865	-163.338	-0.114	-0.005
-444.851	340.201	0.088	0.171
-443.836	238.860	0.070	-0.117
-442.822	-200.000	-0.002	-0.172
-441.807	71.809	-0.070	-0.072
-440.792	-200.000	-0.030	-0.149
-439.778	800.000	0.029	0.090
-438.763	-158.243	0.187	0.011
-437.749	82.475	-0.261	-0.283
-436.734	-147.374	-0.425	0.036
-435.719	-200.000	0.006	-0.266
-434.705	47.119	0.312	-0.291
-433.690	-63.651	0.093	-0.038
-432.676	-200.000	-0.014	-0.090
-431.661	154.783	0.261	0.359
-430.646	494.119	-0.101	0.232
-429.632	-200.000	0.017	0.101
-428.617	-200.000	0.040	0.262
-427.603	228.670	-0.083	0.135
-426.588	-105.552	0.095	-0.021
-425.573	739.282	0.053	0.141
-424.559	-167.667	-0.392	-0.016
-423.544	800.000	-0.071	0.293
-422.530	359.541	0.144	0.288
-421.515	-49.274	-0.248	0.119
-420.500	6.407	-0.041	0.031
-419.486	-200.000	0.031	0.217
-418.471	-158.395	-0.467	0.027
-417.457	461.833	-0.034	0.076
-416.442	-19.341	-0.245	0.151
-415.428	800.000	-0.110	-0.393
-414.413	-55.110	0.195	-0.088
-413.398	-200.000	0.027	0.154
-412.384	-47.742	0.452	-0.219
-411.369	47.108	-0.260	0.242
-410.355	-200.000	-0.055	0.367
-409.340	-200.000	-0.032	0.201
-408.325	-200.000	-0.062	0.312
-407.311	51.814	-0.168	-0.160
-406.296	502.778	0.086	0.199
-405.282	-8.775	-0.143	0.096
-404.267	78.454	-0.154	0.165
-403.252	177.429	0.224	-0.326
-402.238	124.968	0.064	0.081
-401.223	800.000	-0.021	-0.074
-400.209	-10.833	0.054	-0.036
-399.194	594.802	-0.117	-0.289
-398.179	101.892	-0.294	-0.343
-397.165	281.538	0.035	-0.063
-396.150	-83.979	0.125	0.040
-395.136	-44.506	-0.315	0.157
-394.121	179.312	-0.185	0.270
-393.106	90.046	0.168	-0.187
-392.092	-200.000	-0.007	-0.106
-391.077	-200.000	0.011	0.229
-390.063	69.112	-0.036	-0.037
-389.048	494.815	0.099	-0.227
-388.033	68.358	0.245	-0.251
-387.019	148.031	0.094	-0.126
-386.004	800.000	0.051	-0.142
-384.990	-83.037	0.068	-0.022
-383.975	-5.861	0.047	-0.032
-382.960	681.659	0.076	0.196
-381.946	290.109	0.100	0.181
-380.931	133.256	0.103	-0.133
-379.917	33.062	-0.135	-0.117
-378.902	-181.649	-0.210	0.004
-377.888	-200.000	-0.018	0.211
-376.873	11.119	0.149	0.114
-375.858	-200.000	-0.054	0.244
-374.844	-168.136	-0.028	0.001
-373.829	236.989	-0.072	-0.119
-372.815	416.082	0.122	-0.260
-371.800	395.319	-0.084	0.174
-370.785	-3.369	0.164	0.114
-369.771	589.602	0.066	-0.161
-368.756	-200.000	-0.064	-0.490
-367.742	-16.141	-0.148	0.094
-366.727	31.169	-0.370	0.317
-365.712	215.303	-0.021	0.033
-364.698	-5.762	-0.179	0.122
-363.683	2.258	0.155	-0.112
-362.669	-72.982	0.373	-0.136
-361.654	-121.938	0.126	-0.021
-360.639	52.548	-0.058	0.056
-359.625	-200.000	-0.017	0.183
-358.610	-26.308	-0.375	-0.220
-357.596	-43.593	-0.105	-0.053
-356.581	1.704	0.184	-0.132
-355.566	-200.000	-0.063	-0.325
-354.552	163.796	0.092	0.130
-353.537	-43.203	0.352	0.177
-352.523	-0.949	0.164	-0.116
-351.508	-132.252	0.261	-0.034
-350.493	111.410	-0.230	0.277
-349.479	-115.214	-0.185	0.035
-348.464	-200.000	-0.075	0.520
-347.450	-200.000	0.038	-0.182
-346.435	-102.360	0.086	-0.020
-345.420	-91.314	-0.125	-0.036
-344.406	-78.714	0.141	0.048
-343.391	-187.714	0.345	0.005
-342.377	-147.330	-0.305	-0.026
-341.362	119.827	0.286	0.353
-340.348	61.558	-0.096	0.095
-339.333	-16.293	-0.270	0.170
-338.318	-9.104	-0.139	-0.093
-337.304	791.377	0.036	-0.100
-336.289	-92.922	-0.180	0.050
-335.275	-200.000	0.029	0.135
-334.260	397.708	0.020	0.041
-333.245	219.487	0.109	0.174
-332.231	-200.000	-0.005	-0.123
-331.216	46.677	-0.047	0.043
-330.202	79.329	-0.211	-0.225
-329.187	54.778	0.218	-0.209
-328.172	-88.127	-0.079	-0.024
-327.158	495.524	-0.025	-0.057
-326.143	200.432	-0.131	0.200
-325.129	-200.000	-0.009	-0.138
-324.114	-152.841	0.258	-0.018
-323.099	-154.047	-0.104	-0.007
-322.085	33.574	-0.335	0.290
-321.070	-53.876	-0.434	0.197
-320.056	800.000	0.050	0.169
-319.041	164.828	0.194	-0.273
-318.026	-74.161	0.175	-0.063
-317.012	800.000	-0.053	-0.205
-315.997	-96.892	0.310	-0.081
-314.983	-80.096	0.197	0.066
-313.968	479.644	0.186	0.419
-312.953	139.884	-0.019	-0.025
-311.939	-106.184	-0.215	-0.048
-310.924	800.000	0.032	0.136
-309.910	281.504	-0.113	-0.201
-308.895	-200.000	-0.003	-0.190
-307.880	-41.807	0.071	0.036
-306.866	129.336	-0.110	0.140
-305.851	-164.566	0.114	-0.005
-304.837	6.174	0.218	0.161
-303.822	85.880	0.112	0.122
-302.807	-46.921	0.151	-0.073
-301.793	81.740	-0.184	-0.198
-300.778	-106.255	0.344	0.077
-299.764	-45.794	-0.107	0.053
-298.749	632.315	-0.243	-0.612
-297.735	-155.742	0.284	-0.018
-296.720	800.000	-0.132	-0.418
-295.705	-200.000	-0.016	0.371
-294.691	-57.346	-0.115	0.050
-293.676	-113.312	0.123	0.024
-292.662	224.077	0.074	0.120
-291.647	-25.054	-0.342	-0.201
-290.632	696.509	0.076	-0.198
-289.618	46.250	0.139	-0.128
-288.603	-11.725	0.265	-0.173
-287.589	-106.458	0.306	-0.068
-286.574	-200.000	-0.026	-0.128
-285.559	-110.771	-0.251	0.051
-284.545	-200.000	0.003	0.202
-283.530	-29.211	-0.210	0.120
-282.516	-179.002	0.149	0.003
-281.501	-70.532	-0.589	-0.221
-280.486	-171.571	0.079	-0.003
-279.472	5.613	0.265	0.194
-278.457	-47.631	-0.463	0.223
-277.443	81.270	0.104	0.112
-276.428	-39.130	-0.019	-0.010
-275.413	-112.647	0.091	-0.018
-274.399	130.916	0.196	0.249
-273.384	-58.302	-0.426	-0.184
-272.370	136.930	0.237	0.308
-271.355	-56.336	0.276	0.122
-270.340	-200.000	-0.022	-0.334
-269.326	21.793	-0.293	-0.237
-268.311	-200.000	0.003	-0.127
-267.297	-128.410	0.489	-0.069
-266.282	-52.668	0.216	-0.099
-265.267	228.641	-0.073	0.119
-264.253	123.888	-0.139	0.173
-263.238	219.695	-0.155	-0.246
-262.224	-200.000	0.090	0.424
-261.209	173.364	-0.129	-0.185
-260.195	-39.889	0.180	-0.093
-259.180	72.719	0.330	-0.342
-258.165	-157.491	-0.370	0.022
-257.151	283.987	-0.160	0.286
-256.136	24.072	0.272	0.223
-255.122	-58.822	0.245	0.105
-254.107	-53.559	0.378	-0.171
-253.092	-129.684	-0.026	0.004
-252.078	-200.000	-0.024	0.226
-251.063	-22.120	-0.032	0.019
-250.049	50.212	-0.153	0.144
-249.034	-71.251	-0.107	0.040
-248.019	-85.870	0.123	-0.038
-247.005	390.426	0.113	-0.233
-245.990	417.490	-0.011	0.023
-244.976	8.368	0.074	-0.055
-243.961	800.000	0.051	0.153
-242.946	-123.420	0.162	0.026
-241.932	185.778	0.182	0.268
-240.917	55.221	-0.312	0.299
-239.903	-200.000	0.009	0.115
-238.888	-200.000	-0.008	0.430
-237.873	169.991	0.158	0.224
-236.859	-200.000	0.070	0.496
-235.844	1.664	0.224	0.160
-234.830	745.785	0.028	0.076
-233.815	-200.000	-0.012	0.216
-232.800	35.719	0.153	0.133
-231.786	401.858	-0.111	-0.231
-230.771	99.934	0.187	0.215
-229.757	-118.035	-0.118	0.021
-228.742	-200.000	-0.055	-0.249
-227.727	800.000	0.112	-0.344
-226.713	-163.469	0.114	0.005
-225.698	176.895	-0.113	-0.162
-224.684	684.878	-0.109	-0.283
-223.669	215.583	0.043	0.068
-222.655	800.000	-0.041	0.116
-221.640	-69.142	0.217	-0.083
-220.625	5.864	-0.058	0.042
-219.611	377.947	0.096	-0.194
-218.596	71.054	0.279	-0.286
-217.582	185.534	0.038	0.055
-216.567	119.344	-0.038	-0.047
-215.552	107.289	0.233	0.275
-214.538	-79.484	0.429	-0.144
-213.523	192.160	0.177	-0.264
-212.509	-200.000	-0.052	-0.310
-211.494	-119.173	-0.212	-0.037
-210.479	-131.197	0.051	0.007
-209.465	27.406	-0.142	0.118
-208.450	153.165	0.038	0.051
-207.436	-32.025	-0.284	-0.157
-206.421	67.292	0.121	0.122
-205.406	-19.544	-0.142	0.087
-204.392	-187.747	0.271	-0.004
-203.377	328.740	-0.240	-0.457
-202.363	107.658	0.216	0.255
-201.348	76.844	-0.238	-0.251
-200.333	85.302	-0.111	0.121
-199.319	156.488	-0.117	0.160
-198.304	267.630	-0.176	-0.305
-197.290	-53.952	-0.434	0.196
-196.275	97.010	0.209	0.237
-195.260	-200.000	-0.013	-0.385
-194.246	-100.434	0.115	-0.028
-193.231	-4.248	-0.085	-0.058
-192.217	-76.947	0.184	-0.064
-191.202	22.440	-0.184	-0.149
-190.187	-83.127	0.082	-0.026
-189.173	114.897	-0.180	0.218
-188.158	374.673	0.080	0.161
-187.144	800.000	0.015	0.056
-186.129	-113.738	-0.128	-0.025
-185.114	196.774	-0.060	0.091
-184.100	41.023	-0.184	0.165
-183.085	800.000	0.002	-0.007
-182.071	315.658	-0.080	-0.149
-181.056	-78.638	-0.051	0.017
-180.042	-200.000	0.023	0.142
-179.027	-85.671	0.046	-0.014
-178.012	-8.873	0.199	-0.132
-176.998	-37.707	-0.135	-0.071
-175.983	-200.000	0.045	-0.201
-174.969	283.371	-0.056	-0.100
-173.954	-98.469	0.339	-0.086
-172.939	229.953	-0.167	-0.270
-171.925	32.517	-0.173	-0.148
-170.910	-200.000	0.122	0.541
-169.896	263.753	0.022	0.038
-168.881	529.877	-0.088	0.206
-167.866	553.034	0.176	-0.418
-166.852	206.400	0.055	0.085
-165.837	800.000	-0.125	0.369
-164.823	-200.000	-0.019	0.202
-163.808	65.170	0.170	0.170
-162.793	-122.442	-0.035	-0.006
-161.779	55.342	0.070	0.067
-160.764	206.492	-0.078	0.121
-159.750	-140.747	-0.331	-0.034
-158.735	594.630	-0.097	-0.238
-157.720	-102.372	-0.152	0.036
-156.706	-200.000	0.009	0.112
-155.691	-74.746	0.395	-0.140
-154.677	-110.850	-0.340	-0.069
-153.662	499.880	-0.094	-0.213
-152.647	-200.000	0.050	-0.298
-151.633	-200.000	0.067	-0.304
-150.618	-21.685	-0.134	-0.081
-149.604	-200.000	-0.018	-0.313
-148.589	-80.038	-0.158	-0.052
-147.574	-58.470	-0.110	-0.047
-146.560	-200.000	0.036	0.162
-145.545	-38.703	-0.308	0.160
-144.531	70.090	-0.231	0.235
-143.516	-128.567	-0.141	0.020
-142.502	249.945	0.148	-0.249
-141.487	370.312	-0.048	0.096
-140.472	257.643	-0.131	0.223
-139.458	-200.000	0.011	-0.066
-138.443	800.000	0.040	0.156
-137.429	39.114	-0.129	0.114
-136.414	289.359	0.142	-0.255
-135.399	-111.488	0.073	0.015
-134.385	471.220	-0.063	0.139
-133.370	54.995	0.160	0.152
-132.356	-41.923	-0.068	0.034
-131.341	73.412	-0.200	-0.207
-130.326	34.759	-0.343	-0.296
-129.312	139.728	-0.048	0.062
-128.297	30.664	0.244	0.206
-127.283	-65.008	0.366	0.146
-126.268	-200.000	-0.052	-0.226
-125.253	33.959	0.155	-0.133
-124.239	13.894	-0.265	-0.203
-123.224	325.259	0.168	-0.317
-122.210	105.509	-0.120	-0.141
-121.195	-63.906	0.218	0.088
-120.180	64.038	-0.121	-0.120
-119.166	-200.000	0.081	-0.425
-118.151	-106.228	0.167	-0.037
-117.137	-13.924	-0.104	0.066
-116.122	10.029	-0.157	-0.117
-115.107	0.249	-0.096	0.068
-114.093	195.718	-0.089	0.134
-113.078	800.000	0.092	0.314
-112.064	-112.913	0.130	-0.025
-111.049	258.574	-0.138	0.234
-110.034	-200.000	-0.002	0.365
-109.020	-17.590	0.402	0.249
-108.005	-200.000	0.012	0.130
-106.991	-89.638	0.096	-0.028
-105.976	10.165	-0.177	0.133
-104.962	-73.306	0.106	0.038
-103.947	6.608	-0.262	-0.192
-102.932	-93.313	0.334	0.091
-101.918	-200.000	0.020	0.152
-100.903	-116.012	0.367	0.067
-99.889	199.332	-0.117	-0.177
-98.874	-46.947	-0.279	0.134
-97.859	-32.312	-0.076	0.042
-96.845	-152.030	0.043	-0.003
-95.830	800.000	-0.075	-0.318
-94.816	526.056	-0.049	-0.115
-93.801	-196.774	0.332	-0.002
-92.786	63.721	-0.063	0.062
-91.772	-70.789	0.220	-0.082
-90.757	-51.784	-0.111	0.051
-89.743	-200.000	-0.016	-0.101
-88.728	141.371	-0.096	-0.125
-87.713	-14.614	0.004	-0.003
-86.699	78.834	0.300	-0.316
-85.684	-185.715	0.226	-0.003
-84.670	-200.000	0.030	0.177
-83.655	-30.615	-0.164	-0.092
-82.640	-82.380	-0.188	-0.060
-81.626	-36.950	-0.187	-0.099
-80.611	800.000	0.053	-0.186
-79.597	-200.000	-0.043	-0.221
-78.582	159.359	-0.174	-0.239
-77.567	14.254	-0.120	0.092
-76.553	-78.570	-0.163	0.055
-75.538	358.120	0.040	-0.080
-74.524	237.118	-0.143	0.233
-73.509	-164.318	-0.051	-0.002
-72.494	-61.737	-0.204	-0.084
-71.480	-200.000	-0.054	0.243
-70.465	32.627	-0.183	-0.156
-69.451	320.585	-0.061	-0.115
-68.436	-103.753	0.456	0.105
-67.422	-121.201	-0.261	-0.043
-66.407	-147.900	0.422	0.035
-65.392	515.434	-0.037	0.086
-64.378	800.000	0.091	0.363
-63.363	-135.597	0.206	0.024
-62.349	-4.826	-0.112	0.076
-61.334	87.906	-0.798	-0.872
-60.319	-200.000	0.182	0.912
-59.305	698.332	-0.434	-1.124
-58.290	480.182	0.578	1.292
-57.276	777.029	0.699	1.881
-56.261	-200.000	95.951	572.255
-55.246	515.974	1428.927	3287.581
-54.232	150.776	2617.368	3503.098
-53.217	110.388	2213.439	2618.827
-52.203	42.993	1740.613	1562.936
-51.188	35.607	1550.149	1340.567
-50.173	33.120	1523.338	1300.250
-49.159	52.968	1570.700	1479.557
-48.144	54.652	1588.571	1508.067
-47.130	35.796	1548.963	1340.645
-46.115	32.691	1534.316	1306.438
-45.100	32.420	1531.436	1302.060
-44.086	32.555	1528.470	1300.419
-43.071	32.349	1527.538	1298.151
-42.057	32.428	1525.728	1297.106
-41.042	32.410	1524.087	1295.535
-40.027	32.453	1522.803	1294.689
-39.013	32.434	1520.666	1292.693
-37.998	32.300	1519.901	1291.067
-36.984	32.361	1519.144	1290.791
-35.969	32.379	1517.800	1289.726
-34.954	32.400	1515.954	1288.248
-33.940	32.419	1514.450	1287.045
-32.925	32.405	1513.061	1285.723
-31.911	32.412	1511.926	1284.750
-30.896	32.411	1510.333	1283.342
-29.881	32.471	1508.928	1282.507
-28.867	32.429	1507.449	1280.910
-27.852	32.440	1505.834	1279.565
-26.838	32.387	1504.450	1277.977
-25.823	32.505	1503.086	1277.569
-24.809	32.438	1501.300	1275.546
-23.794	32.357	1500.085	1273.914
-22.779	32.389	1498.618	1272.832
-21.765	32.402	1497.346	1271.791
-20.750	32.418	1496.109	1270.799
-19.736	32.266	1495.475	1269.181
-18.721	32.380	1494.315	1268.915
-17.706	32.312	1493.562	1267.768
-16.692	32.396	1491.893	1266.869
-15.677	32.382	1490.965	1265.931
-14.663	32.318	1490.028	1264.659
-13.648	32.298	1489.362	1263.909
-12.633	32.366	1487.861	1263.040
-11.619	32.237	1487.719	1262.007
-10.604	32.318	1486.044	1261.077
-9.590	32.193	1485.820	1259.995
-8.575	32.277	1484.778	1259.631
-7.560	32.430	1483.643	1259.641
-6.546	32.243	1483.232	1257.992
-5.531	32.281	1482.111	1257.239
-4.517	32.236	1481.110	1256.040
-3.502	32.300	1480.019	1255.494
-2.487	32.191	1478.988	1253.844
-1.473	32.350	1477.525	1253.610
-0.458	32.283	1476.292	1252.068
0.556	31.047	1467.866	1244.532
1.571	28.995	1443.256	1210.079
2.586	26.188	1383.250	1141.938
3.600	24.690	1300.374	1064.514
4.615	23.217	1253.963	1017.967
5.629	21.515	1199.408	964.219
6.644	16.925	1118.597	875.532
7.659	13.065	1080.336	826.230
8.673	12.297	1075.764	818.829
9.688	12.304	1072.363	816.202
10.702	12.208	1070.937	814.568
11.717	12.262	1068.923	813.232
12.731	14.088	1070.511	823.419
13.746	18.238	1075.814	848.033
14.761	19.618	1076.220	855.118
15.775	18.245	1073.259	845.908
16.790	17.080	1071.453	838.656
17.804	16.069	1068.817	831.536
18.819	15.045	1066.900	824.923
19.834	14.612	1065.235	821.433
20.848	14.202	1064.212	818.556
21.863	14.013	1063.654	817.123
22.877	13.782	1062.275	814.860
23.892	13.457	1061.799	812.825
24.907	13.351	1061.347	811.887
25.921	13.433	1059.995	811.184
26.936	13.355	1059.662	810.473
27.950	13.504	1058.829	810.495
28.965	13.519	1057.659	809.601
29.980	13.581	1056.358	808.839
30.994	13.720	1054.933	808.352
32.009	13.746	1053.977	807.673
33.023	13.776	1053.183	807.139
34.038	13.672	1052.830	806.293
35.053	13.608	1051.847	805.157
36.067	13.573	1050.751	804.078
37.082	13.674	1049.611	803.622
38.096	13.478	1049.368	802.419
39.111	13.586	1048.633	802.307
40.126	13.639	1047.417	801.560
41.140	13.625	1046.503	800.726
42.155	13.468	1045.435	799.076
43.169	13.391	1044.595	797.992
44.184	13.332	1043.665	796.928
45.199	13.389	1042.495	796.240
46.213	13.354	1041.119	794.947
47.228	13.369	1040.156	794.214
48.242	13.396	1039.186	793.533
49.257	13.517	1038.358	793.411
50.271	13.478	1036.952	792.082
51.286	13.501	1036.589	791.843
52.301	13.579	1035.825	791.561
53.315	13.581	1035.266	791.074
54.330	13.533	1033.779	789.641
55.344	13.530	1033.000	788.958
56.359	13.388	1032.131	787.551
57.374	13.462	1030.869	786.869
58.388	13.455	1030.535	786.513
59.403	13.600	1029.253	786.154
60.417	13.310	1028.626	784.227
61.432	13.380	1028.157	784.134
62.447	13.375	1027.279	783.369
63.461	13.299	1026.551	782.387
64.476	13.439	1025.241	781.979
65.490	13.326	1024.361	780.706
66.505	13.377	1023.715	780.388
67.520	13.304	1023.091	779.496
68.534	13.434	1021.969	779.184
69.549	13.326	1021.492	778.247
70.563	13.378	1020.534	777.690
71.578	13.275	1020.258	776.928
72.593	13.257	1019.012	775.824
73.607	13.246	1018.310	775.169
74.622	13.227	1017.390	774.315
75.636	13.286	1016.084	773.527
76.651	13.147	1015.796	772.587
77.666	13.142	1015.066	771.941
78.680	13.154	1014.105	771.197
79.695	13.324	1013.677	771.597
80.709	13.227	1012.663	770.306
81.724	13.251	1011.986	769.833
82.739	13.412	1010.593	769.454
83.753	13.538	1010.210	769.682
84.768	13.410	1009.903	768.783
85.782	13.564	1009.253	768.936
86.797	13.592	1008.351	768.313
87.812	13.657	1007.072	767.570
88.826	13.507	1006.339	766.249
89.841	13.572	1005.772	766.051
90.855	13.520	1005.124	765.248
91.870	13.536	1004.452	764.744
92.884	13.668	1003.241	764.360
93.899	13.513	1002.824	763.262
94.914	13.704	1001.997	763.446
95.928	13.499	1001.954	762.398
96.943	13.764	1000.157	762.183
97.957	13.742	999.475	761.497
98.972	13.650	998.854	760.532
99.987	13.594	998.265	759.758
101.001	13.635	997.441	759.252
102.016	13.561	996.806	758.366
103.030	13.564	995.491	757.308
104.045	13.497	994.975	756.543
105.060	13.643	993.904	756.331
106.074	13.589	993.025	755.349
107.089	13.571	991.823	754.283
108.103	13.438	991.124	753.081
109.118	13.423	990.252	752.284
110.133	13.346	989.827	751.545
111.147	13.436	988.559	750.923
112.162	13.450	987.412	750.050
113.176	13.410	987.165	749.614
114.191	13.549	986.114	749.381
115.206	13.450	985.306	748.252
116.220	13.476	984.739	747.871
117.235	13.465	983.823	747.061
118.249	13.364	983.050	745.952
119.264	13.502	981.891	745.628
120.279	13.404	981.141	744.549
121.293	13.398	980.286	743.810
122.308	13.459	979.718	743.586
123.322	13.365	978.709	742.334
124.337	13.427	977.667	741.755
125.352	13.271	976.814	740.344
126.366	13.440	975.660	740.160
127.381	13.449	974.498	739.251
128.395	13.497	973.388	738.558
129.410	13.403	972.610	737.485
130.424	13.501	972.075	737.452
131.439	13.392	971.030	736.109
132.454	13.477	970.183	735.778
133.468	13.398	969.579	734.906
134.483	13.557	968.998	735.105
135.497	13.588	967.838	734.295
136.512	13.561	966.890	733.395
137.527	13.640	966.253	733.194
138.541	13.513	965.762	732.196
139.556	13.510	965.206	731.694
140.570	13.560	964.471	731.293
141.585	13.527	963.268	730.173
142.600	13.662	962.963	730.471
143.614	13.711	961.928	729.837
144.629	13.781	960.866	729.277
145.643	13.733	960.212	728.501
146.658	13.770	959.447	728.020
147.673	13.701	958.593	727.007
148.687	13.533	958.106	725.837
149.702	13.597	957.021	725.230
150.716	13.685	956.118	724.864
151.731	13.594	955.126	723.651
152.746	13.547	954.776	723.120
153.760	13.715	953.869	723.102
154.775	13.601	953.430	722.208
155.789	13.656	952.521	721.693
156.804	13.797	951.645	721.580
157.819	13.591	951.430	720.458
158.833	13.807	950.177	720.384
159.848	13.818	949.617	719.941
160.862	13.864	949.126	719.705
161.877	13.886	948.544	719.297
162.892	13.824	947.379	718.079
163.906	13.654	946.170	716.364
164.921	13.639	945.866	716.005
165.935	13.691	945.006	715.517
166.950	13.709	943.740	714.573
167.964	13.737	943.163	714.194
168.979	13.789	941.748	713.283
169.994	13.775	940.871	712.496
171.008	13.754	940.302	711.909
172.023	13.799	939.815	711.671
173.037	13.882	938.371	710.871
174.052	13.886	937.929	710.489
175.067	13.932	937.015	709.932
176.081	13.902	936.137	709.077
177.096	13.712	935.938	708.051
178.110	13.796	934.434	707.207
179.125	13.817	934.045	706.939
180.140	13.902	933.174	706.579
181.154	13.932	932.759	706.330
182.169	13.910	932.030	705.624
183.183	13.798	931.784	704.901
184.198	13.880	930.922	704.532
185.213	13.868	930.447	704.059
186.227	14.061	929.612	704.183
187.242	13.967	928.901	703.183
188.256	14.040	928.278	702.959
189.271	14.157	927.543	702.835
190.286	14.167	926.966	702.376
191.300	14.058	925.974	701.105
192.315	13.741	925.346	699.230
193.329	13.781	924.452	698.661
194.344	13.818	923.807	698.266
195.359	13.761	923.852	698.002
196.373	13.904	923.092	697.966
197.388	14.059	922.426	698.052
198.402	14.105	922.089	697.927
199.417	14.134	921.537	697.568
200.432	14.373	920.754	697.918
201.446	14.351	920.646	697.683
202.461	14.313	920.143	697.081
203.475	14.249	919.684	696.403
204.490	14.249	919.204	695.978
205.504	14.258	918.008	695.048
206.519	14.312	917.212	694.609
207.534	14.205	916.453	693.528
208.548	14.229	915.886	693.134
209.563	14.175	915.626	692.652
210.577	14.314	914.713	692.480
211.592	14.258	913.630	691.364
212.607	14.381	913.409	691.648
213.621	14.383	912.716	691.070
214.636	14.458	912.003	690.781
215.650	14.417	911.275	689.997
216.665	14.419	910.811	689.595
217.680	14.540	910.248	689.606
218.694	14.496	910.201	689.326
219.709	14.564	909.445	688.977
220.723	14.529	908.814	688.291
221.738	14.549	907.869	687.598
222.753	14.356	907.471	686.440
223.767	14.472	906.674	686.255
224.782	14.603	905.784	686.060
225.796	14.609	905.298	685.654
226.811	14.654	904.345	685.056
227.826	14.694	903.753	684.711
228.840	14.727	902.719	684.001
229.855	14.565	902.635	683.215
230.869	14.700	901.697	682.995
231.884	14.572	901.065	681.932
232.899	14.569	900.332	681.306
233.913	14.600	899.662	680.866
234.928	14.524	898.934	679.945
235.942	14.484	898.590	679.460
236.957	14.595	897.175	678.781
237.972	14.502	897.181	678.349
238.986	14.675	896.209	678.256
240.001	14.596	895.409	677.271
241.015	14.603	894.989	676.922
242.030	14.714	894.257	676.757
243.045	14.630	893.847	676.046
244.059	14.749	892.885	675.743
245.074	14.725	892.609	675.378
246.088	14.634	892.340	674.744
247.103	14.959	890.994	674.979
248.117	14.793	890.737	674.054
249.132	14.997	890.065	674.308
250.147	14.916	889.723	673.663
251.161	14.938	889.266	673.347
252.176	15.081	888.362	673.179
253.190	14.915	887.708	671.956
254.205	15.142	887.090	672.338
255.220	15.195	886.165	671.794
256.234	15.002	885.705	670.609
257.249	15.090	885.067	670.419
258.263	15.185	884.281	670.146
259.278	15.102	883.952	669.507
260.293	15.143	883.622	669.359
261.307	15.353	882.786	669.505
262.322	15.161	882.125	668.178
263.336	15.302	881.367	668.110
264.351	15.400	880.937	668.115
265.366	15.345	880.643	667.613
266.380	15.375	879.676	666.940
267.395	15.364	879.095	666.396
268.409	15.316	878.397	665.616
269.424	15.337	877.495	664.958
270.439	15.275	876.838	664.155
271.453	15.302	876.355	663.838
272.468	15.377	875.345	663.312
273.482	15.246	874.505	662.098
274.497	15.212	874.149	661.635
275.512	15.405	873.643	661.956
276.526	15.248	872.638	660.516
277.541	15.283	872.011	660.123
278.555	15.303	871.562	659.802
279.570	15.303	871.091	659.387
280.585	15.531	870.268	659.600
281.599	15.628	869.545	659.375
282.614	15.569	869.061	658.721
283.628	15.488	868.580	657.980
284.643	15.488	868.309	657.716
285.657	15.461	867.558	656.984
286.672	15.485	866.947	656.558
287.687	15.402	866.834	656.086
288.701	15.547	865.875	655.869
289.716	15.575	865.648	655.750
290.730	15.577	864.544	654.864
291.745	15.715	863.946	654.887
292.760	15.635	863.285	654.020
293.774	15.511	862.995	653.258
294.789	15.786	862.104	653.595
295.803	15.662	861.841	652.855
296.818	15.657	861.512	652.529
297.833	15.528	860.854	651.472
298.847	15.700	859.816	651.296
299.862	15.696	858.723	650.395
300.876	15.677	858.419	650.033
301.891	15.832	857.293	649.723
302.906	15.707	856.970	648.939
303.920	15.832	856.295	648.853
304.935	15.826	855.697	648.318
305.949	16.003	854.946	648.372
306.964	15.916	854.722	647.811
307.979	15.926	853.799	647.092
308.993	15.836	853.818	646.705
310.008	15.784	853.002	645.830
311.022	16.075	852.058	646.171
312.037	16.030	851.760	645.715
313.052	16.036	851.276	645.317
314.066	15.889	850.547	644.142
315.081	15.998	849.664	643.836
316.095	16.020	849.119	643.448
317.110	15.930	848.786	642.797
318.125	15.993	848.241	642.567
319.139	15.807	848.289	641.836
320.154	15.922	847.338	641.499
321.168	15.935	846.936	641.186
322.183	16.033	846.252	640.986
323.197	16.040	845.659	640.507
324.212	15.931	845.080	639.597
325.227	16.172	844.443	639.972
326.241	16.061	844.042	639.192
327.256	16.087	843.479	638.805
328.270	16.013	842.867	638.007
329.285	16.019	842.319	637.558
330.300	15.978	842.000	637.104
331.314	15.962	841.337	636.486
332.329	16.120	840.515	636.406
333.343	16.103	840.155	636.013
334.358	16.054	839.459	635.242
335.373	16.165	838.978	635.240
336.387	16.191	838.317	634.783
337.402	16.198	838.001	634.515
338.416	16.195	837.247	633.874
339.431	16.313	836.801	633.924
340.446	16.368	836.119	633.559
341.460	16.509	835.243	633.368
342.475	16.420	834.971	632.773
343.489	16.479	834.644	632.688
344.504	16.471	833.983	632.103
345.519	16.435	833.544	631.577
346.533	16.688	833.042	632.087
347.548	16.491	832.791	631.105
348.562	16.433	832.283	630.446
349.577	16.520	831.384	630.033
350.592	16.484	830.820	629.418
351.606	16.310	830.573	628.526
352.621	16.430	830.067	628.535
353.635	16.518	829.333	628.249
354.650	16.396	829.208	627.646
355.665	16.447	828.906	627.553
356.679	16.502	828.149	627.128
357.694	16.582	827.639	626.981
358.708	16.619	826.904	626.509
359.723	16.654	826.306	626.127
360.738	16.604	825.803	625.505
361.752	16.604	825.602	625.299
362.767	16.502	825.330	624.662
363.781	16.702	825.006	625.098
364.796	16.667	824.434	624.483
365.810	16.829	823.940	624.648
366.825	16.804	823.432	624.116
367.840	16.848	823.329	624.145
368.854	16.974	822.625	624.018
369.869	16.861	822.111	623.158
370.883	16.757	821.181	622.018
371.898	16.772	821.283	622.093
372.913	16.894	820.540	621.926
373.927	16.946	819.961	621.620
374.942	16.928	819.027	620.792
375.956	16.878	818.886	620.449
376.971	17.080	817.876	620.366
377.986	17.158	817.338	620.187
379.000	16.980	817.260	619.422
380.015	16.974	816.704	618.926
381.029	17.056	815.961	618.605
382.044	17.015	815.682	618.192
383.059	17.082	814.440	617.438
384.073	17.140	814.247	617.448
385.088	17.092	814.200	617.182
386.102	17.021	813.547	616.376
387.117	16.948	812.683	615.400
388.132	16.981	812.314	615.189
389.146	17.065	811.692	614.968
390.161	17.036	811.312	614.520
391.175	17.182	810.977	614.741
392.190	17.332	810.295	614.709
393.205	17.143	810.170	613.878
394.219	17.228	809.892	613.919
395.234	17.140	809.485	613.238
396.248	17.075	808.666	612.330
397.263	17.135	808.064	612.036
398.278	17.032	807.853	611.451
399.292	16.980	807.271	610.769
400.307	17.045	806.817	610.607
401.321	17.191	806.304	610.689
402.336	17.210	806.031	610.497
403.350	17.170	805.969	610.251
404.365	17.084	805.534	609.560
405.380	17.328	804.518	609.613
406.394	17.388	804.455	609.724
407.409	17.372	803.635	608.992
408.423	17.538	803.155	609.168
409.438	17.629	802.680	609.081
410.453	17.525	802.383	608.430
411.467	17.428	802.157	607.859
412.482	17.654	801.356	608.002
413.496	17.592	800.883	607.368
414.511	17.750	800.443	607.543
415.526	17.702	800.335	607.236
416.540	17.600	800.068	606.618
417.555	17.536	799.680	606.042
418.569	17.574	798.966	605.582
419.584	17.729	798.307	605.579
420.599	17.742	797.764	605.160
421.613	106.578	1287.079	1455.058
422.628	91.576	1358.397	1455.191
