DTS Sentinel unit serial number:	SN413079Multiplexer serial number:	ORYXHardware model number:	OX4-SRSoftware version number:	ORYX F/W v4.00 Oryx Data Collector v3.7.2.0data status	okinstallation	princeton_trtdifferential loss correction	single-endedforward channel	channel 3reverse channel	N/Adate	2019/09/16time	22:08:35forward acquisition time	60.00reverse acquisition time	0.00gamma	496.2192k internal	0.2325k external	0.2325temperature offset calibration	0.9933default loss term (dB/km)	0.3790temperature slope calibration	1.0000multiplexer offset coefficient	1.0000multiplexer slope coefficient	1.0000fibre end	0.00T internal ref (°C)	31.11T ext. ref 1 (°C)	0.07T ext. ref 2 (°C)	24.87length (m)	temperature (°C)	Stokes	anti-Stokes-747.200	74.537	0.226	0.240
-746.185	35.227	-0.191	-0.169
-745.171	188.259	-0.149	-0.224
-744.156	800.000	0.093	0.374
-743.142	399.741	-0.097	0.206
-742.127	440.282	0.029	0.064
-741.112	-71.547	0.113	-0.043
-740.098	680.324	-0.093	0.245
-739.083	61.318	-0.146	-0.146
-738.069	-145.534	-0.511	0.046
-737.054	-110.314	-0.188	0.039
-736.039	104.082	0.183	0.217
-735.025	-124.333	-0.176	0.028
-734.010	-34.705	-0.312	0.172
-732.996	800.000	-0.084	-0.277
-731.981	800.000	0.036	0.160
-730.966	-85.178	-0.062	-0.019
-729.952	237.527	-0.211	-0.354
-728.937	-50.853	-0.222	0.105
-727.923	426.165	-0.101	-0.219
-726.908	-200.000	-0.005	-0.380
-725.894	-93.816	-0.184	0.051
-724.879	413.801	-0.092	0.198
-723.864	-170.695	-0.203	0.007
-722.850	-11.715	0.202	-0.134
-721.835	800.000	0.074	0.257
-720.821	-200.000	-0.012	0.057
-719.806	800.000	0.131	-0.486
-718.791	-43.112	-0.209	-0.107
-717.777	-200.000	-0.051	-0.292
-716.762	-200.000	0.043	-0.192
-715.748	-55.515	-0.203	0.092
-714.733	-50.417	-0.214	0.102
-713.718	-150.488	-0.365	-0.028
-712.704	-200.000	0.007	-0.067
-711.689	-200.000	-0.005	-0.255
-710.675	-57.310	0.228	-0.101
-709.660	312.740	0.115	0.217
-708.645	-31.377	0.108	0.061
-707.631	76.104	-0.047	-0.050
-706.616	-72.677	-0.062	0.023
-705.602	-33.993	0.137	0.076
-704.587	1.300	0.265	0.192
-703.572	-89.226	0.057	0.017
-702.558	-11.927	0.126	0.083
-701.543	-91.382	-0.199	0.057
-700.529	-200.000	0.054	0.243
-699.514	800.000	-0.018	0.061
-698.499	96.754	-0.230	-0.265
-697.485	-74.872	-0.435	0.157
-696.470	-200.000	-0.003	0.051
-695.456	-200.000	-0.063	0.000
-694.441	800.000	0.085	0.276
-693.426	-119.000	-0.299	-0.053
-692.412	200.082	-0.131	0.203
-691.397	-132.257	0.082	0.011
-690.383	199.294	0.074	0.115
-689.368	290.361	-0.192	0.351
-688.354	182.580	0.277	0.412
-687.339	213.025	-0.029	0.046
-686.324	200.394	-0.148	0.229
-685.310	-200.000	-0.070	-0.328
-684.295	-74.095	-0.186	-0.068
-683.281	384.077	-0.122	-0.254
-682.266	134.828	-0.132	0.173
-681.251	-111.313	-0.208	0.043
-680.237	131.235	0.211	-0.273
-679.222	-200.000	0.052	0.230
-678.208	800.000	0.091	0.292
-677.193	-81.085	0.376	-0.125
-676.178	-43.182	0.298	-0.152
-675.164	225.203	0.033	-0.054
-674.149	-5.161	-0.351	-0.243
-673.135	211.274	-0.168	0.266
-672.120	683.509	-0.081	-0.212
-671.105	135.514	-0.172	-0.225
-670.091	-124.632	-0.279	-0.043
-669.076	-12.160	-0.115	-0.076
-668.062	-33.171	0.423	-0.236
-667.047	-79.394	0.274	-0.093
-666.032	46.999	-0.227	0.212
-665.018	-54.451	-0.326	-0.149
-664.003	800.000	-0.134	0.471
-662.989	143.875	0.029	-0.039
-661.974	78.855	-0.052	0.056
-660.959	-92.251	0.103	0.029
-659.945	-12.027	-0.345	0.227
-658.930	-119.629	0.089	0.016
-657.916	200.814	0.140	0.217
-656.901	-114.518	-0.303	0.058
-655.886	355.992	-0.147	-0.294
-654.872	-34.306	-0.599	-0.330
-653.857	-79.967	-0.031	-0.010
-652.843	-200.000	-0.014	-0.168
-651.828	-93.429	0.278	-0.077
-650.814	-32.496	-0.284	-0.159
-649.799	-35.057	0.159	0.087
-648.784	-50.206	-0.241	-0.114
-647.770	14.781	0.202	0.159
-646.755	-94.866	-0.368	-0.100
-645.741	-38.227	0.324	0.172
-644.726	-200.000	0.005	-0.320
-643.711	-73.702	-0.129	-0.047
-642.697	-35.853	-0.252	0.137
-641.682	231.068	-0.242	-0.398
-640.668	-48.414	0.116	-0.056
-639.653	283.304	0.157	0.283
-638.638	-1.889	-0.139	0.098
-637.624	-200.000	-0.064	-0.335
-636.609	113.120	0.101	0.123
-635.595	800.000	0.015	0.051
-634.580	-107.461	-0.490	0.108
-633.565	-152.718	-0.149	0.011
-632.551	330.157	0.099	-0.192
-631.536	-200.000	0.031	-0.159
-630.522	-26.979	-0.339	-0.199
-629.507	176.113	-0.237	-0.346
-628.492	333.268	0.069	-0.134
-627.478	307.211	0.066	-0.123
-626.463	-64.041	0.264	0.108
-625.449	14.421	-0.273	0.214
-624.434	-200.000	-0.015	-0.224
-623.419	-200.000	0.010	-0.090
-622.405	800.000	0.061	0.245
-621.390	-80.914	0.118	0.039
-620.376	-44.286	0.266	-0.134
-619.361	78.740	-0.192	0.206
-618.346	800.000	-0.078	0.219
-617.332	34.578	0.038	0.034
-616.317	-70.899	0.239	0.090
-615.303	-19.755	0.119	-0.074
-614.288	160.670	0.157	0.221
-613.273	86.191	-0.249	-0.276
-612.259	104.454	-0.100	0.118
-611.244	60.837	0.162	0.161
-610.230	94.080	-0.127	0.145
-609.215	-200.000	-0.024	-0.254
-608.201	-200.000	0.005	0.027
-607.186	-35.144	0.086	0.047
-606.171	-80.058	-0.203	-0.068
-605.157	555.014	0.090	-0.219
-604.142	-200.000	0.002	-0.077
-603.128	-10.718	-0.111	0.074
-602.113	-89.246	0.054	0.016
-601.098	36.855	0.071	-0.063
-600.084	-142.164	-0.245	-0.024
-599.069	-59.596	0.340	-0.146
-598.055	-200.000	0.006	-0.143
-597.040	-139.130	0.465	-0.050
-596.025	-39.204	-0.159	-0.084
-595.011	-33.504	0.313	-0.173
-593.996	-200.000	-0.031	0.285
-592.982	-24.353	-0.263	-0.158
-591.967	143.153	-0.053	0.071
-590.952	800.000	-0.090	0.290
-589.938	-200.000	-0.075	0.371
-588.923	-4.915	0.254	-0.175
-587.909	800.000	-0.019	0.064
-586.894	-140.134	0.196	-0.021
-585.879	-96.480	0.134	0.036
-584.865	-200.000	-0.005	0.136
-583.850	238.432	0.065	-0.108
-582.836	-132.699	-0.393	-0.050
-581.821	-116.999	0.164	0.030
-580.806	-137.598	-0.041	-0.005
-579.792	-58.961	-0.364	-0.158
-578.777	-80.011	0.129	0.043
-577.763	-146.071	0.249	0.022
-576.748	-9.947	0.161	-0.107
-575.733	-200.000	0.023	-0.120
-574.719	-200.000	-0.027	-0.374
-573.704	157.589	0.021	-0.030
-572.690	-92.347	-0.253	0.072
-571.675	25.014	-0.182	-0.152
-570.661	800.000	0.093	-0.388
-569.646	-200.000	-0.001	-0.148
-568.631	-83.038	-0.319	0.103
-567.617	575.727	-0.075	0.182
-566.602	39.545	0.208	-0.187
-565.588	-16.719	-0.088	0.056
-564.573	-200.000	0.061	0.318
-563.558	-200.000	0.024	-0.158
-562.544	-70.145	0.209	0.080
-561.529	7.387	-0.022	-0.016
-560.515	15.734	-0.187	0.147
-559.500	42.584	-0.109	0.099
-558.485	60.948	-0.057	-0.056
-557.471	-22.260	0.230	0.140
-556.456	341.816	-0.045	-0.088
-555.442	17.781	-0.083	0.066
-554.427	-200.000	0.004	0.579
-553.412	80.078	-0.056	0.061
-552.398	295.512	0.098	-0.180
-551.383	114.572	-0.242	-0.295
-550.369	-200.000	0.016	0.138
-549.354	-200.000	-0.023	-0.190
-548.339	-139.238	-0.268	-0.029
-547.325	-200.000	0.044	0.421
-546.310	-103.010	-0.089	0.021
-545.296	-111.877	-0.219	0.044
-544.281	-75.610	0.244	0.087
-543.266	-200.000	0.036	0.189
-542.252	800.000	-0.105	0.332
-541.237	-160.583	-0.118	0.006
-540.223	16.683	-0.108	0.085
-539.208	82.708	0.153	-0.167
-538.193	3.426	-0.215	-0.157
-537.179	-50.889	0.168	-0.079
-536.164	542.964	-0.110	0.263
-535.150	-18.601	-0.172	0.107
-534.135	-31.860	0.350	-0.196
-533.121	750.732	-0.166	0.449
-532.106	130.849	-0.205	0.263
-531.091	-200.000	0.008	-0.213
-530.077	-28.938	-0.239	0.137
-529.062	-200.000	0.101	0.510
-528.048	81.589	0.080	-0.086
-527.033	-37.836	0.260	-0.139
-526.018	-132.239	0.257	0.033
-525.004	674.234	-0.033	0.086
-523.989	475.420	-0.059	-0.133
-522.975	-8.985	0.250	0.167
-521.960	613.939	0.109	0.274
-520.945	106.088	-0.171	0.203
-519.931	-200.000	0.013	-0.375
-518.916	-31.324	0.056	-0.032
-517.902	736.516	-0.136	-0.365
-516.887	800.000	-0.026	-0.112
-515.872	361.415	-0.074	-0.148
-514.858	-200.000	-0.013	-0.196
-513.843	-107.156	0.514	0.113
-512.829	-111.934	-0.080	0.016
-511.814	-152.030	0.251	0.018
-510.799	-200.000	-0.010	0.128
-509.785	-63.871	0.281	0.115
-508.770	229.586	-0.186	-0.303
-507.756	130.637	-0.207	-0.266
-506.741	-53.491	-0.083	-0.038
-505.726	800.000	0.002	0.009
-504.712	-200.000	0.012	-0.311
-503.697	159.528	0.105	0.146
-502.683	-88.553	-0.330	0.098
-501.668	-200.000	0.005	0.245
-500.653	439.182	0.149	-0.325
-499.639	39.810	-0.186	0.167
-498.624	-34.314	-0.287	-0.157
-497.610	800.000	-0.062	0.202
-496.595	-148.366	0.317	-0.026
-495.581	800.000	-0.042	-0.169
-494.566	-200.000	0.048	-0.230
-493.551	278.728	0.088	-0.157
-492.537	-200.000	0.013	0.123
-491.522	671.066	-0.016	0.041
-490.508	-13.073	-0.130	-0.084
-489.493	-200.000	0.050	-0.382
-488.478	800.000	0.085	-0.247
-487.464	800.000	-0.005	0.017
-486.449	387.723	0.166	-0.344
-485.435	-76.382	-0.339	-0.119
-484.420	-200.000	0.027	0.121
-483.405	-107.249	0.341	0.075
-482.391	6.919	0.035	-0.026
-481.376	57.230	0.069	0.067
-480.362	-162.669	0.513	0.025
-479.347	-7.989	-0.190	-0.128
-478.332	-103.250	0.160	0.038
-477.318	292.811	-0.029	-0.054
-476.303	44.865	0.173	-0.159
-475.289	65.202	0.143	-0.145
-474.274	-123.089	0.158	0.025
-473.259	48.307	0.140	0.131
-472.245	800.000	-0.085	0.278
-471.230	-200.000	-0.004	-0.221
-470.216	-26.336	-0.167	-0.098
-469.201	162.827	0.118	-0.165
-468.186	13.757	0.062	-0.048
-467.172	-176.904	-0.206	0.005
-466.157	800.000	0.074	-0.311
-465.143	-97.398	0.099	-0.026
-464.128	-200.000	-0.001	-0.445
-463.113	178.457	-0.147	0.214
-462.099	108.596	-0.088	-0.105
-461.084	19.425	-0.170	-0.136
-460.070	-69.284	0.160	-0.061
-459.055	82.107	0.107	-0.116
-458.040	-200.000	0.038	-0.436
-457.026	480.612	-0.096	-0.218
-456.011	-200.000	0.021	-0.256
-454.997	101.651	0.152	0.177
-453.982	800.000	-0.019	-0.071
-452.968	-200.000	0.013	-0.210
-451.953	800.000	0.046	-0.127
-450.938	-58.811	0.071	-0.031
-449.924	107.842	0.245	0.291
-448.909	-4.982	-0.266	0.183
-447.895	218.715	0.124	0.197
-446.880	-14.041	-0.143	-0.092
-445.865	-91.558	0.345	-0.098
-444.851	-163.943	-0.262	-0.012
-443.836	-174.944	-0.193	-0.005
-442.822	-113.984	-0.163	0.032
-441.807	69.030	0.149	0.153
-440.792	-64.290	0.246	0.100
-439.778	188.372	-0.079	-0.117
-438.763	-127.524	0.117	0.017
-437.749	-78.104	-0.405	0.139
-436.734	22.042	-0.150	-0.122
-435.719	-12.408	-0.120	0.078
-434.705	-85.814	-0.231	-0.071
-433.690	286.376	-0.097	0.175
-432.676	69.686	0.131	-0.135
-431.661	-22.350	0.344	0.208
-430.646	-200.000	0.058	0.338
-429.632	290.227	0.103	0.186
-428.617	117.281	0.146	-0.179
-427.603	354.289	0.083	-0.164
-426.588	-83.407	0.235	-0.075
-425.573	-36.370	-0.370	0.199
-424.559	139.298	0.139	0.182
-423.544	469.672	-0.098	-0.219
-422.530	0.873	-0.174	-0.124
-421.515	-145.549	0.157	-0.014
-420.500	324.467	0.245	0.466
-419.486	-71.779	0.365	0.136
-418.471	-40.987	-0.132	-0.068
-417.457	-69.233	0.256	-0.098
-416.442	800.000	-0.073	0.286
-415.428	-24.360	-0.062	-0.037
-414.413	-78.375	0.234	0.080
-413.398	-87.152	-0.209	-0.063
-412.384	-31.019	0.504	0.284
-411.369	-12.804	-0.083	-0.054
-410.355	800.000	0.056	0.155
-409.340	72.654	-0.147	-0.153
-408.325	-28.013	0.222	0.128
-407.311	-8.567	-0.157	0.105
-406.296	-200.000	-0.016	-0.074
-405.282	100.901	0.118	-0.137
-404.267	-200.000	-0.005	0.255
-403.252	-149.363	-0.174	0.014
-402.238	-200.000	-0.008	-0.161
-401.223	800.000	0.070	-0.197
-400.209	-86.737	0.110	0.033
-399.194	800.000	-0.118	0.487
-398.179	-9.472	-0.359	0.239
-397.165	237.565	-0.054	0.089
-396.150	-109.866	0.271	-0.057
-395.136	340.472	0.082	0.160
-394.121	-200.000	0.002	0.133
-393.106	279.930	0.071	-0.126
-392.092	17.128	-0.085	0.067
-391.077	-30.952	-0.141	-0.079
-390.063	-200.000	-0.014	0.121
-389.048	-200.000	-0.011	-0.116
-388.033	-36.577	0.204	0.109
-387.019	98.248	-0.232	0.265
-386.004	-79.063	-0.090	0.030
-384.990	-200.000	-0.012	0.325
-383.975	-145.564	0.324	-0.029
-382.960	-200.000	0.014	-0.114
-381.946	169.470	-0.118	-0.168
-380.931	269.871	-0.062	0.108
-379.917	-200.000	-0.015	0.204
-378.902	180.373	-0.110	0.160
-377.888	713.519	0.075	0.197
-376.873	800.000	0.060	-0.223
-375.858	88.937	-0.178	-0.198
-374.844	-80.777	0.352	-0.116
-373.829	682.084	0.126	0.327
-372.815	-8.771	-0.158	-0.106
-371.800	688.703	0.150	-0.390
-370.785	86.320	0.192	0.210
-369.771	800.000	-0.029	0.091
-368.756	33.584	0.165	-0.143
-367.742	77.250	0.065	0.069
-366.727	-78.484	0.112	0.038
-365.712	209.837	0.179	-0.279
-364.698	110.293	-0.246	-0.294
-363.683	800.000	0.032	-0.095
-362.669	-72.408	0.229	-0.084
-361.654	-104.286	-0.472	-0.109
-360.639	800.000	-0.031	0.131
-359.625	-79.526	0.104	-0.035
-358.610	-88.496	-0.015	0.005
-357.596	-155.059	-0.294	0.019
-356.581	-200.000	-0.058	0.348
-355.566	-61.293	-0.344	-0.144
-354.552	-9.127	0.146	-0.097
-353.537	158.078	-0.235	-0.324
-352.523	-103.518	-0.113	0.026
-351.508	302.937	-0.085	0.156
-350.493	162.707	0.116	-0.161
-349.479	-90.128	0.312	0.090
-348.464	-200.000	-0.055	0.272
-347.450	-108.280	-0.228	-0.049
-346.435	-200.000	0.029	0.295
-345.420	685.435	-0.136	0.353
-344.406	698.786	-0.110	0.288
-343.391	44.239	-0.291	-0.265
-342.377	607.488	0.065	-0.161
-341.362	-200.000	0.019	-0.166
-340.348	303.378	-0.108	0.199
-339.333	490.513	0.079	-0.179
-338.318	166.797	-0.171	-0.240
-337.304	149.518	0.016	0.022
-336.289	561.831	0.054	0.131
-335.275	-179.774	0.430	0.009
-334.260	-61.414	-0.161	-0.067
-333.245	59.035	-0.247	-0.241
-332.231	-72.068	-0.045	0.017
-331.216	-124.837	0.185	-0.028
-330.202	-72.574	0.063	0.023
-329.187	-128.904	0.155	0.022
-328.172	535.730	0.086	-0.202
-327.158	800.000	-0.051	0.177
-326.143	-200.000	-0.003	0.142
-325.129	81.318	0.223	-0.239
-324.114	80.495	0.184	0.197
-323.099	191.115	0.110	0.164
-322.085	51.327	-0.105	0.099
-321.070	70.015	0.069	0.070
-320.056	-141.483	-0.121	0.012
-319.041	-200.000	0.094	-0.505
-318.026	-14.183	-0.284	-0.182
-317.012	545.608	0.029	0.069
-315.997	-37.632	-0.261	-0.138
-314.983	163.635	-0.052	-0.073
-313.968	-200.000	-0.010	0.091
-312.953	244.700	-0.170	-0.283
-311.939	-200.000	-0.026	-0.510
-310.924	77.973	0.190	0.201
-309.910	800.000	0.034	0.096
-308.895	389.273	-0.111	0.229
-307.880	-200.000	-0.025	0.154
-306.866	-24.194	0.013	-0.008
-305.851	89.068	-0.294	0.325
-304.837	174.898	-0.061	-0.088
-303.822	-97.874	0.315	-0.081
-302.807	-52.019	0.089	0.041
-301.793	17.801	-0.101	0.079
-300.778	283.423	0.151	-0.269
-299.764	169.302	-0.065	0.092
-298.749	44.902	0.059	-0.054
-297.735	800.000	0.036	0.105
-296.720	-200.000	0.052	0.255
-295.705	44.349	-0.044	0.040
-294.691	-200.000	0.002	0.157
-293.676	161.037	0.141	-0.195
-292.662	-200.000	0.014	0.320
-291.647	-78.661	-0.106	0.036
-290.632	71.589	-0.088	0.091
-289.618	36.315	-0.139	0.121
-288.603	-93.579	-0.300	0.082
-287.589	142.189	-0.122	0.160
-286.574	-200.000	0.008	0.368
-285.559	-102.333	-0.061	-0.014
-284.545	71.394	-0.174	-0.179
-283.530	-200.000	0.012	0.189
-282.516	21.616	-0.077	0.062
-281.501	26.596	-0.101	-0.084
-280.486	800.000	-0.082	0.229
-279.472	-112.513	-0.175	0.035
-278.457	-200.000	-0.033	-0.169
-277.443	193.563	-0.198	-0.297
-276.428	455.181	-0.050	0.110
-275.413	-73.884	0.407	0.146
-274.399	-200.000	0.006	0.039
-273.384	-200.000	-0.030	-0.247
-272.370	-84.911	-0.098	0.030
-271.355	-200.000	-0.027	-0.126
-270.340	269.220	-0.117	-0.204
-269.326	-167.586	0.118	-0.005
-268.311	35.513	-0.217	0.188
-267.297	800.000	0.048	-0.164
-266.282	-200.000	-0.003	-0.130
-265.267	667.400	0.151	0.386
-264.253	556.698	0.009	0.022
-263.238	311.979	0.125	-0.232
-262.224	14.246	-0.286	-0.221
-261.209	-200.000	0.032	-0.158
-260.195	-56.593	0.238	0.105
-259.180	-10.224	0.401	0.264
-258.165	-122.042	-0.320	-0.052
-257.151	145.099	-0.235	-0.311
-256.136	-130.213	0.490	0.066
-255.122	90.378	0.175	0.194
-254.107	231.759	-0.170	-0.276
-253.092	-96.596	0.491	-0.128
-252.078	-71.530	-0.102	0.038
-251.063	-200.000	0.049	-0.357
-250.049	-200.000	0.012	-0.057
-249.034	-200.000	-0.021	0.222
-248.019	-32.711	0.066	0.037
-247.005	509.163	-0.113	0.261
-245.990	-12.230	0.184	-0.119
-244.976	25.170	0.209	-0.172
-243.961	-86.084	0.178	-0.054
-242.946	347.061	-0.089	0.174
-241.932	171.516	0.114	0.162
-240.917	-63.188	0.349	0.142
-239.903	-98.781	-0.278	0.070
-238.888	-139.582	-0.285	0.030
-237.873	-32.184	-0.277	0.153
-236.859	-67.523	-0.280	-0.109
-235.844	45.390	0.097	0.088
-234.830	-123.386	-0.046	0.007
-233.815	800.000	0.049	-0.148
-232.800	85.740	0.115	-0.125
-231.786	-145.943	-0.085	-0.007
-230.771	-142.901	-0.264	0.025
-229.757	-200.000	-0.008	-0.151
-228.742	58.041	0.238	-0.230
-227.727	-43.822	-0.288	-0.143
-226.713	454.096	0.084	0.184
-225.698	-40.108	-0.237	0.122
-224.684	-57.901	0.148	0.064
-223.669	90.573	0.356	-0.394
-222.655	84.929	0.153	0.165
-221.640	219.083	-0.217	0.342
-220.625	-44.801	0.252	0.124
-219.611	95.630	0.074	0.084
-218.596	-120.426	-0.094	0.016
-217.582	-5.972	0.018	-0.012
-216.567	30.586	0.212	0.180
-215.552	-200.000	0.085	0.421
-214.538	119.886	-0.232	-0.285
-213.523	800.000	-0.026	0.098
-212.509	-200.000	0.039	0.219
-211.494	-69.761	-0.220	0.083
-210.479	-200.000	-0.005	0.033
-209.465	-67.175	0.358	0.140
-208.450	800.000	-0.037	0.102
-207.436	250.096	0.033	0.056
-206.421	-64.853	0.256	-0.102
-205.406	110.965	-0.291	-0.346
-204.392	-200.000	-0.020	-0.207
-203.377	-100.158	0.124	-0.030
-202.363	60.677	0.052	-0.051
-201.348	800.000	-0.069	-0.263
-200.333	-53.284	0.285	-0.129
-199.319	101.836	-0.038	0.043
-198.304	-43.618	-0.242	-0.120
-197.290	-200.000	0.012	-0.279
-196.275	-92.727	0.125	-0.035
-195.260	33.671	-0.059	0.051
-194.246	800.000	-0.013	0.047
-193.231	800.000	-0.055	-0.213
-192.217	-200.000	0.004	0.120
-191.202	-28.874	-0.059	0.034
-190.187	-95.784	0.170	-0.045
-189.173	800.000	0.111	0.350
-188.158	-149.072	-0.158	0.013
-187.144	302.868	-0.161	0.294
-186.129	-200.000	0.072	-0.322
-185.114	-132.655	0.174	0.022
-184.100	37.324	-0.297	-0.260
-183.085	800.000	0.077	0.286
-182.071	-200.000	0.005	-0.134
-181.056	-10.414	0.207	0.135
-180.042	-200.000	-0.002	0.012
-179.027	223.540	0.154	0.246
-178.012	-27.000	0.145	-0.084
-176.998	99.128	-0.151	0.172
-175.983	-200.000	0.008	0.074
-174.969	-149.101	-0.126	0.010
-173.954	-25.802	-0.319	-0.186
-172.939	-22.919	-0.179	-0.107
-171.925	191.274	0.174	-0.259
-170.910	-67.738	0.033	0.013
-169.896	-200.000	-0.004	0.063
-168.881	-135.846	-0.247	-0.029
-167.866	43.127	0.142	0.127
-166.852	-149.261	0.019	-0.001
-165.837	-61.695	-0.238	0.098
-164.823	-95.692	-0.091	0.024
-163.808	800.000	-0.093	0.292
-162.793	-200.000	-0.016	-0.082
-161.779	-200.000	-0.002	0.014
-160.764	541.918	-0.125	0.295
-159.750	-97.233	0.185	0.048
-158.735	-200.000	0.035	-0.152
-157.720	228.752	0.121	0.194
-156.706	642.884	0.122	-0.307
-155.691	-200.000	-0.012	0.128
-154.677	-200.000	-0.054	-0.302
-153.662	74.269	-0.183	0.190
-152.647	-60.519	-0.089	-0.037
-151.633	54.881	0.207	0.197
-150.618	800.000	0.026	-0.103
-149.604	-0.605	0.087	0.061
-148.589	28.265	0.125	-0.104
-147.574	-200.000	-0.011	0.230
-146.560	-13.317	-0.349	0.223
-145.545	-74.352	0.215	0.077
-144.531	-200.000	0.002	-0.122
-143.516	110.405	-0.233	-0.276
-142.502	-200.000	-0.047	-0.230
-141.487	800.000	0.066	-0.209
-140.472	-108.032	-0.322	-0.069
-139.458	18.185	0.103	0.081
-138.443	291.538	0.104	-0.186
-137.429	-13.050	-0.151	-0.097
-136.414	171.385	0.043	0.061
-135.399	30.114	0.076	0.064
-134.385	269.759	0.167	0.289
-133.370	-50.232	-0.088	0.041
-132.356	228.400	0.044	-0.071
-131.341	379.464	0.041	-0.084
-130.326	800.000	-0.021	0.076
-129.312	171.836	0.204	-0.288
-128.297	-18.769	0.227	0.139
-127.283	344.592	0.044	-0.085
-126.268	172.736	-0.099	-0.140
-125.253	-3.758	0.116	-0.079
-124.239	68.714	-0.133	0.135
-123.224	349.270	-0.201	0.391
-122.210	222.345	0.079	0.125
-121.195	288.595	0.138	0.246
-120.180	-64.945	0.175	0.070
-119.166	-136.296	0.251	-0.029
-118.151	-200.000	-0.006	-0.299
-117.137	263.970	0.184	0.315
-116.122	-160.285	-0.112	-0.006
-115.107	-16.739	0.090	0.056
-114.093	800.000	-0.076	0.235
-113.078	-200.000	0.184	0.000
-112.064	-40.983	0.168	-0.086
-111.049	-200.000	-0.016	0.150
-110.034	800.000	0.057	0.172
-109.020	89.301	-0.121	0.133
-108.005	161.856	0.019	-0.026
-106.991	-100.252	0.097	-0.024
-105.976	-105.366	0.210	-0.047
-104.962	800.000	-0.051	0.177
-103.947	-200.000	0.012	0.137
-102.932	475.766	0.106	-0.237
-101.918	10.614	0.073	-0.055
-100.903	-200.000	0.010	-0.166
-99.889	-200.000	0.024	0.201
-98.874	401.348	-0.101	0.208
-97.859	-31.108	0.027	-0.015
-96.845	27.135	-0.304	-0.251
-95.830	-200.000	0.021	-0.383
-94.816	22.666	-0.222	-0.179
-93.801	172.097	0.115	0.163
-92.786	-76.255	0.193	-0.067
-91.772	-128.071	0.166	-0.023
-90.757	207.521	0.253	-0.388
-89.743	-200.000	-0.037	-0.396
-88.728	-121.035	-0.257	-0.042
-87.713	-146.153	-0.070	-0.006
-86.699	-90.000	0.214	0.061
-85.684	-200.000	-0.069	-0.323
-84.670	204.823	0.269	-0.410
-83.655	42.724	0.088	0.079
-82.640	-200.000	0.001	-0.282
-81.626	-192.285	0.207	0.002
-80.611	-105.492	0.415	-0.093
-79.597	800.000	-0.072	0.301
-78.582	-27.808	-0.169	0.097
-77.567	-158.012	0.200	0.012
-76.553	158.841	0.103	0.140
-75.538	276.716	0.095	0.166
-74.524	230.265	0.106	-0.171
-73.509	-155.439	0.432	-0.027
-72.494	396.988	-0.142	0.292
-71.480	-77.172	-0.381	0.130
-70.465	800.000	-0.080	0.316
-69.451	729.646	-0.058	0.152
-68.436	96.507	-0.212	0.238
-67.422	-87.438	0.133	0.039
-66.407	-119.541	-0.368	-0.063
-65.392	-6.311	0.094	-0.063
-64.378	-114.801	0.313	0.059
-63.363	324.917	-0.050	-0.095
-62.349	800.000	0.118	0.351
-61.334	106.991	-1.076	-1.256
-60.319	260.102	0.296	0.503
-59.305	-200.000	-0.110	-1.077
-58.290	120.798	0.943	1.152
-57.276	278.282	0.854	1.495
-56.261	-200.000	99.958	582.165
-55.246	508.202	1411.712	3219.907
-54.232	157.353	2583.191	3511.223
-53.217	110.310	2157.675	2545.999
-52.203	41.568	1692.983	1505.744
-51.188	34.179	1503.276	1287.235
-50.173	31.835	1475.811	1248.084
-49.159	51.828	1527.598	1427.824
-48.144	53.431	1545.678	1455.537
-47.130	34.455	1503.915	1289.445
-46.115	31.427	1488.825	1256.150
-45.100	31.235	1485.868	1252.313
-44.086	31.119	1483.961	1249.881
-43.071	31.112	1481.725	1247.899
-42.057	31.082	1480.135	1246.310
-41.042	31.085	1478.727	1245.100
-40.027	31.188	1477.033	1244.306
-39.013	31.098	1475.792	1242.612
-37.998	31.026	1474.824	1241.272
-36.984	31.097	1473.589	1240.654
-35.969	31.060	1471.969	1238.997
-34.954	31.153	1470.854	1238.621
-33.940	31.053	1470.016	1237.207
-32.925	31.188	1468.103	1236.442
-31.911	31.105	1467.301	1235.166
-30.896	31.117	1465.782	1233.922
-29.881	31.113	1464.409	1232.689
-28.867	31.275	1462.624	1232.205
-27.852	31.128	1461.763	1230.462
-26.838	31.094	1460.665	1229.263
-25.823	31.100	1459.089	1227.928
-24.809	31.145	1457.465	1226.807
-23.794	31.221	1455.876	1225.924
-22.779	31.153	1454.956	1224.655
-21.765	31.197	1453.669	1223.809
-20.750	31.064	1452.294	1221.734
-19.736	31.121	1451.059	1221.016
-18.721	31.101	1449.863	1219.833
-17.706	31.206	1448.815	1219.587
-16.692	31.043	1448.652	1218.339
-15.677	31.156	1446.597	1217.300
-14.663	31.114	1446.194	1216.635
-13.648	31.115	1445.256	1215.803
-12.633	31.120	1444.268	1214.957
-11.619	31.095	1443.521	1214.120
-10.604	31.143	1442.649	1213.652
-9.590	31.037	1441.402	1211.863
-8.575	31.093	1440.549	1211.463
-7.560	31.119	1439.629	1210.808
-6.546	31.030	1439.250	1209.862
-5.531	31.079	1438.193	1209.246
-4.517	31.081	1436.994	1208.205
-3.502	31.100	1436.049	1207.482
-2.487	31.109	1434.893	1206.523
-1.473	31.034	1434.243	1205.442
-0.458	31.077	1432.212	1203.963
0.556	28.991	1423.275	1192.873
1.571	25.920	1398.149	1152.117
2.586	22.390	1338.528	1081.251
3.600	20.546	1257.621	1005.153
4.615	19.333	1213.039	962.663
5.629	16.700	1156.872	903.968
6.644	8.407	1072.651	796.874
7.659	1.304	1031.625	732.156
8.673	0.199	1026.095	722.867
9.688	0.123	1023.221	720.415
10.702	0.067	1021.704	719.013
11.717	-0.099	1019.943	716.920
12.731	2.565	1022.501	731.386
13.746	10.869	1033.640	779.231
14.761	17.157	1040.849	814.854
15.775	17.370	1040.435	815.482
16.790	16.450	1038.166	809.227
17.804	15.343	1035.926	802.118
18.819	14.506	1034.175	796.692
19.834	14.051	1032.730	793.338
20.848	13.698	1031.936	790.976
21.863	13.438	1031.386	789.245
22.877	13.227	1030.572	787.548
23.892	12.977	1029.690	785.613
24.907	13.049	1028.768	785.182
25.921	12.952	1027.956	784.030
26.936	13.055	1027.174	783.854
27.950	13.150	1026.557	783.766
28.965	13.108	1026.016	783.085
29.980	13.103	1025.378	782.505
30.994	13.286	1024.013	782.260
32.009	13.147	1023.619	781.233
33.023	13.181	1023.079	780.909
34.038	13.214	1021.928	780.120
35.053	13.267	1021.004	779.592
36.067	13.199	1020.523	778.840
37.082	13.272	1019.071	778.005
38.096	13.263	1018.633	777.556
39.111	13.199	1018.093	776.775
40.126	13.253	1017.256	776.322
41.140	13.071	1016.378	774.732
42.155	13.158	1015.170	774.149
43.169	12.988	1014.533	772.797
44.184	12.920	1013.428	771.570
45.199	12.943	1012.486	770.893
46.213	13.029	1011.522	770.492
47.228	12.901	1010.401	768.971
48.242	13.130	1008.829	768.775
49.257	13.143	1008.564	768.564
50.271	13.196	1007.376	767.840
51.286	13.162	1006.927	767.272
52.301	13.127	1006.185	766.472
53.315	13.190	1005.532	766.200
54.330	13.172	1004.512	765.274
55.344	13.074	1003.769	764.183
56.359	13.055	1002.654	763.179
57.374	13.070	1001.733	762.482
58.388	13.066	1001.167	761.963
59.403	12.994	1000.025	760.695
60.417	13.063	999.537	760.576
61.432	12.866	999.378	759.481
62.447	13.014	998.153	759.163
63.461	12.966	997.251	758.191
64.476	12.941	996.196	757.205
65.490	12.931	995.372	756.468
66.505	13.107	994.564	756.592
67.520	12.969	994.276	755.673
68.534	13.043	993.348	755.239
69.549	13.079	992.498	754.693
70.563	13.004	992.109	753.984
71.578	12.915	991.384	752.964
72.593	13.030	990.087	752.432
73.607	12.871	989.280	751.032
74.622	12.868	988.413	750.293
75.636	12.768	987.519	749.092
76.651	12.946	986.322	748.927
77.666	12.833	985.999	748.103
78.680	12.963	985.101	747.946
79.695	12.864	984.852	747.239
80.709	12.898	984.323	746.926
81.724	12.903	983.677	746.391
82.739	12.991	982.739	746.012
83.753	13.070	981.743	745.548
84.768	13.120	981.287	745.364
85.782	13.144	980.271	744.632
86.797	13.065	980.149	744.116
87.812	13.129	979.098	743.543
88.826	13.048	978.257	742.473
89.841	13.124	977.421	742.114
90.855	13.172	976.434	741.516
91.870	13.234	975.997	741.394
92.884	13.270	975.050	740.769
93.899	13.237	974.704	740.293
94.914	13.161	973.800	739.201
95.928	13.375	972.583	739.172
96.943	13.384	972.008	738.707
97.957	13.247	971.434	737.595
98.972	13.309	970.448	737.057
99.987	13.263	969.636	736.172
101.001	13.266	969.109	735.717
102.016	13.229	968.301	734.878
103.030	13.165	967.533	733.944
104.045	13.279	966.370	733.502
105.060	13.295	965.747	733.034
106.074	13.153	964.720	731.561
107.089	13.178	964.080	731.124
108.103	13.167	963.203	730.345
109.118	13.052	962.335	729.112
110.133	12.991	961.474	728.125
111.147	13.073	960.741	727.868
112.162	13.056	960.285	727.385
113.176	13.048	959.119	726.401
114.191	13.157	958.575	726.404
115.206	13.094	957.421	725.189
116.220	13.134	956.661	724.724
117.235	13.087	956.062	724.001
118.249	13.190	955.102	723.660
119.264	13.143	954.199	722.706
120.279	13.142	952.991	721.724
121.293	13.138	952.581	721.332
122.308	13.068	952.270	720.728
123.322	13.079	950.999	719.752
124.337	13.097	949.508	718.637
125.352	13.176	948.988	718.522
126.366	13.057	947.975	717.175
127.381	13.128	946.696	716.451
128.395	13.053	946.053	715.577
129.410	12.921	945.345	714.405
130.424	12.910	944.342	713.537
131.439	13.114	943.405	713.646
132.454	13.151	942.472	713.039
133.468	13.093	941.765	712.192
134.483	13.217	940.915	712.018
135.497	13.122	940.688	711.377
136.512	13.135	939.698	710.622
137.527	13.184	938.645	709.973
138.541	13.232	937.923	709.568
139.556	13.169	937.414	708.852
140.570	13.251	936.806	708.678
141.585	13.339	935.953	708.350
142.600	13.239	935.679	707.651
143.614	13.182	934.708	706.608
144.629	13.400	933.825	706.809
145.643	13.242	933.105	705.529
146.658	13.307	932.195	705.054
147.673	13.342	931.258	704.431
148.687	13.243	930.399	703.300
149.702	13.331	929.627	703.028
150.716	13.200	928.982	701.921
151.731	13.248	928.250	701.508
152.746	13.201	927.105	700.384
153.760	13.279	926.516	700.206
154.775	13.302	925.962	699.826
155.789	13.307	925.541	699.467
156.804	13.420	924.580	699.155
157.819	13.358	923.954	698.357
158.833	13.639	922.856	698.650
159.848	13.350	922.560	697.148
160.862	13.543	921.351	696.984
161.877	13.444	921.347	696.501
162.892	13.470	920.021	695.547
163.906	13.272	919.492	694.256
164.921	13.301	918.593	693.638
165.935	13.261	917.650	692.693
166.950	13.321	916.723	692.185
167.964	13.507	915.499	691.978
168.979	13.522	914.484	691.213
169.994	13.441	913.793	690.289
171.008	13.396	912.826	689.309
172.023	13.403	912.233	688.830
173.037	13.481	911.357	688.432
174.052	13.447	911.094	688.032
175.067	13.510	910.409	687.716
176.081	13.450	909.455	686.686
177.096	13.449	908.618	685.987
178.110	13.408	907.865	685.192
179.125	13.554	907.244	685.265
180.140	13.491	906.156	684.123
181.154	13.468	905.774	683.680
182.169	13.502	905.055	683.214
183.183	13.569	904.196	682.782
184.198	13.597	903.552	682.351
185.213	13.554	903.387	681.990
186.227	13.598	902.622	681.530
187.242	13.745	901.828	681.477
188.256	13.730	900.906	680.658
189.271	13.754	900.485	680.379
190.286	13.868	899.385	679.955
191.300	13.764	898.738	678.978
192.315	13.641	898.020	677.873
193.329	13.530	897.798	677.193
194.344	13.412	897.323	676.293
195.359	13.550	896.432	676.123
196.373	13.663	895.823	676.064
197.388	13.611	895.452	675.514
198.402	13.834	895.063	676.070
199.417	13.789	894.449	675.360
200.432	13.790	894.291	675.186
201.446	13.898	893.643	675.078
202.461	13.925	893.232	674.814
203.475	13.971	893.040	674.800
204.490	13.931	892.240	673.972
205.504	13.838	891.279	672.811
206.519	13.870	890.551	672.329
207.534	13.826	889.657	671.416
208.548	13.832	888.874	670.791
209.563	13.796	888.353	670.192
210.577	13.866	887.574	669.830
211.592	14.011	886.946	669.878
212.607	14.156	886.362	669.965
213.621	14.230	885.427	669.495
214.636	14.143	885.258	668.960
215.650	14.009	884.670	667.918
216.665	14.021	883.699	667.173
217.680	14.078	883.676	667.323
218.694	14.210	883.064	667.332
219.709	14.224	882.615	666.989
220.723	14.201	881.879	666.283
221.738	14.165	881.120	665.505
222.753	14.226	880.563	665.273
223.767	14.164	879.555	664.204
224.782	14.136	879.184	663.751
225.796	14.356	878.206	663.833
226.811	14.252	877.807	663.057
227.826	14.127	877.377	662.178
228.840	14.395	876.366	662.420
229.855	14.371	875.545	661.645
230.869	14.343	874.792	660.906
231.884	14.236	874.194	659.974
232.899	14.268	873.334	659.393
233.913	14.147	873.229	658.775
234.928	14.141	872.132	657.866
235.942	14.219	871.735	657.818
236.957	14.195	870.644	656.840
237.972	13.940	870.531	655.689
238.986	14.243	869.596	656.124
240.001	14.330	868.598	655.653
241.015	14.423	868.193	655.655
242.030	14.339	867.577	654.803
243.045	14.330	867.206	654.431
244.059	14.264	866.449	653.541
245.074	14.382	865.875	653.513
246.088	14.340	865.425	652.951
247.103	14.437	864.924	652.897
248.117	14.505	863.889	652.321
249.132	14.459	863.551	651.831
250.147	14.598	863.304	652.130
251.161	14.610	862.492	651.503
252.176	14.741	861.746	651.393
253.190	14.722	860.880	650.609
254.205	14.647	860.773	650.177
255.220	14.704	860.315	649.997
256.234	14.796	859.163	649.424
257.249	14.743	858.730	648.834
258.263	14.697	858.529	648.448
259.278	14.797	857.466	647.974
260.293	14.839	857.217	647.892
261.307	14.838	856.451	647.251
262.322	14.794	856.417	646.999
263.336	14.784	855.203	645.983
264.351	14.896	854.966	646.181
265.366	14.948	854.084	645.659
266.380	14.797	853.822	644.821
267.395	14.955	852.625	644.470
268.409	15.029	852.033	644.250
269.424	15.003	850.957	643.278
270.439	14.863	850.947	642.677
271.453	15.061	850.064	642.713
272.468	14.951	849.252	641.618
273.482	14.917	848.784	641.079
274.497	14.871	848.416	640.567
275.512	15.051	847.174	640.264
276.526	14.915	846.808	639.409
277.541	15.055	846.400	639.581
278.555	15.017	845.507	638.705
279.570	15.035	845.268	638.537
280.585	15.088	844.745	638.287
281.599	15.094	844.434	638.018
282.614	15.079	843.478	637.182
283.628	15.310	842.509	637.271
284.643	15.155	841.943	636.196
285.657	15.011	841.916	635.574
286.672	15.096	841.427	635.471
287.687	15.057	840.984	634.933
288.701	15.083	840.526	634.630
289.716	15.268	839.611	634.584
290.730	15.153	839.122	633.721
291.745	15.126	838.637	633.198
292.760	15.280	837.487	632.853
293.774	15.209	837.227	632.332
294.789	15.312	836.824	632.363
295.803	15.296	836.269	631.825
296.818	15.284	835.549	631.182
297.833	15.285	834.877	630.621
298.847	15.207	834.483	629.973
299.862	15.398	833.301	629.745
300.876	15.279	832.758	628.831
301.891	15.406	832.328	628.926
302.906	15.477	831.584	628.574
303.920	15.659	830.895	628.681
304.935	15.459	830.289	627.416
305.949	15.606	829.821	627.557
306.964	15.569	829.235	626.923
307.979	15.566	828.547	626.336
308.993	15.374	828.575	625.585
310.008	15.511	827.504	625.228
311.022	15.681	827.101	625.501
312.037	15.650	826.350	624.764
313.052	15.457	826.219	623.893
314.066	15.669	825.410	624.012
315.081	15.502	824.768	622.852
316.095	15.590	824.099	622.620
317.110	15.474	823.816	621.919
318.125	15.546	823.306	621.746
319.139	15.553	822.668	621.238
320.154	15.688	822.223	621.345
321.168	15.583	821.692	620.498
322.183	15.702	821.087	620.426
323.197	15.764	820.585	620.222
324.212	15.737	820.008	619.630
325.227	15.674	820.135	619.439
326.241	15.688	819.465	618.930
327.256	15.674	818.598	618.170
328.270	15.576	818.119	617.394
329.285	15.640	817.373	617.009
330.300	15.583	816.866	616.365
331.314	15.623	816.410	616.111
332.329	15.849	815.632	616.297
333.343	15.713	815.228	615.441
334.358	15.969	814.493	615.768
335.373	15.841	813.923	614.814
336.387	15.956	813.505	614.865
337.402	16.005	812.975	614.588
338.416	15.895	812.345	613.655
339.431	16.022	811.763	613.625
340.446	15.986	811.208	613.018
341.460	15.972	810.792	612.599
342.475	16.130	810.401	612.824
343.489	16.043	810.136	612.255
344.504	16.101	809.162	611.674
345.519	16.195	808.483	611.446
346.533	16.112	808.306	610.959
347.548	16.239	807.781	610.968
348.562	16.161	807.185	610.180
349.577	16.067	806.813	609.508
350.592	16.040	805.860	608.636
351.606	16.000	805.663	608.288
352.621	16.108	805.151	608.237
353.635	15.954	805.093	607.583
354.650	16.186	804.588	607.984
355.665	16.147	804.195	607.496
356.679	16.249	803.461	607.253
357.694	16.252	803.254	607.054
358.708	16.171	802.450	606.101
359.723	16.121	801.811	605.385
360.738	16.079	801.562	604.994
361.752	16.279	801.147	605.345
362.767	16.256	800.559	604.765
363.781	16.236	800.342	604.473
364.796	16.474	799.551	604.674
365.810	16.377	799.076	603.916
366.825	16.445	798.911	603.981
367.840	16.478	798.636	603.837
368.854	16.442	798.525	603.571
369.869	16.486	797.486	602.889
370.883	16.531	796.869	602.530
371.898	16.549	796.439	602.216
372.913	16.502	795.802	601.514
373.927	16.589	795.046	601.196
374.942	16.681	794.498	601.055
375.956	16.692	793.365	600.185
376.971	16.557	793.459	599.724
377.986	16.566	793.213	599.519
379.000	16.817	792.335	599.690
380.015	16.656	792.051	598.853
381.029	16.675	791.892	598.744
382.044	16.800	790.783	598.296
383.059	16.697	790.448	597.626
384.073	16.697	790.260	597.430
385.088	16.850	789.482	597.327
386.102	16.773	788.873	596.546
387.117	16.752	788.277	595.966
388.132	16.802	787.971	595.857
389.146	16.689	787.706	595.207
390.161	16.665	787.292	594.757
391.175	16.678	787.188	594.671
392.190	16.680	786.202	593.882
393.205	16.834	785.860	594.113
394.219	16.810	785.531	593.727
395.234	16.869	785.121	593.570
396.248	16.700	784.589	592.523
397.263	16.840	784.007	592.522
398.278	16.820	783.368	591.915
399.292	16.769	782.892	591.326
400.307	16.616	783.104	590.900
401.321	16.851	782.156	590.951
402.336	16.757	782.086	590.519
403.350	16.855	781.735	590.544
404.365	16.780	781.302	589.904
405.380	16.860	780.600	589.599
406.394	16.794	780.543	589.274
407.409	17.061	779.900	589.665
408.423	16.928	779.390	588.763
409.438	17.124	779.088	589.163
410.453	17.179	778.401	588.784
411.467	17.148	778.117	588.407
412.482	17.200	777.503	588.071
413.496	17.119	776.933	587.309
414.511	17.238	776.737	587.520
415.526	17.202	776.479	587.149
416.540	17.106	776.286	586.621
417.555	17.144	775.541	586.136
418.569	17.263	775.055	586.125
419.584	17.319	774.878	586.133
420.599	17.203	774.151	585.131
421.613	108.191	1287.772	1463.264
422.628	92.368	1362.598	1463.353
