DTS Sentinel unit serial number:	SN413079Multiplexer serial number:	ORYXHardware model number:	OX4-SRSoftware version number:	ORYX F/W v4.00 Oryx Data Collector v3.7.2.0data status	okinstallation	princeton_trtdifferential loss correction	single-endedforward channel	channel 3reverse channel	N/Adate	2019/09/19time	02:36:35forward acquisition time	60.00reverse acquisition time	0.00gamma	496.2192k internal	0.2348k external	0.2348temperature offset calibration	0.9991default loss term (dB/km)	0.3790temperature slope calibration	1.0000multiplexer offset coefficient	1.0000multiplexer slope coefficient	1.0000fibre end	0.00T internal ref (°C)	21.00T ext. ref 1 (°C)	0.67T ext. ref 2 (°C)	14.72length (m)	temperature (°C)	Stokes	anti-Stokes-747.200	800.000	-0.072	0.234
-746.185	31.163	0.268	0.230
-745.171	-117.226	-0.357	0.065
-744.156	800.000	0.075	0.269
-743.142	-20.018	0.323	0.199
-742.127	-87.675	-0.343	-0.103
-741.112	-72.325	0.158	0.059
-740.098	-200.000	-0.040	0.308
-739.083	-157.044	0.141	0.009
-738.069	223.054	-0.127	0.205
-737.054	-49.996	-0.149	-0.070
-736.039	49.391	-0.301	-0.283
-735.025	-91.555	0.210	-0.060
-734.010	211.441	-0.134	-0.210
-732.996	241.660	0.196	-0.328
-731.981	406.286	0.140	-0.294
-730.966	136.997	-0.160	-0.209
-729.952	-38.150	-0.471	-0.249
-728.937	-200.000	0.021	-0.284
-727.923	94.993	-0.157	0.178
-726.908	240.417	0.132	0.220
-725.894	-100.457	0.189	-0.047
-724.879	121.237	0.217	-0.269
-723.864	-67.149	-0.350	-0.138
-722.850	484.937	0.085	-0.194
-721.835	-200.000	0.016	0.084
-720.821	7.612	0.247	0.184
-719.806	-83.537	-0.148	0.047
-718.791	123.436	-0.151	-0.189
-717.777	97.047	0.103	0.117
-716.762	222.804	-0.163	0.261
-715.748	458.798	-0.142	-0.316
-714.733	800.000	-0.090	0.263
-713.718	340.014	-0.153	-0.297
-712.704	-65.322	-0.212	-0.085
-711.689	-200.000	-0.008	0.068
-710.675	-168.441	0.447	-0.017
-709.660	434.293	0.064	0.139
-708.645	-133.941	0.323	0.040
-707.631	203.002	0.065	0.100
-706.616	-101.673	0.214	0.052
-705.602	96.139	-0.123	-0.140
-704.587	-13.384	0.282	-0.183
-703.572	-200.000	-0.020	-0.125
-702.558	800.000	-0.118	-0.440
-701.543	-68.347	0.212	0.082
-700.529	-14.948	0.090	0.058
-699.514	-200.000	-0.020	-0.228
-698.499	-200.000	-0.009	0.040
-697.485	93.711	-0.092	0.103
-696.470	415.231	0.059	-0.124
-695.456	176.868	0.100	0.145
-694.441	800.000	0.077	-0.292
-693.426	247.688	-0.069	-0.117
-692.412	11.949	-0.147	0.113
-691.397	540.869	-0.079	-0.188
-690.383	-200.000	0.070	-0.334
-689.368	-84.638	0.098	0.031
-688.354	-37.878	0.070	0.037
-687.339	-20.882	-0.113	-0.069
-686.324	72.141	0.349	-0.362
-685.310	-200.000	0.053	-0.375
-684.295	161.899	0.052	-0.073
-683.281	-200.000	0.072	0.322
-682.266	586.786	0.167	0.409
-681.251	-12.583	0.023	-0.015
-680.237	-12.449	-0.164	-0.107
-679.222	-200.000	0.032	-0.188
-678.208	150.572	-0.045	0.061
-677.193	6.191	0.043	0.032
-676.178	-93.971	-0.213	-0.058
-675.164	-68.529	0.053	0.021
-674.149	6.907	0.161	0.120
-673.135	-9.585	0.074	-0.049
-672.120	-200.000	0.002	-0.177
-671.105	800.000	-0.018	0.049
-670.091	364.767	-0.125	-0.251
-669.076	-34.392	0.157	0.085
-668.062	-200.000	-0.023	0.210
-667.047	-56.114	-0.091	-0.040
-666.032	72.986	-0.138	-0.143
-665.018	-149.592	-0.152	0.012
-664.003	35.399	-0.191	-0.167
-662.989	-25.973	-0.174	-0.102
-661.974	28.435	0.346	0.291
-660.959	678.340	-0.035	-0.090
-659.945	-130.967	-0.251	0.033
-658.930	-160.919	-0.064	-0.003
-657.916	-200.000	-0.030	0.160
-656.901	720.633	0.068	0.180
-655.886	234.379	-0.243	-0.399
-654.872	29.219	-0.115	-0.097
-653.857	63.292	0.166	-0.166
-652.843	624.681	0.109	0.273
-651.828	277.923	0.071	0.126
-650.814	-118.407	0.328	-0.058
-649.799	-129.189	-0.307	0.043
-648.784	-101.365	0.256	-0.062
-647.770	-200.000	-0.004	0.035
-646.755	-175.390	0.106	0.003
-645.741	103.563	-0.084	-0.098
-644.726	-67.352	-0.299	-0.117
-643.711	-105.151	0.210	0.048
-642.697	251.729	0.101	-0.171
-641.682	-173.426	-0.134	-0.004
-640.668	-200.000	0.051	0.226
-639.653	-74.922	0.044	0.016
-638.638	698.670	-0.049	-0.127
-637.624	135.061	-0.045	-0.059
-636.609	-200.000	0.019	0.174
-635.595	63.254	-0.168	-0.168
-634.580	-43.907	-0.130	0.065
-633.565	800.000	-0.067	0.282
-632.551	225.847	0.202	0.325
-631.536	-107.872	-0.244	-0.053
-630.522	61.171	-0.144	0.143
-629.507	-200.000	-0.118	-0.584
-628.492	800.000	0.046	0.190
-627.478	56.744	-0.101	0.098
-626.463	-200.000	-0.046	-0.427
-625.449	109.715	-0.045	-0.054
-624.434	800.000	0.032	-0.103
-623.419	15.973	-0.328	0.257
-622.405	-200.000	0.003	0.115
-621.390	703.165	-0.029	-0.077
-620.376	-57.894	-0.283	-0.123
-619.361	38.122	-0.386	-0.341
-618.346	-110.052	0.227	0.047
-617.332	-81.475	-0.119	-0.039
-616.317	260.235	-0.051	0.087
-615.303	-137.535	-0.575	-0.065
-614.288	92.329	-0.242	-0.271
-613.273	-60.165	0.411	-0.174
-612.259	-10.004	-0.300	0.198
-611.244	34.610	-0.214	-0.186
-610.230	540.328	0.191	-0.451
-609.215	321.665	0.135	-0.256
-608.201	7.000	-0.184	-0.136
-607.186	-120.952	0.161	-0.027
-606.171	-200.000	0.040	-0.222
-605.157	142.469	-0.176	-0.233
-604.142	-128.834	0.327	0.046
-603.128	62.363	0.134	-0.133
-602.113	-56.259	0.321	0.142
-601.098	294.950	-0.132	0.239
-600.084	-176.604	0.235	0.006
-599.069	427.826	-0.098	-0.210
-598.055	85.109	-0.150	-0.163
-597.040	-105.053	-0.431	-0.098
-596.025	-200.000	0.043	0.513
-595.011	269.386	0.012	0.021
-593.996	-28.213	-0.131	-0.075
-592.982	145.218	-0.163	-0.217
-591.967	-85.059	0.220	0.068
-590.952	161.723	0.164	0.228
-589.938	-200.000	0.047	-0.262
-588.923	38.798	0.334	-0.296
-587.909	800.000	0.030	0.093
-586.894	-32.080	-0.068	-0.038
-585.879	9.852	0.158	-0.119
-584.865	-48.338	-0.169	0.081
-583.850	800.000	0.028	0.104
-582.836	236.358	0.061	0.100
-581.821	-17.827	0.170	-0.106
-580.806	-67.307	0.018	0.007
-579.792	204.725	-0.080	-0.123
-578.777	-135.397	0.132	0.016
-577.763	-55.754	0.184	-0.081
-576.748	-60.357	0.145	-0.061
-575.733	173.944	0.323	0.463
-574.719	-173.865	-0.259	-0.008
-573.704	-200.000	0.303	-0.001
-572.690	62.160	0.121	-0.120
-571.675	582.521	0.162	-0.393
-570.661	-96.682	0.242	-0.063
-569.646	176.289	-0.080	-0.115
-568.631	-7.738	-0.309	0.207
-567.617	4.522	0.194	-0.141
-566.602	-89.058	-0.295	0.087
-565.588	195.021	0.064	0.097
-564.573	-52.138	-0.172	0.079
-563.558	157.882	0.090	0.124
-562.544	800.000	-0.132	0.382
-561.529	-200.000	0.057	-0.402
-560.515	-56.181	-0.168	-0.074
-559.500	-58.096	0.081	-0.035
-558.485	800.000	0.072	0.272
-557.471	-25.179	-0.197	0.116
-556.456	57.567	-0.277	0.268
-555.442	-2.301	-0.262	0.182
-554.427	44.668	-0.292	0.266
-553.412	22.611	0.054	0.044
-552.398	319.418	-0.113	0.213
-551.383	269.434	0.044	0.077
-550.369	-76.152	0.409	-0.143
-549.354	800.000	0.075	-0.302
-548.339	541.004	-0.026	0.062
-547.325	-48.300	0.278	-0.133
-546.310	65.479	0.168	-0.169
-545.296	53.969	-0.107	-0.102
-544.281	-95.418	-0.345	-0.092
-543.266	123.316	0.186	0.231
-542.252	-37.693	0.226	-0.119
-541.237	-200.000	-0.002	0.117
-540.223	-184.591	-0.137	0.002
-539.208	79.608	0.107	0.114
-538.193	305.810	-0.112	-0.206
-537.179	-61.632	-0.175	0.073
-536.164	-94.708	-0.241	-0.065
-535.150	-200.000	-0.001	-0.042
-534.135	121.176	-0.154	-0.189
-533.121	130.705	0.078	0.099
-532.106	359.110	-0.225	-0.445
-531.091	33.030	0.083	-0.071
-530.077	642.932	-0.129	-0.325
-529.062	800.000	0.057	-0.166
-528.048	52.436	0.100	0.094
-527.033	-200.000	0.005	-0.039
-526.018	-200.000	0.057	0.337
-525.004	-200.000	-0.005	0.090
-523.989	-200.000	0.053	0.367
-522.975	181.177	-0.166	0.242
-521.960	-64.220	0.373	0.150
-520.945	-65.238	0.151	-0.060
-519.931	-200.000	-0.011	0.357
-518.916	-141.639	-0.014	-0.001
-517.902	-152.500	0.138	-0.010
-516.887	-3.927	-0.421	-0.289
-515.872	413.417	-0.028	-0.059
-514.858	-85.720	-0.286	-0.088
-513.843	-75.384	0.246	0.087
-512.829	191.369	-0.243	-0.361
-511.814	-80.969	-0.176	-0.058
-510.799	-200.000	-0.006	0.046
-509.785	-3.263	0.093	0.064
-508.770	800.000	0.109	0.375
-507.756	-3.374	0.174	0.120
-506.741	192.008	-0.118	-0.175
-505.726	-65.249	-0.195	-0.078
-504.712	-133.965	-0.228	0.028
-503.697	20.572	-0.153	-0.123
-502.683	-74.522	-0.128	0.046
-501.668	800.000	-0.065	-0.225
-500.653	-28.681	-0.070	0.040
-499.639	17.935	0.336	0.265
-498.624	800.000	-0.024	0.071
-497.610	75.219	-0.149	0.155
-496.595	-64.853	0.237	0.095
-495.581	52.796	-0.141	0.134
-494.566	182.336	0.235	-0.343
-493.551	269.598	0.109	-0.190
-492.537	29.076	0.348	0.292
-491.522	-155.801	-0.232	0.015
-490.508	-90.872	0.277	-0.079
-489.493	99.909	-0.143	-0.164
-488.478	-14.597	0.110	-0.070
-487.464	-7.801	-0.364	-0.243
-486.449	31.268	0.184	0.156
-485.435	-21.672	-0.070	0.042
-484.420	-200.000	0.001	0.169
-483.405	27.227	0.149	0.124
-482.391	-151.343	-0.059	-0.004
-481.376	-103.458	0.192	-0.045
-480.362	-200.000	-0.003	-0.211
-479.347	-129.716	-0.284	-0.039
-478.332	-18.122	-0.126	0.078
-477.318	800.000	-0.039	0.140
-476.303	-3.792	-0.130	0.089
-475.289	28.981	0.208	-0.175
-474.274	800.000	0.030	-0.101
-473.259	31.117	-0.190	-0.161
-472.245	-42.414	-0.295	0.149
-471.230	-65.911	-0.396	-0.157
-470.216	76.358	0.098	-0.102
-469.201	-24.554	0.090	0.053
-468.186	309.951	-0.241	0.445
-467.172	-21.254	0.465	0.281
-466.157	800.000	-0.036	0.143
-465.143	733.651	0.096	0.254
-464.128	263.315	0.065	-0.111
-463.113	238.959	0.110	-0.180
-462.099	-81.171	-0.122	-0.040
-461.084	101.499	0.090	-0.104
-460.070	458.212	0.047	-0.103
-459.055	31.076	0.094	0.079
-458.040	-200.000	-0.006	0.202
-457.026	27.803	0.115	-0.096
-456.011	-200.000	0.003	-0.267
-454.997	-119.381	0.209	-0.036
-453.982	-5.379	0.374	0.254
-452.968	529.701	0.107	0.249
-451.953	276.364	-0.083	0.145
-450.938	281.397	0.107	-0.190
-449.924	-55.098	0.382	0.170
-448.909	-4.094	0.145	0.099
-447.895	-35.316	0.031	0.017
-446.880	-10.468	-0.201	0.132
-445.865	-136.746	0.049	-0.006
-444.851	64.384	-0.046	0.046
-443.836	12.218	-0.306	0.233
-442.822	800.000	0.080	0.287
-441.807	285.601	0.093	0.166
-440.792	-200.000	0.004	0.396
-439.778	220.520	-0.103	0.162
-438.763	-109.385	0.161	-0.034
-437.749	-200.000	0.054	-0.296
-436.734	-200.000	-0.009	-0.074
-435.719	-80.136	0.077	0.025
-434.705	800.000	0.042	-0.157
-433.690	-200.000	0.005	0.231
-432.676	-174.172	0.316	-0.009
-431.661	3.461	-0.095	-0.068
-430.646	-153.764	0.134	-0.009
-429.632	719.058	-0.018	0.046
-428.617	-18.406	-0.222	0.137
-427.603	800.000	-0.083	0.297
-426.588	800.000	0.052	0.204
-425.573	15.032	-0.129	0.100
-424.559	-200.000	0.050	0.243
-423.544	-78.105	0.248	-0.084
-422.530	-17.861	0.275	-0.170
-421.515	-136.568	-0.294	0.034
-420.500	82.833	-0.237	0.254
-419.486	177.772	-0.200	-0.287
-418.471	-200.000	0.019	-0.109
-417.457	-89.590	-0.015	0.004
-416.442	800.000	-0.059	0.212
-415.428	-2.007	-0.125	0.086
-414.413	-81.938	-0.288	0.093
-413.398	800.000	-0.098	-0.315
-412.384	111.351	0.180	0.214
-411.369	-26.056	0.167	0.097
-410.355	-200.000	0.024	-0.243
-409.340	25.439	0.290	-0.238
-408.325	-149.889	-0.056	-0.004
-407.311	800.000	-0.038	0.119
-406.296	62.265	-0.172	0.169
-405.282	15.820	0.274	0.212
-404.267	6.107	0.161	0.118
-403.252	-200.000	0.039	-0.255
-402.238	578.655	0.139	-0.335
-401.223	-24.138	-0.099	-0.058
-400.209	-190.867	0.369	0.004
-399.194	603.005	0.039	-0.096
-398.179	487.998	-0.227	0.511
-397.165	-200.000	-0.041	0.189
-396.150	-200.000	-0.038	0.372
-395.136	800.000	0.128	-0.398
-394.121	-67.997	0.355	-0.137
-393.106	-200.000	-0.012	-0.106
-392.092	-200.000	-0.021	-0.161
-391.077	-200.000	-0.016	-0.330
-390.063	-0.532	0.264	-0.185
-389.048	247.888	0.183	-0.305
-388.033	344.555	-0.107	0.207
-387.019	114.593	0.151	0.181
-386.004	-161.715	0.168	0.008
-384.990	9.833	-0.115	-0.086
-383.975	97.708	-0.086	-0.097
-382.960	135.947	-0.139	-0.178
-381.946	-200.000	0.009	0.121
-380.931	218.135	0.200	0.314
-379.917	134.373	-0.025	-0.032
-378.902	-68.613	-0.252	0.096
-377.888	-85.779	-0.081	-0.025
-376.873	303.197	-0.258	-0.471
-375.858	-190.373	-0.237	-0.003
-374.844	-63.985	0.170	-0.068
-373.829	-200.000	0.114	-0.613
-372.815	-27.038	0.064	0.037
-371.800	56.003	0.201	0.192
-370.785	-200.000	-0.035	0.318
-369.771	-200.000	0.053	0.346
-368.756	36.962	0.073	-0.064
-367.742	-112.972	0.394	0.077
-366.727	-89.629	-0.152	0.044
-365.712	220.209	-0.095	-0.149
-364.698	-68.390	-0.162	0.062
-363.683	-133.913	0.137	-0.017
-362.669	-200.000	-0.035	-0.243
-361.654	39.152	-0.290	-0.256
-360.639	-81.555	0.256	-0.083
-359.625	-120.379	-0.427	0.072
-358.610	-64.376	0.026	0.011
-357.596	5.555	-0.055	0.040
-356.581	-131.819	-0.338	0.044
-355.566	-173.706	-0.072	-0.002
-354.552	-200.000	-0.020	0.205
-353.537	404.618	-0.155	-0.321
-352.523	-78.096	0.404	-0.137
-351.508	257.976	-0.085	-0.144
-350.493	11.804	-0.141	0.106
-349.479	-168.088	-0.024	-0.001
-348.464	-48.196	-0.107	0.051
-347.450	227.101	0.116	0.185
-346.435	653.697	-0.145	0.366
-345.420	47.894	0.176	-0.161
-344.406	800.000	0.041	0.150
-343.391	507.570	0.106	0.242
-342.377	-200.000	-0.007	0.124
-341.362	74.634	-0.275	-0.284
-340.348	-200.000	0.048	-0.478
-339.333	800.000	-0.116	0.389
-338.318	175.449	-0.258	-0.368
-337.304	383.922	0.127	0.257
-336.289	-200.000	0.026	-0.198
-335.275	-31.154	0.164	0.091
-334.260	61.448	0.027	0.026
-333.245	86.696	0.254	0.276
-332.231	111.622	-0.208	0.247
-331.216	-142.991	-0.087	0.008
-330.202	-67.280	0.157	0.061
-329.187	800.000	-0.054	-0.148
-328.172	566.200	-0.124	0.295
-327.158	-87.586	0.096	-0.029
-326.143	-33.922	0.165	-0.089
-325.129	-200.000	0.026	-0.301
-324.114	800.000	-0.072	-0.219
-323.099	33.142	-0.176	-0.150
-322.085	-157.323	-0.246	0.015
-321.070	-118.359	-0.239	-0.042
-320.056	-200.000	0.010	-0.066
-319.041	-200.000	-0.009	-0.204
-318.026	-122.786	-0.173	0.028
-317.012	-67.804	0.153	0.059
-315.997	-112.023	-0.252	0.050
-314.983	55.137	0.069	0.066
-313.968	72.867	0.184	-0.188
-312.953	169.149	-0.025	-0.035
-311.939	232.773	-0.124	0.200
-310.924	-77.235	0.110	0.038
-309.910	-32.396	0.072	0.039
-308.895	800.000	-0.041	0.143
-307.880	-46.018	-0.184	-0.089
-306.866	-102.784	0.194	-0.045
-305.851	116.259	-0.256	-0.307
-304.837	208.967	0.088	0.136
-303.822	180.983	0.182	-0.262
-302.807	-110.298	0.093	0.019
-301.793	37.516	-0.117	-0.102
-300.778	44.747	0.227	-0.205
-299.764	271.039	-0.152	0.263
-298.749	800.000	-0.095	0.268
-297.735	-8.351	0.145	-0.096
-296.720	-85.891	-0.149	-0.045
-295.705	66.158	-0.161	0.161
-294.691	-200.000	0.075	0.336
-293.676	-82.487	0.225	0.072
-292.662	-48.702	0.419	0.198
-291.647	-33.621	-0.079	-0.043
-290.632	370.651	0.067	-0.134
-289.618	800.000	0.045	0.171
-288.603	-50.161	-0.082	-0.038
-287.589	-200.000	-0.016	-0.171
-286.574	-200.000	-0.005	-0.161
-285.559	-200.000	0.009	-0.057
-284.545	-171.329	0.432	0.014
-283.530	91.730	-0.151	-0.166
-282.516	-100.920	-0.032	-0.008
-281.501	-141.284	-0.170	0.017
-280.486	-200.000	0.005	-0.197
-279.472	800.000	-0.042	0.119
-278.457	89.414	-0.127	0.139
-277.443	-101.694	-0.151	0.036
-276.428	157.041	0.064	-0.087
-275.413	-21.834	-0.254	0.151
-274.399	-71.137	0.150	0.055
-273.384	31.325	-0.387	-0.326
-272.370	528.878	0.197	-0.455
-271.355	-68.218	-0.129	0.049
-270.340	187.055	0.112	-0.164
-269.326	191.518	0.102	0.150
-268.311	201.248	-0.147	-0.223
-267.297	-67.490	-0.381	0.146
-266.282	-97.002	-0.328	-0.084
-265.267	-146.576	-0.250	-0.021
-264.253	99.904	0.214	0.243
-263.238	-200.000	0.023	0.455
-262.224	800.000	0.139	-0.502
-261.209	70.365	0.238	-0.241
-260.195	130.262	-0.061	0.076
-259.180	-114.373	0.557	0.105
-258.165	178.709	0.141	0.202
-257.151	-200.000	0.076	0.359
-256.136	-77.618	-0.072	0.025
-255.122	-200.000	-0.016	0.187
-254.107	-200.000	0.040	0.224
-253.092	-200.000	0.000	-0.095
-252.078	338.197	0.167	-0.318
-251.063	-42.457	-0.278	0.139
-250.049	-200.000	-0.013	-0.107
-249.034	243.587	-0.111	-0.183
-248.019	-130.695	-0.261	-0.034
-247.005	-88.369	0.089	-0.026
-245.990	-200.000	-0.013	-0.068
-244.976	113.669	0.104	-0.124
-243.961	4.185	0.171	0.122
-242.946	199.285	-0.196	-0.294
-241.932	-17.004	-0.165	-0.102
-240.917	800.000	0.030	0.121
-239.903	112.474	0.219	0.259
-238.888	-77.519	0.140	0.048
-237.873	144.760	-0.025	-0.033
-236.859	94.240	-0.132	-0.146
-235.844	800.000	-0.045	-0.171
-234.830	-187.392	-0.264	0.003
-233.815	73.581	-0.147	0.150
-232.800	62.762	-0.136	-0.133
-231.786	800.000	-0.098	0.267
-230.771	-131.658	0.150	-0.019
-229.757	104.530	0.122	-0.140
-228.742	50.101	0.131	0.121
-227.727	-200.000	-0.033	-0.192
-226.713	176.904	0.116	0.165
-225.698	-200.000	0.063	-0.274
-224.684	224.369	0.101	0.159
-223.669	-2.842	-0.138	-0.094
-222.655	29.826	-0.251	-0.209
-221.640	66.973	0.082	0.082
-220.625	-75.439	-0.192	0.067
-219.611	47.038	0.205	0.186
-218.596	63.093	-0.209	-0.205
-217.582	-97.584	0.313	-0.079
-216.567	53.900	0.192	-0.180
-215.552	205.813	-0.139	0.211
-214.538	800.000	0.065	-0.274
-213.523	-92.263	0.395	-0.109
-212.509	90.757	0.078	-0.086
-211.494	116.841	-0.116	-0.139
-210.479	89.498	-0.052	-0.057
-209.465	-65.957	0.307	-0.120
-208.450	-200.000	0.008	-0.185
-207.436	193.978	-0.165	0.244
-206.421	-104.042	0.244	-0.056
-205.406	520.094	0.159	-0.365
-204.392	-38.150	0.298	0.155
-203.377	-173.910	-0.127	0.004
-202.363	-200.000	-0.073	0.407
-201.348	34.985	0.191	-0.164
-200.333	-152.477	0.179	-0.013
-199.319	-64.143	0.211	-0.084
-198.304	8.331	-0.319	-0.235
-197.290	-200.000	0.009	-0.045
-196.275	242.074	-0.102	0.166
-195.260	286.011	-0.135	-0.238
-194.246	670.360	0.166	0.420
-193.231	-200.000	0.039	-0.250
-192.217	-200.000	-0.002	-0.104
-191.202	45.300	-0.199	0.179
-190.187	-200.000	0.034	0.239
-189.173	-56.116	-0.125	-0.054
-188.158	800.000	0.029	-0.102
-187.144	240.086	0.165	0.269
-186.129	31.676	-0.168	-0.141
-185.114	-200.000	-0.014	0.142
-184.100	-10.137	-0.200	-0.130
-183.085	-36.510	0.366	0.192
-182.071	19.523	0.143	-0.113
-181.056	-200.000	0.024	-0.274
-180.042	35.441	0.118	-0.101
-179.027	139.228	-0.088	0.113
-178.012	14.913	0.084	-0.065
-176.998	-200.000	0.021	0.427
-175.983	-200.000	0.007	0.161
-174.969	800.000	0.013	0.038
-173.954	-200.000	-0.054	0.395
-172.939	-152.128	0.064	0.005
-171.925	-53.710	0.218	-0.097
-170.910	183.806	-0.077	-0.111
-169.896	-152.396	0.153	0.011
-168.881	-117.503	0.051	0.009
-167.866	-200.000	-0.009	-0.119
-166.852	678.717	0.111	0.283
-165.837	-200.000	-0.028	0.328
-164.823	0.036	-0.147	-0.102
-163.808	420.628	-0.038	0.079
-162.793	800.000	0.022	0.060
-161.779	800.000	0.056	0.171
-160.764	-200.000	0.010	-0.072
-159.750	161.697	0.203	0.278
-158.735	-200.000	-0.069	0.325
-157.720	153.443	0.091	-0.121
-156.706	-70.632	0.217	0.080
-155.691	128.391	0.096	0.119
-154.677	-121.482	-0.313	0.051
-153.662	-200.000	-0.035	-0.197
-152.647	-82.625	-0.217	-0.069
-151.633	-2.233	-0.107	0.073
-150.618	-0.182	0.143	0.100
-149.604	504.056	-0.157	-0.353
-148.589	-19.432	-0.204	0.123
-147.574	-23.348	-0.103	-0.061
-146.560	-80.478	0.276	-0.090
-145.545	0.979	-0.343	-0.240
-144.531	380.124	-0.066	-0.132
-143.516	-102.649	0.370	0.086
-142.502	-200.000	-0.055	0.381
-141.487	42.023	-0.167	-0.148
-140.472	-200.000	-0.089	0.424
-139.458	148.461	0.068	-0.090
-138.443	420.649	-0.083	0.174
-137.429	7.638	-0.092	0.067
-136.414	522.629	0.118	0.271
-135.399	69.360	0.115	-0.115
-134.385	-200.000	-0.028	0.227
-133.370	6.930	-0.016	-0.012
-132.356	210.166	-0.184	0.281
-131.341	93.565	0.156	-0.173
-130.326	-200.000	0.040	-0.187
-129.312	9.255	-0.155	0.114
-128.297	18.144	-0.174	0.135
-127.283	-200.000	-0.005	0.339
-126.268	-121.696	-0.095	-0.015
-125.253	800.000	-0.084	0.234
-124.239	73.146	-0.186	0.190
-123.224	-100.070	0.218	-0.053
-122.210	-200.000	0.123	0.000
-121.195	700.602	0.096	0.248
-120.180	20.300	-0.113	-0.089
-119.166	-94.505	0.260	0.069
-118.151	-115.658	-0.188	0.034
-117.137	86.659	0.202	-0.218
-116.122	-81.674	0.088	0.028
-115.107	-45.712	0.121	-0.058
-114.093	800.000	0.050	-0.138
-113.078	-30.286	0.289	-0.160
-112.064	163.286	0.085	0.116
-111.049	-200.000	0.017	0.239
-110.034	800.000	0.087	0.265
-109.020	96.122	0.160	-0.178
-108.005	-121.402	0.277	-0.045
-106.991	-51.369	0.377	0.172
-105.976	-89.617	-0.269	0.077
-104.962	-98.855	0.311	-0.077
-103.947	47.227	0.119	0.108
-102.932	-126.157	0.288	-0.042
-101.918	6.696	0.361	0.262
-100.903	70.900	-0.167	0.168
-99.889	-200.000	0.020	0.163
-98.874	-161.170	0.504	0.026
-97.859	-41.212	0.159	0.080
-96.845	-135.902	-0.285	0.033
-95.830	-200.000	0.003	0.024
-94.816	-200.000	-0.002	0.088
-93.801	-200.000	0.052	0.413
-92.786	195.614	-0.095	-0.141
-91.772	-200.000	0.008	0.061
-90.757	-135.081	0.414	-0.049
-89.743	253.526	-0.080	-0.133
-88.728	-39.907	-0.266	-0.135
-87.713	335.501	-0.007	0.013
-86.699	-200.000	0.044	-0.288
-85.684	34.702	0.245	0.208
-84.670	800.000	0.092	-0.259
-83.655	-30.374	-0.202	0.112
-82.640	800.000	0.030	0.094
-81.626	14.774	-0.178	-0.135
-80.611	-124.425	0.180	-0.027
-79.597	-33.752	0.396	-0.213
-78.582	-79.171	0.358	-0.118
-77.567	418.109	0.061	-0.128
-76.553	-200.000	-0.013	-0.059
-75.538	-144.237	0.201	0.018
-74.524	-200.000	0.018	0.192
-73.509	-200.000	0.064	0.303
-72.494	180.589	-0.122	0.175
-71.480	-121.827	-0.209	0.033
-70.465	-32.298	-0.409	0.222
-69.451	-97.889	0.397	-0.100
-68.436	-120.839	-0.087	0.014
-67.422	-200.000	0.025	-0.124
-66.407	-53.503	0.070	0.031
-65.392	-30.239	0.172	0.095
-64.378	366.864	-0.041	-0.081
-63.363	-16.630	0.081	-0.050
-62.349	-52.118	0.328	0.148
-61.334	145.332	-0.986	-1.284
-60.319	200.396	0.687	1.027
-59.305	800.000	-0.297	-1.056
-58.290	96.569	0.906	1.009
-57.276	711.171	0.544	1.400
-56.261	-200.000	135.771	682.440
-55.246	338.301	1678.127	3175.764
-54.232	134.786	2802.328	3537.461
-53.217	86.904	2194.395	2356.222
-52.203	31.159	1710.827	1427.076
-51.188	24.023	1534.690	1230.944
-50.173	22.354	1513.014	1202.123
-49.159	46.306	1589.737	1432.496
-48.144	43.180	1599.241	1419.049
-47.130	24.144	1547.417	1241.802
-46.115	21.235	1532.017	1209.281
-45.100	21.101	1528.297	1205.372
-44.086	20.985	1526.716	1203.277
-43.071	20.980	1524.722	1201.621
-42.057	20.985	1522.950	1200.217
-41.042	21.006	1521.455	1199.136
-40.027	20.948	1520.259	1197.744
-39.013	20.919	1518.965	1196.475
-37.998	20.965	1517.223	1195.375
-36.984	20.946	1516.325	1194.487
-35.969	21.008	1515.094	1193.896
-34.954	20.896	1513.529	1191.848
-33.940	20.933	1512.278	1191.072
-32.925	21.014	1510.689	1190.324
-31.911	20.956	1509.709	1189.109
-30.896	20.991	1508.439	1188.301
-29.881	21.026	1506.860	1187.248
-28.867	21.055	1505.720	1186.500
-27.852	21.050	1504.353	1185.344
-26.838	20.963	1503.050	1183.679
-25.823	21.096	1501.423	1183.251
-24.809	21.129	1499.611	1182.003
-23.794	21.094	1497.848	1180.324
-22.779	21.066	1497.357	1179.700
-21.765	21.079	1496.400	1178.992
-20.750	21.113	1495.087	1178.139
-19.736	20.924	1494.524	1176.370
-18.721	21.042	1492.778	1175.746
-17.706	21.051	1492.228	1175.325
-16.692	21.076	1490.838	1174.352
-15.677	21.051	1490.076	1173.541
-14.663	20.952	1489.077	1172.040
-13.648	20.952	1488.440	1171.495
-12.633	20.933	1487.225	1170.363
-11.619	20.992	1485.863	1169.639
-10.604	20.997	1485.380	1169.247
-9.590	20.967	1484.338	1168.181
-8.575	20.936	1483.787	1167.489
-7.560	21.005	1482.990	1167.282
-6.546	21.003	1481.889	1166.354
-5.531	21.051	1480.448	1165.495
-4.517	20.926	1480.075	1164.319
-3.502	20.902	1479.039	1163.296
-2.487	20.997	1477.938	1163.020
-1.473	20.896	1476.800	1161.402
-0.458	21.113	1475.128	1161.487
0.556	20.080	1465.267	1149.689
1.571	16.730	1441.347	1108.923
2.586	13.368	1378.750	1039.578
3.600	11.925	1293.360	966.592
4.615	10.866	1249.991	928.054
5.629	9.797	1192.734	879.640
6.644	5.074	1112.975	796.673
7.659	1.268	1078.209	752.864
8.673	0.790	1073.169	746.919
9.688	0.668	1069.559	743.737
10.702	0.636	1067.891	742.357
11.717	0.596	1066.018	740.790
12.731	2.194	1066.171	748.669
13.746	7.774	1073.011	780.859
14.761	14.100	1081.724	818.356
15.775	17.020	1085.297	835.382
16.790	16.961	1084.131	834.121
17.804	16.037	1081.987	827.860
18.819	15.217	1080.085	822.313
19.834	14.755	1078.777	818.979
20.848	14.476	1077.941	816.904
21.863	14.205	1077.128	814.887
22.877	13.971	1076.384	813.109
23.892	13.763	1075.363	811.248
24.907	13.642	1075.002	810.313
25.921	13.725	1073.672	809.642
26.936	13.687	1073.502	809.258
27.950	13.697	1072.539	808.510
28.965	13.875	1071.651	808.636
29.980	13.826	1070.608	807.538
30.994	13.885	1069.878	807.202
32.009	13.986	1068.824	806.824
33.023	13.935	1067.958	805.853
34.038	13.946	1067.430	805.439
35.053	13.917	1066.881	804.811
36.067	13.869	1065.768	803.667
37.082	13.895	1064.894	803.063
38.096	13.827	1064.533	802.393
39.111	13.893	1063.577	801.919
40.126	13.874	1062.701	801.095
41.140	13.803	1061.801	800.002
42.155	13.835	1060.368	799.007
43.169	13.746	1059.634	797.956
44.184	13.708	1058.648	796.960
45.199	13.698	1057.227	795.772
46.213	13.752	1056.552	795.451
47.228	13.653	1055.790	794.333
48.242	13.808	1054.446	793.997
49.257	13.796	1053.618	793.243
50.271	13.794	1053.088	792.766
51.286	13.723	1051.908	791.466
52.301	13.709	1050.969	790.623
53.315	13.943	1049.693	790.708
54.330	13.827	1049.024	789.582
55.344	13.805	1048.609	789.095
56.359	13.740	1047.363	787.780
57.374	13.857	1046.612	787.702
58.388	13.831	1045.197	786.444
59.403	13.774	1044.863	785.852
60.417	13.621	1044.342	784.666
61.432	13.638	1043.615	784.130
62.447	13.623	1042.647	783.260
63.461	13.630	1042.047	782.777
64.476	13.705	1040.986	782.261
65.490	13.720	1039.818	781.389
66.505	13.809	1038.862	781.019
67.520	13.608	1038.401	779.658
68.534	13.566	1038.249	779.277
69.549	13.865	1036.600	779.376
70.563	13.625	1036.163	777.848
71.578	13.710	1035.402	777.608
72.593	13.831	1034.467	777.405
73.607	13.723	1033.164	775.852
74.622	13.635	1032.277	774.705
75.636	13.724	1031.405	774.398
76.651	13.626	1031.127	773.663
77.666	13.716	1030.159	773.289
78.680	13.626	1029.403	772.233
79.695	13.680	1028.473	771.717
80.709	13.702	1028.348	771.660
81.724	13.776	1027.274	771.127
82.739	13.703	1026.674	770.271
83.753	13.763	1026.075	770.031
84.768	13.728	1024.932	768.942
85.782	13.795	1024.133	768.585
86.797	13.861	1023.485	768.336
87.812	13.879	1022.692	767.757
88.826	13.864	1022.051	767.139
89.841	13.814	1020.722	765.844
90.855	13.762	1020.190	765.135
91.870	13.882	1019.467	765.078
92.884	13.958	1018.585	764.699
93.899	13.923	1017.580	763.717
94.914	13.926	1017.283	763.439
95.928	13.988	1016.664	763.190
96.943	13.978	1015.635	762.308
97.957	13.945	1014.572	761.290
98.972	13.901	1013.790	760.436
99.987	13.997	1013.178	760.347
101.001	13.850	1012.372	759.005
102.016	13.864	1011.620	758.437
103.030	14.021	1010.435	758.197
104.045	14.022	1009.414	757.370
105.060	13.890	1008.852	756.280
106.074	13.795	1008.096	755.214
107.089	13.949	1006.608	754.733
108.103	13.835	1006.434	754.018
109.118	13.856	1004.719	752.761
110.133	13.824	1004.446	752.342
111.147	13.674	1003.296	750.736
112.162	13.664	1002.872	750.307
113.176	13.805	1001.751	750.041
114.191	13.855	1000.733	749.434
115.206	13.824	999.777	748.513
116.220	13.893	999.200	748.329
117.235	13.885	998.317	747.561
118.249	13.828	997.806	746.858
119.264	13.849	996.592	745.978
120.279	13.795	995.856	745.117
121.293	13.912	994.840	744.817
122.308	13.921	993.707	743.942
123.322	13.853	993.050	743.083
124.337	13.859	991.879	742.165
125.352	13.844	990.507	741.006
126.366	13.720	989.844	739.893
127.381	13.742	988.727	739.089
128.395	13.797	987.845	738.611
129.410	13.738	986.507	737.283
130.424	13.748	985.800	736.734
131.439	13.811	984.797	736.198
132.454	13.860	984.056	735.795
133.468	13.861	983.642	735.426
134.483	13.893	982.894	734.944
135.497	13.852	981.794	733.874
136.512	13.825	981.150	733.207
137.527	13.788	980.456	732.462
138.541	13.803	979.353	731.640
139.556	13.880	978.848	731.538
140.570	13.823	978.222	730.753
141.585	13.843	977.857	730.503
142.600	13.847	977.032	729.841
143.614	14.015	976.095	729.814
144.629	14.071	975.286	729.388
145.643	14.106	974.410	728.824
146.658	14.086	973.408	727.921
147.673	14.039	972.627	727.068
148.687	14.017	971.810	726.298
149.702	13.967	971.229	725.579
150.716	13.936	970.247	724.646
151.731	13.960	969.121	723.848
152.746	13.914	968.764	723.315
153.760	14.087	967.339	722.941
154.775	14.065	966.978	722.511
155.789	14.088	965.916	721.752
156.804	13.937	965.660	720.843
157.819	14.017	964.943	720.590
158.833	14.110	963.600	719.928
159.848	14.185	962.949	719.699
160.862	14.151	962.617	719.242
161.877	14.142	961.979	718.662
162.892	14.090	961.118	717.732
163.906	14.112	959.906	716.857
164.921	14.185	959.061	716.478
165.935	14.076	958.257	715.344
166.950	14.237	957.132	715.132
167.964	14.188	956.408	714.318
168.979	14.075	955.314	712.955
169.994	14.065	954.722	712.408
171.008	14.219	953.499	712.091
172.023	14.180	952.630	711.213
173.037	14.334	951.908	711.267
174.052	14.223	951.366	710.325
175.067	14.194	950.790	709.709
176.081	14.253	949.840	709.188
177.096	14.146	949.116	708.127
178.110	14.312	947.702	707.715
179.125	14.175	947.259	706.742
180.140	14.186	946.641	706.266
181.154	14.247	945.778	705.816
182.169	14.337	945.180	705.688
183.183	14.286	944.564	704.949
184.198	14.339	944.090	704.761
185.213	14.393	942.651	703.850
186.227	14.339	942.559	703.490
187.242	14.484	942.174	703.754
188.256	14.481	941.347	703.063
189.271	14.525	940.549	702.589
190.286	14.603	939.943	702.404
191.300	14.430	938.894	700.827
192.315	14.385	938.539	700.314
193.329	14.251	937.918	699.227
194.344	14.181	937.001	698.187
195.359	14.408	936.474	698.681
196.373	14.429	935.791	698.198
197.388	14.474	935.574	698.163
198.402	14.460	934.872	697.518
199.417	14.610	934.364	697.708
200.432	14.671	934.021	697.641
201.446	14.522	933.595	696.641
202.461	14.673	932.679	696.526
203.475	14.705	932.715	696.623
204.490	14.767	931.605	695.993
205.504	14.837	930.981	695.758
206.519	14.696	930.098	694.447
207.534	14.731	928.955	693.677
208.548	14.607	928.309	692.621
209.563	14.708	927.865	692.646
210.577	14.662	927.084	691.811
211.592	14.639	926.592	691.286
212.607	14.685	926.473	691.330
213.621	14.829	925.350	691.025
214.636	14.757	924.941	690.359
215.650	14.830	923.982	689.887
216.665	14.869	923.548	689.663
217.680	14.769	923.072	688.833
218.694	14.801	922.500	688.478
219.709	15.020	921.757	688.764
220.723	14.965	921.310	688.141
221.738	14.999	920.269	687.442
222.753	15.023	919.646	687.013
223.767	14.975	918.646	686.010
224.782	14.926	918.363	685.538
225.796	14.973	917.477	685.009
226.811	14.998	916.752	684.510
227.826	15.126	915.772	684.240
228.840	15.014	915.369	683.420
229.855	14.867	914.802	682.335
230.869	14.914	913.983	681.858
231.884	14.988	913.513	681.745
232.899	15.050	912.542	681.214
233.913	15.111	911.600	680.699
234.928	14.934	911.145	679.580
235.942	15.064	910.545	679.601
236.957	15.191	909.619	679.362
237.972	14.948	909.425	678.174
238.986	15.066	908.429	677.849
240.001	14.992	908.367	677.441
241.015	14.990	907.410	676.663
242.030	15.086	906.409	676.243
243.045	15.165	905.634	675.925
244.059	15.166	905.240	675.575
245.074	15.191	904.371	674.965
246.088	15.262	903.895	674.835
247.103	15.271	903.379	674.429
248.117	15.187	903.026	673.767
249.132	15.309	902.109	673.514
250.147	15.269	901.134	672.566
251.161	15.211	901.155	672.290
252.176	15.343	900.200	672.046
253.190	15.448	899.088	671.577
254.205	15.354	898.657	670.821
255.220	15.464	898.154	670.823
256.234	15.554	897.040	670.292
257.249	15.483	896.594	669.617
258.263	15.525	896.274	669.483
259.278	15.481	895.862	668.942
260.293	15.625	895.135	668.912
261.307	15.536	894.775	668.229
262.322	15.658	893.993	668.075
263.336	15.594	893.521	667.407
264.351	15.736	892.969	667.499
265.366	15.644	892.582	666.784
266.380	15.777	891.077	666.130
267.395	15.626	890.937	665.369
268.409	15.676	890.047	664.841
269.424	15.629	889.696	664.334
270.439	15.649	888.671	663.589
271.453	15.781	887.671	663.307
272.468	15.803	887.361	663.103
273.482	15.909	886.333	662.692
274.497	15.647	886.048	661.392
275.512	15.757	885.227	661.149
276.526	15.774	884.337	660.493
277.541	15.731	883.716	659.805
278.555	15.762	883.115	659.418
279.570	15.713	882.656	658.825
280.585	15.869	882.155	659.002
281.599	15.922	881.251	658.476
282.614	15.979	880.521	658.095
283.628	15.907	880.224	657.536
284.643	15.887	879.844	657.113
285.657	15.895	879.039	656.486
286.672	15.967	878.797	656.529
287.687	15.978	878.068	655.968
288.701	16.010	877.374	655.515
289.716	16.010	876.940	655.134
290.730	15.951	876.644	654.627
291.745	15.980	875.646	653.934
292.760	16.048	874.972	653.637
293.774	16.032	874.233	652.964
294.789	16.120	873.916	653.014
295.803	16.158	872.886	652.330
296.818	16.093	872.414	651.670
297.833	16.130	871.875	651.351
298.847	16.090	871.322	650.729
299.862	16.189	870.560	650.481
300.876	16.118	869.664	649.482
301.891	16.159	868.890	649.002
302.906	16.302	868.407	649.137
303.920	16.335	867.698	648.674
304.935	16.253	867.075	647.836
305.949	16.345	866.327	647.573
306.964	16.320	865.954	647.143
307.979	16.321	865.132	646.475
308.993	16.317	865.137	646.405
310.008	16.453	864.478	646.376
311.022	16.387	863.751	645.524
312.037	16.451	863.440	645.477
313.052	16.363	862.724	644.548
314.066	16.381	862.147	644.131
315.081	16.452	861.427	643.808
316.095	16.237	861.159	642.728
317.110	16.441	860.307	642.812
318.125	16.483	859.649	642.423
319.139	16.342	859.688	641.859
320.154	16.482	858.922	641.764
321.168	16.506	857.900	641.035
322.183	16.419	857.579	640.409
323.197	16.418	857.266	640.113
324.212	16.631	856.286	640.130
325.227	16.567	855.753	639.434
326.241	16.425	855.530	638.673
327.256	16.499	855.119	638.589
328.270	16.551	854.152	638.008
329.285	16.465	853.572	637.194
330.300	16.520	853.167	637.043
331.314	16.591	852.446	636.715
332.329	16.542	852.205	636.295
333.343	16.516	851.320	635.478
334.358	16.600	850.772	635.328
335.373	16.536	850.238	634.635
336.387	16.770	849.758	635.097
337.402	16.703	848.869	634.124
338.416	16.759	848.219	633.795
339.431	16.821	847.798	633.655
340.446	16.731	847.518	633.053
341.460	16.756	846.858	632.597
342.475	16.807	846.438	632.417
343.489	16.899	845.708	632.158
344.504	16.832	845.330	631.572
345.519	16.739	845.087	630.987
346.533	16.995	844.298	631.295
347.548	16.970	844.046	630.958
348.562	17.015	843.034	630.314
349.577	16.856	842.392	629.188
350.592	16.899	841.982	628.985
351.606	16.913	841.753	628.808
352.621	16.977	840.891	628.349
353.635	16.983	840.646	628.131
354.650	16.880	840.302	627.437
355.665	17.040	839.677	627.506
356.679	16.994	839.205	626.927
357.694	17.017	838.685	626.570
358.708	17.042	838.160	626.213
359.723	17.038	837.604	625.728
360.738	17.052	836.939	625.229
361.752	17.159	836.636	625.340
362.767	17.068	836.113	624.558
363.781	17.055	835.995	624.368
364.796	17.096	835.428	624.040
365.810	17.171	834.865	623.838
366.825	17.232	834.649	623.848
367.840	17.285	834.024	623.518
368.854	17.385	833.621	623.529
369.869	17.183	833.288	622.485
370.883	17.398	832.551	622.664
371.898	17.267	832.152	621.833
372.913	17.218	831.717	621.275
373.927	17.450	830.580	621.215
374.942	17.393	829.977	620.504
375.956	17.396	829.421	620.042
376.971	17.371	828.987	619.571
377.986	17.453	828.330	619.325
379.000	17.447	828.122	619.092
380.015	17.476	827.549	618.714
381.029	17.553	826.925	618.474
382.044	17.447	826.279	617.551
383.059	17.533	825.637	617.328
384.073	17.561	825.327	617.144
385.088	17.576	824.799	616.748
386.102	17.610	823.956	616.185
387.117	17.436	823.576	615.217
388.132	17.575	823.073	615.291
389.146	17.488	822.904	614.797
390.161	17.557	822.254	614.505
391.175	17.551	822.094	614.308
392.190	17.655	821.722	614.353
393.205	17.685	821.052	613.905
394.219	17.714	820.598	613.616
395.234	17.596	820.385	612.977
396.248	17.676	819.240	612.353
397.263	17.734	818.918	612.267
398.278	17.706	818.587	611.867
399.292	17.660	818.013	611.218
400.307	17.627	817.952	611.000
401.321	17.753	817.561	611.106
402.336	17.623	817.205	610.321
403.350	17.685	816.686	610.098
404.365	17.712	816.110	609.713
405.380	17.765	815.664	609.512
406.394	17.754	815.110	609.005
407.409	17.783	814.931	608.922
408.423	17.950	814.031	608.792
409.438	17.751	813.690	607.774
410.453	17.872	813.271	607.836
411.467	18.015	812.978	608.074
412.482	17.980	812.368	607.441
413.496	18.112	811.502	607.209
414.511	17.878	811.498	606.319
415.526	17.998	811.386	606.607
416.540	18.126	810.361	606.243
417.555	18.101	809.994	605.826
418.569	17.908	810.025	605.112
419.584	18.099	809.183	605.105
420.599	18.206	808.736	605.095
421.613	115.996	1299.624	1491.658
422.628	100.358	1371.072	1491.719
