DTS Sentinel unit serial number:	SN413079Multiplexer serial number:	ORYXHardware model number:	OX4-SRSoftware version number:	ORYX F/W v4.00 Oryx Data Collector v3.7.2.0data status	okinstallation	princeton_trtdifferential loss correction	single-endedforward channel	channel 3reverse channel	N/Adate	2019/09/10time	22:58:11forward acquisition time	60.00reverse acquisition time	0.00gamma	496.2192k internal	0.2331k external	0.2331temperature offset calibration	0.9921default loss term (dB/km)	0.3790temperature slope calibration	1.0000multiplexer offset coefficient	1.0000multiplexer slope coefficient	1.0000fibre end	0.00T internal ref (°C)	30.06T ext. ref 1 (°C)	-0.31T ext. ref 2 (°C)	23.42length (m)	temperature (°C)	Stokes	anti-Stokes-747.200	99.511	-0.139	-0.162
-746.185	-51.408	-0.195	-0.092
-745.171	673.166	0.049	0.127
-744.156	-42.353	0.079	0.040
-743.142	167.905	0.082	0.117
-742.127	-6.410	-0.107	-0.074
-741.112	-60.661	0.256	-0.109
-740.098	42.082	-0.119	0.109
-739.083	63.528	0.311	-0.314
-738.069	-106.095	-0.203	-0.046
-737.054	-23.111	0.206	0.125
-736.039	-200.000	0.033	-0.183
-735.025	-200.000	-0.019	0.235
-734.010	6.931	0.126	-0.094
-732.996	-59.142	-0.236	-0.102
-731.981	45.060	-0.086	0.080
-730.966	-86.402	-0.520	-0.161
-729.952	477.185	-0.108	0.246
-728.937	-200.000	0.003	-0.445
-727.923	-176.040	-0.188	-0.005
-726.908	-200.000	-0.113	0.001
-725.894	-3.386	0.078	-0.055
-724.879	-200.000	-0.004	0.050
-723.864	170.154	0.216	-0.311
-722.850	-40.608	-0.282	0.147
-721.835	-64.271	-0.267	-0.109
-720.821	378.769	0.100	0.207
-719.806	399.906	-0.095	-0.200
-718.791	53.023	0.049	-0.047
-717.777	389.725	0.151	-0.315
-716.762	800.000	-0.048	-0.195
-715.748	-122.550	0.072	-0.012
-714.733	163.836	-0.089	-0.125
-713.718	800.000	-0.057	0.161
-712.704	85.635	-0.168	0.186
-711.689	-77.597	0.283	-0.098
-710.675	13.944	0.130	0.102
-709.660	155.588	-0.100	0.138
-708.645	-200.000	0.009	-0.111
-707.631	-130.326	-0.099	-0.013
-706.616	-49.807	0.233	0.111
-705.602	-159.466	0.443	0.025
-704.587	-91.920	-0.141	0.040
-703.572	-200.000	0.025	-0.350
-702.558	800.000	0.071	-0.273
-701.543	-123.204	0.151	0.024
-700.529	-198.779	0.202	-0.001
-699.514	-200.000	-0.014	-0.143
-698.499	-181.529	-0.368	-0.007
-697.485	-139.250	-0.250	-0.027
-696.470	-89.951	0.219	-0.064
-695.456	-153.407	-0.381	0.027
-694.441	41.106	-0.234	-0.213
-693.426	-97.459	-0.101	0.026
-692.412	-200.000	-0.052	-0.303
-691.397	53.522	-0.201	0.193
-690.383	-131.186	-0.158	0.021
-689.368	-200.000	0.065	0.291
-688.354	66.437	0.047	-0.048
-687.339	-18.083	-0.392	0.246
-686.324	-200.000	0.019	-0.268
-685.310	148.262	-0.058	-0.079
-684.295	100.160	0.132	0.154
-683.281	-26.493	-0.199	-0.117
-682.266	-42.405	0.245	-0.125
-681.251	1.124	-0.308	-0.222
-680.237	-91.762	-0.084	0.024
-679.222	-200.000	0.006	-0.049
-678.208	-90.926	-0.457	0.132
-677.193	-156.551	-0.082	0.005
-676.178	180.382	-0.196	-0.289
-675.164	-200.000	0.020	-0.131
-674.149	-200.000	-0.057	0.262
-673.135	-168.210	-0.138	0.005
-672.120	337.867	-0.208	-0.405
-671.105	-200.000	0.010	-0.212
-670.091	-200.000	-0.047	-0.320
-669.076	-38.151	-0.082	0.044
-668.062	317.863	0.108	-0.205
-667.047	44.781	0.085	0.078
-666.032	307.518	0.084	-0.158
-665.018	243.623	0.133	-0.224
-664.003	299.944	0.111	-0.205
-662.989	435.228	-0.110	-0.240
-661.974	-155.061	-0.225	-0.015
-660.959	25.064	-0.108	-0.090
-659.945	800.000	-0.088	0.257
-658.930	800.000	0.088	0.247
-657.916	-200.000	-0.011	-0.155
-656.901	-11.403	0.241	-0.159
-655.886	297.088	0.149	-0.275
-654.872	540.005	-0.134	-0.321
-653.857	-200.000	0.001	-0.231
-652.843	-200.000	-0.032	0.194
-651.828	-70.241	-0.212	-0.081
-650.814	-200.000	0.007	0.123
-649.799	-34.269	0.131	-0.072
-648.784	479.095	0.263	-0.596
-647.770	-48.154	-0.112	0.054
-646.755	71.868	-0.095	0.100
-645.741	-153.126	0.166	-0.012
-644.726	-10.909	-0.042	0.027
-643.711	-40.095	-0.322	-0.168
-642.697	-200.000	0.007	-0.040
-641.682	800.000	0.099	-0.309
-640.668	-63.313	-0.046	-0.019
-639.653	-42.006	-0.056	0.029
-638.638	-68.253	0.290	-0.113
-637.624	-82.151	0.245	-0.080
-636.609	-200.000	0.014	-0.236
-635.595	-67.332	-0.207	-0.082
-634.580	258.396	-0.141	-0.243
-633.565	138.226	-0.148	0.194
-632.551	-75.134	-0.316	0.113
-631.536	800.000	0.166	0.515
-630.522	104.195	0.150	-0.177
-629.507	233.511	-0.079	-0.130
-628.492	-90.719	0.195	-0.056
-627.478	-20.160	-0.237	-0.146
-626.463	-130.237	-0.354	-0.048
-625.449	-2.267	-0.168	-0.118
-624.434	-200.000	-0.001	0.077
-623.419	-200.000	0.010	0.124
-622.405	528.064	0.092	0.217
-621.390	6.545	0.119	-0.089
-620.376	-75.509	0.283	0.101
-619.361	800.000	0.092	-0.375
-618.346	565.937	0.028	-0.069
-617.332	-115.967	-0.440	0.082
-616.317	-110.229	0.063	0.013
-615.303	-69.516	-0.347	0.133
-614.288	-110.400	-0.492	-0.102
-613.273	-200.000	0.005	0.054
-612.259	-200.000	-0.005	-0.129
-611.244	-25.748	-0.164	-0.097
-610.230	-167.504	0.105	0.004
-609.215	-200.000	-0.005	-0.112
-608.201	-99.293	-0.200	0.050
-607.186	-64.573	0.017	-0.007
-606.171	-170.490	0.407	-0.014
-605.157	-200.000	0.062	0.321
-604.142	-156.568	0.091	0.006
-603.128	-70.517	-0.273	-0.104
-602.113	184.677	0.237	0.351
-601.098	445.952	0.172	-0.379
-600.084	800.000	0.053	0.186
-599.069	-200.000	0.039	-0.188
-598.055	-76.115	-0.018	-0.006
-597.040	36.474	-0.152	-0.134
-596.025	27.355	-0.291	-0.245
-595.011	423.004	-0.077	-0.166
-593.996	98.270	-0.155	-0.178
-592.982	800.000	0.103	-0.295
-591.967	-44.453	-0.090	0.045
-590.952	-200.000	0.008	0.044
-589.938	-52.715	0.151	0.070
-588.923	-200.000	-0.023	0.108
-587.909	215.874	0.120	-0.191
-586.894	-93.412	-0.158	0.044
-585.879	-105.769	0.463	0.105
-584.865	130.037	0.135	0.173
-583.850	108.211	-0.127	-0.151
-582.836	450.733	0.129	-0.286
-581.821	-200.000	-0.002	0.099
-580.806	68.464	-0.145	0.148
-579.792	-57.051	-0.098	-0.043
-578.777	-109.739	0.389	-0.082
-577.763	59.013	-0.163	-0.161
-576.748	800.000	-0.142	-0.424
-575.733	439.022	-0.061	0.132
-574.719	-64.890	0.137	0.055
-573.704	-1.874	-0.161	-0.114
-572.690	800.000	-0.079	-0.219
-571.675	296.345	-0.039	-0.071
-570.661	-22.183	0.111	0.067
-569.646	800.000	0.034	0.115
-568.631	-200.000	-0.042	-0.200
-567.617	27.368	-0.146	0.123
-566.602	326.680	-0.023	0.045
-565.588	178.338	-0.107	-0.156
-564.573	-107.204	-0.187	-0.041
-563.558	800.000	0.007	-0.024
-562.544	8.780	-0.288	0.217
-561.529	800.000	-0.072	0.246
-560.515	-6.900	-0.146	0.099
-559.500	725.764	-0.108	0.287
-558.485	-75.268	0.304	0.108
-557.471	47.720	-0.069	0.065
-556.456	-52.974	-0.409	-0.188
-555.442	-113.943	0.329	-0.064
-554.427	-87.862	0.131	0.040
-553.412	-17.381	0.070	0.044
-552.398	20.736	0.271	-0.219
-551.383	800.000	-0.075	-0.273
-550.369	-88.616	-0.277	0.082
-549.354	28.130	0.068	-0.058
-548.339	-41.207	0.250	-0.129
-547.325	756.370	0.107	0.288
-546.310	-200.000	-0.015	0.324
-545.296	-200.000	0.023	0.338
-544.281	-200.000	-0.051	-0.241
-543.266	-200.000	-0.008	-0.212
-542.252	19.381	0.088	-0.071
-541.237	-72.845	0.298	0.109
-540.223	190.822	-0.068	0.101
-539.208	481.139	0.065	-0.147
-538.193	-200.000	0.003	-0.019
-537.179	-80.074	-0.359	-0.120
-536.164	-37.469	-0.272	0.145
-535.150	249.212	0.074	-0.126
-534.135	188.088	0.139	-0.208
-533.121	301.912	0.209	-0.385
-532.106	752.967	0.068	-0.184
-531.091	261.866	-0.041	-0.070
-530.077	309.597	-0.038	0.071
-529.062	-65.136	0.147	-0.059
-528.048	134.923	-0.092	0.119
-527.033	110.957	0.038	0.045
-526.018	-156.230	-0.408	-0.026
-525.004	424.945	0.105	-0.225
-523.989	-17.640	0.162	0.101
-522.975	55.583	0.144	0.139
-521.960	44.482	0.102	-0.094
-520.945	-188.003	0.250	-0.003
-519.931	84.067	-0.166	0.181
-518.916	-29.921	-0.057	-0.032
-517.902	-147.189	-0.238	-0.020
-516.887	-183.757	0.137	-0.002
-515.872	370.460	0.023	-0.047
-514.858	-200.000	-0.015	0.136
-513.843	-68.712	-0.273	0.105
-512.829	-92.220	0.239	-0.067
-511.814	-75.058	0.112	0.040
-510.799	685.305	-0.043	-0.112
-509.785	-9.330	0.131	-0.087
-508.770	-200.000	0.024	-0.254
-507.756	280.262	-0.102	-0.182
-506.741	-147.304	0.193	0.016
-505.726	163.104	-0.145	-0.203
-504.712	119.040	0.309	0.380
-503.697	-200.000	-0.009	0.063
-502.683	-32.517	0.029	0.016
-501.668	800.000	0.071	-0.201
-500.653	-59.049	-0.313	0.135
-499.639	-127.997	-0.297	0.042
-498.624	800.000	0.066	-0.184
-497.610	566.171	0.059	-0.143
-496.595	800.000	-0.069	-0.236
-495.581	-200.000	0.006	-0.206
-494.566	730.523	-0.091	0.243
-493.551	-171.294	0.140	-0.005
-492.537	-162.267	0.029	-0.001
-491.522	463.916	0.113	0.252
-490.508	457.752	-0.056	-0.124
-489.493	403.828	0.046	-0.097
-488.478	-17.994	-0.201	-0.125
-487.464	-42.497	0.206	0.105
-486.449	-142.346	0.053	0.005
-485.435	493.718	0.051	-0.116
-484.420	115.272	0.160	-0.195
-483.405	-150.697	-0.275	-0.021
-482.391	516.797	-0.122	0.285
-481.376	-92.992	-0.326	-0.091
-480.362	-94.315	-0.133	0.036
-479.347	372.390	-0.190	-0.383
-478.332	-200.000	0.063	-0.357
-477.318	-33.613	0.118	-0.065
-476.303	352.658	-0.105	-0.208
-475.289	-106.900	0.124	0.027
-474.274	-82.988	-0.309	0.099
-473.259	-28.825	-0.355	-0.203
-472.245	-200.000	-0.023	-0.243
-471.230	82.754	0.011	0.012
-470.216	-200.000	0.045	0.211
-469.201	76.590	-0.135	-0.142
-468.186	-18.391	-0.387	-0.241
-467.172	-200.000	0.012	0.222
-466.157	800.000	0.098	-0.271
-465.143	726.731	-0.138	-0.366
-464.128	42.841	-0.303	0.274
-463.113	-155.775	0.300	-0.019
-462.099	-42.459	-0.263	-0.133
-461.084	55.922	0.114	-0.110
-460.070	-31.686	-0.126	-0.070
-459.055	-22.605	0.215	-0.129
-458.040	55.140	0.069	0.067
-457.026	-125.569	-0.167	-0.025
-456.011	-155.103	0.272	0.018
-454.997	-200.000	0.025	-0.271
-453.982	-103.553	-0.498	-0.116
-452.968	34.774	-0.060	-0.052
-451.953	17.074	-0.157	-0.123
-450.938	-160.138	-0.300	0.016
-449.924	-146.022	0.441	0.039
-448.909	-200.000	0.013	-0.137
-447.895	249.253	-0.059	-0.099
-446.880	-72.739	0.130	0.048
-445.865	243.819	-0.142	-0.237
-444.851	56.198	-0.033	0.032
-443.836	2.709	-0.130	-0.094
-442.822	-103.040	0.168	-0.040
-441.807	-149.990	-0.377	0.029
-440.792	-200.000	0.005	0.025
-439.778	800.000	0.049	-0.192
-438.763	-91.277	0.160	-0.045
-437.749	213.972	0.138	0.217
-436.734	192.769	0.101	0.151
-435.719	-178.802	0.260	-0.006
-434.705	346.309	0.046	0.090
-433.690	800.000	0.044	0.147
-432.676	250.780	-0.102	-0.172
-431.661	-200.000	0.039	0.399
-430.646	-200.000	-0.031	0.147
-429.632	800.000	0.073	-0.212
-428.617	-171.529	-0.060	0.002
-427.603	-44.895	-0.102	-0.051
-426.588	-76.373	-0.145	0.051
-425.573	639.051	-0.022	-0.055
-424.559	800.000	-0.082	0.230
-423.544	-60.285	0.550	-0.233
-422.530	137.894	0.131	-0.170
-421.515	45.835	-0.174	-0.160
-420.500	-62.095	-0.153	0.064
-419.486	-42.739	-0.258	-0.130
-418.471	8.205	0.046	0.034
-417.457	22.350	-0.092	-0.074
-416.442	45.372	-0.179	0.164
-415.428	-98.210	-0.326	-0.083
-414.413	-200.000	0.017	-0.349
-413.398	-50.894	0.285	0.133
-412.384	800.000	0.100	-0.278
-411.369	-200.000	0.028	-0.181
-410.355	617.058	-0.096	0.239
-409.340	800.000	-0.024	-0.087
-408.325	6.695	-0.368	0.272
-407.311	800.000	0.107	0.363
-406.296	202.625	0.094	0.144
-405.282	-200.000	-0.013	-0.150
-404.267	167.917	-0.272	-0.384
-403.252	-130.239	0.159	-0.021
-402.238	7.560	0.055	0.041
-401.223	-200.000	-0.011	-0.244
-400.209	-105.813	0.303	-0.068
-399.194	251.194	-0.139	-0.235
-398.179	-24.571	0.208	0.123
-397.165	-84.984	-0.162	0.050
-396.150	-10.220	-0.161	-0.106
-395.136	-29.534	-0.231	0.131
-394.121	76.747	-0.135	0.142
-393.106	800.000	-0.061	0.184
-392.092	800.000	0.031	-0.112
-391.077	230.420	0.174	0.282
-390.063	800.000	0.094	0.282
-389.048	-200.000	-0.003	0.237
-388.033	437.185	-0.127	-0.274
-387.019	-57.327	-0.135	0.059
-386.004	64.808	-0.068	-0.068
-384.990	-200.000	-0.003	0.066
-383.975	577.663	-0.097	0.234
-382.960	-188.431	-0.175	-0.002
-381.946	126.444	0.230	0.289
-380.931	-195.883	-0.195	0.001
-379.917	52.089	0.167	-0.158
-378.902	133.210	0.152	-0.195
-377.888	12.590	-0.125	-0.096
-376.873	-98.185	-0.190	0.048
-375.858	200.625	0.212	0.324
-374.844	-160.501	0.273	-0.014
-373.829	-200.000	0.000	-0.244
-372.815	-83.981	-0.077	-0.024
-371.800	-51.023	0.172	-0.080
-370.785	106.145	-0.098	-0.115
-369.771	-200.000	0.003	-0.121
-368.756	-94.362	0.050	0.014
-367.742	160.694	-0.153	-0.212
-366.727	-78.058	0.181	0.062
-365.712	162.588	0.053	-0.074
-364.698	72.488	0.277	0.286
-363.683	-151.108	0.214	0.016
-362.669	-91.722	-0.221	-0.062
-361.654	800.000	0.066	-0.239
-360.639	-31.396	0.238	0.133
-359.625	240.708	-0.208	0.344
-358.610	-28.632	-0.122	-0.070
-357.596	341.446	0.027	-0.053
-356.581	-17.444	0.186	0.116
-355.566	-147.683	0.115	-0.010
-354.552	-159.407	0.259	-0.014
-353.537	-91.707	0.226	-0.064
-352.523	14.400	0.132	-0.102
-351.508	92.341	-0.142	0.159
-350.493	800.000	0.099	0.336
-349.479	-200.000	-0.043	0.257
-348.464	-200.000	-0.027	-0.200
-347.450	21.138	0.336	-0.270
-346.435	190.000	0.131	0.195
-345.420	-200.000	0.002	0.392
-344.406	417.178	-0.226	-0.478
-343.391	187.971	0.012	-0.017
-342.377	-200.000	-0.001	-0.312
-341.362	800.000	0.152	0.554
-340.348	2.709	0.159	0.115
-339.333	800.000	-0.023	-0.073
-338.318	-200.000	-0.006	0.186
-337.304	-200.000	-0.012	-0.169
-336.289	-82.889	0.037	0.012
-335.275	-200.000	-0.015	-0.084
-334.260	-119.038	0.107	-0.018
-333.245	-200.000	-0.014	0.327
-332.231	40.307	0.167	0.149
-331.216	-146.227	-0.190	0.017
-330.202	132.242	0.158	0.201
-329.187	30.069	-0.236	0.199
-328.172	800.000	-0.119	0.407
-327.158	-200.000	-0.039	0.276
-326.143	116.639	-0.259	0.315
-325.129	-21.844	-0.043	-0.026
-324.114	501.329	0.053	-0.120
-323.099	66.231	-0.158	0.159
-322.085	-187.812	0.203	-0.003
-321.070	-73.308	-0.202	0.073
-320.056	-108.099	0.415	0.089
-319.041	-71.966	0.299	0.110
-318.026	-90.866	-0.150	-0.043
-317.012	-88.226	0.133	0.040
-315.997	42.240	-0.201	0.181
-314.983	-200.000	-0.011	0.244
-313.968	10.311	0.151	-0.114
-312.953	800.000	0.096	-0.272
-311.939	-148.555	-0.406	0.033
-310.924	-200.000	-0.001	-0.018
-309.910	454.918	-0.058	-0.128
-308.895	800.000	-0.088	0.357
-307.880	-200.000	-0.001	-0.068
-306.866	-36.810	0.255	0.135
-305.851	800.000	-0.130	-0.397
-304.837	-18.326	0.311	-0.193
-303.822	655.064	0.030	-0.075
-302.807	-68.767	-0.223	0.085
-301.793	-200.000	-0.019	-0.108
-300.778	58.437	0.038	0.037
-299.764	-168.259	0.302	-0.012
-298.749	-200.000	0.042	-0.261
-297.735	-200.000	-0.079	0.402
-296.720	111.012	-0.168	0.200
-295.705	-1.595	-0.082	0.057
-294.691	-24.206	-0.079	-0.047
-293.676	727.251	0.051	0.134
-292.662	30.900	0.100	-0.085
-291.647	-134.588	-0.201	0.024
-290.632	345.399	0.130	-0.252
-289.618	-11.977	-0.015	-0.010
-288.603	88.484	0.301	0.330
-287.589	800.000	-0.060	-0.173
-286.574	133.228	0.012	0.016
-285.559	800.000	-0.115	-0.338
-284.545	38.184	-0.070	0.061
-283.530	800.000	-0.073	-0.203
-282.516	292.816	-0.099	0.179
-281.501	-200.000	0.002	-0.031
-280.486	-200.000	-0.074	-0.321
-279.472	-110.487	0.368	0.075
-278.457	-200.000	0.074	0.366
-277.443	-74.759	0.185	-0.066
-276.428	145.402	0.032	-0.042
-275.413	-3.246	-0.197	-0.135
-274.399	-200.000	0.061	0.305
-273.384	-154.085	0.267	-0.018
-272.370	143.295	0.169	0.223
-271.355	187.237	0.025	-0.037
-270.340	-200.000	-0.009	-0.048
-269.326	-55.288	-0.074	-0.033
-268.311	-98.641	0.290	0.073
-267.297	-200.000	-0.005	0.115
-266.282	25.515	0.251	-0.206
-265.267	134.116	-0.137	-0.175
-264.253	-64.624	-0.195	0.078
-263.238	-200.000	0.001	-0.028
-262.224	800.000	-0.028	0.108
-261.209	-200.000	0.035	-0.215
-260.195	393.780	0.093	0.192
-259.180	345.670	0.102	0.198
-258.165	-36.110	0.302	0.161
-257.151	-200.000	0.003	-0.153
-256.136	399.845	-0.099	0.206
-255.122	61.381	-0.149	0.146
-254.107	-165.142	0.246	0.011
-253.092	-136.707	-0.507	-0.058
-252.078	-28.323	0.200	0.114
-251.063	-65.410	0.187	-0.074
-250.049	-10.006	0.243	-0.160
-249.034	-52.976	-0.397	0.180
-248.019	-26.162	0.236	0.137
-247.005	110.516	-0.251	0.298
-245.990	-111.538	0.271	0.054
-244.976	478.307	-0.139	-0.310
-243.961	157.010	-0.146	0.200
-242.946	-52.477	0.217	-0.099
-241.932	-189.755	0.192	-0.002
-240.917	-96.886	-0.248	-0.064
-239.903	800.000	-0.052	0.170
-238.888	56.888	0.317	0.305
-237.873	332.157	0.065	0.123
-236.859	-200.000	0.050	0.232
-235.844	-200.000	-0.012	-0.202
-234.830	-115.007	0.389	0.073
-233.815	761.406	0.075	0.200
-232.800	70.784	-0.073	0.074
-231.786	642.616	0.092	0.232
-230.771	-200.000	0.006	0.312
-229.757	-180.434	-0.206	0.004
-228.742	-22.217	0.095	-0.057
-227.727	-0.415	0.117	0.082
-226.713	123.439	0.128	0.158
-225.698	37.839	0.165	-0.144
-224.684	14.869	-0.067	0.051
-223.669	800.000	0.045	0.181
-222.655	-60.539	0.390	-0.163
-221.640	280.877	-0.030	0.053
-220.625	-169.941	0.346	0.012
-219.611	800.000	0.021	0.090
-218.596	-108.979	0.362	0.076
-217.582	59.415	-0.221	0.215
-216.567	-200.000	0.023	0.181
-215.552	643.255	0.052	0.131
-214.538	800.000	-0.081	-0.237
-213.523	800.000	0.018	0.067
-212.509	80.009	-0.108	0.115
-211.494	-111.265	-0.290	-0.059
-210.479	-200.000	-0.058	0.419
-209.465	-200.000	-0.009	-0.166
-208.450	-200.000	-0.004	-0.034
-207.436	-95.775	-0.369	-0.097
-206.421	-100.061	0.277	0.068
-205.406	121.116	0.063	-0.077
-204.392	-53.068	-0.199	0.090
-203.377	-78.629	-0.084	-0.028
-202.363	172.361	0.121	0.171
-201.348	-200.000	0.031	0.431
-200.333	256.090	0.040	0.068
-199.319	-126.292	0.242	0.036
-198.304	-71.197	-0.172	-0.064
-197.290	800.000	0.100	-0.318
-196.275	-109.632	0.182	0.038
-195.260	-72.948	-0.501	-0.181
-194.246	-200.000	-0.033	0.295
-193.231	800.000	0.118	0.377
-192.217	-81.166	0.220	-0.072
-191.202	-65.397	-0.375	0.149
-190.187	123.752	-0.099	-0.123
-189.173	48.593	-0.157	0.145
-188.158	4.920	0.119	0.086
-187.144	800.000	0.066	-0.193
-186.129	-86.622	0.207	0.062
-185.114	-94.569	0.151	-0.040
-184.100	-144.198	-0.277	-0.025
-183.085	-53.388	0.208	0.094
-182.071	-200.000	-0.046	0.380
-181.056	-200.000	-0.061	-0.357
-180.042	-157.500	-0.146	0.009
-179.027	-57.022	-0.062	-0.027
-178.012	-46.086	-0.396	-0.192
-176.998	417.764	-0.112	-0.235
-175.983	800.000	0.061	-0.170
-174.969	-200.000	0.027	-0.343
-173.954	73.501	-0.087	-0.090
-172.939	218.791	0.034	0.054
-171.925	488.835	-0.034	0.076
-170.910	119.397	0.249	0.303
-169.896	88.799	-0.159	0.174
-168.881	-175.753	0.177	-0.005
-167.866	162.117	-0.103	0.142
-166.852	16.188	0.184	0.143
-165.837	598.080	-0.035	-0.086
-164.823	-0.237	0.115	0.081
-163.808	800.000	-0.092	0.352
-162.793	-10.352	0.071	-0.046
-161.779	399.743	-0.117	0.241
-160.764	800.000	0.085	-0.245
-159.750	83.795	-0.125	-0.134
-158.735	-56.077	-0.179	0.078
-157.720	-60.394	-0.264	0.110
-156.706	-83.033	0.309	0.098
-155.691	14.596	-0.040	0.031
-154.677	-200.000	-0.018	-0.144
-153.662	191.543	0.094	-0.140
-152.647	450.382	-0.111	-0.242
-151.633	800.000	0.100	0.389
-150.618	-122.213	0.255	0.041
-149.604	-56.853	-0.231	-0.101
-148.589	27.182	0.012	0.010
-147.574	41.621	-0.396	0.353
-146.560	-200.000	0.045	-0.198
-145.545	-177.748	0.117	-0.003
-144.531	-200.000	0.045	0.363
-143.516	-200.000	0.015	0.142
-142.502	-179.222	-0.241	-0.005
-141.487	173.688	0.160	0.227
-140.472	-200.000	0.005	0.372
-139.458	138.096	-0.305	0.393
-138.443	-200.000	-0.023	0.268
-137.429	216.050	-0.141	-0.220
-136.414	54.269	-0.240	-0.227
-135.399	263.533	-0.133	0.228
-134.385	-200.000	-0.018	-0.208
-133.370	-200.000	-0.014	0.090
-132.356	-35.842	0.223	-0.119
-131.341	-200.000	-0.010	-0.287
-130.326	-200.000	-0.030	0.140
-129.312	50.944	0.046	-0.043
-128.297	-200.000	-0.034	0.291
-127.283	-200.000	0.025	-0.162
-126.268	244.693	0.079	0.131
-125.253	260.635	-0.009	0.015
-124.239	-200.000	-0.012	-0.054
-123.224	-112.967	-0.049	-0.009
-122.210	-114.324	-0.138	-0.026
-121.195	604.524	-0.091	0.223
-120.180	114.606	0.143	0.171
-119.166	-109.382	0.136	0.028
-118.151	-200.000	-0.062	-0.318
-117.137	-114.987	-0.289	-0.054
-116.122	516.941	-0.119	0.273
-115.107	-200.000	-0.025	-0.121
-114.093	800.000	0.053	0.162
-113.078	749.245	-0.073	0.194
-112.064	35.163	0.069	0.059
-111.049	800.000	-0.069	0.215
-110.034	358.130	0.103	0.201
-109.020	-151.903	0.498	0.036
-108.005	-37.502	-0.254	-0.133
-106.991	-200.000	-0.019	-0.089
-105.976	-39.599	0.202	0.104
-104.962	25.841	0.308	0.252
-103.947	236.878	0.162	0.264
-102.932	-97.301	-0.313	0.080
-101.918	-25.130	0.190	0.110
-100.903	-57.198	0.169	0.073
-99.889	-200.000	-0.034	-0.278
-98.874	-24.373	-0.281	-0.165
-97.859	-200.000	0.007	0.189
-96.845	33.638	-0.133	0.113
-95.830	239.774	-0.027	-0.044
-94.816	43.626	-0.125	-0.112
-93.801	100.266	0.099	-0.113
-92.786	646.374	0.049	0.123
-91.772	248.497	0.164	0.273
-90.757	-200.000	-0.033	-0.354
-89.743	353.744	0.042	0.081
-88.728	-200.000	0.035	-0.386
-87.713	1.088	-0.089	-0.063
-86.699	-200.000	-0.015	0.098
-85.684	72.058	0.103	-0.106
-84.670	1.638	-0.378	0.267
-83.655	-46.673	0.164	0.079
-82.640	355.000	0.107	0.209
-81.626	483.109	-0.140	-0.311
-80.611	-170.246	0.063	-0.002
-79.597	-200.000	0.007	0.211
-78.582	-200.000	-0.007	0.361
-77.567	241.203	0.098	-0.161
-76.553	800.000	0.054	-0.226
-75.538	-200.000	-0.012	0.180
-74.524	68.821	-0.087	-0.088
-73.509	-200.000	-0.002	-0.460
-72.494	129.681	0.154	-0.193
-71.480	155.741	0.119	-0.161
-70.465	2.123	0.298	-0.211
-69.451	-200.000	0.006	-0.035
-68.436	-200.000	0.047	0.238
-67.422	-111.895	-0.185	-0.037
-66.407	-49.191	-0.060	-0.028
-65.392	727.574	0.062	-0.161
-64.378	-200.000	-0.029	-0.144
-63.363	-200.000	0.010	-0.208
-62.349	49.400	0.149	-0.137
-61.334	-16.319	-1.324	-0.823
-60.319	71.692	0.327	0.333
-59.305	-200.000	-0.105	-1.185
-58.290	401.804	0.478	0.984
-57.276	631.957	0.720	1.786
-56.261	-200.000	104.799	614.773
-55.246	516.318	1487.436	3405.263
-54.232	179.896	2678.221	3844.467
-53.217	112.930	2171.836	2578.049
-52.203	40.798	1693.649	1496.310
-51.188	33.309	1503.154	1277.650
-50.173	30.865	1476.946	1239.085
-49.159	51.194	1533.254	1424.830
-48.144	52.071	1549.533	1445.857
-47.130	33.371	1505.424	1279.795
-46.115	30.279	1490.345	1246.195
-45.100	30.146	1486.944	1242.413
-44.086	30.141	1484.535	1240.312
-43.071	30.024	1483.184	1238.354
-42.057	29.939	1481.677	1236.480
-41.042	30.029	1480.069	1235.692
-40.027	30.015	1478.478	1234.217
-39.013	29.990	1476.836	1232.632
-37.998	29.960	1475.591	1231.347
-36.984	30.063	1474.120	1230.754
-35.969	30.003	1473.024	1229.391
-34.954	30.071	1471.636	1228.634
-33.940	29.944	1470.659	1226.929
-32.925	30.143	1468.918	1226.744
-31.911	30.139	1467.770	1225.713
-30.896	30.136	1466.624	1224.686
-29.881	30.090	1465.306	1223.235
-28.867	30.195	1463.415	1222.299
-27.852	30.124	1462.575	1221.077
-26.838	30.208	1460.860	1220.155
-25.823	30.215	1458.982	1218.583
-24.809	30.140	1457.952	1217.182
-23.794	30.123	1456.468	1215.778
-22.779	30.005	1455.471	1214.128
-21.765	30.080	1454.547	1213.801
-20.750	30.080	1453.390	1212.783
-19.736	30.124	1452.364	1212.170
-18.721	30.104	1451.118	1210.950
-17.706	30.127	1449.928	1210.059
-16.692	30.096	1448.875	1208.929
-15.677	30.054	1448.037	1207.911
-14.663	30.077	1447.117	1207.245
-13.648	30.013	1446.094	1205.926
-12.633	30.017	1445.354	1205.287
-11.619	30.027	1444.097	1204.258
-10.604	30.034	1443.316	1203.604
-9.590	29.938	1442.758	1202.464
-8.575	29.990	1441.987	1202.115
-7.560	30.050	1440.463	1201.186
-6.546	29.942	1440.129	1200.158
-5.531	30.045	1438.729	1199.607
-4.517	29.985	1437.860	1198.447
-3.502	30.022	1436.599	1197.593
-2.487	30.034	1435.889	1197.030
-1.473	30.032	1435.103	1196.311
-0.458	29.983	1433.470	1194.588
0.556	27.735	1423.911	1183.331
1.571	24.641	1399.783	1143.416
2.586	21.242	1339.566	1073.283
3.600	19.581	1258.707	998.808
4.615	18.496	1214.614	957.674
5.629	15.819	1160.296	900.464
6.644	7.576	1077.071	794.699
7.659	0.788	1037.576	732.686
8.673	-0.003	1031.135	724.267
9.688	-0.345	1028.625	720.792
10.702	-0.411	1026.993	719.271
11.717	-0.470	1025.257	717.710
12.731	2.495	1027.703	733.579
13.746	11.276	1040.638	785.191
14.761	18.059	1049.040	824.286
15.775	19.557	1050.311	832.442
16.790	19.719	1050.180	833.045
17.804	19.535	1048.790	830.984
18.819	19.502	1047.733	829.914
19.834	19.526	1047.343	829.648
20.848	19.460	1046.962	828.952
21.863	19.515	1046.491	828.773
22.877	19.550	1046.033	828.503
23.892	19.449	1045.290	827.356
24.907	19.454	1044.583	826.746
25.921	19.509	1043.684	826.228
26.936	19.563	1042.819	825.725
27.950	19.405	1042.122	824.345
28.965	19.386	1041.077	823.358
29.980	19.329	1038.881	821.276
30.994	19.308	1037.616	820.104
32.009	19.415	1036.953	820.017
33.023	19.576	1036.491	820.345
34.038	19.332	1034.729	817.717
35.053	19.368	1033.790	817.073
36.067	19.687	1033.119	817.981
37.082	19.477	1032.729	816.606
38.096	19.709	1031.656	816.782
39.111	19.761	1030.820	816.292
40.126	19.822	1030.510	816.267
41.140	19.778	1028.645	814.507
42.155	19.474	1027.707	812.261
43.169	19.177	1026.025	809.466
44.184	19.305	1024.898	809.105
45.199	19.210	1024.222	808.056
46.213	19.242	1022.680	806.917
47.228	19.253	1021.739	806.155
48.242	19.288	1021.594	806.131
49.257	19.235	1020.541	804.983
50.271	19.463	1019.508	805.160
51.286	19.517	1018.984	804.926
52.301	19.493	1018.001	803.966
53.315	19.605	1016.990	803.621
54.330	19.546	1016.332	802.756
55.344	19.423	1015.685	801.599
56.359	19.390	1014.765	800.651
57.374	19.567	1013.585	800.469
58.388	19.381	1012.726	798.857
59.403	19.491	1011.821	798.581
60.417	19.458	1010.804	797.555
61.432	19.266	1010.370	796.254
62.447	19.277	1009.554	795.594
63.461	19.220	1009.366	795.112
64.476	19.500	1008.061	795.303
65.490	19.466	1007.127	794.343
66.505	19.302	1006.507	793.029
67.520	19.356	1005.555	792.454
68.534	19.297	1004.806	791.526
69.549	19.354	1003.472	790.662
70.563	19.018	1002.202	788.055
71.578	18.919	1001.674	787.114
72.593	19.114	1000.414	786.948
73.607	18.853	999.489	784.957
74.622	18.978	998.326	784.547
75.636	19.147	998.035	785.020
76.651	19.314	997.011	784.906
77.666	19.302	995.972	783.963
78.680	19.084	994.983	782.124
79.695	19.120	994.846	782.110
80.709	19.358	993.991	782.451
81.724	19.322	993.480	781.814
82.739	19.262	992.282	780.533
83.753	19.203	991.267	779.395
84.768	19.418	990.827	779.952
85.782	19.615	990.337	780.388
86.797	19.738	989.735	780.401
87.812	19.655	988.421	778.920
88.826	19.556	987.860	777.963
89.841	19.657	986.753	777.478
90.855	19.786	986.052	777.436
91.870	19.894	984.852	776.907
92.884	19.706	984.388	775.628
93.899	19.581	983.674	774.435
94.914	19.594	982.453	773.465
95.928	19.735	981.794	773.509
96.943	19.815	980.906	773.101
97.957	19.253	980.293	770.037
98.972	19.254	978.458	768.533
99.987	19.050	977.244	766.601
101.001	19.152	976.569	766.460
102.016	19.489	976.420	767.772
103.030	19.496	975.817	767.264
104.045	19.345	974.386	765.398
105.060	19.226	972.978	763.699
106.074	19.090	971.913	762.193
107.089	19.047	971.418	761.547
108.103	19.581	970.773	763.333
109.118	19.658	969.977	762.981
110.133	19.414	968.964	761.042
111.147	19.395	967.920	760.067
112.162	19.236	966.462	758.158
113.176	19.070	965.504	756.610
114.191	19.227	964.798	756.680
115.206	19.400	963.893	756.661
116.220	19.001	962.810	753.994
117.235	18.783	961.746	752.139
118.249	19.073	961.020	752.774
119.264	19.109	960.245	752.256
120.279	18.884	959.542	750.657
121.293	18.963	958.597	750.198
122.308	19.148	957.575	750.137
123.322	19.150	957.046	749.667
124.337	19.057	955.819	748.232
125.352	19.244	954.145	747.668
126.366	18.686	952.531	743.919
127.381	18.453	951.298	741.882
128.395	18.893	951.281	743.707
129.410	19.437	950.711	745.549
130.424	19.567	950.252	745.684
131.439	19.542	948.755	744.335
132.454	19.484	947.982	743.413
133.468	19.438	947.055	742.421
134.483	19.483	946.139	741.833
135.497	19.580	945.535	741.709
136.512	19.629	944.806	741.283
137.527	19.704	943.753	740.711
138.541	19.840	942.986	740.626
139.556	19.786	942.324	739.810
140.570	19.803	941.558	739.216
141.585	19.628	941.226	738.141
142.600	19.794	940.039	737.856
143.614	19.659	938.799	736.242
144.629	19.764	937.815	735.848
145.643	20.001	937.435	736.495
146.658	19.942	936.384	735.355
147.673	19.797	935.129	733.690
148.687	19.502	934.738	732.067
149.702	19.520	933.388	731.020
150.716	19.432	932.495	729.883
151.731	19.468	931.487	729.180
152.746	19.600	930.735	729.087
153.760	19.724	930.130	729.069
154.775	19.872	929.601	729.216
155.789	19.837	929.094	728.604
156.804	19.850	927.775	727.562
157.819	19.706	926.417	725.828
158.833	19.854	925.615	725.756
159.848	19.977	925.199	725.881
160.862	19.965	924.549	725.258
161.877	20.072	922.492	724.025
162.892	19.716	922.519	722.493
163.906	19.938	921.302	722.405
164.921	19.952	920.778	721.988
165.935	20.003	918.936	720.692
166.950	20.041	918.453	720.406
167.964	19.959	917.697	719.409
168.979	19.833	916.782	718.108
169.994	19.836	915.686	717.196
171.008	19.693	914.955	715.969
172.023	19.697	914.401	715.488
173.037	19.987	913.172	715.663
174.052	19.906	911.697	714.109
175.067	19.649	910.752	712.245
176.081	19.708	910.518	712.241
177.096	19.753	909.744	711.759
178.110	19.740	908.838	710.934
179.125	19.515	907.979	709.274
180.140	19.251	906.631	707.077
181.154	19.278	906.317	706.878
182.169	19.433	905.504	706.817
183.183	19.566	905.132	707.008
184.198	19.862	904.671	707.800
185.213	19.777	903.749	706.667
186.227	19.819	903.175	706.328
187.242	19.764	902.806	705.753
188.256	19.946	902.181	705.943
189.271	19.925	900.954	704.836
190.286	20.040	900.366	704.779
191.300	19.969	899.408	703.679
192.315	19.423	898.798	700.920
193.329	18.830	896.479	696.649
194.344	18.430	896.207	694.751
195.359	18.804	896.606	696.519
196.373	19.729	896.157	699.854
197.388	19.966	895.799	700.473
198.402	19.793	895.340	699.352
199.417	19.619	895.046	698.354
200.432	19.793	894.137	698.288
201.446	19.495	893.509	696.532
202.461	19.287	892.265	694.662
203.475	19.579	891.971	695.549
204.490	18.917	890.279	691.508
205.504	17.846	888.824	686.013
206.519	18.240	888.822	687.532
207.534	19.297	888.947	691.814
208.548	19.476	888.227	691.910
209.563	19.692	888.341	692.804
210.577	19.744	887.197	692.060
211.592	19.560	886.608	690.803
212.607	19.935	886.249	691.959
213.621	19.925	885.591	691.345
214.636	20.033	884.638	690.969
215.650	19.983	884.122	690.307
216.665	19.908	883.227	689.250
217.680	19.988	883.466	689.695
218.694	20.073	882.670	689.351
219.709	19.784	881.285	687.059
220.723	19.477	880.226	684.955
221.738	19.555	880.363	685.308
222.753	19.807	879.847	685.846
223.767	19.734	878.772	684.659
224.782	19.875	878.174	684.690
225.796	20.037	877.532	684.771
226.811	20.202	876.735	684.737
227.826	19.801	875.767	682.339
228.840	18.977	874.264	677.864
229.855	19.055	873.674	677.651
230.869	19.062	873.846	677.752
231.884	18.743	872.536	675.424
232.899	18.990	871.743	675.717
233.913	19.718	871.875	678.620
234.928	20.010	871.225	679.199
235.942	19.813	870.803	678.041
236.957	19.652	870.563	677.160
237.972	19.501	869.544	675.716
238.986	19.356	868.833	674.538
240.001	19.643	867.611	674.651
241.015	19.667	866.807	674.059
242.030	19.503	866.853	673.395
243.045	19.683	866.217	673.545
244.059	19.935	865.634	674.012
245.074	20.008	865.154	673.862
246.088	19.947	864.371	672.956
247.103	19.650	862.924	670.617
248.117	19.562	862.806	670.125
249.132	20.177	862.602	672.294
250.147	20.259	862.763	672.677
251.161	20.360	861.576	672.083
252.176	20.413	861.395	672.085
253.190	20.628	860.152	671.889
254.205	20.603	859.884	671.522
255.220	20.889	859.243	672.065
256.234	20.649	858.877	670.793
257.249	20.691	858.154	670.332
258.263	20.372	857.466	668.508
259.278	20.516	856.876	668.543
260.293	20.605	856.583	668.597
261.307	20.726	855.946	668.505
262.322	20.559	854.985	667.057
263.336	20.507	854.210	666.191
264.351	19.984	852.581	662.860
265.366	18.815	850.761	656.919
266.380	18.578	849.674	655.118
267.395	19.362	850.506	658.696
268.409	20.225	850.230	661.718
269.424	20.284	849.421	661.255
270.439	20.425	849.213	661.574
271.453	20.384	848.864	661.087
272.468	20.455	848.107	660.709
273.482	20.659	847.556	660.996
274.497	20.756	846.680	660.622
275.512	20.586	845.677	659.135
276.526	20.069	844.282	656.035
277.541	20.153	844.289	656.299
278.555	20.669	843.592	657.649
279.570	20.366	842.612	655.686
280.585	20.192	842.147	654.607
281.599	20.294	841.535	654.457
282.614	20.322	841.340	654.355
283.628	19.952	840.131	651.964
284.643	19.569	839.478	649.960
285.657	20.024	839.534	651.656
286.672	20.006	838.144	650.453
287.687	19.484	837.651	648.050
288.701	19.736	837.603	648.903
289.716	20.206	836.806	649.990
290.730	19.887	835.641	647.834
291.745	19.717	835.551	647.069
292.760	19.392	834.925	645.313
293.774	19.406	834.276	644.806
294.789	20.386	834.060	648.242
295.803	20.928	834.413	650.482
296.818	20.913	834.208	650.209
297.833	21.214	833.314	650.577
298.847	20.916	832.039	648.416
299.862	20.551	830.903	646.118
300.876	20.700	830.868	646.585
301.891	21.028	830.055	647.113
302.906	20.912	830.010	646.589
303.920	20.608	828.378	644.135
304.935	20.441	828.063	643.216
305.949	20.670	827.831	643.825
306.964	21.061	827.256	644.768
307.979	20.721	826.443	642.820
308.993	20.630	826.217	642.253
310.008	21.072	825.752	643.465
311.022	21.053	825.380	643.047
312.037	20.996	824.518	642.109
313.052	20.791	824.320	641.143
314.066	20.726	823.278	640.037
315.081	20.043	822.270	636.688
316.095	19.244	821.215	632.882
317.110	20.051	820.719	635.405
318.125	20.765	820.924	638.125
319.139	20.287	820.183	635.740
320.154	19.264	818.601	630.715
321.168	19.038	817.365	628.881
322.183	19.669	817.962	631.593
323.197	20.155	818.371	633.629
324.212	20.564	817.748	634.585
325.227	20.646	817.364	634.531
326.241	20.991	816.681	635.199
327.256	20.764	816.590	634.245
328.270	20.695	815.949	633.441
329.285	20.779	814.813	632.807
330.300	20.562	814.398	631.642
331.314	20.373	813.399	630.127
332.329	20.374	812.778	629.593
333.343	20.629	812.609	630.330
334.358	20.820	812.699	631.035
335.373	20.904	811.926	630.683
336.387	20.965	811.033	630.157
337.402	21.206	810.762	630.759
338.416	21.378	810.283	630.954
339.431	21.140	810.102	629.896
340.446	21.228	809.086	629.366
341.460	21.308	808.829	629.402
342.475	21.313	808.128	628.817
343.489	21.064	807.518	627.391
344.504	21.065	806.776	626.763
345.519	21.482	806.572	628.046
346.533	21.537	806.229	627.921
347.548	21.691	805.598	627.925
348.562	21.676	805.447	627.700
349.577	21.597	804.867	626.909
350.592	21.519	804.260	626.102
351.606	21.627	803.516	625.852
352.621	21.702	803.162	625.789
353.635	21.589	802.736	625.001
354.650	21.442	802.019	623.863
355.665	21.133	801.187	622.059
356.679	20.192	799.717	617.514
357.694	20.020	799.096	616.364
358.708	20.608	799.053	618.370
359.723	20.479	798.790	617.652
360.738	20.967	798.205	618.878
361.752	21.312	798.144	620.003
362.767	21.448	797.968	620.293
363.781	21.392	797.958	620.030
364.796	21.817	797.550	621.164
365.810	21.938	797.043	621.143
366.825	21.964	796.474	620.738
367.840	21.894	795.994	620.060
368.854	21.733	795.821	619.301
369.869	21.396	794.923	617.357
370.883	21.283	793.792	616.026
371.898	21.382	793.588	616.163
372.913	21.406	792.375	615.250
373.927	21.194	792.187	614.306
374.942	21.299	791.586	614.155
375.956	21.519	791.051	614.458
376.971	21.666	790.509	614.496
377.986	21.777	790.203	614.595
379.000	21.906	790.165	614.963
380.015	21.789	789.702	614.136
381.029	21.785	788.678	613.273
382.044	21.638	788.129	612.279
383.059	21.812	787.773	612.556
384.073	21.928	787.221	612.478
385.088	21.953	786.668	612.079
386.102	21.867	786.279	611.424
387.117	21.770	785.820	610.674
388.132	21.802	785.072	610.149
389.146	21.563	784.269	608.642
390.161	20.990	783.264	605.815
391.175	21.061	783.418	606.130
392.190	21.515	783.338	607.591
393.205	21.445	782.770	606.852
394.219	20.654	781.016	602.700
395.234	19.062	779.187	595.727
396.248	18.649	778.212	593.504
397.263	19.697	778.885	597.588
398.278	21.382	779.888	604.134
399.292	21.646	779.902	605.004
400.307	21.619	778.816	604.014
401.321	21.409	778.495	602.989
402.336	21.459	778.657	603.232
403.350	21.681	778.439	603.777
404.365	22.051	778.380	604.952
405.380	22.409	777.624	605.541
406.394	22.530	777.611	605.892
407.409	22.644	777.267	605.963
408.423	22.477	776.608	604.821
409.438	22.463	775.813	604.101
410.453	22.463	775.831	604.064
411.467	22.564	775.170	603.841
412.482	22.576	774.974	603.675
413.496	22.458	774.184	602.604
414.511	22.582	774.021	602.847
415.526	22.468	774.152	602.506
416.540	22.579	773.230	602.115
417.555	22.639	772.463	601.670
418.569	22.223	772.265	600.042
419.584	22.066	771.670	598.992
420.599	22.361	771.027	599.445
421.613	158.567	1361.606	1797.932
422.628	136.760	1447.670	1798.027
