DTS Sentinel unit serial number:	SN413079Multiplexer serial number:	ORYXHardware model number:	OX4-SRSoftware version number:	ORYX F/W v4.00 Oryx Data Collector v3.7.2.0data status	okinstallation	princeton_trtdifferential loss correction	single-endedforward channel	channel 3reverse channel	N/Adate	2019/09/19time	11:20:35forward acquisition time	60.00reverse acquisition time	0.00gamma	496.2192k internal	0.2341k external	0.2341temperature offset calibration	0.9984default loss term (dB/km)	0.3790temperature slope calibration	1.0000multiplexer offset coefficient	1.0000multiplexer slope coefficient	1.0000fibre end	0.00T internal ref (°C)	25.20T ext. ref 1 (°C)	0.78T ext. ref 2 (°C)	20.85length (m)	temperature (°C)	Stokes	anti-Stokes-747.200	-171.995	0.472	-0.015
-746.185	96.833	-0.132	-0.152
-745.171	-200.000	0.209	0.001
-744.156	-60.735	-0.155	0.066
-743.142	490.139	-0.078	0.180
-742.127	-85.870	-0.363	-0.113
-741.112	-51.955	0.138	0.064
-740.098	290.647	0.084	0.153
-739.083	-7.291	0.294	0.200
-738.069	-67.412	0.141	-0.055
-737.054	-44.071	-0.351	0.176
-736.039	31.815	-0.199	-0.171
-735.025	78.067	-0.232	0.248
-734.010	87.347	0.156	0.172
-732.996	-4.018	0.191	0.133
-731.981	5.422	0.284	-0.210
-730.966	-200.000	0.003	0.014
-729.952	182.938	-0.165	0.244
-728.937	800.000	-0.123	0.382
-727.923	0.255	0.178	0.127
-726.908	-108.949	-0.284	-0.061
-725.894	0.992	0.142	-0.102
-724.879	708.765	-0.109	-0.288
-723.864	-77.125	0.213	0.074
-722.850	-200.000	0.018	0.192
-721.835	800.000	0.098	-0.310
-720.821	-29.225	-0.055	-0.032
-719.806	-102.523	-0.217	0.052
-718.791	70.966	0.018	0.019
-717.777	284.330	-0.031	-0.055
-716.762	-48.396	-0.238	-0.115
-715.748	800.000	-0.033	-0.128
-714.733	16.824	0.140	-0.111
-713.718	-200.000	0.017	0.179
-712.704	800.000	0.066	0.205
-711.689	10.527	0.271	0.206
-710.675	684.388	-0.076	0.198
-709.660	-200.000	-0.028	-0.235
-708.645	-95.066	0.124	0.034
-707.631	-200.000	-0.027	-0.213
-706.616	315.968	0.155	-0.293
-705.602	-156.648	0.228	0.014
-704.587	165.792	-0.239	0.338
-703.572	-119.327	0.067	0.012
-702.558	-200.000	-0.009	0.275
-701.543	460.898	-0.184	0.410
-700.529	-8.452	0.085	0.057
-699.514	94.630	0.191	-0.217
-698.499	302.447	-0.128	-0.236
-697.485	-133.078	0.204	-0.026
-696.470	-200.000	-0.023	0.255
-695.456	47.272	0.149	0.139
-694.441	-108.957	-0.232	0.050
-693.426	-200.000	-0.063	0.285
-692.412	718.915	0.015	0.040
-691.397	-200.000	-0.038	0.166
-690.383	322.062	0.073	0.139
-689.368	75.549	0.144	0.152
-688.354	-200.000	0.015	-0.110
-687.339	22.378	0.044	-0.036
-686.324	-106.477	0.250	-0.056
-685.310	164.515	-0.220	-0.310
-684.295	91.852	0.123	0.139
-683.281	291.347	-0.185	-0.336
-682.266	800.000	-0.145	-0.509
-681.251	160.914	0.112	-0.157
-680.237	272.832	-0.039	0.069
-679.222	222.624	0.115	0.185
-678.208	800.000	-0.078	-0.330
-677.193	-68.709	-0.280	-0.108
-676.178	19.866	0.254	0.205
-675.164	-132.976	-0.372	-0.047
-674.149	-78.383	-0.261	-0.089
-673.135	61.086	0.315	-0.312
-672.120	544.431	-0.038	-0.091
-671.105	-200.000	0.020	-0.197
-670.091	-84.048	0.349	-0.111
-669.076	-5.634	0.359	0.246
-668.062	-54.771	-0.145	-0.065
-667.047	-124.570	0.279	-0.043
-666.032	-70.133	0.076	0.029
-665.018	800.000	-0.147	0.422
-664.003	-117.606	0.218	-0.039
-662.989	425.121	-0.078	-0.167
-661.974	-200.000	0.064	0.565
-660.959	-200.000	-0.044	-0.264
-659.945	257.778	-0.053	-0.091
-658.930	221.710	-0.079	0.128
-657.916	800.000	0.031	-0.088
-656.901	80.204	0.196	-0.211
-655.886	277.449	0.046	-0.083
-654.872	131.358	-0.201	0.258
-653.857	431.281	0.051	-0.111
-652.843	0.257	0.311	-0.221
-651.828	-75.523	0.081	0.029
-650.814	-200.000	-0.037	0.197
-649.799	616.753	-0.066	0.164
-648.784	-170.442	0.374	-0.013
-647.770	794.879	-0.067	0.183
-646.755	800.000	-0.139	-0.418
-645.741	36.380	-0.094	-0.082
-644.726	-20.374	0.131	-0.080
-643.711	-83.619	-0.496	-0.158
-642.697	21.965	-0.132	0.108
-641.682	-32.347	0.197	0.110
-640.668	-200.000	0.005	0.359
-639.653	-125.871	0.245	-0.037
-638.638	-200.000	-0.013	-0.297
-637.624	-107.476	0.180	0.039
-636.609	33.589	0.036	0.031
-635.595	177.821	0.169	-0.245
-634.580	284.415	-0.176	-0.315
-633.565	-164.396	-0.237	0.011
-632.551	180.017	-0.103	0.151
-631.536	-43.844	-0.269	0.135
-630.522	346.598	-0.088	-0.173
-629.507	-200.000	0.036	-0.259
-628.492	173.548	-0.024	-0.034
-627.478	71.468	0.199	0.206
-626.463	800.000	-0.107	-0.323
-625.449	-7.454	-0.346	-0.234
-624.434	-200.000	0.014	-0.120
-623.419	-114.193	0.079	0.015
-622.405	-34.269	0.122	-0.067
-621.390	225.061	-0.104	-0.168
-620.376	36.412	0.073	-0.064
-619.361	119.593	-0.141	-0.174
-618.346	292.592	-0.087	-0.158
-617.332	800.000	-0.111	0.338
-616.317	-56.028	0.284	-0.126
-615.303	-200.000	0.051	0.278
-614.288	-200.000	-0.057	0.615
-613.273	-43.436	0.214	-0.108
-612.259	291.120	-0.082	0.148
-611.244	388.932	-0.074	0.153
-610.230	800.000	-0.039	0.109
-609.215	65.416	-0.154	0.155
-608.201	-48.562	-0.033	0.016
-607.186	-183.620	0.206	0.004
-606.171	-115.545	-0.382	0.072
-605.157	171.442	0.189	-0.271
-604.142	-55.279	-0.332	-0.149
-603.128	-40.406	-0.398	0.206
-602.113	-33.121	0.061	-0.034
-601.098	71.389	0.220	0.227
-600.084	-69.105	0.171	0.066
-599.069	95.992	-0.220	-0.250
-598.055	-115.556	-0.410	-0.077
-597.040	-200.000	0.047	-0.268
-596.025	171.762	0.140	0.201
-595.011	-101.148	0.131	-0.032
-593.996	-33.419	-0.232	-0.128
-592.982	-200.000	0.109	0.533
-591.967	261.948	0.048	0.082
-590.952	-150.940	-0.429	-0.032
-589.938	800.000	-0.076	-0.241
-588.923	-124.531	0.221	0.034
-587.909	800.000	-0.119	0.400
-586.894	-143.866	-0.216	0.020
-585.879	127.124	0.175	-0.221
-584.865	-38.686	-0.158	0.083
-583.850	296.595	0.074	0.135
-582.836	-200.000	0.011	0.111
-581.821	64.086	-0.079	-0.079
-580.806	83.133	-0.075	-0.082
-579.792	-68.851	-0.364	-0.140
-578.777	6.482	-0.182	0.135
-577.763	800.000	-0.038	-0.142
-576.748	141.529	-0.240	-0.316
-575.733	-93.025	0.131	-0.036
-574.719	-129.761	0.383	-0.052
-573.704	-18.057	-0.052	0.032
-572.690	415.348	-0.118	-0.251
-571.675	274.727	0.062	-0.110
-570.661	48.267	0.064	0.059
-569.646	107.674	0.080	0.095
-568.631	13.298	0.107	0.083
-567.617	-80.157	-0.082	0.027
-566.602	-147.418	0.256	-0.022
-565.588	138.189	-0.058	0.076
-564.573	-200.000	0.038	0.328
-563.558	-121.559	0.237	0.039
-562.544	800.000	-0.064	-0.211
-561.529	800.000	-0.099	0.283
-560.515	-200.000	0.008	0.379
-559.500	-15.836	0.030	0.019
-558.485	656.708	-0.091	0.233
-557.471	621.409	0.124	0.310
-556.456	-54.298	0.122	0.055
-555.442	522.463	-0.168	-0.392
-554.427	-200.000	0.008	-0.159
-553.412	365.181	-0.143	-0.287
-552.398	-200.000	0.033	-0.329
-551.383	-49.207	-0.246	-0.117
-550.369	-106.637	0.240	-0.053
-549.354	-24.475	-0.024	0.014
-548.339	-185.547	0.174	0.003
-547.325	-1.483	-0.064	0.045
-546.310	-75.078	0.055	-0.019
-545.296	-87.746	0.386	0.116
-544.281	-86.430	0.125	-0.038
-543.266	-200.000	-0.006	-0.193
-542.252	-19.132	0.220	0.136
-541.237	59.050	-0.068	-0.067
-540.223	52.546	-0.220	0.209
-539.208	136.124	-0.109	-0.142
-538.193	-58.255	0.417	0.180
-537.179	98.557	-0.185	-0.212
-536.164	141.148	0.046	0.061
-535.150	-11.631	-0.113	0.074
-534.135	288.525	-0.085	-0.153
-533.121	736.370	0.033	-0.089
-532.106	-200.000	0.031	-0.273
-531.091	800.000	-0.022	0.096
-530.077	30.091	-0.409	-0.346
-529.062	800.000	-0.053	-0.227
-528.048	-91.732	-0.140	-0.040
-527.033	-182.894	-0.158	0.003
-526.018	-200.000	-0.002	-0.246
-525.004	112.789	-0.013	0.016
-523.989	800.000	0.058	-0.187
-522.975	-55.569	-0.167	0.074
-521.960	800.000	-0.129	0.360
-520.945	53.340	0.154	0.147
-519.931	-37.251	0.216	0.115
-518.916	-125.124	-0.315	-0.048
-517.902	-200.000	-0.045	-0.436
-516.887	49.929	-0.326	0.306
-515.872	-124.157	-0.284	-0.044
-514.858	800.000	-0.051	0.163
-513.843	800.000	0.137	-0.406
-512.829	548.279	0.024	-0.057
-511.814	-171.218	0.247	0.008
-510.799	-120.722	0.179	-0.030
-509.785	-200.000	0.054	0.465
-508.770	383.309	0.126	-0.257
-507.756	800.000	-0.022	-0.070
-506.741	800.000	0.064	0.203
-505.726	237.529	0.038	-0.062
-504.712	-146.127	0.122	-0.011
-503.697	800.000	-0.067	0.237
-502.683	17.411	0.060	-0.048
-501.668	217.346	-0.115	-0.182
-500.653	120.908	-0.121	-0.149
-499.639	-200.000	-0.031	-0.249
-498.624	460.063	-0.070	-0.154
-497.610	-83.998	-0.191	-0.060
-496.595	322.672	0.133	-0.251
-495.581	0.016	-0.170	-0.120
-494.566	44.495	-0.044	0.040
-493.551	-37.664	-0.168	-0.089
-492.537	278.611	-0.104	0.184
-491.522	528.271	-0.040	-0.094
-490.508	800.000	-0.020	0.057
-489.493	-30.652	0.203	-0.114
-488.478	-67.394	-0.348	-0.136
-487.464	800.000	-0.128	0.404
-486.449	637.995	0.065	0.165
-485.435	-17.497	0.160	-0.100
-484.420	-67.943	0.109	-0.042
-483.405	-70.969	0.426	-0.159
-482.391	639.808	0.055	-0.140
-481.376	59.712	-0.064	0.062
-480.362	-145.885	0.106	0.009
-479.347	-200.000	0.047	0.358
-478.332	-26.476	0.268	0.156
-477.318	-11.802	-0.095	-0.062
-476.303	454.329	-0.083	0.182
-475.289	66.112	0.179	0.181
-474.274	223.417	0.243	0.388
-473.259	108.967	-0.026	0.031
-472.245	-119.035	-0.385	-0.067
-471.230	38.999	0.288	-0.255
-470.216	-96.053	-0.324	0.086
-469.201	249.412	0.188	0.317
-468.186	63.949	0.040	-0.040
-467.172	-193.251	-0.131	0.001
-466.157	-141.280	0.169	0.017
-465.143	800.000	0.049	-0.194
-464.128	800.000	-0.009	0.032
-463.113	170.766	0.070	0.099
-462.099	-36.915	0.041	0.022
-461.084	-200.000	-0.019	0.451
-460.070	-169.874	-0.606	0.022
-459.055	757.737	-0.058	-0.155
-458.040	-200.000	0.023	0.328
-457.026	-200.000	-0.008	-0.155
-456.011	-200.000	0.096	-0.535
-454.997	465.823	0.030	-0.067
-453.982	-9.525	-0.198	-0.131
-452.968	543.482	0.147	0.348
-451.953	-121.988	0.177	-0.029
-450.938	91.127	0.143	-0.159
-449.924	74.705	-0.158	0.165
-448.909	800.000	-0.044	-0.124
-447.895	-18.356	0.321	-0.199
-446.880	252.918	-0.180	0.305
-445.865	-127.289	-0.389	-0.056
-444.851	-74.196	0.103	0.037
-443.836	176.981	-0.096	-0.138
-442.822	253.930	0.020	0.034
-441.807	237.662	0.127	-0.209
-440.792	-41.826	-0.083	-0.042
-439.778	-151.357	-0.191	0.014
-438.763	800.000	-0.087	0.255
-437.749	-200.000	-0.005	-0.080
-436.734	-116.225	-0.288	0.053
-435.719	112.911	-0.041	0.049
-434.705	115.814	0.173	0.209
-433.690	-132.147	0.321	0.041
-432.676	-51.656	0.078	-0.036
-431.661	333.260	-0.170	-0.326
-430.646	800.000	-0.097	-0.303
-429.632	-200.000	-0.003	-0.271
-428.617	-130.768	0.280	0.037
-427.603	-57.117	0.298	0.130
-426.588	57.199	-0.061	0.059
-425.573	691.772	0.034	0.089
-424.559	220.336	-0.178	0.282
-423.544	23.739	0.202	-0.165
-422.530	800.000	0.072	0.216
-421.515	800.000	-0.090	0.252
-420.500	175.457	0.036	0.052
-419.486	-200.000	-0.035	0.404
-418.471	-24.496	0.294	-0.173
-417.457	-26.215	0.150	-0.087
-416.442	-149.194	0.165	0.013
-415.428	2.694	-0.315	0.226
-414.413	-150.265	-0.155	0.012
-413.398	181.941	0.196	-0.286
-412.384	800.000	-0.084	0.304
-411.369	256.206	0.116	0.197
-410.355	48.510	-0.149	-0.138
-409.340	-47.595	0.119	-0.057
-408.325	-49.811	0.284	0.133
-407.311	-0.816	-0.092	0.064
-406.296	744.472	0.066	-0.176
-405.282	13.340	0.316	0.242
-404.267	122.520	-0.073	-0.090
-403.252	-67.105	-0.168	0.066
-402.238	-156.861	-0.332	0.020
-401.223	111.792	-0.150	-0.179
-400.209	-74.530	-0.302	-0.107
-399.194	-200.000	0.005	0.321
-398.179	196.030	-0.143	-0.215
-397.165	601.672	0.089	-0.218
-396.150	-152.642	-0.292	0.021
-395.136	48.495	0.198	0.183
-394.121	-20.944	-0.174	-0.106
-393.106	551.500	-0.179	-0.423
-392.092	220.422	0.095	0.150
-391.077	149.537	0.202	0.271
-390.063	576.963	0.041	0.098
-389.048	-52.293	0.294	-0.135
-388.033	-152.872	-0.343	0.024
-387.019	102.047	-0.404	0.466
-386.004	-200.000	0.004	-0.018
-384.990	204.158	-0.031	0.047
-383.975	204.923	0.110	0.168
-382.960	-200.000	-0.020	-0.112
-381.946	11.201	0.106	-0.080
-380.931	722.037	-0.132	0.347
-379.917	-134.444	0.292	0.035
-378.902	364.487	-0.181	0.360
-377.888	800.000	-0.081	-0.229
-376.873	96.135	0.029	0.033
-375.858	-116.951	-0.571	-0.103
-374.844	794.561	0.102	-0.278
-373.829	800.000	-0.054	0.182
-372.815	-32.024	0.114	0.063
-371.800	133.674	-0.149	0.190
-370.785	-98.140	0.375	-0.095
-369.771	-106.267	-0.121	0.027
-368.756	73.670	0.117	0.121
-367.742	223.861	-0.137	-0.218
-366.727	-166.396	-0.125	-0.005
-365.712	-75.734	-0.102	-0.036
-364.698	-139.749	-0.052	0.005
-363.683	54.220	0.187	-0.177
-362.669	-113.285	0.305	0.059
-361.654	800.000	0.062	-0.199
-360.639	-50.141	0.125	-0.058
-359.625	-200.000	-0.002	0.295
-358.610	-52.456	0.410	0.187
-357.596	553.695	0.090	0.214
-356.581	800.000	-0.107	-0.417
-355.566	-200.000	0.046	-0.281
-354.552	18.226	-0.301	-0.237
-353.537	-69.261	-0.360	-0.137
-352.523	800.000	-0.021	0.071
-351.508	6.364	0.246	0.180
-350.493	580.766	-0.026	-0.063
-349.479	163.599	0.315	0.438
-348.464	81.127	0.123	0.131
-347.450	476.556	-0.107	-0.238
-346.435	112.521	-0.062	-0.074
-345.420	800.000	-0.065	0.246
-344.406	464.541	0.098	-0.215
-343.391	-200.000	0.007	-0.185
-342.377	33.969	0.053	-0.045
-341.362	50.230	0.093	-0.087
-340.348	13.761	-0.186	-0.142
-339.333	25.874	-0.116	-0.095
-338.318	-22.973	0.222	-0.132
-337.304	-164.031	0.267	-0.012
-336.289	-200.000	-0.015	0.278
-335.275	-86.892	-0.280	0.084
-334.260	94.918	0.107	0.120
-333.245	-150.769	-0.056	-0.004
-332.231	99.388	-0.075	-0.086
-331.216	13.689	-0.150	0.115
-330.202	-200.000	0.083	0.417
-329.187	20.027	-0.077	-0.061
-328.172	800.000	0.056	-0.154
-327.158	-83.694	0.413	-0.130
-326.143	800.000	0.046	-0.189
-325.129	-108.245	0.517	-0.110
-324.114	-144.389	0.175	0.016
-323.099	-159.636	-0.342	0.019
-322.085	60.397	-0.189	-0.184
-321.070	-200.000	0.020	-0.349
-320.056	171.875	0.137	-0.195
-319.041	-35.232	-0.226	-0.121
-318.026	38.204	-0.261	-0.229
-317.012	4.869	0.265	-0.192
-315.997	307.539	0.089	-0.164
-314.983	674.212	-0.090	-0.231
-313.968	422.839	0.166	-0.352
-312.953	311.032	0.153	-0.283
-311.939	6.969	0.166	0.122
-310.924	135.038	-0.145	-0.186
-309.910	-85.897	-0.208	-0.063
-308.895	667.261	-0.042	0.106
-307.880	169.180	-0.233	0.328
-306.866	-131.226	-0.255	-0.033
-305.851	-200.000	0.028	-0.389
-304.837	-200.000	0.037	-0.283
-303.822	800.000	0.025	0.096
-302.807	-100.133	-0.242	-0.059
-301.793	-70.064	0.091	-0.034
-300.778	-200.000	-0.019	0.155
-299.764	157.992	0.086	0.117
-298.749	-134.967	0.060	-0.007
-297.735	142.997	0.265	0.347
-296.720	-142.065	0.072	-0.007
-295.705	800.000	-0.035	-0.123
-294.691	800.000	-0.026	0.096
-293.676	105.081	0.163	0.189
-292.662	-200.000	-0.019	-0.111
-291.647	8.975	-0.217	-0.161
-290.632	-133.233	-0.229	0.028
-289.618	-111.768	-0.128	-0.026
-288.603	800.000	-0.093	-0.283
-287.589	800.000	-0.108	0.299
-286.574	-200.000	0.051	0.366
-285.559	-200.000	-0.016	0.190
-284.545	26.849	0.105	0.087
-283.530	800.000	0.062	0.258
-282.516	-200.000	0.067	0.474
-281.501	-27.022	-0.203	-0.117
-280.486	369.552	-0.076	0.151
-279.472	-30.957	-0.137	0.076
-278.457	-171.838	0.363	0.012
-277.443	-200.000	0.025	0.117
-276.428	-2.829	0.278	-0.191
-275.413	800.000	0.038	0.145
-274.399	99.248	0.190	0.216
-273.384	-26.285	-0.115	0.066
-272.370	463.042	0.069	0.152
-271.355	-200.000	0.022	-0.221
-270.340	322.836	0.124	0.232
-269.326	800.000	0.058	-0.243
-268.311	136.254	0.206	0.265
-267.297	-200.000	-0.017	0.117
-266.282	429.127	-0.041	-0.087
-265.267	-200.000	-0.002	0.169
-264.253	191.970	0.203	-0.301
-263.238	5.619	0.286	-0.208
-262.224	70.093	-0.177	0.179
-261.209	526.152	-0.128	0.296
-260.195	-5.130	-0.180	0.121
-259.180	78.352	0.209	0.219
-258.165	-200.000	0.053	-0.475
-257.151	-119.716	0.165	0.028
-256.136	-19.110	0.303	-0.185
-255.122	102.018	0.114	0.131
-254.107	-88.555	0.103	-0.030
-253.092	322.946	-0.051	0.095
-252.078	-200.000	0.026	-0.199
-251.063	-200.000	-0.011	-0.176
-250.049	-200.000	0.036	0.165
-249.034	-200.000	-0.004	0.121
-248.019	-84.343	-0.327	-0.102
-247.005	800.000	-0.037	-0.134
-245.990	-200.000	0.025	0.199
-244.976	-50.431	-0.218	0.101
-243.961	-130.579	0.192	0.025
-242.946	800.000	0.049	-0.156
-241.932	667.439	0.077	0.197
-240.917	431.838	0.226	-0.482
-239.903	800.000	-0.077	0.322
-238.888	-152.743	-0.030	-0.002
-237.873	317.965	0.086	0.160
-236.859	-61.661	-0.143	0.059
-235.844	-143.700	-0.205	0.019
-234.830	116.224	0.106	0.128
-233.815	63.451	-0.194	0.191
-232.800	-2.877	-0.245	-0.168
-231.786	-121.428	-0.116	-0.019
-230.771	236.985	-0.078	-0.126
-229.757	395.071	-0.139	-0.285
-228.742	46.014	0.158	-0.144
-227.727	-110.800	0.138	0.028
-226.713	119.978	0.092	0.112
-225.698	-47.887	0.222	0.106
-224.684	-182.180	-0.121	-0.002
-223.669	39.437	-0.114	0.100
-222.655	800.000	-0.050	-0.145
-221.640	-200.000	0.009	0.249
-220.625	-33.796	0.380	0.206
-219.611	211.500	0.076	-0.118
-218.596	-130.686	-0.118	0.016
-217.582	-200.000	0.058	0.272
-216.567	-192.544	0.162	-0.001
-215.552	213.139	-0.084	0.130
-214.538	800.000	-0.032	0.126
-213.523	736.064	0.113	0.297
-212.509	566.578	0.035	-0.083
-211.494	353.960	0.081	-0.158
-210.479	-26.741	-0.220	0.126
-209.465	429.253	-0.042	0.088
-208.450	-68.442	0.204	-0.078
-207.436	-200.000	0.019	-0.114
-206.421	336.602	-0.133	0.254
-205.406	-200.000	0.033	0.238
-204.392	241.174	-0.167	0.273
-203.377	169.049	-0.143	0.201
-202.363	11.823	-0.135	-0.102
-201.348	67.543	0.140	0.140
-200.333	-19.513	0.320	0.194
-199.319	-79.258	-0.279	0.093
-198.304	-200.000	0.027	-0.158
-197.290	653.046	0.025	-0.062
-196.275	800.000	-0.054	0.161
-195.260	800.000	-0.092	-0.345
-194.246	-75.779	0.049	0.017
-193.231	800.000	-0.015	0.064
-192.217	68.881	0.109	0.109
-191.202	-54.347	0.170	0.076
-190.187	-80.479	-0.165	0.054
-189.173	-48.916	-0.339	0.159
-188.158	800.000	0.068	-0.253
-187.144	-72.510	0.195	0.071
-186.129	-162.575	0.200	-0.010
-185.114	-200.000	0.114	-0.525
-184.100	174.116	0.143	-0.203
-183.085	15.795	-0.194	-0.150
-182.071	213.246	-0.018	-0.028
-181.056	-24.424	-0.090	-0.052
-180.042	-43.002	0.131	-0.065
-179.027	800.000	-0.193	-0.627
-178.012	267.067	0.143	0.244
-176.998	-52.692	0.231	-0.104
-175.983	17.466	-0.232	-0.181
-174.969	-120.999	-0.140	0.023
-173.954	-49.921	0.120	0.056
-172.939	-92.872	0.391	0.107
-171.925	-92.937	0.394	-0.108
-170.910	106.928	0.124	-0.144
-169.896	-64.305	0.124	0.049
-168.881	-143.964	-0.189	-0.017
-167.866	-200.000	-0.015	-0.180
-166.852	-152.468	-0.331	0.023
-165.837	743.893	0.111	0.292
-164.823	312.645	0.056	-0.102
-163.808	405.034	0.124	0.257
-162.793	-200.000	-0.006	0.081
-161.779	260.339	-0.016	0.027
-160.764	-27.065	0.092	0.053
-159.750	415.478	0.129	0.270
-158.735	636.048	0.075	-0.186
-157.720	-200.000	-0.023	-0.137
-156.706	-86.263	0.301	-0.091
-155.691	-108.272	0.249	-0.053
-154.677	319.135	0.123	-0.228
-153.662	-126.011	-0.181	-0.027
-152.647	-21.136	0.072	-0.043
-151.633	-148.797	-0.358	0.028
-150.618	197.796	0.151	0.226
-149.604	-63.173	-0.270	-0.109
-148.589	115.803	-0.121	0.145
-147.574	-146.313	-0.360	-0.031
-146.560	800.000	-0.150	-0.487
-145.545	377.645	0.042	-0.083
-144.531	478.621	-0.156	0.345
-143.516	249.560	-0.151	-0.251
-142.502	-44.271	0.187	0.092
-141.487	-74.732	-0.057	0.020
-140.472	-19.023	0.021	0.013
-139.458	557.911	0.024	-0.056
-138.443	-119.175	0.214	0.036
-137.429	-62.834	0.277	-0.112
-136.414	-31.366	0.256	0.141
-135.399	-176.373	0.105	-0.003
-134.385	-84.626	0.259	0.080
-133.370	61.772	-0.202	0.197
-132.356	-124.004	0.283	-0.044
-131.341	-68.988	0.254	0.096
-130.326	-200.000	0.342	0.001
-129.312	-106.688	-0.346	-0.075
-128.297	248.446	0.120	-0.199
-127.283	-200.000	0.002	-0.098
-126.268	-115.684	0.139	0.025
-125.253	-200.000	-0.015	0.228
-124.239	800.000	-0.054	-0.209
-123.224	129.437	-0.214	0.268
-122.210	-200.000	0.080	0.549
-121.195	-149.808	0.436	-0.033
-120.180	314.709	-0.080	-0.148
-119.166	125.100	0.288	-0.354
-118.151	-129.926	-0.213	-0.029
-117.137	-85.483	-0.404	0.123
-116.122	-103.810	0.502	0.115
-115.107	-23.865	-0.085	-0.050
-114.093	800.000	-0.054	0.211
-113.078	-62.079	0.140	-0.057
-112.064	309.764	-0.132	-0.241
-111.049	-9.962	0.201	0.131
-110.034	-200.000	-0.008	-0.090
-109.020	-147.410	0.249	0.021
-108.005	800.000	0.038	-0.128
-106.991	-40.132	-0.406	0.207
-105.976	512.111	0.098	-0.223
-104.962	-107.740	-0.153	-0.033
-103.947	-92.935	0.076	0.021
-102.932	-167.263	0.083	0.003
-101.918	34.820	-0.274	0.234
-100.903	800.000	0.053	0.160
-99.889	-200.000	0.012	0.356
-98.874	-115.981	0.245	0.045
-97.859	64.009	-0.383	0.377
-96.845	-185.685	-0.313	0.005
-95.830	-90.360	-0.292	0.083
-94.816	-84.752	0.365	0.112
-93.801	4.910	-0.286	0.205
-92.786	185.253	0.220	-0.319
-91.772	735.622	-0.104	-0.273
-90.757	110.973	-0.213	-0.250
-89.743	10.688	-0.160	0.119
-88.728	211.272	0.189	-0.290
-87.713	189.143	0.099	-0.145
-86.699	25.788	-0.141	0.115
-85.684	-200.000	0.045	0.247
-84.670	540.646	0.100	-0.233
-83.655	-142.506	-0.219	-0.021
-82.640	-200.000	-0.002	-0.238
-81.626	-87.453	0.437	-0.129
-80.611	435.021	0.041	0.088
-79.597	602.274	0.110	0.266
-78.582	-29.474	-0.079	0.044
-77.567	101.056	0.189	-0.215
-76.553	712.687	0.060	0.156
-75.538	-106.859	0.211	0.046
-74.524	-108.595	0.339	-0.071
-73.509	97.857	0.231	0.259
-72.494	-124.193	-0.158	-0.024
-71.480	117.423	-0.121	-0.145
-70.465	800.000	-0.021	-0.057
-69.451	-200.000	0.013	0.089
-68.436	-200.000	0.026	0.227
-67.422	62.772	0.284	-0.277
-66.407	-200.000	-0.038	-0.251
-65.392	-200.000	-0.016	-0.433
-64.378	-200.000	-0.005	0.101
-63.363	-200.000	0.026	0.313
-62.349	-37.298	-0.191	0.099
-61.334	76.811	-0.938	-0.971
-60.319	106.997	0.622	0.721
-59.305	798.870	-0.534	-1.437
-58.290	203.547	0.662	0.999
-57.276	233.708	0.737	1.183
-56.261	-200.000	121.103	620.600
-55.246	387.269	1579.151	3183.428
-54.232	139.405	2753.238	3533.842
-53.217	95.815	2211.648	2462.571
-52.203	35.788	1722.057	1476.435
-51.188	28.295	1536.150	1265.449
-50.173	26.216	1510.802	1230.371
-49.159	48.234	1576.547	1438.256
-48.144	46.589	1589.842	1438.856
-47.130	28.351	1542.644	1270.988
-46.115	25.478	1526.368	1237.769
-45.100	25.277	1523.433	1233.961
-44.086	25.316	1521.336	1232.483
-43.071	25.255	1519.249	1230.320
-42.057	25.091	1517.840	1228.011
-41.042	25.321	1515.735	1227.833
-40.027	25.220	1514.826	1226.355
-39.013	25.167	1513.289	1224.697
-37.998	25.122	1512.072	1223.360
-36.984	25.174	1511.069	1222.852
-35.969	25.125	1509.566	1221.256
-34.954	25.124	1508.329	1220.201
-33.940	25.145	1507.360	1219.509
-32.925	25.208	1505.378	1218.287
-31.911	25.257	1503.802	1217.297
-30.896	25.191	1502.913	1216.079
-29.881	25.278	1501.262	1215.285
-28.867	25.227	1500.560	1214.320
-27.852	25.214	1498.846	1212.801
-26.838	25.196	1497.291	1211.374
-25.823	25.234	1495.485	1210.122
-24.809	25.233	1493.879	1208.765
-23.794	25.198	1492.796	1207.604
-22.779	25.299	1491.675	1207.333
-21.765	25.223	1490.672	1205.958
-20.750	25.309	1489.258	1205.343
-19.736	25.290	1487.813	1204.000
-18.721	25.290	1487.211	1203.462
-17.706	25.220	1486.779	1202.601
-16.692	25.225	1485.393	1201.462
-15.677	25.188	1484.571	1200.503
-14.663	25.170	1483.302	1199.309
-13.648	25.145	1482.354	1198.328
-12.633	25.082	1481.649	1197.290
-11.619	25.257	1480.476	1197.463
-10.604	25.292	1479.370	1196.753
-9.590	25.175	1478.787	1195.454
-8.575	25.246	1478.001	1195.241
-7.560	25.270	1476.734	1194.334
-6.546	25.179	1476.225	1193.268
-5.531	25.179	1475.359	1192.520
-4.517	25.070	1474.950	1191.417
-3.502	25.102	1473.405	1190.333
-2.487	25.216	1472.290	1190.146
-1.473	25.160	1471.267	1188.899
-0.458	25.218	1470.051	1188.255
0.556	24.247	1460.420	1177.731
1.571	21.487	1435.199	1139.341
2.586	18.122	1372.123	1068.186
3.600	16.522	1286.240	991.856
4.615	15.299	1242.683	951.252
5.629	13.517	1185.536	897.774
6.644	7.156	1101.233	801.740
7.659	1.732	1063.625	747.709
8.673	0.871	1058.815	740.053
9.688	0.788	1055.701	737.409
10.702	0.741	1054.366	736.181
11.717	0.720	1052.282	734.556
12.731	2.848	1053.594	745.755
13.746	9.535	1062.524	784.681
14.761	15.162	1070.201	817.824
15.775	17.035	1071.429	827.837
16.790	17.002	1070.704	827.044
17.804	15.951	1068.373	820.053
18.819	15.155	1066.200	814.446
19.834	14.684	1065.513	811.558
20.848	14.389	1064.373	809.188
21.863	14.177	1063.572	807.477
22.877	13.973	1062.557	805.645
23.892	13.733	1061.000	803.234
24.907	13.618	1060.710	802.383
25.921	13.564	1060.095	801.587
26.936	13.601	1059.345	801.126
27.950	13.645	1059.139	801.113
28.965	13.709	1058.001	800.492
29.980	13.673	1057.003	799.494
30.994	13.861	1055.930	799.517
32.009	13.797	1055.264	798.635
33.023	13.860	1054.300	798.135
34.038	13.852	1053.517	797.435
35.053	13.764	1052.759	796.368
36.067	13.796	1052.151	795.990
37.082	13.776	1051.119	795.044
38.096	13.668	1050.269	793.813
39.111	13.780	1049.874	793.977
40.126	13.777	1048.521	792.872
41.140	13.782	1047.264	791.877
42.155	13.751	1046.386	790.993
43.169	13.678	1045.511	789.914
44.184	13.703	1044.316	789.058
45.199	13.518	1043.367	787.396
46.213	13.607	1042.327	786.963
47.228	13.783	1041.280	786.936
48.242	13.711	1040.376	785.845
49.257	13.792	1039.824	785.742
50.271	13.814	1038.315	784.632
51.286	13.787	1037.748	784.009
52.301	13.851	1036.986	783.666
53.315	13.681	1036.355	782.320
54.330	13.809	1035.461	782.178
55.344	13.709	1034.431	780.858
56.359	13.605	1033.778	779.806
57.374	13.724	1032.950	779.672
58.388	13.677	1032.099	778.739
59.403	13.567	1031.619	777.795
60.417	13.705	1030.279	777.359
61.432	13.539	1030.019	776.316
62.447	13.622	1029.261	776.067
63.461	13.544	1028.396	774.979
64.476	13.475	1027.670	774.043
65.490	13.687	1026.383	773.995
66.505	13.575	1025.750	772.928
67.520	13.605	1024.842	772.315
68.534	13.756	1023.712	772.095
69.549	13.795	1022.968	771.649
70.563	13.795	1022.641	771.333
71.578	13.602	1022.026	769.904
72.593	13.558	1020.982	768.847
73.607	13.722	1019.993	768.796
74.622	13.578	1019.421	767.629
75.636	13.668	1018.284	767.119
76.651	13.527	1017.597	765.883
77.666	13.489	1016.669	764.939
78.680	13.645	1015.819	764.953
79.695	13.715	1015.565	765.015
80.709	13.657	1015.242	764.438
81.724	13.688	1014.067	763.630
82.739	13.619	1013.294	762.663
83.753	13.744	1012.660	762.692
84.768	13.725	1011.890	761.957
85.782	13.834	1010.781	761.556
86.797	13.870	1009.904	760.993
87.812	13.852	1009.194	760.308
88.826	13.797	1008.463	759.438
89.841	13.714	1007.809	758.499
90.855	13.700	1007.128	757.854
91.870	13.712	1006.382	757.280
92.884	13.825	1005.857	757.334
93.899	13.824	1004.622	756.335
94.914	13.836	1004.301	756.079
95.928	13.920	1003.174	755.547
96.943	13.768	1003.096	754.730
97.957	13.823	1001.865	753.984
98.972	13.910	1000.611	753.369
99.987	13.914	1000.237	753.039
101.001	13.808	999.168	751.688
102.016	13.829	998.787	751.430
103.030	13.892	997.682	750.819
104.045	13.962	996.550	750.217
105.060	13.917	995.645	749.264
106.074	13.847	994.903	748.324
107.089	13.932	993.758	747.778
108.103	13.902	993.078	747.069
109.118	13.921	991.716	746.064
110.133	13.735	991.309	744.857
111.147	13.744	990.708	744.378
112.162	13.615	989.622	742.918
113.176	13.875	988.767	743.372
114.191	13.819	987.883	742.391
115.206	13.824	986.745	741.497
116.220	13.877	986.115	741.194
117.235	13.775	985.367	740.111
118.249	13.813	984.388	739.480
119.264	13.836	983.823	739.088
120.279	13.680	983.695	738.235
121.293	13.910	981.716	737.705
122.308	13.867	981.484	737.277
123.322	13.808	980.777	736.419
124.337	13.877	979.181	735.458
125.352	13.909	977.992	734.642
126.366	13.761	977.207	733.336
127.381	13.784	976.565	732.890
128.395	13.898	975.416	732.464
129.410	13.824	974.442	731.343
130.424	13.944	973.540	731.128
131.439	13.769	972.857	729.782
132.454	13.835	971.692	729.131
133.468	13.879	971.473	729.100
134.483	13.849	970.712	728.332
135.497	13.881	969.721	727.662
136.512	13.797	969.458	727.035
137.527	13.760	968.404	726.018
138.541	13.831	967.466	725.557
139.556	13.891	966.854	725.298
140.570	13.810	966.168	724.366
141.585	13.817	965.302	723.681
142.600	14.020	964.288	723.742
143.614	14.010	963.418	722.981
144.629	13.923	962.958	722.196
145.643	13.971	962.198	721.768
146.658	14.011	961.176	721.113
147.673	13.985	959.930	720.002
148.687	13.951	959.559	719.512
149.702	13.973	958.951	719.087
150.716	13.886	958.289	718.153
151.731	13.831	957.442	717.217
152.746	14.141	955.951	717.371
153.760	13.938	955.865	716.369
154.775	14.004	954.568	715.617
155.789	13.929	954.243	714.988
156.804	14.079	953.483	715.000
157.819	14.117	952.635	714.465
158.833	14.144	951.849	713.929
159.848	14.182	951.080	713.451
160.862	14.115	950.874	712.945
161.877	14.041	950.403	712.213
162.892	14.060	949.504	711.558
163.906	14.048	948.651	710.801
164.921	14.117	947.437	710.126
165.935	14.049	946.959	709.414
166.950	14.119	945.900	708.858
167.964	14.172	944.815	708.206
168.979	14.184	943.697	707.359
169.994	14.189	942.789	706.634
171.008	14.168	942.033	705.917
172.023	14.110	941.563	705.256
173.037	14.130	941.037	704.886
174.052	14.160	939.967	704.149
175.067	14.363	939.078	704.277
176.081	14.236	938.304	703.098
177.096	14.280	937.054	702.287
178.110	14.068	936.903	701.217
179.125	14.221	936.088	701.188
180.140	14.177	934.887	700.041
181.154	14.213	934.660	699.959
182.169	14.168	934.178	699.351
183.183	14.295	933.100	699.013
184.198	14.434	932.411	699.019
185.213	14.382	931.633	698.155
186.227	14.417	931.055	697.809
187.242	14.436	930.698	697.558
188.256	14.517	930.122	697.403
189.271	14.337	929.607	696.201
190.286	14.441	928.538	695.775
191.300	14.451	927.764	695.175
192.315	14.413	926.837	694.258
193.329	14.234	926.410	693.135
194.344	14.277	925.807	692.799
195.359	14.356	925.257	692.656
196.373	14.441	924.575	692.436
197.388	14.548	923.886	692.305
198.402	14.497	923.421	691.681
199.417	14.585	922.915	691.606
200.432	14.541	922.828	691.300
201.446	14.609	922.324	691.143
202.461	14.729	921.442	690.917
203.475	14.687	921.280	690.558
204.490	14.656	920.695	689.932
205.504	14.632	920.103	689.328
206.519	14.742	918.811	688.751
207.534	14.847	918.121	688.605
208.548	14.727	917.231	687.386
209.563	14.551	917.089	686.494
210.577	14.653	916.025	686.056
211.592	14.698	915.157	685.529
212.607	14.682	914.823	685.151
213.621	14.757	914.565	685.206
214.636	14.781	913.588	684.514
215.650	14.712	912.699	683.504
216.665	14.838	912.452	683.771
217.680	14.697	911.801	682.649
218.694	14.898	911.574	683.240
219.709	14.921	910.849	682.728
220.723	14.933	909.905	682.009
221.738	15.068	909.236	681.999
222.753	14.831	908.528	680.443
223.767	14.893	907.726	680.032
224.782	14.917	907.098	679.601
225.796	15.038	906.579	679.642
226.811	15.156	905.495	679.248
227.826	15.019	904.805	678.117
228.840	14.862	904.554	677.230
229.855	14.993	903.711	677.069
230.869	15.041	903.111	676.753
231.884	14.915	902.625	675.821
232.899	14.872	902.138	675.225
233.913	14.919	901.057	674.546
234.928	14.969	900.525	674.287
235.942	15.039	899.611	673.828
236.957	15.085	898.799	673.343
237.972	15.159	897.855	672.876
238.986	14.920	897.639	671.693
240.001	14.969	897.231	671.525
241.015	15.017	896.395	671.030
242.030	15.075	895.672	670.665
243.045	15.134	894.806	670.190
244.059	15.054	894.314	669.444
245.074	15.079	894.076	669.306
246.088	15.096	893.351	668.771
247.103	15.160	892.524	668.351
248.117	15.137	891.932	667.756
249.132	15.222	891.695	667.860
250.147	15.354	890.386	667.346
251.161	15.176	890.073	666.341
252.176	15.348	889.392	666.456
253.190	15.410	888.618	666.063
254.205	15.328	888.044	665.251
255.220	15.558	887.291	665.538
256.234	15.487	886.641	664.712
257.249	15.583	886.020	664.567
258.263	15.572	885.354	663.965
259.278	15.593	884.641	663.453
260.293	15.558	884.388	663.067
261.307	15.574	883.898	662.703
262.322	15.497	883.100	661.742
263.336	15.660	882.793	662.096
264.351	15.676	882.006	661.513
265.366	15.731	881.202	661.066
266.380	15.702	880.860	660.639
267.395	15.629	880.473	660.002
268.409	15.574	879.587	659.062
269.424	15.625	878.658	658.511
270.439	15.668	878.130	658.222
271.453	15.624	877.244	657.328
272.468	15.749	876.287	657.042
273.482	15.824	875.708	656.842
274.497	15.737	875.221	656.080
275.512	15.592	874.887	655.204
276.526	15.604	874.210	654.689
277.541	15.570	873.549	654.000
278.555	15.790	872.966	654.365
279.570	15.873	872.476	654.261
280.585	15.854	871.640	653.504
281.599	15.940	870.932	653.247
282.614	15.924	870.434	652.755
283.628	15.837	869.997	652.031
284.643	15.902	869.170	651.607
285.657	15.821	868.780	650.941
286.672	15.862	868.471	650.810
287.687	15.812	868.096	650.279
288.701	15.950	867.659	650.428
289.716	15.906	866.664	649.455
290.730	15.986	865.964	649.180
291.745	16.045	865.091	648.696
292.760	15.962	864.525	647.895
293.774	16.089	863.943	647.892
294.789	15.979	863.677	647.211
295.803	16.101	862.779	646.948
296.818	16.080	862.382	646.511
297.833	16.152	861.614	646.154
298.847	16.054	861.179	645.395
299.862	16.173	860.111	644.996
300.876	16.082	859.610	644.214
301.891	16.168	858.980	644.014
302.906	16.246	858.324	643.760
303.920	16.190	857.767	643.072
304.935	16.301	857.111	642.950
305.949	16.331	856.310	642.404
306.964	16.277	855.943	641.868
307.979	16.233	855.378	641.221
308.993	16.361	854.530	641.012
310.008	16.470	853.918	640.911
311.022	16.415	853.292	640.174
312.037	16.416	853.084	639.965
313.052	16.335	852.435	639.116
314.066	16.382	851.712	638.693
315.081	16.261	851.551	638.059
316.095	16.334	851.118	637.954
317.110	16.370	850.101	637.273
318.125	16.368	849.858	637.025
319.139	16.499	849.427	637.142
320.154	16.400	848.707	636.173
321.168	16.378	848.299	635.728
322.183	16.374	847.442	635.014
323.197	16.311	847.269	634.591
324.212	16.526	846.726	634.936
325.227	16.540	845.622	634.103
326.241	16.530	845.378	633.827
327.256	16.564	844.674	633.371
328.270	16.718	844.345	633.645
329.285	16.557	843.516	632.364
330.300	16.476	843.194	631.766
331.314	16.459	842.795	631.346
332.329	16.598	841.568	630.890
333.343	16.621	841.371	630.773
334.358	16.579	840.634	630.008
335.373	16.656	840.283	629.974
336.387	16.838	839.361	629.902
337.402	16.769	838.940	629.275
338.416	16.577	838.733	628.352
339.431	16.657	838.255	628.233
340.446	16.900	837.453	628.477
341.460	16.749	837.071	627.576
342.475	16.773	836.577	627.238
343.489	16.794	836.118	626.917
344.504	16.841	835.367	626.472
345.519	16.915	834.846	626.303
346.533	16.957	834.467	626.115
347.548	17.047	833.702	625.819
348.562	17.060	832.651	625.021
349.577	16.948	832.459	624.410
350.592	16.981	832.161	624.252
351.606	16.872	831.676	623.433
352.621	16.865	831.216	623.007
353.635	16.907	830.826	622.815
354.650	16.980	830.601	622.858
355.665	17.094	829.938	622.725
356.679	16.893	829.538	621.633
357.694	17.086	828.617	621.594
358.708	17.128	828.226	621.399
359.723	17.037	827.768	620.668
360.738	17.100	827.449	620.603
361.752	16.984	826.780	619.625
362.767	17.102	826.190	619.558
363.781	17.162	825.943	619.537
364.796	17.133	825.574	619.099
365.810	17.329	824.628	619.047
366.825	17.178	824.512	618.356
367.840	17.249	823.938	618.128
368.854	17.169	823.902	617.758
369.869	17.235	823.254	617.458
370.883	17.231	822.857	617.089
371.898	17.264	822.123	616.605
372.913	17.307	821.577	616.296
373.927	17.406	820.672	615.921
374.942	17.392	820.101	615.386
375.956	17.412	819.806	615.186
376.971	17.458	818.858	614.583
377.986	17.300	818.627	613.787
379.000	17.511	817.898	613.946
380.015	17.571	817.300	613.658
381.029	17.612	816.894	613.449
382.044	17.518	816.364	612.658
383.059	17.602	815.956	612.599
384.073	17.799	815.170	612.661
385.088	17.446	814.796	611.061
386.102	17.568	814.547	611.256
387.117	17.622	813.755	610.801
388.132	17.534	813.367	610.142
389.146	17.570	812.788	609.782
390.161	17.586	812.933	609.892
391.175	17.507	812.715	609.393
392.190	17.756	811.760	609.513
393.205	17.771	811.099	609.018
394.219	17.559	810.824	607.999
395.234	17.594	810.244	607.636
396.248	17.507	810.120	607.178
397.263	17.514	809.561	606.731
398.278	17.623	808.839	606.525
399.292	17.634	808.361	606.152
400.307	17.579	808.116	605.720
401.321	17.651	807.797	605.681
402.336	17.498	807.541	604.893
403.350	17.800	806.705	605.285
404.365	17.665	806.498	604.595
405.380	17.858	805.881	604.764
406.394	17.745	805.409	603.959
407.409	17.848	805.213	604.119
408.423	17.943	804.767	604.067
409.438	17.916	804.324	603.588
410.453	17.998	803.457	603.171
411.467	17.986	803.218	602.898
412.482	17.898	802.742	602.176
413.496	17.924	802.261	601.854
414.511	17.946	801.884	601.594
415.526	18.019	801.757	601.704
416.540	18.015	801.154	601.183
417.555	18.003	800.575	600.655
418.569	17.948	800.338	600.229
419.584	17.906	799.851	599.664
420.599	18.167	799.024	599.908
421.613	114.636	1296.178	1486.550
422.628	98.869	1368.587	1486.608
