DTS Sentinel unit serial number:	SN413079Multiplexer serial number:	ORYXHardware model number:	OX4-SRSoftware version number:	ORYX F/W v4.00 Oryx Data Collector v3.7.2.0data status	okinstallation	princeton_trtdifferential loss correction	single-endedforward channel	channel 3reverse channel	N/Adate	2019/09/12time	06:58:11forward acquisition time	60.00reverse acquisition time	0.00gamma	496.2192k internal	0.2320k external	0.2320temperature offset calibration	1.0033default loss term (dB/km)	0.3790temperature slope calibration	1.0000multiplexer offset coefficient	1.0000multiplexer slope coefficient	1.0000fibre end	0.00T internal ref (°C)	32.14T ext. ref 1 (°C)	1.57T ext. ref 2 (°C)	27.34length (m)	temperature (°C)	Stokes	anti-Stokes-747.200	-200.000	-0.019	0.368
-746.185	-200.000	-0.034	0.310
-745.171	-200.000	0.033	0.239
-744.156	164.892	0.134	-0.191
-743.142	800.000	-0.057	0.250
-742.127	-83.504	-0.276	-0.089
-741.112	-12.320	-0.163	-0.108
-740.098	365.960	-0.131	0.268
-739.083	-77.278	0.386	0.136
-738.069	-86.706	0.340	-0.105
-737.054	-54.242	-0.205	-0.094
-736.039	-83.255	0.162	-0.053
-735.025	800.000	0.085	0.359
-734.010	146.918	-0.152	-0.207
-732.996	112.323	-0.174	-0.212
-731.981	-200.000	-0.060	-0.277
-730.966	-14.686	0.127	0.083
-729.952	-200.000	0.003	-0.294
-728.937	80.644	-0.211	0.229
-727.923	141.356	-0.073	0.097
-726.908	142.832	0.061	0.081
-725.894	-71.786	-0.179	0.068
-724.879	776.852	0.136	-0.374
-723.864	214.320	-0.068	-0.109
-722.850	-0.935	-0.157	-0.112
-721.835	-16.385	-0.170	-0.109
-720.821	438.001	0.025	-0.055
-719.806	-68.754	-0.358	-0.140
-718.791	-72.622	-0.062	-0.023
-717.777	758.022	-0.072	0.196
-716.762	-33.268	-0.147	0.082
-715.748	-52.551	-0.050	-0.023
-714.733	403.245	-0.017	0.035
-713.718	-75.924	-0.131	0.047
-712.704	-82.073	-0.094	0.031
-711.689	-82.714	0.200	-0.065
-710.675	100.776	-0.045	0.053
-709.660	-104.347	0.123	-0.029
-708.645	-200.000	0.022	-0.124
-707.631	-118.171	0.267	0.048
-706.616	-60.676	0.261	-0.112
-705.602	-62.891	-0.401	-0.167
-704.587	-156.872	-0.145	0.009
-703.572	-200.000	0.006	-0.065
-702.558	204.353	0.093	-0.145
-701.543	-200.000	-0.035	-0.205
-700.529	-200.000	0.005	-0.024
-699.514	-200.000	0.327	0.001
-698.499	-200.000	0.035	0.212
-697.485	60.110	0.147	0.147
-696.470	-200.000	-0.013	-0.251
-695.456	-134.784	0.402	-0.049
-694.441	506.734	0.174	-0.406
-693.426	-35.433	0.197	0.108
-692.412	800.000	-0.059	0.198
-691.397	-44.056	0.217	-0.110
-690.383	-102.903	0.216	-0.052
-689.368	64.458	0.245	-0.249
-688.354	-66.447	0.224	-0.090
-687.339	800.000	-0.092	-0.326
-686.324	35.913	-0.172	0.153
-685.310	396.579	0.138	-0.291
-684.295	617.405	-0.043	-0.108
-683.281	-54.466	-0.286	0.131
-682.266	-15.662	0.167	0.107
-681.251	-200.000	-0.059	0.314
-680.237	-109.015	-0.285	0.061
-679.222	-187.327	0.126	0.002
-678.208	-91.778	0.384	-0.110
-677.193	-52.595	-0.142	0.066
-676.178	243.030	0.011	-0.019
-675.164	800.000	-0.029	-0.094
-674.149	-18.726	-0.212	-0.133
-673.135	66.922	-0.100	0.102
-672.120	661.474	0.061	0.157
-671.105	-84.095	0.196	-0.063
-670.091	-86.020	0.096	-0.030
-669.076	800.000	0.066	0.213
-668.062	72.121	0.264	0.277
-667.047	87.515	0.185	-0.206
-666.032	-200.000	-0.012	-0.276
-665.018	7.416	0.405	-0.305
-664.003	-36.129	-0.400	-0.218
-662.989	29.484	-0.171	0.147
-661.974	3.965	0.102	0.075
-660.959	800.000	0.107	-0.349
-659.945	-200.000	-0.082	-0.422
-658.930	158.506	0.089	0.124
-657.916	76.865	-0.163	0.174
-656.901	3.696	-0.428	-0.315
-655.886	-115.983	-0.280	0.053
-654.872	-103.669	-0.234	-0.055
-653.857	-200.000	0.062	-0.365
-652.843	4.126	0.080	-0.059
-651.828	-127.050	-0.121	0.018
-650.814	-50.782	0.159	-0.075
-649.799	800.000	-0.011	-0.038
-648.784	81.920	0.222	-0.242
-647.770	-38.037	-0.289	-0.154
-646.755	754.600	-0.053	-0.146
-645.741	-2.330	0.134	-0.095
-644.726	-200.000	-0.008	0.058
-643.711	-128.890	0.110	0.016
-642.697	90.567	-0.118	-0.134
-641.682	-100.598	0.300	-0.075
-640.668	-200.000	-0.012	0.361
-639.653	-200.000	-0.028	-0.125
-638.638	190.806	0.160	-0.242
-637.624	-158.857	-0.205	-0.012
-636.609	246.228	-0.066	-0.112
-635.595	-110.565	-0.295	-0.062
-634.580	102.234	0.089	-0.105
-633.565	94.025	-0.171	-0.195
-632.551	800.000	-0.089	-0.249
-631.536	-200.000	-0.054	-0.242
-630.522	174.441	0.065	0.095
-629.507	800.000	0.053	0.222
-628.492	-200.000	0.023	-0.158
-627.478	16.292	0.070	0.056
-626.463	373.122	-0.139	0.285
-625.449	-55.318	0.436	0.197
-624.434	-200.000	-0.032	-0.217
-623.419	-200.000	-0.000	0.111
-622.405	-20.419	0.290	-0.179
-621.390	800.000	-0.030	-0.093
-620.376	-200.000	0.016	-0.111
-619.361	130.759	0.201	0.259
-618.346	257.627	-0.027	-0.046
-617.332	-100.926	0.023	-0.006
-616.317	161.384	0.230	0.324
-615.303	-145.952	0.222	0.020
-614.288	606.602	-0.094	-0.236
-613.273	-176.455	0.391	0.010
-612.259	56.803	-0.072	-0.071
-611.244	-11.620	0.267	-0.176
-610.230	-45.452	-0.123	0.061
-609.215	-200.000	-0.037	-0.294
-608.201	-107.672	-0.118	0.026
-607.186	-8.239	0.084	-0.057
-606.171	800.000	-0.122	-0.495
-605.157	-104.849	-0.224	-0.052
-604.142	245.932	0.198	0.335
-603.128	-123.044	-0.214	0.035
-602.113	-200.000	-0.000	-0.013
-601.098	39.508	-0.053	-0.048
-600.084	191.809	0.095	-0.144
-599.069	144.752	-0.200	-0.269
-598.055	-200.000	-0.020	-0.116
-597.040	26.756	-0.058	0.048
-596.025	55.173	-0.199	0.194
-595.011	-31.775	0.160	-0.090
-593.996	690.225	0.085	-0.224
-592.982	13.348	0.103	-0.081
-591.967	-200.000	0.021	-0.178
-590.952	-81.676	0.207	0.068
-589.938	301.096	0.137	-0.254
-588.923	163.963	0.229	-0.324
-587.909	4.012	0.343	-0.252
-586.894	380.703	-0.138	-0.285
-585.879	-32.008	0.223	0.126
-584.865	-54.101	0.256	-0.117
-583.850	244.732	0.053	-0.089
-582.836	-27.277	-0.071	-0.042
-581.821	17.684	0.266	-0.213
-580.806	800.000	-0.072	0.279
-579.792	177.431	-0.122	0.179
-578.777	-140.173	-0.099	0.010
-577.763	-62.561	-0.088	0.037
-576.748	12.584	-0.450	-0.349
-575.733	113.535	-0.198	-0.242
-574.719	250.350	-0.131	-0.223
-573.704	71.852	-0.120	-0.125
-572.690	-101.737	-0.261	0.064
-571.675	-150.142	0.107	-0.008
-570.661	488.076	0.043	-0.100
-569.646	-9.646	0.126	-0.084
-568.631	-50.349	-0.098	0.046
-567.617	-200.000	-0.011	-0.082
-566.602	-200.000	0.014	-0.068
-565.588	233.886	0.164	-0.270
-564.573	-200.000	-0.027	0.319
-563.558	242.559	-0.117	0.197
-562.544	-131.416	0.093	0.012
-561.529	97.997	0.097	-0.112
-560.515	203.085	-0.110	-0.171
-559.500	-200.000	-0.056	-0.388
-558.485	-200.000	0.002	-0.057
-557.471	-146.910	-0.210	-0.018
-556.456	-200.000	0.091	-0.557
-555.442	15.690	0.103	-0.081
-554.427	163.283	-0.285	-0.402
-553.412	-59.727	-0.534	-0.229
-552.398	-99.210	-0.098	0.025
-551.383	91.419	-0.336	0.379
-550.369	-186.326	0.313	0.005
-549.354	-110.250	-0.275	-0.057
-548.339	-68.879	-0.058	0.022
-547.325	-200.000	-0.011	-0.071
-546.310	800.000	0.080	0.243
-545.296	-110.722	-0.204	0.042
-544.281	-79.562	0.070	0.024
-543.266	-61.688	-0.213	0.090
-542.252	-85.152	0.287	-0.090
-541.237	51.801	-0.114	0.109
-540.223	-140.679	-0.142	0.015
-539.208	20.676	-0.081	-0.066
-538.193	81.416	-0.106	-0.115
-537.179	-69.712	-0.197	-0.076
-536.164	466.415	0.074	-0.167
-535.150	-200.000	0.001	0.027
-534.135	-84.500	0.045	0.014
-533.121	600.577	0.050	-0.124
-532.106	-200.000	-0.061	0.548
-531.091	-88.230	0.422	0.127
-530.077	55.436	-0.293	0.284
-529.062	489.203	-0.049	-0.112
-528.048	-200.000	-0.012	0.104
-527.033	370.741	0.082	0.166
-526.018	-111.065	-0.304	0.063
-525.004	800.000	0.063	0.184
-523.989	221.796	0.068	-0.109
-522.975	508.461	0.089	0.207
-521.960	-103.735	-0.425	0.100
-520.945	293.065	-0.041	-0.075
-519.931	-130.578	-0.185	0.025
-518.916	-61.954	-0.149	-0.062
-517.902	162.641	0.158	0.222
-516.887	26.141	-0.152	-0.128
-515.872	-200.000	0.054	-0.326
-514.858	-200.000	0.005	-0.434
-513.843	417.824	0.112	0.241
-512.829	15.840	-0.328	-0.259
-511.814	-200.000	-0.138	0.000
-510.799	156.052	-0.166	0.229
-509.785	95.312	0.191	0.218
-508.770	-114.123	-0.120	-0.023
-507.756	-148.896	-0.232	0.019
-506.741	465.894	-0.093	0.208
-505.726	-40.381	0.108	0.056
-504.712	462.000	-0.135	-0.301
-503.697	37.057	0.275	0.244
-502.683	78.311	0.087	-0.093
-501.668	136.059	-0.188	-0.246
-500.653	73.473	-0.049	-0.052
-499.639	54.890	-0.200	-0.193
-498.624	-29.448	0.180	0.103
-497.610	14.822	-0.290	-0.227
-496.595	22.866	0.094	0.077
-495.581	-200.000	0.011	-0.051
-494.566	-138.129	-0.278	-0.031
-493.551	36.357	0.149	-0.132
-492.537	800.000	-0.033	0.097
-491.522	-200.000	0.014	-0.075
-490.508	-100.566	-0.120	0.030
-489.493	119.831	-0.102	-0.127
-488.478	-125.170	-0.201	-0.031
-487.464	-200.000	-0.032	-0.207
-486.449	127.235	0.177	0.225
-485.435	-141.844	-0.408	0.041
-484.420	800.000	-0.034	-0.130
-483.405	-200.000	0.029	-0.335
-482.391	532.660	0.136	0.322
-481.376	326.677	0.081	0.154
-480.362	-39.375	-0.207	0.108
-479.347	256.811	-0.107	0.184
-478.332	-109.870	-0.433	0.091
-477.318	-7.813	0.221	0.149
-476.303	117.275	0.186	0.229
-475.289	-184.827	-0.097	-0.002
-474.274	203.423	0.177	0.274
-473.259	419.118	-0.131	0.282
-472.245	-179.854	-0.156	0.003
-471.230	-2.151	-0.075	0.053
-470.216	31.287	-0.079	0.068
-469.201	-200.000	0.011	-0.088
-468.186	-61.939	-0.195	-0.082
-467.172	-35.829	-0.213	-0.116
-466.157	103.354	0.108	-0.127
-465.143	-200.000	-0.041	-0.272
-464.128	237.939	0.258	-0.428
-463.113	800.000	-0.087	-0.342
-462.099	79.011	-0.121	-0.130
-461.084	-200.000	-0.002	-0.280
-460.070	164.025	0.144	0.203
-459.055	48.287	0.277	-0.259
-458.040	4.481	-0.164	0.120
-457.026	-52.072	-0.201	0.093
-456.011	-48.456	0.318	-0.153
-454.997	-174.589	0.267	-0.008
-453.982	-147.268	-0.196	0.017
-452.968	-143.705	-0.081	0.008
-451.953	800.000	-0.037	0.144
-450.938	-155.932	-0.200	0.013
-449.924	-162.356	0.354	0.018
-448.909	323.912	-0.103	-0.197
-447.895	800.000	0.064	0.217
-446.880	-141.928	-0.265	0.026
-445.865	119.386	-0.065	0.081
-444.851	15.949	0.136	0.107
-443.836	800.000	-0.097	0.405
-442.822	-78.447	-0.165	-0.056
-441.807	-200.000	-0.017	-0.157
-440.792	354.601	-0.101	-0.201
-439.778	110.877	-0.123	-0.148
-438.763	60.470	-0.142	0.141
-437.749	1.782	0.262	0.189
-436.734	-200.000	-0.058	0.389
-435.719	-200.000	-0.045	-0.396
-434.705	273.580	0.184	0.325
-433.690	-188.350	-0.229	-0.003
-432.676	-55.699	-0.112	0.050
-431.661	148.043	-0.070	0.095
-430.646	-200.000	0.001	-0.253
-429.632	-90.202	-0.057	0.017
-428.617	405.175	0.098	0.207
-427.603	800.000	0.065	-0.285
-426.588	86.798	0.136	-0.150
-425.573	-115.849	0.085	-0.016
-424.559	-122.850	-0.281	-0.045
-423.544	108.644	-0.166	-0.198
-422.530	106.649	-0.121	-0.143
-421.515	-64.440	-0.095	0.038
-420.500	29.545	-0.117	0.100
-419.486	-200.000	-0.025	-0.350
-418.471	-4.800	-0.119	-0.082
-417.457	-200.000	0.079	-0.432
-416.442	-94.657	-0.417	-0.113
-415.428	800.000	0.069	-0.198
-414.413	-15.133	0.246	-0.157
-413.398	538.246	-0.083	0.196
-412.384	614.291	-0.025	0.063
-411.369	-97.322	-0.108	-0.028
-410.355	553.517	0.088	0.212
-409.340	-113.752	-0.107	-0.021
-408.325	45.301	0.384	0.353
-407.311	285.650	-0.084	-0.152
-406.296	-83.036	-0.029	0.009
-405.282	86.932	0.174	0.192
-404.267	-90.122	-0.216	0.063
-403.252	-92.369	0.141	0.040
-402.238	-128.990	-0.324	-0.045
-401.223	438.725	-0.025	0.054
-400.209	-200.000	-0.016	-0.275
-399.194	-200.000	0.013	-0.393
-398.179	-127.026	0.346	-0.051
-397.165	800.000	-0.040	0.163
-396.150	-107.634	-0.397	-0.087
-395.136	223.598	0.030	-0.049
-394.121	800.000	0.050	0.220
-393.106	-106.101	0.103	-0.023
-392.092	373.258	0.127	0.258
-391.077	800.000	0.038	0.129
-390.063	68.371	0.068	-0.070
-389.048	111.573	0.119	0.143
-388.033	411.964	0.073	0.155
-387.019	-6.597	0.370	0.251
-386.004	56.495	-0.086	-0.083
-384.990	190.416	0.112	0.167
-383.975	-200.000	0.007	-0.061
-382.960	152.907	0.258	0.352
-381.946	-90.525	-0.123	-0.036
-380.931	242.705	-0.035	0.058
-379.917	800.000	-0.082	0.233
-378.902	800.000	0.087	-0.266
-377.888	-200.000	-0.037	0.169
-376.873	17.409	0.202	-0.160
-375.858	-200.000	0.043	0.208
-374.844	83.203	0.142	-0.155
-373.829	-200.000	-0.007	0.084
-372.815	-200.000	-0.003	-0.188
-371.800	-200.000	0.026	0.263
-370.785	-200.000	-0.013	-0.154
-369.771	90.796	-0.051	-0.057
-368.756	-67.880	0.453	0.176
-367.742	-6.531	-0.468	0.318
-366.727	-200.000	0.033	0.164
-365.712	-72.662	0.122	-0.045
-364.698	1.461	0.197	-0.141
-363.683	-200.000	-0.021	-0.202
-362.669	800.000	-0.027	0.077
-361.654	27.978	-0.115	0.097
-360.639	138.261	-0.053	0.070
-359.625	-77.904	0.132	0.045
-358.610	-14.756	-0.203	0.130
-357.596	394.332	0.089	0.185
-356.581	11.516	-0.117	-0.089
-355.566	-46.247	-0.203	0.099
-354.552	-200.000	-0.001	0.166
-353.537	255.992	-0.092	0.157
-352.523	-108.205	-0.170	0.037
-351.508	-21.344	0.254	0.154
-350.493	800.000	-0.047	-0.195
-349.479	118.145	-0.221	-0.272
-348.464	-146.483	0.300	0.026
-347.450	-183.725	-0.134	-0.002
-346.435	-200.000	0.007	-0.084
-345.420	118.380	0.158	0.194
-344.406	714.961	0.059	0.156
-343.391	-38.457	0.399	0.210
-342.377	-118.333	0.124	-0.022
-341.362	131.420	-0.066	0.085
-340.348	-46.267	-0.102	-0.050
-339.333	-11.123	0.099	0.065
-338.318	-112.517	-0.186	0.037
-337.304	-200.000	-0.033	0.184
-336.289	-134.291	0.196	-0.024
-335.275	800.000	-0.040	0.131
-334.260	400.749	-0.075	-0.157
-333.245	-57.015	-0.238	-0.105
-332.231	-42.962	0.050	0.025
-331.216	-92.393	0.236	0.066
-330.202	91.574	-0.085	-0.095
-329.187	139.597	0.196	0.257
-328.172	131.304	-0.230	0.294
-327.158	-142.750	-0.372	-0.036
-326.143	197.159	-0.239	0.363
-325.129	800.000	-0.045	0.132
-324.114	-200.000	-0.010	-0.095
-323.099	321.913	-0.022	0.042
-322.085	-75.565	-0.306	-0.108
-321.070	230.421	0.026	0.043
-320.056	609.054	-0.096	0.238
-319.041	187.212	-0.097	0.144
-318.026	-200.000	0.036	0.239
-317.012	800.000	-0.030	-0.112
-315.997	99.398	-0.116	0.133
-314.983	-2.519	0.218	-0.152
-313.968	130.988	0.100	0.127
-312.953	-124.099	-0.152	0.024
-311.939	800.000	0.075	0.292
-310.924	-68.148	0.197	0.076
-309.910	50.615	-0.080	0.075
-308.895	152.457	0.037	-0.051
-307.880	-105.362	0.517	0.117
-306.866	-41.002	0.105	-0.054
-305.851	33.633	0.209	-0.180
-304.837	-200.000	0.012	-0.083
-303.822	330.520	0.143	0.275
-302.807	44.842	0.067	0.061
-301.793	800.000	0.096	0.310
-300.778	170.631	0.086	0.122
-299.764	18.069	-0.245	0.194
-298.749	298.053	0.142	0.259
-297.735	53.491	0.330	-0.314
-296.720	-200.000	-0.032	-0.323
-295.705	-45.519	-0.147	-0.072
-294.691	-29.677	0.106	-0.060
-293.676	800.000	-0.054	-0.230
-292.662	-159.104	-0.239	-0.013
-291.647	105.705	-0.352	0.414
-290.632	166.314	-0.062	0.087
-289.618	800.000	-0.025	0.084
-288.603	-58.143	-0.101	0.044
-287.589	-145.649	0.191	-0.017
-286.574	30.476	-0.114	-0.097
-285.559	-200.000	0.004	0.063
-284.545	-200.000	0.025	-0.127
-283.530	320.066	-0.174	0.327
-282.516	-110.423	0.337	-0.069
-281.501	800.000	0.032	0.100
-280.486	32.004	-0.023	-0.020
-279.472	314.448	-0.193	-0.361
-278.457	-24.488	0.218	-0.129
-277.443	-3.757	0.166	0.115
-276.428	-7.614	-0.264	0.177
-275.413	-31.289	-0.131	-0.073
-274.399	289.345	-0.078	-0.140
-273.384	-108.730	-0.254	-0.054
-272.370	355.942	0.038	-0.075
-271.355	81.500	-0.138	0.148
-270.340	-29.502	-0.161	0.091
-269.326	40.705	0.187	-0.167
-268.311	-43.765	-0.172	-0.086
-267.297	800.000	-0.044	0.186
-266.282	-200.000	0.015	0.124
-265.267	-114.758	0.430	0.081
-264.253	-149.929	0.582	-0.045
-263.238	800.000	-0.063	-0.218
-262.224	800.000	-0.162	0.473
-261.209	-200.000	0.084	0.394
-260.195	-68.942	-0.268	0.103
-259.180	-158.104	-0.266	-0.015
-258.165	-200.000	0.018	-0.119
-257.151	-200.000	0.055	0.295
-256.136	743.240	0.162	0.431
-255.122	61.759	-0.183	-0.181
-254.107	800.000	0.083	-0.283
-253.092	-98.235	0.228	-0.058
-252.078	-200.000	0.011	0.272
-251.063	-200.000	0.025	0.214
-250.049	77.289	0.231	-0.243
-249.034	-17.989	0.271	-0.168
-248.019	435.775	-0.140	0.301
-247.005	-200.000	-0.028	0.260
-245.990	100.219	-0.078	-0.090
-244.976	800.000	-0.009	-0.029
-243.961	265.805	0.117	-0.203
-242.946	415.013	0.063	0.134
-241.932	-11.675	0.336	0.219
-240.917	800.000	0.091	-0.302
-239.903	580.435	0.075	-0.181
-238.888	181.467	0.036	-0.052
-237.873	360.383	0.079	-0.156
-236.859	-200.000	0.040	-0.273
-235.844	-129.007	0.419	0.058
-234.830	-80.366	0.069	0.023
-233.815	-112.642	0.371	-0.073
-232.800	800.000	-0.028	0.108
-231.786	249.144	-0.137	0.231
-230.771	800.000	0.122	0.347
-229.757	-71.331	0.182	0.068
-228.742	-81.276	-0.039	-0.013
-227.727	180.831	0.105	-0.153
-226.713	-200.000	0.033	0.201
-225.698	196.807	0.174	0.262
-224.684	-62.853	-0.363	0.149
-223.669	117.448	-0.117	0.143
-222.655	185.253	-0.061	0.089
-221.640	-106.281	0.032	0.007
-220.625	-10.243	-0.395	0.260
-219.611	2.180	0.135	-0.097
-218.596	-48.178	0.173	0.083
-217.582	-93.745	0.297	0.081
-216.567	-15.680	0.086	-0.054
-215.552	-200.000	-0.027	-0.353
-214.538	154.829	0.065	-0.088
-213.523	-31.429	-0.054	-0.030
-212.509	148.157	-0.111	-0.148
-211.494	-6.193	0.319	-0.216
-210.479	-200.000	-0.043	-0.256
-209.465	34.534	-0.161	0.139
-208.450	-57.095	0.111	-0.048
-207.436	1.587	0.137	-0.097
-206.421	-32.711	0.151	0.083
-205.406	800.000	-0.053	-0.152
-204.392	173.928	0.143	0.204
-203.377	-200.000	0.001	0.022
-202.363	753.206	-0.069	-0.185
-201.348	208.746	-0.166	0.257
-200.333	-121.081	-0.414	0.069
-199.319	-37.885	-0.168	0.088
-198.304	-163.815	0.360	-0.017
-197.290	-117.207	-0.486	-0.088
-196.275	202.530	-0.124	0.190
-195.260	-200.000	-0.027	-0.272
-194.246	56.567	0.100	0.097
-193.231	-7.262	0.267	-0.179
-192.217	27.684	-0.248	-0.207
-191.202	-103.197	0.228	-0.053
-190.187	0.478	-0.124	0.088
-189.173	-99.926	0.113	0.028
-188.158	412.064	0.114	-0.240
-187.144	95.166	0.141	0.158
-186.129	-115.451	0.310	0.058
-185.114	29.345	0.161	-0.135
-184.100	-145.983	-0.018	0.002
-183.085	-111.815	0.343	0.069
-182.071	-15.206	0.161	-0.102
-181.056	559.785	0.136	-0.324
-180.042	-69.367	0.319	0.121
-179.027	277.748	-0.099	0.174
-178.012	-130.573	-0.243	0.032
-176.998	-56.038	-0.178	-0.078
-175.983	-63.603	-0.275	-0.111
-174.969	-78.360	0.150	-0.051
-173.954	249.774	-0.179	0.301
-172.939	20.691	-0.238	-0.190
-171.925	-200.000	-0.014	0.230
-170.910	-24.795	0.261	-0.154
-169.896	126.784	0.084	-0.106
-168.881	800.000	0.037	0.128
-167.866	-200.000	-0.057	0.000
-166.852	255.099	0.115	0.195
-165.837	66.711	0.218	-0.220
-164.823	-166.154	-0.185	-0.008
-163.808	-107.871	0.067	0.014
-162.793	-8.142	0.288	-0.192
-161.779	-143.664	0.182	-0.017
-160.764	14.790	-0.370	0.286
-159.750	800.000	0.064	-0.187
-158.735	-83.665	0.291	-0.092
-157.720	800.000	0.037	0.126
-156.706	142.868	0.204	0.268
-155.691	-200.000	0.024	0.201
-154.677	662.675	0.041	0.104
-153.662	185.679	0.154	0.226
-152.647	363.624	-0.129	0.256
-151.633	-200.000	0.024	-0.293
-150.618	86.533	0.085	0.093
-149.604	-128.117	-0.148	-0.021
-148.589	-180.859	0.160	0.003
-147.574	566.539	-0.007	-0.017
-146.560	-127.355	0.063	0.009
-145.545	-124.732	-0.264	-0.040
-144.531	400.721	-0.055	0.114
-143.516	132.177	0.309	0.393
-142.502	48.654	-0.060	0.056
-141.487	-114.941	0.338	0.064
-140.472	-68.789	0.275	-0.105
-139.458	115.608	0.239	0.289
-138.443	593.266	0.073	0.178
-137.429	-74.231	-0.098	-0.035
-136.414	-150.668	0.312	0.024
-135.399	146.825	0.121	-0.160
-134.385	291.626	0.107	0.193
-133.370	-113.883	0.071	-0.014
-132.356	273.674	0.034	-0.060
-131.341	226.124	0.172	0.276
-130.326	77.695	-0.359	0.377
-129.312	-197.097	-0.316	0.002
-128.297	383.251	-0.091	0.184
-127.283	-136.293	-0.136	0.016
-126.268	-200.000	0.008	0.316
-125.253	800.000	0.029	0.126
-124.239	-132.944	-0.194	-0.024
-123.224	-113.704	-0.083	-0.016
-122.210	-182.890	-0.206	0.004
-121.195	-126.800	-0.131	0.019
-120.180	477.754	0.077	0.172
-119.166	151.310	-0.213	-0.287
-118.151	800.000	0.101	-0.281
-117.137	-200.000	0.031	-0.242
-116.122	-170.410	0.225	-0.008
-115.107	-200.000	0.026	0.125
-114.093	800.000	0.064	0.225
-113.078	-77.405	-0.102	0.035
-112.064	-195.780	0.028	-0.000
-111.049	250.419	-0.194	-0.326
-110.034	-102.688	-0.058	0.014
-109.020	28.741	0.121	0.101
-108.005	-200.000	-0.092	0.506
-106.991	800.000	-0.036	0.119
-105.976	636.251	-0.106	0.265
-104.962	82.095	-0.187	0.200
-103.947	-103.514	0.195	0.045
-102.932	-122.658	-0.337	-0.054
-101.918	-93.625	-0.372	-0.101
-100.903	34.144	-0.155	0.133
-99.889	-200.000	-0.058	-0.493
-98.874	-8.510	-0.027	-0.018
-97.859	106.670	-0.085	0.100
-96.845	800.000	-0.022	-0.073
-95.830	209.619	-0.091	-0.141
-94.816	-124.793	0.087	0.013
-93.801	-200.000	-0.004	0.078
-92.786	-9.616	0.030	0.020
-91.772	384.909	-0.097	0.197
-90.757	800.000	-0.096	0.267
-89.743	800.000	-0.044	-0.189
-88.728	-20.713	-0.135	-0.082
-87.713	-86.512	-0.139	-0.042
-86.699	-127.056	-0.023	-0.003
-85.684	-46.341	-0.154	0.075
-84.670	737.113	-0.035	-0.093
-83.655	92.262	0.129	-0.143
-82.640	-33.879	-0.244	0.132
-81.626	205.693	-0.176	-0.269
-80.611	31.928	-0.052	0.044
-79.597	-24.128	-0.048	-0.029
-78.582	-93.595	-0.199	-0.054
-77.567	-64.056	-0.072	0.029
-76.553	800.000	-0.057	-0.195
-75.538	114.823	0.228	-0.273
-74.524	-30.547	0.243	-0.136
-73.509	27.036	-0.143	-0.118
-72.494	-6.028	-0.114	-0.077
-71.480	-74.443	-0.271	0.096
-70.465	-4.797	0.095	-0.064
-69.451	800.000	0.073	0.199
-68.436	-200.000	-0.017	-0.184
-67.422	207.927	0.080	-0.123
-66.407	-200.000	-0.046	-0.263
-65.392	68.903	0.132	-0.133
-64.378	-63.611	0.191	0.077
-63.363	108.885	0.091	-0.108
-62.349	11.507	0.192	0.145
-61.334	-43.821	-1.318	-0.653
-60.319	20.272	0.609	0.484
-59.305	800.000	-0.299	-0.988
-58.290	186.325	0.538	0.788
-57.276	763.381	0.614	1.642
-56.261	-200.000	95.941	594.807
-55.246	565.756	1372.251	3276.049
-54.232	160.869	2550.900	3507.094
-53.217	112.251	2163.142	2574.453
-52.203	42.732	1708.600	1531.657
-51.188	35.349	1521.944	1313.940
-50.173	32.909	1495.823	1274.879
-49.159	52.060	1544.082	1447.797
-48.144	53.869	1561.472	1476.451
-47.130	35.430	1521.927	1314.269
-46.115	32.385	1507.227	1280.831
-45.100	32.236	1503.372	1276.490
-44.086	32.212	1501.874	1275.005
-43.071	32.162	1499.610	1272.691
-42.057	32.191	1497.510	1271.061
-41.042	32.248	1496.188	1270.269
-40.027	32.215	1494.956	1268.949
-39.013	32.081	1493.810	1267.022
-37.998	32.070	1492.733	1265.985
-36.984	32.159	1491.495	1265.486
-35.969	32.139	1490.035	1264.064
-34.954	32.095	1488.751	1262.625
-33.940	32.120	1487.379	1261.579
-32.925	32.228	1485.496	1260.662
-31.911	32.218	1484.316	1259.540
-30.896	32.263	1482.961	1258.643
-29.881	32.169	1481.916	1257.077
-28.867	32.238	1480.250	1256.070
-27.852	32.159	1478.695	1254.178
-26.838	32.159	1477.585	1253.184
-25.823	32.213	1475.747	1251.936
-24.809	32.199	1474.313	1250.579
-23.794	32.127	1472.898	1248.847
-22.779	32.175	1471.546	1247.972
-21.765	32.134	1470.472	1246.742
-20.750	32.210	1469.156	1246.075
-19.736	32.183	1468.244	1245.078
-18.721	32.149	1466.993	1243.739
-17.706	32.115	1465.937	1242.572
-16.692	32.175	1464.797	1241.952
-15.677	32.175	1463.775	1241.038
-14.663	32.131	1462.794	1239.865
-13.648	32.024	1462.256	1238.651
-12.633	32.155	1461.070	1238.463
-11.619	32.130	1459.962	1237.310
-10.604	32.059	1459.561	1236.454
-9.590	32.083	1458.735	1235.863
-8.575	32.089	1457.965	1235.203
-7.560	32.167	1456.495	1234.423
-6.546	32.105	1455.602	1233.209
-5.531	32.124	1454.538	1232.383
-4.517	32.140	1453.537	1231.588
-3.502	32.173	1452.764	1231.101
-2.487	32.084	1451.615	1229.494
-1.473	32.126	1450.658	1228.914
-0.458	32.156	1449.268	1227.879
0.556	32.036	1439.485	1216.662
1.571	29.130	1414.659	1177.028
2.586	25.816	1358.804	1110.069
3.600	24.175	1279.935	1036.012
4.615	22.868	1232.197	989.961
5.629	19.223	1174.226	923.796
6.644	9.627	1087.905	807.911
7.659	2.659	1046.870	743.656
8.673	1.762	1041.678	735.572
9.688	1.650	1037.999	732.372
10.702	1.459	1036.443	730.291
11.717	1.410	1034.550	728.658
12.731	4.383	1037.606	745.032
13.746	13.970	1051.465	801.354
14.761	22.316	1062.397	850.120
15.775	24.639	1064.715	863.135
16.790	25.042	1064.595	864.906
17.804	24.881	1063.597	863.243
18.819	24.613	1063.506	861.800
19.834	24.796	1062.381	861.695
20.848	24.908	1061.936	861.797
21.863	25.030	1062.204	862.523
22.877	25.143	1061.060	862.063
23.892	25.026	1060.810	861.222
24.907	24.997	1059.679	860.085
25.921	24.894	1059.374	859.270
26.936	24.992	1058.330	858.814
27.950	25.008	1057.307	857.988
28.965	24.901	1056.171	856.477
29.980	24.697	1054.820	854.333
30.994	24.786	1053.476	853.591
32.009	25.089	1052.479	854.153
33.023	25.115	1052.106	853.900
34.038	24.980	1051.019	852.300
35.053	24.781	1050.223	850.633
36.067	24.969	1049.458	850.831
37.082	24.975	1048.767	850.222
38.096	24.994	1048.186	849.764
39.111	25.191	1047.414	849.997
40.126	25.328	1046.299	849.669
41.140	25.217	1045.439	848.368
42.155	24.854	1043.836	845.280
43.169	24.470	1043.070	842.770
44.184	24.609	1041.459	842.048
45.199	24.580	1041.170	841.605
46.213	24.494	1039.809	840.025
47.228	24.600	1038.765	839.608
48.242	24.705	1037.680	839.146
49.257	24.908	1037.232	839.664
50.271	24.901	1036.680	839.108
51.286	24.918	1036.382	838.872
52.301	24.961	1035.612	838.376
53.315	25.108	1034.628	838.194
54.330	24.861	1034.608	836.947
55.344	24.779	1033.423	835.535
56.359	24.896	1032.492	835.252
57.374	24.972	1031.655	834.857
58.388	24.817	1030.186	832.873
59.403	24.673	1030.002	831.978
60.417	24.649	1029.267	831.199
61.432	24.622	1027.875	829.879
62.447	24.620	1027.373	829.389
63.461	24.677	1027.424	829.622
64.476	24.790	1026.350	829.207
65.490	24.656	1025.760	828.034
66.505	24.582	1024.781	826.829
67.520	24.656	1023.921	826.403
68.534	24.713	1023.592	826.328
69.549	24.595	1022.065	824.478
70.563	24.280	1020.573	821.750
71.578	24.267	1020.039	821.189
72.593	24.242	1019.657	820.692
73.607	24.069	1018.287	818.720
74.622	24.020	1017.608	817.879
75.636	24.430	1016.724	818.977
76.651	24.526	1016.077	818.822
77.666	24.402	1015.270	817.533
78.680	24.320	1014.520	816.482
79.695	24.331	1013.708	815.807
80.709	24.471	1013.097	815.880
81.724	24.566	1012.558	815.811
82.739	24.558	1011.400	814.768
83.753	24.548	1010.588	813.994
84.768	24.722	1010.448	814.605
85.782	25.176	1009.800	816.076
86.797	25.312	1009.211	816.146
87.812	25.323	1007.948	815.102
88.826	25.108	1006.966	813.261
89.841	25.051	1006.438	812.502
90.855	25.141	1005.737	812.274
91.870	25.153	1004.915	811.594
92.884	25.227	1004.138	811.226
93.899	24.984	1003.270	809.358
94.914	24.966	1002.101	808.263
95.928	24.912	1001.808	807.710
96.943	25.203	1000.345	807.769
97.957	24.909	999.359	805.576
98.972	24.753	998.141	803.826
99.987	24.287	997.509	801.152
101.001	24.453	996.702	801.177
102.016	24.867	996.325	802.660
103.030	24.957	994.844	801.799
104.045	24.836	993.867	800.398
105.060	24.594	992.817	798.401
106.074	24.525	991.646	797.079
107.089	24.441	991.342	796.390
108.103	24.896	990.778	797.897
109.118	25.046	989.907	797.795
110.133	24.580	988.628	794.620
111.147	24.603	987.551	793.785
112.162	24.514	986.453	792.438
113.176	24.395	985.485	791.064
114.191	24.491	984.725	790.808
115.206	24.559	984.147	790.575
116.220	24.317	982.958	788.479
117.235	24.092	982.182	786.792
118.249	24.290	981.806	787.294
119.264	24.376	980.353	786.441
120.279	24.091	980.156	784.955
121.293	24.227	979.262	784.771
122.308	24.279	978.631	784.424
123.322	24.441	977.611	784.248
124.337	24.255	976.389	782.381
125.352	24.252	974.978	781.170
126.366	23.738	973.369	777.561
127.381	23.293	972.589	774.922
128.395	23.914	972.512	777.508
129.410	24.607	972.298	780.296
130.424	24.877	971.255	780.568
131.439	24.912	970.101	779.724
132.454	24.809	969.749	778.923
133.468	24.912	968.528	778.321
134.483	24.677	968.040	776.841
135.497	24.943	966.936	777.041
136.512	25.000	966.835	777.138
137.527	25.178	965.756	776.973
138.541	24.981	965.347	775.720
139.556	24.956	964.939	775.219
140.570	24.990	963.509	774.146
141.585	25.045	962.946	773.862
142.600	25.233	961.907	773.773
143.614	25.009	961.083	772.076
144.629	25.203	960.268	772.185
145.643	25.344	959.743	772.303
146.658	25.280	958.931	771.304
147.673	25.112	957.703	769.531
148.687	24.958	956.284	767.659
149.702	24.967	955.518	767.018
150.716	24.681	954.641	765.022
151.731	24.873	953.449	764.819
152.746	24.955	952.835	764.609
153.760	25.075	952.520	764.800
154.775	25.272	951.705	764.916
155.789	25.480	950.423	764.703
156.804	25.281	949.587	763.120
157.819	25.309	948.793	762.531
158.833	25.203	947.812	761.226
159.848	25.417	947.115	761.504
160.862	25.402	946.745	761.080
161.877	25.310	945.558	759.665
162.892	25.248	944.452	758.451
163.906	25.286	943.957	758.143
164.921	25.132	943.584	757.130
165.935	25.162	942.073	755.973
166.950	25.114	941.189	754.995
167.964	25.289	940.058	754.761
168.979	25.166	939.204	753.489
169.994	25.075	938.241	752.266
171.008	25.003	937.171	751.042
172.023	25.115	936.751	751.110
173.037	25.396	935.767	751.430
174.052	25.179	935.019	749.853
175.067	25.008	933.976	748.237
176.081	24.956	932.808	747.020
177.096	25.105	932.018	746.940
178.110	25.132	931.255	746.376
179.125	24.857	930.504	744.566
180.140	24.598	929.493	742.612
181.154	24.588	928.672	741.849
182.169	24.650	928.599	741.985
183.183	24.871	928.280	742.580
184.198	25.307	927.709	743.864
185.213	25.262	926.907	742.970
186.227	25.269	925.998	742.204
187.242	25.147	925.963	741.607
188.256	25.121	925.394	740.976
189.271	25.133	925.046	740.683
190.286	25.405	923.670	740.636
191.300	25.160	922.928	738.966
192.315	24.504	921.831	735.323
193.329	23.896	919.921	731.235
194.344	23.510	918.665	728.586
195.359	24.034	919.229	731.121
196.373	24.934	919.450	734.930
197.388	25.146	919.639	735.886
198.402	25.069	919.086	735.062
199.417	25.117	918.281	734.547
200.432	25.084	917.998	734.122
201.446	24.991	916.863	732.771
202.461	24.727	916.129	731.038
203.475	24.835	915.519	730.930
204.490	24.418	914.159	728.078
205.504	23.240	912.214	721.664
206.519	23.682	911.813	723.083
207.534	24.686	911.860	727.142
208.548	24.683	911.924	727.118
209.563	25.086	911.524	728.373
210.577	25.208	910.773	728.205
211.592	24.750	910.238	725.851
212.607	25.263	910.180	727.825
213.621	25.214	909.840	727.287
214.636	25.281	908.608	726.509
215.650	25.354	908.257	726.460
216.665	25.181	907.561	725.141
217.680	25.246	907.318	725.144
218.694	25.337	906.944	725.151
219.709	25.175	905.277	723.100
220.723	24.778	904.442	720.771
221.738	25.001	904.223	721.429
222.753	25.031	904.096	721.385
223.767	24.938	902.968	720.048
224.782	25.173	902.351	720.436
225.796	25.359	901.780	720.664
226.811	25.389	901.691	720.648
227.826	24.946	900.379	717.762
228.840	24.207	898.812	713.492
229.855	24.036	898.103	712.180
230.869	24.409	897.582	713.193
231.884	24.191	896.311	711.252
232.899	24.107	896.278	710.827
233.913	24.928	896.341	714.089
234.928	25.022	896.070	714.187
235.942	24.912	895.661	713.358
236.957	25.154	893.966	712.906
237.972	24.674	893.832	710.828
238.986	24.649	892.722	709.783
240.001	24.857	892.465	710.341
241.015	24.748	891.796	709.314
242.030	24.764	891.424	709.019
243.045	25.006	890.575	709.242
244.059	25.156	890.268	709.526
245.074	25.183	889.956	709.320
246.088	25.113	889.128	708.322
247.103	24.767	888.219	706.169
248.117	24.816	887.862	706.017
249.132	25.330	888.049	708.132
250.147	25.772	887.809	709.618
251.161	25.783	887.310	709.202
252.176	25.954	886.436	709.112
253.190	26.046	886.201	709.224
254.205	25.990	885.320	708.236
255.220	26.132	885.357	708.760
256.234	26.157	884.464	708.082
257.249	25.899	884.070	706.690
258.263	25.889	882.850	705.612
259.278	25.971	882.601	705.672
260.293	25.971	882.040	705.162
261.307	26.164	881.566	705.475
262.322	25.940	880.963	704.056
263.336	25.888	880.268	703.237
264.351	25.482	878.090	699.851
265.366	24.206	877.175	694.094
266.380	23.833	876.004	691.655
267.395	24.748	876.380	695.450
268.409	25.416	876.504	698.083
269.424	25.531	875.864	697.961
270.439	25.725	875.484	698.349
271.453	25.730	875.235	698.106
272.468	25.716	873.860	696.895
273.482	25.910	873.804	697.540
274.497	26.090	873.704	698.093
275.512	25.816	872.506	696.015
276.526	25.150	871.235	692.369
277.541	25.419	871.029	693.182
278.555	25.847	870.675	694.489
279.570	25.694	870.032	693.328
280.585	25.530	869.283	692.036
281.599	25.557	869.208	692.020
282.614	25.669	868.431	691.770
283.628	25.247	867.062	688.998
284.643	25.005	866.510	687.570
285.657	25.367	866.226	688.674
286.672	25.231	865.550	687.554
287.687	24.856	864.485	685.211
288.701	25.214	864.457	686.500
289.716	25.495	864.107	687.236
290.730	25.240	863.058	685.364
291.745	25.048	862.496	684.125
292.760	24.957	861.439	682.879
293.774	24.812	860.911	681.850
294.789	25.680	861.614	685.654
295.803	26.259	862.093	688.180
296.818	26.320	861.109	687.567
297.833	26.398	860.983	687.701
298.847	26.075	859.576	685.290
299.862	25.798	858.430	683.266
300.876	25.934	858.473	683.754
301.891	26.290	858.181	684.813
302.906	26.351	857.583	684.505
303.920	26.053	856.161	682.180
304.935	25.784	855.879	680.879
305.949	26.162	856.105	682.430
306.964	26.382	854.827	682.179
307.979	26.010	854.343	680.330
308.993	25.896	853.961	679.534
310.008	26.514	853.420	681.373
311.022	26.569	853.283	681.412
312.037	26.347	852.523	679.906
313.052	26.159	851.885	678.633
314.066	25.950	851.149	677.202
315.081	25.402	849.504	673.776
316.095	24.486	848.828	669.747
317.110	25.076	848.571	671.697
318.125	25.826	849.040	674.820
319.139	25.575	847.934	672.941
320.154	24.373	846.149	666.976
321.168	23.872	845.245	664.332
322.183	24.585	845.242	666.931
323.197	25.325	846.281	670.458
324.212	25.798	845.713	671.714
325.227	25.942	845.346	671.899
326.241	26.107	845.046	672.217
327.256	25.984	844.062	670.917
328.270	25.900	843.465	670.070
329.285	25.794	842.716	669.023
330.300	25.714	841.875	668.000
331.314	25.459	841.013	666.309
332.329	25.430	840.730	665.919
333.343	25.999	840.428	667.729
334.358	26.277	840.124	668.458
335.373	26.248	839.634	667.899
336.387	26.086	839.227	666.920
337.402	26.292	839.328	667.703
338.416	26.688	838.663	668.575
339.431	26.692	837.634	667.712
340.446	26.653	837.448	667.361
341.460	26.765	837.106	667.440
342.475	26.634	836.608	666.503
343.489	26.589	835.522	665.413
344.504	26.522	835.184	664.839
345.519	26.803	834.753	665.467
346.533	26.980	834.496	665.855
347.548	27.084	834.100	665.860
348.562	27.151	833.492	665.562
349.577	26.957	833.434	664.744
350.592	26.932	832.694	664.006
351.606	26.875	832.116	663.277
352.621	26.851	831.562	662.689
353.635	26.817	830.912	661.986
354.650	26.802	829.843	661.021
355.665	26.357	829.541	659.102
356.679	25.456	827.846	654.415
357.694	25.136	827.392	652.834
358.708	25.977	827.377	655.826
359.723	25.723	826.720	654.324
360.738	26.104	826.172	655.215
361.752	26.440	826.556	656.684
362.767	26.580	825.801	656.530
363.781	27.008	825.690	657.937
364.796	27.185	825.582	658.436
365.810	27.333	825.244	658.642
366.825	27.497	824.469	658.560
367.840	27.395	824.616	658.249
368.854	27.191	823.752	656.763
369.869	26.751	823.161	654.647
370.883	26.758	821.989	653.682
371.898	26.675	821.695	653.092
372.913	26.691	820.909	652.465
373.927	26.641	820.123	651.603
374.942	26.833	819.967	652.112
375.956	26.949	819.477	652.081
376.971	26.902	818.981	651.460
377.986	27.039	818.550	651.551
379.000	27.381	817.525	651.905
380.015	27.411	817.148	651.653
381.029	27.231	816.678	650.574
382.044	27.129	816.084	649.680
383.059	27.316	815.398	649.744
384.073	27.333	815.138	649.539
385.088	27.394	814.824	649.451
386.102	27.368	813.903	648.564
387.117	27.212	813.065	647.285
388.132	26.956	812.946	646.224
389.146	26.742	812.295	644.886
390.161	26.252	811.350	642.337
391.175	26.386	811.009	642.486
392.190	27.002	810.902	644.532
393.205	26.878	810.647	643.831
394.219	25.992	808.546	638.971
395.234	24.216	806.621	631.107
396.248	23.500	805.485	627.630
397.263	24.600	806.291	632.096
398.278	26.448	807.824	639.785
399.292	26.937	807.473	641.179
400.307	26.549	807.074	639.436
401.321	26.582	806.149	638.762
402.336	26.693	805.861	638.868
403.350	26.876	806.031	639.592
404.365	27.340	806.230	641.330
405.380	27.694	805.694	642.094
406.394	28.065	805.536	643.217
407.409	28.215	804.957	643.226
408.423	27.952	804.556	641.923
409.438	27.898	804.002	641.235
410.453	28.008	803.861	641.451
411.467	27.938	803.598	640.939
412.482	27.969	802.961	640.484
413.496	27.960	802.038	639.658
414.511	27.951	801.937	639.490
415.526	28.224	801.478	640.021
416.540	28.074	801.215	639.230
417.555	27.843	800.907	638.122
418.569	27.599	799.876	636.393
419.584	27.836	798.938	636.414
420.599	27.904	798.655	636.370
421.613	110.122	1285.949	1459.132
422.628	94.889	1356.947	1459.227
