DTS Sentinel unit serial number:	SN413079Multiplexer serial number:	ORYXHardware model number:	OX4-SRSoftware version number:	ORYX F/W v4.00 Oryx Data Collector v3.7.2.0data status	okinstallation	princeton_trtdifferential loss correction	single-endedforward channel	channel 3reverse channel	N/Adate	2019/09/19time	08:44:34forward acquisition time	60.00reverse acquisition time	0.00gamma	496.2192k internal	0.2346k external	0.2346temperature offset calibration	0.9979default loss term (dB/km)	0.3790temperature slope calibration	1.0000multiplexer offset coefficient	1.0000multiplexer slope coefficient	1.0000fibre end	0.00T internal ref (°C)	21.02T ext. ref 1 (°C)	0.58T ext. ref 2 (°C)	16.66length (m)	temperature (°C)	Stokes	anti-Stokes-747.200	34.437	0.052	0.046
-746.185	334.291	-0.214	0.414
-745.171	-39.863	0.291	0.152
-744.156	-46.784	-0.184	-0.090
-743.142	98.188	0.078	-0.089
-742.127	800.000	-0.039	-0.152
-741.112	307.722	0.072	0.134
-740.098	325.590	-0.042	0.080
-739.083	-28.922	0.449	-0.258
-738.069	-167.932	-0.037	-0.001
-737.054	-73.513	-0.405	-0.148
-736.039	84.489	-0.137	-0.150
-735.025	-10.226	0.397	-0.263
-734.010	-200.000	0.004	-0.196
-732.996	-200.000	-0.036	-0.313
-731.981	-200.000	0.039	-0.179
-730.966	-120.148	-0.119	-0.020
-729.952	113.256	-0.047	-0.056
-728.937	61.384	0.285	-0.283
-727.923	-174.157	-0.358	0.010
-726.908	72.649	-0.279	-0.291
-725.894	-136.053	0.348	-0.041
-724.879	800.000	-0.053	0.168
-723.864	-32.467	-0.322	0.179
-722.850	-43.542	-0.098	0.050
-721.835	783.361	-0.029	-0.079
-720.821	746.456	0.087	0.235
-719.806	-127.740	-0.180	-0.026
-718.791	-150.469	-0.238	0.018
-717.777	-200.000	-0.024	0.192
-716.762	57.500	0.287	0.280
-715.748	622.086	-0.019	0.047
-714.733	-200.000	-0.082	0.391
-713.718	-52.514	-0.196	-0.091
-712.704	8.393	0.200	-0.151
-711.689	-200.000	-0.023	-0.197
-710.675	109.318	-0.063	0.075
-709.660	800.000	0.058	0.189
-708.645	800.000	-0.063	-0.233
-707.631	50.268	-0.112	0.105
-706.616	-113.421	0.115	0.023
-705.602	-104.613	0.070	-0.016
-704.587	-67.612	0.250	-0.098
-703.572	-89.917	0.225	0.066
-702.558	-60.899	0.088	0.037
-701.543	-32.471	-0.235	-0.131
-700.529	53.730	0.167	0.160
-699.514	-38.267	0.122	-0.064
-698.499	-39.178	-0.103	-0.054
-697.485	230.675	-0.157	0.256
-696.470	-80.220	-0.036	0.012
-695.456	11.227	0.336	0.257
-694.441	-200.000	0.019	-0.108
-693.426	-13.263	-0.386	-0.250
-692.412	72.399	-0.178	-0.185
-691.397	-150.001	-0.177	-0.014
-690.383	21.885	0.079	0.064
-689.368	-34.430	0.215	0.117
-688.354	-57.860	0.209	0.091
-687.339	800.000	-0.049	-0.157
-686.324	-63.937	-0.333	-0.136
-685.310	66.441	-0.207	0.210
-684.295	800.000	-0.066	-0.229
-683.281	687.837	0.033	-0.085
-682.266	-200.000	-0.030	-0.270
-681.251	-108.373	-0.174	0.037
-680.237	301.703	-0.101	-0.187
-679.222	-58.438	-0.174	-0.075
-678.208	101.685	0.094	0.109
-677.193	-200.000	0.040	0.402
-676.178	800.000	0.047	0.144
-675.164	-131.040	-0.265	0.035
-674.149	583.389	0.125	-0.306
-673.135	67.054	-0.108	-0.110
-672.120	29.598	0.172	-0.146
-671.105	654.128	-0.042	0.106
-670.091	181.449	-0.186	-0.273
-669.076	-92.860	0.526	0.146
-668.062	106.677	0.063	-0.074
-667.047	-92.321	0.405	0.114
-666.032	-200.000	0.052	-0.281
-665.018	30.252	0.271	0.231
-664.003	-155.917	-0.356	-0.023
-662.989	-114.385	0.186	-0.036
-661.974	-29.980	0.126	-0.071
-660.959	185.803	0.242	-0.359
-659.945	800.000	0.084	0.294
-658.930	14.823	0.201	0.156
-657.916	-200.000	0.014	-0.155
-656.901	-155.319	0.178	-0.012
-655.886	-81.355	-0.015	0.005
-654.872	-200.000	-0.023	-0.112
-653.857	-108.910	-0.354	-0.075
-652.843	-163.531	-0.268	0.013
-651.828	66.069	0.181	-0.183
-650.814	-200.000	0.037	-0.389
-649.799	-83.021	0.174	-0.056
-648.784	-138.100	0.089	0.010
-647.770	-26.252	-0.404	-0.237
-646.755	-45.687	-0.187	-0.092
-645.741	-200.000	-0.003	-0.078
-644.726	-136.177	0.043	-0.005
-643.711	96.447	-0.174	0.198
-642.697	49.765	0.089	0.083
-641.682	800.000	-0.060	0.188
-640.668	6.147	-0.186	0.137
-639.653	-6.921	0.269	0.182
-638.638	-185.783	-0.256	-0.004
-637.624	-142.657	-0.095	-0.009
-636.609	-99.844	-0.143	0.035
-635.595	106.201	-0.100	0.118
-634.580	-54.622	0.165	0.074
-633.565	-200.000	0.037	-0.209
-632.551	800.000	0.073	-0.294
-631.536	-22.367	-0.168	-0.102
-630.522	125.166	-0.256	-0.322
-629.507	139.833	0.391	-0.513
-628.492	-76.471	-0.222	-0.078
-627.478	-123.861	0.281	-0.044
-626.463	-200.000	-0.042	-0.490
-625.449	151.595	0.118	0.159
-624.434	-7.277	0.379	0.256
-623.419	415.097	0.072	-0.153
-622.405	800.000	0.027	-0.114
-621.390	-4.647	0.318	0.219
-620.376	-183.405	-0.217	0.004
-619.361	221.898	-0.128	0.204
-618.346	-158.104	-0.148	0.009
-617.332	471.159	-0.093	0.208
-616.317	751.451	-0.041	-0.111
-615.303	-112.668	0.147	-0.029
-614.288	-200.000	-0.032	-0.192
-613.273	-43.334	-0.160	0.081
-612.259	13.311	0.048	0.037
-611.244	-200.000	0.012	-0.165
-610.230	-77.868	0.173	-0.059
-609.215	340.120	-0.115	0.224
-608.201	-107.271	-0.069	0.015
-607.186	-200.000	0.002	-0.035
-606.171	-10.047	-0.163	0.108
-605.157	-142.869	0.066	0.006
-604.142	195.917	-0.091	0.138
-603.128	202.304	0.275	0.422
-602.113	-84.443	0.162	-0.051
-601.098	518.843	-0.037	-0.086
-600.084	-200.000	-0.010	0.215
-599.069	-167.089	0.102	0.004
-598.055	-200.000	-0.011	-0.092
-597.040	-55.373	0.169	-0.075
-596.025	800.000	0.057	-0.210
-595.011	15.749	-0.280	-0.219
-593.996	689.915	-0.151	0.394
-592.982	60.570	-0.185	0.182
-591.967	-200.000	-0.029	-0.166
-590.952	-200.000	0.046	0.324
-589.938	-114.817	-0.150	0.028
-588.923	340.601	-0.182	0.352
-587.909	179.982	0.248	0.361
-586.894	282.379	0.065	-0.116
-585.879	-200.000	0.059	-0.293
-584.865	-200.000	-0.028	0.155
-583.850	-158.253	0.507	0.029
-582.836	355.221	-0.241	0.477
-581.821	109.085	0.174	-0.207
-580.806	126.607	0.024	-0.031
-579.792	206.236	-0.070	-0.108
-578.777	-84.477	0.333	0.105
-577.763	-143.935	0.142	0.013
-576.748	24.473	0.189	0.155
-575.733	177.190	0.163	-0.235
-574.719	-200.000	0.027	0.162
-573.704	-57.519	-0.086	0.037
-572.690	800.000	-0.068	-0.224
-571.675	119.133	-0.118	-0.145
-570.661	7.239	0.236	-0.175
-569.646	39.570	-0.100	0.089
-568.631	800.000	-0.120	-0.360
-567.617	40.248	-0.238	0.213
-566.602	-200.000	0.008	0.039
-565.588	-200.000	0.007	-0.149
-564.573	274.249	0.044	0.078
-563.558	156.419	-0.126	-0.172
-562.544	-200.000	-0.006	0.066
-561.529	-49.917	-0.406	0.191
-560.515	-95.584	0.178	0.047
-559.500	800.000	0.048	-0.185
-558.485	-135.043	-0.498	-0.060
-557.471	269.161	0.187	-0.327
-556.456	-26.892	-0.321	0.186
-555.442	-91.045	-0.502	-0.143
-554.427	-200.000	-0.007	-0.087
-553.412	589.843	-0.074	-0.180
-552.398	-24.357	-0.139	-0.082
-551.383	301.567	0.239	0.439
-550.369	-48.405	0.285	-0.136
-549.354	-123.156	0.369	-0.059
-548.339	130.281	-0.209	0.265
-547.325	106.185	-0.067	-0.078
-546.310	-78.019	0.477	0.163
-545.296	394.576	0.140	-0.289
-544.281	522.620	-0.086	-0.201
-543.266	22.418	0.193	0.156
-542.252	72.956	0.115	0.119
-541.237	-14.870	0.183	0.116
-540.223	-36.745	0.114	-0.061
-539.208	-133.202	0.178	0.022
-538.193	-113.488	-0.101	0.020
-537.179	-115.723	-0.106	0.020
-536.164	-121.714	-0.287	-0.047
-535.150	226.505	-0.153	0.247
-534.135	106.939	-0.080	-0.094
-533.121	-152.105	-0.386	-0.028
-532.106	-50.419	-0.391	-0.183
-531.091	-164.934	-0.242	0.011
-530.077	68.072	0.272	0.276
-529.062	-65.818	-0.223	-0.088
-528.048	-119.936	0.352	0.060
-527.033	471.549	-0.081	-0.180
-526.018	133.574	-0.197	0.252
-525.004	-19.336	0.153	-0.094
-523.989	496.346	-0.069	0.157
-522.975	-95.105	-0.275	0.074
-521.960	800.000	0.055	-0.195
-520.945	95.417	0.189	-0.214
-519.931	35.967	0.168	0.147
-518.916	120.847	0.179	0.220
-517.902	-90.169	-0.163	-0.047
-516.887	404.146	-0.082	0.172
-515.872	-133.200	-0.135	0.017
-514.858	800.000	0.085	-0.294
-513.843	-98.440	0.306	0.078
-512.829	-187.142	-0.179	0.002
-511.814	125.987	-0.209	0.262
-510.799	701.088	-0.056	-0.147
-509.785	650.585	-0.020	0.051
-508.770	146.007	0.052	-0.069
-507.756	404.212	0.103	0.216
-506.741	800.000	0.034	-0.128
-505.726	33.167	-0.310	-0.267
-504.712	-65.511	0.269	0.107
-503.697	67.624	-0.173	0.175
-502.683	112.795	-0.074	-0.089
-501.668	46.816	0.182	0.168
-500.653	111.919	-0.235	-0.281
-499.639	-13.570	0.254	0.163
-498.624	-125.648	-0.103	0.015
-497.610	225.457	0.145	-0.233
-496.595	-78.492	0.225	0.076
-495.581	-41.188	0.082	0.042
-494.566	-161.411	-0.166	0.008
-493.551	185.864	-0.334	0.492
-492.537	171.910	0.197	0.280
-491.522	-200.000	-0.046	-0.314
-490.508	54.501	0.170	0.162
-489.493	-200.000	0.022	-0.291
-488.478	-2.589	0.139	-0.096
-487.464	93.580	-0.056	0.063
-486.449	-117.265	0.260	0.047
-485.435	-43.458	0.144	0.072
-484.420	163.012	0.077	-0.107
-483.405	189.073	0.147	-0.218
-482.391	800.000	0.031	-0.104
-481.376	487.634	-0.095	-0.215
-480.362	440.200	-0.068	-0.147
-479.347	292.550	0.034	-0.062
-478.332	-200.000	-0.039	0.538
-477.318	-167.547	0.484	0.019
-476.303	-200.000	-0.036	-0.288
-475.289	-141.603	0.086	-0.009
-474.274	-33.564	0.272	-0.149
-473.259	-133.007	0.285	0.036
-472.245	102.661	0.319	-0.369
-471.230	800.000	-0.078	-0.271
-470.216	109.807	-0.193	0.229
-469.201	-99.821	0.286	-0.071
-468.186	-97.509	-0.224	0.058
-467.172	14.882	-0.152	0.118
-466.157	517.117	0.101	0.234
-465.143	800.000	-0.072	-0.219
-464.128	18.739	0.082	0.065
-463.113	174.739	-0.066	0.095
-462.099	800.000	0.028	0.113
-461.084	-36.820	0.063	0.033
-460.070	288.350	0.041	0.073
-459.055	-42.810	-0.240	-0.121
-458.040	669.453	-0.182	0.465
-457.026	372.695	0.056	-0.112
-456.011	367.449	-0.098	-0.196
-454.997	-125.829	-0.236	0.035
-453.982	-200.000	-0.038	-0.330
-452.968	172.724	0.090	-0.128
-451.953	-32.200	-0.071	-0.039
-450.938	-55.174	-0.064	-0.028
-449.924	256.589	-0.166	-0.282
-448.909	172.986	0.089	0.126
-447.895	262.812	-0.105	0.180
-446.880	800.000	-0.066	-0.264
-445.865	82.549	0.145	-0.156
-444.851	-41.577	0.203	0.103
-443.836	-200.000	0.002	-0.159
-442.822	-63.746	0.463	-0.187
-441.807	800.000	-0.032	0.119
-440.792	-106.793	0.255	0.056
-439.778	222.639	0.105	0.168
-438.763	800.000	0.038	0.146
-437.749	30.871	-0.273	0.231
-436.734	-104.151	0.117	0.027
-435.719	-111.483	-0.321	-0.065
-434.705	282.749	0.043	-0.077
-433.690	-200.000	-0.065	0.391
-432.676	-200.000	0.023	0.329
-431.661	-67.282	-0.322	0.125
-430.646	-200.000	-0.012	-0.218
-429.632	69.097	-0.065	-0.066
-428.617	-5.890	-0.211	0.143
-427.603	-200.000	-0.033	0.252
-426.588	-6.551	0.235	-0.158
-425.573	-139.721	-0.129	0.014
-424.559	-200.000	-0.026	0.181
-423.544	800.000	-0.018	0.074
-422.530	-134.707	-0.042	0.005
-421.515	40.356	-0.096	-0.086
-420.500	106.154	0.071	0.083
-419.486	-41.392	-0.138	0.070
-418.471	-76.410	-0.250	0.087
-417.457	-68.812	0.318	-0.121
-416.442	800.000	-0.049	-0.139
-415.428	-179.330	-0.276	-0.006
-414.413	-58.731	0.243	-0.104
-413.398	65.778	0.207	0.207
-412.384	547.192	-0.084	-0.198
-411.369	-200.000	-0.001	-0.360
-410.355	147.855	0.052	-0.069
-409.340	-200.000	0.036	-0.224
-408.325	5.083	0.113	-0.082
-407.311	0.521	0.098	0.069
-406.296	-59.641	0.182	-0.077
-405.282	97.864	-0.089	-0.101
-404.267	205.248	-0.062	-0.094
-403.252	-93.145	-0.140	0.038
-402.238	-45.016	-0.450	0.221
-401.223	-57.823	0.302	-0.130
-400.209	-115.001	-0.182	-0.034
-399.194	61.779	0.191	0.187
-398.179	471.266	-0.131	-0.291
-397.165	669.203	0.049	0.125
-396.150	139.255	0.270	0.350
-395.136	-118.841	0.041	-0.007
-394.121	336.626	0.038	0.073
-393.106	46.589	-0.305	-0.280
-392.092	366.727	0.084	0.166
-391.077	-121.088	0.312	-0.052
-390.063	-57.910	-0.146	0.063
-389.048	181.385	-0.045	0.066
-388.033	-68.476	0.386	-0.148
-387.019	126.911	0.165	-0.207
-386.004	70.421	0.303	0.308
-384.990	-200.000	0.016	0.224
-383.975	-200.000	0.023	-0.136
-382.960	-43.716	-0.579	0.288
-381.946	-78.325	0.285	-0.097
-380.931	800.000	0.146	-0.477
-379.917	24.433	-0.295	-0.241
-378.902	333.574	-0.218	0.415
-377.888	-63.038	0.100	-0.041
-376.873	18.630	0.106	-0.084
-375.858	-20.463	0.034	0.021
-374.844	305.361	0.037	0.067
-373.829	-200.000	0.063	0.343
-372.815	-97.183	0.220	-0.057
-371.800	-133.023	-0.125	-0.016
-370.785	-101.093	-0.313	0.076
-369.771	-48.332	-0.259	0.123
-368.756	183.140	-0.080	0.116
-367.742	-200.000	0.030	-0.342
-366.727	-54.414	0.182	0.081
-365.712	-129.904	-0.033	0.004
-364.698	-65.719	0.219	-0.086
-363.683	-146.022	-0.308	0.027
-362.669	-74.750	-0.113	0.040
-361.654	-52.637	-0.315	0.143
-360.639	45.120	-0.112	0.102
-359.625	800.000	-0.068	-0.226
-358.610	-200.000	0.031	0.172
-357.596	95.556	-0.106	-0.119
-356.581	-200.000	-0.051	0.352
-355.566	213.696	-0.148	0.231
-354.552	-31.040	0.234	0.130
-353.537	104.667	0.052	0.060
-352.523	480.035	0.077	0.173
-351.508	-200.000	-0.023	0.272
-350.493	220.768	0.240	-0.379
-349.479	220.432	-0.117	-0.184
-348.464	800.000	0.037	0.133
-347.450	800.000	-0.082	-0.270
-346.435	-74.705	-0.229	0.081
-345.420	359.978	0.063	0.124
-344.406	93.878	-0.087	-0.097
-343.391	-143.160	-0.081	0.008
-342.377	1.897	-0.240	-0.170
-341.362	-200.000	-0.003	0.214
-340.348	-15.084	-0.156	0.098
-339.333	-67.559	-0.212	-0.082
-338.318	-15.033	-0.074	-0.047
-337.304	-166.363	0.341	-0.014
-336.289	52.863	0.069	-0.065
-335.275	-200.000	0.007	-0.076
-334.260	800.000	0.027	0.082
-333.245	104.831	-0.079	-0.091
-332.231	-137.815	-0.215	-0.024
-331.216	-2.520	-0.129	0.089
-330.202	49.164	0.254	-0.235
-329.187	-200.000	0.025	-0.186
-328.172	800.000	-0.086	-0.298
-327.158	48.391	0.173	0.159
-326.143	-39.228	0.408	0.211
-325.129	41.070	-0.345	0.306
-324.114	-200.000	0.015	0.148
-323.099	-200.000	-0.103	-0.468
-322.085	-200.000	-0.014	0.080
-321.070	-200.000	0.027	-0.127
-320.056	800.000	-0.012	-0.048
-319.041	-57.163	-0.330	-0.143
-318.026	-200.000	0.006	0.092
-317.012	-98.898	-0.280	0.070
-315.997	800.000	-0.111	0.376
-314.983	-200.000	-0.002	-0.110
-313.968	257.926	0.129	0.219
-312.953	143.401	-0.127	0.166
-311.939	250.995	0.265	-0.444
-310.924	43.279	0.127	-0.114
-309.910	-200.000	-0.039	-0.187
-308.895	-70.208	0.407	0.152
-307.880	100.809	0.210	-0.240
-306.866	-75.456	-0.491	0.172
-305.851	-200.000	0.019	-0.248
-304.837	-89.390	-0.074	-0.021
-303.822	-37.748	0.281	0.147
-302.807	-200.000	0.002	0.021
-301.793	-116.007	0.325	0.060
-300.778	800.000	-0.073	0.237
-299.764	-120.141	0.278	-0.047
-298.749	-5.206	-0.112	0.076
-297.735	18.151	-0.160	-0.125
-296.720	-64.004	0.470	-0.189
-295.705	339.713	-0.054	0.103
-294.691	474.525	0.129	-0.286
-293.676	-100.074	-0.265	-0.065
-292.662	-29.796	-0.310	0.174
-291.647	-11.454	-0.165	0.106
-290.632	119.530	0.032	0.038
-289.618	-17.209	0.254	-0.157
-288.603	153.107	-0.039	0.052
-287.589	228.969	0.106	-0.170
-286.574	159.510	-0.175	-0.240
-285.559	-200.000	-0.061	0.271
-284.545	94.577	-0.143	-0.160
-283.530	-70.017	-0.117	0.044
-282.516	60.956	0.114	-0.111
-281.501	-14.992	-0.516	-0.325
-280.486	94.030	0.093	0.103
-279.472	504.764	0.025	0.056
-278.457	800.000	0.037	-0.144
-277.443	-137.080	-0.170	0.019
-276.428	-97.876	-0.035	0.009
-275.413	172.251	0.090	0.127
-274.399	246.213	-0.143	-0.237
-273.384	20.549	-0.126	-0.100
-272.370	54.016	0.070	-0.066
-271.355	39.526	-0.122	0.107
-270.340	150.917	-0.112	-0.149
-269.326	341.293	-0.074	-0.143
-268.311	-161.071	0.259	0.013
-267.297	20.587	0.091	-0.072
-266.282	432.436	0.153	-0.326
-265.267	126.557	0.214	0.265
-264.253	-158.724	0.037	0.002
-263.238	800.000	-0.100	0.317
-262.224	-200.000	0.038	-0.187
-261.209	564.802	-0.113	0.269
-260.195	-169.928	-0.355	-0.012
-259.180	-47.400	0.031	-0.015
-258.165	-200.000	0.005	0.063
-257.151	659.161	0.066	0.167
-256.136	-61.015	-0.077	0.032
-255.122	353.712	-0.241	-0.469
-254.107	-133.620	-0.121	-0.015
-253.092	169.852	-0.255	0.358
-252.078	-145.130	0.283	0.025
-251.063	-132.656	-0.230	-0.029
-250.049	-86.684	-0.252	-0.076
-249.034	69.788	-0.166	0.168
-248.019	201.248	-0.067	-0.102
-247.005	-18.406	0.209	0.128
-245.990	-157.670	-0.226	-0.013
-244.976	-200.000	0.120	0.000
-243.961	570.579	0.032	-0.077
-242.946	-30.001	0.193	-0.108
-241.932	65.730	-0.118	0.117
-240.917	-130.483	0.486	0.064
-239.903	-113.353	0.163	-0.031
-238.888	-110.124	-0.497	-0.102
-237.873	-200.000	-0.049	-0.271
-236.859	-173.988	0.377	0.011
-235.844	800.000	-0.110	0.325
-234.830	-164.197	0.196	-0.009
-233.815	-53.073	-0.061	-0.028
-232.800	-55.284	0.050	-0.022
-231.786	-117.407	-0.317	-0.056
-230.771	-200.000	-0.062	0.272
-229.757	-74.226	0.249	0.088
-228.742	-170.259	-0.072	-0.002
-227.727	-136.990	-0.550	-0.062
-226.713	1.776	0.147	-0.103
-225.698	-130.760	0.214	0.028
-224.684	-200.000	0.005	0.067
-223.669	-200.000	-0.064	0.360
-222.655	800.000	-0.062	0.208
-221.640	91.084	0.163	0.179
-220.625	-200.000	-0.016	-0.162
-219.611	127.171	-0.007	-0.008
-218.596	51.838	-0.279	0.260
-217.582	-138.710	0.508	0.054
-216.567	-200.000	0.041	-0.196
-215.552	181.772	0.071	0.102
-214.538	-54.619	0.089	-0.040
-213.523	-200.000	0.020	-0.167
-212.509	-200.000	0.022	0.158
-211.494	674.913	-0.065	0.165
-210.479	-200.000	-0.002	0.067
-209.465	800.000	-0.059	-0.162
-208.450	275.281	-0.179	-0.311
-207.436	800.000	0.087	0.238
-206.421	-200.000	-0.022	0.165
-205.406	-200.000	0.075	0.332
-204.392	-81.169	-0.105	-0.034
-203.377	-98.154	0.210	-0.053
-202.363	-166.687	0.411	0.017
-201.348	83.463	-0.225	-0.240
-200.333	-59.613	0.210	-0.088
-199.319	-128.893	0.064	-0.009
-198.304	485.069	0.094	0.209
-197.290	-200.000	0.008	0.186
-196.275	-200.000	-0.038	-0.166
-195.260	32.130	0.112	0.095
-194.246	-187.216	0.026	0.000
-193.231	210.975	-0.210	-0.323
-192.217	-127.986	-0.234	-0.033
-191.202	-200.000	0.004	-0.242
-190.187	334.605	0.093	0.175
-189.173	-200.000	-0.003	0.292
-188.158	-35.639	0.049	-0.026
-187.144	-200.000	-0.044	0.219
-186.129	-47.147	0.047	-0.022
-185.114	800.000	0.130	-0.462
-184.100	-200.000	0.076	0.343
-183.085	204.061	0.146	-0.221
-182.071	113.000	-0.112	-0.133
-181.056	-126.893	-0.082	-0.012
-180.042	-67.221	0.256	-0.099
-179.027	-59.132	0.422	-0.178
-178.012	-200.000	-0.004	-0.174
-176.998	61.961	-0.088	-0.086
-175.983	0.237	-0.182	0.127
-174.969	356.733	0.086	-0.167
-173.954	73.985	0.324	0.332
-172.939	92.003	-0.265	0.291
-171.925	78.204	0.088	-0.091
-170.910	57.626	-0.090	-0.086
-169.896	-40.217	0.270	-0.137
-168.881	322.184	-0.081	-0.152
-167.866	-5.566	-0.194	-0.130
-166.852	-200.000	-0.012	-0.107
-165.837	217.811	-0.202	-0.315
-164.823	148.515	0.191	0.252
-163.808	800.000	0.046	0.159
-162.793	-78.016	-0.225	0.076
-161.779	-24.839	0.338	0.196
-160.764	-43.907	0.053	0.026
-159.750	-104.104	-0.193	0.044
-158.735	-200.000	-0.015	-0.072
-157.720	214.538	0.237	-0.366
-156.706	-200.000	0.040	-0.258
-155.691	-140.861	0.200	-0.020
-154.677	-200.000	-0.002	0.114
-153.662	51.360	-0.102	0.095
-152.647	-109.133	0.387	0.081
-151.633	486.220	-0.090	0.200
-150.618	-43.253	0.133	0.066
-149.604	-161.922	-0.263	-0.013
-148.589	-200.000	-0.017	-0.159
-147.574	447.187	0.131	0.281
-146.560	214.287	-0.137	-0.212
-145.545	178.175	-0.298	-0.425
-144.531	-200.000	-0.035	-0.161
-143.516	299.969	-0.140	-0.252
-142.502	289.715	-0.211	0.374
-141.487	-200.000	-0.041	0.218
-140.472	-200.000	0.012	-0.225
-139.458	-200.000	0.008	0.047
-138.443	146.295	-0.142	0.186
-137.429	81.665	-0.079	0.084
-136.414	-164.177	0.284	-0.013
-135.399	544.685	0.100	-0.232
-134.385	169.592	0.118	0.165
-133.370	-60.158	0.183	-0.076
-132.356	80.086	-0.220	0.231
-131.341	-48.988	-0.134	-0.063
-130.326	211.141	-0.105	-0.161
-129.312	-200.000	0.029	-0.223
-128.297	15.742	-0.181	-0.139
-127.283	-53.490	0.169	0.075
-126.268	75.624	-0.124	0.128
-125.253	391.631	0.117	0.237
-124.239	64.722	0.322	-0.317
-123.224	-71.787	-0.060	0.022
-122.210	-153.893	-0.267	0.018
-121.195	13.218	-0.137	-0.104
-120.180	-121.586	-0.658	-0.106
-119.166	-134.808	0.104	0.012
-118.151	-79.049	-0.189	0.063
-117.137	-200.000	0.038	-0.165
-116.122	135.644	-0.127	-0.161
-115.107	-93.713	0.433	-0.117
-114.093	-115.173	0.342	-0.063
-113.078	800.000	0.038	-0.146
-112.064	-0.807	0.158	0.109
-111.049	75.261	-0.281	0.289
-110.034	105.930	-0.059	0.068
-109.020	11.643	0.091	-0.068
-108.005	-36.902	0.025	0.013
-106.991	-8.868	-0.253	-0.165
-105.976	-40.325	-0.256	0.130
-104.962	-96.448	0.156	0.040
-103.947	106.860	-0.197	0.228
-102.932	-92.709	0.089	0.024
-101.918	-200.000	-0.028	0.233
-100.903	756.222	0.138	-0.363
-99.889	419.451	0.122	-0.255
-98.874	-200.000	-0.062	-0.321
-97.859	-200.000	-0.011	0.092
-96.845	64.250	-0.053	0.052
-95.830	-140.982	-0.143	-0.014
-94.816	-139.657	-0.218	-0.023
-93.801	-200.000	-0.008	-0.306
-92.786	293.477	0.182	0.324
-91.772	380.059	0.245	-0.489
-90.757	-200.000	0.006	-0.144
-89.743	-4.383	-0.061	-0.041
-88.728	800.000	-0.038	0.159
-87.713	-177.408	0.211	-0.005
-86.699	-82.196	0.107	0.034
-85.684	-128.376	0.255	-0.035
-84.670	0.302	-0.307	-0.214
-83.655	-49.941	0.091	-0.042
-82.640	-42.538	-0.281	-0.140
-81.626	-36.955	0.253	0.132
-80.611	292.301	0.077	-0.137
-79.597	22.116	0.126	0.100
-78.582	-71.903	0.377	0.137
-77.567	800.000	0.074	-0.222
-76.553	197.250	0.153	0.227
-75.538	-83.714	-0.154	-0.048
-74.524	60.799	-0.075	-0.072
-73.509	-77.544	0.274	0.093
-72.494	-200.000	0.003	-0.025
-71.480	-43.962	0.428	0.210
-70.465	800.000	0.043	0.146
-69.451	1.829	0.135	0.095
-68.436	-17.809	0.116	-0.071
-67.422	800.000	0.081	0.253
-66.407	800.000	-0.117	-0.417
-65.392	-35.206	-0.206	0.109
-64.378	-200.000	-0.003	-0.379
-63.363	800.000	0.096	0.290
-62.349	37.718	-0.154	0.133
-61.334	-36.280	-1.510	-0.793
-60.319	-0.137	1.002	0.694
-59.305	800.000	-0.368	-1.402
-58.290	426.040	0.611	1.281
-57.276	546.307	0.691	1.609
-56.261	-200.000	133.926	668.973
-55.246	330.153	1680.798	3148.945
-54.232	131.584	2825.822	3536.101
-53.217	87.399	2214.118	2384.030
-52.203	31.303	1724.478	1440.853
-51.188	24.014	1544.489	1239.849
-50.173	22.200	1522.143	1209.393
-49.159	46.525	1599.314	1443.947
-48.144	43.373	1609.338	1430.649
-47.130	24.145	1556.243	1250.001
-46.115	21.286	1539.837	1216.892
-45.100	21.083	1536.345	1212.673
-44.086	21.055	1534.767	1211.184
-43.071	20.993	1532.936	1209.264
-42.057	21.000	1531.220	1207.910
-41.042	21.051	1529.769	1207.070
-40.027	20.964	1527.522	1204.646
-39.013	20.999	1526.162	1203.773
-37.998	20.938	1525.399	1202.699
-36.984	20.981	1524.253	1202.043
-35.969	20.913	1523.508	1200.939
-34.954	21.004	1521.696	1200.090
-33.940	20.946	1520.648	1198.822
-32.925	20.911	1519.246	1197.423
-31.911	21.016	1517.579	1196.788
-30.896	21.093	1515.793	1195.855
-29.881	21.099	1514.937	1195.176
-28.867	21.063	1513.750	1193.945
-27.852	21.057	1512.045	1192.510
-26.838	20.993	1511.132	1191.305
-25.823	21.054	1509.142	1190.104
-24.809	21.164	1507.125	1189.219
-23.794	21.104	1506.293	1188.106
-22.779	21.029	1505.611	1187.007
-21.765	20.979	1504.451	1185.707
-20.750	21.085	1503.049	1185.280
-19.736	21.057	1502.054	1184.252
-18.721	21.085	1500.877	1183.468
-17.706	20.997	1499.732	1181.925
-16.692	21.116	1498.530	1181.738
-15.677	21.032	1497.880	1180.607
-14.663	20.976	1496.694	1179.248
-13.648	21.105	1495.314	1178.985
-12.633	20.931	1494.857	1177.401
-11.619	21.080	1494.127	1177.788
-10.604	21.039	1492.900	1176.497
-9.590	21.002	1492.142	1175.599
-8.575	20.897	1491.681	1174.486
-7.560	20.995	1490.293	1174.002
-6.546	20.997	1489.395	1173.265
-5.531	21.023	1488.385	1172.597
-4.517	20.948	1487.423	1171.288
-3.502	20.957	1486.330	1170.439
-2.487	20.953	1485.580	1169.779
-1.473	20.964	1484.533	1168.982
-0.458	20.934	1483.304	1167.768
0.556	19.959	1473.676	1157.796
1.571	17.198	1449.810	1120.760
2.586	14.230	1387.897	1054.031
3.600	12.933	1302.281	981.212
4.615	11.804	1259.102	942.100
5.629	10.515	1201.517	891.845
6.644	5.347	1119.712	804.507
7.659	1.279	1084.132	758.574
8.673	0.738	1079.078	752.276
9.688	0.542	1075.888	749.014
10.702	0.536	1074.288	747.807
11.717	0.524	1071.747	745.912
12.731	2.263	1072.754	755.141
13.746	7.856	1080.381	788.207
14.761	13.915	1088.445	824.176
15.775	16.842	1091.251	840.769
16.790	16.867	1090.098	839.930
17.804	15.775	1088.453	833.180
18.819	14.971	1086.598	827.712
19.834	14.580	1085.117	824.578
20.848	14.295	1084.257	822.444
21.863	14.093	1083.423	820.742
22.877	13.915	1082.080	818.771
23.892	13.574	1081.607	816.661
24.907	13.518	1080.867	815.757
25.921	13.530	1079.850	814.978
26.936	13.552	1079.305	814.603
27.950	13.447	1079.168	813.908
28.965	13.550	1078.287	813.678
29.980	13.620	1077.104	813.058
30.994	13.611	1075.991	812.099
32.009	13.677	1075.273	811.809
33.023	13.748	1074.522	811.520
34.038	13.807	1073.474	810.946
35.053	13.753	1072.675	810.004
36.067	13.584	1071.741	808.404
37.082	13.746	1070.682	808.323
38.096	13.630	1069.954	807.136
39.111	13.791	1069.200	807.280
40.126	13.768	1068.451	806.529
41.140	13.654	1067.154	804.926
42.155	13.632	1066.088	803.943
43.169	13.582	1065.898	803.490
44.184	13.566	1064.321	802.151
45.199	13.638	1063.089	801.498
46.213	13.487	1062.181	800.016
47.228	13.542	1061.189	799.460
48.242	13.690	1059.926	799.153
49.257	13.603	1059.311	798.197
50.271	13.667	1057.729	797.242
51.286	13.658	1056.852	796.470
52.301	13.652	1056.332	795.979
53.315	13.639	1055.479	795.205
54.330	13.777	1054.543	795.090
55.344	13.713	1053.781	794.136
56.359	13.669	1052.718	793.057
57.374	13.619	1051.455	791.795
58.388	13.545	1051.051	791.070
59.403	13.434	1050.425	789.997
60.417	13.520	1049.351	789.530
61.432	13.605	1048.570	789.279
62.447	13.688	1047.727	788.969
63.461	13.555	1046.841	787.600
64.476	13.436	1046.513	786.715
65.490	13.424	1045.529	785.849
66.505	13.432	1044.722	785.210
67.520	13.650	1043.436	785.210
68.534	13.595	1043.138	784.652
69.549	13.627	1042.374	784.161
70.563	13.574	1041.481	783.171
71.578	13.683	1040.576	782.933
72.593	13.510	1039.998	781.615
73.607	13.475	1038.859	780.522
74.622	13.459	1037.933	779.685
75.636	13.462	1037.164	779.053
76.651	13.524	1036.419	778.712
77.666	13.516	1035.607	777.997
78.680	13.422	1034.893	776.951
79.695	13.444	1034.538	776.719
80.709	13.509	1033.564	776.225
81.724	13.592	1032.459	775.712
82.739	13.630	1031.739	775.282
83.753	13.560	1031.193	774.475
84.768	13.643	1029.976	773.880
85.782	13.706	1029.579	773.808
86.797	13.774	1028.801	773.473
87.812	13.707	1027.961	772.460
88.826	13.712	1026.988	771.682
89.841	13.728	1025.858	770.839
90.855	13.712	1024.892	769.972
91.870	13.746	1024.562	769.812
92.884	13.742	1023.941	769.259
93.899	13.774	1023.072	768.688
94.914	13.793	1022.457	768.245
95.928	13.690	1021.745	767.164
96.943	13.740	1021.280	766.980
97.957	13.826	1020.090	766.417
98.972	13.742	1019.297	765.364
99.987	13.680	1018.968	764.764
101.001	13.713	1017.844	764.006
102.016	13.837	1016.987	763.867
103.030	13.682	1016.253	762.532
104.045	13.817	1015.169	762.272
105.060	13.806	1013.968	761.251
106.074	13.660	1013.173	759.920
107.089	13.690	1012.664	759.608
108.103	13.638	1011.843	758.689
109.118	13.551	1010.706	757.369
110.133	13.659	1010.052	757.305
111.147	13.645	1008.869	756.287
112.162	13.513	1008.529	755.364
113.176	13.654	1007.517	755.180
114.191	13.647	1006.600	754.394
115.206	13.679	1005.653	753.764
116.220	13.874	1004.572	753.775
117.235	13.653	1003.982	752.262
118.249	13.707	1003.115	751.789
119.264	13.742	1002.177	751.178
120.279	13.628	1001.560	750.135
121.293	13.682	1000.406	749.446
122.308	13.599	999.733	748.503
123.322	13.645	998.594	747.792
124.337	13.705	997.526	747.195
125.352	13.657	996.306	745.999
126.366	13.595	995.548	745.086
127.381	13.750	994.196	744.704
128.395	13.672	993.426	743.711
129.410	13.655	992.139	742.605
130.424	13.638	991.831	742.233
131.439	13.626	990.838	741.373
132.454	13.626	990.172	740.809
133.468	13.654	988.979	739.973
134.483	13.794	988.294	740.023
135.497	13.652	988.038	739.133
136.512	13.765	986.865	738.694
137.527	13.677	986.190	737.732
138.541	13.736	985.129	737.131
139.556	13.725	984.617	736.636
140.570	13.719	984.031	736.105
141.585	13.794	983.316	735.838
142.600	13.855	982.083	735.121
143.614	13.790	981.476	734.314
144.629	13.752	980.997	733.722
145.643	13.807	980.110	733.236
146.658	13.933	978.915	732.835
147.673	13.925	978.051	732.085
148.687	13.919	976.737	731.013
149.702	13.732	976.778	730.153
150.716	13.700	975.834	729.243
151.731	13.741	974.796	728.585
152.746	13.910	973.391	728.209
153.760	13.809	973.320	727.649
154.775	13.879	972.197	727.051
155.789	13.946	971.302	726.612
156.804	13.954	970.526	726.001
157.819	13.937	969.803	725.322
158.833	13.857	969.586	724.746
159.848	14.026	968.515	724.620
160.862	14.055	968.137	724.398
161.877	13.888	967.348	723.019
162.892	13.903	966.286	722.224
163.906	13.929	965.516	721.700
164.921	13.895	964.766	720.927
165.935	13.967	963.303	720.082
166.950	14.054	962.273	719.624
167.964	14.039	961.379	718.829
168.979	14.088	960.552	718.358
169.994	14.050	959.497	717.343
171.008	14.021	958.285	716.244
172.023	14.052	957.665	715.855
173.037	14.065	957.509	715.727
174.052	14.243	956.151	715.414
175.067	14.149	955.725	714.631
176.081	14.048	954.932	713.539
177.096	14.163	953.992	713.267
178.110	14.127	953.466	712.658
179.125	14.157	952.382	711.914
180.140	14.050	951.817	710.967
181.154	14.085	950.971	710.425
182.169	14.255	950.227	710.530
183.183	14.315	949.841	710.437
184.198	14.202	948.726	709.058
185.213	14.352	948.060	709.137
186.227	14.168	947.642	707.975
187.242	14.289	947.239	708.128
188.256	14.286	946.209	707.281
189.271	14.403	945.992	707.553
190.286	14.313	945.033	706.391
191.300	14.282	944.437	705.752
192.315	14.260	943.472	704.875
193.329	14.174	942.876	704.003
194.344	14.127	942.029	703.113
195.359	14.238	941.550	703.159
196.373	14.286	940.775	702.722
197.388	14.343	940.103	702.399
198.402	14.321	939.889	702.086
199.417	14.376	939.840	702.217
200.432	14.511	939.028	702.114
201.446	14.493	938.564	701.631
202.461	14.454	937.983	700.970
203.475	14.558	937.134	700.711
204.490	14.638	936.476	700.493
205.504	14.492	935.948	699.425
206.519	14.486	934.998	698.628
207.534	14.600	933.942	698.253
208.548	14.639	933.194	697.797
209.563	14.617	932.700	697.272
210.577	14.592	931.878	696.492
211.592	14.613	931.558	696.278
212.607	14.533	931.180	695.599
213.621	14.672	930.506	695.617
214.636	14.613	929.721	694.720
215.650	14.679	929.061	694.440
216.665	14.643	928.573	693.863
217.680	14.702	927.850	693.510
218.694	14.746	927.593	693.439
219.709	14.806	926.627	692.903
220.723	14.698	926.248	692.111
221.738	14.707	925.735	691.704
222.753	14.791	924.745	691.249
223.767	14.670	924.161	690.252
224.782	14.776	923.421	690.078
225.796	14.832	922.502	689.559
226.811	14.862	921.755	689.064
227.826	14.894	920.992	688.562
228.840	14.781	920.611	687.753
229.855	14.917	919.441	687.379
230.869	14.785	919.317	686.683
231.884	14.857	918.795	686.527
232.899	14.903	917.869	685.964
233.913	15.001	916.711	685.439
234.928	14.788	916.108	684.056
235.942	14.866	915.768	684.058
236.957	14.900	914.779	683.398
237.972	14.812	914.107	682.477
238.986	14.903	913.739	682.512
240.001	14.890	913.002	681.849
241.015	15.003	912.197	681.649
242.030	15.019	911.353	681.021
243.045	14.932	910.586	680.037
244.059	14.995	910.283	680.004
245.074	15.079	909.596	679.773
246.088	15.011	908.731	678.790
247.103	14.982	908.732	678.615
248.117	15.061	907.654	678.070
249.132	15.092	907.334	677.895
250.147	15.016	907.044	677.309
251.161	15.270	905.667	677.250
252.176	15.253	905.069	676.674
253.190	15.307	904.424	676.350
254.205	15.248	904.064	675.781
255.220	15.309	903.460	675.518
256.234	15.345	902.506	674.890
257.249	15.453	901.724	674.677
258.263	15.481	901.176	674.322
259.278	15.341	900.543	673.223
260.293	15.398	900.127	673.081
261.307	15.506	899.256	672.806
262.322	15.551	898.914	672.670
263.336	15.495	898.059	671.746
264.351	15.697	897.487	672.068
265.366	15.394	897.145	670.542
266.380	15.575	896.359	670.617
267.395	15.621	895.854	670.362
268.409	15.568	894.911	669.386
269.424	15.686	893.971	669.092
270.439	15.664	893.695	668.739
271.453	15.715	892.229	667.788
272.468	15.700	891.588	667.189
273.482	15.527	891.306	666.232
274.497	15.596	890.543	665.875
275.512	15.661	889.581	665.354
276.526	15.564	889.109	664.559
277.541	15.698	888.331	664.448
278.555	15.755	887.793	664.211
279.570	15.589	887.137	663.006
280.585	15.626	886.844	662.876
281.599	15.808	886.085	662.966
282.614	15.770	885.631	662.419
283.628	15.837	885.071	662.206
284.643	15.846	884.352	661.644
285.657	15.691	883.898	660.639
286.672	15.810	883.474	660.728
287.687	15.746	883.127	660.161
288.701	15.883	882.133	659.895
289.716	15.887	881.652	659.494
290.730	15.954	880.909	659.142
291.745	15.917	880.143	658.367
292.760	15.916	879.531	657.847
293.774	16.021	878.961	657.772
294.789	16.029	878.195	657.170
295.803	16.032	877.594	656.673
296.818	15.951	877.412	656.166
297.833	15.913	876.520	655.291
298.847	16.116	875.397	655.182
299.862	15.967	875.447	654.582
300.876	16.102	874.322	654.207
301.891	16.142	873.325	653.558
302.906	16.109	873.040	653.159
303.920	16.072	872.120	652.270
304.935	16.194	871.553	652.263
305.949	16.211	870.977	651.840
306.964	16.247	870.407	651.492
307.979	16.158	870.074	650.842
308.993	16.138	869.918	650.592
310.008	16.154	869.228	650.081
311.022	16.222	868.373	649.645
312.037	16.360	867.727	649.634
313.052	16.252	867.527	649.013
314.066	16.210	866.539	648.054
315.081	16.297	865.955	647.892
316.095	16.085	865.853	646.948
317.110	16.516	864.297	647.378
318.125	16.387	864.245	646.789
319.139	16.240	863.947	645.945
320.154	16.221	862.940	645.062
321.168	16.269	862.748	645.046
322.183	16.443	862.009	645.097
323.197	16.425	861.636	644.694
324.212	16.422	860.949	644.113
325.227	16.396	860.639	643.724
326.241	16.525	859.362	643.201
327.256	16.399	859.383	642.683
328.270	16.358	859.035	642.210
329.285	16.484	857.899	641.781
330.300	16.400	857.426	641.053
331.314	16.398	857.210	640.825
332.329	16.481	856.506	640.558
333.343	16.492	855.759	639.984
334.358	16.487	855.428	639.661
335.373	16.493	854.761	639.128
336.387	16.482	854.112	638.546
337.402	16.501	853.425	638.045
338.416	16.485	852.883	637.525
339.431	16.650	852.505	637.807
340.446	16.691	851.742	637.333
341.460	16.772	851.235	637.201
342.475	16.759	850.509	636.554
343.489	16.740	850.173	636.174
344.504	16.607	850.086	635.556
345.519	16.705	849.059	635.097
346.533	16.803	848.558	635.033
347.548	16.818	848.214	634.776
348.562	16.864	847.769	634.561
349.577	16.767	846.987	633.554
350.592	16.791	846.678	633.357
351.606	16.697	846.315	632.679
352.621	16.787	845.484	632.336
353.635	16.935	844.653	632.213
354.650	16.854	844.678	631.874
355.665	16.836	844.185	631.381
356.679	16.845	844.012	631.228
357.694	16.727	843.215	630.138
358.708	16.905	842.768	630.411
359.723	17.001	841.974	630.119
360.738	16.953	841.516	629.540
361.752	16.982	841.238	629.384
362.767	17.173	840.428	629.431
363.781	16.960	840.143	628.372
364.796	17.007	839.937	628.337
365.810	17.053	839.088	627.816
366.825	17.061	838.690	627.493
367.840	17.096	838.856	627.692
368.854	17.021	838.109	626.798
369.869	16.975	837.511	626.126
370.883	17.088	836.856	625.999
371.898	17.188	836.329	625.916
372.913	17.286	835.716	625.763
373.927	17.189	835.113	624.899
374.942	17.153	834.681	624.388
375.956	17.213	833.795	623.892
376.971	17.318	832.794	623.471
377.986	17.276	832.590	623.111
379.000	17.435	831.985	623.185
380.015	17.363	831.782	622.716
381.029	17.309	831.413	622.186
382.044	17.429	830.566	621.935
383.059	17.294	829.910	620.897
384.073	17.418	829.458	620.956
385.088	17.473	829.249	620.946
386.102	17.416	828.276	619.954
387.117	17.407	827.612	619.369
388.132	17.357	827.712	619.205
389.146	17.468	826.798	618.872
390.161	17.401	826.921	618.665
391.175	17.529	826.232	618.561
392.190	17.549	825.849	618.292
393.205	17.526	825.253	617.708
394.219	17.446	825.067	617.224
395.234	17.686	824.096	617.311
396.248	17.576	823.531	616.435
397.263	17.361	823.712	615.736
398.278	17.427	823.015	615.400
399.292	17.419	822.532	614.956
400.307	17.634	821.667	615.031
401.321	17.576	821.292	614.488
402.336	17.534	821.149	614.176
403.350	17.622	820.809	614.182
404.365	17.626	820.325	613.782
405.380	17.582	819.639	613.054
406.394	17.593	819.586	613.002
407.409	17.611	818.936	612.525
408.423	17.785	818.641	612.877
409.438	17.796	817.718	612.169
410.453	17.880	817.438	612.207
411.467	17.779	817.223	611.630
412.482	17.921	816.465	611.518
413.496	17.989	816.042	611.391
414.511	17.817	815.785	610.529
415.526	17.879	815.328	610.353
416.540	18.005	814.745	610.313
417.555	17.948	814.555	609.911
418.569	18.006	813.906	609.578
419.584	17.812	813.479	608.513
420.599	17.878	813.130	608.433
421.613	114.859	1300.134	1489.661
422.628	99.437	1371.019	1489.752
