DTS Sentinel unit serial number:	SN413079Multiplexer serial number:	ORYXHardware model number:	OX4-SRSoftware version number:	ORYX F/W v4.00 Oryx Data Collector v3.7.2.0data status	okinstallation	princeton_trtdifferential loss correction	single-endedforward channel	channel 3reverse channel	N/Adate	2019/09/18time	02:48:35forward acquisition time	60.00reverse acquisition time	0.00gamma	496.2192k internal	0.2344k external	0.2344temperature offset calibration	0.9950default loss term (dB/km)	0.3790temperature slope calibration	1.0000multiplexer offset coefficient	1.0000multiplexer slope coefficient	1.0000fibre end	0.00T internal ref (°C)	22.77T ext. ref 1 (°C)	0.17T ext. ref 2 (°C)	16.60length (m)	temperature (°C)	Stokes	anti-Stokes-747.200	-200.000	0.010	-0.128
-746.185	-120.476	0.167	0.028
-745.171	476.686	-0.127	0.286
-744.156	-200.000	-0.045	0.428
-743.142	88.424	-0.154	0.171
-742.127	-3.559	-0.206	0.143
-741.112	-200.000	-0.025	0.275
-740.098	800.000	0.036	0.110
-739.083	-25.637	0.154	-0.091
-738.069	800.000	-0.040	0.154
-737.054	800.000	0.074	-0.242
-736.039	504.373	-0.032	-0.074
-735.025	318.446	0.130	0.245
-734.010	800.000	-0.042	-0.125
-732.996	-182.135	0.024	0.000
-731.981	232.800	0.174	0.286
-730.966	-200.000	0.009	0.336
-729.952	274.591	-0.105	0.185
-728.937	610.257	-0.037	-0.094
-727.923	800.000	-0.087	-0.377
-726.908	710.557	-0.041	-0.108
-725.894	302.852	-0.213	0.394
-724.879	24.535	0.214	-0.177
-723.864	25.890	0.305	-0.254
-722.850	-200.000	0.019	-0.342
-721.835	-200.000	0.053	0.243
-720.821	7.033	-0.061	-0.046
-719.806	-77.636	-0.165	0.057
-718.791	152.193	-0.138	0.188
-717.777	209.263	-0.112	0.175
-716.762	-200.000	-0.049	0.227
-715.748	-73.746	0.449	-0.163
-714.733	282.431	-0.107	0.193
-713.718	-200.000	-0.017	-0.242
-712.704	139.251	-0.211	-0.278
-711.689	206.935	0.221	0.345
-710.675	-66.787	-0.222	-0.088
-709.660	800.000	0.095	-0.324
-708.645	-82.795	0.218	0.070
-707.631	166.229	0.080	0.113
-706.616	162.733	-0.098	-0.137
-705.602	-65.362	-0.203	-0.082
-704.587	-1.349	0.211	-0.149
-703.572	-200.000	-0.041	0.330
-702.558	414.290	0.124	0.263
-701.543	-51.358	0.174	0.081
-700.529	-200.000	-0.008	0.110
-699.514	-12.311	-0.192	-0.125
-698.499	358.207	0.056	-0.111
-697.485	123.412	0.118	-0.148
-696.470	-61.124	0.169	-0.071
-695.456	800.000	0.082	-0.257
-694.441	70.842	-0.249	-0.257
-693.426	-56.385	0.087	-0.038
-692.412	-118.605	-0.138	0.024
-691.397	800.000	-0.046	0.152
-690.383	7.653	-0.109	0.081
-689.368	-66.166	0.168	0.067
-688.354	521.082	-0.105	-0.245
-687.339	123.622	-0.073	0.091
-686.324	800.000	-0.057	0.237
-685.310	-177.124	-0.131	-0.003
-684.295	-58.721	-0.162	0.070
-683.281	-127.605	-0.041	-0.006
-682.266	-200.000	0.005	-0.078
-681.251	-111.519	0.233	-0.047
-680.237	-25.909	0.225	0.132
-679.222	-79.518	-0.021	-0.007
-678.208	-110.593	-0.267	-0.055
-677.193	-37.258	0.079	-0.042
-676.178	42.330	0.038	-0.034
-675.164	-43.644	-0.356	-0.179
-674.149	179.730	-0.141	0.206
-673.135	593.807	0.014	-0.035
-672.120	-168.504	-0.140	-0.005
-671.105	-51.252	0.262	0.122
-670.091	800.000	0.061	-0.172
-669.076	584.091	-0.025	0.062
-668.062	-16.603	-0.080	0.050
-667.047	641.065	0.057	0.144
-666.032	261.254	0.045	-0.078
-665.018	-17.817	-0.171	-0.107
-664.003	-50.816	-0.102	0.048
-662.989	-140.473	-0.106	-0.011
-661.974	56.630	0.099	-0.096
-660.959	800.000	-0.136	0.378
-659.945	-121.146	-0.042	0.007
-658.930	-149.638	0.234	-0.018
-657.916	626.247	-0.189	0.476
-656.901	-70.266	0.216	0.082
-655.886	176.669	0.016	-0.023
-654.872	-200.000	0.004	0.199
-653.857	-54.322	0.169	-0.077
-652.843	179.854	-0.161	0.235
-651.828	-200.000	-0.048	0.290
-650.814	26.413	-0.061	-0.051
-649.799	-200.000	0.030	-0.182
-648.784	366.990	-0.176	-0.354
-647.770	153.622	-0.063	0.086
-646.755	-122.281	-0.265	-0.043
-645.741	143.370	0.182	0.242
-644.726	-98.422	0.256	-0.065
-643.711	144.037	0.116	0.155
-642.697	-27.578	-0.156	0.090
-641.682	791.291	0.043	0.118
-640.668	19.965	0.359	-0.289
-639.653	-144.675	-0.333	0.031
-638.638	65.531	-0.129	-0.130
-637.624	-200.000	-0.024	0.170
-636.609	-200.000	0.046	-0.439
-635.595	23.948	-0.238	0.196
-634.580	800.000	-0.045	0.186
-633.565	-200.000	-0.040	0.301
-632.551	681.078	-0.050	-0.131
-631.536	28.760	0.057	-0.048
-630.522	-200.000	0.012	0.323
-629.507	372.276	0.094	-0.190
-628.492	800.000	0.072	-0.305
-627.478	37.961	0.036	0.032
-626.463	161.277	-0.074	0.104
-625.449	-200.000	0.010	0.189
-624.434	498.211	0.030	-0.069
-623.419	-200.000	-0.011	0.130
-622.405	-18.911	-0.112	0.069
-621.390	-62.390	0.242	0.100
-620.376	451.514	-0.081	-0.179
-619.361	186.856	0.213	-0.315
-618.346	753.666	-0.117	-0.316
-617.332	-100.640	0.270	-0.066
-616.317	-200.000	0.010	0.048
-615.303	41.830	0.097	-0.087
-614.288	8.761	-0.104	-0.078
-613.273	-120.417	-0.244	-0.041
-612.259	-200.000	0.075	-0.472
-611.244	-7.940	-0.329	-0.221
-610.230	39.509	0.147	-0.131
-609.215	116.756	-0.146	-0.179
-608.201	-2.408	-0.103	-0.072
-607.186	-77.713	-0.205	0.071
-606.171	-98.206	-0.214	0.055
-605.157	800.000	-0.021	0.076
-604.142	-57.292	0.383	-0.168
-603.128	-103.084	-0.347	-0.082
-602.113	47.604	0.264	0.245
-601.098	123.291	-0.140	-0.175
-600.084	353.516	-0.098	0.193
-599.069	-47.593	-0.156	0.075
-598.055	800.000	0.076	0.275
-597.040	229.225	0.075	0.122
-596.025	-200.000	0.057	0.342
-595.011	79.787	0.079	-0.084
-593.996	54.870	-0.057	-0.055
-592.982	-82.773	-0.044	0.014
-591.967	115.112	0.058	-0.070
-590.952	-127.141	-0.146	-0.021
-589.938	106.173	0.180	-0.212
-588.923	-163.710	-0.238	-0.011
-587.909	19.569	-0.062	-0.049
-586.894	387.612	0.155	0.318
-585.879	-59.674	0.058	0.025
-584.865	737.202	-0.038	-0.101
-583.850	-200.000	-0.005	-0.054
-582.836	-136.028	-0.105	0.012
-581.821	-93.491	-0.113	-0.031
-580.806	62.698	0.169	0.168
-579.792	42.347	-0.153	0.138
-578.777	84.288	-0.256	0.279
-577.763	-100.376	0.361	-0.089
-576.748	-20.178	-0.315	0.193
-575.733	-200.000	0.044	-0.341
-574.719	-5.669	0.211	-0.144
-573.704	209.869	-0.117	-0.182
-572.690	-102.524	-0.092	0.022
-571.675	-53.402	-0.146	0.067
-570.661	5.589	-0.256	-0.188
-569.646	800.000	0.082	-0.311
-568.631	-94.774	-0.466	-0.126
-567.617	-67.708	0.247	0.096
-566.602	-46.600	0.211	0.103
-565.588	-200.000	0.011	-0.311
-564.573	-9.467	0.282	0.187
-563.558	-40.174	-0.236	-0.122
-562.544	380.195	0.028	-0.057
-561.529	-120.265	0.314	0.053
-560.515	502.117	-0.028	-0.065
-559.500	-71.559	-0.163	-0.061
-558.485	466.479	0.093	0.208
-557.471	-0.126	-0.298	-0.211
-556.456	-21.541	-0.242	0.146
-555.442	-127.138	0.111	-0.016
-554.427	24.304	0.259	0.213
-553.412	18.091	0.043	-0.034
-552.398	53.174	0.178	0.169
-551.383	-200.000	0.005	0.176
-550.369	-200.000	-0.009	0.069
-549.354	800.000	-0.070	-0.289
-548.339	-200.000	0.005	0.151
-547.325	-186.657	-0.529	0.007
-546.310	-144.588	0.401	-0.037
-545.296	28.331	-0.043	-0.036
-544.281	-200.000	-0.004	-0.034
-543.266	-117.196	0.113	-0.020
-542.252	-200.000	0.021	-0.314
-541.237	194.901	-0.197	-0.297
-540.223	800.000	0.035	-0.102
-539.208	-21.703	-0.191	-0.115
-538.193	-200.000	0.028	0.188
-537.179	-19.704	0.310	-0.191
-536.164	-67.961	0.198	-0.077
-535.150	176.817	0.253	0.366
-534.135	-10.612	0.398	-0.261
-533.121	108.785	0.195	-0.232
-532.106	-200.000	-0.025	-0.225
-531.091	-200.000	-0.022	-0.130
-530.077	-200.000	0.054	-0.267
-529.062	-200.000	-0.012	-0.052
-528.048	800.000	-0.232	0.653
-527.033	-14.930	0.190	0.121
-526.018	800.000	-0.072	-0.260
-525.004	-195.896	0.209	-0.001
-523.989	357.796	0.171	0.338
-522.975	-34.945	-0.346	0.187
-521.960	-200.000	0.008	-0.504
-520.945	217.236	0.107	0.169
-519.931	19.852	-0.113	-0.090
-518.916	-64.958	-0.282	-0.113
-517.902	-200.000	-0.008	0.415
-516.887	-40.962	-0.253	-0.130
-515.872	9.797	-0.055	0.042
-514.858	81.958	0.196	0.210
-513.843	203.663	0.107	-0.164
-512.829	187.444	0.206	-0.305
-511.814	-200.000	0.081	-0.359
-510.799	800.000	-0.025	0.077
-509.785	167.677	0.238	0.335
-508.770	800.000	0.090	-0.284
-507.756	-41.621	0.245	-0.125
-506.741	247.909	0.088	0.147
-505.726	201.109	0.150	-0.230
-504.712	800.000	-0.045	0.188
-503.697	800.000	-0.053	-0.181
-502.683	-133.136	-0.046	0.006
-501.668	-55.122	0.259	-0.116
-500.653	22.513	0.110	-0.090
-499.639	171.064	-0.107	0.152
-498.624	270.403	-0.059	0.103
-497.610	264.305	-0.120	-0.207
-496.595	64.298	-0.165	-0.165
-495.581	-122.859	0.079	-0.013
-494.566	-200.000	-0.026	0.248
-493.551	-105.943	-0.184	-0.041
-492.537	-27.105	-0.171	-0.099
-491.522	-200.000	-0.068	0.393
-490.508	122.819	0.221	0.275
-489.493	15.870	0.219	-0.171
-488.478	-167.137	-0.103	-0.004
-487.464	92.412	-0.168	-0.187
-486.449	-65.200	-0.283	0.113
-485.435	-0.287	0.399	0.281
-484.420	-18.069	-0.222	0.137
-483.405	140.123	0.042	-0.055
-482.391	755.910	0.081	0.218
-481.376	-105.328	0.101	-0.023
-480.362	800.000	-0.118	-0.334
-479.347	-4.684	0.264	-0.180
-478.332	107.709	-0.073	-0.087
-477.318	561.750	-0.083	0.199
-476.303	123.165	-0.121	0.151
-475.289	130.160	0.130	-0.165
-474.274	241.707	0.038	0.063
-473.259	107.779	0.142	0.167
-472.245	-32.596	0.158	0.087
-471.230	-200.000	-0.021	-0.141
-470.216	586.975	0.084	0.205
-469.201	136.938	0.185	0.240
-468.186	241.050	-0.074	-0.122
-467.172	519.106	-0.093	-0.216
-466.157	418.131	0.209	-0.442
-465.143	-21.088	-0.154	0.093
-464.128	639.520	-0.083	0.208
-463.113	242.841	0.187	0.310
-462.099	291.554	-0.029	-0.053
-461.084	-200.000	-0.074	0.410
-460.070	170.934	-0.234	0.333
-459.055	78.714	-0.047	-0.050
-458.040	53.649	-0.122	0.116
-457.026	77.611	0.081	-0.086
-456.011	-69.470	-0.201	0.076
-454.997	-200.000	-0.071	-0.333
-453.982	800.000	-0.118	-0.352
-452.968	126.558	-0.062	0.078
-451.953	-19.969	0.173	-0.106
-450.938	593.538	-0.101	0.247
-449.924	42.210	-0.136	-0.123
-448.909	-200.000	0.013	-0.240
-447.895	-15.336	0.361	0.228
-446.880	-57.648	-0.186	0.081
-445.865	44.151	-0.213	-0.193
-444.851	-35.251	-0.082	0.044
-443.836	-117.421	-0.304	-0.054
-442.822	-200.000	0.054	-0.239
-441.807	-48.361	-0.131	-0.062
-440.792	-50.412	-0.425	0.199
-439.778	384.155	-0.039	-0.079
-438.763	242.429	0.175	0.290
-437.749	-125.401	0.158	-0.024
-436.734	-70.158	-0.308	-0.116
-435.719	-200.000	0.009	0.357
-434.705	-200.000	0.012	-0.187
-433.690	76.575	0.213	0.223
-432.676	-151.038	-0.257	-0.019
-431.661	13.336	-0.276	0.212
-430.646	267.754	-0.068	-0.118
-429.632	138.921	-0.328	-0.426
-428.617	129.647	0.097	-0.123
-427.603	-200.000	-0.033	0.180
-426.588	-88.648	0.176	-0.052
-425.573	36.567	-0.268	0.233
-424.559	-200.000	0.001	-0.031
-423.544	747.735	0.056	-0.148
-422.530	-82.119	0.143	-0.046
-421.515	-9.042	-0.043	-0.028
-420.500	449.139	0.050	-0.109
-419.486	-96.697	0.222	0.058
-418.471	227.808	-0.098	-0.157
-417.457	800.000	-0.076	0.312
-416.442	148.491	-0.045	-0.059
-415.428	23.303	0.213	-0.173
-414.413	99.598	-0.151	0.173
-413.398	11.000	-0.125	0.094
-412.384	375.074	-0.113	0.228
-411.369	-200.000	-0.007	0.136
-410.355	7.611	-0.121	0.089
-409.340	800.000	-0.106	0.347
-408.325	-200.000	-0.030	0.501
-407.311	262.753	-0.105	-0.179
-406.296	50.440	-0.140	0.131
-405.282	-158.914	-0.190	-0.011
-404.267	-200.000	0.044	-0.297
-403.252	-34.865	0.163	0.088
-402.238	-82.924	-0.324	0.103
-401.223	-156.007	0.230	0.014
-400.209	-21.846	-0.123	-0.074
-399.194	800.000	-0.081	0.348
-398.179	-53.442	0.177	0.080
-397.165	123.057	0.175	-0.217
-396.150	-109.687	-0.025	0.005
-395.136	337.698	-0.062	-0.118
-394.121	800.000	-0.073	0.285
-393.106	-200.000	-0.032	0.342
-392.092	-63.845	-0.112	0.045
-391.077	162.335	0.178	0.246
-390.063	6.502	-0.057	-0.042
-389.048	50.478	0.273	-0.255
-388.033	-200.000	-0.027	-0.460
-387.019	396.702	0.010	-0.021
-386.004	-85.985	-0.318	0.097
-384.990	-169.299	-0.310	-0.011
-383.975	-59.900	-0.367	-0.155
-382.960	698.284	-0.030	0.078
-381.946	-98.640	0.118	-0.030
-380.931	-144.405	-0.321	0.029
-379.917	328.059	-0.089	-0.169
-378.902	-200.000	0.068	-0.363
-377.888	273.538	-0.076	0.133
-376.873	31.832	-0.084	0.071
-375.858	305.255	0.182	-0.333
-374.844	-137.965	-0.410	0.045
-373.829	60.805	-0.186	-0.182
-372.815	131.853	0.273	-0.346
-371.800	329.661	-0.075	-0.143
-370.785	328.043	-0.038	0.072
-369.771	5.600	-0.224	0.163
-368.756	-97.026	0.160	0.041
-367.742	-157.306	-0.490	0.029
-366.727	259.081	-0.031	0.053
-365.712	190.794	-0.032	0.047
-364.698	-200.000	0.011	0.116
-363.683	43.697	-0.115	0.103
-362.669	-96.712	-0.122	0.032
-361.654	800.000	0.050	-0.144
-360.639	-38.594	0.382	0.199
-359.625	-197.649	0.172	0.001
-358.610	800.000	-0.052	-0.153
-357.596	-67.157	0.384	0.149
-356.581	-87.413	-0.429	-0.128
-355.566	4.387	-0.194	0.140
-354.552	-151.089	0.200	-0.015
-353.537	405.681	0.060	-0.125
-352.523	-200.000	0.071	0.375
-351.508	389.434	0.145	0.296
-350.493	-63.459	-0.221	0.090
-349.479	-200.000	0.026	-0.179
-348.464	233.988	0.137	0.222
-347.450	-112.030	-0.204	-0.040
-346.435	-8.817	0.256	0.169
-345.420	6.066	-0.222	0.162
-344.406	-162.289	-0.362	0.018
-343.391	31.994	0.180	-0.153
-342.377	86.890	0.189	-0.206
-341.362	290.284	0.061	0.109
-340.348	133.030	0.069	0.088
-339.333	-44.028	-0.182	-0.090
-338.318	-118.731	0.227	0.039
-337.304	800.000	0.052	0.150
-336.289	800.000	0.091	-0.246
-335.275	-31.686	-0.278	0.153
-334.260	561.736	-0.031	-0.075
-333.245	-178.853	0.292	-0.007
-332.231	99.294	0.417	0.474
-331.216	800.000	-0.131	0.507
-330.202	50.295	-0.228	0.212
-329.187	-72.685	0.246	0.089
-328.172	583.597	0.037	-0.090
-327.158	145.694	-0.205	-0.270
-326.143	800.000	0.073	0.214
-325.129	-142.252	-0.400	-0.039
-324.114	-151.578	0.261	0.019
-323.099	16.171	0.047	-0.037
-322.085	-200.000	-0.046	-0.222
-321.070	-109.323	-0.160	-0.033
-320.056	730.489	-0.084	0.220
-319.041	-88.492	-0.065	0.019
-318.026	93.255	-0.133	-0.148
-317.012	-46.994	0.365	0.176
-315.997	24.780	0.043	-0.035
-314.983	152.520	0.051	-0.068
-313.968	-12.003	0.159	0.103
-312.953	197.056	0.238	0.357
-311.939	58.919	-0.028	0.027
-310.924	-1.917	-0.315	0.218
-309.910	-34.074	-0.095	-0.052
-308.895	95.791	-0.057	-0.064
-307.880	79.472	-0.144	0.152
-306.866	800.000	0.192	0.571
-305.851	-11.453	0.137	-0.088
-304.837	-48.270	-0.155	-0.074
-303.822	-200.000	-0.015	-0.081
-302.807	82.484	-0.198	-0.211
-301.793	-154.243	0.174	0.012
-300.778	430.227	0.106	-0.226
-299.764	800.000	0.045	-0.168
-298.749	16.941	0.145	-0.113
-297.735	4.149	0.205	-0.147
-296.720	411.935	0.143	0.298
-295.705	-100.828	0.104	0.025
-294.691	-118.269	-0.147	-0.026
-293.676	-65.777	-0.376	-0.148
-292.662	-83.851	0.284	-0.089
-291.647	-34.911	-0.206	0.111
-290.632	-200.000	-0.023	-0.137
-289.618	-177.305	0.287	0.007
-288.603	349.405	-0.113	0.220
-287.589	72.752	0.070	0.071
-286.574	-110.307	-0.147	0.030
-285.559	321.939	0.128	-0.240
-284.545	480.936	0.105	-0.234
-283.530	29.520	-0.136	-0.113
-282.516	-86.657	-0.065	-0.020
-281.501	-67.110	0.060	0.023
-280.486	-200.000	-0.021	-0.131
-279.472	-13.780	0.240	-0.153
-278.457	344.474	0.085	-0.163
-277.443	-200.000	-0.030	0.215
-276.428	435.950	0.123	0.263
-275.413	-53.537	-0.049	0.022
-274.399	-200.000	-0.063	-0.345
-273.384	0.085	-0.073	-0.051
-272.370	42.942	0.126	0.113
-271.355	-2.694	-0.216	0.148
-270.340	-189.840	-0.093	0.001
-269.326	-124.342	-0.130	0.020
-268.311	-200.000	0.015	-0.109
-267.297	800.000	-0.061	-0.187
-266.282	765.849	0.033	-0.089
-265.267	354.341	0.176	0.344
-264.253	-200.000	0.053	0.266
-263.238	86.338	0.172	-0.186
-262.224	374.132	0.167	0.335
-261.209	-95.843	-0.142	0.037
-260.195	518.042	0.175	-0.401
-259.180	-4.534	0.316	0.214
-258.165	-200.000	0.021	-0.242
-257.151	-67.737	-0.210	-0.081
-256.136	-200.000	0.021	-0.263
-255.122	-200.000	0.059	-0.487
-254.107	-200.000	-0.048	-0.400
-253.092	-200.000	0.009	-0.118
-252.078	131.676	0.187	-0.236
-251.063	-85.102	-0.118	0.036
-250.049	-148.882	0.421	-0.033
-249.034	800.000	0.081	0.239
-248.019	-27.847	-0.263	0.150
-247.005	-138.615	-0.124	-0.013
-245.990	379.824	-0.145	-0.292
-244.976	-139.491	0.100	0.011
-243.961	233.488	0.139	-0.224
-242.946	-200.000	0.001	0.192
-241.932	-200.000	0.017	-0.142
-240.917	74.408	0.205	0.212
-239.903	63.182	-0.066	0.065
-238.888	-1.806	-0.204	-0.141
-237.873	-150.151	0.316	0.024
-236.859	181.510	-0.197	0.284
-235.844	-85.884	0.188	0.057
-234.830	-150.751	-0.467	-0.035
-233.815	-130.706	0.453	0.060
-232.800	477.274	-0.023	-0.052
-231.786	-97.770	0.143	0.036
-230.771	-200.000	-0.018	0.093
-229.757	-200.000	-0.014	0.124
-228.742	-173.046	0.354	0.011
-227.727	-200.000	0.085	-0.394
-226.713	127.902	0.094	0.117
-225.698	-200.000	-0.053	0.258
-224.684	712.847	-0.119	-0.308
-223.669	-42.713	-0.032	-0.016
-222.655	447.939	0.023	-0.049
-221.640	-12.724	0.278	0.178
-220.625	800.000	0.185	-0.514
-219.611	-106.231	0.190	-0.042
-218.596	-200.000	0.004	-0.122
-217.582	-6.538	0.240	-0.160
-216.567	419.082	0.107	0.225
-215.552	347.178	-0.072	-0.139
-214.538	76.344	-0.065	-0.067
-213.523	-82.773	-0.101	-0.032
-212.509	67.947	-0.157	-0.158
-211.494	-200.000	-0.086	-0.425
-210.479	213.999	-0.198	0.308
-209.465	-13.743	0.271	-0.172
-208.450	-92.437	0.270	0.074
-207.436	184.035	0.065	-0.094
-206.421	-153.387	0.155	0.011
-205.406	-27.851	-0.121	-0.069
-204.392	-200.000	0.037	0.200
-203.377	-52.480	-0.326	0.148
-202.363	-200.000	-0.012	0.410
-201.348	204.760	-0.162	-0.246
-200.333	-82.559	-0.300	0.095
-199.319	269.485	-0.091	0.157
-198.304	251.911	0.129	0.215
-197.290	674.224	0.119	-0.302
-196.275	-76.204	0.294	0.102
-195.260	-200.000	0.022	0.295
-194.246	-58.469	-0.147	0.063
-193.231	-66.432	0.161	0.063
-192.217	417.968	-0.106	-0.222
-191.202	105.014	-0.167	-0.192
-190.187	-177.447	-0.135	-0.003
-189.173	-200.000	-0.048	0.227
-188.158	-122.553	0.370	-0.059
-187.144	-6.210	0.152	0.102
-186.129	800.000	-0.098	0.417
-185.114	-200.000	0.015	0.073
-184.100	516.047	-0.099	-0.226
-183.085	144.799	0.046	0.060
-182.071	800.000	0.091	0.323
-181.056	-200.000	-0.021	0.190
-180.042	-69.203	-0.205	-0.077
-179.027	-97.018	0.090	-0.023
-178.012	-200.000	0.041	0.224
-176.998	505.750	0.073	0.166
-175.983	6.089	0.248	-0.180
-174.969	-117.808	-0.375	0.066
-173.954	-80.519	0.200	0.065
-172.939	-39.096	-0.169	-0.087
-171.925	-139.755	0.086	-0.009
-170.910	17.331	0.188	-0.146
-169.896	-25.944	0.273	-0.157
-168.881	-53.678	-0.198	0.088
-167.866	-15.442	-0.138	0.086
-166.852	-200.000	-0.020	-0.187
-165.837	161.243	0.231	-0.317
-164.823	-5.839	-0.031	-0.021
-163.808	-99.697	-0.262	-0.064
-162.793	-200.000	0.011	0.178
-161.779	800.000	-0.018	0.061
-160.764	-64.748	0.341	-0.135
-159.750	80.403	0.157	0.165
-158.735	-31.448	-0.325	-0.179
-157.720	-91.248	0.312	0.088
-156.706	-73.438	0.351	0.125
-155.691	-200.000	-0.035	0.270
-154.677	561.785	0.135	0.319
-153.662	-53.632	-0.133	0.059
-152.647	-30.062	0.104	-0.058
-151.633	2.451	0.163	-0.116
-150.618	-200.000	-0.050	-0.215
-149.604	-200.000	-0.043	-0.299
-148.589	642.890	0.138	0.345
-147.574	-200.000	0.005	0.461
-146.560	-5.520	-0.108	-0.072
-145.545	-200.000	0.015	-0.333
-144.531	-200.000	0.066	-0.311
-143.516	800.000	-0.118	0.326
-142.502	7.466	0.059	0.043
-141.487	25.663	-0.203	0.165
-140.472	-102.135	0.084	-0.020
-139.458	95.990	0.070	-0.078
-138.443	-200.000	-0.020	-0.366
-137.429	-136.871	0.193	-0.022
-136.414	127.796	-0.049	0.061
-135.399	-200.000	-0.006	0.054
-134.385	-200.000	0.019	-0.302
-133.370	-78.491	-0.278	0.093
-132.356	341.199	-0.042	-0.081
-131.341	-172.903	-0.190	-0.006
-130.326	96.280	0.055	-0.061
-129.312	-200.000	0.045	-0.321
-128.297	618.795	0.041	0.101
-127.283	235.882	-0.107	-0.172
-126.268	521.318	0.095	0.218
-125.253	623.469	-0.061	-0.149
-124.239	-30.721	0.170	0.094
-123.224	800.000	0.136	0.542
-122.210	107.843	0.235	0.274
-121.195	-91.910	0.188	0.052
-120.180	-153.160	-0.093	0.006
-119.166	35.362	0.159	0.136
-118.151	192.438	-0.033	-0.048
-117.137	800.000	-0.041	0.125
-116.122	95.138	0.052	0.058
-115.107	251.158	-0.097	-0.161
-114.093	676.091	-0.030	0.075
-113.078	512.230	-0.095	-0.216
-112.064	182.992	0.089	-0.129
-111.049	3.637	-0.218	-0.155
-110.034	-128.600	0.159	0.022
-109.020	391.147	-0.081	-0.165
-108.005	-15.130	-0.101	-0.063
-106.991	165.086	-0.090	-0.124
-105.976	-72.607	0.202	0.073
-104.962	-200.000	-0.023	0.121
-103.947	89.957	-0.388	0.423
-102.932	-23.837	-0.038	-0.022
-101.918	-200.000	-0.039	-0.235
-100.903	246.290	-0.145	0.239
-99.889	-35.754	0.244	0.129
-98.874	-112.983	-0.048	-0.009
-97.859	-4.163	0.179	0.121
-96.845	-25.341	0.295	-0.170
-95.830	10.141	0.186	-0.138
-94.816	134.044	0.294	-0.372
-93.801	-147.373	0.143	0.012
-92.786	-33.382	-0.133	0.072
-91.772	-200.000	0.066	0.376
-90.757	-172.885	0.220	0.007
-89.743	266.397	0.276	-0.470
-88.728	800.000	-0.089	0.308
-87.713	800.000	-0.025	0.085
-86.699	800.000	-0.163	0.498
-85.684	-200.000	0.032	-0.329
-84.670	-81.531	0.110	-0.035
-83.655	-6.019	-0.019	0.013
-82.640	229.149	0.150	0.239
-81.626	155.137	-0.174	0.233
-80.611	800.000	0.103	0.338
-79.597	-200.000	0.000	-0.120
-78.582	746.327	-0.084	0.220
-77.567	640.979	-0.083	-0.205
-76.553	800.000	0.066	0.216
-75.538	-81.939	0.260	0.083
-74.524	5.907	-0.289	0.209
-73.509	-53.288	-0.351	0.157
-72.494	-159.588	0.428	0.023
-71.480	128.601	0.085	0.106
-70.465	-15.104	0.094	0.059
-69.451	-120.411	-0.242	-0.040
-68.436	145.709	0.182	0.237
-67.422	28.081	0.284	0.234
-66.407	-62.253	0.039	-0.016
-65.392	-60.182	-0.135	0.056
-64.378	800.000	-0.031	-0.083
-63.363	-117.401	-0.092	-0.016
-62.349	-131.573	-0.171	-0.022
-61.334	51.058	-1.134	-1.048
-60.319	24.531	0.965	0.778
-59.305	231.036	-0.830	-1.325
-58.290	246.983	0.911	1.498
-57.276	467.270	0.606	1.323
-56.261	-200.000	128.563	674.506
-55.246	404.902	1614.550	3314.977
-54.232	137.823	2770.686	3535.501
-53.217	94.696	2187.229	2422.486
-52.203	33.319	1699.994	1437.031
-51.188	25.734	1518.539	1231.922
-50.173	24.001	1494.506	1200.697
-49.159	48.396	1567.014	1428.936
-48.144	45.260	1579.613	1418.641
-47.130	25.973	1527.510	1240.648
-46.115	22.988	1511.375	1207.137
-45.100	22.803	1507.728	1202.916
-44.086	22.733	1506.430	1201.358
-43.071	22.768	1504.750	1200.205
-42.057	22.660	1502.948	1197.990
-41.042	22.755	1501.005	1197.035
-40.027	22.787	1499.702	1196.164
-39.013	22.778	1498.453	1195.062
-37.998	22.690	1497.093	1193.336
-36.984	22.742	1496.143	1192.880
-35.969	22.694	1494.692	1191.357
-34.954	22.692	1492.937	1189.892
-33.940	22.664	1492.155	1189.034
-32.925	22.703	1490.484	1187.918
-31.911	22.738	1489.344	1187.196
-30.896	22.766	1487.858	1186.156
-29.881	22.890	1486.668	1185.993
-28.867	22.830	1485.653	1184.730
-27.852	22.790	1484.438	1183.447
-26.838	22.782	1483.101	1182.279
-25.823	22.848	1481.284	1181.228
-24.809	22.857	1479.399	1179.740
-23.794	22.822	1478.275	1178.559
-22.779	22.751	1477.224	1177.202
-21.765	22.829	1475.989	1176.696
-20.750	22.864	1474.581	1175.757
-19.736	22.861	1473.229	1174.615
-18.721	22.845	1472.676	1174.016
-17.706	22.811	1471.324	1172.665
-16.692	22.720	1470.481	1171.348
-15.677	22.690	1469.522	1170.334
-14.663	22.792	1468.389	1170.065
-13.648	22.788	1467.450	1169.240
-12.633	22.748	1466.620	1168.270
-11.619	22.752	1465.942	1167.711
-10.604	22.770	1465.047	1167.068
-9.590	22.693	1464.230	1165.865
-8.575	22.774	1463.345	1165.648
-7.560	22.787	1462.340	1164.887
-6.546	22.719	1462.068	1164.172
-5.531	22.781	1460.460	1163.258
-4.517	22.727	1459.652	1162.211
-3.502	22.748	1458.586	1161.453
-2.487	22.734	1457.855	1160.735
-1.473	22.680	1456.340	1159.129
-0.458	22.818	1455.141	1159.030
0.556	21.065	1445.630	1147.510
1.571	18.010	1421.257	1108.275
2.586	14.690	1359.892	1039.694
3.600	13.262	1276.301	967.347
4.615	12.299	1233.364	929.272
5.629	10.776	1176.442	878.080
6.644	5.255	1096.179	790.232
7.659	0.836	1060.345	742.671
8.673	0.326	1054.921	736.316
9.688	0.103	1051.857	733.028
10.702	0.135	1050.168	731.942
11.717	0.096	1048.133	730.268
12.731	1.813	1049.319	739.368
13.746	7.959	1057.221	774.847
14.761	14.183	1065.295	811.126
15.775	16.654	1067.590	824.857
16.790	16.414	1066.641	822.884
17.804	15.413	1064.837	816.550
18.819	14.547	1062.571	810.531
19.834	14.282	1061.189	808.119
20.848	13.930	1060.057	805.479
21.863	13.701	1059.784	804.093
22.877	13.419	1059.122	802.152
23.892	13.211	1057.890	800.143
24.907	13.151	1056.807	798.960
25.921	13.257	1056.678	799.305
26.936	13.341	1055.578	798.808
27.950	13.233	1055.120	797.870
28.965	13.308	1054.376	797.600
29.980	13.215	1053.322	796.279
30.994	13.309	1052.379	795.950
32.009	13.339	1051.641	795.466
33.023	13.515	1051.078	795.818
34.038	13.334	1050.527	794.461
35.053	13.418	1049.242	793.821
36.067	13.429	1048.038	792.894
37.082	13.353	1047.908	792.359
38.096	13.404	1046.719	791.633
39.111	13.290	1046.296	790.699
40.126	13.313	1045.427	790.084
41.140	13.438	1043.806	789.383
42.155	13.154	1043.161	787.470
43.169	13.120	1042.691	786.885
44.184	13.189	1041.406	786.177
45.199	13.105	1040.682	785.160
46.213	13.105	1039.209	783.981
47.228	13.204	1038.506	783.849
48.242	13.271	1037.124	783.054
49.257	13.163	1036.661	782.122
50.271	13.246	1035.577	781.629
51.286	13.202	1034.267	780.363
52.301	13.288	1033.708	780.278
53.315	13.324	1032.926	779.787
54.330	13.281	1032.478	779.179
55.344	13.245	1031.230	777.999
56.359	13.393	1030.103	777.774
57.374	13.197	1029.698	776.479
58.388	13.259	1028.632	775.897
59.403	13.162	1028.148	775.009
60.417	13.113	1027.336	774.097
61.432	13.099	1026.605	773.413
62.447	13.023	1025.745	772.341
63.461	13.175	1025.124	772.517
64.476	13.100	1024.324	771.497
65.490	13.155	1022.939	770.640
66.505	13.172	1022.172	770.074
67.520	13.173	1021.778	769.713
68.534	13.186	1020.697	768.889
69.549	13.194	1019.773	768.166
70.563	13.204	1019.018	767.572
71.578	13.275	1018.322	767.313
72.593	13.235	1017.712	766.599
73.607	13.128	1016.755	765.314
74.622	13.109	1015.700	764.363
75.636	13.164	1015.315	764.261
76.651	13.103	1014.570	763.351
77.666	13.149	1013.527	762.711
78.680	13.132	1012.612	761.877
79.695	13.181	1012.184	761.713
80.709	13.050	1011.819	760.767
81.724	13.239	1010.736	760.755
82.739	13.227	1010.120	760.167
83.753	13.242	1009.766	759.906
84.768	13.257	1008.563	759.002
85.782	13.397	1007.927	759.099
86.797	13.387	1007.245	758.472
87.812	13.395	1006.141	757.610
88.826	13.402	1005.243	756.899
89.841	13.305	1004.431	755.774
90.855	13.385	1003.738	755.555
91.870	13.410	1003.060	755.091
92.884	13.404	1002.395	754.497
93.899	13.419	1001.741	754.005
94.914	13.530	1000.600	753.585
95.928	13.448	1000.312	752.928
96.943	13.488	999.580	752.491
97.957	13.505	998.463	751.661
98.972	13.428	997.602	750.596
99.987	13.542	996.736	750.396
101.001	13.426	996.106	749.329
102.016	13.506	995.222	748.961
103.030	13.392	995.235	748.390
104.045	13.291	994.237	747.118
105.060	13.384	992.895	746.462
106.074	13.436	991.592	745.652
107.089	13.349	991.109	744.828
108.103	13.370	990.327	744.271
109.118	13.359	989.096	743.229
110.133	13.265	988.671	742.424
111.147	13.281	987.802	741.774
112.162	13.218	986.827	740.697
113.176	13.407	986.179	740.990
114.191	13.324	985.755	740.235
115.206	13.395	984.323	739.413
116.220	13.378	983.868	738.929
117.235	13.334	983.140	738.119
118.249	13.394	981.675	737.222
119.264	13.299	981.273	736.431
120.279	13.370	980.381	736.014
121.293	13.381	979.440	735.288
122.308	13.349	978.431	734.326
123.322	13.216	978.247	733.532
124.337	13.347	976.632	732.834
125.352	13.163	976.177	731.617
126.366	13.350	974.115	730.829
127.381	13.297	973.763	730.267
128.395	13.335	972.678	729.557
129.410	13.219	972.000	728.472
130.424	13.067	970.811	726.848
131.439	13.287	969.623	726.860
132.454	13.370	969.086	726.760
133.468	13.309	968.607	726.067
134.483	13.290	968.120	725.554
135.497	13.326	967.340	725.066
136.512	13.368	966.434	724.505
137.527	13.298	965.712	723.594
138.541	13.250	964.757	722.606
139.556	13.320	964.238	722.459
140.570	13.313	963.491	721.806
141.585	13.473	962.603	721.773
142.600	13.424	961.754	720.859
143.614	13.452	960.875	720.258
144.629	13.491	960.180	719.844
145.643	13.524	959.745	719.598
146.658	13.463	959.010	718.715
147.673	13.572	957.809	718.226
148.687	13.588	956.976	717.605
149.702	13.458	956.373	716.526
150.716	13.379	955.481	715.454
151.731	13.500	954.712	715.339
152.746	13.531	954.483	715.238
153.760	13.399	953.223	713.663
154.775	13.434	952.773	713.413
155.789	13.513	951.796	712.959
156.804	13.696	950.569	712.763
157.819	13.584	950.687	712.306
158.833	13.722	949.462	711.919
159.848	13.641	948.957	711.129
160.862	13.702	948.567	711.035
161.877	13.633	947.784	710.091
162.892	13.715	946.390	709.334
163.906	13.562	945.847	708.210
164.921	13.567	945.197	707.681
165.935	13.593	943.952	706.798
166.950	13.599	943.004	706.052
167.964	13.676	942.344	705.823
168.979	13.632	941.141	704.673
169.994	13.639	940.419	704.098
171.008	13.568	939.972	703.399
172.023	13.582	938.989	702.661
173.037	13.617	938.431	702.327
174.052	13.776	937.537	702.270
175.067	13.782	936.739	701.635
176.081	13.699	936.148	700.781
177.096	13.729	935.210	700.144
178.110	13.708	934.425	699.405
179.125	13.759	933.808	699.095
180.140	13.719	932.870	698.166
181.154	13.774	931.883	697.595
182.169	13.863	931.326	697.492
183.183	13.732	931.307	696.865
184.198	13.846	929.811	696.159
185.213	13.851	929.215	695.675
186.227	13.859	928.293	694.955
187.242	13.920	928.151	695.044
188.256	13.948	927.414	694.549
189.271	13.969	927.132	694.364
190.286	14.083	925.831	693.802
191.300	13.809	925.596	692.422
192.315	13.777	924.574	691.464
193.329	13.668	924.373	690.795
194.344	13.805	923.136	690.379
195.359	13.834	922.849	690.225
196.373	13.893	922.333	690.026
197.388	13.933	921.784	689.718
198.402	13.946	921.019	689.140
199.417	14.105	920.708	689.503
200.432	14.198	919.937	689.252
201.446	14.216	919.918	689.251
202.461	14.168	919.341	688.558
203.475	14.296	918.205	688.177
204.490	14.064	918.526	687.398
205.504	14.212	917.117	686.892
206.519	14.248	915.982	686.128
207.534	14.177	915.538	685.443
208.548	14.188	914.634	684.751
209.563	14.185	914.268	684.405
210.577	14.215	913.390	683.812
211.592	14.112	912.949	682.997
212.607	14.246	912.181	682.911
213.621	14.408	911.508	683.013
214.636	14.356	911.100	682.431
215.650	14.139	910.751	681.223
216.665	14.378	909.723	681.369
217.680	14.342	909.507	681.001
218.694	14.515	908.486	680.884
219.709	14.443	908.100	680.239
220.723	14.403	907.267	679.392
221.738	14.509	907.130	679.659
222.753	14.304	906.391	678.213
223.767	14.431	905.683	678.140
224.782	14.430	904.998	677.564
225.796	14.418	903.674	676.463
226.811	14.487	903.213	676.339
227.826	14.474	902.678	675.826
228.840	14.519	902.023	675.457
229.855	14.639	901.077	675.172
230.869	14.460	900.735	674.134
231.884	14.557	900.220	674.083
232.899	14.540	899.245	673.222
233.913	14.537	898.814	672.829
234.928	14.392	898.316	671.812
235.942	14.395	897.301	671.006
236.957	14.497	896.336	670.635
237.972	14.579	895.828	670.524
238.986	14.429	894.950	669.208
240.001	14.533	894.624	669.322
241.015	14.477	893.934	668.519
242.030	14.616	892.952	668.282
243.045	14.601	892.238	667.631
244.059	14.524	891.765	666.911
245.074	14.652	891.429	667.112
246.088	14.741	890.768	666.914
247.103	14.602	890.226	665.892
248.117	14.685	889.511	665.629
249.132	14.850	888.670	665.599
250.147	14.917	888.329	665.552
251.161	14.922	887.911	665.197
252.176	14.891	886.957	664.301
253.190	15.004	886.229	664.148
254.205	14.852	885.900	663.238
255.220	14.918	885.407	663.071
256.234	14.983	884.353	662.483
257.249	14.941	884.031	662.016
258.263	15.129	883.198	662.074
259.278	15.005	882.877	661.288
260.293	15.002	882.158	660.677
261.307	15.235	881.361	660.941
262.322	15.252	880.928	660.627
263.336	15.055	880.772	659.675
264.351	15.205	880.079	659.688
265.366	15.330	879.071	659.366
266.380	15.168	879.091	658.682
267.395	15.217	878.072	658.055
268.409	15.152	877.247	657.123
269.424	15.124	876.819	656.635
270.439	15.318	875.996	656.719
271.453	15.051	875.640	655.352
272.468	15.222	874.390	655.024
273.482	15.268	874.134	654.954
274.497	15.155	873.466	653.955
275.512	15.172	872.593	653.310
276.526	15.238	872.199	653.216
277.541	15.219	871.084	652.248
278.555	15.320	871.058	652.563
279.570	15.431	869.560	651.816
280.585	15.453	869.291	651.640
281.599	15.468	868.911	651.355
282.614	15.440	868.340	650.764
283.628	15.385	867.595	649.933
284.643	15.529	866.990	649.981
285.657	15.428	866.716	649.328
286.672	15.434	866.147	648.864
287.687	15.464	865.831	648.688
288.701	15.493	865.301	648.347
289.716	15.395	864.698	647.457
290.730	15.510	863.810	647.179
291.745	15.483	863.279	646.621
292.760	15.556	862.791	646.480
293.774	15.613	862.002	646.050
294.789	15.564	861.570	645.478
295.803	15.657	860.574	645.033
296.818	15.748	859.713	644.678
297.833	15.639	858.964	643.644
298.847	15.640	858.708	643.401
299.862	15.673	857.624	642.654
300.876	15.690	857.410	642.503
301.891	15.619	856.747	641.681
302.906	15.810	856.096	641.863
303.920	15.764	855.520	641.199
304.935	15.772	855.095	640.855
305.949	15.898	854.512	640.839
306.964	15.893	853.580	640.066
307.979	15.830	853.142	639.442
308.993	15.699	853.157	638.898
310.008	15.789	852.423	638.633
311.022	16.013	851.578	638.792
312.037	15.906	851.421	638.214
313.052	15.768	851.190	637.460
314.066	16.008	849.808	637.278
315.081	15.923	848.986	636.284
316.095	15.783	849.043	635.741
317.110	15.958	848.161	635.682
318.125	15.919	847.750	635.175
319.139	15.840	847.179	634.390
320.154	16.000	846.628	634.524
321.168	15.855	846.400	633.751
322.183	15.975	845.553	633.514
323.197	15.972	845.185	633.170
324.212	16.024	844.675	632.926
325.227	16.022	843.913	632.294
326.241	16.146	843.461	632.363
327.256	15.877	843.002	630.956
328.270	16.045	841.988	630.769
329.285	16.024	841.516	630.282
330.300	16.001	840.963	629.726
331.314	15.991	840.577	629.344
332.329	16.139	839.839	629.287
333.343	16.085	839.356	628.669
334.358	16.201	838.779	628.613
335.373	16.149	838.285	627.992
336.387	16.175	837.958	627.789
337.402	16.146	837.285	627.120
338.416	16.168	836.532	626.585
339.431	16.273	836.071	626.574
340.446	16.294	835.571	626.221
341.460	16.283	835.156	625.812
342.475	16.479	834.176	625.750
343.489	16.354	833.579	624.783
344.504	16.357	833.504	624.683
345.519	16.365	832.940	624.234
346.533	16.439	832.218	623.911
347.548	16.607	831.569	623.991
348.562	16.398	831.370	623.016
349.577	16.304	830.997	622.333
350.592	16.367	829.945	621.724
351.606	16.351	829.934	621.599
352.621	16.297	829.386	620.936
353.635	16.363	828.945	620.793
354.650	16.401	828.374	620.450
355.665	16.440	828.227	620.427
356.679	16.501	827.923	620.371
357.694	16.480	827.045	619.580
358.708	16.477	826.356	618.998
359.723	16.484	825.674	618.458
360.738	16.470	825.585	618.284
361.752	16.701	824.371	618.164
362.767	16.776	824.185	618.246
363.781	16.633	823.972	617.510
364.796	16.641	823.552	617.168
365.810	16.671	823.017	616.822
366.825	16.853	822.435	616.995
367.840	16.859	822.189	616.776
368.854	16.805	821.810	616.242
369.869	16.666	821.053	615.114
370.883	16.792	820.692	615.247
371.898	16.842	819.933	614.805
372.913	16.759	819.279	613.958
373.927	16.820	819.115	614.003
374.942	16.968	818.181	613.784
375.956	16.998	817.280	613.163
376.971	16.902	816.994	612.547
377.986	16.958	816.868	612.601
379.000	17.167	816.183	612.786
380.015	16.957	815.703	611.613
381.029	17.118	815.201	611.766
382.044	17.088	814.650	611.189
383.059	17.077	814.026	610.629
384.073	16.973	813.612	609.888
385.088	17.107	813.018	609.872
386.102	17.018	812.576	609.167
387.117	16.939	812.024	608.416
388.132	17.152	811.582	608.795
389.146	17.077	811.048	608.068
390.161	17.007	810.830	607.603
391.175	17.160	810.396	607.771
392.190	17.043	809.912	606.936
393.205	17.046	809.634	606.683
394.219	17.037	809.086	606.188
395.234	17.162	808.319	606.006
396.248	17.049	808.155	605.427
397.263	17.033	807.479	604.807
398.278	17.261	806.597	604.907
399.292	17.135	806.582	604.392
400.307	17.178	806.207	604.212
401.321	17.127	805.822	603.686
402.336	17.178	805.424	603.520
403.350	17.168	805.123	603.204
404.365	17.258	804.524	603.022
405.380	17.171	804.319	602.504
406.394	17.234	803.822	602.304
407.409	17.334	803.251	602.176
408.423	17.307	802.876	601.746
409.438	17.233	802.459	601.118
410.453	17.377	802.042	601.261
411.467	17.446	801.621	601.137
412.482	17.475	800.996	600.716
413.496	17.439	800.850	600.429
414.511	17.322	800.450	599.660
415.526	17.504	799.951	599.875
416.540	17.517	799.435	599.482
417.555	17.446	799.094	598.923
418.569	17.592	798.260	598.759
419.584	17.524	798.062	598.318
420.599	17.595	797.477	598.075
421.613	113.744	1298.566	1488.219
422.628	97.967	1371.535	1488.307
