DTS Sentinel unit serial number:	SN413079Multiplexer serial number:	ORYXHardware model number:	OX4-SRSoftware version number:	ORYX F/W v4.00 Oryx Data Collector v3.7.2.0data status	okinstallation	princeton_trtdifferential loss correction	single-endedforward channel	channel 3reverse channel	N/Adate	2019/09/15time	09:04:35forward acquisition time	60.00reverse acquisition time	0.00gamma	496.2192k internal	0.2313k external	0.2313temperature offset calibration	0.9975default loss term (dB/km)	0.3790temperature slope calibration	1.0000multiplexer offset coefficient	1.0000multiplexer slope coefficient	1.0000fibre end	0.00T internal ref (°C)	32.91T ext. ref 1 (°C)	4.98T ext. ref 2 (°C)	30.06length (m)	temperature (°C)	Stokes	anti-Stokes-747.200	42.215	0.012	-0.011
-746.185	248.847	-0.131	0.225
-745.171	-200.000	-0.060	-0.268
-744.156	78.924	-0.085	0.093
-743.142	336.466	0.127	0.249
-742.127	22.582	-0.230	0.191
-741.112	800.000	0.022	0.093
-740.098	41.700	0.092	0.084
-739.083	373.159	0.184	0.378
-738.069	800.000	0.081	-0.253
-737.054	483.592	-0.165	-0.380
-736.039	23.024	-0.120	0.100
-735.025	-70.941	0.166	-0.063
-734.010	-120.294	-0.210	0.036
-732.996	259.431	0.089	0.156
-731.981	-127.612	-0.484	0.071
-730.966	-200.000	0.007	-0.256
-729.952	-50.111	-0.263	0.126
-728.937	-23.409	0.143	0.087
-727.923	494.278	-0.132	-0.308
-726.908	-96.776	-0.389	0.104
-725.894	-200.000	0.065	-0.485
-724.879	-65.990	0.377	-0.152
-723.864	800.000	-0.020	-0.057
-722.850	-124.441	-0.193	-0.030
-721.835	173.433	-0.099	0.145
-720.821	-200.000	0.038	-0.180
-719.806	14.015	0.115	0.090
-718.791	-81.900	-0.225	-0.075
-717.777	-200.000	0.051	0.303
-716.762	79.777	-0.154	-0.168
-715.748	747.562	-0.060	-0.164
-714.733	18.804	0.083	-0.067
-713.718	21.365	0.103	0.084
-712.704	-84.075	-0.298	0.096
-711.689	55.636	-0.238	-0.233
-710.675	-152.916	0.351	-0.025
-709.660	-97.300	-0.115	-0.030
-708.645	141.870	-0.136	-0.182
-707.631	213.096	0.263	-0.421
-706.616	-81.965	-0.202	-0.067
-705.602	104.389	-0.084	0.100
-704.587	-144.174	0.318	-0.030
-703.572	-93.712	-0.314	-0.088
-702.558	-12.226	0.127	-0.084
-701.543	221.052	-0.107	-0.173
-700.529	800.000	-0.039	-0.110
-699.514	-106.740	-0.117	-0.026
-698.499	800.000	0.074	0.310
-697.485	162.130	-0.165	-0.234
-696.470	23.310	-0.274	-0.228
-695.456	-123.040	-0.171	-0.028
-694.441	800.000	-0.043	0.138
-693.426	-73.664	0.508	-0.187
-692.412	-53.987	-0.108	0.050
-691.397	-137.754	-0.204	0.023
-690.383	345.786	0.069	-0.138
-689.368	-200.000	0.055	-0.297
-688.354	-16.078	0.187	0.120
-687.339	144.780	-0.195	0.263
-686.324	65.836	-0.221	-0.227
-685.310	-166.193	0.371	0.016
-684.295	-84.835	0.133	-0.042
-683.281	10.028	-0.167	-0.128
-682.266	-200.000	-0.047	-0.423
-681.251	-200.000	-0.009	-0.181
-680.237	-200.000	-0.029	-0.228
-679.222	800.000	0.049	-0.199
-678.208	-49.359	0.146	0.070
-677.193	258.297	0.076	-0.132
-676.178	-18.293	0.272	-0.172
-675.164	388.616	0.083	0.174
-674.149	800.000	-0.067	-0.191
-673.135	-200.000	0.025	0.249
-672.120	141.373	0.093	-0.124
-671.105	213.582	0.035	0.056
-670.091	311.668	0.129	0.244
-669.076	311.788	-0.163	-0.309
-668.062	84.751	0.127	0.141
-667.047	-129.536	-0.173	0.024
-666.032	152.245	-0.245	-0.338
-665.018	-156.438	0.164	-0.010
-664.003	-68.791	0.199	0.078
-662.989	56.595	-0.207	0.204
-661.974	-34.437	0.229	0.127
-660.959	-136.282	-0.619	0.073
-659.945	-134.219	0.206	-0.026
-658.930	169.720	-0.062	-0.090
-657.916	-63.786	-0.317	-0.131
-656.901	-62.504	-0.120	-0.050
-655.886	157.881	0.119	-0.167
-654.872	-7.782	-0.241	-0.165
-653.857	-95.524	0.072	-0.020
-652.843	-91.726	-0.110	-0.032
-651.828	-133.358	0.294	-0.037
-650.814	-109.460	-0.036	-0.008
-649.799	-75.847	-0.326	0.117
-648.784	55.709	0.074	-0.073
-647.770	321.366	-0.058	-0.112
-646.755	349.066	0.124	-0.247
-645.741	-117.665	0.163	-0.030
-644.726	-59.598	-0.145	-0.063
-643.711	711.734	0.091	0.244
-642.697	167.236	-0.116	0.166
-641.682	-60.901	0.078	0.034
-640.668	-200.000	0.043	-0.344
-639.653	207.699	0.174	-0.274
-638.638	-28.353	0.252	0.147
-637.624	-200.000	-0.031	-0.182
-636.609	-93.126	-0.220	0.062
-635.595	-200.000	-0.006	0.052
-634.580	800.000	-0.090	-0.259
-633.565	23.973	-0.106	-0.088
-632.551	-86.796	0.090	0.028
-631.536	-161.239	0.084	0.004
-630.522	24.391	0.130	-0.108
-629.507	251.212	-0.168	0.288
-628.492	361.964	-0.050	0.101
-627.478	-144.279	-0.136	-0.013
-626.463	-200.000	-0.073	0.342
-625.449	-97.710	0.193	0.051
-624.434	-139.698	0.055	-0.006
-623.419	-109.178	-0.236	0.051
-622.405	-92.098	0.177	0.051
-621.390	-152.593	-0.082	0.006
-620.376	-157.042	0.376	0.023
-619.361	478.776	-0.124	0.284
-618.346	63.218	-0.120	0.121
-617.332	37.840	0.058	-0.052
-616.317	-45.841	0.211	-0.105
-615.303	-200.000	-0.007	-0.038
-614.288	452.519	0.185	-0.412
-613.273	364.884	-0.184	-0.374
-612.259	-156.839	0.091	-0.006
-611.244	51.424	-0.119	-0.114
-610.230	-63.947	-0.076	-0.031
-609.215	-200.000	0.007	0.365
-608.201	-104.942	0.259	0.060
-607.186	-62.527	-0.200	-0.084
-606.171	304.798	-0.082	-0.153
-605.157	141.316	0.261	-0.349
-604.142	-29.291	-0.121	-0.070
-603.128	-111.935	0.110	-0.022
-602.113	-20.220	-0.206	0.128
-601.098	100.303	-0.171	0.200
-600.084	-18.513	0.072	0.045
-599.069	8.364	0.084	0.064
-598.055	-138.736	-0.027	0.003
-597.040	559.068	-0.115	0.279
-596.025	134.512	-0.238	0.311
-595.011	62.939	-0.215	-0.217
-593.996	-54.795	0.313	-0.143
-592.982	-200.000	0.064	0.398
-591.967	-113.775	-0.147	0.029
-590.952	800.000	-0.080	0.294
-589.938	7.573	0.171	-0.129
-588.923	-18.639	0.282	-0.178
-587.909	800.000	-0.018	-0.062
-586.894	-106.327	0.286	0.065
-585.879	754.635	0.046	-0.125
-584.865	485.046	-0.178	0.408
-583.850	-200.000	0.005	0.350
-582.836	-3.099	-0.234	-0.164
-581.821	239.894	-0.161	-0.271
-580.806	-53.821	0.258	0.118
-579.792	800.000	0.019	0.058
-578.777	515.495	0.031	0.073
-577.763	-133.223	-0.081	-0.010
-576.748	441.016	-0.103	0.227
-575.733	-200.000	-0.042	-0.298
-574.719	-114.251	0.235	0.046
-573.704	-14.389	-0.172	0.111
-572.690	193.841	-0.111	0.169
-571.675	-200.000	0.045	-0.232
-570.661	-87.074	-0.243	-0.075
-569.646	-8.874	-0.087	0.058
-568.631	-200.000	0.003	-0.204
-567.617	54.317	-0.108	-0.105
-566.602	-200.000	-0.050	-0.290
-565.588	116.468	0.126	0.155
-564.573	-200.000	-0.005	-0.082
-563.558	-200.000	0.004	-0.108
-562.544	-123.932	-0.293	-0.046
-561.529	372.589	-0.040	0.083
-560.515	-66.571	-0.153	0.061
-559.500	-66.484	-0.045	-0.018
-558.485	-200.000	0.008	0.179
-557.471	114.535	0.036	-0.045
-556.456	-200.000	-0.016	0.266
-555.442	250.693	-0.045	0.078
-554.427	-200.000	-0.039	-0.195
-553.412	298.245	-0.094	-0.175
-552.398	-103.609	0.168	-0.040
-551.383	-200.000	-0.015	-0.238
-550.369	800.000	0.095	-0.407
-549.354	293.063	-0.117	0.215
-548.339	800.000	-0.106	0.357
-547.325	-200.000	-0.006	0.129
-546.310	-131.671	0.142	0.019
-545.296	-83.862	-0.184	0.059
-544.281	800.000	0.042	0.170
-543.266	-200.000	-0.017	0.161
-542.252	-70.082	0.453	0.173
-541.237	80.228	-0.212	-0.229
-540.223	120.862	0.099	-0.124
-539.208	-75.630	-0.208	-0.074
-538.193	800.000	0.040	-0.136
-537.179	-128.264	0.087	0.012
-536.164	253.207	0.065	-0.112
-535.150	-18.455	0.249	0.156
-534.135	-29.666	-0.183	0.105
-533.121	-108.381	0.074	-0.016
-532.106	800.000	0.028	0.101
-531.091	-20.194	0.148	-0.092
-530.077	95.596	-0.047	0.054
-529.062	54.807	0.046	0.045
-528.048	47.693	-0.064	-0.060
-527.033	182.368	-0.191	-0.283
-526.018	-57.528	0.225	-0.099
-525.004	171.163	-0.136	-0.196
-523.989	-124.048	-0.377	-0.060
-522.975	602.603	0.017	0.042
-521.960	-200.000	0.023	-0.247
-520.945	-101.288	-0.152	-0.037
-519.931	-200.000	0.005	0.264
-518.916	-101.399	0.260	0.064
-517.902	258.959	-0.127	-0.220
-516.887	27.383	-0.207	0.175
-515.872	-66.209	-0.178	-0.071
-514.858	800.000	-0.068	0.259
-513.843	6.492	-0.154	-0.115
-512.829	-149.491	-0.015	-0.001
-511.814	235.546	-0.191	0.317
-510.799	-153.542	-0.216	0.015
-509.785	-93.800	0.228	0.063
-508.770	-200.000	0.010	0.550
-507.756	4.016	-0.267	0.196
-506.741	-5.435	0.244	0.168
-505.726	-14.765	-0.119	-0.077
-504.712	188.901	0.094	0.142
-503.697	-96.782	-0.317	0.084
-502.683	-50.516	0.201	-0.095
-501.668	-29.029	-0.061	0.035
-500.653	800.000	-0.089	-0.270
-499.639	64.010	-0.110	-0.111
-498.624	-37.578	-0.126	0.068
-497.610	-92.953	0.083	-0.023
-496.595	-200.000	0.007	0.060
-495.581	-51.149	-0.208	0.098
-494.566	-50.956	-0.074	-0.035
-493.551	-200.000	-0.024	-0.389
-492.537	800.000	-0.106	-0.443
-491.522	-87.401	0.126	-0.038
-490.508	-23.171	-0.144	-0.087
-489.493	-193.695	-0.276	0.002
-488.478	374.534	0.074	0.152
-487.464	11.599	-0.236	0.182
-486.449	48.938	-0.235	-0.222
-485.435	-56.320	-0.045	0.020
-484.420	-200.000	-0.041	0.207
-483.405	260.511	0.049	0.085
-482.391	-200.000	0.003	-0.332
-481.376	-135.216	0.044	0.005
-480.362	-175.717	0.285	-0.008
-479.347	33.860	-0.079	0.069
-478.332	-57.098	0.219	0.097
-477.318	-38.745	0.305	-0.162
-476.303	-3.130	-0.166	-0.116
-475.289	462.571	0.107	0.240
-474.274	-38.707	0.317	0.168
-473.259	79.097	0.258	0.277
-472.245	-200.000	-0.003	-0.081
-471.230	800.000	0.102	-0.421
-470.216	-200.000	-0.017	-0.317
-469.201	97.543	0.176	-0.203
-468.186	153.829	-0.235	0.323
-467.172	-59.092	0.115	-0.050
-466.157	786.841	0.086	-0.236
-465.143	-89.566	0.033	-0.010
-464.128	-136.553	-0.390	0.045
-463.113	59.609	0.175	-0.174
-462.099	492.873	0.121	-0.279
-461.084	61.474	-0.085	-0.084
-460.070	800.000	0.024	-0.081
-459.055	15.641	0.032	-0.025
-458.040	-119.406	0.156	-0.027
-457.026	-78.615	0.295	0.101
-456.011	69.337	0.244	-0.252
-454.997	-11.683	-0.171	-0.113
-453.982	-200.000	0.016	-0.444
-452.968	318.368	0.048	-0.092
-451.953	-58.487	-0.178	0.077
-450.938	61.747	0.138	-0.138
-449.924	-17.779	0.193	0.121
-448.909	9.106	0.049	0.037
-447.895	-200.000	0.005	-0.029
-446.880	660.483	0.129	-0.333
-445.865	317.866	0.086	-0.163
-444.851	-200.000	0.055	-0.327
-443.836	-62.404	-0.167	-0.070
-442.822	20.800	-0.192	-0.156
-441.807	192.720	0.120	0.182
-440.792	-200.000	0.042	0.212
-439.778	331.963	-0.105	0.203
-438.763	-185.732	-0.337	-0.005
-437.749	-20.532	0.264	0.163
-436.734	-27.103	-0.191	0.112
-435.719	800.000	-0.049	-0.136
-434.705	57.139	0.097	0.095
-433.690	46.655	-0.030	-0.028
-432.676	-75.944	-0.072	-0.026
-431.661	-81.134	-0.076	-0.025
-430.646	800.000	0.058	-0.224
-429.632	-31.471	-0.097	-0.055
-428.617	-200.000	-0.004	-0.310
-427.603	-64.832	-0.186	0.075
-426.588	38.669	-0.095	0.085
-425.573	800.000	-0.027	-0.092
-424.559	-122.963	-0.185	-0.030
-423.544	0.589	-0.013	-0.009
-422.530	-93.887	0.081	-0.022
-421.515	4.397	-0.127	0.093
-420.500	65.319	0.166	-0.168
-419.486	107.962	-0.135	-0.161
-418.471	413.691	0.058	-0.123
-417.457	-53.287	0.106	0.049
-416.442	72.383	0.171	0.178
-415.428	223.892	-0.154	0.249
-414.413	-91.876	-0.367	-0.104
-413.398	457.672	-0.021	-0.047
-412.384	-200.000	0.022	0.340
-411.369	800.000	0.068	-0.202
-410.355	800.000	-0.019	-0.066
-409.340	49.415	0.190	0.179
-408.325	-200.000	-0.015	0.296
-407.311	-97.082	-0.255	-0.067
-406.296	-28.359	0.174	-0.101
-405.282	-59.131	0.112	0.048
-404.267	800.000	0.081	0.226
-403.252	-200.000	-0.021	0.260
-402.238	-200.000	0.040	0.183
-401.223	-110.059	-0.076	-0.016
-400.209	23.479	0.024	-0.020
-399.194	-80.129	0.107	-0.036
-398.179	800.000	-0.072	-0.233
-397.165	-74.063	-0.115	-0.042
-396.150	250.558	0.089	-0.151
-395.136	51.292	-0.103	0.097
-394.121	-200.000	-0.002	0.154
-393.106	-200.000	0.043	0.371
-392.092	-200.000	-0.099	-0.513
-391.077	800.000	0.124	-0.487
-390.063	-200.000	-0.086	-0.380
-389.048	-200.000	-0.031	0.165
-388.033	800.000	0.062	-0.188
-387.019	134.008	-0.041	-0.053
-386.004	-128.061	0.188	0.027
-384.990	401.053	-0.126	0.265
-383.975	9.729	0.145	0.110
-382.960	800.000	-0.111	0.464
-381.946	143.349	-0.148	0.197
-380.931	-76.573	0.148	0.052
-379.917	-122.574	-0.169	-0.027
-378.902	177.536	-0.052	0.075
-377.888	-61.071	-0.080	-0.034
-376.873	-200.000	0.001	0.020
-375.858	457.847	-0.110	-0.244
-374.844	122.426	0.156	-0.195
-373.829	27.647	-0.177	0.149
-372.815	82.861	0.300	0.327
-371.800	230.606	0.048	0.079
-370.785	22.705	-0.055	-0.045
-369.771	-200.000	-0.016	0.226
-368.756	-89.369	-0.350	0.103
-367.742	-65.838	0.295	-0.118
-366.727	-171.571	0.327	-0.011
-365.712	-200.000	0.002	0.114
-364.698	-79.380	0.216	-0.073
-363.683	52.813	0.225	-0.215
-362.669	-34.475	-0.109	-0.060
-361.654	-81.383	-0.108	0.036
-360.639	800.000	0.084	0.234
-359.625	-108.076	0.260	-0.056
-358.610	-24.932	0.367	-0.218
-357.596	121.345	-0.232	-0.289
-356.581	-98.805	-0.351	-0.089
-355.566	-200.000	0.000	-0.209
-354.552	-200.000	-0.011	0.129
-353.537	800.000	-0.038	-0.107
-352.523	538.773	-0.019	-0.045
-351.508	233.272	0.128	-0.210
-350.493	-200.000	0.063	-0.279
-349.479	210.062	-0.041	-0.064
-348.464	-200.000	-0.012	0.074
-347.450	-20.393	0.158	0.097
-346.435	800.000	0.062	0.184
-345.420	-200.000	-0.047	-0.210
-344.406	130.532	-0.088	0.112
-343.391	-4.184	-0.143	-0.099
-342.377	-130.397	-0.286	-0.039
-341.362	-114.987	0.346	0.066
-340.348	378.457	0.033	0.068
-339.333	-112.433	0.084	0.017
-338.318	800.000	0.062	0.227
-337.304	-72.983	0.440	-0.161
-336.289	-32.956	-0.206	0.114
-335.275	601.282	-0.184	-0.457
-334.260	239.391	-0.216	-0.358
-333.245	-75.867	-0.161	-0.057
-332.231	505.305	-0.176	0.408
-331.216	800.000	0.096	0.301
-330.202	41.123	-0.368	0.332
-329.187	-28.606	-0.126	0.073
-328.172	-2.168	0.230	0.161
-327.158	800.000	-0.034	0.113
-326.143	-200.000	0.024	0.128
-325.129	-133.840	0.179	0.022
-324.114	-200.000	-0.001	-0.180
-323.099	-133.679	0.203	-0.025
-322.085	-76.336	0.191	-0.067
-321.070	-135.714	0.261	0.031
-320.056	-200.000	-0.041	-0.197
-319.041	-93.579	-0.363	0.100
-318.026	-200.000	0.024	0.313
-317.012	-89.618	0.223	0.065
-315.997	-56.512	-0.070	0.031
-314.983	237.590	-0.086	0.143
-313.968	39.646	0.071	-0.063
-312.953	494.886	0.074	0.169
-311.939	699.768	-0.021	-0.056
-310.924	73.639	0.264	-0.275
-309.910	134.245	-0.087	-0.112
-308.895	-146.521	0.075	-0.007
-307.880	-138.192	0.210	0.023
-306.866	125.776	-0.200	0.252
-305.851	-200.000	0.119	-0.614
-304.837	55.114	0.213	-0.205
-303.822	-139.477	-0.108	-0.012
-302.807	113.253	0.262	0.317
-301.793	663.944	-0.030	-0.076
-300.778	678.073	0.035	0.091
-299.764	272.243	0.135	0.237
-298.749	-95.486	-0.197	0.053
-297.735	-96.759	0.178	-0.047
-296.720	-89.527	0.203	0.059
-295.705	-65.275	-0.338	0.136
-294.691	94.151	-0.098	0.111
-293.676	800.000	0.101	-0.345
-292.662	-176.166	0.364	-0.010
-291.647	208.283	-0.167	0.260
-290.632	-40.683	0.414	0.214
-289.618	-102.564	0.236	0.056
-288.603	56.721	-0.229	-0.222
-287.589	-88.919	0.226	-0.067
-286.574	-78.722	0.255	0.087
-285.559	-200.000	0.013	-0.154
-284.545	-117.267	0.072	0.013
-283.530	-190.392	-0.025	-0.000
-282.516	800.000	-0.063	-0.184
-281.501	66.312	0.083	-0.084
-280.486	-200.000	-0.034	-0.179
-279.472	286.454	0.143	-0.257
-278.457	108.703	0.067	-0.080
-277.443	443.976	-0.110	0.240
-276.428	-12.145	0.096	0.062
-275.413	-88.235	-0.200	0.060
-274.399	85.497	-0.173	0.189
-273.384	-15.603	-0.272	-0.173
-272.370	800.000	-0.052	-0.144
-271.355	225.564	0.136	-0.220
-270.340	-200.000	-0.070	0.318
-269.326	14.868	0.269	0.209
-268.311	800.000	0.017	-0.054
-267.297	-200.000	-0.080	0.369
-266.282	105.253	-0.039	0.046
-265.267	132.096	-0.132	-0.169
-264.253	-43.838	0.194	-0.097
-263.238	-150.169	0.077	0.006
-262.224	20.753	-0.095	0.076
-261.209	800.000	0.098	-0.355
-260.195	9.383	-0.195	-0.147
-259.180	78.650	-0.163	0.173
-258.165	209.697	-0.112	0.175
-257.151	327.912	-0.125	-0.238
-256.136	237.712	-0.130	-0.215
-255.122	606.550	-0.048	0.118
-254.107	-200.000	-0.030	0.493
-253.092	-200.000	-0.003	0.163
-252.078	-80.141	0.037	0.012
-251.063	282.989	-0.135	-0.241
-250.049	63.023	-0.132	-0.131
-249.034	295.546	0.088	-0.160
-248.019	800.000	0.156	0.487
-247.005	-117.720	-0.255	0.046
-245.990	10.121	-0.141	-0.106
-244.976	-19.106	0.304	0.188
-243.961	-200.000	-0.011	0.054
-242.946	701.927	-0.056	-0.146
-241.932	147.054	0.046	-0.061
-240.917	49.108	-0.067	0.063
-239.903	-74.372	0.171	0.062
-238.888	-0.681	-0.137	0.097
-237.873	-74.049	-0.182	-0.066
-236.859	50.707	0.094	0.088
-235.844	471.291	0.059	0.133
-234.830	-111.901	-0.369	-0.074
-233.815	-71.485	-0.266	-0.099
-232.800	-132.103	0.056	-0.007
-231.786	144.843	0.123	0.164
-230.771	-10.874	0.200	-0.131
-229.757	-200.000	0.014	0.118
-228.742	-200.000	0.021	0.223
-227.727	70.330	-0.221	0.227
-226.713	34.261	0.094	-0.082
-225.698	66.374	0.154	0.156
-224.684	-200.000	0.012	-0.068
-223.669	389.129	0.131	0.270
-222.655	28.938	-0.362	-0.305
-221.640	800.000	-0.037	-0.115
-220.625	-80.909	-0.224	-0.074
-219.611	597.727	-0.027	0.067
-218.596	-73.117	0.138	-0.050
-217.582	-45.269	0.149	-0.073
-216.567	19.961	-0.138	0.111
-215.552	58.449	-0.145	0.142
-214.538	-148.061	0.187	-0.015
-213.523	-164.719	0.122	0.005
-212.509	14.312	0.045	0.035
-211.494	71.028	-0.123	0.126
-210.479	800.000	0.019	-0.073
-209.465	-168.245	0.194	-0.007
-208.450	184.471	0.027	0.040
-207.436	770.314	0.058	0.158
-206.421	800.000	-0.015	0.061
-205.406	-162.745	-0.483	-0.023
-204.392	-71.103	0.226	-0.084
-203.377	-200.000	-0.014	-0.077
-202.363	-16.386	0.089	-0.056
-201.348	800.000	-0.078	0.287
-200.333	-187.046	-0.107	-0.001
-199.319	47.910	0.231	0.214
-198.304	-53.016	0.265	0.121
-197.290	-200.000	0.045	-0.438
-196.275	3.248	0.136	0.099
-195.260	7.531	0.090	0.067
-194.246	-171.727	0.122	-0.004
-193.231	378.715	-0.089	0.180
-192.217	800.000	-0.108	0.342
-191.202	111.650	0.203	0.243
-190.187	-129.755	0.083	0.011
-189.173	-69.596	-0.277	0.105
-188.158	593.890	-0.084	0.207
-187.144	-124.394	-0.188	-0.029
-186.129	-147.176	0.461	-0.039
-185.114	32.166	0.043	0.037
-184.100	-62.530	0.090	0.037
-183.085	-200.000	0.032	-0.404
-182.071	-177.077	0.437	0.011
-181.056	-78.610	0.067	0.023
-180.042	-200.000	0.001	0.240
-179.027	-85.468	-0.096	-0.030
-178.012	-141.465	-0.338	-0.034
-176.998	551.309	-0.028	-0.067
-175.983	-92.277	0.228	0.064
-174.969	425.172	0.203	-0.434
-173.954	-34.697	0.144	-0.078
-172.939	210.559	-0.129	-0.201
-171.925	98.924	0.063	-0.072
-170.910	141.260	-0.173	-0.227
-169.896	77.095	0.024	-0.025
-168.881	67.129	-0.050	-0.050
-167.866	-5.812	0.080	-0.054
-166.852	-35.156	-0.291	0.157
-165.837	772.688	0.045	0.121
-164.823	-200.000	-0.032	-0.140
-163.808	-48.208	-0.128	-0.061
-162.793	197.899	-0.149	0.225
-161.779	17.076	-0.128	-0.101
-160.764	123.361	0.177	0.221
-159.750	322.022	0.060	-0.113
-158.735	198.759	0.207	-0.314
-157.720	-91.840	-0.036	-0.010
-156.706	-27.430	0.074	-0.043
-155.691	454.764	0.099	0.217
-154.677	325.978	-0.028	0.052
-153.662	68.430	-0.226	0.230
-152.647	-29.896	0.074	0.042
-151.633	86.834	-0.172	0.188
-150.618	-63.349	0.213	-0.087
-149.604	-81.951	-0.411	-0.133
-148.589	400.484	0.086	0.179
-147.574	-61.181	-0.103	0.043
-146.560	-79.103	0.135	-0.046
-145.545	-78.943	-0.036	-0.012
-144.531	183.149	-0.335	0.491
-143.516	273.425	-0.037	0.065
-142.502	99.028	-0.187	-0.214
-141.487	-200.000	0.006	0.171
-140.472	-67.624	0.210	0.082
-139.458	26.597	0.070	-0.058
-138.443	-103.746	0.459	0.106
-137.429	-127.948	0.131	-0.019
-136.414	-84.175	0.351	-0.110
-135.399	389.031	0.042	-0.085
-134.385	-80.079	0.285	-0.095
-133.370	-30.763	-0.047	0.027
-132.356	115.117	-0.123	-0.149
-131.341	-200.000	0.017	-0.198
-130.326	-56.181	-0.183	-0.081
-129.312	-200.000	-0.026	0.119
-128.297	-87.493	0.207	0.062
-127.283	-200.000	0.009	0.224
-126.268	173.029	-0.118	-0.169
-125.253	288.111	0.059	-0.106
-124.239	77.288	-0.114	0.120
-123.224	369.297	0.106	0.213
-122.210	-11.804	0.138	0.090
-121.195	312.881	-0.090	0.168
-120.180	737.444	-0.082	-0.218
-119.166	-81.015	0.175	-0.057
-118.151	115.126	-0.070	0.085
-117.137	800.000	0.025	-0.104
-116.122	89.061	0.123	0.135
-115.107	-200.000	-0.017	0.095
-114.093	50.811	-0.383	0.359
-113.078	246.032	0.091	0.152
-112.064	-58.829	0.170	0.073
-111.049	-200.000	-0.028	0.124
-110.034	-200.000	0.001	-0.079
-109.020	-200.000	0.056	0.517
-108.005	-200.000	0.025	0.111
-106.991	-200.000	0.014	0.364
-105.976	-36.740	-0.170	-0.090
-104.962	-134.523	0.245	-0.030
-103.947	171.063	-0.118	-0.168
-102.932	-76.717	-0.122	0.042
-101.918	632.950	0.113	0.284
-100.903	-168.413	-0.105	-0.004
-99.889	-200.000	0.019	-0.095
-98.874	-200.000	0.005	0.366
-97.859	61.040	-0.343	-0.337
-96.845	249.532	-0.028	-0.047
-95.830	426.899	0.047	-0.100
-94.816	-35.938	-0.086	0.046
-93.801	37.230	-0.221	0.193
-92.786	14.880	0.136	-0.105
-91.772	-27.424	0.156	-0.090
-90.757	171.030	0.155	0.220
-89.743	350.374	-0.058	-0.114
-88.728	61.376	0.185	-0.182
-87.713	656.581	0.051	-0.129
-86.699	-200.000	-0.058	0.263
-85.684	166.987	-0.074	0.104
-84.670	800.000	0.106	-0.315
-83.655	100.099	-0.152	0.174
-82.640	292.891	0.087	-0.157
-81.626	-200.000	0.005	-0.222
-80.611	122.560	0.091	0.112
-79.597	42.745	-0.114	0.103
-78.582	-122.556	-0.219	-0.035
-77.567	-200.000	0.008	0.106
-76.553	22.008	0.125	-0.101
-75.538	-200.000	-0.030	0.172
-74.524	-200.000	-0.008	-0.064
-73.509	-56.194	0.217	-0.095
-72.494	800.000	0.066	0.227
-71.480	643.785	-0.109	-0.274
-70.465	-119.701	0.220	-0.038
-69.451	-64.869	-0.268	-0.107
-68.436	422.695	-0.037	-0.079
-67.422	-13.136	0.093	0.060
-66.407	173.478	0.073	0.103
-65.392	455.006	-0.082	-0.180
-64.378	109.777	0.071	-0.084
-63.363	-105.258	-0.325	0.073
-62.349	-27.778	-0.304	0.174
-61.334	77.401	-0.831	-0.873
-60.319	324.368	0.256	0.482
-59.305	-200.000	-0.078	-0.867
-58.290	490.072	0.463	1.045
-57.276	209.851	0.940	1.455
-56.261	-200.000	97.717	594.426
-55.246	620.721	1421.766	3530.671
-54.232	185.589	2616.729	3837.827
-53.217	117.978	2199.395	2675.505
-52.203	43.290	1731.415	1561.132
-51.188	35.998	1543.305	1340.941
-50.173	33.664	1516.335	1301.466
-49.159	53.708	1565.743	1483.932
-48.144	55.786	1584.410	1516.038
-47.130	36.342	1542.293	1342.241
-46.115	33.166	1526.954	1306.932
-45.100	32.971	1523.684	1302.738
-44.086	32.953	1521.730	1300.893
-43.071	32.854	1520.223	1298.870
-42.057	32.911	1518.533	1297.765
-41.042	32.960	1516.781	1296.551
-40.027	32.935	1515.051	1294.855
-39.013	32.902	1514.137	1293.789
-37.998	32.818	1513.000	1292.193
-36.984	32.987	1511.640	1292.136
-35.969	32.954	1510.130	1290.573
-34.954	32.909	1509.170	1289.389
-33.940	32.847	1507.633	1287.606
-32.925	32.959	1506.132	1287.035
-31.911	33.038	1504.502	1286.125
-30.896	33.060	1503.017	1284.961
-29.881	33.048	1501.631	1283.641
-28.867	33.004	1500.097	1281.977
-27.852	32.925	1499.385	1280.786
-26.838	32.945	1498.046	1279.723
-25.823	32.972	1496.397	1278.445
-24.809	33.011	1494.275	1276.848
-23.794	32.980	1492.592	1275.147
-22.779	32.903	1491.811	1273.911
-21.765	33.018	1490.491	1273.512
-20.750	32.962	1489.818	1272.511
-19.736	32.883	1488.684	1270.956
-18.721	32.762	1488.106	1269.595
-17.706	32.909	1486.729	1269.364
-16.692	32.809	1485.543	1267.629
-15.677	32.921	1484.323	1267.289
-14.663	32.818	1483.931	1266.211
-13.648	32.892	1482.995	1265.859
-12.633	32.890	1481.763	1264.740
-11.619	32.898	1480.948	1264.054
-10.604	32.839	1479.997	1262.791
-9.590	32.833	1479.535	1262.308
-8.575	32.829	1478.251	1261.139
-7.560	32.902	1477.372	1260.823
-6.546	32.777	1477.228	1259.816
-5.531	32.844	1475.975	1259.145
-4.517	32.792	1475.180	1258.069
-3.502	32.776	1474.167	1257.048
-2.487	32.876	1472.317	1256.089
-1.473	32.785	1471.736	1254.934
-0.458	32.928	1470.112	1254.456
0.556	31.947	1461.140	1245.299
1.571	29.537	1435.515	1207.615
2.586	26.329	1375.353	1136.764
3.600	24.813	1293.676	1060.187
4.615	23.254	1247.483	1013.321
5.629	20.206	1190.899	950.592
6.644	12.257	1105.653	841.861
7.659	6.087	1064.752	780.097
8.673	5.201	1059.170	771.561
9.688	5.034	1056.691	768.861
10.702	4.847	1054.928	766.591
11.717	4.839	1053.012	765.092
12.731	7.571	1055.346	780.158
13.746	15.043	1066.847	825.571
14.761	19.475	1071.415	850.935
15.775	18.671	1069.327	845.245
16.790	17.388	1066.879	836.925
17.804	16.483	1064.338	830.418
18.819	15.457	1062.657	823.997
19.834	15.074	1061.337	821.023
20.848	14.692	1060.422	818.369
21.863	14.411	1060.144	816.708
22.877	14.238	1058.740	814.704
23.892	14.157	1057.522	813.299
24.907	14.078	1057.193	812.592
25.921	14.108	1056.279	811.959
26.936	14.133	1055.553	811.454
27.950	14.041	1054.456	810.088
28.965	14.114	1053.361	809.530
29.980	14.192	1052.196	808.944
30.994	14.334	1051.125	808.740
32.009	14.400	1049.757	807.933
33.023	14.310	1049.498	807.227
34.038	14.402	1048.377	806.740
35.053	14.235	1047.728	805.361
36.067	14.156	1047.028	804.370
37.082	14.071	1046.239	803.284
38.096	14.278	1045.153	803.377
39.111	14.276	1044.626	802.889
40.126	14.355	1043.516	802.346
41.140	14.307	1042.207	801.038
42.155	14.120	1041.344	799.404
43.169	14.007	1040.758	798.343
44.184	13.827	1039.601	796.521
45.199	13.899	1038.398	795.871
46.213	14.004	1037.304	795.466
47.228	13.904	1036.413	794.233
48.242	14.165	1035.083	794.393
49.257	14.105	1034.798	793.819
50.271	14.157	1033.591	793.067
51.286	14.216	1032.467	792.418
52.301	14.333	1031.429	792.104
53.315	14.195	1030.787	790.885
54.330	14.196	1030.220	790.388
55.344	14.168	1028.983	789.237
56.359	14.066	1027.849	787.812
57.374	14.088	1027.287	787.416
58.388	13.939	1026.186	785.799
59.403	13.873	1025.881	785.181
60.417	13.931	1024.740	784.513
61.432	13.894	1024.047	783.737
62.447	13.935	1023.366	783.340
63.461	13.870	1022.415	782.238
64.476	14.058	1021.285	782.189
65.490	13.791	1020.967	780.619
66.505	13.798	1020.095	779.919
67.520	13.834	1019.154	779.298
68.534	13.964	1018.209	779.118
69.549	13.897	1017.602	778.268
70.563	13.880	1016.920	777.597
71.578	13.892	1015.966	776.858
72.593	13.832	1014.995	775.767
73.607	13.701	1014.079	774.384
74.622	13.739	1013.139	773.777
75.636	13.712	1012.090	772.781
76.651	13.684	1011.588	772.199
77.666	13.692	1010.895	771.639
78.680	13.757	1009.902	771.115
79.695	13.787	1009.523	770.898
80.709	13.873	1008.402	770.372
81.724	13.830	1008.051	769.833
82.739	13.869	1007.371	769.430
83.753	14.019	1006.634	769.493
84.768	14.054	1005.680	768.858
85.782	14.143	1005.193	768.827
86.797	14.127	1004.729	768.332
87.812	14.277	1003.750	768.204
88.826	14.253	1002.617	767.160
89.841	14.163	1002.130	766.303
90.855	14.095	1001.315	765.303
91.870	14.105	1000.928	764.982
92.884	14.213	1000.113	764.788
93.899	14.251	999.177	764.179
94.914	14.367	998.336	764.000
95.928	14.279	997.711	763.054
96.943	14.404	996.597	762.705
97.957	14.330	996.266	762.044
98.972	14.175	995.721	760.852
99.987	14.210	994.751	760.202
101.001	14.243	993.898	759.635
102.016	14.168	993.289	758.761
103.030	14.308	991.742	758.147
104.045	14.187	991.274	757.173
105.060	14.393	989.955	757.035
106.074	14.207	989.136	755.497
107.089	14.115	988.173	754.280
108.103	13.892	987.799	752.914
109.118	13.896	986.635	751.977
110.133	14.014	985.634	751.685
111.147	13.935	984.705	750.550
112.162	13.870	983.921	749.593
113.176	13.969	983.378	749.559
114.191	13.878	982.353	748.304
115.206	14.085	981.292	748.359
116.220	14.040	980.793	747.710
117.235	14.139	979.635	747.208
118.249	14.002	979.075	746.097
119.264	13.905	978.367	745.056
120.279	13.956	977.496	744.557
121.293	13.847	977.221	743.795
122.308	13.799	976.077	742.643
123.322	13.943	974.976	742.382
124.337	13.904	973.851	741.288
125.352	13.804	972.642	739.853
126.366	13.974	971.700	739.831
127.381	13.853	971.167	738.821
128.395	13.838	969.950	737.763
129.410	13.849	969.397	737.325
130.424	13.846	968.506	736.568
131.439	14.015	967.020	736.121
132.454	13.980	966.557	735.552
133.468	14.020	965.511	734.864
134.483	14.067	964.783	734.455
135.497	13.980	964.904	734.099
136.512	14.113	963.690	733.696
137.527	14.098	962.940	732.994
138.541	14.034	962.044	731.963
139.556	14.142	961.659	732.083
140.570	14.185	960.326	731.193
141.585	14.239	959.502	730.736
142.600	14.312	959.110	730.694
143.614	14.199	958.971	730.028
144.629	14.243	958.107	729.496
145.643	14.327	957.032	728.982
146.658	14.288	956.087	728.027
147.673	14.399	954.798	727.466
148.687	14.248	953.756	725.949
149.702	14.214	953.266	725.365
150.716	14.073	952.638	724.209
151.731	14.056	951.676	723.339
152.746	14.071	950.916	722.761
153.760	14.099	950.285	722.341
154.775	14.146	949.586	721.951
155.789	14.274	948.344	721.495
156.804	14.358	947.441	721.111
157.819	14.294	947.062	720.478
158.833	14.176	946.151	719.215
159.848	14.292	945.853	719.422
160.862	14.377	945.124	719.171
161.877	14.400	944.370	718.633
162.892	14.322	943.642	717.679
163.906	14.115	942.547	715.893
164.921	14.035	942.260	715.269
165.935	14.314	940.418	715.006
166.950	14.265	939.498	714.029
167.964	14.282	938.972	713.641
168.979	14.356	937.619	712.867
169.994	14.327	936.715	711.993
171.008	14.259	935.944	711.053
172.023	14.235	935.455	710.517
173.037	14.476	934.205	710.532
174.052	14.539	933.782	710.415
175.067	14.351	933.055	708.999
176.081	14.417	932.430	708.743
177.096	14.243	931.364	707.129
178.110	14.323	930.529	706.770
179.125	14.119	930.020	705.458
180.140	14.280	929.254	705.496
181.154	14.354	928.617	705.262
182.169	14.364	928.281	704.989
183.183	14.326	927.593	704.242
184.198	14.527	926.576	704.256
185.213	14.566	926.184	704.063
186.227	14.544	925.340	703.268
187.242	14.508	924.888	702.708
188.256	14.590	924.419	702.636
189.271	14.761	923.215	702.377
190.286	14.549	923.080	701.322
191.300	14.606	921.580	700.358
192.315	14.394	920.843	698.846
193.329	14.226	920.349	697.707
194.344	14.321	919.403	697.324
195.359	14.316	918.874	696.843
196.373	14.426	918.268	696.779
197.388	14.484	918.210	696.918
198.402	14.715	917.469	697.255
199.417	14.660	917.409	696.921
200.432	14.900	916.816	697.408
201.446	14.784	916.625	696.719
202.461	14.908	916.067	696.749
203.475	14.927	915.294	696.180
204.490	14.902	914.662	695.532
205.504	14.814	913.855	694.493
206.519	14.738	913.031	693.488
207.534	14.750	911.860	692.588
208.548	14.779	911.356	692.262
209.563	14.774	910.935	691.863
210.577	14.712	910.320	691.077
211.592	14.791	909.489	690.711
212.607	14.891	909.105	690.772
213.621	14.955	908.578	690.577
214.636	14.906	907.669	689.620
215.650	14.716	907.513	688.658
216.665	14.800	906.734	688.352
217.680	14.928	906.290	688.480
218.694	14.980	905.520	688.047
219.709	15.138	905.029	688.263
220.723	15.203	904.186	687.827
221.738	15.025	903.472	686.495
222.753	15.104	902.752	686.212
223.767	15.138	901.666	685.465
224.782	15.072	901.457	684.972
225.796	15.113	900.710	684.512
226.811	15.124	899.859	683.850
227.826	15.143	899.157	683.334
228.840	15.002	898.665	682.324
229.855	15.014	898.307	682.044
230.869	15.158	897.066	681.624
231.884	15.137	896.461	681.020
232.899	15.088	895.774	680.238
233.913	15.082	894.857	679.459
234.928	15.003	894.276	678.635
235.942	15.048	893.847	678.433
236.957	15.003	893.028	677.570
237.972	15.018	892.516	677.182
238.986	14.937	892.104	676.481
240.001	14.970	891.131	675.819
241.015	15.060	890.709	675.801
242.030	15.241	889.024	675.190
243.045	15.052	889.299	674.579
244.059	15.287	888.304	674.711
245.074	15.310	887.647	674.245
246.088	15.321	886.950	673.699
247.103	15.279	886.685	673.269
248.117	15.329	886.293	673.113
249.132	15.327	885.462	672.414
250.147	15.413	885.127	672.444
251.161	15.604	884.523	672.690
252.176	15.564	884.139	672.180
253.190	15.625	883.125	671.595
254.205	15.572	882.517	670.861
255.220	15.828	881.625	671.142
256.234	15.498	881.566	669.725
257.249	15.822	880.689	670.288
258.263	15.770	880.268	669.701
259.278	15.782	879.308	668.961
260.293	15.729	879.317	668.696
261.307	15.765	878.705	668.317
262.322	15.797	878.196	667.997
263.336	15.690	877.520	666.996
264.351	15.801	876.773	666.812
265.366	15.911	875.840	666.478
266.380	15.974	875.489	666.403
267.395	15.916	874.908	665.669
268.409	15.766	873.960	664.299
269.424	15.723	873.415	663.657
270.439	15.856	872.577	663.484
271.453	15.853	871.978	662.959
272.468	15.713	871.496	661.981
273.482	15.826	870.643	661.722
274.497	15.847	869.813	661.112
275.512	15.985	868.868	660.876
276.526	15.874	868.401	660.029
277.541	15.940	867.629	659.641
278.555	15.904	867.456	659.311
279.570	15.934	867.119	659.113
280.585	15.977	866.179	658.510
281.599	15.976	865.935	658.264
282.614	16.013	864.978	657.621
283.628	15.916	864.572	656.874
284.643	15.967	864.022	656.599
285.657	16.044	863.305	656.296
286.672	15.988	862.866	655.685
287.687	16.160	862.306	655.869
288.701	16.032	861.927	655.027
289.716	16.145	861.629	655.182
290.730	15.962	860.937	653.888
291.745	16.063	860.149	653.622
292.760	15.980	859.121	652.461
293.774	16.084	858.715	652.499
294.789	16.353	858.081	653.000
295.803	16.178	857.667	651.951
296.818	16.066	857.206	651.110
297.833	16.068	856.363	650.420
298.847	16.238	855.676	650.496
299.862	16.221	854.763	649.676
300.876	16.226	854.070	649.113
301.891	16.185	853.456	648.433
302.906	16.460	852.937	649.036
303.920	16.349	852.084	647.903
304.935	16.346	851.480	647.373
305.949	16.529	851.086	647.719
306.964	16.540	850.331	647.131
307.979	16.529	849.804	646.628
308.993	16.376	849.535	645.782
310.008	16.444	849.162	645.702
311.022	16.469	848.528	645.258
312.037	16.383	848.002	644.472
313.052	16.409	847.237	643.932
314.066	16.464	846.629	643.624
315.081	16.369	846.007	642.734
316.095	16.331	845.411	642.077
317.110	16.391	845.032	641.961
318.125	16.472	844.347	641.692
319.139	16.429	843.814	641.068
320.154	16.367	843.253	640.351
321.168	16.437	842.687	640.128
322.183	16.473	842.303	639.915
323.197	16.468	841.918	639.548
324.212	16.464	841.077	638.835
325.227	16.552	840.762	638.875
326.241	16.622	840.142	638.612
327.256	16.392	839.550	637.235
328.270	16.383	838.944	636.685
329.285	16.620	838.431	637.132
330.300	16.381	837.743	635.654
331.314	16.368	837.638	635.469
332.329	16.433	836.784	635.009
333.343	16.763	835.977	635.579
334.358	16.593	835.698	634.673
335.373	16.678	834.951	634.370
336.387	16.765	834.318	634.158
337.402	16.740	833.917	633.705
338.416	16.771	833.382	633.355
339.431	16.869	832.871	633.277
340.446	16.865	832.148	632.658
341.460	16.958	831.658	632.575
342.475	16.966	831.463	632.401
343.489	16.939	830.855	631.782
344.504	17.031	830.146	631.529
345.519	16.973	829.928	631.094
346.533	17.126	829.475	631.261
347.548	17.049	828.663	630.302
348.562	16.850	828.404	629.311
349.577	16.942	827.863	629.183
350.592	16.942	827.048	628.510
351.606	16.878	826.605	627.880
352.621	16.764	826.131	627.043
353.635	16.894	825.387	626.902
354.650	16.814	824.857	626.148
355.665	16.825	825.130	626.341
356.679	16.879	824.519	626.022
357.694	16.933	824.234	625.948
358.708	17.073	823.524	625.871
359.723	17.050	822.950	625.294
360.738	16.939	822.420	624.429
361.752	17.072	821.600	624.238
362.767	16.926	821.396	623.491
363.781	17.278	820.636	624.152
364.796	17.340	820.473	624.202
365.810	17.367	819.959	623.855
366.825	17.258	819.623	623.142
367.840	17.419	819.673	623.715
368.854	17.196	819.199	622.485
369.869	17.348	818.354	622.344
370.883	17.395	817.699	621.960
371.898	17.216	817.220	620.887
372.913	17.295	816.632	620.675
373.927	17.353	816.135	620.452
374.942	17.260	815.527	619.597
375.956	17.326	814.913	619.316
376.971	17.393	814.568	619.242
377.986	17.406	813.690	618.567
379.000	17.544	812.995	618.487
380.015	17.606	812.483	618.266
381.029	17.563	811.943	617.645
382.044	17.671	811.557	617.688
383.059	17.535	811.170	616.847
384.073	17.687	810.147	616.563
385.088	17.645	809.789	616.084
386.102	17.456	809.696	615.275
387.117	17.451	808.816	614.534
388.132	17.425	808.518	614.163
389.146	17.511	807.956	613.989
390.161	17.481	807.536	613.507
391.175	17.525	807.565	613.634
392.190	17.620	806.958	613.459
393.205	17.579	806.319	612.774
394.219	17.645	805.686	612.476
395.234	17.572	805.439	611.973
396.248	17.476	805.048	611.278
397.263	17.515	804.469	610.922
398.278	17.561	803.946	610.635
399.292	17.596	803.039	610.019
400.307	17.440	803.199	609.526
401.321	17.601	802.418	609.455
402.336	17.518	802.669	609.295
403.350	17.587	801.704	608.757
404.365	17.676	801.480	608.852
405.380	17.737	800.604	608.349
406.394	17.803	800.267	608.272
407.409	17.856	800.329	608.457
408.423	17.806	799.837	607.850
409.438	17.824	799.385	607.515
410.453	17.973	798.770	607.524
411.467	17.903	798.256	606.833
412.482	17.768	798.005	606.108
413.496	17.864	797.870	606.292
414.511	18.121	797.440	606.824
415.526	17.953	797.005	605.843
416.540	18.128	796.280	605.859
417.555	18.027	795.876	605.141
418.569	18.167	795.182	605.056
419.584	17.964	795.067	604.194
420.599	18.036	794.719	604.133
421.613	153.836	1370.193	1790.788
422.628	133.127	1454.037	1790.908
