DTS Sentinel unit serial number:	SN413079Multiplexer serial number:	ORYXHardware model number:	OX4-SRSoftware version number:	ORYX F/W v4.00 Oryx Data Collector v3.7.2.0data status	okinstallation	princeton_trtdifferential loss correction	single-endedforward channel	channel 3reverse channel	N/Adate	2019/09/15time	04:32:35forward acquisition time	60.00reverse acquisition time	0.00gamma	496.2192k internal	0.2324k external	0.2324temperature offset calibration	0.9971default loss term (dB/km)	0.3790temperature slope calibration	1.0000multiplexer offset coefficient	1.0000multiplexer slope coefficient	1.0000fibre end	0.00T internal ref (°C)	30.87T ext. ref 1 (°C)	4.68T ext. ref 2 (°C)	25.48length (m)	temperature (°C)	Stokes	anti-Stokes-747.200	-200.000	0.001	-0.190
-746.185	41.950	-0.346	0.317
-745.171	-52.388	-0.200	0.094
-744.156	800.000	-0.075	0.260
-743.142	38.399	-0.137	-0.123
-742.127	191.587	-0.175	0.267
-741.112	82.136	-0.174	0.191
-740.098	149.124	0.207	-0.283
-739.083	50.303	-0.042	0.040
-738.069	-200.000	0.041	0.312
-737.054	361.112	-0.061	-0.123
-736.039	-128.737	-0.259	-0.037
-735.025	385.194	0.122	0.253
-734.010	26.972	-0.204	0.172
-732.996	-28.594	-0.259	-0.151
-731.981	-200.000	0.025	-0.152
-730.966	-38.218	0.055	-0.030
-729.952	800.000	-0.045	-0.196
-728.937	-71.253	0.149	0.056
-727.923	-161.490	-0.164	-0.009
-726.908	-200.000	0.028	-0.227
-725.894	-200.000	0.012	0.064
-724.879	-200.000	-0.055	0.270
-723.864	-56.883	0.072	-0.032
-722.850	-87.023	0.316	0.097
-721.835	-51.003	-0.211	0.100
-720.821	800.000	-0.052	-0.178
-719.806	-142.298	-0.165	0.016
-718.791	-135.776	0.183	-0.022
-717.777	116.999	-0.157	0.194
-716.762	99.003	-0.248	0.289
-715.748	504.196	-0.101	-0.236
-714.733	-200.000	0.007	-0.421
-713.718	-200.000	0.036	0.262
-712.704	-200.000	0.034	0.158
-711.689	-108.816	-0.397	0.086
-710.675	34.585	-0.260	0.229
-709.660	153.029	0.224	0.309
-708.645	-100.008	0.058	-0.015
-707.631	-61.174	-0.271	-0.115
-706.616	-7.857	-0.206	0.140
-705.602	-15.900	-0.370	0.238
-704.587	-200.000	-0.019	0.179
-703.572	144.877	0.108	-0.146
-702.558	398.187	-0.102	0.215
-701.543	90.976	-0.315	0.356
-700.529	-1.609	-0.126	-0.090
-699.514	-108.857	0.375	-0.081
-698.499	197.310	-0.048	-0.073
-697.485	-200.000	0.010	0.210
-696.470	512.236	-0.035	-0.081
-695.456	800.000	0.047	0.182
-694.441	-103.470	0.197	-0.047
-693.426	132.393	-0.197	0.256
-692.412	-200.000	-0.059	0.362
-691.397	39.320	-0.230	-0.207
-690.383	-88.720	-0.208	0.062
-689.368	-200.000	0.030	0.297
-688.354	46.420	-0.106	-0.099
-687.339	598.148	-0.041	0.101
-686.324	57.320	-0.319	-0.314
-685.310	-9.148	0.015	0.010
-684.295	8.053	0.064	-0.049
-683.281	-32.821	-0.183	-0.102
-682.266	-183.093	-0.157	0.003
-681.251	-85.288	0.316	-0.099
-680.237	-200.000	-0.041	-0.274
-679.222	-130.848	-0.331	-0.045
-678.208	-68.473	0.044	0.017
-677.193	-17.401	-0.055	-0.035
-676.178	592.885	0.075	-0.186
-675.164	171.349	0.102	0.148
-674.149	-31.268	0.281	0.160
-673.135	-52.022	-0.337	-0.158
-672.120	162.586	-0.087	0.123
-671.105	245.153	0.276	-0.467
-670.091	-200.000	-0.000	-0.314
-669.076	-200.000	0.013	-0.164
-668.062	168.655	0.214	0.307
-667.047	-200.000	0.036	-0.195
-666.032	-200.000	-0.020	0.405
-665.018	800.000	0.071	0.211
-664.003	-69.011	0.120	0.047
-662.989	-200.000	0.030	0.135
-661.974	-66.169	0.280	0.112
-660.959	-109.155	0.147	0.031
-659.945	-200.000	-0.055	-0.454
-658.930	751.231	0.051	0.137
-657.916	-80.054	-0.151	0.051
-656.901	-104.775	-0.518	-0.120
-655.886	54.013	-0.099	-0.096
-654.872	-200.000	0.022	-0.318
-653.857	161.589	0.048	-0.068
-652.843	800.000	-0.087	-0.261
-651.828	355.043	0.136	0.273
-650.814	-180.019	0.316	0.007
-649.799	-200.000	-0.055	-0.374
-648.784	225.467	-0.044	-0.071
-647.770	212.389	-0.051	0.081
-646.755	-161.798	-0.268	0.014
-645.741	145.941	-0.292	0.394
-644.726	302.771	0.113	-0.210
-643.711	-9.028	-0.109	-0.073
-642.697	194.419	0.206	-0.314
-641.682	26.747	-0.231	-0.195
-640.668	-185.462	0.275	0.004
-639.653	800.000	0.048	0.158
-638.638	-114.505	-0.268	-0.052
-637.624	110.459	-0.060	0.072
-636.609	800.000	0.090	0.336
-635.595	478.006	0.148	0.336
-634.580	187.244	-0.186	-0.278
-633.565	-200.000	0.016	-0.077
-632.551	5.329	-0.410	-0.304
-631.536	-140.837	-0.054	0.006
-630.522	-200.000	0.030	-0.248
-629.507	-60.517	-0.155	-0.066
-628.492	358.552	0.194	0.389
-627.478	85.470	-0.105	-0.115
-626.463	800.000	-0.111	-0.395
-625.449	136.656	0.215	0.282
-624.434	-200.000	-0.015	-0.195
-623.419	-51.417	-0.267	0.126
-622.405	213.126	-0.088	0.140
-621.390	-200.000	-0.005	0.132
-620.376	261.122	-0.031	-0.054
-619.361	406.580	0.207	0.439
-618.346	800.000	-0.078	0.277
-617.332	800.000	0.031	-0.092
-616.317	-200.000	-0.000	-0.040
-615.303	-133.113	-0.190	0.024
-614.288	-4.477	-0.228	0.158
-613.273	-28.703	-0.228	0.132
-612.259	337.093	0.009	-0.018
-611.244	91.322	-0.118	-0.134
-610.230	-71.460	-0.229	-0.086
-609.215	209.690	0.228	0.359
-608.201	-200.000	-0.037	0.316
-607.186	-12.846	0.018	0.012
-606.171	-111.122	0.087	0.018
-605.157	-136.958	0.173	-0.020
-604.142	-200.000	0.011	0.167
-603.128	31.930	0.187	0.162
-602.113	-200.000	-0.068	0.311
-601.098	-28.579	0.233	0.135
-600.084	313.961	-0.122	-0.231
-599.069	-84.856	-0.414	0.130
-598.055	21.964	0.159	0.130
-597.040	21.250	-0.155	0.126
-596.025	-200.000	-0.011	0.286
-595.011	2.245	0.308	0.223
-593.996	-200.000	-0.023	0.167
-592.982	168.679	0.090	0.129
-591.967	800.000	0.040	-0.115
-590.952	-173.782	-0.224	-0.007
-589.938	-24.516	-0.095	-0.057
-588.923	-124.402	0.115	-0.018
-587.909	54.205	-0.073	-0.070
-586.894	42.478	-0.037	-0.034
-585.879	210.425	0.098	0.154
-584.865	-68.665	0.254	0.099
-583.850	-200.000	-0.005	-0.060
-582.836	-200.000	0.018	0.103
-581.821	287.858	-0.156	0.284
-580.806	-52.809	0.039	-0.018
-579.792	-200.000	0.059	0.474
-578.777	-137.840	0.027	-0.003
-577.763	-200.000	-0.008	-0.080
-576.748	119.817	0.171	-0.213
-575.733	-200.000	0.017	-0.338
-574.719	-95.309	0.189	-0.051
-573.704	800.000	0.096	-0.345
-572.690	-98.205	0.234	-0.060
-571.675	-79.271	-0.242	-0.082
-570.661	247.475	-0.144	-0.244
-569.646	-200.000	-0.033	0.168
-568.631	-47.370	-0.078	-0.038
-567.617	-200.000	0.015	0.130
-566.602	-128.663	-0.119	0.017
-565.588	99.782	0.331	0.384
-564.573	110.730	-0.074	-0.089
-563.558	800.000	0.015	-0.048
-562.544	-81.760	-0.309	0.101
-561.529	1.949	-0.324	0.234
-560.515	70.048	-0.194	-0.201
-559.500	-149.135	-0.206	0.017
-558.485	194.789	-0.044	-0.067
-557.471	74.723	0.197	0.208
-556.456	-200.000	0.047	0.208
-555.442	-112.697	0.186	-0.037
-554.427	16.765	-0.329	-0.261
-553.412	319.496	-0.111	-0.211
-552.398	-200.000	0.022	-0.249
-551.383	800.000	0.076	0.230
-550.369	800.000	0.058	-0.220
-549.354	171.835	0.087	-0.126
-548.339	-133.535	-0.103	0.013
-547.325	800.000	-0.044	0.159
-546.310	215.241	-0.213	0.338
-545.296	-103.400	0.100	-0.024
-544.281	403.646	-0.189	-0.398
-543.266	800.000	0.022	0.068
-542.252	726.602	-0.079	0.210
-541.237	-50.700	-0.330	0.155
-540.223	-200.000	0.246	0.001
-539.208	-64.840	-0.138	-0.056
-538.193	-200.000	-0.019	0.096
-537.179	-55.071	0.047	-0.021
-536.164	412.152	0.093	-0.198
-535.150	92.274	0.183	-0.207
-534.135	800.000	-0.094	-0.282
-533.121	63.272	-0.049	0.049
-532.106	-200.000	0.021	0.103
-531.091	75.910	-0.265	0.281
-530.077	800.000	0.045	-0.174
-529.062	-23.559	-0.202	-0.121
-528.048	-119.413	-0.376	0.065
-527.033	330.867	0.090	-0.173
-526.018	-200.000	-0.033	0.162
-525.004	-147.089	0.129	-0.011
-523.989	127.594	0.093	0.119
-522.975	41.049	-0.241	-0.218
-521.960	-59.346	0.109	-0.047
-520.945	261.580	-0.034	0.059
-519.931	-200.000	-0.028	-0.267
-518.916	-122.957	0.162	0.026
-517.902	800.000	-0.098	0.288
-516.887	-182.489	-0.245	-0.005
-515.872	-165.972	-0.225	0.010
-514.858	-200.000	-0.010	-0.174
-513.843	273.815	0.150	0.266
-512.829	-200.000	-0.012	-0.190
-511.814	-64.099	-0.085	-0.035
-510.799	65.516	-0.073	0.073
-509.785	-134.897	0.099	0.012
-508.770	800.000	0.013	-0.055
-507.756	-89.695	-0.312	0.091
-506.741	36.202	0.165	-0.146
-505.726	-150.199	-0.186	-0.014
-504.712	-115.932	-0.457	0.085
-503.697	800.000	0.046	-0.181
-502.683	-200.000	-0.171	0.000
-501.668	230.102	0.154	-0.252
-500.653	50.895	-0.189	0.179
-499.639	-171.111	0.043	0.001
-498.624	40.216	-0.068	-0.061
-497.610	-95.415	-0.360	0.097
-496.595	-147.530	0.351	-0.030
-495.581	-140.014	-0.165	-0.017
-494.566	-42.011	0.294	0.151
-493.551	-200.000	-0.025	0.173
-492.537	-5.501	0.216	-0.149
-491.522	12.191	0.373	-0.287
-490.508	-17.409	0.042	0.026
-489.493	-155.630	-0.152	0.010
-488.478	-120.826	-0.382	0.064
-487.464	-189.359	-0.216	-0.003
-486.449	392.125	-0.096	-0.199
-485.435	632.669	0.149	-0.377
-484.420	-200.000	0.024	0.204
-483.405	800.000	0.060	-0.220
-482.391	121.290	0.168	-0.210
-481.376	165.730	0.120	0.169
-480.362	-63.016	0.107	0.044
-479.347	-129.236	-0.370	0.052
-478.332	-200.000	0.031	0.469
-477.318	-140.427	0.248	-0.026
-476.303	-200.000	0.015	-0.149
-475.289	4.216	-0.141	0.103
-474.274	271.522	-0.196	0.345
-473.259	184.313	0.042	0.062
-472.245	-182.792	0.135	-0.002
-471.230	-200.000	0.019	0.264
-470.216	12.497	0.125	-0.096
-469.201	-200.000	-0.016	0.367
-468.186	50.808	0.047	-0.045
-467.172	-105.810	0.147	-0.033
-466.157	-58.851	-0.291	0.126
-465.143	-125.962	-0.232	0.035
-464.128	-86.118	-0.202	-0.062
-463.113	-73.552	0.081	0.029
-462.099	800.000	0.040	0.133
-461.084	228.945	0.020	0.033
-460.070	-200.000	-0.010	0.157
-459.055	91.007	0.156	0.174
-458.040	-200.000	-0.019	-0.223
-457.026	-200.000	-0.092	-0.487
-456.011	-129.251	-0.248	-0.034
-454.997	-127.622	0.027	0.004
-453.982	-200.000	-0.031	-0.220
-452.968	102.969	0.039	-0.045
-451.953	-10.108	-0.154	-0.102
-450.938	-200.000	0.001	0.171
-449.924	-92.959	0.372	0.104
-448.909	610.615	0.074	0.185
-447.895	-167.474	-0.187	-0.007
-446.880	-200.000	0.015	0.193
-445.865	511.336	0.074	0.171
-444.851	28.017	-0.089	-0.075
-443.836	-36.588	-0.129	-0.069
-442.822	800.000	-0.099	-0.340
-441.807	200.758	-0.162	0.249
-440.792	-40.979	-0.310	0.160
-439.778	-200.000	0.027	-0.232
-438.763	76.803	-0.098	0.104
-437.749	32.671	0.330	-0.285
-436.734	187.639	0.163	-0.242
-435.719	-200.000	0.259	0.001
-434.705	-10.576	-0.231	0.152
-433.690	800.000	-0.037	-0.116
-432.676	312.828	-0.201	0.377
-431.661	50.405	0.239	0.226
-430.646	-200.000	-0.023	0.292
-429.632	-138.774	-0.356	0.039
-428.617	-124.932	0.200	-0.031
-427.603	77.047	-0.120	-0.127
-426.588	136.965	0.088	-0.115
-425.573	122.880	-0.159	0.199
-424.559	9.986	0.409	-0.310
-423.544	60.916	0.360	-0.356
-422.530	118.426	-0.025	-0.030
-421.515	-200.000	-0.023	0.219
-420.500	-161.801	0.298	0.015
-419.486	-81.363	0.084	0.028
-418.471	-108.111	-0.109	-0.023
-417.457	-117.697	-0.135	0.024
-416.442	-56.802	0.230	0.102
-415.428	-15.337	-0.116	0.074
-414.413	-116.871	0.193	0.035
-413.398	-107.942	0.450	-0.098
-412.384	248.425	0.164	-0.276
-411.369	65.709	0.118	-0.120
-410.355	-200.000	0.022	-0.219
-409.340	1.790	0.085	0.061
-408.325	254.820	-0.068	-0.116
-407.311	-15.321	-0.171	-0.109
-406.296	23.143	-0.254	-0.208
-405.282	-61.135	0.235	0.099
-404.267	563.569	0.024	0.059
-403.252	15.831	-0.093	0.073
-402.238	553.916	0.060	-0.144
-401.223	-127.043	-0.142	0.021
-400.209	211.349	0.182	0.285
-399.194	-124.668	-0.247	0.038
-398.179	-76.672	-0.210	-0.073
-397.165	-65.180	-0.180	0.072
-396.150	-133.898	-0.184	-0.023
-395.136	-60.637	-0.183	-0.077
-394.121	168.263	0.099	0.140
-393.106	253.281	0.126	0.213
-392.092	-134.825	0.123	-0.015
-391.077	267.332	-0.105	-0.182
-390.063	800.000	-0.039	0.158
-389.048	513.219	0.170	0.395
-388.033	15.635	-0.271	0.212
-387.019	-42.218	-0.200	0.102
-386.004	-50.209	-0.102	-0.048
-384.990	-200.000	0.039	-0.313
-383.975	800.000	-0.088	0.292
-382.960	-200.000	-0.001	0.239
-381.946	-111.315	-0.097	-0.020
-380.931	-45.321	0.282	-0.139
-379.917	-149.834	0.282	-0.022
-378.902	-135.695	0.497	0.059
-377.888	-160.680	-0.351	-0.019
-376.873	-200.000	0.001	0.363
-375.858	64.566	0.125	0.126
-374.844	410.492	-0.054	-0.113
-373.829	199.036	-0.079	0.120
-372.815	-21.960	0.307	-0.186
-371.800	-147.577	0.135	-0.011
-370.785	765.303	0.089	0.242
-369.771	-200.000	0.008	0.376
-368.756	-168.348	0.261	-0.010
-367.742	-95.800	0.143	0.038
-366.727	-103.881	0.076	-0.018
-365.712	-200.000	-0.023	-0.233
-364.698	13.760	-0.197	-0.153
-363.683	194.948	-0.100	-0.152
-362.669	79.300	0.357	-0.381
-361.654	800.000	-0.032	-0.112
-360.639	-26.380	-0.185	-0.108
-359.625	127.346	0.153	0.193
-358.610	-200.000	0.022	-0.151
-357.596	237.868	-0.036	0.059
-356.581	-7.193	0.248	-0.167
-355.566	-139.662	-0.245	-0.026
-354.552	85.598	-0.021	-0.023
-353.537	-47.911	-0.268	-0.129
-352.523	206.025	0.017	0.027
-351.508	194.759	0.177	0.266
-350.493	-200.000	-0.045	0.200
-349.479	-64.456	0.074	0.030
-348.464	169.889	-0.104	0.148
-347.450	255.436	-0.051	0.087
-346.435	-107.525	-0.533	0.116
-345.420	-9.177	0.270	0.179
-344.406	300.172	-0.241	-0.443
-343.391	-200.000	-0.017	0.192
-342.377	-174.464	0.231	-0.007
-341.362	-120.436	-0.295	0.050
-340.348	-131.212	-0.133	-0.018
-339.333	-6.834	-0.190	-0.128
-338.318	39.297	-0.108	0.096
-337.304	17.676	-0.212	-0.168
-336.289	-148.461	-0.017	-0.001
-335.275	99.890	-0.035	0.041
-334.260	-34.681	0.344	0.187
-333.245	145.599	0.167	0.222
-332.231	54.015	-0.245	-0.234
-331.216	-200.000	0.015	-0.293
-330.202	-101.099	-0.186	-0.045
-329.187	-97.947	0.314	-0.081
-328.172	-51.782	0.248	-0.115
-327.158	286.286	0.055	0.098
-326.143	800.000	0.050	0.212
-325.129	-41.785	0.201	-0.103
-324.114	57.072	0.142	-0.138
-323.099	-200.000	0.033	-0.322
-322.085	278.414	-0.127	-0.225
-321.070	-200.000	-0.087	0.436
-320.056	146.255	0.148	-0.197
-319.041	190.564	0.130	0.194
-318.026	-200.000	0.025	-0.195
-317.012	172.944	-0.168	-0.240
-315.997	172.975	-0.271	-0.387
-314.983	-8.261	0.311	-0.208
-313.968	61.122	0.013	-0.013
-312.953	14.049	-0.437	0.338
-311.939	-173.933	-0.230	-0.007
-310.924	-13.996	0.130	0.083
-309.910	-62.616	0.209	0.086
-308.895	168.240	0.081	-0.115
-307.880	-157.229	0.413	0.025
-306.866	400.450	0.154	-0.320
-305.851	-200.000	0.044	0.209
-304.837	391.519	0.024	-0.050
-303.822	-200.000	-0.037	0.272
-302.807	504.039	0.069	-0.157
-301.793	800.000	0.018	0.057
-300.778	-200.000	-0.012	-0.332
-299.764	-200.000	0.020	0.124
-298.749	186.447	-0.086	0.128
-297.735	-13.716	-0.129	-0.083
-296.720	-64.395	-0.190	0.077
-295.705	-78.918	-0.158	0.053
-294.691	137.333	0.112	0.145
-293.676	55.146	-0.165	0.158
-292.662	-60.519	0.032	0.014
-291.647	-48.434	-0.137	0.065
-290.632	-94.022	0.107	0.029
-289.618	174.153	0.220	-0.315
-288.603	-151.270	-0.030	0.002
-287.589	34.121	-0.107	-0.092
-286.574	-200.000	-0.016	-0.396
-285.559	-116.008	0.249	0.046
-284.545	-200.000	0.007	-0.274
-283.530	371.077	-0.157	0.317
-282.516	-200.000	0.006	0.112
-281.501	-6.075	0.171	0.116
-280.486	-103.311	0.356	0.083
-279.472	-55.427	-0.226	-0.100
-278.457	-64.214	-0.288	0.117
-277.443	54.727	0.194	0.186
-276.428	9.787	0.362	-0.272
-275.413	-121.807	0.012	0.002
-274.399	39.411	-0.102	0.090
-273.384	90.513	0.060	-0.067
-272.370	221.137	0.092	-0.146
-271.355	-200.000	-0.036	-0.305
-270.340	66.164	-0.199	-0.200
-269.326	-200.000	0.001	-0.174
-268.311	800.000	-0.047	0.172
-267.297	-44.501	-0.263	-0.131
-266.282	800.000	0.098	-0.310
-265.267	800.000	0.055	-0.186
-264.253	-200.000	0.025	-0.177
-263.238	228.243	-0.151	-0.244
-262.224	216.235	0.046	-0.073
-261.209	-200.000	0.014	0.223
-260.195	23.123	-0.155	-0.126
-259.180	70.827	-0.110	-0.113
-258.165	-200.000	0.053	0.265
-257.151	-200.000	0.051	-0.380
-256.136	-63.794	-0.287	-0.117
-255.122	800.000	-0.019	-0.062
-254.107	-92.986	0.270	-0.075
-253.092	-112.721	0.165	-0.032
-252.078	-169.537	0.188	0.007
-251.063	768.345	0.060	0.161
-250.049	29.911	-0.149	-0.126
-249.034	-64.789	-0.297	-0.119
-248.019	422.760	0.070	0.149
-247.005	228.183	-0.067	0.109
-245.990	-189.961	0.185	0.002
-244.976	-194.072	-0.119	0.001
-243.961	800.000	-0.047	-0.154
-242.946	-200.000	-0.002	0.186
-241.932	800.000	-0.048	0.140
-240.917	187.454	-0.126	-0.186
-239.903	-74.852	-0.219	0.078
-238.888	-200.000	0.031	0.177
-237.873	800.000	-0.089	-0.337
-236.859	-200.000	0.039	-0.182
-235.844	310.644	0.079	0.147
-234.830	-63.701	0.229	0.093
-233.815	-200.000	-0.030	-0.269
-232.800	75.166	0.259	0.271
-231.786	710.999	0.061	0.160
-230.771	-46.178	0.447	-0.218
-229.757	-63.743	0.224	0.091
-228.742	-103.137	0.311	-0.073
-227.727	-68.950	-0.224	0.085
-226.713	791.968	0.101	0.275
-225.698	70.420	0.273	0.279
-224.684	800.000	0.078	-0.254
-223.669	92.236	-0.045	0.050
-222.655	7.067	-0.142	-0.105
-221.640	-86.063	0.340	0.104
-220.625	-117.145	-0.210	0.038
-219.611	15.047	-0.093	0.072
-218.596	-200.000	0.034	-0.304
-217.582	47.874	0.235	-0.217
-216.567	-82.318	0.266	0.085
-215.552	-86.801	0.426	-0.129
-214.538	12.810	-0.092	0.071
-213.523	32.874	0.217	0.186
-212.509	291.631	-0.024	-0.043
-211.494	215.589	-0.264	-0.415
-210.479	800.000	0.040	-0.152
-209.465	-77.486	-0.099	-0.034
-208.450	-73.791	0.222	-0.080
-207.436	261.657	-0.173	-0.296
-206.421	-200.000	0.019	-0.093
-205.406	98.898	0.240	-0.274
-204.392	-200.000	-0.035	0.200
-203.377	-200.000	-0.050	-0.228
-202.363	-170.110	0.040	-0.001
-201.348	-200.000	0.045	-0.217
-200.333	29.150	-0.221	-0.185
-199.319	800.000	0.073	0.298
-198.304	800.000	-0.011	0.037
-197.290	-116.030	0.412	-0.076
-196.275	-144.152	0.501	0.046
-195.260	416.953	-0.082	-0.172
-194.246	-168.887	0.126	0.005
-193.231	-200.000	0.023	0.138
-192.217	105.146	0.193	0.226
-191.202	123.117	0.170	0.211
-190.187	-48.986	-0.255	0.121
-189.173	-146.182	-0.048	0.004
-188.158	54.267	-0.314	0.298
-187.144	-133.630	-0.122	0.015
-186.129	110.604	-0.133	-0.158
-185.114	-118.841	-0.273	0.047
-184.100	-85.896	0.203	-0.062
-183.085	-183.597	0.036	-0.001
-182.071	530.411	0.052	0.121
-181.056	-200.000	-0.023	0.309
-180.042	2.072	0.211	0.150
-179.027	-29.254	0.370	0.209
-178.012	205.079	0.098	0.151
-176.998	-2.643	-0.087	0.060
-175.983	-14.344	0.203	0.129
-174.969	61.574	0.008	-0.008
-173.954	175.928	-0.029	0.041
-172.939	-33.400	0.375	-0.205
-171.925	-109.328	-0.026	-0.005
-170.910	-89.269	-0.267	0.078
-169.896	37.589	0.082	-0.072
-168.881	197.902	-0.092	-0.138
-167.866	139.806	-0.157	-0.204
-166.852	-66.652	-0.207	0.081
-165.837	-155.121	-0.130	-0.008
-164.823	330.419	0.104	0.197
-163.808	5.081	0.323	0.234
-162.793	-22.105	0.194	0.116
-161.779	62.930	-0.143	0.142
-160.764	800.000	0.078	-0.258
-159.750	-66.009	-0.174	-0.069
-158.735	-30.346	-0.084	-0.047
-157.720	-100.602	-0.036	0.009
-156.706	-61.557	0.344	-0.143
-155.691	-50.152	0.155	-0.072
-154.677	-172.591	0.048	-0.001
-153.662	19.749	0.150	-0.119
-152.647	70.746	-0.239	-0.244
-151.633	437.655	-0.092	0.197
-150.618	56.558	0.262	0.251
-149.604	-133.353	-0.131	-0.016
-148.589	-200.000	0.007	-0.059
-147.574	74.752	0.054	0.056
-146.560	-115.832	-0.210	-0.039
-145.545	639.251	-0.064	-0.161
-144.531	713.323	0.055	0.143
-143.516	-200.000	-0.023	-0.211
-142.502	122.267	0.166	-0.205
-141.487	-196.149	0.033	0.000
-140.472	47.408	0.232	-0.213
-139.458	8.885	0.024	0.018
-138.443	-94.572	-0.068	0.018
-137.429	91.162	0.108	-0.120
-136.414	313.502	-0.103	0.190
-135.399	729.095	0.128	0.337
-134.385	136.728	-0.028	0.036
-133.370	395.290	0.204	-0.419
-132.356	-106.061	-0.223	-0.049
-131.341	-66.289	0.151	-0.059
-130.326	-200.000	0.024	0.505
-129.312	487.210	-0.101	0.228
-128.297	-170.366	0.245	-0.008
-127.283	800.000	0.071	-0.301
-126.268	6.366	-0.099	0.073
-125.253	-70.547	-0.219	0.082
-124.239	125.956	-0.195	-0.242
-123.224	361.191	-0.065	-0.129
-122.210	-118.412	-0.182	-0.032
-121.195	800.000	0.087	0.344
-120.180	133.874	-0.293	-0.373
-119.166	-116.562	0.071	0.013
-118.151	-157.535	-0.234	-0.014
-117.137	241.043	0.056	0.092
-116.122	29.529	0.249	-0.208
-115.107	-167.707	-0.169	0.007
-114.093	281.461	0.141	0.249
-113.078	712.251	-0.082	-0.215
-112.064	3.451	0.205	-0.147
-111.049	-76.812	0.178	0.061
-110.034	800.000	-0.071	-0.202
-109.020	259.592	0.218	0.371
-108.005	268.933	-0.091	0.157
-106.991	4.109	0.136	-0.098
-105.976	-156.584	0.257	-0.016
-104.962	-35.390	0.043	0.023
-103.947	-200.000	-0.025	0.371
-102.932	-4.601	0.205	-0.140
-101.918	12.175	-0.183	0.138
-100.903	800.000	-0.153	0.539
-99.889	-152.293	0.079	0.006
-98.874	800.000	0.032	0.122
-97.859	-200.000	0.033	0.173
-96.845	-200.000	-0.001	-0.304
-95.830	-39.362	-0.383	0.198
-94.816	-86.369	0.337	0.102
-93.801	-22.356	0.151	0.090
-92.786	149.358	-0.224	0.298
-91.772	-200.000	0.030	0.209
-90.757	239.445	0.131	-0.215
-89.743	-82.531	-0.220	-0.070
-88.728	800.000	0.036	0.111
-87.713	-200.000	0.088	-0.414
-86.699	-23.080	0.182	0.108
-85.684	35.532	0.177	0.153
-84.670	62.461	-0.197	0.193
-83.655	506.305	-0.081	0.184
-82.640	-26.839	-0.243	0.140
-81.626	663.841	0.107	0.271
-80.611	-200.000	-0.014	0.404
-79.597	-200.000	0.024	0.139
-78.582	-117.998	-0.184	-0.032
-77.567	-61.335	0.210	-0.087
-76.553	100.462	0.144	0.164
-75.538	302.040	0.020	0.036
-74.524	72.295	-0.187	-0.192
-73.509	-200.000	-0.044	0.390
-72.494	-74.276	0.288	0.102
-71.480	-200.000	0.014	-0.112
-70.465	-21.163	0.054	0.033
-69.451	104.592	-0.240	-0.278
-68.436	21.348	0.017	-0.014
-67.422	-81.286	-0.184	0.060
-66.407	-200.000	0.032	-0.285
-65.392	373.840	-0.212	0.425
-64.378	186.988	0.084	-0.123
-63.363	494.782	-0.101	-0.228
-62.349	-200.000	-0.014	0.106
-61.334	75.536	-0.701	-0.727
-60.319	98.705	0.518	0.588
-59.305	409.331	-0.507	-1.056
-58.290	250.452	0.634	1.059
-57.276	395.666	0.586	1.201
-56.261	-200.000	102.392	592.551
-55.246	562.914	1422.874	3384.657
-54.232	189.463	2609.772	3844.606
-53.217	116.314	2165.185	2607.553
-52.203	41.625	1696.613	1510.112
-51.188	34.034	1506.637	1289.729
-50.173	31.672	1479.530	1250.718
-49.159	51.530	1531.979	1430.584
-48.144	53.138	1549.919	1458.219
-47.130	34.267	1507.496	1291.840
-46.115	31.137	1493.060	1258.348
-45.100	30.936	1489.247	1253.737
-44.086	30.836	1487.519	1251.562
-43.071	30.901	1485.264	1250.046
-42.057	30.850	1483.816	1248.438
-41.042	30.907	1481.651	1246.949
-40.027	30.920	1480.584	1246.089
-39.013	30.810	1479.545	1244.427
-37.998	30.799	1478.110	1243.100
-36.984	30.767	1476.749	1241.690
-35.969	30.867	1474.973	1240.813
-34.954	30.859	1473.680	1239.627
-33.940	30.897	1472.961	1239.222
-32.925	30.876	1471.467	1237.780
-31.911	30.844	1470.025	1236.303
-30.896	31.017	1468.395	1236.032
-29.881	31.016	1467.556	1235.270
-28.867	30.994	1465.556	1233.390
-27.852	30.853	1465.550	1232.406
-26.838	30.937	1463.283	1231.005
-25.823	30.957	1461.791	1229.830
-24.809	30.948	1460.116	1228.317
-23.794	30.950	1458.899	1227.254
-22.779	30.991	1457.581	1226.364
-21.765	30.988	1456.857	1225.687
-20.750	30.910	1455.627	1224.093
-19.736	30.797	1454.973	1222.750
-18.721	30.852	1453.630	1221.938
-17.706	30.870	1452.459	1221.024
-16.692	30.840	1451.550	1220.011
-15.677	30.869	1449.799	1218.682
-14.663	30.884	1449.026	1218.080
-13.648	30.861	1448.471	1217.415
-12.633	30.802	1447.084	1215.816
-11.619	30.878	1446.707	1215.947
-10.604	30.894	1445.367	1214.876
-9.590	30.780	1445.028	1213.799
-8.575	30.807	1444.079	1213.133
-7.560	30.901	1443.030	1212.818
-6.546	30.822	1442.269	1211.616
-5.531	30.859	1441.475	1211.137
-4.517	30.876	1440.131	1210.073
-3.502	30.821	1439.318	1208.981
-2.487	30.843	1438.789	1208.633
-1.473	30.828	1437.292	1207.232
-0.458	30.871	1435.962	1206.347
0.556	29.549	1426.402	1195.103
1.571	26.645	1401.313	1155.486
2.586	23.235	1342.932	1086.360
3.600	21.579	1262.645	1011.758
4.615	20.266	1216.733	967.569
5.629	17.631	1161.593	909.588
6.644	10.654	1080.085	810.947
7.659	5.372	1042.461	757.101
8.673	4.810	1037.054	750.398
9.688	4.736	1033.763	747.596
10.702	4.635	1032.144	745.874
11.717	4.540	1030.499	744.167
12.731	6.499	1031.691	754.345
13.746	13.059	1041.043	792.710
14.761	17.876	1046.896	820.300
15.775	18.335	1045.918	821.664
16.790	17.186	1044.089	814.647
17.804	16.314	1041.659	808.508
18.819	15.399	1040.068	802.822
19.834	14.813	1039.206	799.287
20.848	14.638	1037.617	797.156
21.863	14.450	1036.871	795.615
22.877	14.080	1036.602	793.575
23.892	14.004	1035.370	792.197
24.907	14.055	1034.436	791.656
25.921	14.033	1033.608	790.846
26.936	13.885	1033.887	790.287
27.950	13.954	1032.474	789.465
28.965	13.994	1031.178	788.594
29.980	14.302	1029.870	788.985
30.994	14.311	1028.395	787.824
32.009	14.246	1027.969	787.125
33.023	14.312	1027.067	786.675
34.038	14.362	1026.125	786.117
35.053	14.217	1025.421	784.825
36.067	14.128	1024.377	783.536
37.082	14.187	1023.591	783.146
38.096	14.131	1023.084	782.425
39.111	14.234	1022.226	782.183
40.126	14.294	1021.231	781.635
41.140	14.109	1020.275	779.969
42.155	13.952	1019.192	778.333
43.169	13.916	1017.702	776.960
44.184	13.887	1017.113	776.304
45.199	13.990	1015.727	775.659
46.213	13.966	1014.568	774.594
47.228	13.902	1014.225	773.966
48.242	14.053	1013.234	773.842
49.257	14.116	1012.097	773.201
50.271	14.005	1011.447	772.119
51.286	14.053	1010.499	771.550
52.301	14.101	1009.724	771.112
53.315	14.092	1008.835	770.325
54.330	14.196	1007.665	769.843
55.344	14.011	1007.164	768.536
56.359	14.026	1005.920	767.588
57.374	13.978	1005.086	766.663
58.388	13.951	1004.662	766.148
59.403	13.891	1003.908	765.229
60.417	13.864	1002.875	764.247
61.432	13.729	1002.611	763.359
62.447	13.742	1001.332	762.378
63.461	13.803	1000.481	761.940
64.476	13.788	999.845	761.320
65.490	13.804	998.490	760.297
66.505	13.815	997.496	759.520
67.520	13.828	997.605	759.596
68.534	13.751	996.689	758.482
69.549	13.760	996.176	758.063
70.563	13.827	995.038	757.435
71.578	13.803	994.492	756.846
72.593	13.880	993.382	756.282
73.607	13.693	992.437	754.647
74.622	13.792	991.932	754.646
75.636	13.714	990.668	753.264
76.651	13.705	990.144	752.757
77.666	13.690	989.598	752.209
78.680	13.797	988.678	751.926
79.695	13.741	988.322	751.335
80.709	13.824	987.557	751.064
81.724	13.762	987.089	750.360
82.739	13.905	986.327	750.361
83.753	13.880	985.853	749.821
84.768	14.091	984.453	749.641
85.782	14.249	983.915	749.878
86.797	14.338	983.067	749.565
87.812	14.209	982.492	748.482
88.826	14.108	981.740	747.388
89.841	14.039	980.860	746.339
90.855	14.069	980.266	745.957
91.870	14.120	979.182	745.294
92.884	14.224	978.658	745.296
93.899	14.266	977.916	744.854
94.914	14.211	976.721	743.631
95.928	14.277	976.561	743.737
96.943	14.314	975.427	742.974
97.957	14.368	974.719	742.609
98.972	14.204	973.966	741.238
99.987	14.168	973.301	740.506
101.001	14.336	972.374	740.483
102.016	14.154	971.923	739.265
103.030	14.216	970.666	738.518
104.045	14.185	969.792	737.651
105.060	14.244	969.074	737.301
106.074	14.164	968.121	736.158
107.089	14.178	966.983	735.288
108.103	13.980	966.284	733.819
109.118	13.983	965.402	733.095
110.133	13.867	964.600	731.910
111.147	13.758	963.973	730.889
112.162	13.927	962.519	730.468
113.176	14.007	961.754	730.175
114.191	14.108	961.107	730.060
115.206	14.209	959.941	729.554
116.220	13.983	958.992	727.779
117.235	13.968	958.746	727.463
118.249	13.849	958.009	726.318
119.264	13.976	956.438	725.618
120.279	14.012	955.753	725.189
121.293	13.999	955.102	724.573
122.308	13.919	954.523	723.721
123.322	13.811	954.077	722.851
124.337	13.803	952.495	721.553
125.352	13.891	951.611	721.201
126.366	13.783	950.701	719.981
127.381	13.845	949.798	719.499
128.395	13.876	948.630	718.685
129.410	13.903	947.378	717.791
130.424	13.892	946.771	717.218
131.439	13.993	946.371	717.288
132.454	14.008	945.418	716.569
133.468	14.033	944.550	715.956
134.483	13.906	944.351	715.194
135.497	13.981	943.691	714.954
136.512	13.902	942.728	713.822
137.527	14.095	941.884	713.948
138.541	13.981	940.801	712.576
139.556	13.967	940.592	712.294
140.570	13.983	939.697	711.621
141.585	14.016	938.889	711.087
142.600	14.137	938.290	711.091
143.614	14.214	937.153	710.494
144.629	14.092	936.661	709.536
145.643	14.250	936.066	709.696
146.658	14.293	934.882	708.921
147.673	14.231	933.916	707.860
148.687	13.937	933.254	706.048
149.702	14.140	931.978	705.878
150.716	14.116	931.311	705.210
151.731	14.093	930.576	704.493
152.746	14.137	929.732	703.978
153.760	14.174	929.168	703.647
154.775	14.044	928.826	702.776
155.789	14.149	928.099	702.608
156.804	14.154	927.256	701.929
157.819	14.195	926.139	701.194
158.833	14.100	925.793	700.469
159.848	14.188	925.331	700.428
160.862	14.371	924.317	700.368
161.877	14.352	923.476	699.590
162.892	14.308	922.420	698.542
163.906	14.244	921.618	697.604
164.921	14.178	920.769	696.622
165.935	14.187	919.778	695.849
166.950	14.120	918.941	694.875
167.964	14.185	918.379	694.663
168.979	14.207	917.247	693.832
169.994	14.255	915.987	693.022
171.008	14.256	915.611	692.681
172.023	14.275	914.833	692.107
173.037	14.288	913.826	691.338
174.052	14.405	913.331	691.386
175.067	14.365	912.979	690.895
176.081	14.452	911.572	690.130
177.096	14.114	911.158	688.354
178.110	14.186	910.082	687.778
179.125	14.213	909.431	687.339
180.140	14.174	908.994	686.788
181.154	14.300	907.810	686.350
182.169	14.265	907.790	686.132
183.183	14.506	907.077	686.522
184.198	14.430	906.303	685.565
185.213	14.313	905.872	684.697
186.227	14.402	905.205	684.497
187.242	14.397	904.730	684.056
188.256	14.491	904.090	683.897
189.271	14.586	903.379	683.687
190.286	14.632	902.124	682.866
191.300	14.453	901.788	681.820
192.315	14.244	900.633	680.034
193.329	14.196	899.908	679.230
194.344	14.252	899.483	679.079
195.359	14.303	898.909	678.792
196.373	14.395	898.470	678.772
197.388	14.501	897.942	678.748
198.402	14.441	897.880	678.394
199.417	14.658	897.472	678.911
200.432	14.696	897.141	678.752
201.446	14.764	896.411	678.420
202.461	14.777	896.400	678.402
203.475	14.798	895.613	677.833
204.490	14.803	894.635	677.051
205.504	14.758	894.078	676.390
206.519	14.815	892.959	675.712
207.534	14.653	892.597	674.723
208.548	14.676	891.250	673.741
209.563	14.681	891.103	673.589
210.577	14.632	890.697	673.025
211.592	14.773	889.569	672.678
212.607	14.769	889.382	672.464
213.621	14.941	888.659	672.550
214.636	14.987	887.599	671.872
215.650	14.892	887.188	671.120
216.665	14.845	887.050	670.769
217.680	14.864	886.437	670.323
218.694	15.015	886.253	670.728
219.709	15.098	885.384	670.341
220.723	14.974	884.576	669.175
221.738	14.883	884.040	668.349
222.753	14.971	883.355	668.123
223.767	14.826	882.847	667.099
224.782	15.014	881.708	666.931
225.796	15.076	881.477	666.942
226.811	15.166	880.634	666.605
227.826	15.001	879.931	665.356
228.840	15.124	879.244	665.265
229.855	14.975	878.409	663.986
230.869	14.979	877.785	663.471
231.884	15.098	876.983	663.278
232.899	14.980	876.769	662.588
233.913	15.021	875.765	661.932
234.928	14.930	875.133	661.037
235.942	14.978	874.444	660.647
236.957	14.936	873.716	659.876
237.972	14.820	873.537	659.224
238.986	14.926	872.712	658.960
240.001	14.938	871.897	658.332
241.015	15.015	871.360	658.174
242.030	15.052	870.912	657.923
243.045	15.120	870.064	657.492
244.059	15.084	869.345	656.747
245.074	15.166	868.520	656.387
246.088	15.102	867.995	655.681
247.103	15.149	867.488	655.426
248.117	15.254	867.085	655.473
249.132	15.214	866.741	654.999
250.147	15.301	865.995	654.717
251.161	15.517	865.225	654.920
252.176	15.557	864.373	654.371
253.190	15.593	863.658	653.913
254.205	15.516	863.455	653.400
255.220	15.691	862.554	653.342
256.234	15.685	861.935	652.792
257.249	15.749	861.449	652.613
258.263	15.589	860.980	651.580
259.278	15.678	860.093	651.198
260.293	15.604	860.040	650.813
261.307	15.858	859.245	651.135
262.322	15.696	858.810	650.121
263.336	15.682	858.228	649.571
264.351	15.862	857.586	649.723
265.366	15.860	856.660	648.955
266.380	15.912	856.349	648.864
267.395	15.888	855.546	648.103
268.409	15.784	855.145	647.341
269.424	15.875	854.292	646.988
270.439	15.766	853.460	645.883
271.453	15.812	852.632	645.378
272.468	15.706	851.997	644.432
273.482	15.715	851.762	644.231
274.497	15.700	851.447	643.879
275.512	15.730	850.272	643.051
276.526	15.657	849.251	641.942
277.541	15.921	848.791	642.545
278.555	15.850	848.096	641.688
279.570	15.848	848.280	641.763
280.585	15.911	847.760	641.554
281.599	15.965	847.293	641.349
282.614	16.064	846.465	641.043
283.628	15.993	845.811	640.223
284.643	15.975	845.188	639.624
285.657	15.969	844.313	638.884
286.672	15.841	844.515	638.493
287.687	15.958	844.049	638.530
288.701	15.890	843.050	637.458
289.716	15.956	842.735	637.414
290.730	15.960	841.958	636.786
291.745	16.073	841.084	636.494
292.760	16.092	840.476	636.051
293.774	16.147	840.321	636.084
294.789	16.148	840.203	635.943
295.803	16.154	839.208	635.155
296.818	16.071	838.505	634.256
297.833	16.096	837.708	633.691
298.847	16.084	836.860	632.949
299.862	16.203	836.465	633.039
300.876	16.138	835.565	632.056
301.891	16.157	835.448	631.983
302.906	16.296	834.745	631.917
303.920	16.351	834.085	631.567
304.935	16.413	833.260	631.119
305.949	16.474	832.937	631.046
306.964	16.425	832.081	630.160
307.979	16.359	831.413	629.350
308.993	16.413	831.250	629.373
310.008	16.303	830.631	628.439
311.022	16.518	830.009	628.714
312.037	16.390	829.687	627.939
313.052	16.439	829.002	627.544
314.066	16.411	828.362	626.900
315.081	16.239	828.027	625.954
316.095	16.381	827.116	625.736
317.110	16.265	826.959	625.131
318.125	16.357	826.306	624.923
319.139	16.335	826.088	624.621
320.154	16.334	825.689	624.261
321.168	16.252	825.084	623.446
322.183	16.274	824.343	622.913
323.197	16.458	823.669	623.025
324.212	16.491	823.112	622.673
325.227	16.549	822.542	622.399
326.241	16.473	822.265	621.855
327.256	16.420	821.779	621.238
328.270	16.438	821.160	620.779
329.285	16.418	820.607	620.235
330.300	16.449	819.787	619.672
331.314	16.411	819.552	619.301
332.329	16.515	818.603	618.912
333.343	16.410	818.255	618.209
334.358	16.565	817.298	617.996
335.373	16.482	817.267	617.616
336.387	16.686	816.236	617.526
337.402	16.711	815.886	617.298
338.416	16.485	815.601	616.204
339.431	16.738	814.874	616.519
340.446	16.781	814.328	616.210
341.460	16.736	813.910	615.674
342.475	16.979	813.059	615.859
343.489	16.957	813.002	615.681
344.504	17.013	812.378	615.358
345.519	17.157	811.355	615.050
346.533	17.091	810.924	614.429
347.548	17.081	810.678	614.152
348.562	16.928	810.214	613.193
349.577	16.953	809.341	612.570
350.592	16.931	808.838	612.055
351.606	16.735	808.667	611.164
352.621	16.755	808.092	610.747
353.635	16.703	807.808	610.290
354.650	16.794	807.734	610.509
355.665	16.771	807.005	609.820
356.679	16.918	806.229	609.711
357.694	16.933	806.007	609.543
358.708	16.937	805.251	608.930
359.723	17.034	804.701	608.808
360.738	17.043	804.370	608.538
361.752	16.835	804.064	607.506
362.767	17.258	803.312	608.397
363.781	17.019	803.443	607.590
364.796	17.248	802.729	607.812
365.810	17.201	802.190	607.185
366.825	17.349	801.683	607.275
367.840	17.253	801.717	606.906
368.854	17.299	801.211	606.632
369.869	17.219	801.028	606.153
370.883	17.207	800.259	605.474
371.898	17.056	799.567	604.361
372.913	17.187	798.923	604.287
373.927	17.540	798.151	604.905
374.942	17.371	797.475	603.737
375.956	17.400	797.156	603.545
376.971	17.335	796.757	602.958
377.986	17.284	796.043	602.184
379.000	17.621	795.511	602.921
380.015	17.512	795.196	602.246
381.029	17.649	794.347	602.032
382.044	17.505	793.842	601.088
383.059	17.494	793.486	600.726
384.073	17.522	792.784	600.240
385.088	17.534	792.639	600.121
386.102	17.350	792.071	598.988
387.117	17.449	791.348	598.739
388.132	17.572	790.788	598.692
389.146	17.395	790.613	597.887
390.161	17.334	790.159	597.273
391.175	17.402	790.043	597.374
392.190	17.437	789.419	596.971
393.205	17.550	789.009	597.004
394.219	17.661	788.399	596.880
395.234	17.471	787.653	595.597
396.248	17.524	786.990	595.228
397.263	17.438	786.765	594.706
398.278	17.436	786.813	594.681
399.292	17.432	786.376	594.284
400.307	17.414	786.002	593.886
401.321	17.495	785.204	593.513
402.336	17.423	785.177	593.190
403.350	17.583	784.361	593.079
404.365	17.602	783.956	592.785
405.380	17.623	783.530	592.485
406.394	17.819	783.093	592.780
407.409	17.845	782.868	592.649
408.423	17.885	782.389	592.374
409.438	17.857	782.040	591.959
410.453	17.959	781.377	591.757
411.467	17.935	781.280	591.548
412.482	17.921	780.654	590.975
413.496	17.776	780.596	590.376
414.511	18.063	779.888	590.781
415.526	18.062	779.643	590.540
416.540	17.914	779.079	589.550
417.555	18.188	778.474	589.985
418.569	18.028	778.413	589.335
419.584	18.041	777.539	588.666
420.599	17.955	777.274	588.115
421.613	157.252	1368.484	1797.564
422.628	135.655	1454.610	1797.631
