DTS Sentinel unit serial number:	SN413079Multiplexer serial number:	ORYXHardware model number:	OX4-SRSoftware version number:	ORYX F/W v4.00 Oryx Data Collector v3.7.2.0data status	okinstallation	princeton_trtdifferential loss correction	single-endedforward channel	channel 3reverse channel	N/Adate	2019/09/13time	02:16:35forward acquisition time	60.00reverse acquisition time	0.00gamma	496.2192k internal	0.2334k external	0.2334temperature offset calibration	1.0133default loss term (dB/km)	0.3790temperature slope calibration	1.0000multiplexer offset coefficient	1.0000multiplexer slope coefficient	1.0000fibre end	0.00T internal ref (°C)	27.56T ext. ref 1 (°C)	3.92T ext. ref 2 (°C)	22.32length (m)	temperature (°C)	Stokes	anti-Stokes-747.200	-60.401	0.191	-0.082
-746.185	-200.000	0.015	0.294
-745.171	413.560	0.082	0.176
-744.156	163.265	0.132	0.186
-743.142	-110.655	-0.261	-0.054
-742.127	123.862	0.088	-0.111
-741.112	-200.000	-0.045	-0.445
-740.098	27.993	-0.045	-0.038
-739.083	-188.296	-0.288	-0.004
-738.069	229.290	-0.278	0.456
-737.054	556.497	0.053	-0.127
-736.039	-27.488	-0.284	0.166
-735.025	185.343	0.174	0.259
-734.010	800.000	-0.070	-0.220
-732.996	-200.000	0.038	-0.338
-731.981	-18.841	-0.094	0.058
-730.966	-149.274	-0.179	-0.014
-729.952	3.238	0.097	-0.071
-728.937	-200.000	0.014	0.139
-727.923	-200.000	0.024	-0.279
-726.908	-134.981	-0.178	-0.022
-725.894	-11.735	0.256	-0.169
-724.879	-200.000	0.030	-0.290
-723.864	-52.295	-0.127	-0.059
-722.850	8.423	-0.160	-0.121
-721.835	-79.080	-0.290	0.099
-720.821	-24.765	0.073	0.043
-719.806	161.421	0.030	-0.042
-718.791	512.523	0.064	-0.150
-717.777	-59.013	0.178	-0.077
-716.762	-47.395	0.307	0.150
-715.748	-111.790	-0.311	0.063
-714.733	224.342	0.081	0.131
-713.718	85.892	0.235	0.259
-712.704	800.000	0.127	-0.399
-711.689	800.000	-0.109	0.347
-710.675	-78.791	-0.071	0.024
-709.660	51.486	-0.361	-0.344
-708.645	-200.000	0.005	0.366
-707.631	-156.148	0.338	0.021
-706.616	145.274	0.159	-0.213
-705.602	-77.063	0.025	0.009
-704.587	15.437	0.211	-0.166
-703.572	-62.243	0.233	-0.097
-702.558	-200.000	-0.026	0.230
-701.543	-200.000	0.025	0.167
-700.529	-178.213	0.300	-0.007
-699.514	-200.000	-0.058	-0.270
-698.499	-91.516	0.243	0.070
-697.485	125.307	-0.114	0.144
-696.470	-30.479	-0.196	-0.111
-695.456	81.118	0.130	-0.141
-694.441	65.739	-0.196	-0.200
-693.426	-55.561	0.309	-0.139
-692.412	-124.607	-0.346	0.054
-691.397	800.000	-0.099	-0.305
-690.383	139.202	0.106	-0.140
-689.368	800.000	0.075	-0.309
-688.354	147.872	0.221	-0.299
-687.339	-119.535	-0.093	-0.016
-686.324	131.055	0.206	-0.265
-685.310	26.495	0.087	0.073
-684.295	-200.000	0.008	0.105
-683.281	301.425	0.075	-0.138
-682.266	476.870	-0.145	0.330
-681.251	-51.104	-0.263	0.124
-680.237	304.941	0.095	0.177
-679.222	800.000	0.087	0.331
-678.208	-154.686	0.137	0.009
-677.193	333.577	0.083	-0.160
-676.178	569.935	-0.048	0.116
-675.164	800.000	-0.133	0.428
-674.149	-73.083	-0.212	-0.078
-673.135	-50.658	-0.143	-0.067
-672.120	-132.848	-0.418	-0.053
-671.105	800.000	-0.058	0.227
-670.091	83.407	-0.366	0.400
-669.076	-200.000	0.001	-0.072
-668.062	150.384	0.198	-0.269
-667.047	490.952	-0.153	0.351
-666.032	190.320	-0.094	-0.141
-665.018	-93.728	-0.223	0.062
-664.003	-200.000	-0.031	0.227
-662.989	800.000	0.040	-0.169
-661.974	102.904	-0.102	0.120
-660.959	800.000	0.143	0.403
-659.945	419.981	-0.080	-0.172
-658.930	800.000	0.087	-0.300
-657.916	49.172	0.173	0.163
-656.901	-200.000	0.004	-0.080
-655.886	157.931	-0.114	-0.158
-654.872	-200.000	-0.030	-0.146
-653.857	264.657	-0.082	0.142
-652.843	-61.895	-0.077	-0.032
-651.828	-54.889	0.101	-0.046
-650.814	-200.000	-0.035	-0.175
-649.799	653.442	-0.069	-0.176
-648.784	-200.000	0.003	-0.029
-647.770	-139.185	-0.246	-0.027
-646.755	-78.403	-0.185	0.064
-645.741	800.000	-0.063	0.201
-644.726	-200.000	0.010	0.047
-643.711	-155.955	-0.316	0.020
-642.697	21.339	-0.052	0.042
-641.682	-200.000	-0.057	-0.297
-640.668	295.141	-0.078	-0.143
-639.653	274.931	0.048	-0.085
-638.638	-73.764	-0.156	0.057
-637.624	138.104	0.341	0.448
-636.609	51.532	0.040	-0.038
-635.595	245.431	-0.121	0.203
-634.580	43.017	0.153	-0.140
-633.565	-49.552	0.056	-0.027
-632.551	800.000	-0.042	0.122
-631.536	-200.000	0.012	-0.134
-630.522	-200.000	-0.025	-0.270
-629.507	-200.000	0.030	0.194
-628.492	182.146	-0.164	-0.241
-627.478	-133.217	-0.167	0.021
-626.463	362.120	0.080	-0.160
-625.449	9.483	-0.244	0.185
-624.434	-109.236	-0.110	-0.023
-623.419	-87.857	-0.060	-0.018
-622.405	-85.980	-0.303	-0.094
-621.390	-148.061	0.433	-0.036
-620.376	50.032	0.352	0.332
-619.361	175.977	-0.035	0.050
-618.346	221.167	0.161	-0.258
-617.332	-200.000	0.090	0.454
-616.317	800.000	0.017	0.060
-615.303	175.868	-0.145	0.210
-614.288	9.074	-0.367	0.277
-613.273	8.053	-0.179	0.135
-612.259	-173.000	-0.366	-0.011
-611.244	-200.000	-0.042	-0.459
-610.230	-200.000	0.056	-0.395
-609.215	503.657	0.060	0.139
-608.201	-193.070	-0.284	-0.003
-607.186	488.043	-0.101	0.231
-606.171	-200.000	-0.031	0.267
-605.157	486.606	0.117	0.267
-604.142	-200.000	0.012	0.183
-603.128	-26.315	0.167	-0.098
-602.113	-200.000	0.008	0.136
-601.098	-200.000	-0.019	-0.388
-600.084	200.587	0.094	-0.144
-599.069	5.621	-0.384	-0.284
-598.055	800.000	0.170	-0.475
-597.040	792.848	-0.120	-0.331
-596.025	-200.000	0.032	0.257
-595.011	-108.648	-0.102	-0.022
-593.996	800.000	-0.075	-0.230
-592.982	-200.000	0.012	-0.107
-591.967	176.640	-0.152	-0.220
-590.952	131.947	0.054	-0.069
-589.938	-74.620	-0.397	-0.143
-588.923	-85.457	0.178	-0.055
-587.909	766.994	0.019	-0.052
-586.894	800.000	-0.017	-0.050
-585.879	-200.000	0.017	-0.136
-584.865	437.808	-0.064	0.139
-583.850	-147.435	0.266	-0.022
-582.836	-59.640	0.208	-0.089
-581.821	-147.411	0.162	-0.014
-580.806	-200.000	-0.028	-0.196
-579.792	157.815	-0.267	-0.369
-578.777	168.667	0.159	0.226
-577.763	359.422	-0.197	-0.393
-576.748	168.243	0.070	0.099
-575.733	-200.000	-0.021	-0.144
-574.719	-71.808	-0.087	-0.032
-573.704	70.991	-0.087	0.090
-572.690	800.000	0.107	0.344
-571.675	-200.000	-0.032	-0.159
-570.661	513.521	0.072	-0.167
-569.646	800.000	-0.124	0.440
-568.631	-200.000	0.023	-0.109
-567.617	-73.753	0.209	0.076
-566.602	-127.319	0.130	0.019
-565.588	-25.631	0.310	-0.182
-564.573	-67.321	-0.302	0.119
-563.558	-200.000	0.008	0.250
-562.544	142.655	0.177	0.235
-561.529	800.000	-0.036	-0.112
-560.515	149.974	-0.199	0.269
-559.500	-136.514	-0.137	0.016
-558.485	154.102	-0.073	-0.100
-557.471	93.394	-0.196	0.221
-556.456	675.386	0.057	0.149
-555.442	43.299	0.184	-0.168
-554.427	-200.000	0.009	0.043
-553.412	21.098	0.269	0.218
-552.398	313.379	0.126	0.236
-551.383	97.548	-0.073	0.084
-550.369	-54.860	0.199	-0.089
-549.354	381.363	-0.058	-0.118
-548.339	-186.705	-0.162	0.002
-547.325	30.580	0.173	-0.147
-546.310	91.125	-0.180	-0.202
-545.296	-200.000	0.009	0.074
-544.281	166.107	-0.040	-0.056
-543.266	70.978	0.247	-0.255
-542.252	-63.012	-0.264	-0.109
-541.237	54.782	0.282	0.272
-540.223	133.235	-0.062	0.080
-539.208	-200.000	-0.004	-0.189
-538.193	26.139	0.077	0.064
-537.179	251.390	0.229	-0.388
-536.164	19.149	0.135	0.108
-535.150	-115.832	-0.132	-0.025
-534.135	137.722	0.195	-0.255
-533.121	12.885	-0.141	-0.109
-532.106	-136.554	0.246	0.028
-531.091	800.000	0.047	-0.176
-530.077	800.000	-0.068	-0.255
-529.062	-26.568	-0.462	-0.270
-528.048	28.877	0.323	0.273
-527.033	-200.000	-0.012	0.248
-526.018	100.183	0.156	-0.181
-525.004	-150.596	0.189	-0.014
-523.989	530.678	-0.045	0.106
-522.975	5.409	0.135	0.099
-521.960	13.342	0.176	-0.136
-520.945	618.878	-0.129	0.322
-519.931	-13.196	0.063	-0.041
-518.916	1.698	-0.144	-0.104
-517.902	-200.000	0.037	-0.198
-516.887	-200.000	-0.079	-0.461
-515.872	34.420	0.147	-0.128
-514.858	122.113	-0.234	0.291
-513.843	127.296	0.112	0.141
-512.829	334.837	0.081	0.156
-511.814	-37.857	0.302	-0.160
-510.799	-9.978	-0.321	-0.213
-509.785	-200.000	0.012	-0.081
-508.770	800.000	-0.012	0.049
-507.756	-200.000	-0.001	-0.128
-506.741	128.740	0.092	-0.117
-505.726	-11.285	0.282	0.185
-504.712	490.854	0.118	0.268
-503.697	777.354	-0.093	0.254
-502.683	-3.019	-0.168	-0.117
-501.668	90.327	0.357	0.398
-500.653	-39.352	-0.170	0.089
-499.639	-200.000	0.000	-0.075
-498.624	-200.000	-0.033	0.152
-497.610	-121.927	-0.471	-0.077
-496.595	-102.278	-0.093	-0.022
-495.581	-130.338	0.063	-0.009
-494.566	800.000	0.053	-0.224
-493.551	172.896	-0.198	0.284
-492.537	563.733	-0.028	0.068
-491.522	248.249	0.194	-0.327
-490.508	-129.501	0.199	-0.027
-489.493	800.000	0.099	0.305
-488.478	-200.000	-0.007	0.356
-487.464	-102.652	-0.073	0.017
-486.449	-56.001	0.143	0.063
-485.435	-56.456	-0.101	0.044
-484.420	800.000	0.067	-0.267
-483.405	800.000	-0.016	0.065
-482.391	104.586	0.232	0.272
-481.376	-82.780	0.227	-0.073
-480.362	-99.904	-0.164	-0.041
-479.347	-83.202	0.348	-0.111
-478.332	-38.225	-0.262	0.138
-477.318	16.890	-0.198	0.156
-476.303	-200.000	0.057	0.314
-475.289	-200.000	0.020	0.132
-474.274	112.925	0.186	0.224
-473.259	-200.000	0.075	-0.336
-472.245	-200.000	0.015	-0.172
-471.230	531.117	-0.169	0.398
-470.216	-150.058	0.885	0.068
-469.201	800.000	0.053	0.164
-468.186	71.720	-0.179	0.185
-467.172	19.221	0.291	0.233
-466.157	115.594	-0.125	0.152
-465.143	128.420	-0.267	-0.338
-464.128	-122.342	-0.190	-0.031
-463.113	800.000	0.072	0.301
-462.099	-200.000	0.003	-0.038
-461.084	-92.149	-0.308	0.086
-460.070	-40.677	-0.299	0.154
-459.055	60.544	0.087	-0.086
-458.040	800.000	-0.013	0.045
-457.026	-116.092	-0.422	-0.078
-456.011	-105.762	0.276	0.062
-454.997	800.000	-0.079	0.332
-453.982	-119.227	0.121	0.021
-452.968	-72.204	0.271	-0.100
-451.953	-51.781	0.214	0.099
-450.938	-200.000	0.004	-0.064
-449.924	-129.291	0.206	-0.029
-448.909	-200.000	0.013	0.087
-447.895	-37.597	0.330	-0.175
-446.880	-200.000	-0.040	-0.234
-445.865	59.629	-0.086	-0.084
-444.851	-15.102	0.138	-0.088
-443.836	298.822	-0.078	0.143
-442.822	-168.644	-0.041	0.002
-441.807	-149.945	-0.100	-0.008
-440.792	800.000	0.068	0.221
-439.778	-101.278	0.083	-0.020
-438.763	168.125	0.042	-0.060
-437.749	-200.000	-0.014	-0.306
-436.734	-199.147	-0.492	-0.003
-435.719	263.652	-0.109	0.189
-434.705	252.308	-0.199	0.336
-433.690	-144.132	-0.308	0.029
-432.676	517.264	0.179	0.416
-431.661	-200.000	-0.013	-0.251
-430.646	123.386	0.242	-0.301
-429.632	-5.737	-0.168	-0.114
-428.617	10.317	-0.159	0.120
-427.603	26.814	-0.254	0.211
-426.588	60.973	0.252	0.248
-425.573	671.085	-0.078	0.200
-424.559	-78.932	-0.250	0.085
-423.544	-154.333	0.238	0.016
-422.530	683.136	-0.163	-0.421
-421.515	-6.645	-0.098	-0.066
-420.500	-131.116	0.122	0.016
-419.486	78.658	0.043	0.046
-418.471	-10.230	0.115	-0.076
-417.457	800.000	-0.051	-0.172
-416.442	-200.000	-0.048	-0.233
-415.428	-181.439	0.169	-0.003
-414.413	235.033	0.090	-0.148
-413.398	26.735	0.194	-0.161
-412.384	-200.000	0.023	0.225
-411.369	-87.766	0.181	0.054
-410.355	-200.000	0.016	-0.089
-409.340	150.144	0.159	0.214
-408.325	800.000	-0.054	-0.179
-407.311	-106.949	-0.033	0.007
-406.296	-82.151	0.423	0.137
-405.282	368.356	-0.164	-0.329
-404.267	-4.106	-0.211	0.145
-403.252	-200.000	0.004	-0.129
-402.238	-8.912	0.018	0.012
-401.223	-83.484	-0.183	-0.058
-400.209	727.924	-0.060	0.160
-399.194	-200.000	0.021	0.364
-398.179	-60.235	0.403	-0.170
-397.165	134.673	0.112	0.144
-396.150	54.679	-0.340	-0.325
-395.136	-129.559	0.198	0.027
-394.121	800.000	-0.042	-0.147
-393.106	-140.503	-0.290	-0.030
-392.092	-123.555	-0.124	-0.020
-391.077	800.000	0.059	0.230
-390.063	441.411	-0.089	-0.192
-389.048	-200.000	-0.001	-0.203
-388.033	352.830	-0.153	-0.300
-387.019	124.559	0.151	-0.189
-386.004	-200.000	0.023	0.171
-384.990	-122.014	-0.080	0.013
-383.975	-66.890	-0.154	0.060
-382.960	-200.000	0.058	0.509
-381.946	275.788	-0.110	-0.194
-380.931	-200.000	-0.002	0.342
-379.917	109.544	0.061	0.073
-378.902	-200.000	-0.001	0.037
-377.888	43.944	0.219	-0.199
-376.873	-87.994	0.237	0.071
-375.858	800.000	-0.061	0.264
-374.844	-200.000	0.041	0.319
-373.829	-200.000	-0.055	0.309
-372.815	-14.554	-0.094	-0.060
-371.800	-123.623	-0.228	0.036
-370.785	114.677	0.131	0.158
-369.771	-90.635	0.418	0.120
-368.756	800.000	-0.076	0.236
-367.742	33.594	-0.150	0.129
-366.727	181.599	-0.279	-0.406
-365.712	-27.410	-0.080	0.046
-364.698	14.667	-0.073	-0.057
-363.683	9.227	-0.154	-0.115
-362.669	-61.212	-0.164	0.069
-361.654	800.000	0.062	-0.236
-360.639	800.000	-0.072	0.233
-359.625	158.988	-0.180	0.248
-358.610	-171.767	-0.096	0.003
-357.596	-122.770	-0.063	0.010
-356.581	24.791	-0.114	0.093
-355.566	-81.000	0.089	-0.029
-354.552	85.794	0.100	0.109
-353.537	800.000	0.052	0.202
-352.523	-130.336	0.292	-0.039
-351.508	-200.000	0.007	0.085
-350.493	-200.000	-0.052	-0.235
-349.479	-23.486	-0.472	-0.280
-348.464	-100.766	-0.321	0.078
-347.450	-79.190	-0.165	0.055
-346.435	-117.316	0.049	0.009
-345.420	-200.000	0.014	-0.266
-344.406	-63.708	-0.058	0.024
-343.391	38.001	-0.191	0.168
-342.377	800.000	0.032	-0.134
-341.362	111.682	0.028	0.033
-340.348	800.000	-0.033	0.126
-339.333	9.863	0.338	-0.254
-338.318	181.178	0.103	0.149
-337.304	93.462	0.105	-0.118
-336.289	55.232	-0.152	-0.145
-335.275	-200.000	-0.008	-0.153
-334.260	-144.127	-0.436	-0.040
-333.245	800.000	-0.059	-0.208
-332.231	180.056	0.032	0.046
-331.216	-200.000	0.029	0.200
-330.202	46.909	0.243	0.223
-329.187	-100.829	-0.142	0.035
-328.172	-34.466	0.147	0.080
-327.158	-83.511	0.047	0.015
-326.143	800.000	-0.087	-0.371
-325.129	-200.000	-0.043	-0.219
-324.114	403.559	0.126	0.263
-323.099	7.161	-0.125	0.093
-322.085	-45.009	0.317	-0.156
-321.070	-68.324	-0.177	-0.068
-320.056	434.677	0.092	0.197
-319.041	46.816	0.107	0.098
-318.026	-51.483	0.180	-0.083
-317.012	151.318	-0.102	0.137
-315.997	166.379	0.172	-0.241
-314.983	-200.000	0.060	-0.285
-313.968	69.881	0.124	-0.126
-312.953	112.738	0.098	0.117
-311.939	-59.015	0.183	-0.078
-310.924	-30.828	0.236	-0.132
-309.910	231.148	0.104	-0.168
-308.895	-147.079	-0.466	0.039
-307.880	90.165	-0.047	-0.052
-306.866	-6.047	0.286	-0.193
-305.851	-200.000	-0.027	0.172
-304.837	27.831	0.191	0.159
-303.822	-87.904	-0.137	0.041
-302.807	-133.502	-0.328	0.041
-301.793	-187.139	-0.232	-0.003
-300.778	-89.857	-0.094	-0.027
-299.764	-200.000	-0.058	-0.293
-298.749	-91.641	0.205	-0.058
-297.735	7.776	-0.040	-0.030
-296.720	-119.872	-0.122	0.021
-295.705	-172.595	0.491	0.015
-294.691	-73.800	0.239	0.086
-293.676	29.940	0.104	-0.088
-292.662	24.190	0.149	0.122
-291.647	198.668	-0.017	-0.026
-290.632	800.000	0.067	-0.230
-289.618	63.362	-0.073	0.073
-288.603	45.164	-0.247	0.225
-287.589	-78.565	0.308	-0.104
-286.574	-74.022	-0.193	-0.069
-285.559	-15.479	-0.084	-0.053
-284.545	-129.001	0.200	0.028
-283.530	85.555	0.290	0.314
-282.516	309.506	0.018	-0.034
-281.501	-200.000	0.012	-0.198
-280.486	412.570	0.039	-0.083
-279.472	89.973	0.175	0.193
-278.457	-200.000	-0.027	-0.178
-277.443	-119.106	0.115	0.020
-276.428	-112.448	-0.311	-0.061
-275.413	-200.000	0.047	-0.291
-274.399	79.993	0.141	-0.150
-273.384	-37.244	0.032	-0.017
-272.370	366.451	-0.096	-0.190
-271.355	-150.983	0.064	-0.005
-270.340	32.458	0.269	0.229
-269.326	-104.018	-0.306	-0.070
-268.311	-51.919	0.222	0.102
-267.297	-200.000	-0.063	-0.294
-266.282	4.218	-0.178	0.128
-265.267	-200.000	-0.017	0.140
-264.253	16.618	0.354	0.276
-263.238	62.490	-0.189	-0.186
-262.224	-43.272	0.424	-0.212
-261.209	127.751	-0.221	-0.277
-260.195	-200.000	0.032	0.244
-259.180	-200.000	0.033	-0.200
-258.165	-170.101	0.215	-0.008
-257.151	154.090	0.141	0.190
-256.136	-59.286	-0.265	-0.112
-255.122	17.214	0.220	0.172
-254.107	800.000	-0.029	0.090
-253.092	2.840	0.135	0.097
-252.078	-105.818	0.265	-0.059
-251.063	-38.892	-0.192	0.100
-250.049	21.211	-0.260	-0.208
-249.034	-200.000	0.008	-0.384
-248.019	208.751	0.109	0.168
-247.005	-200.000	-0.033	0.237
-245.990	800.000	0.156	-0.452
-244.976	-125.160	-0.209	-0.032
-243.961	-63.205	0.202	-0.082
-242.946	-132.848	-0.122	0.015
-241.932	-51.774	-0.159	-0.073
-240.917	-200.000	-0.031	0.364
-239.903	-132.284	0.362	0.046
-238.888	41.013	-0.219	0.195
-237.873	95.570	0.074	0.083
-236.859	389.333	-0.110	-0.224
-235.844	-136.057	-0.145	-0.017
-234.830	-72.918	0.077	0.028
-233.815	-73.597	-0.427	0.153
-232.800	-200.000	0.021	0.196
-231.786	-53.237	-0.122	-0.055
-230.771	458.159	-0.169	0.369
-229.757	-36.682	-0.178	-0.094
-228.742	-33.981	-0.047	-0.025
-227.727	350.471	0.040	-0.078
-226.713	398.355	-0.054	0.112
-225.698	-108.034	-0.269	-0.058
-224.684	120.724	-0.031	-0.038
-223.669	-60.052	0.115	0.048
-222.655	-200.000	0.011	-0.095
-221.640	-32.088	-0.076	-0.042
-220.625	124.538	0.081	-0.100
-219.611	-82.551	0.370	-0.118
-218.596	-7.772	-0.171	0.114
-217.582	-134.242	-0.254	0.031
-216.567	-200.000	0.009	-0.135
-215.552	170.028	0.080	-0.113
-214.538	171.948	0.027	0.039
-213.523	-79.261	0.334	-0.111
-212.509	458.246	-0.050	0.109
-211.494	800.000	0.030	-0.101
-210.479	517.619	0.093	-0.213
-209.465	-67.669	0.171	0.066
-208.450	-149.812	-0.190	0.015
-207.436	217.998	-0.180	0.282
-206.421	800.000	0.041	0.144
-205.406	132.582	-0.080	-0.102
-204.392	800.000	-0.013	-0.046
-203.377	-28.956	0.041	0.023
-202.363	3.127	-0.195	0.140
-201.348	-79.202	0.374	-0.125
-200.333	-62.764	0.091	0.037
-199.319	-104.484	0.182	0.041
-198.304	-32.078	0.205	-0.113
-197.290	-21.935	-0.170	-0.102
-196.275	-102.174	0.331	0.078
-195.260	132.562	-0.228	-0.289
-194.246	5.678	-0.299	-0.217
-193.231	55.459	-0.107	0.102
-192.217	232.003	-0.227	0.366
-191.202	668.037	-0.067	-0.169
-190.187	112.610	0.142	-0.169
-189.173	-113.558	0.314	0.060
-188.158	93.087	0.141	-0.157
-187.144	-20.533	-0.105	-0.063
-186.129	-145.918	0.124	0.011
-185.114	-75.580	-0.162	0.056
-184.100	39.335	-0.059	-0.052
-183.085	134.002	-0.054	0.069
-182.071	-31.956	0.226	0.124
-181.056	-1.097	0.131	-0.091
-180.042	-66.355	-0.255	0.100
-179.027	800.000	-0.047	0.135
-178.012	151.353	-0.159	0.212
-176.998	-200.000	0.009	0.084
-175.983	-200.000	-0.013	-0.187
-174.969	338.313	-0.093	-0.178
-173.954	-60.814	0.181	-0.075
-172.939	-157.123	-0.050	0.003
-171.925	283.941	-0.032	0.057
-170.910	482.748	-0.163	0.364
-169.896	-200.000	-0.002	0.016
-168.881	-200.000	-0.008	-0.381
-167.866	13.274	-0.174	0.132
-166.852	257.062	0.094	-0.158
-165.837	150.170	0.089	-0.118
-164.823	-28.730	-0.154	0.087
-163.808	166.636	0.135	0.188
-162.793	-20.670	-0.118	-0.071
-161.779	94.077	-0.074	0.083
-160.764	-200.000	0.016	0.478
-159.750	118.789	-0.092	0.111
-158.735	89.416	-0.222	0.243
-157.720	-200.000	0.009	-0.093
-156.706	-18.977	0.093	0.057
-155.691	24.189	0.216	-0.175
-154.677	238.106	0.090	-0.147
-153.662	-105.209	0.222	0.050
-152.647	26.205	-0.302	-0.248
-151.633	48.928	0.125	-0.116
-150.618	81.390	0.081	0.086
-149.604	-169.108	-0.065	0.002
-148.589	106.570	0.128	0.149
-147.574	-120.867	-0.275	-0.045
-146.560	-17.020	-0.202	0.125
-145.545	220.396	-0.080	0.125
-144.531	-132.915	0.246	0.031
-143.516	-7.349	-0.245	-0.163
-142.502	34.396	0.042	-0.036
-141.487	8.751	0.079	0.058
-140.472	-200.000	-0.003	0.145
-139.458	214.374	0.088	0.137
-138.443	-165.551	0.189	0.008
-137.429	488.785	-0.065	0.145
-136.414	31.858	-0.134	0.113
-135.399	-1.639	-0.127	-0.088
-134.385	263.835	-0.170	0.290
-133.370	-144.571	-0.298	0.027
-132.356	-200.000	-0.099	0.601
-131.341	102.287	-0.181	0.207
-130.326	-157.393	0.072	-0.004
-129.312	69.050	0.089	-0.089
-128.297	-120.521	-0.141	0.024
-127.283	-29.785	-0.101	0.057
-126.268	99.791	0.157	-0.178
-125.253	-16.626	-0.250	-0.155
-124.239	800.000	-0.051	0.195
-123.224	-200.000	-0.041	0.202
-122.210	-200.000	0.029	-0.276
-121.195	-200.000	-0.043	-0.213
-120.180	-200.000	0.029	-0.243
-119.166	39.826	0.139	0.122
-118.151	-67.478	-0.166	0.064
-117.137	-61.973	0.314	0.129
-116.122	-200.000	0.006	0.380
-115.107	-200.000	-0.031	0.279
-114.093	-111.483	-0.093	0.018
-113.078	-113.439	-0.355	-0.068
-112.064	395.043	-0.173	-0.354
-111.049	-73.116	0.210	-0.076
-110.034	-200.000	-0.032	-0.164
-109.020	-200.000	0.020	-0.147
-108.005	-113.091	0.229	-0.044
-106.991	-133.552	0.092	0.011
-105.976	567.458	-0.081	-0.193
-104.962	-200.000	-0.018	-0.081
-103.947	-200.000	0.051	-0.223
-102.932	119.702	-0.223	-0.271
-101.918	-47.403	-0.270	-0.129
-100.903	-119.220	-0.439	0.075
-99.889	-71.070	-0.135	0.050
-98.874	382.073	0.163	0.327
-97.859	-200.000	0.007	-0.125
-96.845	-147.314	-0.196	0.016
-95.830	800.000	0.042	-0.135
-94.816	182.688	-0.139	-0.201
-93.801	473.859	-0.121	0.268
-92.786	800.000	0.067	-0.226
-91.772	-127.207	-0.087	-0.012
-90.757	-182.180	0.282	0.005
-89.743	800.000	-0.031	0.123
-88.728	62.765	0.147	-0.144
-87.713	800.000	-0.079	0.224
-86.699	-37.884	0.315	-0.164
-85.684	-146.040	0.426	0.037
-84.670	-200.000	-0.010	-0.176
-83.655	-53.028	0.091	-0.041
-82.640	-41.365	-0.067	0.034
-81.626	622.308	0.097	-0.238
-80.611	414.999	0.106	0.222
-79.597	-112.182	-0.175	-0.034
-78.582	-131.573	0.095	0.012
-77.567	-69.598	0.393	-0.147
-76.553	-172.838	0.317	-0.010
-75.538	232.770	0.052	-0.083
-74.524	49.492	-0.217	0.200
-73.509	-79.942	-0.287	0.094
-72.494	-27.391	-0.225	-0.128
-71.480	800.000	0.069	-0.191
-70.465	800.000	0.046	0.168
-69.451	-200.000	-0.025	-0.154
-68.436	-200.000	-0.005	-0.161
-67.422	92.856	-0.124	0.138
-66.407	151.507	-0.066	0.089
-65.392	31.680	-0.036	-0.030
-64.378	6.337	0.048	0.035
-63.363	24.231	0.112	0.090
-62.349	-64.272	-0.247	0.098
-61.334	76.457	-0.991	-1.027
-60.319	475.857	0.318	0.703
-59.305	397.636	-0.361	-0.739
-58.290	218.607	0.630	0.984
-57.276	312.823	0.743	1.365
-56.261	-200.000	114.171	649.005
-55.246	538.339	1521.641	3538.510
-54.232	179.264	2686.712	3845.340
-53.217	108.563	2170.586	2535.388
-52.203	37.898	1698.231	1476.337
-51.188	30.652	1516.905	1269.414
-50.173	28.375	1492.817	1233.895
-49.159	52.232	1551.516	1446.816
-48.144	50.953	1566.432	1451.909
-47.130	30.891	1522.674	1275.682
-46.115	27.772	1508.304	1242.398
-45.100	27.641	1504.548	1238.362
-44.086	27.723	1502.388	1237.094
-43.071	27.495	1500.785	1234.177
-42.057	27.479	1499.381	1232.867
-41.042	27.658	1497.412	1232.409
-40.027	27.488	1496.533	1230.486
-39.013	27.534	1494.517	1229.093
-37.998	27.459	1493.212	1227.463
-36.984	27.517	1492.273	1227.032
-35.969	27.531	1491.177	1226.179
-34.954	27.510	1489.849	1224.893
-33.940	27.584	1488.030	1223.849
-32.925	27.607	1486.507	1222.705
-31.911	27.472	1485.586	1220.991
-30.896	27.587	1483.979	1220.394
-29.881	27.636	1482.753	1219.663
-28.867	27.638	1481.462	1218.568
-27.852	27.529	1480.333	1216.862
-26.838	27.577	1479.184	1216.190
-25.823	27.558	1477.612	1214.723
-24.809	27.588	1476.136	1213.660
-23.794	27.599	1474.269	1212.148
-22.779	27.543	1473.666	1211.236
-21.765	27.599	1472.878	1210.907
-20.750	27.654	1471.535	1210.124
-19.736	27.628	1470.271	1208.860
-18.721	27.567	1469.196	1207.527
-17.706	27.500	1468.338	1206.332
-16.692	27.551	1467.055	1205.562
-15.677	27.635	1465.782	1205.027
-14.663	27.518	1465.423	1203.912
-13.648	27.529	1464.720	1203.358
-12.633	27.594	1463.222	1202.511
-11.619	27.620	1462.133	1201.737
-10.604	27.622	1461.802	1201.432
-9.590	27.614	1460.848	1200.545
-8.575	27.574	1460.233	1199.730
-7.560	27.628	1459.256	1199.235
-6.546	27.536	1458.461	1197.932
-5.531	27.510	1457.307	1196.764
-4.517	27.553	1456.368	1196.224
-3.502	27.545	1455.496	1195.406
-2.487	27.583	1454.088	1194.457
-1.473	27.558	1453.286	1193.587
-0.458	27.553	1452.138	1192.564
0.556	29.151	1442.654	1181.228
1.571	26.121	1417.712	1141.570
2.586	22.658	1360.198	1074.109
3.600	21.063	1279.524	1001.170
4.615	19.848	1233.515	958.358
5.629	17.286	1176.979	900.791
6.644	10.428	1093.832	803.196
7.659	4.818	1056.990	749.150
8.673	4.094	1051.805	741.938
9.688	3.922	1048.262	738.554
10.702	3.757	1046.619	736.547
11.717	3.897	1044.381	735.572
12.731	6.448	1046.381	749.056
13.746	13.856	1056.646	791.789
14.761	20.666	1065.857	831.272
15.775	22.789	1067.646	842.743
16.790	22.372	1066.335	839.645
17.804	21.546	1064.352	834.075
18.819	20.832	1062.640	829.261
19.834	20.478	1061.588	826.684
20.848	20.361	1061.466	825.960
21.863	20.412	1060.597	825.450
22.877	20.407	1059.749	824.697
23.892	20.114	1059.167	822.780
24.907	19.919	1058.431	821.210
25.921	19.861	1057.870	820.428
26.936	19.762	1056.972	819.190
27.950	19.835	1055.197	818.085
28.965	19.895	1054.316	817.612
29.980	19.958	1053.193	816.970
30.994	20.175	1052.440	817.332
32.009	20.311	1051.397	817.093
33.023	20.209	1051.357	816.509
34.038	20.300	1050.303	816.046
35.053	20.233	1049.111	814.731
36.067	20.022	1048.033	812.835
37.082	19.980	1046.993	811.758
38.096	19.993	1046.183	811.121
39.111	20.252	1045.653	811.850
40.126	20.344	1044.799	811.541
41.140	20.133	1043.936	809.818
42.155	19.714	1042.503	806.677
43.169	19.476	1041.510	804.728
44.184	19.400	1040.157	803.260
45.199	19.397	1038.524	801.914
46.213	19.491	1038.673	802.391
47.228	19.659	1037.430	802.141
48.242	19.806	1037.082	802.483
49.257	20.152	1036.199	803.334
50.271	20.061	1035.231	802.092
51.286	20.065	1034.456	801.436
52.301	20.216	1033.891	801.625
53.315	20.218	1032.786	800.710
54.330	20.071	1032.392	799.651
55.344	19.815	1031.468	797.686
56.359	19.708	1030.140	796.097
57.374	19.597	1029.677	795.159
58.388	19.678	1028.839	794.813
59.403	19.525	1027.883	793.300
60.417	19.581	1026.820	792.667
61.432	19.443	1026.232	791.508
62.447	19.537	1025.529	791.331
63.461	19.307	1025.040	789.828
64.476	19.337	1023.680	788.847
65.490	19.209	1022.802	787.516
66.505	19.307	1021.709	787.050
67.520	19.402	1020.998	786.866
68.534	19.410	1020.430	786.399
69.549	19.287	1019.685	785.194
70.563	19.321	1018.843	784.628
71.578	19.271	1018.452	784.033
72.593	18.864	1017.418	781.314
73.607	18.916	1015.492	780.002
74.622	18.920	1014.759	779.389
75.636	18.945	1014.204	779.006
76.651	19.045	1013.268	778.673
77.666	18.919	1012.986	777.817
78.680	19.133	1012.164	778.085
79.695	19.169	1011.794	777.894
80.709	19.225	1010.767	777.288
81.724	19.412	1010.265	777.677
82.739	19.521	1009.410	777.442
83.753	19.620	1008.582	777.178
84.768	19.809	1008.819	778.145
85.782	20.142	1008.414	779.259
86.797	20.579	1007.460	780.414
87.812	20.573	1006.747	779.766
88.826	20.342	1005.898	778.007
89.841	20.330	1005.314	777.430
90.855	20.291	1004.312	776.414
91.870	20.385	1003.797	776.365
92.884	20.541	1002.800	776.222
93.899	20.430	1002.287	775.264
94.914	20.458	1001.376	774.613
95.928	20.544	1000.231	774.041
96.943	20.467	999.635	773.169
97.957	20.345	998.701	771.838
98.972	20.150	998.211	770.522
99.987	20.320	997.174	770.407
101.001	20.352	996.383	769.873
102.016	20.368	995.433	769.140
103.030	20.257	994.115	767.562
104.045	20.310	993.600	767.331
105.060	20.239	993.110	766.572
106.074	20.241	991.648	765.382
107.089	19.844	991.073	763.120
108.103	19.649	989.748	761.175
109.118	19.427	988.385	759.083
110.133	19.219	988.222	757.977
111.147	19.425	986.209	757.270
112.162	19.279	985.181	755.771
113.176	19.208	984.762	755.073
114.191	19.471	984.192	755.722
115.206	19.633	983.311	755.686
116.220	19.491	982.613	754.462
117.235	19.569	981.920	754.202
118.249	19.369	981.184	752.700
119.264	19.304	979.926	751.383
120.279	19.301	979.308	750.832
121.293	19.127	978.661	749.512
122.308	19.015	977.682	748.206
123.322	19.057	976.598	747.496
124.337	18.942	975.603	746.166
125.352	18.913	974.281	744.966
126.366	19.053	973.112	744.609
127.381	18.885	972.305	743.199
128.395	18.798	971.819	742.386
129.410	18.926	970.764	742.071
130.424	19.009	969.957	741.744
131.439	19.115	968.767	741.227
132.454	19.250	968.694	741.687
133.468	19.479	967.775	741.901
134.483	19.376	967.257	740.993
135.497	19.348	966.790	740.452
136.512	19.550	965.304	740.112
137.527	19.548	964.839	739.681
138.541	19.381	964.216	738.426
139.556	19.509	963.355	738.247
140.570	19.651	962.991	738.510
141.585	19.767	962.295	738.405
142.600	19.905	962.048	738.740
143.614	20.013	961.335	738.587
144.629	20.192	960.668	738.772
145.643	20.362	959.924	738.861
146.658	20.292	958.916	737.719
147.673	20.066	957.797	735.833
148.687	19.795	956.670	733.753
149.702	19.695	955.906	732.682
150.716	19.402	954.548	730.333
151.731	19.481	953.657	729.923
152.746	19.691	952.723	730.028
153.760	19.690	952.298	729.633
154.775	19.587	951.893	728.826
155.789	19.681	951.023	728.492
156.804	19.977	949.878	728.794
157.819	19.781	949.263	727.436
158.833	19.821	948.762	727.156
159.848	20.082	948.306	727.839
160.862	20.167	948.142	728.003
161.877	20.162	947.369	727.326
162.892	19.849	945.833	724.769
163.906	19.567	944.887	722.801
164.921	19.560	943.482	721.632
165.935	19.456	942.483	720.372
166.950	19.465	941.984	719.965
167.964	19.711	940.717	719.956
168.979	19.646	940.133	719.177
169.994	19.618	938.784	717.962
171.008	19.541	938.293	717.206
172.023	19.715	937.368	717.155
173.037	19.971	936.917	717.808
174.052	20.271	936.143	718.394
175.067	20.122	935.315	717.077
176.081	19.704	934.315	714.520
177.096	19.498	932.944	712.561
178.110	19.473	932.370	711.955
179.125	19.398	932.122	711.394
180.140	19.455	931.417	711.027
181.154	19.579	930.723	710.943
182.169	19.715	930.382	711.182
183.183	19.986	929.722	711.726
184.198	20.189	929.126	712.042
185.213	20.131	928.339	711.139
186.227	20.154	927.922	710.849
187.242	20.062	927.519	710.100
188.256	20.272	926.493	710.111
189.271	20.434	925.586	710.017
190.286	20.426	925.066	709.523
191.300	20.183	924.089	707.720
192.315	19.575	922.837	704.217
193.329	19.264	921.919	702.189
194.344	19.379	921.514	702.284
195.359	19.415	921.308	702.215
196.373	19.630	920.521	702.424
197.388	19.918	919.958	703.103
198.402	19.981	920.011	703.337
199.417	20.136	919.849	703.782
200.432	20.425	919.298	704.472
201.446	20.548	919.318	704.921
202.461	20.772	918.565	705.191
203.475	20.678	918.724	704.867
204.490	20.739	917.655	704.234
205.504	20.423	916.399	701.930
206.519	20.076	915.582	699.842
207.534	20.130	914.574	699.226
208.548	20.184	913.868	698.842
209.563	20.103	913.179	697.927
210.577	20.062	912.788	697.402
211.592	20.055	911.973	696.689
212.607	20.388	911.856	697.876
213.621	20.684	911.008	698.355
214.636	20.476	910.305	696.918
215.650	20.439	909.591	696.163
216.665	20.473	909.083	695.847
217.680	20.668	908.267	695.941
218.694	20.682	908.331	695.984
219.709	20.662	907.953	695.554
220.723	20.724	907.143	695.121
221.738	20.672	906.412	694.291
222.753	20.471	905.936	693.063
223.767	20.475	905.132	692.402
224.782	20.513	904.470	691.984
225.796	20.706	903.673	692.082
226.811	20.844	903.245	692.241
227.826	20.730	902.402	691.083
228.840	20.522	901.292	689.348
229.855	20.382	900.504	688.127
230.869	20.494	900.331	688.377
231.884	20.375	899.792	687.435
232.899	20.202	898.827	685.951
233.913	20.196	898.143	685.346
234.928	20.059	897.291	684.094
235.942	19.995	896.715	683.342
236.957	19.917	895.790	682.271
237.972	19.849	895.520	681.737
238.986	19.985	895.171	681.946
240.001	20.044	893.869	681.127
241.015	20.080	893.077	680.602
242.030	19.983	892.981	680.089
243.045	20.335	892.213	680.826
244.059	20.268	892.114	680.426
245.074	20.240	891.086	679.472
246.088	20.466	890.642	679.956
247.103	20.526	890.352	679.910
248.117	20.673	889.682	679.914
249.132	20.918	889.559	680.716
250.147	20.971	889.532	680.842
251.161	21.416	888.668	681.855
252.176	21.500	888.359	681.886
253.190	21.596	888.047	681.959
254.205	21.582	887.025	681.059
255.220	21.761	886.533	681.318
256.234	21.570	885.917	680.045
257.249	21.645	885.048	679.608
258.263	21.605	884.620	679.065
259.278	21.558	884.132	678.446
260.293	21.509	883.589	677.779
261.307	21.607	883.000	677.646
262.322	21.658	882.564	677.447
263.336	21.693	881.879	677.001
264.351	21.714	881.277	676.557
265.366	21.674	880.596	675.821
266.380	21.644	879.964	675.160
267.395	21.840	879.119	675.207
268.409	21.578	878.442	673.622
269.424	21.400	877.630	672.252
270.439	21.498	876.560	671.750
271.453	21.392	876.128	670.952
272.468	21.168	875.094	669.243
273.482	21.074	875.086	668.816
274.497	21.173	874.092	668.379
275.512	21.186	873.294	667.757
276.526	21.162	872.494	666.997
277.541	21.235	871.955	666.804
278.555	21.315	871.528	666.723
279.570	21.383	871.256	666.715
280.585	21.570	871.286	667.394
281.599	21.794	870.507	667.591
282.614	21.511	869.337	665.556
283.628	21.389	868.411	664.326
284.643	21.308	868.077	663.703
285.657	21.333	867.785	663.517
286.672	21.351	866.873	662.828
287.687	21.459	866.277	662.723
288.701	21.504	866.201	662.777
289.716	21.320	865.363	661.380
290.730	21.462	864.795	661.426
291.745	21.538	863.877	660.951
292.760	21.424	863.420	660.112
293.774	21.550	862.901	660.133
294.789	21.654	863.095	660.614
295.803	21.782	862.278	660.414
296.818	21.469	861.231	658.376
297.833	21.474	860.665	657.904
298.847	21.329	859.946	656.750
299.862	21.469	859.014	656.509
300.876	21.596	858.369	656.431
301.891	21.700	857.968	656.458
302.906	21.728	857.894	656.446
303.920	21.922	856.971	656.407
304.935	21.993	856.829	656.508
305.949	22.194	856.352	656.834
306.964	22.222	855.234	656.024
307.979	21.922	854.548	654.320
308.993	21.743	854.392	653.478
310.008	21.905	853.695	653.489
311.022	22.086	853.310	653.812
312.037	21.999	852.777	653.021
313.052	21.823	852.000	651.715
314.066	21.623	851.063	650.196
315.081	21.478	850.090	648.859
316.095	21.349	849.765	648.074
317.110	21.304	849.248	647.455
318.125	21.380	848.860	647.385
319.139	21.356	847.865	646.480
320.154	21.323	847.749	646.210
321.168	21.306	847.274	645.730
322.183	21.454	846.569	645.683
323.197	21.380	846.213	645.081
324.212	21.640	845.629	645.536
325.227	21.547	845.190	644.803
326.241	21.506	844.514	644.076
327.256	21.468	844.031	643.514
328.270	21.477	843.242	642.886
329.285	21.375	842.798	642.119
330.300	21.260	842.061	641.076
331.314	21.445	841.480	641.254
332.329	21.240	841.290	640.303
333.343	21.656	840.633	641.270
334.358	22.007	840.242	642.199
335.373	21.707	839.891	640.778
336.387	21.969	838.952	640.959
337.402	22.089	838.306	640.846
338.416	21.984	838.121	640.267
339.431	22.244	837.597	640.756
340.446	22.291	837.841	641.057
341.460	22.535	837.159	641.367
342.475	22.509	836.698	640.862
343.489	22.482	836.293	640.399
344.504	22.557	835.559	640.052
345.519	22.783	835.112	640.474
346.533	22.688	834.903	639.910
347.548	22.627	834.207	639.100
348.562	22.397	833.196	637.439
349.577	22.173	832.267	635.860
350.592	21.950	831.630	634.513
351.606	21.835	831.183	633.699
352.621	21.774	830.250	632.709
353.635	21.917	830.033	633.003
354.650	21.966	829.956	633.067
355.665	22.069	829.557	633.077
356.679	22.047	828.768	632.341
357.694	22.222	828.629	632.808
358.708	22.263	828.230	632.596
359.723	22.313	827.381	632.069
360.738	22.169	826.550	630.862
361.752	22.065	826.364	630.292
362.767	22.214	826.087	630.560
363.781	22.509	825.710	631.272
364.796	22.670	825.649	631.748
365.810	22.715	825.375	631.643
366.825	22.982	824.925	632.198
367.840	22.935	824.711	631.809
368.854	22.993	823.989	631.408
369.869	22.795	823.133	629.991
370.883	22.672	822.826	629.259
371.898	22.609	822.146	628.459
372.913	22.649	821.695	628.202
373.927	23.043	820.542	628.665
374.942	22.804	820.064	627.393
375.956	22.592	819.727	626.327
376.971	22.625	819.530	626.240
377.986	23.025	818.733	626.996
379.000	23.143	818.551	627.216
380.015	23.152	817.877	626.676
381.029	23.092	817.070	625.791
382.044	23.011	816.876	625.302
383.059	23.052	815.882	624.628
384.073	23.158	815.549	624.693
385.088	22.873	815.258	623.410
386.102	22.688	814.501	622.123
387.117	22.627	813.322	620.952
388.132	22.531	812.932	620.261
389.146	22.473	812.556	619.715
390.161	22.507	812.239	619.539
391.175	22.808	811.848	620.243
392.190	22.871	812.003	620.530
393.205	22.794	811.271	619.643
394.219	22.722	810.387	618.663
395.234	22.533	809.824	617.514
396.248	22.480	809.264	616.846
397.263	22.418	808.553	616.034
398.278	22.330	807.949	615.211
399.292	22.265	807.567	614.637
400.307	22.166	807.395	614.108
401.321	22.126	806.832	613.487
402.336	22.220	806.215	613.289
403.350	22.479	806.053	614.015
404.365	22.654	805.898	614.454
405.380	22.731	805.667	614.491
406.394	23.066	805.235	615.274
407.409	23.311	804.725	615.679
408.423	23.245	804.458	615.193
409.438	23.326	804.087	615.137
410.453	23.402	803.836	615.153
411.467	23.396	803.106	614.520
412.482	23.401	802.562	614.066
413.496	23.404	802.574	614.032
414.511	23.427	802.275	613.827
415.526	23.602	801.392	613.702
416.540	23.392	801.224	612.794
417.555	23.391	800.155	611.919
418.569	23.340	800.232	611.746
419.584	23.311	800.174	611.548
420.599	23.187	799.710	610.713
421.613	164.688	1371.529	1799.274
422.628	143.084	1454.830	1799.364
