DTS Sentinel unit serial number:	SN413079Multiplexer serial number:	ORYXHardware model number:	OX4-SRSoftware version number:	ORYX F/W v4.00 Oryx Data Collector v3.7.2.0data status	okinstallation	princeton_trtdifferential loss correction	single-endedforward channel	channel 3reverse channel	N/Adate	2019/09/14time	17:36:35forward acquisition time	60.00reverse acquisition time	0.00gamma	496.2192k internal	0.2297k external	0.2297temperature offset calibration	1.0031default loss term (dB/km)	0.3790temperature slope calibration	1.0000multiplexer offset coefficient	1.0000multiplexer slope coefficient	1.0000fibre end	0.00T internal ref (°C)	37.56T ext. ref 1 (°C)	5.05T ext. ref 2 (°C)	32.30length (m)	temperature (°C)	Stokes	anti-Stokes-747.200	381.556	-0.035	0.074
-746.185	123.368	0.130	0.166
-745.171	-114.133	-0.240	-0.047
-744.156	-115.432	0.522	-0.101
-743.142	-200.000	-0.052	-0.363
-742.127	-172.195	-0.400	-0.013
-741.112	32.239	-0.129	0.114
-740.098	519.795	-0.185	0.442
-739.083	78.262	0.020	0.022
-738.069	276.624	-0.010	-0.018
-737.054	-86.640	-0.218	-0.068
-736.039	-141.253	-0.337	0.035
-735.025	187.693	0.116	0.177
-734.010	800.000	-0.099	-0.298
-732.996	-44.988	0.223	-0.114
-731.981	-44.950	-0.137	-0.070
-730.966	162.021	-0.091	0.129
-729.952	-102.826	0.057	-0.014
-728.937	315.969	0.121	-0.233
-727.923	84.131	-0.082	0.092
-726.908	0.835	0.170	-0.124
-725.894	-64.336	-0.078	-0.033
-724.879	-112.579	-0.136	0.028
-723.864	-34.505	0.106	0.059
-722.850	-77.034	-0.216	-0.077
-721.835	371.805	0.199	-0.413
-720.821	-144.224	0.093	0.009
-719.806	800.000	0.078	-0.340
-718.791	33.774	-0.270	0.240
-717.777	-77.449	-0.060	-0.021
-716.762	94.838	0.074	-0.086
-715.748	8.274	0.167	-0.128
-714.733	-94.652	-0.219	-0.061
-713.718	756.351	0.061	-0.170
-712.704	-200.000	0.019	-0.084
-711.689	320.247	-0.126	-0.244
-710.675	-200.000	0.033	0.247
-709.660	16.761	-0.185	0.150
-708.645	-172.820	-0.092	0.003
-707.631	-200.000	-0.009	-0.145
-706.616	136.806	0.211	0.282
-705.602	34.522	-0.301	0.268
-704.587	135.924	0.218	0.290
-703.572	800.000	0.084	0.264
-702.558	424.416	-0.135	-0.295
-701.543	125.910	-0.072	0.093
-700.529	-168.632	-0.328	0.013
-699.514	-200.000	0.043	-0.360
-698.499	163.633	0.226	-0.324
-697.485	222.730	-0.138	-0.226
-696.470	-116.520	-0.109	-0.021
-695.456	-110.262	-0.534	-0.113
-694.441	800.000	-0.029	-0.091
-693.426	-166.275	0.377	0.016
-692.412	428.671	-0.105	-0.232
-691.397	-29.507	-0.097	0.057
-690.383	313.094	0.170	-0.326
-689.368	549.344	0.108	-0.263
-688.354	122.976	-0.263	-0.335
-687.339	-200.000	-0.007	0.100
-686.324	-29.275	0.226	-0.132
-685.310	800.000	-0.023	0.076
-684.295	624.019	-0.015	-0.039
-683.281	-11.180	-0.139	0.094
-682.266	800.000	0.032	0.136
-681.251	48.170	-0.325	0.310
-680.237	-200.000	0.006	0.339
-679.222	3.877	-0.141	-0.105
-678.208	171.120	0.078	0.114
-677.193	35.374	0.340	-0.304
-676.178	-122.145	-0.137	0.023
-675.164	91.368	0.125	0.143
-674.149	-200.000	0.017	-0.141
-673.135	91.692	-0.148	0.169
-672.120	108.401	0.234	0.285
-671.105	800.000	-0.046	-0.180
-670.091	170.279	0.122	0.178
-669.076	-200.000	0.027	0.305
-668.062	57.382	-0.117	0.117
-667.047	800.000	-0.042	-0.176
-666.032	-40.167	0.078	0.042
-665.018	176.971	0.091	-0.134
-664.003	-91.808	0.196	0.057
-662.989	-200.000	-0.073	-0.357
-661.974	684.306	0.080	-0.213
-660.959	135.506	-0.091	0.120
-659.945	104.984	0.224	-0.269
-658.930	549.658	0.133	-0.325
-657.916	-159.402	0.187	0.011
-656.901	375.304	0.069	0.143
-655.886	-107.883	0.115	-0.026
-654.872	-163.233	0.281	-0.014
-653.857	-173.050	-0.027	0.001
-652.843	-164.467	-0.264	-0.012
-651.828	-122.426	0.194	-0.032
-650.814	-106.267	0.013	-0.003
-649.799	-200.000	0.020	-0.277
-648.784	97.914	-0.095	0.111
-647.770	-200.000	-0.070	-0.000
-646.755	800.000	-0.033	0.107
-645.741	-200.000	-0.053	0.440
-644.726	-58.411	0.095	0.042
-643.711	-200.000	0.068	-0.359
-642.697	273.510	-0.131	-0.236
-641.682	800.000	-0.060	0.171
-640.668	46.838	0.200	-0.189
-639.653	-106.803	0.280	-0.063
-638.638	103.622	-0.342	-0.408
-637.624	-200.000	-0.010	-0.214
-636.609	143.839	-0.198	-0.268
-635.595	58.919	-0.166	-0.166
-634.580	502.838	-0.054	-0.128
-633.565	3.157	-0.121	-0.089
-632.551	255.354	-0.077	0.134
-631.536	-25.569	-0.150	0.090
-630.522	-200.000	0.001	0.067
-629.507	-200.000	-0.064	0.000
-628.492	-96.921	0.241	-0.064
-627.478	145.092	0.329	-0.447
-626.463	-115.527	-0.503	-0.096
-625.449	405.335	0.021	-0.044
-624.434	225.087	0.115	-0.188
-623.419	-200.000	-0.080	-0.399
-622.405	-36.176	0.419	-0.230
-621.390	-200.000	-0.020	0.301
-620.376	-93.197	-0.386	0.109
-619.361	-119.881	0.215	0.038
-618.346	-117.394	0.219	-0.040
-617.332	291.552	-0.059	0.109
-616.317	-105.453	0.149	0.034
-615.303	-97.496	0.153	-0.041
-614.288	123.949	-0.158	0.202
-613.273	-52.586	-0.251	-0.118
-612.259	89.786	-0.090	-0.103
-611.244	-134.730	-0.161	0.020
-610.230	136.942	0.146	-0.193
-609.215	-200.000	0.020	-0.149
-608.201	325.523	-0.085	-0.166
-607.186	213.988	0.110	0.178
-606.171	800.000	0.103	-0.297
-605.157	319.742	0.046	0.089
-604.142	349.526	-0.107	-0.215
-603.128	-63.418	0.344	-0.143
-602.113	-16.971	-0.101	-0.065
-601.098	-93.201	0.211	-0.060
-600.084	-125.662	-0.454	0.070
-599.069	-58.654	0.125	0.055
-598.055	-60.199	0.084	0.037
-597.040	-116.228	0.094	0.018
-596.025	114.175	-0.224	-0.276
-595.011	103.034	-0.184	0.219
-593.996	212.561	-0.110	0.176
-592.982	706.313	-0.134	-0.359
-591.967	563.277	-0.018	-0.044
-590.952	11.787	0.264	0.206
-589.938	58.912	-0.238	-0.237
-588.923	-200.000	-0.034	-0.182
-587.909	-136.268	0.136	-0.016
-586.894	-59.203	-0.166	-0.072
-585.879	-167.466	-0.089	0.004
-584.865	12.058	0.231	0.181
-583.850	669.859	-0.161	-0.422
-582.836	-11.756	0.267	-0.178
-581.821	386.934	0.084	0.176
-580.806	72.248	-0.257	-0.272
-579.792	-84.095	-0.148	0.048
-578.777	-124.096	0.050	0.008
-577.763	70.023	-0.065	0.068
-576.748	260.257	0.089	0.157
-575.733	-57.637	-0.124	0.055
-574.719	-99.308	-0.166	0.042
-573.704	83.351	-0.034	-0.037
-572.690	-200.000	-0.032	-0.278
-571.675	-111.428	-0.140	0.029
-570.661	139.159	-0.099	-0.133
-569.646	-200.000	0.033	-0.246
-568.631	-128.524	-0.301	0.043
-567.617	-137.326	-0.266	-0.031
-566.602	-146.428	0.149	-0.013
-565.588	800.000	-0.075	0.231
-564.573	-141.307	-0.105	-0.011
-563.558	-52.718	0.271	0.127
-562.544	-79.598	-0.136	-0.046
-561.529	93.646	-0.194	-0.222
-560.515	-27.935	-0.372	-0.218
-559.500	-2.436	0.132	-0.094
-558.485	-200.000	-0.010	0.139
-557.471	139.649	-0.161	-0.216
-556.456	-94.051	0.140	-0.039
-555.442	-37.526	0.441	-0.238
-554.427	723.321	0.163	-0.441
-553.412	-85.809	0.284	0.089
-552.398	267.588	-0.029	0.051
-551.383	169.546	0.166	0.241
-550.369	598.672	-0.086	-0.216
-549.354	255.309	-0.124	-0.216
-548.339	109.585	0.172	0.209
-547.325	-69.382	0.290	0.113
-546.310	-144.229	-0.089	0.008
-545.296	-200.000	-0.016	-0.118
-544.281	366.016	0.113	0.230
-543.266	190.697	0.058	-0.089
-542.252	-200.000	0.016	0.159
-541.237	305.676	-0.164	0.310
-540.223	141.982	-0.298	-0.400
-539.208	-200.000	-0.062	-0.384
-538.193	800.000	-0.092	-0.304
-537.179	-14.092	0.307	0.200
-536.164	-11.933	-0.296	0.196
-535.150	-73.114	-0.171	0.063
-534.135	195.260	0.078	0.120
-533.121	279.887	-0.172	-0.311
-532.106	-200.000	-0.223	-0.000
-531.091	224.888	-0.021	0.035
-530.077	-200.000	0.005	-0.126
-529.062	-200.000	-0.005	0.124
-528.048	-200.000	0.031	-0.309
-527.033	265.948	0.098	-0.174
-526.018	129.344	-0.055	0.072
-525.004	-79.359	0.207	-0.071
-523.989	12.598	0.310	-0.242
-522.975	-19.543	-0.041	-0.025
-521.960	147.362	-0.110	-0.150
-520.945	66.388	0.187	0.192
-519.931	240.062	-0.046	0.077
-518.916	800.000	-0.082	-0.237
-517.902	-115.370	-0.305	-0.058
-516.887	-71.370	0.481	0.182
-515.872	-149.591	0.360	-0.029
-514.858	-81.447	-0.364	-0.121
-513.843	-200.000	0.025	-0.227
-512.829	-19.698	0.209	-0.131
-511.814	105.456	-0.282	-0.337
-510.799	-85.810	-0.183	-0.057
-509.785	215.879	-0.118	-0.190
-508.770	-49.734	0.139	0.067
-507.756	6.148	-0.233	0.175
-506.741	-85.297	-0.088	-0.028
-505.726	168.101	-0.189	-0.273
-504.712	-40.173	-0.120	-0.063
-503.697	-130.381	0.194	-0.027
-502.683	-170.421	-0.166	-0.006
-501.668	-50.986	0.258	0.122
-500.653	3.346	0.142	0.104
-499.639	530.014	0.113	0.269
-498.624	800.000	-0.025	0.085
-497.610	409.499	-0.069	-0.149
-496.595	-200.000	0.066	-0.436
-495.581	800.000	-0.035	-0.110
-494.566	-200.000	-0.046	0.225
-493.551	-200.000	0.012	0.409
-492.537	-95.285	0.265	0.072
-491.522	21.997	0.036	0.030
-490.508	-200.000	-0.003	0.174
-489.493	34.984	0.177	0.157
-488.478	-61.778	-0.236	0.100
-487.464	-129.473	0.195	0.027
-486.449	445.130	0.067	0.149
-485.435	175.893	0.193	0.282
-484.420	-200.000	0.001	-0.134
-483.405	62.948	-0.230	0.232
-482.391	25.588	0.155	0.130
-481.376	-65.409	0.227	-0.092
-480.362	-200.000	-0.008	0.364
-479.347	129.526	-0.170	0.220
-478.332	625.388	0.121	-0.309
-477.318	-95.145	-0.081	-0.022
-476.303	800.000	0.029	0.126
-475.289	-52.850	-0.290	0.135
-474.274	54.237	0.016	0.015
-473.259	-142.980	-0.153	-0.015
-472.245	1.652	0.407	0.296
-471.230	154.560	0.083	-0.115
-470.216	800.000	-0.085	0.303
-469.201	-123.811	0.346	0.055
-468.186	800.000	-0.092	-0.330
-467.172	-47.321	0.101	-0.050
-466.157	280.972	0.043	0.077
-465.143	-173.942	-0.148	0.004
-464.128	-87.922	0.133	-0.040
-463.113	47.990	0.349	0.329
-462.099	-200.000	-0.000	-0.361
-461.084	147.831	-0.170	0.231
-460.070	800.000	-0.055	0.158
-459.055	-51.116	0.127	-0.060
-458.040	-133.113	0.306	-0.039
-457.026	476.293	-0.100	-0.229
-456.011	369.184	0.085	-0.174
-454.997	198.522	-0.180	-0.278
-453.982	-200.000	-0.025	0.242
-452.968	-200.000	0.025	0.121
-451.953	28.499	0.155	0.133
-450.938	278.907	-0.143	-0.258
-449.924	-200.000	-0.013	0.098
-448.909	-178.908	-0.258	0.006
-447.895	125.764	-0.066	0.084
-446.880	-200.000	0.024	-0.141
-445.865	-200.000	-0.006	-0.199
-444.851	-95.393	0.291	0.079
-443.836	10.797	-0.105	0.081
-442.822	50.474	-0.165	0.157
-441.807	-51.176	0.193	0.091
-440.792	-200.000	-0.048	-0.308
-439.778	232.916	0.178	-0.296
-438.763	800.000	0.049	0.210
-437.749	241.648	0.042	0.070
-436.734	57.653	-0.094	0.093
-435.719	117.533	0.134	0.166
-434.705	99.529	-0.117	-0.136
-433.690	172.339	-0.051	0.073
-432.676	4.475	-0.170	0.126
-431.661	-76.092	-0.203	0.072
-430.646	353.615	0.137	0.274
-429.632	-109.192	-0.110	-0.024
-428.617	69.451	-0.192	-0.200
-427.603	226.390	0.055	0.090
-426.588	-151.576	-0.086	-0.006
-425.573	-200.000	-0.035	-0.214
-424.559	3.409	-0.152	0.112
-423.544	-179.959	-0.099	0.002
-422.530	-149.918	0.044	-0.003
-421.515	-200.000	0.040	-0.338
-420.500	-98.626	0.241	0.062
-419.486	22.482	0.198	0.163
-418.471	106.653	0.183	0.219
-417.457	-111.117	0.160	0.033
-416.442	-124.885	0.117	0.018
-415.428	-44.024	-0.036	0.018
-414.413	-200.000	-0.020	0.138
-413.398	207.764	0.034	0.053
-412.384	494.954	-0.025	0.057
-411.369	800.000	0.044	-0.156
-410.355	573.417	0.133	-0.327
-409.340	87.689	-0.223	-0.249
-408.325	800.000	-0.099	-0.279
-407.311	349.897	-0.120	0.239
-406.296	800.000	-0.049	-0.185
-405.282	-91.528	0.207	0.059
-404.267	-26.306	0.003	-0.002
-403.252	782.088	-0.164	-0.453
-402.238	-77.544	-0.220	-0.077
-401.223	-5.833	0.129	0.089
-400.209	283.418	-0.070	-0.127
-399.194	800.000	0.102	0.407
-398.179	-28.588	0.256	0.148
-397.165	-12.869	0.220	0.144
-396.150	-25.793	0.201	0.119
-395.136	62.352	-0.198	0.199
-394.121	123.934	-0.203	-0.256
-393.106	800.000	-0.101	-0.368
-392.092	800.000	0.040	-0.146
-391.077	-29.911	0.154	0.088
-390.063	800.000	-0.046	0.162
-389.048	800.000	-0.022	0.093
-388.033	-199.690	0.237	-0.001
-387.019	800.000	-0.101	-0.401
-386.004	373.868	-0.205	0.420
-384.990	-44.433	0.250	0.126
-383.975	-200.000	-0.013	0.124
-382.960	800.000	0.066	0.275
-381.946	800.000	-0.069	0.300
-380.931	-200.000	-0.011	0.159
-379.917	299.447	-0.031	0.058
-378.902	-23.472	0.131	0.079
-377.888	-6.374	-0.450	0.309
-376.873	-158.196	-0.082	-0.005
-375.858	45.733	0.047	0.043
-374.844	-36.067	0.219	-0.119
-373.829	-7.093	0.139	0.095
-372.815	-173.409	-0.353	-0.011
-371.800	-19.671	0.064	0.040
-370.785	55.004	-0.257	0.249
-369.771	-168.491	-0.325	-0.012
-368.756	9.416	-0.140	0.106
-367.742	-112.922	0.257	-0.051
-366.727	-200.000	-0.018	-0.337
-365.712	-176.587	-0.125	0.003
-364.698	76.514	0.176	0.188
-363.683	36.033	0.307	0.272
-362.669	-85.790	-0.163	0.051
-361.654	4.198	0.205	0.151
-360.639	250.787	0.158	-0.271
-359.625	-200.000	0.010	-0.047
-358.610	-123.629	0.027	0.004
-357.596	-12.709	0.148	-0.097
-356.581	71.820	-0.152	-0.159
-355.566	46.191	0.250	0.233
-354.552	-25.597	0.281	-0.167
-353.537	-137.578	-0.441	0.050
-352.523	103.940	-0.187	-0.221
-351.508	13.593	-0.129	-0.100
-350.493	0.947	-0.147	0.106
-349.479	-69.813	-0.073	0.028
-348.464	234.510	-0.076	-0.126
-347.450	-75.305	-0.223	-0.080
-346.435	800.000	0.039	0.165
-345.420	363.194	-0.060	0.122
-344.406	-177.306	-0.212	-0.005
-343.391	-200.000	-0.012	0.115
-342.377	200.631	0.137	0.211
-341.362	6.274	-0.164	-0.122
-340.348	31.960	-0.188	-0.163
-339.333	-137.753	-0.134	-0.015
-338.318	-45.276	-0.068	0.034
-337.304	222.151	0.197	-0.318
-336.289	-56.059	0.016	0.007
-335.275	-81.922	0.313	-0.103
-334.260	800.000	0.070	-0.254
-333.245	800.000	-0.075	-0.313
-332.231	425.342	-0.111	0.241
-331.216	-200.000	-0.008	-0.273
-330.202	521.134	-0.147	0.347
-329.187	-100.588	0.410	0.102
-328.172	107.574	-0.135	0.161
-327.158	125.047	-0.072	0.091
-326.143	-18.068	0.240	-0.151
-325.129	-112.594	-0.130	-0.026
-324.114	-200.000	0.007	-0.085
-323.099	32.365	0.100	-0.087
-322.085	-29.552	-0.182	0.104
-321.070	101.517	0.240	-0.281
-320.056	32.826	-0.054	-0.047
-319.041	92.420	0.127	0.143
-318.026	1.773	0.107	-0.078
-317.012	-25.518	-0.167	-0.099
-315.997	-104.967	0.074	0.017
-314.983	-186.963	0.094	0.001
-313.968	-200.000	-0.053	-0.286
-312.953	-200.000	-0.011	-0.201
-311.939	182.188	0.157	0.232
-310.924	-60.154	0.079	-0.034
-309.910	-200.000	0.006	-0.059
-308.895	136.907	-0.109	-0.143
-307.880	494.370	-0.113	-0.261
-306.866	-33.952	-0.325	0.179
-305.851	52.466	-0.243	0.233
-304.837	-32.006	-0.037	-0.021
-303.822	-68.290	0.184	0.072
-302.807	-92.216	0.276	-0.078
-301.793	-21.148	-0.054	0.033
-300.778	196.950	0.121	0.185
-299.764	3.464	-0.033	-0.024
-298.749	-36.499	-0.071	0.038
-297.735	-175.041	-0.168	-0.005
-296.720	73.551	-0.221	-0.232
-295.705	762.202	0.039	0.107
-294.691	800.000	0.101	0.436
-293.676	-97.171	-0.330	0.087
-292.662	800.000	0.044	-0.143
-291.647	51.589	0.278	-0.266
-290.632	-9.305	-0.095	-0.063
-289.618	-200.000	-0.030	-0.309
-288.603	7.462	-0.227	-0.170
-287.589	311.181	-0.125	0.235
-286.574	800.000	-0.008	0.027
-285.559	-200.000	0.019	-0.106
-284.545	-35.919	-0.099	0.054
-283.530	-75.337	0.265	-0.095
-282.516	91.178	-0.169	0.191
-281.501	-112.259	0.152	0.030
-280.486	-106.445	0.320	-0.072
-279.472	-100.297	0.176	-0.044
-278.457	32.840	0.164	-0.142
-277.443	-195.598	0.171	0.001
-276.428	-200.000	-0.006	-0.048
-275.413	487.912	-0.065	0.149
-274.399	58.160	0.151	0.149
-273.384	-94.412	0.249	-0.068
-272.370	-200.000	0.031	-0.193
-271.355	-100.621	0.150	-0.037
-270.340	-200.000	0.022	0.224
-269.326	-200.000	-0.035	0.306
-268.311	800.000	-0.013	0.037
-267.297	-3.414	0.155	0.108
-266.282	439.460	-0.112	0.246
-265.267	106.068	-0.074	0.087
-264.253	-139.117	0.253	0.027
-263.238	113.942	0.059	0.072
-262.224	-124.650	0.049	-0.008
-261.209	-130.942	-0.143	0.019
-260.195	-95.309	0.233	-0.063
-259.180	800.000	-0.111	0.343
-258.165	27.744	0.174	0.147
-257.151	89.155	-0.184	0.205
-256.136	800.000	-0.052	0.213
-255.122	-14.337	0.248	-0.160
-254.107	-105.532	-0.263	-0.060
-253.092	59.953	0.084	0.084
-252.078	-77.879	0.123	-0.043
-251.063	-125.801	-0.269	0.041
-250.049	-178.410	0.221	0.005
-249.034	-200.000	-0.048	0.243
-248.019	32.084	-0.192	0.166
-247.005	-150.063	0.142	0.011
-245.990	98.062	0.056	-0.064
-244.976	-103.105	-0.213	0.050
-243.961	-200.000	-0.012	0.161
-242.946	166.719	-0.138	0.195
-241.932	21.280	-0.095	-0.077
-240.917	-140.736	0.081	0.008
-239.903	-120.333	-0.235	0.040
-238.888	-174.547	0.221	-0.006
-237.873	-187.427	0.174	0.002
-236.859	350.376	0.108	-0.214
-235.844	8.475	-0.036	0.027
-234.830	-200.000	-0.005	0.266
-233.815	-200.000	-0.022	0.225
-232.800	-200.000	-0.031	0.142
-231.786	-156.506	0.245	0.015
-230.771	-200.000	-0.029	0.513
-229.757	599.046	-0.053	-0.132
-228.742	-200.000	-0.035	0.272
-227.727	-84.434	-0.180	0.057
-226.713	111.781	0.156	-0.189
-225.698	546.178	0.155	-0.371
-224.684	-49.014	0.171	-0.082
-223.669	-82.308	0.303	0.099
-222.655	-200.000	-0.000	0.126
-221.640	639.209	0.113	0.286
-220.625	253.916	0.044	-0.074
-219.611	-2.011	0.161	0.113
-218.596	800.000	-0.082	0.303
-217.582	-200.000	0.079	0.384
-216.567	74.936	-0.121	-0.128
-215.552	-144.652	0.377	-0.035
-214.538	195.829	0.060	-0.091
-213.523	-57.228	0.108	0.048
-212.509	-78.092	-0.100	-0.034
-211.494	-74.138	0.161	-0.058
-210.479	-59.111	-0.354	0.153
-209.465	-15.947	-0.381	0.243
-208.450	297.059	-0.049	0.089
-207.436	366.844	0.152	0.307
-206.421	193.222	-0.112	-0.170
-205.406	-122.333	-0.183	0.030
-204.392	-200.000	-0.073	-0.402
-203.377	-133.086	-0.216	-0.027
-202.363	-154.696	-0.059	0.004
-201.348	399.144	0.120	-0.251
-200.333	-69.860	0.419	-0.160
-199.319	-171.433	0.126	-0.004
-198.304	-200.000	0.032	-0.186
-197.290	139.043	0.137	-0.180
-196.275	89.168	0.135	-0.150
-195.260	-28.443	-0.416	0.240
-194.246	24.650	-0.267	0.221
-193.231	-78.297	-0.299	0.102
-192.217	-68.185	-0.058	-0.022
-191.202	-74.225	0.135	0.049
-190.187	49.983	-0.159	0.150
-189.173	-8.671	0.165	-0.110
-188.158	-114.772	0.069	0.013
-187.144	-135.972	0.197	-0.023
-186.129	248.876	0.167	0.283
-185.114	-200.000	-0.021	0.218
-184.100	800.000	0.039	0.161
-183.085	135.804	0.155	0.201
-182.071	156.564	0.162	-0.224
-181.056	-76.183	-0.256	0.090
-180.042	-15.102	-0.203	0.130
-179.027	-84.273	0.315	-0.100
-178.012	-108.279	0.315	0.068
-176.998	-85.403	-0.299	-0.093
-175.983	-200.000	-0.018	-0.187
-174.969	-200.000	-0.062	0.323
-173.954	-200.000	0.006	0.035
-172.939	-81.695	-0.306	0.100
-171.925	337.041	-0.124	0.241
-170.910	-85.256	0.047	0.015
-169.896	-200.000	0.043	0.321
-168.881	238.532	0.134	0.222
-167.866	-200.000	0.069	-0.343
-166.852	-58.337	-0.054	0.023
-165.837	-109.378	-0.249	0.053
-164.823	243.254	-0.102	-0.171
-163.808	144.570	-0.136	0.181
-162.793	74.491	0.202	-0.212
-161.779	-90.383	0.333	-0.096
-160.764	130.414	0.195	-0.250
-159.750	-30.099	-0.214	0.121
-158.735	-176.884	-0.345	0.009
-157.720	167.607	-0.125	-0.177
-156.706	-6.092	-0.125	-0.085
-155.691	75.315	0.076	0.080
-154.677	232.656	0.047	-0.076
-153.662	495.831	0.114	0.262
-152.647	674.501	-0.106	0.275
-151.633	-71.540	0.050	-0.019
-150.618	49.956	0.143	-0.134
-149.604	-77.602	0.374	0.129
-148.589	-126.506	0.316	-0.047
-147.574	310.554	0.177	0.331
-146.560	541.069	0.058	0.138
-145.545	-200.000	0.007	0.164
-144.531	-51.420	-0.096	0.045
-143.516	-89.121	-0.291	0.086
-142.502	459.425	0.056	0.123
-141.487	153.498	0.052	0.070
-140.472	-149.981	-0.091	0.007
-139.458	-134.576	-0.259	-0.032
-138.443	-200.000	0.013	-0.084
-137.429	-92.024	0.206	-0.058
-136.414	-200.000	-0.011	-0.196
-135.399	64.879	-0.087	-0.087
-134.385	-156.378	0.271	0.017
-133.370	-200.000	-0.016	-0.367
-132.356	-200.000	0.011	0.257
-131.341	26.467	0.136	0.113
-130.326	399.280	-0.125	-0.261
-129.312	800.000	0.027	0.094
-128.297	63.333	0.179	-0.179
-127.283	-200.000	-0.082	-0.445
-126.268	68.741	-0.147	-0.150
-125.253	594.821	-0.087	-0.215
-124.239	-96.127	0.129	0.034
-123.224	-200.000	0.002	-0.014
-122.210	-5.975	0.120	-0.081
-121.195	-200.000	0.019	-0.108
-120.180	115.606	0.156	-0.190
-119.166	57.666	0.150	0.146
-118.151	800.000	-0.033	-0.110
-117.137	-20.420	-0.092	-0.056
-116.122	5.148	-0.177	0.130
-115.107	-38.419	-0.191	0.101
-114.093	-27.759	-0.253	0.146
-113.078	40.883	0.045	0.041
-112.064	-51.086	0.340	-0.159
-111.049	-36.989	-0.365	0.195
-110.034	-47.129	-0.335	0.163
-109.020	10.404	-0.234	0.177
-108.005	237.278	0.114	0.188
-106.991	445.102	0.039	-0.085
-105.976	85.606	-0.210	-0.230
-104.962	-2.029	0.064	-0.045
-103.947	181.828	-0.083	0.121
-102.932	800.000	0.065	0.270
-101.918	144.063	-0.137	-0.182
-100.903	-182.146	-0.203	-0.004
-99.889	-200.000	-0.089	0.472
-98.874	-119.825	0.149	0.026
-97.859	0.184	-0.211	-0.150
-96.845	274.980	0.157	-0.277
-95.830	800.000	0.097	-0.300
-94.816	-58.164	0.080	0.035
-93.801	-39.540	0.272	-0.142
-92.786	800.000	-0.057	-0.187
-91.772	-113.470	0.118	0.023
-90.757	88.371	0.044	-0.049
-89.743	38.422	0.198	-0.175
-88.728	800.000	0.041	-0.140
-87.713	-102.314	-0.295	-0.070
-86.699	800.000	-0.034	-0.116
-85.684	57.441	0.241	-0.235
-84.670	376.681	-0.071	-0.143
-83.655	329.240	0.163	-0.312
-82.640	45.604	-0.112	-0.103
-81.626	-30.461	0.227	0.128
-80.611	-135.017	0.270	0.032
-79.597	85.823	-0.042	0.046
-78.582	435.508	0.214	0.464
-77.567	800.000	-0.081	-0.238
-76.553	298.722	-0.107	0.195
-75.538	-125.910	-0.112	-0.017
-74.524	-123.955	0.271	0.042
-73.509	625.283	0.091	-0.230
-72.494	-200.000	0.030	-0.261
-71.480	-18.530	-0.133	-0.082
-70.465	-122.735	0.163	0.026
-69.451	800.000	-0.044	0.143
-68.436	-77.807	0.060	-0.021
-67.422	-135.657	0.123	0.015
-66.407	302.004	-0.142	0.261
-65.392	-45.136	0.402	-0.199
-64.378	-53.805	-0.073	0.033
-63.363	-26.694	-0.008	0.005
-62.349	618.067	0.102	-0.253
-61.334	155.864	-0.726	-0.996
-60.319	50.074	0.540	0.507
-59.305	-200.000	-0.035	-0.656
-58.290	458.347	0.402	0.889
-57.276	781.818	0.563	1.532
-56.261	-200.000	88.216	496.380
-55.246	528.440	1387.987	3255.390
-54.232	184.550	2599.696	3829.362
-53.217	118.665	2226.055	2732.423
-52.203	47.309	1753.800	1623.689
-51.188	40.554	1560.308	1397.127
-50.173	38.076	1532.622	1355.105
-49.159	54.564	1577.989	1511.691
-48.144	58.546	1597.663	1558.556
-47.130	41.070	1555.866	1396.548
-46.115	37.775	1540.399	1359.667
-45.100	37.656	1537.181	1355.946
-44.086	37.624	1535.091	1353.822
-43.071	37.487	1532.884	1350.875
-42.057	37.535	1530.877	1349.385
-41.042	37.640	1529.207	1348.587
-40.027	37.514	1528.273	1346.835
-39.013	37.435	1527.124	1345.225
-37.998	37.507	1525.109	1343.890
-36.984	37.536	1524.179	1343.218
-35.969	37.629	1522.748	1342.543
-34.954	37.527	1521.227	1340.447
-33.940	37.533	1520.590	1339.876
-32.925	37.683	1518.693	1339.184
-31.911	37.577	1517.509	1337.356
-30.896	37.641	1515.767	1336.205
-29.881	37.612	1514.869	1335.168
-28.867	37.648	1513.236	1333.922
-27.852	37.618	1511.294	1331.953
-26.838	37.575	1510.398	1330.809
-25.823	37.635	1508.043	1329.093
-24.809	37.639	1506.827	1327.995
-23.794	37.594	1505.157	1326.165
-22.779	37.613	1504.622	1325.769
-21.765	37.572	1503.667	1324.598
-20.750	37.633	1502.269	1323.729
-19.736	37.573	1500.929	1322.091
-18.721	37.632	1499.836	1321.470
-17.706	37.578	1498.808	1320.148
-16.692	37.517	1497.796	1318.794
-15.677	37.572	1496.660	1318.110
-14.663	37.503	1495.426	1316.504
-13.648	37.533	1494.590	1315.923
-12.633	37.539	1493.546	1314.988
-11.619	37.674	1492.326	1314.777
-10.604	37.510	1491.576	1312.956
-9.590	37.537	1490.256	1311.925
-8.575	37.546	1489.349	1311.133
-7.560	37.572	1488.750	1310.731
-6.546	37.472	1488.301	1309.605
-5.531	37.397	1487.237	1308.112
-4.517	37.479	1486.325	1307.810
-3.502	37.473	1485.125	1306.665
-2.487	37.560	1483.730	1305.969
-1.473	37.484	1483.002	1304.766
-0.458	37.533	1481.775	1303.960
0.556	37.505	1471.387	1292.602
1.571	34.333	1444.602	1248.222
2.586	30.304	1381.051	1167.906
3.600	28.215	1295.839	1083.397
4.615	26.280	1247.685	1032.009
5.629	22.269	1189.596	961.982
6.644	13.292	1102.723	845.926
7.659	6.138	1059.416	777.360
8.673	5.155	1053.612	768.198
9.688	5.048	1051.314	765.929
10.702	5.051	1049.455	764.524
11.717	4.926	1048.230	762.953
12.731	7.459	1050.483	776.936
13.746	15.673	1061.210	825.279
14.761	20.800	1067.927	855.691
15.775	19.821	1065.540	848.901
16.790	18.703	1062.850	841.207
17.804	17.618	1060.800	834.201
18.819	16.675	1058.992	828.094
19.834	16.209	1057.573	824.633
20.848	15.910	1056.460	822.233
21.863	15.671	1056.310	820.876
22.877	15.468	1055.145	818.909
23.892	15.384	1054.055	817.581
24.907	15.250	1053.285	816.260
25.921	15.283	1052.595	815.815
26.936	15.246	1052.149	815.215
27.950	15.353	1051.143	814.884
28.965	15.319	1049.977	813.745
29.980	15.294	1048.757	812.604
30.994	15.507	1047.333	812.462
32.009	15.530	1046.671	811.986
33.023	15.625	1045.643	811.574
34.038	15.654	1045.216	811.314
35.053	15.476	1044.303	809.673
36.067	15.460	1043.247	808.708
37.082	15.386	1042.638	807.803
38.096	15.370	1041.926	807.105
39.111	15.481	1040.924	806.791
40.126	15.581	1039.987	806.473
41.140	15.526	1038.897	805.295
42.155	15.255	1038.132	803.330
43.169	15.133	1037.107	801.882
44.184	15.205	1035.460	800.883
45.199	15.175	1034.317	799.783
46.213	15.238	1033.629	799.481
47.228	15.250	1032.537	798.626
48.242	15.286	1031.689	798.067
49.257	15.340	1031.351	797.992
50.271	15.326	1029.812	796.665
51.286	15.379	1028.844	796.099
52.301	15.452	1028.342	795.985
53.315	15.375	1027.619	794.992
54.330	15.315	1026.725	793.946
55.344	15.159	1025.968	792.550
56.359	15.206	1024.807	791.804
57.374	15.199	1024.272	791.290
58.388	15.297	1022.960	790.668
59.403	15.174	1021.853	789.164
60.417	15.078	1021.533	788.393
61.432	15.073	1020.781	787.719
62.447	15.168	1019.568	787.159
63.461	15.036	1019.067	786.083
64.476	15.101	1018.017	785.511
65.490	15.038	1017.258	784.561
66.505	14.953	1016.537	783.538
67.520	15.008	1015.788	783.146
68.534	15.009	1014.947	782.434
69.549	15.031	1014.139	781.844
70.563	15.046	1013.102	781.046
71.578	15.035	1012.129	780.174
72.593	15.066	1011.302	779.614
73.607	14.863	1010.833	778.240
74.622	14.959	1009.453	777.555
75.636	14.820	1008.882	776.400
76.651	14.899	1007.815	775.877
77.666	14.850	1007.431	775.282
78.680	14.976	1006.862	775.361
79.695	14.882	1006.012	774.205
80.709	15.056	1005.139	774.266
81.724	14.963	1004.815	773.519
82.739	15.206	1003.912	773.880
83.753	15.154	1003.201	773.022
84.768	15.313	1002.420	773.087
85.782	15.429	1001.947	773.187
86.797	15.588	1001.026	773.136
87.812	15.505	1000.071	771.951
88.826	15.288	999.628	770.542
89.841	15.292	998.544	769.657
90.855	15.432	997.601	769.504
91.870	15.439	996.925	768.947
92.884	15.385	996.736	768.485
93.899	15.452	995.638	767.880
94.914	15.495	994.960	767.484
95.928	15.490	994.419	766.978
96.943	15.498	993.381	766.144
97.957	15.637	992.542	766.062
98.972	15.496	991.898	764.853
99.987	15.491	990.997	764.071
101.001	15.540	990.341	763.721
102.016	15.366	989.783	762.433
103.030	15.423	988.686	761.780
104.045	15.389	987.889	760.941
105.060	15.352	986.602	759.714
106.074	15.437	985.806	759.420
107.089	15.334	984.905	758.192
108.103	15.136	984.194	756.684
109.118	15.023	983.380	755.482
110.133	15.158	982.132	755.066
111.147	15.073	981.467	754.102
112.162	15.108	980.479	753.436
113.176	15.147	979.632	752.895
114.191	15.140	978.979	752.293
115.206	15.264	977.558	751.692
116.220	15.339	977.085	751.597
117.235	15.175	976.430	750.292
118.249	15.209	975.564	749.711
119.264	15.190	974.381	748.651
120.279	15.062	973.567	747.390
121.293	15.206	972.822	747.395
122.308	15.040	972.122	746.051
123.322	15.027	971.522	745.463
124.337	15.085	970.313	744.731
125.352	15.038	969.123	743.542
126.366	15.040	968.156	742.741
127.381	14.976	966.999	741.504
128.395	14.955	966.210	740.744
129.410	15.126	965.077	740.566
130.424	15.122	963.974	739.636
131.439	15.225	963.215	739.441
132.454	15.223	962.501	738.818
133.468	15.201	962.059	738.316
134.483	15.268	961.868	738.400
135.497	15.347	960.670	737.763
136.512	15.260	960.160	736.924
137.527	15.270	959.611	736.481
138.541	15.038	959.137	735.033
139.556	15.209	957.719	734.630
140.570	15.293	957.251	734.577
141.585	15.232	956.239	733.467
142.600	15.442	955.629	733.851
143.614	15.519	955.158	733.762
144.629	15.484	954.210	732.818
145.643	15.455	953.711	732.243
146.658	15.593	952.393	731.766
147.673	15.585	951.485	730.971
148.687	15.350	950.745	729.312
149.702	15.382	949.807	728.667
150.716	15.297	948.989	727.609
151.731	15.139	948.441	726.439
152.746	15.344	947.559	726.586
153.760	15.254	946.778	725.532
154.775	15.360	945.729	725.123
155.789	15.306	945.410	724.583
156.804	15.325	944.416	723.838
157.819	15.313	944.000	723.401
158.833	15.413	943.146	723.116
159.848	15.629	942.515	723.497
160.862	15.590	941.774	722.700
161.877	15.561	941.199	722.068
162.892	15.481	940.357	721.015
163.906	15.338	939.126	719.391
164.921	15.341	938.389	718.779
165.935	15.171	937.913	717.622
166.950	15.362	936.512	717.304
167.964	15.299	935.564	716.246
168.979	15.387	934.473	715.720
169.994	15.327	933.555	714.700
171.008	15.201	932.830	713.544
172.023	15.327	931.887	713.298
173.037	15.412	931.354	713.184
174.052	15.589	930.112	712.925
175.067	15.647	929.430	712.585
176.081	15.500	928.702	711.340
177.096	15.337	927.913	709.980
178.110	15.346	926.885	709.169
179.125	15.413	926.019	708.730
180.140	15.414	925.727	708.447
181.154	15.382	925.058	707.738
182.169	15.482	924.046	707.322
183.183	15.482	924.151	707.340
184.198	15.676	922.704	706.983
185.213	15.635	922.600	706.669
186.227	15.543	922.025	705.780
187.242	15.643	921.354	705.622
188.256	15.739	920.721	705.481
189.271	15.815	919.942	705.139
190.286	15.926	918.957	704.788
191.300	15.597	918.217	702.781
192.315	15.357	917.578	701.228
193.329	15.434	916.550	700.700
194.344	15.293	916.089	699.698
195.359	15.429	915.601	699.828
196.373	15.597	915.063	700.055
197.388	15.582	914.563	699.548
198.402	15.761	914.083	699.866
199.417	15.788	913.917	699.789
200.432	15.788	913.724	699.578
201.446	15.952	913.066	699.694
202.461	15.936	912.713	699.296
203.475	15.950	912.116	698.836
204.490	16.033	910.979	698.245
205.504	16.065	910.242	697.753
206.519	15.872	909.580	696.386
207.534	15.916	908.668	695.805
208.548	15.874	907.905	694.987
209.563	15.854	907.146	694.261
210.577	15.805	906.687	693.646
211.592	15.880	906.070	693.424
212.607	15.905	905.742	693.212
213.621	16.118	904.889	693.373
214.636	16.082	904.336	692.743
215.650	15.844	903.695	691.214
216.665	15.962	902.957	691.070
217.680	16.056	903.097	691.501
218.694	16.174	901.840	690.963
219.709	16.378	901.347	691.358
220.723	16.165	900.789	689.996
221.738	16.032	900.113	688.875
222.753	16.095	899.095	688.294
223.767	16.035	898.565	687.581
224.782	16.256	897.611	687.691
225.796	16.147	897.395	687.022
226.811	16.252	896.303	686.552
227.826	16.259	895.704	686.058
228.840	16.169	894.883	685.003
229.855	16.316	894.171	684.996
230.869	16.312	893.389	684.322
231.884	16.238	892.984	683.649
232.899	16.072	892.425	682.487
233.913	16.071	891.741	681.902
234.928	16.050	891.082	681.251
235.942	15.963	890.394	680.315
236.957	16.019	889.208	679.574
237.972	16.017	888.640	679.073
238.986	16.119	888.142	679.041
240.001	16.095	887.753	678.585
241.015	16.153	886.844	678.067
242.030	16.110	886.613	677.654
243.045	16.123	885.601	676.873
244.059	16.250	885.201	677.018
245.074	16.342	884.237	676.589
246.088	16.381	883.614	676.208
247.103	16.324	883.316	675.695
248.117	16.410	882.623	675.449
249.132	16.492	882.265	675.441
250.147	16.596	881.693	675.361
251.161	16.729	881.231	675.474
252.176	16.722	880.618	674.917
253.190	16.838	879.663	674.587
254.205	16.728	879.601	674.046
255.220	16.836	878.512	673.578
256.234	16.881	877.550	672.960
257.249	16.741	877.426	672.248
258.263	16.902	876.856	672.394
259.278	16.845	875.997	671.450
260.293	16.909	875.739	671.446
261.307	16.936	874.902	670.848
262.322	16.835	874.884	670.379
263.336	16.930	874.014	670.026
264.351	17.000	873.224	669.640
265.366	16.951	873.205	669.371
266.380	17.014	872.103	668.714
267.395	16.962	871.325	667.854
268.409	17.003	870.635	667.428
269.424	16.903	869.609	666.190
270.439	16.931	869.439	666.110
271.453	16.939	868.422	665.303
272.468	16.876	867.489	664.285
273.482	16.801	867.332	663.811
274.497	16.956	866.491	663.716
275.512	16.919	865.850	663.021
276.526	16.943	865.209	662.563
277.541	16.973	864.523	662.100
278.555	16.845	864.143	661.248
279.570	17.078	863.527	661.629
280.585	17.184	863.062	661.627
281.599	17.249	862.435	661.338
282.614	17.182	862.051	660.725
283.628	17.056	861.307	659.606
284.643	16.983	861.008	659.035
285.657	17.037	860.351	658.687
286.672	17.193	859.588	658.646
287.687	17.098	859.126	657.868
288.701	17.128	858.739	657.629
289.716	17.194	857.901	657.183
290.730	17.122	857.607	656.621
291.745	17.097	856.874	655.908
292.760	17.120	856.105	655.350
293.774	17.180	855.368	654.958
294.789	17.343	855.249	655.438
295.803	17.455	854.328	655.105
296.818	17.369	853.786	654.301
297.833	17.377	852.783	653.502
298.847	17.264	852.206	652.568
299.862	17.366	851.739	652.544
300.876	17.424	850.954	652.108
301.891	17.254	850.656	651.171
302.906	17.493	849.783	651.359
303.920	17.464	848.965	650.564
304.935	17.422	848.583	650.053
305.949	17.547	848.240	650.212
306.964	17.618	847.516	649.870
307.979	17.474	846.796	648.713
308.993	17.531	846.545	648.678
310.008	17.575	845.845	648.253
311.022	17.507	845.688	647.815
312.037	17.644	845.023	647.770
313.052	17.531	844.359	646.775
314.066	17.418	843.804	645.863
315.081	17.346	842.935	644.868
316.095	17.431	842.555	644.840
317.110	17.392	842.078	644.271
318.125	17.505	841.270	644.025
319.139	17.450	840.630	643.270
320.154	17.404	840.242	642.742
321.168	17.432	839.869	642.506
322.183	17.626	839.121	642.610
323.197	17.570	838.800	642.095
324.212	17.442	838.494	641.320
325.227	17.504	837.939	641.074
326.241	17.514	836.990	640.327
327.256	17.626	836.429	640.263
328.270	17.611	835.630	639.540
329.285	17.448	835.177	638.523
330.300	17.638	834.451	638.625
331.314	17.574	834.427	638.310
332.329	17.459	833.834	637.368
333.343	17.485	833.114	636.859
334.358	17.752	831.980	636.935
335.373	17.785	831.914	636.949
336.387	17.708	831.712	636.451
337.402	17.867	831.215	636.610
338.416	17.743	830.583	635.606
339.431	17.995	829.759	635.857
340.446	17.946	829.359	635.310
341.460	18.053	828.997	635.375
342.475	18.017	828.141	634.529
343.489	18.213	827.333	634.584
344.504	18.165	826.871	633.995
345.519	18.137	826.809	633.787
346.533	18.308	826.176	633.877
347.548	18.140	825.863	632.959
348.562	18.142	825.213	632.412
349.577	17.893	824.733	631.068
350.592	17.909	824.047	630.548
351.606	17.903	823.683	630.192
352.621	17.852	822.942	629.382
353.635	17.866	822.509	629.043
354.650	18.026	822.148	629.301
355.665	18.017	821.979	629.083
356.679	18.090	821.397	628.853
357.694	18.114	820.826	628.448
358.708	18.104	820.308	627.958
359.723	18.180	819.648	627.676
360.738	18.153	818.747	626.833
361.752	18.270	818.250	626.825
362.767	18.157	818.239	626.345
363.781	18.075	818.246	625.997
364.796	18.314	817.333	626.117
365.810	18.312	817.038	625.829
366.825	18.536	816.372	626.080
367.840	18.561	816.324	626.079
368.854	18.500	815.749	625.362
369.869	18.433	815.311	624.724
370.883	18.380	814.767	624.059
371.898	18.465	814.233	623.907
372.913	18.431	813.709	623.326
373.927	18.547	813.236	623.331
374.942	18.449	812.208	622.128
375.956	18.467	811.944	621.937
376.971	18.612	810.719	621.470
377.986	18.760	810.466	621.757
379.000	18.803	810.030	621.524
380.015	18.788	809.601	621.084
381.029	18.853	808.800	620.649
382.044	18.769	808.485	620.049
383.059	18.720	808.031	619.470
384.073	18.796	807.444	619.240
385.088	18.815	806.853	618.800
386.102	18.576	806.368	617.512
387.117	18.505	805.830	616.791
388.132	18.641	805.090	616.658
389.146	18.471	805.259	616.123
390.161	18.602	804.329	615.827
391.175	18.595	804.436	615.827
392.190	18.594	804.051	615.477
393.205	18.784	803.010	615.306
394.219	18.715	802.928	614.941
395.234	18.649	802.430	614.270
396.248	18.699	801.741	613.866
397.263	18.596	801.364	613.155
398.278	18.476	801.029	612.416
399.292	18.478	800.629	612.064
400.307	18.541	800.295	611.979
401.321	18.529	799.835	611.529
402.336	18.517	799.484	611.163
403.350	18.643	799.027	611.210
404.365	18.556	798.931	610.772
405.380	18.760	797.914	610.665
406.394	18.914	797.506	610.849
407.409	18.823	797.095	610.157
408.423	18.897	796.931	610.239
409.438	18.953	796.261	609.870
410.453	19.139	795.637	609.998
411.467	19.080	795.086	609.314
412.482	19.132	794.982	609.362
413.496	19.148	794.401	608.920
414.511	19.159	794.211	608.757
415.526	19.080	793.966	608.237
416.540	19.115	793.481	607.935
417.555	19.047	793.263	607.475
418.569	19.194	792.533	607.383
419.584	19.226	791.789	606.870
420.599	19.325	791.536	606.969
421.613	152.524	1366.751	1782.022
422.628	131.897	1450.592	1782.169
