DTS Sentinel unit serial number:	SN413079Multiplexer serial number:	ORYXHardware model number:	OX4-SRSoftware version number:	ORYX F/W v4.00 Oryx Data Collector v3.7.2.0data status	okinstallation	princeton_trtdifferential loss correction	single-endedforward channel	channel 3reverse channel	N/Adate	2019/09/13time	01:24:34forward acquisition time	60.00reverse acquisition time	0.00gamma	496.2192k internal	0.2334k external	0.2334temperature offset calibration	1.0113default loss term (dB/km)	0.3790temperature slope calibration	1.0000multiplexer offset coefficient	1.0000multiplexer slope coefficient	1.0000fibre end	0.00T internal ref (°C)	27.87T ext. ref 1 (°C)	3.71T ext. ref 2 (°C)	22.44length (m)	temperature (°C)	Stokes	anti-Stokes-747.200	260.678	0.150	-0.260
-746.185	-174.255	-0.517	-0.015
-745.171	65.738	0.246	-0.251
-744.156	800.000	0.072	0.235
-743.142	-200.000	0.063	0.310
-742.127	372.889	0.048	0.099
-741.112	-200.000	-0.004	0.175
-740.098	-88.528	-0.178	-0.053
-739.083	274.584	0.184	0.328
-738.069	424.252	-0.167	0.362
-737.054	145.032	0.199	-0.267
-736.039	-114.367	-0.371	0.072
-735.025	75.489	0.163	0.173
-734.010	-42.942	-0.148	0.076
-732.996	-11.438	0.038	-0.025
-731.981	800.000	0.065	-0.285
-730.966	-102.095	-0.249	-0.060
-729.952	71.804	-0.156	0.163
-728.937	280.070	-0.095	-0.170
-727.923	-200.000	-0.005	-0.407
-726.908	69.859	-0.182	0.189
-725.894	-111.697	-0.426	0.087
-724.879	-200.000	0.010	0.168
-723.864	8.148	-0.321	-0.242
-722.850	122.885	-0.155	0.194
-721.835	-200.000	0.075	0.453
-720.821	-134.326	0.351	0.043
-719.806	-200.000	0.014	-0.145
-718.791	199.524	-0.101	-0.155
-717.777	-16.011	0.031	0.020
-716.762	25.516	0.026	0.022
-715.748	-200.000	0.018	0.205
-714.733	-98.304	0.269	-0.069
-713.718	-140.086	0.129	-0.014
-712.704	-69.565	-0.079	0.031
-711.689	-126.542	-0.147	0.022
-710.675	-56.325	0.105	-0.047
-709.660	-200.000	0.039	-0.185
-708.645	-188.501	-0.320	0.004
-707.631	481.787	-0.084	0.190
-706.616	90.845	0.339	-0.381
-705.602	-85.011	0.241	-0.076
-704.587	-200.000	0.033	0.209
-703.572	-81.947	0.238	0.078
-702.558	-85.697	-0.270	0.084
-701.543	-34.399	0.121	-0.067
-700.529	16.356	-0.249	0.197
-699.514	-58.298	-0.292	-0.128
-698.499	103.715	0.130	0.154
-697.485	10.558	-0.314	0.240
-696.470	270.735	-0.065	0.115
-695.456	290.009	0.083	-0.150
-694.441	279.206	-0.017	-0.030
-693.426	-200.000	-0.029	-0.163
-692.412	270.341	0.058	-0.102
-691.397	-82.849	0.246	-0.080
-690.383	305.907	-0.098	-0.183
-689.368	-42.213	-0.071	-0.036
-688.354	70.432	-0.025	0.026
-687.339	-160.757	0.223	-0.012
-686.324	-91.156	0.277	0.080
-685.310	698.428	0.018	0.048
-684.295	-200.000	0.027	-0.152
-683.281	114.304	-0.219	0.267
-682.266	800.000	0.016	-0.068
-681.251	-171.839	0.062	-0.002
-680.237	170.025	0.175	-0.250
-679.222	6.404	-0.029	-0.021
-678.208	-117.256	0.075	-0.014
-677.193	-200.000	-0.056	-0.328
-676.178	0.628	0.173	0.124
-675.164	-200.000	-0.036	-0.162
-674.149	-200.000	0.008	-0.197
-673.135	-70.967	-0.184	-0.069
-672.120	-10.131	-0.091	-0.061
-671.105	-138.392	-0.147	0.016
-670.091	146.854	-0.152	-0.205
-669.076	-154.001	-0.439	-0.030
-668.062	28.720	0.285	-0.242
-667.047	-78.406	0.231	-0.079
-666.032	402.897	-0.057	-0.120
-665.018	116.155	0.072	0.089
-664.003	-12.036	-0.279	-0.183
-662.989	104.021	-0.184	-0.217
-661.974	-200.000	0.035	-0.165
-660.959	-48.121	-0.120	-0.058
-659.945	-163.675	-0.129	-0.006
-658.930	88.352	0.231	-0.257
-657.916	11.067	0.190	0.145
-656.901	800.000	-0.073	0.236
-655.886	-2.124	-0.106	0.075
-654.872	-26.307	-0.252	-0.148
-653.857	-158.269	-0.168	0.010
-652.843	800.000	0.077	-0.252
-651.828	-122.742	0.134	0.022
-650.814	-15.040	-0.149	0.096
-649.799	504.892	-0.083	0.192
-648.784	-200.000	-0.030	-0.169
-647.770	-200.000	0.089	0.404
-646.755	-25.420	-0.291	-0.172
-645.741	-108.635	-0.175	-0.038
-644.726	59.980	0.108	-0.107
-643.711	-54.977	-0.193	-0.087
-642.697	-32.297	-0.220	0.123
-641.682	-200.000	0.036	0.158
-640.668	-171.359	-0.189	-0.006
-639.653	-99.637	-0.360	-0.090
-638.638	-135.016	-0.380	0.046
-637.624	61.203	0.215	-0.213
-636.609	-200.000	0.014	0.062
-635.595	-176.460	0.097	0.003
-634.580	-144.912	0.521	-0.048
-633.565	94.392	0.161	-0.183
-632.551	-28.395	0.368	0.212
-631.536	-17.050	-0.308	-0.194
-630.522	-19.789	-0.136	0.084
-629.507	-200.000	-0.035	-0.352
-628.492	800.000	0.049	0.155
-627.478	27.317	0.256	-0.215
-626.463	-200.000	-0.038	0.000
-625.449	-200.000	0.038	-0.202
-624.434	-29.772	0.114	-0.065
-623.419	44.843	0.083	-0.076
-622.405	628.436	-0.067	0.169
-621.390	131.137	0.160	0.205
-620.376	276.074	-0.222	0.394
-619.361	148.905	-0.168	0.228
-618.346	-137.127	-0.119	0.014
-617.332	35.080	0.113	-0.099
-616.317	-200.000	0.042	0.295
-615.303	232.417	-0.023	-0.037
-614.288	-200.000	0.010	-0.132
-613.273	203.831	-0.013	-0.020
-612.259	385.446	-0.101	-0.209
-611.244	-200.000	0.043	-0.199
-610.230	-200.000	-0.016	0.203
-609.215	-26.537	0.281	-0.164
-608.201	800.000	-0.034	-0.147
-607.186	201.612	-0.082	-0.126
-606.171	-10.162	0.249	-0.165
-605.157	169.669	0.332	-0.475
-604.142	-60.352	-0.066	-0.028
-603.128	-102.351	0.420	-0.101
-602.113	-200.000	-0.042	-0.325
-601.098	-107.712	0.148	-0.032
-600.084	-16.968	0.074	-0.047
-599.069	568.178	-0.080	0.194
-598.055	-200.000	-0.053	-0.237
-597.040	-93.494	0.159	-0.044
-596.025	-104.511	-0.139	0.032
-595.011	210.313	-0.123	0.193
-593.996	-200.000	0.011	0.243
-592.982	-200.000	0.001	0.063
-591.967	91.687	-0.118	-0.133
-590.952	-193.553	-0.225	-0.002
-589.938	344.354	0.018	0.036
-588.923	-52.414	0.231	-0.107
-587.909	-107.292	-0.130	0.029
-586.894	167.285	-0.262	0.371
-585.879	113.453	0.095	0.115
-584.865	-119.173	-0.061	-0.011
-583.850	528.152	0.035	-0.082
-582.836	128.076	-0.132	0.168
-581.821	100.631	-0.209	0.242
-580.806	94.877	-0.052	0.059
-579.792	-200.000	0.000	-0.187
-578.777	-133.535	0.199	-0.025
-577.763	54.122	0.250	0.240
-576.748	-186.219	-0.204	-0.003
-575.733	561.004	-0.142	-0.343
-574.719	342.238	0.237	-0.464
-573.704	800.000	0.057	0.159
-572.690	218.827	-0.081	0.129
-571.675	110.787	0.028	-0.034
-570.661	171.023	0.152	-0.217
-569.646	-153.868	-0.242	0.016
-568.631	460.945	-0.081	-0.181
-567.617	-7.984	-0.198	-0.133
-566.602	84.358	0.163	0.178
-565.588	-13.563	-0.233	0.150
-564.573	-200.000	-0.038	0.245
-563.558	51.233	-0.272	-0.258
-562.544	64.626	0.226	-0.227
-561.529	-200.000	0.002	-0.243
-560.515	-142.748	-0.154	0.015
-559.500	800.000	0.068	0.205
-558.485	511.323	-0.075	0.175
-557.471	-71.271	-0.437	0.164
-556.456	-22.466	-0.151	0.091
-555.442	800.000	-0.049	-0.203
-554.427	800.000	-0.082	-0.341
-553.412	-27.644	0.139	0.081
-552.398	-120.324	-0.185	0.031
-551.383	151.474	0.052	0.070
-550.369	140.854	-0.058	0.076
-549.354	122.182	-0.117	0.146
-548.339	-15.487	-0.115	0.073
-547.325	53.297	0.164	-0.157
-546.310	-73.066	0.116	0.043
-545.296	800.000	-0.101	0.386
-544.281	148.132	-0.022	0.030
-543.266	24.756	-0.040	0.033
-542.252	89.906	-0.124	-0.138
-541.237	-111.835	0.342	0.069
-540.223	-26.142	-0.170	0.100
-539.208	154.785	0.137	0.187
-538.193	-94.189	0.211	-0.058
-537.179	241.823	-0.045	-0.075
-536.164	-158.373	0.259	-0.015
-535.150	-74.673	0.214	0.077
-534.135	-66.900	0.036	-0.014
-533.121	560.737	-0.076	-0.184
-532.106	-108.420	0.314	-0.067
-531.091	800.000	-0.106	0.294
-530.077	-13.037	-0.322	0.209
-529.062	111.957	0.170	-0.205
-528.048	-200.000	-0.014	0.084
-527.033	-92.305	-0.146	0.041
-526.018	594.488	-0.036	0.090
-525.004	-36.657	0.237	-0.127
-523.989	-151.006	-0.120	0.009
-522.975	22.406	0.104	-0.085
-521.960	-200.000	0.001	0.301
-520.945	-48.616	0.127	0.061
-519.931	-54.785	0.171	0.077
-518.916	-48.778	-0.075	0.036
-517.902	-50.201	0.317	0.150
-516.887	147.365	0.070	0.094
-515.872	-112.683	-0.207	-0.041
-514.858	800.000	0.045	0.194
-513.843	-39.194	-0.171	0.090
-512.829	-126.528	0.119	-0.018
-511.814	-155.502	-0.224	-0.014
-510.799	-119.291	0.177	0.031
-509.785	800.000	-0.050	0.155
-508.770	-136.052	0.029	-0.003
-507.756	-183.858	-0.361	0.006
-506.741	-127.261	0.186	-0.027
-505.726	-126.449	0.241	0.036
-504.712	-70.590	-0.168	-0.063
-503.697	-200.000	0.008	0.212
-502.683	77.392	-0.195	0.206
-501.668	800.000	-0.020	0.073
-500.653	61.359	-0.313	-0.310
-499.639	736.829	0.054	0.145
-498.624	-25.602	0.017	-0.010
-497.610	481.062	-0.109	-0.247
-496.595	-64.573	-0.311	-0.126
-495.581	-200.000	-0.034	0.207
-494.566	-21.525	-0.143	0.087
-493.551	-71.732	0.107	-0.040
-492.537	-200.000	-0.006	0.071
-491.522	341.678	0.162	0.316
-490.508	-200.000	-0.034	0.253
-489.493	-200.000	-0.022	-0.342
-488.478	93.264	0.159	0.179
-487.464	800.000	0.011	0.034
-486.449	-122.787	-0.240	0.039
-485.435	-129.230	-0.127	0.018
-484.420	800.000	-0.046	-0.126
-483.405	800.000	0.093	-0.255
-482.391	-46.603	-0.260	-0.127
-481.376	-47.008	-0.213	-0.104
-480.362	-200.000	0.029	-0.204
-479.347	800.000	0.085	0.243
-478.332	119.933	0.148	-0.183
-477.318	-200.000	0.055	0.253
-476.303	-3.285	-0.140	0.097
-475.289	-61.564	-0.311	0.130
-474.274	-117.285	-0.176	0.032
-473.259	133.281	-0.125	-0.161
-472.245	174.447	0.132	0.190
-471.230	-200.000	-0.043	-0.244
-470.216	-52.335	0.309	0.142
-469.201	-200.000	-0.017	-0.174
-468.186	-200.000	-0.002	0.164
-467.172	-200.000	-0.044	-0.217
-466.157	150.048	-0.119	0.160
-465.143	16.073	-0.279	0.219
-464.128	74.349	0.196	-0.205
-463.113	-200.000	-0.014	-0.211
-462.099	-109.475	0.069	0.015
-461.084	52.964	0.158	-0.151
-460.070	800.000	-0.105	-0.338
-459.055	40.211	-0.162	0.145
-458.040	528.111	0.027	-0.063
-457.026	-200.000	0.001	-0.254
-456.011	800.000	-0.067	0.283
-454.997	-200.000	0.002	0.180
-453.982	49.916	-0.351	0.329
-452.968	92.399	-0.126	-0.141
-451.953	-200.000	-0.074	-0.350
-450.938	217.253	-0.172	0.272
-449.924	4.004	0.178	0.129
-448.909	162.453	-0.093	0.130
-447.895	800.000	0.075	0.210
-446.880	-6.999	0.108	0.073
-445.865	332.964	0.116	0.224
-444.851	-84.418	0.039	-0.012
-443.836	800.000	-0.028	0.110
-442.822	800.000	0.077	-0.259
-441.807	-35.939	-0.322	-0.173
-440.792	65.702	0.136	-0.137
-439.778	-62.502	-0.135	-0.056
-438.763	800.000	0.012	0.045
-437.749	4.395	-0.112	0.082
-436.734	-133.619	-0.021	0.003
-435.719	-200.000	0.068	0.386
-434.705	165.366	0.256	0.359
-433.690	-46.505	0.292	-0.142
-432.676	-67.062	-0.237	0.093
-431.661	-200.000	0.028	-0.357
-430.646	800.000	0.090	-0.284
-429.632	-200.000	0.052	-0.433
-428.617	413.750	-0.118	-0.249
-427.603	800.000	0.081	-0.309
-426.588	71.581	-0.053	0.055
-425.573	-139.626	0.133	-0.014
-424.559	-200.000	0.294	0.001
-423.544	-115.735	-0.284	-0.053
-422.530	409.857	-0.099	-0.209
-421.515	208.538	0.178	-0.276
-420.500	800.000	0.107	0.361
-419.486	-200.000	0.005	0.329
-418.471	800.000	-0.042	-0.138
-417.457	-181.176	-0.209	-0.004
-416.442	800.000	-0.083	0.307
-415.428	363.298	-0.026	-0.052
-414.413	-14.462	0.337	0.215
-413.398	58.739	0.179	0.175
-412.384	-200.000	0.006	0.112
-411.369	174.031	-0.034	0.049
-410.355	197.936	0.171	0.260
-409.340	231.979	-0.128	-0.208
-408.325	800.000	0.050	0.177
-407.311	-114.954	0.150	-0.028
-406.296	800.000	0.122	-0.377
-405.282	378.898	0.126	0.256
-404.267	-16.639	0.038	0.024
-403.252	-192.578	-0.165	0.002
-402.238	-2.881	-0.061	-0.042
-401.223	-200.000	0.004	-0.296
-400.209	-200.000	-0.038	-0.259
-399.194	-200.000	-0.035	-0.188
-398.179	42.347	-0.408	-0.367
-397.165	-54.947	-0.199	0.089
-396.150	-67.622	0.413	0.160
-395.136	-98.300	-0.183	0.047
-394.121	800.000	-0.065	0.181
-393.106	800.000	0.136	-0.389
-392.092	-61.186	-0.142	0.059
-391.077	32.217	0.125	-0.107
-390.063	-24.772	-0.111	-0.065
-389.048	714.314	0.097	0.255
-388.033	98.320	-0.300	-0.342
-387.019	342.710	-0.120	-0.232
-386.004	-51.102	0.097	0.045
-384.990	-69.222	-0.358	0.137
-383.975	-119.134	0.196	0.034
-382.960	-24.315	-0.196	-0.116
-381.946	-164.552	-0.208	-0.009
-380.931	106.799	-0.076	0.089
-379.917	-75.186	0.186	-0.066
-378.902	333.025	-0.073	0.139
-377.888	-200.000	0.014	0.123
-376.873	-148.676	-0.151	0.012
-375.858	82.748	-0.124	0.133
-374.844	10.444	0.268	-0.202
-373.829	22.493	-0.137	-0.111
-372.815	-100.965	0.042	0.010
-371.800	214.106	0.109	-0.171
-370.785	-129.025	0.108	0.015
-369.771	-53.411	0.313	-0.142
-368.756	-200.000	-0.031	-0.452
-367.742	146.099	0.073	0.098
-366.727	24.175	0.238	-0.195
-365.712	142.960	-0.122	0.160
-364.698	800.000	-0.053	-0.170
-363.683	529.247	-0.106	-0.248
-362.669	191.418	0.044	-0.066
-361.654	169.345	-0.043	-0.061
-360.639	-103.460	-0.302	-0.070
-359.625	331.200	0.142	0.271
-358.610	800.000	0.084	0.353
-357.596	164.714	-0.075	0.105
-356.581	-177.456	0.188	-0.005
-355.566	800.000	0.009	0.032
-354.552	59.705	-0.062	-0.060
-353.537	479.938	0.042	-0.095
-352.523	-74.983	0.165	0.059
-351.508	36.149	0.030	-0.026
-350.493	-200.000	-0.005	0.256
-349.479	-58.048	0.380	0.164
-348.464	-200.000	0.014	0.114
-347.450	-47.940	-0.059	-0.028
-346.435	-90.201	0.179	-0.051
-345.420	64.119	0.076	0.075
-344.406	-9.934	-0.182	0.120
-343.391	-114.143	0.377	0.072
-342.377	-76.019	0.044	-0.015
-341.362	-86.769	-0.318	-0.096
-340.348	90.907	0.292	0.324
-339.333	-84.163	0.160	0.050
-338.318	10.770	0.164	0.124
-337.304	-200.000	-0.146	0.000
-336.289	-199.902	0.217	0.001
-335.275	334.666	-0.100	0.192
-334.260	-1.039	-0.097	0.068
-333.245	-200.000	-0.002	-0.203
-332.231	800.000	-0.036	0.120
-331.216	88.273	0.103	-0.113
-330.202	180.317	0.114	-0.165
-329.187	146.195	0.045	-0.060
-328.172	-200.000	0.010	-0.247
-327.158	-47.796	-0.121	0.058
-326.143	800.000	-0.081	0.237
-325.129	-100.573	-0.110	-0.027
-324.114	-106.385	0.154	0.034
-323.099	155.727	-0.230	0.313
-322.085	455.436	-0.049	0.107
-321.070	289.721	0.042	-0.075
-320.056	-92.321	-0.120	-0.033
-319.041	-200.000	0.039	0.194
-318.026	247.875	-0.050	0.084
-317.012	-200.000	0.017	-0.106
-315.997	66.192	-0.241	0.242
-314.983	-56.241	0.039	-0.017
-313.968	-172.942	0.205	0.006
-312.953	141.895	-0.026	-0.035
-311.939	29.959	0.223	0.187
-310.924	-34.399	-0.144	0.078
-309.910	-200.000	-0.004	0.049
-308.895	-126.394	0.197	-0.029
-307.880	23.526	0.176	0.143
-306.866	-107.052	-0.153	-0.033
-305.851	331.180	0.097	-0.185
-304.837	129.357	-0.373	-0.471
-303.822	-58.537	0.271	0.116
-302.807	-200.000	-0.017	0.328
-301.793	-88.302	-0.160	0.047
-300.778	800.000	-0.062	0.190
-299.764	-76.356	0.277	-0.096
-298.749	26.695	-0.065	-0.054
-297.735	633.159	0.035	-0.087
-296.720	-88.709	0.252	-0.074
-295.705	237.603	-0.188	0.307
-294.691	-200.000	0.001	0.183
-293.676	-4.740	0.311	-0.212
-292.662	-115.129	0.259	0.048
-291.647	95.348	-0.250	0.282
-290.632	229.429	-0.172	-0.278
-289.618	43.033	0.252	-0.227
-288.603	-180.873	0.171	-0.003
-287.589	778.603	-0.108	-0.291
-286.574	-75.314	0.094	-0.033
-285.559	-57.431	0.122	0.053
-284.545	-47.074	-0.284	-0.137
-283.530	-68.389	0.142	0.055
-282.516	-139.538	0.292	-0.031
-281.501	-151.716	-0.060	0.004
-280.486	-169.079	0.295	0.011
-279.472	-64.695	0.166	-0.067
-278.457	800.000	-0.081	-0.229
-277.443	-200.000	-0.007	0.231
-276.428	636.314	-0.107	0.269
-275.413	200.207	0.130	0.196
-274.399	-34.648	-0.219	-0.118
-273.384	-129.844	0.224	-0.030
-272.370	-135.450	0.186	0.022
-271.355	282.073	0.058	0.103
-270.340	800.000	-0.054	0.148
-269.326	-200.000	-0.066	0.292
-268.311	291.939	0.125	-0.224
-267.297	-200.000	0.064	0.445
-266.282	800.000	-0.173	0.541
-265.267	800.000	0.078	0.336
-264.253	-45.393	0.181	0.088
-263.238	10.688	0.079	0.060
-262.224	409.531	-0.032	0.067
-261.209	-115.443	0.174	-0.032
-260.195	-141.922	0.060	-0.006
-259.180	2.567	-0.172	-0.123
-258.165	-200.000	-0.009	-0.199
-257.151	199.890	0.155	-0.235
-256.136	346.790	0.151	0.293
-255.122	584.827	0.043	-0.104
-254.107	-200.000	0.019	0.223
-253.092	-200.000	-0.045	-0.292
-252.078	-49.327	-0.058	-0.027
-251.063	88.327	0.089	0.097
-250.049	-98.795	0.116	0.029
-249.034	-29.306	-0.241	-0.136
-248.019	167.687	0.018	-0.025
-247.005	-1.567	0.200	0.139
-245.990	231.949	0.079	-0.127
-244.976	-69.105	-0.285	0.108
-243.961	80.951	-0.205	0.218
-242.946	-42.847	-0.298	0.149
-241.932	-200.000	0.007	0.079
-240.917	154.231	0.131	0.177
-239.903	-41.046	-0.139	0.071
-238.888	604.035	-0.042	-0.102
-237.873	25.780	0.284	0.233
-236.859	-71.653	-0.166	-0.061
-235.844	86.363	0.120	0.131
-234.830	-67.315	0.127	-0.049
-233.815	400.341	0.080	0.164
-232.800	-75.124	-0.505	-0.178
-231.786	-8.670	-0.244	0.161
-230.771	800.000	0.103	-0.396
-229.757	-200.000	-0.000	0.159
-228.742	-97.979	0.160	-0.041
-227.727	-60.633	-0.118	0.049
-226.713	-67.666	0.038	-0.015
-225.698	14.227	-0.179	-0.138
-224.684	111.074	0.371	-0.440
-223.669	97.911	-0.186	-0.211
-222.655	-9.053	-0.180	0.119
-221.640	-119.352	0.366	-0.063
-220.625	-120.949	-0.349	0.058
-219.611	-18.595	0.065	-0.040
-218.596	800.000	-0.086	-0.359
-217.582	-200.000	-0.031	-0.144
-216.567	800.000	0.020	0.071
-215.552	800.000	-0.034	-0.115
-214.538	199.602	-0.118	0.178
-213.523	-116.727	-0.244	-0.044
-212.509	-159.556	0.314	-0.017
-211.494	-200.000	0.010	0.098
-210.479	-75.988	-0.206	-0.072
-209.465	83.391	0.057	0.061
-208.450	364.879	-0.142	0.282
-207.436	-65.707	-0.173	0.068
-206.421	-5.461	-0.160	0.108
-205.406	800.000	0.038	-0.126
-204.392	800.000	0.057	-0.206
-203.377	-103.691	0.177	0.041
-202.363	119.164	0.161	-0.195
-201.348	54.053	-0.199	0.188
-200.333	182.107	0.185	-0.268
-199.319	800.000	0.063	0.237
-198.304	54.357	0.210	0.199
-197.290	-91.420	-0.207	0.058
-196.275	60.174	-0.036	-0.035
-195.260	282.837	0.077	-0.136
-194.246	247.725	0.183	-0.304
-193.231	800.000	0.091	-0.268
-192.217	-50.070	-0.079	-0.037
-191.202	800.000	0.025	0.079
-190.187	-172.808	-0.286	0.009
-189.173	-135.975	0.392	-0.045
-188.158	439.966	0.089	0.190
-187.144	800.000	-0.098	-0.277
-186.129	240.988	-0.057	-0.093
-185.114	-200.000	0.029	-0.231
-184.100	-77.198	0.098	0.034
-183.085	118.152	0.226	-0.274
-182.071	544.553	-0.038	0.090
-181.056	-200.000	-0.007	-0.070
-180.042	-95.507	-0.277	0.073
-179.027	646.149	-0.032	-0.080
-178.012	166.809	0.276	-0.385
-176.998	-71.203	-0.274	-0.101
-175.983	-97.390	-0.091	0.023
-174.969	-200.000	-0.041	-0.281
-173.954	8.685	0.187	-0.139
-172.939	-113.826	-0.202	-0.039
-171.925	-111.757	0.222	0.044
-170.910	-200.000	-0.058	0.358
-169.896	-70.250	0.104	-0.039
-168.881	-153.527	0.174	0.012
-167.866	39.855	-0.243	-0.214
-166.852	26.006	-0.212	-0.174
-165.837	800.000	0.071	0.231
-164.823	226.539	-0.106	0.170
-163.808	5.886	-0.170	0.124
-162.793	72.548	-0.079	0.081
-161.779	-39.402	-0.068	0.035
-160.764	-137.593	0.129	-0.014
-159.750	-85.831	0.407	0.124
-158.735	15.034	0.110	-0.085
-157.720	95.138	-0.208	-0.232
-156.706	800.000	0.006	-0.021
-155.691	1.043	0.237	-0.167
-154.677	3.730	0.278	-0.200
-153.662	-13.022	-0.170	-0.109
-152.647	-61.682	-0.176	0.072
-151.633	-2.500	0.146	-0.101
-150.618	-15.606	0.256	0.161
-149.604	109.382	-0.130	0.153
-148.589	87.851	0.154	0.168
-147.574	-38.306	0.206	-0.107
-146.560	-53.785	-0.277	-0.124
-145.545	-29.713	-0.219	-0.123
-144.531	800.000	-0.041	-0.164
-143.516	-163.533	0.283	-0.013
-142.502	13.803	0.245	0.187
-141.487	93.966	0.120	0.134
-140.472	-109.736	-0.321	0.066
-139.458	-200.000	0.024	-0.198
-138.443	-53.681	0.256	-0.115
-137.429	222.616	0.212	0.334
-136.414	-200.000	0.018	0.108
-135.399	-103.527	-0.185	0.043
-134.385	800.000	0.058	-0.186
-133.370	156.713	0.197	0.267
-132.356	105.327	0.276	-0.320
-131.341	-200.000	-0.039	0.261
-130.326	-94.390	0.079	-0.021
-129.312	-58.096	0.290	0.124
-128.297	-11.179	0.203	0.131
-127.283	-37.003	-0.196	-0.103
-126.268	119.186	0.284	0.344
-125.253	-26.739	-0.267	-0.153
-124.239	620.758	-0.028	0.069
-123.224	-91.894	-0.140	-0.039
-122.210	18.605	-0.302	0.237
-121.195	412.091	0.240	0.499
-120.180	800.000	-0.036	0.116
-119.166	-1.442	0.306	-0.212
-118.151	3.481	-0.137	0.098
-117.137	-100.243	0.357	0.087
-116.122	800.000	0.076	-0.237
-115.107	-143.322	0.182	0.017
-114.093	105.511	-0.202	0.234
-113.078	-66.249	-0.117	0.046
-112.064	31.960	0.092	-0.078
-111.049	-19.127	-0.109	0.067
-110.034	588.879	0.064	0.156
-109.020	-200.000	-0.002	-0.312
-108.005	15.781	-0.030	0.023
-106.991	16.330	0.178	-0.138
-105.976	-14.007	-0.232	-0.147
-104.962	-29.098	0.270	0.152
-103.947	57.286	0.028	0.027
-102.932	800.000	0.103	0.372
-101.918	-153.251	-0.165	-0.011
-100.903	8.459	-0.092	-0.068
-99.889	-200.000	0.045	0.288
-98.874	255.341	0.118	-0.198
-97.859	-137.587	0.361	0.040
-96.845	401.446	-0.096	0.197
-95.830	334.546	-0.055	0.104
-94.816	-100.459	-0.213	-0.052
-93.801	4.364	-0.446	-0.320
-92.786	184.456	-0.107	-0.156
-91.772	414.353	0.204	0.426
-90.757	800.000	-0.082	0.270
-89.743	102.145	-0.234	0.268
-88.728	251.361	-0.061	-0.101
-87.713	72.093	-0.098	-0.100
-86.699	-77.081	0.197	0.067
-85.684	-95.221	-0.226	-0.060
-84.670	-121.980	-0.195	0.031
-83.655	-59.884	0.464	0.194
-82.640	-61.041	-0.112	0.046
-81.626	76.845	-0.199	-0.207
-80.611	556.730	0.096	-0.227
-79.597	313.302	0.205	-0.377
-78.582	159.903	0.225	0.307
-77.567	108.071	-0.206	-0.240
-76.553	-20.351	0.261	0.158
-75.538	234.079	0.137	-0.222
-74.524	236.923	0.075	-0.121
-73.509	71.200	0.027	-0.028
-72.494	800.000	-0.090	0.279
-71.480	-55.000	-0.232	-0.102
-70.465	-17.468	0.394	0.243
-69.451	-44.865	-0.055	0.027
-68.436	-27.217	-0.360	-0.205
-67.422	-32.683	0.152	-0.083
-66.407	273.351	-0.054	0.093
-65.392	555.232	0.024	-0.056
-64.378	-44.057	-0.052	-0.026
-63.363	159.747	0.074	-0.101
-62.349	-79.917	-0.257	-0.085
-61.334	24.968	-0.867	-0.704
-60.319	103.393	0.414	0.476
-59.305	231.643	-0.562	-0.901
-58.290	72.978	0.878	0.898
-57.276	608.917	0.605	1.478
-56.261	-200.000	113.332	647.932
-55.246	541.081	1519.872	3542.613
-54.232	179.593	2682.713	3843.683
-53.217	109.390	2169.382	2541.785
-52.203	38.457	1698.518	1481.203
-51.188	31.049	1518.550	1273.838
-50.173	28.657	1494.349	1237.387
-49.159	52.382	1552.226	1448.881
-48.144	51.438	1567.596	1456.699
-47.130	31.197	1523.798	1279.056
-46.115	28.169	1509.465	1246.385
-45.100	27.968	1506.026	1242.130
-44.086	27.921	1504.666	1240.640
-43.071	27.912	1502.484	1238.728
-42.057	27.842	1501.054	1237.026
-41.042	27.817	1499.412	1235.457
-40.027	27.831	1497.853	1234.213
-39.013	27.803	1496.515	1232.878
-37.998	27.836	1495.207	1231.972
-36.984	27.874	1493.956	1231.149
-35.969	27.820	1492.771	1229.761
-34.954	27.836	1491.467	1228.743
-33.940	27.840	1489.736	1227.299
-32.925	27.941	1487.828	1226.350
-31.911	27.879	1487.051	1225.247
-30.896	27.850	1485.600	1223.812
-29.881	27.957	1484.598	1223.654
-28.867	28.069	1483.108	1223.124
-27.852	27.919	1481.999	1221.160
-26.838	27.906	1480.935	1220.144
-25.823	27.857	1479.172	1218.319
-24.809	27.948	1477.408	1217.427
-23.794	27.942	1476.053	1216.222
-22.779	27.875	1475.570	1215.328
-21.765	27.835	1474.558	1214.181
-20.750	27.963	1473.136	1213.813
-19.736	27.834	1472.166	1212.107
-18.721	27.853	1470.824	1211.083
-17.706	27.883	1469.788	1210.376
-16.692	27.910	1468.526	1209.470
-15.677	27.821	1467.701	1208.150
-14.663	27.852	1466.469	1207.296
-13.648	27.947	1465.071	1206.726
-12.633	27.889	1464.948	1206.191
-11.619	27.895	1463.737	1205.189
-10.604	27.791	1463.353	1204.136
-9.590	27.878	1462.074	1203.612
-8.575	27.846	1461.892	1203.202
-7.560	27.897	1460.769	1202.563
-6.546	27.914	1459.447	1201.542
-5.531	27.827	1458.899	1200.469
-4.517	27.851	1458.167	1199.977
-3.502	27.864	1456.951	1199.016
-2.487	27.843	1456.129	1198.155
-1.473	27.785	1454.926	1196.738
-0.458	27.878	1453.649	1196.248
0.556	29.109	1443.780	1184.573
1.571	26.058	1419.086	1144.879
2.586	22.513	1360.976	1076.288
3.600	20.821	1279.282	1001.865
4.615	19.487	1233.566	958.575
5.629	17.019	1177.215	901.605
6.644	10.157	1094.755	804.363
7.659	4.673	1057.023	750.179
8.673	3.946	1051.493	742.699
9.688	3.660	1048.275	738.992
10.702	3.496	1046.545	736.926
11.717	3.759	1043.986	736.310
12.731	6.103	1046.473	749.183
13.746	13.565	1057.377	792.752
14.761	20.467	1066.015	832.340
15.775	22.513	1068.376	843.919
16.790	22.279	1066.857	841.529
17.804	21.280	1065.126	835.312
18.819	20.698	1063.174	830.930
19.834	20.335	1062.070	828.262
20.848	20.322	1061.164	827.418
21.863	20.395	1061.465	827.930
22.877	20.247	1060.353	826.286
23.892	19.983	1059.874	824.579
24.907	19.919	1058.643	823.245
25.921	19.876	1058.227	822.645
26.936	19.955	1056.935	821.944
27.950	19.864	1056.228	820.890
28.965	19.827	1055.100	819.762
29.980	19.838	1053.767	818.709
30.994	19.991	1053.159	818.885
32.009	20.220	1052.051	819.033
33.023	20.286	1051.799	819.078
34.038	20.238	1050.823	818.017
35.053	20.095	1049.746	816.433
36.067	19.968	1048.750	814.991
37.082	19.787	1047.797	813.326
38.096	20.009	1046.942	813.632
39.111	20.038	1046.607	813.436
40.126	20.238	1045.232	813.232
41.140	20.100	1044.231	811.736
42.155	19.671	1043.087	808.766
43.169	19.520	1042.185	807.293
44.184	19.419	1040.418	805.381
45.199	19.292	1039.812	804.248
46.213	19.388	1038.854	803.880
47.228	19.590	1037.981	804.078
48.242	19.737	1037.753	804.512
49.257	19.983	1037.233	805.181
50.271	19.975	1035.814	803.971
51.286	20.027	1035.259	803.713
52.301	20.061	1035.077	803.658
53.315	20.101	1033.815	802.792
54.330	19.865	1033.358	801.271
55.344	19.788	1031.903	799.718
56.359	19.647	1031.079	798.357
57.374	19.625	1030.228	797.525
58.388	19.628	1029.318	796.765
59.403	19.484	1028.337	795.268
60.417	19.421	1027.737	794.445
61.432	19.320	1027.153	793.457
62.447	19.303	1026.509	792.813
63.461	19.263	1025.777	791.994
64.476	19.192	1024.662	790.739
65.490	19.182	1023.887	790.025
66.505	18.925	1023.148	788.207
67.520	19.334	1021.873	789.026
68.534	19.244	1021.438	788.206
69.549	19.186	1020.777	787.363
70.563	19.119	1019.971	786.366
71.578	19.002	1019.064	785.063
72.593	18.900	1018.592	784.166
73.607	18.833	1016.975	782.543
74.622	18.739	1016.444	781.640
75.636	18.816	1015.372	781.095
76.651	18.869	1014.113	780.297
77.666	18.900	1013.971	780.260
78.680	19.060	1013.325	780.422
79.695	18.947	1012.667	779.333
80.709	19.037	1011.805	779.010
81.724	19.245	1011.516	779.658
82.739	19.355	1010.721	779.473
83.753	19.485	1010.325	779.685
84.768	19.797	1009.687	780.535
85.782	20.146	1009.178	781.644
86.797	20.521	1008.664	782.868
87.812	20.480	1007.876	782.000
88.826	20.175	1007.109	779.967
89.841	20.097	1005.611	778.387
90.855	20.232	1005.203	778.609
91.870	20.336	1004.712	778.627
92.884	20.297	1003.989	777.819
93.899	20.211	1003.096	776.674
94.914	20.232	1002.086	775.919
95.928	20.455	1001.262	776.208
96.943	20.451	1000.744	775.720
97.957	20.257	999.985	774.196
98.972	20.036	999.087	772.447
99.987	20.109	998.125	771.960
101.001	20.283	997.509	772.192
102.016	20.245	996.398	771.096
103.030	20.110	995.919	770.054
104.045	20.149	994.410	768.992
105.060	20.140	993.892	768.485
106.074	19.977	993.040	767.037
107.089	19.742	991.823	764.989
108.103	19.478	990.331	762.606
109.118	19.348	989.346	761.205
110.133	19.225	988.314	759.802
111.147	19.191	987.249	758.763
112.162	19.043	986.231	757.264
113.176	19.203	985.728	757.514
114.191	19.242	985.256	757.254
115.206	19.500	984.273	757.567
116.220	19.440	983.496	756.636
117.235	19.290	982.982	755.517
118.249	19.345	981.924	754.878
119.264	19.292	980.967	753.843
120.279	19.116	979.898	752.187
121.293	19.103	979.445	751.718
122.308	19.028	978.730	750.773
123.322	18.942	977.530	749.410
124.337	18.855	976.242	747.980
125.352	18.756	975.116	746.621
126.366	18.616	974.372	745.374
127.381	18.878	973.180	745.534
128.395	18.750	972.512	744.404
129.410	19.001	971.766	744.852
130.424	18.767	971.037	743.216
131.439	19.008	970.236	743.577
132.454	19.287	969.364	744.049
133.468	19.222	969.454	743.770
134.483	19.163	968.695	742.871
135.497	19.267	967.880	742.628
136.512	19.303	966.841	741.918
137.527	19.359	966.171	741.579
138.541	19.455	965.184	741.170
139.556	19.451	965.018	740.958
140.570	19.473	964.156	740.326
141.585	19.575	963.701	740.350
142.600	19.998	963.004	741.557
143.614	19.996	962.369	740.998
144.629	20.195	961.111	740.812
145.643	20.214	960.800	740.590
146.658	20.211	959.896	739.812
147.673	19.944	958.713	737.699
148.687	19.671	957.980	735.907
149.702	19.593	956.914	734.692
150.716	19.477	955.775	733.258
151.731	19.525	954.511	732.425
152.746	19.482	954.400	732.096
153.760	19.640	953.312	731.864
154.775	19.501	952.982	730.960
155.789	19.660	952.128	730.912
156.804	19.893	951.031	730.987
157.819	19.688	950.370	729.550
158.833	19.819	950.002	729.756
159.848	19.967	949.717	730.096
160.862	20.155	948.948	730.235
161.877	20.206	948.266	729.858
162.892	19.636	947.031	726.446
163.906	19.399	945.640	724.320
164.921	19.332	944.242	722.904
165.935	19.417	943.697	722.780
166.950	19.569	942.635	722.539
167.964	19.581	941.910	721.969
168.979	19.570	941.043	721.195
169.994	19.510	939.630	719.798
171.008	19.521	938.499	718.912
172.023	19.537	938.278	718.748
173.037	19.830	937.741	719.493
174.052	19.977	937.675	719.988
175.067	19.921	936.431	718.736
176.081	19.589	935.431	716.529
177.096	19.354	934.041	714.426
178.110	19.200	933.593	713.382
179.125	19.201	933.113	712.957
180.140	19.505	932.048	713.337
181.154	19.471	931.371	712.615
182.169	19.748	931.337	713.670
183.183	19.859	930.810	713.661
184.198	19.990	930.213	713.678
185.213	20.057	929.006	712.967
186.227	19.844	928.992	712.014
187.242	20.002	928.731	712.403
188.256	20.164	927.413	711.995
189.271	20.286	926.760	711.928
190.286	20.310	926.448	711.725
191.300	20.021	925.564	709.798
192.315	19.589	923.825	706.635
193.329	19.097	923.098	704.005
194.344	19.300	922.374	704.220
195.359	19.282	922.322	704.044
196.373	19.588	921.443	704.561
197.388	19.684	921.211	704.712
198.402	19.957	920.670	705.349
199.417	20.106	920.742	705.947
200.432	20.436	920.415	706.979
201.446	20.572	920.098	707.225
202.461	20.548	919.898	706.910
203.475	20.549	919.577	706.605
204.490	20.626	918.607	706.112
205.504	20.303	917.510	703.895
206.519	20.024	916.275	701.755
207.534	19.950	915.654	700.919
208.548	20.047	914.571	700.419
209.563	19.990	914.338	699.951
210.577	20.047	913.624	699.569
211.592	20.068	913.122	699.210
212.607	20.305	912.658	699.748
213.621	20.376	912.750	700.042
214.636	20.367	911.429	698.932
215.650	20.266	911.050	698.172
216.665	20.294	910.588	697.870
217.680	20.459	909.955	697.985
218.694	20.549	909.430	697.883
219.709	20.510	909.316	697.576
220.723	20.428	908.818	696.804
221.738	20.480	907.881	696.230
222.753	20.228	907.240	694.671
223.767	20.204	906.201	693.715
224.782	20.412	905.294	693.794
225.796	20.578	904.890	694.085
226.811	20.836	904.172	694.499
227.826	20.427	903.672	692.426
228.840	20.399	902.297	691.199
229.855	20.306	901.666	690.284
230.869	20.153	901.511	689.495
231.884	20.103	900.481	688.448
232.899	20.069	899.637	687.608
233.913	20.014	899.015	686.854
234.928	20.101	898.261	686.562
235.942	19.945	897.373	685.203
236.957	19.680	896.727	683.602
237.972	19.871	896.157	683.860
238.986	19.846	895.715	683.365
240.001	19.787	894.844	682.408
241.015	19.933	893.902	682.204
242.030	19.857	893.511	681.548
243.045	20.235	893.242	682.769
244.059	20.196	892.987	682.362
245.074	20.088	892.288	681.340
246.088	20.191	891.709	681.245
247.103	20.410	891.194	681.650
248.117	20.513	890.755	681.656
249.132	20.767	890.654	682.516
250.147	21.008	890.205	683.057
251.161	21.406	890.009	684.402
252.176	21.426	889.039	683.673
253.190	21.354	888.743	683.104
254.205	21.543	887.945	683.170
255.220	21.511	887.634	682.743
256.234	21.457	886.822	681.849
257.249	21.545	885.766	681.318
258.263	21.440	885.430	680.592
259.278	21.418	885.154	680.233
260.293	21.378	884.104	679.210
261.307	21.396	883.720	678.928
262.322	21.643	883.081	679.331
263.336	21.513	882.835	678.581
264.351	21.505	882.348	678.113
265.366	21.593	881.222	677.528
266.380	21.607	880.858	677.242
267.395	21.502	880.628	676.601
268.409	21.481	879.057	675.254
269.424	21.401	878.546	674.490
270.439	21.380	877.853	673.819
271.453	21.252	877.202	672.767
272.468	21.272	875.720	671.647
273.482	21.047	875.629	670.653
274.497	21.144	874.924	670.425
275.512	21.041	874.458	669.616
276.526	21.069	873.489	668.920
277.541	21.124	873.098	668.773
278.555	21.093	872.675	668.272
279.570	21.302	872.292	668.721
280.585	21.514	872.329	669.499
281.599	21.615	871.552	669.230
282.614	21.497	870.724	668.084
283.628	21.237	869.878	666.385
284.643	21.287	869.218	666.011
285.657	21.162	868.758	665.122
286.672	21.142	867.980	664.390
287.687	21.157	868.072	664.461
288.701	21.284	867.530	664.471
289.716	21.241	866.691	663.607
290.730	21.366	865.890	663.409
291.745	21.343	865.356	662.852
292.760	21.271	864.602	661.944
293.774	21.373	864.544	662.227
294.789	21.744	863.676	662.906
295.803	21.665	863.569	662.467
296.818	21.222	862.550	659.954
297.833	21.260	861.845	659.498
298.847	21.192	861.083	658.601
299.862	21.289	860.642	658.573
300.876	21.221	859.836	657.641
301.891	21.341	859.627	657.874
302.906	21.883	858.599	659.067
303.920	21.901	858.438	658.951
304.935	21.942	858.275	658.923
305.949	22.031	857.883	658.896
306.964	21.911	857.152	657.827
307.979	21.806	855.963	656.464
308.993	21.598	855.529	655.296
310.008	21.788	855.119	655.632
311.022	22.023	854.471	655.957
312.037	21.818	854.029	654.795
313.052	21.603	853.393	653.444
314.066	21.377	852.850	652.128
315.081	21.264	851.619	650.710
316.095	21.081	850.771	649.323
317.110	21.205	850.781	649.734
318.125	21.253	849.903	649.184
319.139	21.161	849.323	648.341
320.154	21.202	849.052	648.231
321.168	21.120	848.657	647.568
322.183	21.290	848.021	647.654
323.197	21.422	847.623	647.782
324.212	21.473	846.864	647.334
325.227	21.430	846.372	646.743
326.241	21.326	845.905	645.943
327.256	21.224	845.173	644.952
328.270	21.289	844.543	644.651
329.285	21.310	843.860	644.151
330.300	21.240	843.293	643.403
331.314	21.179	842.796	642.741
332.329	21.254	842.052	642.394
333.343	21.289	842.221	642.597
334.358	21.561	841.445	642.947
335.373	21.764	841.068	643.348
336.387	21.628	840.734	642.536
337.402	21.860	839.784	642.602
338.416	21.809	839.460	642.110
339.431	21.943	839.046	642.227
340.446	22.166	839.323	643.199
341.460	22.396	838.068	643.019
342.475	22.323	838.027	642.665
343.489	22.344	837.636	642.384
344.504	22.495	836.869	642.291
345.519	22.510	836.205	641.779
346.533	22.736	836.148	642.503
347.548	22.638	835.501	641.590
348.562	22.349	834.561	639.761
349.577	21.961	833.615	637.569
350.592	21.677	832.895	635.935
351.606	21.762	832.399	635.806
352.621	21.799	831.754	635.391
353.635	21.760	830.989	634.611
354.650	21.768	831.199	634.744
355.665	21.902	830.681	634.778
356.679	21.920	830.272	634.472
357.694	21.950	829.634	634.037
358.708	22.173	828.950	634.263
359.723	21.916	828.903	633.243
360.738	21.965	828.094	632.746
361.752	22.003	827.656	632.493
362.767	21.974	827.346	632.095
363.781	22.271	826.884	632.756
364.796	22.429	826.849	633.241
365.810	22.626	826.265	633.444
366.825	22.809	825.989	633.835
367.840	22.982	825.533	634.050
368.854	22.893	825.281	633.481
369.869	22.644	824.809	632.170
370.883	22.450	823.596	630.489
371.898	22.518	823.181	630.359
372.913	22.548	822.895	630.193
373.927	22.843	822.420	630.826
374.942	22.644	821.778	629.567
375.956	22.466	821.015	628.294
376.971	22.793	820.420	628.946
377.986	22.800	820.100	628.669
379.000	22.924	819.597	628.671
380.015	23.097	819.105	628.853
381.029	22.981	818.371	627.821
382.044	22.744	817.881	626.548
383.059	22.902	817.366	626.660
384.073	22.960	816.627	626.243
385.088	22.955	816.209	625.850
386.102	22.614	815.048	623.700
387.117	22.369	814.476	622.340
388.132	22.261	814.244	621.724
389.146	22.264	813.886	621.406
390.161	22.347	813.513	621.361
391.175	22.536	813.030	621.602
392.190	22.865	812.849	622.571
393.205	22.668	812.580	621.614
394.219	22.412	811.793	620.055
395.234	22.328	810.640	618.825
396.248	22.293	810.155	618.275
397.263	22.164	809.463	617.240
398.278	22.112	809.489	617.025
399.292	22.092	808.563	616.192
400.307	21.941	808.473	615.539
401.321	21.986	807.819	615.145
402.336	22.067	807.687	615.276
403.350	22.383	807.053	615.843
404.365	22.472	806.522	615.696
405.380	22.671	806.485	616.306
406.394	22.977	806.180	617.088
407.409	23.008	806.050	617.041
408.423	23.075	805.524	616.820
409.438	23.175	805.226	616.883
410.453	23.201	805.207	616.907
411.467	23.444	804.286	616.992
412.482	23.325	803.978	616.288
413.496	23.363	803.613	616.085
414.511	23.300	803.683	615.866
415.526	23.358	803.068	615.542
416.540	23.333	802.202	614.736
417.555	23.251	801.664	613.986
418.569	23.297	801.026	613.601
419.584	23.170	800.858	612.979
420.599	23.224	800.333	612.707
421.613	163.632	1370.757	1797.429
422.628	142.168	1453.837	1797.505
