DTS Sentinel unit serial number:	SN413079Multiplexer serial number:	ORYXHardware model number:	OX4-SRSoftware version number:	ORYX F/W v4.00 Oryx Data Collector v3.7.2.0data status	okinstallation	princeton_trtdifferential loss correction	single-endedforward channel	channel 3reverse channel	N/Adate	2019/09/17time	22:24:35forward acquisition time	60.00reverse acquisition time	0.00gamma	496.2192k internal	0.2344k external	0.2344temperature offset calibration	0.9948default loss term (dB/km)	0.3790temperature slope calibration	1.0000multiplexer offset coefficient	1.0000multiplexer slope coefficient	1.0000fibre end	0.00T internal ref (°C)	25.44T ext. ref 1 (°C)	0.17T ext. ref 2 (°C)	18.55length (m)	temperature (°C)	Stokes	anti-Stokes-747.200	120.894	-0.097	-0.121
-746.185	179.763	0.129	-0.189
-745.171	-65.835	0.396	-0.159
-744.156	395.870	-0.110	0.229
-743.142	-43.120	-0.094	-0.048
-742.127	-17.200	0.131	-0.083
-741.112	557.051	0.092	-0.222
-740.098	-90.182	-0.333	0.097
-739.083	-64.427	0.260	0.106
-738.069	-94.445	-0.340	0.093
-737.054	800.000	0.045	-0.178
-736.039	241.611	-0.209	-0.350
-735.025	-62.865	-0.168	0.069
-734.010	-26.853	-0.229	-0.134
-732.996	18.852	-0.005	-0.004
-731.981	91.965	-0.018	-0.021
-730.966	-200.000	-0.024	-0.378
-729.952	-74.158	-0.380	-0.137
-728.937	-200.000	-0.016	-0.219
-727.923	-43.078	0.207	-0.105
-726.908	800.000	0.090	-0.267
-725.894	-113.051	0.186	0.037
-724.879	305.644	-0.169	-0.314
-723.864	-17.984	-0.095	0.059
-722.850	-200.000	-0.013	-0.091
-721.835	507.547	-0.098	-0.227
-720.821	-20.788	0.049	0.030
-719.806	-34.171	-0.272	-0.149
-718.791	-200.000	0.009	0.230
-717.777	160.411	0.070	-0.098
-716.762	41.280	-0.133	-0.121
-715.748	45.552	-0.061	-0.056
-714.733	16.371	0.249	0.196
-713.718	-132.355	0.050	0.007
-712.704	-155.492	0.081	-0.005
-711.689	800.000	0.038	-0.161
-710.675	295.509	-0.025	-0.046
-709.660	29.964	-0.235	-0.200
-708.645	-15.338	0.203	-0.130
-707.631	-79.742	-0.134	-0.045
-706.616	-200.000	-0.028	-0.414
-705.602	-200.000	-0.073	-0.344
-704.587	-43.923	-0.257	-0.129
-703.572	12.670	-0.225	-0.174
-702.558	-35.754	0.201	-0.109
-701.543	800.000	-0.055	-0.176
-700.529	567.160	0.091	-0.220
-699.514	-44.564	-0.456	-0.228
-698.499	10.769	0.087	0.067
-697.485	37.055	0.246	0.217
-696.470	-23.530	-0.465	0.279
-695.456	159.960	-0.191	0.266
-694.441	-174.658	-0.138	-0.004
-693.426	115.756	0.104	0.127
-692.412	-200.000	0.030	0.412
-691.397	166.115	-0.128	0.181
-690.383	-138.170	0.212	0.024
-689.368	-125.302	0.192	0.029
-688.354	383.260	-0.074	0.151
-687.339	12.692	-0.262	0.202
-686.324	-132.949	-0.291	0.037
-685.310	-71.047	0.091	0.034
-684.295	-200.000	-0.009	0.266
-683.281	37.307	0.069	-0.061
-682.266	-89.909	0.052	0.015
-681.251	272.732	-0.065	-0.114
-680.237	-96.141	-0.266	-0.071
-679.222	-68.868	-0.141	-0.054
-678.208	184.620	-0.094	0.139
-677.193	-200.000	0.032	0.171
-676.178	275.078	0.072	-0.127
-675.164	26.925	0.164	0.138
-674.149	-139.254	0.486	-0.052
-673.135	46.514	-0.174	0.161
-672.120	800.000	0.163	0.465
-671.105	-91.739	-0.358	-0.101
-670.091	-33.711	-0.065	-0.036
-669.076	800.000	0.158	-0.499
-668.062	128.798	0.242	-0.308
-667.047	-48.988	-0.303	-0.145
-666.032	-99.241	0.144	0.036
-665.018	-76.650	-0.075	0.026
-664.003	-103.743	0.206	-0.048
-662.989	-54.164	-0.272	0.124
-661.974	-200.000	-0.034	0.218
-660.959	134.671	-0.108	0.140
-659.945	800.000	0.071	0.220
-658.930	-200.000	-0.030	0.327
-657.916	800.000	-0.054	-0.192
-656.901	-200.000	-0.004	0.132
-655.886	-6.960	0.229	-0.155
-654.872	2.301	0.219	-0.158
-653.857	88.227	-0.108	-0.119
-652.843	64.812	-0.016	-0.016
-651.828	47.616	0.234	0.217
-650.814	-200.000	0.014	-0.063
-649.799	256.197	0.102	-0.175
-648.784	20.913	-0.126	0.102
-647.770	64.343	0.078	0.079
-646.755	-200.000	0.044	-0.387
-645.741	-62.520	0.274	-0.113
-644.726	89.462	-0.083	-0.092
-643.711	-99.689	0.212	0.053
-642.697	85.649	-0.152	0.167
-641.682	182.302	-0.285	-0.418
-640.668	-159.799	-0.109	-0.006
-639.653	-200.000	0.021	0.111
-638.638	-138.946	-0.352	-0.038
-637.624	-78.804	0.329	-0.112
-636.609	-200.000	0.039	-0.340
-635.595	629.422	0.096	-0.241
-634.580	-92.471	0.268	-0.075
-633.565	-158.022	-0.176	0.010
-632.551	69.705	0.190	-0.195
-631.536	-4.359	-0.135	-0.093
-630.522	299.068	-0.105	0.192
-629.507	800.000	0.025	-0.086
-628.492	575.435	-0.091	0.222
-627.478	60.457	-0.135	-0.133
-626.463	800.000	0.049	-0.166
-625.449	377.092	-0.282	-0.574
-624.434	18.348	0.207	-0.165
-623.419	222.808	0.173	-0.277
-622.405	-35.151	-0.256	0.139
-621.390	800.000	-0.038	0.152
-620.376	1.304	-0.057	-0.041
-619.361	-200.000	0.018	-0.213
-618.346	126.326	0.174	-0.219
-617.332	409.888	-0.040	-0.085
-616.317	-200.000	0.009	-0.177
-615.303	-96.927	0.139	0.036
-614.288	-69.640	0.231	-0.088
-613.273	-18.477	-0.072	0.045
-612.259	69.275	0.034	-0.035
-611.244	-200.000	-0.011	-0.071
-610.230	800.000	0.092	-0.337
-609.215	-65.994	0.282	-0.112
-608.201	-41.938	0.118	0.060
-607.186	277.618	-0.182	-0.323
-606.171	24.643	-0.220	-0.182
-605.157	605.884	0.062	0.155
-604.142	-200.000	0.049	-0.306
-603.128	34.977	0.065	0.057
-602.113	4.760	-0.040	0.029
-601.098	-11.248	-0.353	0.232
-600.084	16.940	0.014	-0.011
-599.069	-200.000	-0.071	-0.319
-598.055	-77.417	-0.049	-0.017
-597.040	360.655	0.109	0.218
-596.025	-15.551	-0.331	0.210
-595.011	800.000	-0.077	-0.258
-593.996	-200.000	-0.015	-0.113
-592.982	-56.053	-0.102	0.045
-591.967	-200.000	0.016	-0.282
-590.952	685.520	0.066	0.172
-589.938	-178.563	-0.240	-0.006
-588.923	-44.546	0.204	0.102
-587.909	-200.000	0.061	0.306
-586.894	10.764	-0.220	0.167
-585.879	132.042	0.136	0.175
-584.865	-2.080	0.208	0.145
-583.850	-27.123	0.208	0.121
-582.836	148.970	-0.188	0.252
-581.821	-101.075	0.396	-0.096
-580.806	567.015	0.057	0.137
-579.792	-64.134	-0.479	0.194
-578.777	-75.840	-0.174	0.061
-577.763	672.364	0.083	-0.214
-576.748	42.914	-0.207	-0.187
-575.733	108.304	-0.114	-0.135
-574.719	-115.625	-0.209	0.039
-573.704	-200.000	-0.021	-0.098
-572.690	800.000	0.109	0.335
-571.675	-143.214	-0.173	0.017
-570.661	800.000	-0.074	-0.274
-569.646	-184.215	-0.191	-0.003
-568.631	800.000	-0.089	0.286
-567.617	-64.658	0.058	0.023
-566.602	13.597	-0.127	-0.098
-565.588	-133.311	-0.181	-0.023
-564.573	-137.633	-0.146	-0.016
-563.558	70.940	-0.042	0.043
-562.544	78.179	0.147	-0.156
-561.529	171.279	-0.166	0.236
-560.515	18.678	-0.097	-0.077
-559.500	-26.285	-0.177	0.103
-558.485	-200.000	-0.057	-0.281
-557.471	133.822	0.010	-0.013
-556.456	95.957	0.146	-0.166
-555.442	800.000	-0.103	-0.325
-554.427	10.573	-0.103	0.078
-553.412	127.855	-0.117	0.148
-552.398	-176.191	-0.362	0.009
-551.383	-200.000	-0.206	0.000
-550.369	556.774	-0.040	-0.095
-549.354	-200.000	0.027	0.239
-548.339	800.000	-0.126	-0.437
-547.325	-19.992	0.216	0.132
-546.310	800.000	-0.059	0.239
-545.296	800.000	-0.042	-0.182
-544.281	157.590	0.195	-0.268
-543.266	-40.719	0.095	-0.049
-542.252	-200.000	0.003	0.074
-541.237	320.512	-0.052	0.099
-540.223	-133.055	0.298	-0.038
-539.208	-41.586	0.229	0.117
-538.193	800.000	-0.023	0.098
-537.179	-63.589	-0.292	0.119
-536.164	491.286	-0.092	-0.210
-535.150	-200.000	-0.038	0.194
-534.135	800.000	-0.103	0.409
-533.121	236.535	0.147	-0.242
-532.106	-101.405	0.137	0.033
-531.091	146.688	0.192	-0.256
-530.077	-117.248	0.168	-0.030
-529.062	800.000	-0.111	-0.327
-528.048	-71.598	-0.208	-0.077
-527.033	-79.469	0.205	0.069
-526.018	-42.061	0.248	-0.126
-525.004	33.691	0.216	0.187
-523.989	-171.383	-0.132	0.004
-522.975	-33.829	-0.112	-0.061
-521.960	-69.167	-0.189	-0.072
-520.945	-38.032	-0.180	0.095
-519.931	261.725	0.087	0.149
-518.916	-67.542	0.109	0.042
-517.902	-148.906	0.121	-0.010
-516.887	702.257	0.018	0.046
-515.872	116.587	-0.104	-0.126
-514.858	-181.653	0.272	-0.005
-513.843	65.796	0.063	0.063
-512.829	76.162	0.079	-0.083
-511.814	-135.974	-0.279	0.033
-510.799	-69.624	-0.415	0.158
-509.785	487.641	-0.020	0.045
-508.770	-0.205	-0.127	0.089
-507.756	-200.000	-0.002	-0.112
-506.741	-200.000	0.011	-0.250
-505.726	763.271	0.122	-0.329
-504.712	160.413	0.087	-0.121
-503.697	160.998	-0.285	0.394
-502.683	800.000	0.051	0.184
-501.668	174.432	0.033	0.048
-500.653	800.000	-0.060	-0.246
-499.639	104.131	0.284	0.332
-498.624	-132.893	0.174	0.022
-497.610	395.662	0.093	-0.192
-496.595	800.000	0.053	-0.152
-495.581	-167.071	0.479	-0.019
-494.566	-200.000	-0.009	-0.308
-493.551	604.709	0.105	0.258
-492.537	-96.728	0.068	0.018
-491.522	473.518	-0.058	0.130
-490.508	478.409	0.101	0.226
-489.493	800.000	0.040	0.169
-488.478	403.801	0.010	-0.022
-487.464	117.760	0.080	0.097
-486.449	-102.200	0.164	-0.039
-485.435	372.116	0.082	-0.164
-484.420	206.695	0.138	0.213
-483.405	18.496	0.156	-0.124
-482.391	-7.135	-0.274	0.184
-481.376	-200.000	-0.046	-0.414
-480.362	-200.000	0.041	-0.338
-479.347	-200.000	-0.035	0.154
-478.332	-130.433	-0.305	0.041
-477.318	40.284	-0.044	-0.039
-476.303	-200.000	-0.009	0.238
-475.289	-82.255	0.043	0.014
-474.274	129.695	-0.075	0.095
-473.259	4.382	-0.488	-0.354
-472.245	153.216	0.338	-0.458
-471.230	450.057	0.115	-0.252
-470.216	300.232	0.049	-0.089
-469.201	-151.855	-0.101	0.007
-468.186	-136.223	0.206	0.024
-467.172	-79.637	0.194	0.065
-466.157	-200.000	-0.027	0.169
-465.143	-69.929	0.180	0.068
-464.128	-183.692	-0.273	-0.005
-463.113	166.308	0.236	-0.331
-462.099	-117.637	0.165	-0.029
-461.084	-64.691	-0.247	0.099
-460.070	-95.674	0.165	0.044
-459.055	183.366	-0.169	0.247
-458.040	-200.000	0.037	-0.199
-457.026	22.878	-0.142	0.115
-456.011	-51.906	-0.103	-0.047
-454.997	-62.387	-0.397	-0.164
-453.982	15.373	0.330	0.256
-452.968	800.000	-0.090	0.285
-451.953	-31.232	-0.018	0.010
-450.938	-24.561	-0.209	-0.123
-449.924	-200.000	0.025	-0.323
-448.909	26.685	0.220	0.182
-447.895	-14.665	0.159	-0.101
-446.880	-200.000	0.023	-0.385
-445.865	107.694	0.088	-0.104
-444.851	-177.868	-0.010	0.000
-443.836	-108.874	0.258	-0.055
-442.822	-200.000	0.035	-0.313
-441.807	58.127	0.316	0.306
-440.792	63.062	0.107	0.106
-439.778	-41.809	-0.159	-0.081
-438.763	744.560	0.073	0.195
-437.749	-81.603	-0.170	0.055
-436.734	-30.421	0.156	-0.088
-435.719	-50.102	0.252	-0.118
-434.705	566.135	-0.033	0.080
-433.690	58.372	-0.075	-0.073
-432.676	68.700	0.312	-0.317
-431.661	17.298	0.027	0.021
-430.646	121.834	-0.038	0.047
-429.632	-52.679	-0.254	0.116
-428.617	103.726	0.110	0.127
-427.603	800.000	-0.053	0.208
-426.588	800.000	0.131	0.543
-425.573	-108.369	0.257	0.055
-424.559	-200.000	-0.036	0.165
-423.544	-200.000	0.012	0.143
-422.530	-63.589	0.271	0.110
-421.515	-102.232	0.027	0.007
-420.500	187.884	0.174	-0.258
-419.486	762.241	0.070	0.187
-418.471	143.786	-0.231	-0.305
-417.457	302.506	-0.054	0.098
-416.442	-34.721	-0.305	0.165
-415.428	86.344	-0.170	-0.185
-414.413	-70.140	0.144	0.054
-413.398	-33.605	0.261	0.142
-412.384	-39.753	0.121	0.062
-411.369	-200.000	-0.233	0.001
-410.355	74.018	0.267	-0.277
-409.340	745.964	-0.077	-0.206
-408.325	-200.000	0.033	0.222
-407.311	-152.325	-0.231	-0.016
-406.296	-26.418	-0.146	-0.085
-405.282	82.582	-0.152	0.163
-404.267	800.000	0.072	0.238
-403.252	79.459	-0.131	0.138
-402.238	-39.430	0.374	0.194
-401.223	-200.000	-0.014	0.160
-400.209	-200.000	-0.015	0.224
-399.194	-22.084	0.168	0.101
-398.179	-166.648	0.310	0.013
-397.165	-200.000	0.019	-0.101
-396.150	-200.000	0.042	-0.218
-395.136	-104.260	0.201	-0.046
-394.121	-78.019	-0.464	0.158
-393.106	37.905	-0.182	-0.160
-392.092	-64.971	0.046	-0.018
-391.077	520.349	-0.052	-0.120
-390.063	36.092	-0.084	0.073
-389.048	-200.000	-0.024	0.271
-388.033	-28.330	-0.152	0.087
-387.019	800.000	0.078	-0.303
-386.004	800.000	0.167	0.455
-384.990	98.532	-0.107	-0.122
-383.975	-75.900	-0.240	0.084
-382.960	-128.071	0.054	0.008
-381.946	800.000	0.073	0.217
-380.931	114.204	0.149	0.178
-379.917	299.928	0.189	-0.345
-378.902	-200.000	0.072	-0.352
-377.888	800.000	-0.117	-0.398
-376.873	-200.000	-0.030	-0.305
-375.858	393.146	0.092	-0.189
-374.844	-200.000	0.010	-0.064
-373.829	-79.179	0.086	0.029
-372.815	800.000	0.047	-0.169
-371.800	-13.405	-0.211	0.135
-370.785	-29.748	-0.323	0.182
-369.771	-140.591	0.170	-0.017
-368.756	-200.000	-0.012	-0.095
-367.742	-200.000	0.021	-0.257
-366.727	-123.967	0.105	-0.016
-365.712	-200.000	-0.029	0.170
-364.698	-139.089	-0.104	0.011
-363.683	-44.453	0.086	-0.042
-362.669	-91.675	0.565	-0.159
-361.654	21.613	-0.051	0.041
-360.639	-6.856	-0.334	0.224
-359.625	23.043	-0.103	0.084
-358.610	-150.272	-0.123	-0.009
-357.596	-166.500	-0.016	-0.001
-356.581	18.104	-0.228	-0.180
-355.566	-34.783	0.199	0.107
-354.552	281.849	0.062	-0.110
-353.537	-102.588	0.257	0.061
-352.523	-19.833	0.263	0.160
-351.508	-9.108	0.293	-0.193
-350.493	338.528	0.136	0.261
-349.479	-200.000	0.080	-0.361
-348.464	-42.531	0.241	0.121
-347.450	321.980	-0.077	0.145
-346.435	-147.068	-0.214	0.018
-345.420	474.820	-0.093	0.206
-344.406	-80.012	-0.075	0.025
-343.391	-200.000	0.000	0.211
-342.377	186.505	0.127	0.187
-341.362	7.676	0.250	0.184
-340.348	-88.034	0.312	-0.092
-339.333	42.662	-0.209	-0.188
-338.318	-20.942	0.246	-0.149
-337.304	-200.000	0.018	0.185
-336.289	-200.000	0.023	-0.101
-335.275	-112.209	0.162	-0.032
-334.260	-75.086	-0.187	0.066
-333.245	78.185	-0.165	0.173
-332.231	-200.000	-0.023	-0.142
-331.216	-120.170	0.219	0.037
-330.202	30.963	0.150	0.127
-329.187	-200.000	0.039	0.187
-328.172	-200.000	0.027	-0.273
-327.158	44.876	-0.184	0.167
-326.143	10.168	0.113	-0.085
-325.129	-60.857	0.093	-0.039
-324.114	124.350	-0.080	-0.099
-323.099	-38.044	0.184	-0.096
-322.085	268.934	-0.136	-0.234
-321.070	-77.469	-0.098	-0.034
-320.056	-200.000	0.005	0.148
-319.041	177.760	0.106	0.152
-318.026	176.423	-0.140	0.201
-317.012	-98.979	-0.036	0.009
-315.997	237.997	0.060	-0.098
-314.983	-114.936	0.078	0.015
-313.968	-35.644	-0.312	0.167
-312.953	90.776	0.212	0.234
-311.939	150.189	0.097	0.130
-310.924	528.618	-0.070	-0.161
-309.910	182.779	-0.132	-0.191
-308.895	-115.237	-0.133	-0.025
-307.880	-200.000	0.005	-0.101
-306.866	-121.215	0.296	0.049
-305.851	87.327	0.199	0.216
-304.837	-48.876	0.181	0.086
-303.822	-200.000	-0.016	0.325
-302.807	452.194	-0.148	-0.321
-301.793	-44.321	0.264	-0.130
-300.778	-200.000	-0.012	0.119
-299.764	36.796	0.056	0.049
-298.749	-20.129	-0.255	0.154
-297.735	94.468	-0.193	-0.215
-296.720	270.570	0.176	0.304
-295.705	-20.771	-0.034	0.020
-294.691	-94.195	0.079	0.021
-293.676	-89.478	0.187	-0.054
-292.662	201.791	0.150	-0.227
-291.647	259.261	0.057	0.097
-290.632	186.589	-0.159	0.233
-289.618	-165.235	-0.228	0.010
-288.603	-200.000	-0.023	-0.165
-287.589	-200.000	-0.041	0.349
-286.574	138.602	-0.210	-0.272
-285.559	342.688	0.134	0.258
-284.545	-117.593	-0.367	-0.065
-283.530	-200.000	0.052	-0.396
-282.516	-38.472	-0.053	-0.027
-281.501	76.907	0.225	0.235
-280.486	-99.728	-0.225	0.055
-279.472	800.000	0.080	0.268
-278.457	97.525	-0.218	-0.246
-277.443	800.000	0.047	-0.144
-276.428	-200.000	0.024	-0.239
-275.413	418.660	-0.106	0.223
-274.399	-162.719	-0.307	0.015
-273.384	800.000	-0.062	-0.230
-272.370	-146.990	0.216	0.018
-271.355	82.846	0.081	0.087
-270.340	441.541	0.136	-0.292
-269.326	154.801	0.089	0.120
-268.311	-62.393	-0.046	-0.019
-267.297	-51.168	-0.239	0.110
-266.282	-8.513	0.266	-0.176
-265.267	-120.668	-0.179	0.030
-264.253	800.000	0.090	-0.282
-263.238	800.000	-0.048	0.201
-262.224	800.000	-0.075	-0.247
-261.209	-34.011	0.123	-0.066
-260.195	107.256	0.174	-0.204
-259.180	73.904	0.072	-0.074
-258.165	800.000	0.061	-0.183
-257.151	800.000	-0.083	0.271
-256.136	69.226	0.271	0.274
-255.122	800.000	-0.118	0.439
-254.107	-67.558	-0.461	0.177
-253.092	621.136	0.138	-0.341
-252.078	-200.000	0.000	-0.181
-251.063	-200.000	-0.028	-0.188
-250.049	-57.060	0.156	-0.068
-249.034	9.257	0.043	-0.032
-248.019	575.243	0.061	0.147
-247.005	800.000	0.035	0.122
-245.990	166.017	-0.193	0.268
-244.976	274.989	0.139	0.242
-243.961	76.351	0.075	-0.078
-242.946	-200.000	0.029	0.173
-241.932	306.385	-0.089	0.162
-240.917	62.119	-0.215	0.210
-239.903	-25.810	-0.080	-0.046
-238.888	-200.000	-0.015	0.182
-237.873	112.625	-0.102	0.121
-236.859	318.845	-0.107	-0.200
-235.844	-59.872	0.274	-0.115
-234.830	-200.000	-0.004	-0.193
-233.815	-7.717	0.313	-0.207
-232.800	2.557	-0.331	-0.236
-231.786	-159.967	-0.228	-0.012
-230.771	260.759	-0.036	-0.061
-229.757	-200.000	0.000	0.060
-228.742	800.000	0.115	-0.444
-227.727	-18.513	-0.323	0.198
-226.713	-109.054	-0.219	0.046
-225.698	-67.101	-0.085	0.033
-224.684	198.025	0.267	0.400
-223.669	800.000	-0.040	-0.165
-222.655	800.000	-0.061	0.190
-221.640	111.717	-0.304	0.359
-220.625	-200.000	-0.074	0.405
-219.611	-200.000	0.011	0.049
-218.596	-168.627	-0.096	-0.004
-217.582	-112.804	-0.031	0.006
-216.567	171.920	-0.080	0.112
-215.552	450.567	0.099	-0.214
-214.538	-46.525	-0.016	-0.008
-213.523	800.000	-0.032	0.096
-212.509	-149.962	0.276	-0.021
-211.494	-61.940	-0.203	0.083
-210.479	-99.033	0.216	-0.054
-209.465	-38.729	0.193	0.100
-208.450	-9.399	0.407	-0.266
-207.436	-129.172	0.376	0.051
-206.421	-200.000	0.017	-0.154
-205.406	355.475	0.119	0.233
-204.392	-174.508	-0.295	0.008
-203.377	-142.153	-0.228	-0.022
-202.363	272.928	-0.068	-0.118
-201.348	-110.854	0.222	0.045
-200.333	-153.483	-0.238	-0.016
-199.319	800.000	-0.100	0.328
-198.304	-100.260	0.179	-0.043
-197.290	-76.673	0.179	-0.062
-196.275	-105.455	0.278	0.062
-195.260	-60.630	0.261	0.108
-194.246	-200.000	0.015	0.231
-193.231	-200.000	-0.008	0.111
-192.217	-0.343	-0.127	-0.088
-191.202	-125.418	-0.139	-0.021
-190.187	157.659	-0.080	0.109
-189.173	23.385	-0.099	-0.080
-188.158	208.013	0.160	0.245
-187.144	-56.884	-0.382	0.165
-186.129	115.235	-0.138	-0.164
-185.114	-200.000	-0.002	0.207
-184.100	212.512	-0.055	0.086
-183.085	32.713	-0.253	0.215
-182.071	-82.506	-0.136	-0.043
-181.056	760.461	0.120	-0.319
-180.042	-144.014	0.347	-0.032
-179.027	-140.457	-0.308	0.031
-178.012	102.857	0.134	-0.154
-176.998	-109.595	-0.140	0.029
-175.983	-200.000	-0.001	0.050
-174.969	-166.019	-0.115	-0.005
-173.954	7.560	0.249	0.182
-172.939	138.691	-0.096	0.123
-171.925	8.311	0.114	-0.084
-170.910	274.842	-0.119	-0.206
-169.896	184.449	-0.100	0.145
-168.881	-87.893	0.256	0.075
-167.866	-102.662	-0.489	0.114
-166.852	76.763	0.090	0.093
-165.837	9.799	-0.314	0.233
-164.823	655.880	0.109	0.274
-163.808	-200.000	-0.006	-0.194
-162.793	-67.110	0.196	-0.076
-161.779	-69.665	-0.085	0.032
-160.764	-200.000	-0.049	0.212
-159.750	-66.625	0.358	0.139
-158.735	-200.000	-0.023	0.173
-157.720	-118.429	-0.332	0.058
-156.706	-114.189	-0.093	0.018
-155.691	-61.020	0.031	-0.013
-154.677	-43.857	-0.419	-0.206
-153.662	-200.000	-0.025	-0.129
-152.647	-59.808	0.072	0.030
-151.633	-52.848	-0.343	0.155
-150.618	-117.097	0.342	0.061
-149.604	220.009	0.058	0.091
-148.589	-122.117	0.129	-0.021
-147.574	147.165	-0.080	0.105
-146.560	-200.000	0.073	-0.362
-145.545	-114.611	-0.282	-0.053
-144.531	-28.349	0.422	0.238
-143.516	800.000	0.026	0.086
-142.502	-200.000	-0.013	0.188
-141.487	800.000	0.069	0.222
-140.472	-200.000	-0.027	0.221
-139.458	-0.189	-0.423	-0.294
-138.443	-200.000	-0.017	0.173
-137.429	-21.750	0.104	0.062
-136.414	25.835	0.144	0.117
-135.399	-33.345	0.274	-0.148
-134.385	477.887	-0.089	0.197
-133.370	-157.063	0.141	0.008
-132.356	-101.142	-0.135	0.032
-131.341	464.880	-0.156	0.342
-130.326	477.607	-0.094	0.207
-129.312	-122.979	-0.468	0.074
-128.297	-9.725	0.310	0.201
-127.283	35.887	0.190	-0.164
-126.268	-107.212	0.202	-0.044
-125.253	-154.938	-0.076	-0.005
-124.239	272.519	0.129	0.223
-123.224	81.162	0.053	-0.056
-122.210	-136.433	0.122	0.014
-121.195	535.558	0.097	-0.224
-120.180	-23.393	0.132	-0.077
-119.166	-121.157	-0.263	0.043
-118.151	-104.376	-0.173	0.039
-117.137	-55.376	0.202	0.089
-116.122	78.135	0.092	-0.096
-115.107	370.918	-0.039	0.076
-114.093	36.508	-0.064	0.056
-113.078	-9.554	-0.140	-0.091
-112.064	254.488	-0.035	-0.058
-111.049	-102.274	-0.076	-0.018
-110.034	-73.987	-0.229	-0.081
-109.020	357.678	-0.043	0.084
-108.005	372.104	-0.197	-0.391
-106.991	-13.019	0.246	0.156
-105.976	-200.000	0.004	-0.097
-104.962	210.217	-0.021	-0.031
-103.947	647.575	0.076	-0.189
-102.932	-200.000	-0.036	-0.297
-101.918	-200.000	-0.026	0.236
-100.903	-200.000	0.005	-0.065
-99.889	-200.000	-0.014	-0.275
-98.874	175.100	0.210	-0.296
-97.859	80.672	-0.082	-0.086
-96.845	105.332	0.047	0.054
-95.830	-136.790	-0.036	0.004
-94.816	-102.536	0.373	-0.087
-93.801	-157.408	0.403	0.024
-92.786	-66.348	0.238	0.093
-91.772	317.062	-0.065	0.121
-90.757	-122.306	-0.106	0.017
-89.743	-81.784	0.169	0.054
-88.728	-65.846	0.187	-0.073
-87.713	-106.621	-0.303	-0.066
-86.699	-177.801	0.178	-0.004
-85.684	-104.084	-0.062	-0.014
-84.670	-48.033	0.344	0.162
-83.655	-200.000	0.014	0.119
-82.640	-98.711	-0.105	0.026
-81.626	-38.800	0.197	0.101
-80.611	-72.557	-0.140	0.051
-79.597	-200.000	-0.030	-0.143
-78.582	-98.101	-0.109	0.027
-77.567	-141.206	0.257	0.026
-76.553	5.385	-0.244	0.176
-75.538	-200.000	-0.010	-0.079
-74.524	-200.000	0.019	0.086
-73.509	800.000	-0.039	0.131
-72.494	-161.832	0.317	0.016
-71.480	671.315	-0.039	0.099
-70.465	-118.591	0.344	0.059
-69.451	-200.000	0.036	-0.190
-68.436	275.788	0.102	0.176
-67.422	75.471	0.063	0.065
-66.407	69.217	-0.081	0.082
-65.392	-34.021	0.192	0.103
-64.378	-152.863	0.084	-0.006
-63.363	166.953	0.138	-0.191
-62.349	-200.000	-0.002	-0.037
-61.334	73.400	-1.088	-1.110
-60.319	35.215	0.715	0.611
-59.305	363.998	-0.574	-1.124
-58.290	235.171	0.823	1.325
-57.276	800.000	0.463	1.586
-56.261	-200.000	118.939	618.364
-55.246	413.451	1531.333	3173.575
-54.232	148.837	2680.792	3531.064
-53.217	96.819	2147.989	2398.029
-52.203	35.266	1674.363	1430.216
-51.188	28.510	1491.707	1229.047
-50.173	26.437	1467.802	1195.617
-49.159	47.313	1534.549	1392.346
-48.144	45.814	1549.415	1395.587
-47.130	28.531	1500.015	1235.834
-46.115	25.612	1484.470	1203.486
-45.100	25.497	1480.846	1199.734
-44.086	25.453	1479.128	1197.995
-43.071	25.435	1477.145	1196.228
-42.057	25.406	1475.419	1194.584
-41.042	25.383	1474.047	1193.278
-40.027	25.465	1472.726	1192.704
-39.013	25.371	1471.398	1190.955
-37.998	25.342	1469.776	1189.407
-36.984	25.401	1468.566	1188.772
-35.969	25.428	1467.941	1188.393
-34.954	25.457	1465.983	1186.955
-33.940	25.354	1465.719	1186.011
-32.925	25.376	1464.097	1184.801
-31.911	25.393	1462.861	1183.863
-30.896	25.408	1461.629	1182.919
-29.881	25.634	1459.592	1182.707
-28.867	25.438	1458.913	1180.824
-27.852	25.425	1457.296	1179.379
-26.838	25.505	1455.954	1178.775
-25.823	25.479	1454.460	1177.349
-24.809	25.454	1452.824	1175.810
-23.794	25.552	1451.267	1175.144
-22.779	25.438	1450.070	1173.389
-21.765	25.435	1449.478	1172.843
-20.750	25.525	1448.330	1172.455
-19.736	25.420	1447.479	1171.035
-18.721	25.441	1446.336	1170.196
-17.706	25.491	1445.226	1169.579
-16.692	25.459	1444.182	1168.483
-15.677	25.367	1443.181	1167.023
-14.663	25.435	1442.176	1166.606
-13.648	25.430	1441.240	1165.769
-12.633	25.440	1440.188	1164.937
-11.619	25.433	1439.607	1164.380
-10.604	25.416	1438.818	1163.582
-9.590	25.387	1438.146	1162.805
-8.575	25.429	1436.917	1162.036
-7.560	25.542	1435.838	1161.847
-6.546	25.543	1435.136	1161.240
-5.531	25.451	1434.432	1160.034
-4.517	25.350	1433.816	1158.837
-3.502	25.395	1432.691	1158.172
-2.487	25.426	1431.736	1157.551
-1.473	25.462	1430.735	1156.927
-0.458	25.416	1429.347	1155.468
0.556	23.495	1419.699	1143.026
1.571	20.259	1394.792	1102.350
2.586	16.658	1333.907	1032.216
3.600	14.808	1253.088	958.982
4.615	13.746	1210.123	920.133
5.629	11.918	1155.248	868.641
6.644	5.995	1074.970	778.904
7.659	0.856	1039.207	728.236
8.673	0.271	1033.588	721.433
9.688	0.159	1030.471	718.659
10.702	0.134	1028.767	717.288
11.717	0.116	1026.455	715.524
12.731	2.132	1028.022	726.146
13.746	8.702	1036.369	763.392
14.761	14.894	1044.326	798.851
15.775	16.832	1046.086	809.392
16.790	16.527	1044.540	806.671
17.804	15.377	1042.474	799.528
18.819	14.511	1040.786	794.038
19.834	14.125	1039.375	791.057
20.848	13.965	1038.367	789.458
21.863	13.630	1037.913	787.455
22.877	13.355	1037.259	785.582
23.892	13.204	1036.159	783.960
24.907	13.126	1035.437	782.979
25.921	13.174	1034.710	782.587
26.936	13.130	1034.183	781.911
27.950	13.116	1033.821	781.499
28.965	13.148	1032.670	780.711
29.980	13.177	1031.626	779.989
30.994	13.346	1030.473	779.846
32.009	13.349	1030.048	779.472
33.023	13.323	1029.416	778.801
34.038	13.410	1028.329	778.319
35.053	13.328	1027.711	777.395
36.067	13.263	1026.569	776.157
37.082	13.304	1025.809	775.710
38.096	13.277	1025.058	774.947
39.111	13.251	1024.568	774.382
40.126	13.345	1023.785	774.165
41.140	13.271	1022.432	772.726
42.155	13.131	1022.153	771.794
43.169	13.097	1021.152	770.812
44.184	13.297	1019.878	770.710
45.199	13.117	1018.623	768.858
46.213	13.185	1017.871	768.540
47.228	13.132	1016.937	767.517
48.242	13.201	1016.112	767.149
49.257	13.304	1014.907	766.650
50.271	13.373	1014.207	766.370
51.286	13.271	1012.945	764.879
52.301	13.372	1011.998	764.562
53.315	13.261	1011.645	763.714
54.330	13.228	1011.305	763.240
55.344	13.158	1010.216	762.027
56.359	13.340	1008.650	761.618
57.374	13.097	1008.527	760.336
58.388	12.955	1007.599	758.916
59.403	13.112	1006.589	758.810
60.417	13.044	1005.904	757.914
61.432	13.108	1005.264	757.658
62.447	13.041	1004.724	756.876
63.461	13.087	1003.859	756.368
64.476	12.970	1002.876	755.025
65.490	12.968	1001.823	754.157
66.505	13.225	1000.705	754.425
67.520	13.001	1000.251	752.991
68.534	13.138	999.554	753.025
69.549	13.141	998.864	752.453
70.563	13.199	997.833	751.873
71.578	13.172	997.088	751.125
72.593	13.052	996.571	750.121
73.607	13.048	995.460	749.202
74.622	13.035	994.732	748.526
75.636	12.919	994.250	747.574
76.651	13.100	993.064	747.433
77.666	12.943	992.941	746.565
78.680	13.049	991.602	745.971
79.695	13.133	990.934	745.782
80.709	12.998	990.676	744.914
81.724	13.119	989.670	744.634
82.739	13.090	988.819	743.801
83.753	13.141	988.656	743.838
84.768	13.162	987.481	742.984
85.782	13.419	986.325	743.202
86.797	13.420	985.949	742.858
87.812	13.249	985.198	741.460
88.826	13.252	984.431	740.831
89.841	13.228	983.619	740.046
90.855	13.264	982.875	739.583
91.870	13.398	981.889	739.375
92.884	13.350	981.436	738.753
93.899	13.377	980.398	738.028
94.914	13.264	980.195	737.305
95.928	13.449	978.965	737.139
96.943	13.465	978.282	736.631
97.957	13.468	977.579	736.049
98.972	13.490	976.727	735.440
99.987	13.339	976.152	734.270
101.001	13.387	975.410	733.861
102.016	13.276	974.779	732.829
103.030	13.405	973.394	732.293
104.045	13.324	972.495	731.194
105.060	13.447	971.595	730.998
106.074	13.294	971.269	730.012
107.089	13.268	970.170	729.008
108.103	13.153	969.452	727.897
109.118	13.201	968.660	727.450
110.133	13.088	967.708	726.173
111.147	13.265	966.624	726.072
112.162	13.219	965.764	725.158
113.176	13.215	965.219	724.669
114.191	13.206	964.165	723.774
115.206	13.266	963.420	723.413
116.220	13.342	962.596	723.065
117.235	13.281	961.904	722.213
118.249	13.304	960.726	721.365
119.264	13.382	960.138	721.199
120.279	13.377	959.089	720.325
121.293	13.274	958.231	719.172
122.308	13.441	957.238	719.086
123.322	13.100	957.457	717.706
124.337	13.243	955.766	716.993
125.352	13.146	954.680	715.696
126.366	13.189	953.791	715.154
127.381	13.126	952.621	713.941
128.395	13.075	952.055	713.231
129.410	13.271	950.605	712.927
130.424	13.343	949.939	712.676
131.439	13.310	948.905	711.697
132.454	13.308	948.018	710.960
133.468	13.353	947.238	710.504
134.483	13.244	947.657	710.285
135.497	13.217	946.596	709.314
136.512	13.312	945.562	708.884
137.527	13.295	944.888	708.240
138.541	13.218	944.117	707.270
139.556	13.282	943.365	706.918
140.570	13.315	942.942	706.680
141.585	13.372	941.720	705.947
142.600	13.507	941.023	705.938
143.614	13.496	940.343	705.316
144.629	13.450	939.815	704.663
145.643	13.437	939.164	704.055
146.658	13.454	938.169	703.323
147.673	13.396	937.263	702.335
148.687	13.392	936.268	701.507
149.702	13.444	935.808	701.321
150.716	13.468	934.565	700.429
151.731	13.396	934.004	699.642
152.746	13.344	933.380	698.896
153.760	13.455	932.426	698.587
154.775	13.397	931.957	697.929
155.789	13.457	930.634	697.128
156.804	13.572	929.916	697.014
157.819	13.550	929.231	696.348
158.833	13.513	928.555	695.621
159.848	13.542	927.995	695.261
160.862	13.602	927.537	695.109
161.877	13.618	926.689	694.481
162.892	13.471	925.930	693.235
163.906	13.431	925.399	692.608
164.921	13.391	924.485	691.694
165.935	13.441	923.420	691.046
166.950	13.494	922.334	690.392
167.964	13.506	921.822	689.998
168.979	13.547	920.572	689.172
169.994	13.624	919.401	688.557
171.008	13.567	919.290	688.176
172.023	13.587	918.202	687.384
173.037	13.549	917.408	686.568
174.052	13.716	916.613	686.603
175.067	13.760	915.965	686.243
176.081	13.671	915.341	685.344
177.096	13.626	914.165	684.217
178.110	13.621	913.373	683.545
179.125	13.543	913.049	682.919
180.140	13.738	912.003	682.879
181.154	13.606	911.432	681.849
182.169	13.710	911.017	681.903
183.183	13.782	910.256	681.570
184.198	13.880	909.442	681.301
185.213	13.754	908.988	680.385
186.227	13.830	908.595	680.343
187.242	13.837	907.947	679.828
188.256	13.990	907.082	679.743
189.271	13.860	906.632	678.817
190.286	13.930	905.825	678.438
191.300	13.900	904.830	677.510
192.315	13.808	904.015	676.463
193.329	13.716	903.689	675.785
194.344	13.793	903.015	675.537
195.359	13.807	902.501	675.149
196.373	13.885	901.779	674.864
197.388	13.853	901.352	674.358
198.402	13.880	901.041	674.174
199.417	14.090	900.214	674.347
200.432	14.085	900.059	674.152
201.446	13.995	899.615	673.395
202.461	13.981	899.089	672.882
203.475	14.253	898.280	673.319
204.490	14.128	898.044	672.578
205.504	14.050	897.240	671.599
206.519	14.230	895.829	671.213
207.534	14.129	895.273	670.328
208.548	14.045	895.240	669.906
209.563	14.132	894.397	669.564
210.577	14.097	893.430	668.641
211.592	14.182	892.681	668.364
212.607	14.082	892.309	667.626
213.621	14.326	891.683	668.074
214.636	14.313	890.808	667.307
215.650	14.187	890.588	666.582
216.665	14.265	889.747	666.206
217.680	14.302	889.273	665.938
218.694	14.272	888.813	665.414
219.709	14.301	888.526	665.257
220.723	14.390	887.699	664.934
221.738	14.366	887.000	664.255
222.753	14.266	886.373	663.328
223.767	14.358	885.358	662.878
224.782	14.273	884.928	662.157
225.796	14.332	884.026	661.659
226.811	14.537	883.251	661.834
227.826	14.496	882.572	661.106
228.840	14.433	881.780	660.203
229.855	14.465	881.320	659.929
230.869	14.321	881.070	659.110
231.884	14.334	880.196	658.450
232.899	14.382	879.149	657.797
233.913	14.481	878.848	657.907
234.928	14.354	878.136	656.814
235.942	14.344	877.730	656.412
236.957	14.312	876.702	655.462
237.972	14.505	875.841	655.516
238.986	14.563	875.041	655.087
240.001	14.514	874.569	654.483
241.015	14.476	874.111	653.934
242.030	14.465	873.332	653.251
243.045	14.517	872.656	652.890
244.059	14.476	872.302	652.409
245.074	14.591	871.480	652.187
246.088	14.632	870.695	651.699
247.103	14.581	870.298	651.148
248.117	14.610	869.734	650.779
249.132	14.779	869.049	650.869
250.147	14.942	868.630	651.130
251.161	14.881	867.944	650.323
252.176	14.815	867.424	649.620
253.190	14.917	866.326	649.136
254.205	14.813	866.108	648.511
255.220	15.080	865.093	648.727
256.234	14.938	864.647	647.786
257.249	15.003	864.396	647.793
258.263	15.019	863.524	647.144
259.278	15.112	862.712	646.839
260.293	15.119	862.367	646.547
261.307	15.004	861.891	645.691
262.322	15.116	861.101	645.475
263.336	15.080	860.571	644.880
264.351	15.044	859.883	644.170
265.366	15.047	859.519	643.852
266.380	15.055	859.252	643.626
267.395	15.172	858.402	643.380
268.409	15.158	857.822	642.835
269.424	15.336	856.776	642.676
270.439	15.115	856.396	641.487
271.453	15.025	855.221	640.208
272.468	15.055	855.084	640.163
273.482	15.116	854.212	639.687
274.497	15.160	853.849	639.523
275.512	15.160	852.706	638.612
276.526	15.039	852.569	637.994
277.541	15.117	851.573	637.487
278.555	15.184	850.833	637.131
279.570	15.309	850.595	637.372
280.585	15.280	849.975	636.739
281.599	15.344	849.591	636.641
282.614	15.285	849.071	635.971
283.628	15.247	848.511	635.352
284.643	15.305	847.939	635.087
285.657	15.403	847.332	634.945
286.672	15.305	846.853	634.160
287.687	15.487	846.084	634.216
288.701	15.497	845.974	634.116
289.716	15.472	845.396	633.533
290.730	15.411	844.692	632.719
291.745	15.410	843.799	631.990
292.760	15.481	843.198	631.750
293.774	15.556	842.913	631.762
294.789	15.494	842.269	630.992
295.803	15.532	841.321	630.370
296.818	15.481	840.964	629.854
297.833	15.508	840.597	629.625
298.847	15.551	839.832	629.156
299.862	15.534	839.227	628.584
300.876	15.641	838.228	628.182
301.891	15.754	837.728	628.172
302.906	15.777	836.789	627.498
303.920	15.782	836.124	626.961
304.935	15.642	836.096	626.362
305.949	15.863	835.014	626.319
306.964	15.827	834.648	625.855
307.979	15.703	833.962	624.826
308.993	15.742	833.486	624.560
310.008	15.898	832.697	624.490
311.022	15.797	832.462	623.886
312.037	15.855	832.161	623.820
313.052	15.796	831.726	623.220
314.066	15.854	830.830	622.709
315.081	15.809	830.058	621.907
316.095	15.808	829.788	621.647
317.110	15.831	829.341	621.341
318.125	15.840	828.634	620.789
319.139	15.873	828.019	620.394
320.154	15.838	827.795	620.044
321.168	15.848	827.342	619.688
322.183	15.823	826.703	619.060
323.197	15.899	826.254	618.949
324.212	15.889	825.393	618.212
325.227	15.942	824.934	618.011
326.241	15.884	824.706	617.573
327.256	15.925	823.650	616.876
328.270	15.905	823.216	616.423
329.285	16.018	822.544	616.279
330.300	16.087	821.802	615.919
331.314	15.981	821.786	615.465
332.329	16.018	821.315	615.196
333.343	16.094	820.373	614.712
334.358	16.030	819.750	613.957
335.373	15.981	819.433	613.487
336.387	16.207	818.557	613.597
337.402	16.163	818.315	613.203
338.416	16.137	817.558	612.487
339.431	16.149	817.129	612.154
340.446	16.207	816.836	612.091
341.460	16.237	816.258	611.713
342.475	16.378	815.450	611.564
343.489	16.401	815.026	611.274
344.504	16.211	814.656	610.256
345.519	16.395	813.773	610.206
346.533	16.390	813.154	609.670
347.548	16.539	812.704	609.815
348.562	16.397	812.396	609.018
349.577	16.248	812.075	608.188
350.592	16.381	811.065	607.855
351.606	16.314	811.137	607.614
352.621	16.402	810.456	607.366
353.635	16.260	810.156	606.578
354.650	16.373	809.638	606.542
355.665	16.304	809.035	605.790
356.679	16.408	808.688	605.849
357.694	16.479	808.143	605.642
358.708	16.365	807.992	605.067
359.723	16.430	807.337	604.757
360.738	16.450	806.569	604.197
361.752	16.576	806.034	604.194
362.767	16.413	805.712	603.318
363.781	16.542	805.453	603.530
364.796	16.727	804.616	603.510
365.810	16.482	804.420	602.435
366.825	16.629	803.934	602.543
367.840	16.754	803.991	602.977
368.854	16.641	803.596	602.223
369.869	16.866	802.612	602.232
370.883	16.594	802.331	601.003
371.898	16.607	801.721	600.539
372.913	16.842	801.145	600.888
373.927	16.800	800.852	600.464
374.942	16.718	800.054	599.523
375.956	16.661	799.251	598.669
376.971	16.828	798.573	598.697
377.986	16.774	798.135	598.124
379.000	16.848	797.489	597.848
380.015	16.978	796.867	597.788
381.029	16.985	796.818	597.724
382.044	17.022	796.028	597.208
383.059	17.018	795.474	596.726
384.073	17.014	795.030	596.326
385.088	16.993	794.556	595.843
386.102	16.897	794.401	595.339
387.117	17.000	793.289	594.814
388.132	16.940	793.024	594.350
389.146	16.987	792.802	594.295
390.161	16.904	792.608	593.809
391.175	16.886	792.377	593.519
392.190	16.965	791.884	593.373
393.205	17.023	791.287	593.075
394.219	17.075	790.902	592.917
395.234	16.891	790.385	591.836
396.248	16.990	789.810	591.697
397.263	17.010	789.156	591.224
398.278	16.885	788.872	590.523
399.292	16.902	788.232	590.051
400.307	17.021	788.167	590.365
401.321	16.964	787.866	589.890
402.336	17.055	787.260	589.701
403.350	17.102	786.803	589.468
404.365	17.174	785.951	589.027
405.380	17.289	785.459	589.003
406.394	17.274	785.152	588.671
407.409	17.323	784.855	588.565
408.423	17.249	784.566	588.041
409.438	17.250	783.957	587.535
410.453	17.257	783.722	587.332
411.467	17.330	783.293	587.211
412.482	17.258	782.782	586.525
413.496	17.497	782.018	586.727
414.511	17.349	781.847	586.037
415.526	17.464	781.448	586.080
416.540	17.501	781.493	586.190
417.555	17.447	780.546	585.244
418.569	17.429	780.316	584.956
419.584	17.636	779.840	585.257
420.599	17.620	779.540	584.928
421.613	113.524	1295.520	1484.196
422.628	97.294	1370.655	1484.291
