DTS Sentinel unit serial number:	SN413079Multiplexer serial number:	ORYXHardware model number:	OX4-SRSoftware version number:	ORYX F/W v4.00 Oryx Data Collector v3.7.2.0data status	okinstallation	princeton_trtdifferential loss correction	single-endedforward channel	channel 3reverse channel	N/Adate	2019/09/12time	10:14:11forward acquisition time	60.00reverse acquisition time	0.00gamma	496.2192k internal	0.2299k external	0.2299temperature offset calibration	1.0035default loss term (dB/km)	0.3790temperature slope calibration	1.0000multiplexer offset coefficient	1.0000multiplexer slope coefficient	1.0000fibre end	0.00T internal ref (°C)	36.52T ext. ref 1 (°C)	1.86T ext. ref 2 (°C)	33.70length (m)	temperature (°C)	Stokes	anti-Stokes-747.200	18.974	0.192	0.157
-746.185	800.000	-0.140	0.465
-745.171	6.746	0.147	-0.112
-744.156	12.153	0.244	0.192
-743.142	-74.490	-0.453	0.167
-742.127	238.390	-0.046	-0.078
-741.112	59.611	-0.308	0.310
-740.098	430.643	0.100	0.220
-739.083	-20.064	-0.224	-0.141
-738.069	41.626	0.235	0.218
-737.054	189.699	0.061	-0.093
-736.039	-200.000	0.034	0.165
-735.025	-26.554	0.135	-0.081
-734.010	-49.105	-0.376	-0.183
-732.996	800.000	-0.096	0.273
-731.981	800.000	-0.102	-0.309
-730.966	-95.641	-0.334	-0.091
-729.952	-139.778	-0.227	0.025
-728.937	-41.434	0.279	-0.147
-727.923	-0.140	-0.109	0.079
-726.908	-146.776	0.102	0.009
-725.894	-99.434	0.185	0.047
-724.879	390.931	-0.191	0.404
-723.864	212.828	-0.140	0.225
-722.850	-112.460	-0.283	-0.058
-721.835	46.779	0.089	-0.085
-720.821	103.764	-0.249	0.298
-719.806	-130.099	0.259	0.036
-718.791	55.185	-0.273	0.269
-717.777	462.522	0.202	0.459
-716.762	-200.000	-0.008	-0.210
-715.748	-3.305	-0.123	-0.088
-714.733	800.000	-0.087	-0.297
-713.718	194.911	-0.187	-0.289
-712.704	-92.258	-0.126	-0.036
-711.689	-178.265	-0.302	0.007
-710.675	612.545	0.134	0.343
-709.660	-200.000	-0.072	-0.331
-708.645	27.964	-0.172	-0.148
-707.631	110.654	-0.127	0.156
-706.616	442.138	-0.081	0.181
-705.602	-88.424	-0.182	-0.055
-704.587	113.166	-0.163	0.201
-703.572	88.117	0.197	-0.222
-702.558	-31.273	-0.138	0.079
-701.543	87.601	-0.241	-0.272
-700.529	130.146	0.205	0.267
-699.514	-49.119	-0.079	-0.039
-698.499	243.803	-0.228	-0.389
-697.485	800.000	0.027	-0.114
-696.470	25.329	0.169	0.143
-695.456	-200.000	0.004	0.085
-694.441	369.517	-0.039	0.081
-693.426	9.597	0.268	0.207
-692.412	-200.000	-0.014	0.246
-691.397	-51.584	-0.122	-0.058
-690.383	21.966	-0.259	-0.215
-689.368	306.803	0.116	-0.220
-688.354	-145.158	0.120	0.011
-687.339	99.300	-0.115	0.136
-686.324	-70.521	-0.227	0.087
-685.310	299.155	0.046	-0.086
-684.295	-40.622	0.071	0.037
-683.281	800.000	0.035	0.142
-682.266	-136.701	0.073	-0.009
-681.251	-52.313	-0.171	0.081
-680.237	181.872	0.088	-0.132
-679.222	-200.000	0.000	0.174
-678.208	269.345	-0.106	-0.190
-677.193	270.302	-0.127	-0.227
-676.178	-37.726	-0.161	-0.087
-675.164	800.000	0.101	-0.415
-674.149	-89.676	0.272	-0.081
-673.135	469.292	-0.083	0.191
-672.120	-200.000	-0.005	-0.117
-671.105	704.326	-0.055	-0.147
-670.091	190.065	-0.177	0.271
-669.076	-119.174	0.071	0.013
-668.062	-181.187	0.278	0.006
-667.047	-200.000	0.028	0.277
-666.032	-200.000	-0.039	0.347
-665.018	-200.000	-0.014	0.246
-664.003	-200.000	-0.057	-0.256
-662.989	9.093	0.103	-0.079
-661.974	8.147	-0.166	-0.127
-660.959	-73.837	0.280	0.104
-659.945	-200.000	0.064	0.313
-658.930	-86.079	-0.269	0.085
-657.916	175.416	-0.137	-0.202
-656.901	217.781	-0.136	-0.220
-655.886	446.031	-0.095	-0.212
-654.872	-200.000	0.055	0.334
-653.857	-200.000	0.000	0.072
-652.843	-72.501	0.169	0.064
-651.828	-200.000	-0.012	-0.161
-650.814	-200.000	0.020	-0.101
-649.799	353.447	-0.117	0.236
-648.784	800.000	0.033	-0.136
-647.770	373.442	-0.136	-0.282
-646.755	-74.145	-0.177	-0.065
-645.741	53.535	0.179	-0.174
-644.726	158.659	0.157	0.221
-643.711	68.118	-0.217	0.226
-642.697	-174.445	0.220	-0.006
-641.682	86.980	-0.165	0.185
-640.668	-2.966	-0.333	-0.236
-639.653	-200.000	-0.007	-0.189
-638.638	-200.000	-0.032	-0.152
-637.624	68.821	-0.115	0.120
-636.609	38.673	0.062	-0.056
-635.595	224.479	-0.097	-0.159
-634.580	62.173	0.308	0.312
-633.565	-108.201	-0.137	0.030
-632.551	-32.532	0.359	-0.203
-631.536	31.796	-0.299	-0.261
-630.522	559.263	-0.131	0.320
-629.507	107.860	-0.062	0.076
-628.492	-140.710	-0.151	-0.016
-627.478	152.682	-0.153	-0.212
-626.463	-200.000	-0.051	0.272
-625.449	109.304	0.142	-0.173
-624.434	800.000	0.138	0.495
-623.419	-176.978	-0.295	0.008
-622.405	135.527	-0.029	0.039
-621.390	-66.634	-0.116	-0.047
-620.376	-46.465	0.129	-0.064
-619.361	-135.489	-0.147	0.018
-618.346	207.500	-0.160	-0.254
-617.332	800.000	0.062	0.210
-616.317	71.108	0.131	0.138
-615.303	603.044	-0.215	-0.542
-614.288	-186.867	-0.102	0.001
-613.273	122.546	-0.067	0.085
-612.259	-61.812	0.166	0.071
-611.244	351.953	-0.084	0.168
-610.230	160.360	-0.101	0.144
-609.215	-200.000	0.026	0.141
-608.201	-200.000	0.031	-0.189
-607.186	-200.000	0.014	-0.085
-606.171	-200.000	0.026	0.306
-605.157	12.541	0.212	-0.166
-604.142	59.138	-0.283	-0.283
-603.128	51.396	-0.174	-0.167
-602.113	-73.607	-0.143	-0.053
-601.098	-200.000	-0.022	-0.328
-600.084	0.823	0.091	0.066
-599.069	233.399	0.143	0.239
-598.055	171.592	-0.094	0.137
-597.040	126.252	0.126	-0.162
-596.025	-172.961	-0.119	-0.004
-595.011	644.507	0.138	-0.356
-593.996	93.202	-0.155	-0.178
-592.982	-200.000	0.024	0.265
-591.967	-68.990	-0.246	0.096
-590.952	217.791	-0.067	0.109
-589.938	724.491	0.071	0.192
-588.923	-200.000	-0.009	-0.118
-587.909	-84.539	-0.326	-0.104
-586.894	-36.893	-0.298	0.162
-585.879	281.106	-0.129	-0.235
-584.865	800.000	-0.058	0.188
-583.850	64.528	0.135	-0.138
-582.836	586.097	0.143	-0.357
-581.821	-200.000	0.045	-0.356
-580.806	-200.000	0.011	0.054
-579.792	77.691	0.037	0.040
-578.777	327.334	-0.102	-0.199
-577.763	-200.000	-0.032	-0.170
-576.748	204.540	0.078	-0.122
-575.733	-48.720	0.161	-0.078
-574.719	-200.000	0.027	-0.237
-573.704	-105.125	-0.094	-0.022
-572.690	376.794	-0.045	0.094
-571.675	800.000	0.040	-0.153
-570.661	69.702	-0.182	-0.190
-569.646	298.654	0.087	-0.163
-568.631	57.229	-0.168	0.166
-567.617	-14.976	0.105	0.068
-566.602	800.000	0.011	-0.033
-565.588	-200.000	0.001	-0.154
-564.573	-125.342	0.426	0.066
-563.558	43.506	-0.118	0.109
-562.544	177.280	0.054	0.080
-561.529	-162.785	-0.031	-0.002
-560.515	44.024	-0.126	0.117
-559.500	800.000	0.137	0.519
-558.485	-71.488	-0.085	-0.032
-557.471	29.711	0.061	0.052
-556.456	-200.000	0.020	-0.153
-555.442	-90.226	0.414	0.122
-554.427	75.753	0.039	-0.041
-553.412	-200.000	-0.042	-0.198
-552.398	-200.000	-0.092	-0.413
-551.383	-40.077	0.179	-0.095
-550.369	-200.000	0.002	0.010
-549.354	-130.636	0.288	0.039
-548.339	82.688	-0.079	0.087
-547.325	800.000	-0.051	-0.209
-546.310	-136.177	-0.368	0.044
-545.296	422.223	-0.082	0.179
-544.281	576.344	0.125	0.308
-543.266	800.000	0.028	-0.095
-542.252	-200.000	0.000	-0.007
-541.237	176.895	0.163	-0.241
-540.223	23.594	0.306	0.255
-539.208	776.240	0.081	0.223
-538.193	-200.000	0.025	0.228
-537.179	89.539	-0.140	-0.158
-536.164	-66.529	-0.281	0.113
-535.150	69.141	0.246	0.256
-534.135	-25.371	-0.133	-0.080
-533.121	-185.159	0.308	0.005
-532.106	-2.040	-0.077	0.055
-531.091	-15.307	-0.144	-0.093
-530.077	236.483	0.216	-0.361
-529.062	800.000	-0.036	-0.121
-528.048	-43.734	0.109	-0.055
-527.033	243.937	-0.140	0.238
-526.018	-117.047	-0.361	0.067
-525.004	46.779	0.051	-0.048
-523.989	-105.964	-0.345	0.079
-522.975	258.115	-0.093	-0.161
-521.960	424.639	-0.115	-0.251
-520.945	208.800	-0.184	0.292
-519.931	800.000	0.047	0.163
-518.916	98.998	-0.156	-0.182
-517.902	767.881	-0.130	-0.358
-516.887	-200.000	0.027	0.150
-515.872	-157.478	0.098	-0.006
-514.858	7.127	0.298	-0.225
-513.843	-200.000	0.039	0.176
-512.829	-200.000	-0.015	-0.204
-511.814	459.296	-0.158	0.356
-510.799	800.000	-0.037	0.131
-509.785	-200.000	0.006	-0.154
-508.770	345.656	0.066	-0.131
-507.756	-17.169	-0.010	0.006
-506.741	14.150	0.084	-0.066
-505.726	-131.167	0.045	0.006
-504.712	-67.857	-0.193	-0.076
-503.697	-200.000	0.002	-0.014
-502.683	-66.574	-0.516	-0.207
-501.668	-200.000	0.015	-0.124
-500.653	-31.689	-0.356	0.202
-499.639	800.000	-0.044	0.187
-498.624	-135.468	0.187	0.023
-497.610	-75.065	0.353	0.128
-496.595	-200.000	-0.037	0.208
-495.581	-42.522	-0.315	-0.162
-494.566	-97.739	-0.038	-0.010
-493.551	-200.000	-0.018	0.332
-492.537	-68.321	0.246	0.097
-491.522	-200.000	-0.017	-0.234
-490.508	215.045	0.233	0.373
-489.493	-36.562	-0.235	0.128
-488.478	584.717	0.132	0.327
-487.464	-62.185	-0.178	0.075
-486.449	-1.139	-0.142	0.102
-485.435	-200.000	-0.031	-0.142
-484.420	-10.886	-0.142	0.095
-483.405	106.731	-0.053	0.064
-482.391	354.615	0.061	-0.123
-481.376	780.809	-0.081	-0.225
-480.362	-174.520	0.186	-0.005
-479.347	82.528	0.131	-0.143
-478.332	-200.000	-0.001	0.223
-477.318	14.899	0.314	0.248
-476.303	-24.047	-0.200	-0.121
-475.289	-86.990	0.313	0.096
-474.274	200.788	-0.072	-0.111
-473.259	-60.853	-0.434	-0.185
-472.245	-112.787	-0.141	-0.028
-471.230	3.887	0.187	0.138
-470.216	800.000	0.059	0.215
-469.201	30.313	-0.096	0.083
-468.186	-6.466	0.144	-0.099
-467.172	37.540	-0.206	-0.185
-466.157	275.552	0.177	0.316
-465.143	282.390	-0.054	0.097
-464.128	-39.673	0.223	0.118
-463.113	-200.000	0.025	0.540
-462.099	800.000	-0.074	0.221
-461.084	-31.272	-0.515	-0.293
-460.070	800.000	0.121	-0.349
-459.055	225.195	-0.294	-0.480
-458.040	-22.276	0.034	-0.021
-457.026	62.134	-0.192	0.194
-456.011	-200.000	-0.005	-0.047
-454.997	220.802	0.054	0.087
-453.982	-98.402	0.220	-0.057
-452.968	441.145	0.080	-0.178
-451.953	-200.000	-0.004	0.018
-450.938	94.766	-0.122	0.140
-449.924	479.587	0.147	-0.335
-448.909	204.697	-0.043	0.068
-447.895	597.205	0.065	0.163
-446.880	184.624	0.017	-0.026
-445.865	-10.615	0.157	0.105
-444.851	366.580	0.176	-0.358
-443.836	672.006	-0.105	-0.275
-442.822	340.173	0.155	-0.305
-441.807	800.000	-0.074	-0.276
-440.792	18.873	-0.327	-0.265
-439.778	800.000	0.053	-0.216
-438.763	800.000	0.029	0.128
-437.749	-200.000	0.159	-0.000
-436.734	270.091	0.154	0.274
-435.719	25.861	-0.245	0.206
-434.705	139.567	-0.248	0.329
-433.690	708.378	0.111	-0.296
-432.676	-68.641	-0.193	-0.075
-431.661	128.334	-0.082	0.106
-430.646	4.504	0.243	-0.180
-429.632	-89.905	-0.330	0.097
-428.617	-200.000	-0.005	0.282
-427.603	242.889	-0.108	0.183
-426.588	264.975	0.091	-0.160
-425.573	-15.408	0.198	-0.127
-424.559	-200.000	-0.009	0.279
-423.544	-200.000	-0.015	-0.117
-422.530	132.070	0.209	-0.271
-421.515	-136.758	0.125	-0.015
-420.500	250.447	0.196	0.335
-419.486	-200.000	-0.004	-0.149
-418.471	-172.537	0.260	0.008
-417.457	-200.000	0.012	-0.464
-416.442	-81.225	-0.052	0.017
-415.428	-112.932	-0.208	-0.041
-414.413	-64.162	-0.200	-0.082
-413.398	157.568	0.241	0.336
-412.384	112.605	-0.035	0.043
-411.369	800.000	0.040	0.136
-410.355	-100.768	0.084	-0.021
-409.340	650.105	0.097	-0.249
-408.325	-108.697	0.238	-0.051
-407.311	83.635	-0.265	-0.292
-406.296	-197.499	-0.115	0.001
-405.282	-158.361	-0.098	0.006
-404.267	-116.894	0.361	-0.067
-403.252	-200.000	-0.008	0.110
-402.238	-132.254	-0.318	-0.041
-401.223	800.000	-0.022	0.095
-400.209	345.212	0.043	-0.085
-399.194	800.000	-0.028	-0.123
-398.179	-40.879	-0.270	0.141
-397.165	-72.220	0.186	-0.070
-396.150	-101.345	-0.083	0.020
-395.136	227.239	-0.154	0.252
-394.121	4.688	0.208	0.154
-393.106	147.296	0.058	0.078
-392.092	-195.624	0.226	-0.002
-391.077	-30.837	-0.267	0.152
-390.063	800.000	-0.006	0.022
-389.048	-6.208	0.216	0.148
-388.033	-200.000	-0.006	0.182
-387.019	800.000	0.042	0.129
-386.004	78.947	-0.224	-0.241
-384.990	-140.174	-0.386	0.041
-383.975	-35.872	0.057	-0.031
-382.960	-200.000	-0.001	0.163
-381.946	-96.910	0.121	-0.032
-380.931	10.087	0.074	-0.056
-379.917	193.440	0.036	-0.055
-378.902	-102.788	0.318	0.076
-377.888	76.431	0.202	0.215
-376.873	-200.000	0.037	0.275
-375.858	-200.000	-0.043	-0.228
-374.844	-34.369	0.136	-0.075
-373.829	147.821	0.066	0.089
-372.815	800.000	-0.004	0.017
-371.800	262.589	0.077	0.134
-370.785	-54.174	-0.124	-0.057
-369.771	-99.455	0.030	0.008
-368.756	-200.000	0.009	0.087
-367.742	23.207	-0.017	-0.014
-366.727	-200.000	0.008	-0.217
-365.712	492.409	0.176	-0.405
-364.698	-100.818	-0.207	-0.051
-363.683	101.263	0.045	0.053
-362.669	-3.804	-0.260	0.181
-361.654	5.591	-0.032	0.024
-360.639	-200.000	-0.014	0.092
-359.625	-103.263	0.101	0.024
-358.610	-102.953	-0.193	-0.046
-357.596	-111.280	0.414	0.085
-356.581	99.193	-0.138	-0.160
-355.566	318.884	0.115	0.219
-354.552	-200.000	-0.010	0.108
-353.537	-44.758	-0.053	-0.026
-352.523	477.498	-0.043	-0.097
-351.508	800.000	-0.057	-0.191
-350.493	-150.980	-0.035	0.003
-349.479	-200.000	-0.018	0.136
-348.464	55.131	0.184	-0.179
-347.450	32.612	-0.292	-0.254
-346.435	-28.287	0.240	0.139
-345.420	800.000	-0.028	-0.082
-344.406	375.580	-0.175	0.358
-343.391	-9.474	0.127	-0.085
-342.377	86.247	0.144	0.160
-341.362	-200.000	-0.014	-0.175
-340.348	571.104	-0.113	-0.276
-339.333	-6.180	0.056	0.038
-338.318	119.679	-0.070	-0.087
-337.304	-37.391	0.111	-0.059
-336.289	161.957	-0.307	0.432
-335.275	131.918	-0.137	-0.177
-334.260	354.790	0.177	-0.353
-333.245	-150.837	-0.121	-0.009
-332.231	-71.224	-0.209	0.079
-331.216	-43.426	0.377	0.191
-330.202	-200.000	0.001	0.135
-329.187	366.012	-0.059	-0.120
-328.172	-18.436	-0.169	-0.106
-327.158	210.712	0.187	0.295
-326.143	800.000	0.116	-0.394
-325.129	-100.760	-0.218	-0.054
-324.114	-36.548	-0.082	0.044
-323.099	588.336	0.101	-0.249
-322.085	-200.000	-0.011	-0.159
-321.070	579.413	0.167	-0.410
-320.056	117.935	0.136	-0.168
-319.041	327.241	-0.071	-0.137
-318.026	-82.533	-0.223	0.073
-317.012	288.590	-0.132	0.239
-315.997	365.704	0.137	0.276
-314.983	-200.000	0.026	0.387
-313.968	209.573	-0.169	0.265
-312.953	-155.194	-0.323	0.021
-311.939	147.591	-0.029	0.040
-310.924	239.415	0.245	-0.409
-309.910	130.233	0.156	0.200
-308.895	-142.162	-0.422	-0.042
-307.880	117.348	0.182	-0.225
-306.866	-27.504	0.240	0.140
-305.851	168.500	0.125	-0.179
-304.837	64.395	0.047	-0.047
-303.822	502.984	-0.064	0.148
-302.807	30.360	0.115	0.099
-301.793	527.268	-0.037	-0.088
-300.778	-124.069	-0.042	-0.007
-299.764	-161.684	0.264	-0.014
-298.749	117.574	-0.039	-0.048
-297.735	-106.710	0.494	0.110
-296.720	-127.425	0.106	-0.015
-295.705	-126.593	-0.368	0.055
-294.691	-200.000	0.015	-0.108
-293.676	-200.000	0.031	0.153
-292.662	93.842	-0.135	0.154
-291.647	-200.000	0.010	-0.050
-290.632	509.673	0.102	0.237
-289.618	-200.000	-0.094	0.516
-288.603	-200.000	0.008	0.178
-287.589	-27.024	0.214	0.125
-286.574	800.000	0.038	0.136
-285.559	772.892	-0.012	-0.033
-284.545	-200.000	0.030	0.182
-283.530	800.000	0.067	-0.205
-282.516	110.916	-0.196	-0.236
-281.501	258.926	0.070	-0.120
-280.486	63.381	-0.104	0.104
-279.472	-94.757	-0.195	-0.053
-278.457	-200.000	-0.011	0.300
-277.443	800.000	-0.074	-0.244
-276.428	623.458	0.149	0.376
-275.413	-67.259	-0.182	-0.072
-274.399	-98.300	0.108	0.028
-273.384	98.348	-0.206	0.238
-272.370	800.000	0.064	0.242
-271.355	146.761	-0.148	0.200
-270.340	139.215	-0.011	-0.014
-269.326	121.551	0.136	-0.169
-268.311	-130.035	0.132	-0.018
-267.297	800.000	-0.036	0.134
-266.282	-78.282	0.226	-0.078
-265.267	180.111	0.131	-0.193
-264.253	-200.000	0.006	0.061
-263.238	-200.000	-0.022	0.202
-262.224	461.412	0.017	0.039
-261.209	15.367	-0.218	0.171
-260.195	-56.136	0.158	-0.071
-259.180	-200.000	0.249	-0.000
-258.165	-113.163	0.124	-0.024
-257.151	-200.000	-0.012	-0.123
-256.136	161.268	0.056	-0.078
-255.122	-74.635	0.158	0.057
-254.107	17.160	0.072	-0.058
-253.092	324.692	-0.066	-0.127
-252.078	-97.556	0.167	0.043
-251.063	-134.849	0.352	0.043
-250.049	-71.112	0.191	-0.072
-249.034	800.000	-0.040	-0.115
-248.019	-200.000	-0.024	-0.185
-247.005	-16.597	-0.254	0.161
-245.990	-138.018	0.165	0.018
-244.976	294.806	0.155	0.284
-243.961	-84.132	0.309	-0.098
-242.946	786.042	-0.174	0.476
-241.932	773.894	0.023	-0.062
-240.917	-118.708	-0.214	-0.038
-239.903	-92.887	-0.362	0.101
-238.888	-136.425	0.165	-0.019
-237.873	510.251	-0.063	0.146
-236.859	-62.403	-0.199	0.083
-235.844	-15.784	0.167	-0.106
-234.830	-200.000	-0.032	-0.324
-233.815	47.086	-0.223	-0.208
-232.800	-38.349	0.189	-0.100
-231.786	800.000	0.062	-0.198
-230.771	78.005	0.027	-0.029
-229.757	-97.695	0.109	-0.028
-228.742	147.912	-0.050	-0.067
-227.727	142.371	0.192	-0.254
-226.713	-116.116	-0.269	0.050
-225.698	-32.340	-0.195	-0.109
-224.684	-122.522	-0.129	0.021
-223.669	-200.000	0.039	-0.210
-222.655	-200.000	0.007	0.108
-221.640	137.532	-0.095	0.125
-220.625	39.665	-0.064	-0.058
-219.611	-176.212	0.046	-0.001
-218.596	616.456	-0.012	0.030
-217.582	800.000	-0.084	-0.279
-216.567	11.579	-0.267	-0.205
-215.552	790.207	0.005	0.014
-214.538	-200.000	0.030	0.216
-213.523	-43.230	-0.202	0.102
-212.509	-200.000	0.046	0.336
-211.494	173.146	0.129	0.185
-210.479	-153.376	0.142	0.010
-209.465	-200.000	-0.096	0.475
-208.450	235.732	0.182	-0.300
-207.436	101.185	0.188	0.219
-206.421	-104.071	0.103	-0.024
-205.406	-84.934	0.191	0.060
-204.392	-200.000	-0.029	-0.442
-203.377	748.846	-0.108	-0.292
-202.363	-74.105	-0.078	0.028
-201.348	-200.000	-0.028	0.199
-200.333	1.225	0.310	0.223
-199.319	-200.000	0.004	0.153
-198.304	-32.380	0.129	-0.072
-197.290	800.000	0.043	0.185
-196.275	-51.932	-0.493	-0.229
-195.260	626.313	-0.068	-0.171
-194.246	800.000	-0.042	0.165
-193.231	498.617	-0.101	0.232
-192.217	-155.066	-0.152	-0.010
-191.202	124.212	0.298	0.374
-190.187	293.290	0.075	-0.136
-189.173	-34.329	-0.194	-0.106
-188.158	-200.000	-0.009	-0.141
-187.144	-26.272	0.198	0.116
-186.129	237.867	0.128	-0.212
-185.114	115.045	0.099	-0.120
-184.100	-111.073	-0.149	-0.031
-183.085	-13.312	0.149	0.096
-182.071	99.045	-0.131	0.151
-181.056	-200.000	-0.010	-0.132
-180.042	36.462	-0.028	0.024
-179.027	-52.128	-0.391	0.181
-178.012	256.482	-0.017	0.029
-176.998	274.359	0.116	0.206
-175.983	68.371	-0.118	-0.120
-174.969	138.750	0.256	-0.335
-173.954	-200.000	0.029	0.156
-172.939	111.330	0.114	-0.137
-171.925	468.791	-0.032	0.073
-170.910	210.250	0.034	-0.054
-169.896	-144.769	0.216	-0.020
-168.881	38.448	0.236	0.210
-167.866	680.542	0.119	-0.310
-166.852	-86.568	-0.131	0.040
-165.837	144.263	0.063	-0.084
-164.823	-40.797	0.280	0.145
-163.808	335.874	0.094	-0.181
-162.793	-143.468	0.416	-0.040
-161.779	54.747	0.169	-0.162
-160.764	-68.789	0.124	0.048
-159.750	800.000	0.044	-0.177
-158.735	3.102	-0.041	0.029
-157.720	-128.120	0.163	0.023
-156.706	-200.000	-0.004	0.035
-155.691	106.722	-0.235	-0.278
-154.677	156.564	-0.200	0.276
-153.662	-200.000	0.023	0.150
-152.647	-8.263	0.075	0.050
-151.633	-146.942	0.163	-0.014
-150.618	-155.659	-0.260	-0.017
-149.604	440.534	0.043	0.093
-148.589	15.775	0.247	-0.194
-147.574	-200.000	0.029	-0.307
-146.560	-69.864	-0.309	0.118
-145.545	-96.713	0.447	-0.117
-144.531	8.807	-0.335	0.252
-143.516	-153.298	0.221	0.015
-142.502	69.007	-0.041	0.042
-141.487	-77.676	-0.137	0.047
-140.472	-200.000	0.003	-0.079
-139.458	-151.965	0.290	-0.021
-138.443	116.009	0.043	0.053
-137.429	35.315	-0.006	-0.005
-136.414	-159.082	0.305	0.017
-135.399	-200.000	-0.048	-0.344
-134.385	-200.000	-0.041	-0.234
-133.370	208.031	-0.008	-0.013
-132.356	-15.615	-0.091	-0.058
-131.341	-150.332	0.379	-0.029
-130.326	615.005	-0.059	0.149
-129.312	249.109	-0.037	0.062
-128.297	-194.354	0.126	0.001
-127.283	-22.733	0.014	0.009
-126.268	672.500	-0.116	0.299
-125.253	385.874	-0.107	-0.219
-124.239	425.201	0.054	-0.115
-123.224	486.027	0.059	-0.134
-122.210	52.417	-0.133	0.127
-121.195	563.000	-0.114	0.275
-120.180	7.323	-0.141	-0.105
-119.166	242.478	0.056	0.094
-118.151	74.128	-0.088	-0.092
-117.137	-118.815	-0.262	0.046
-116.122	471.878	0.097	-0.218
-115.107	-85.003	0.174	-0.054
-114.093	-61.825	0.119	0.050
-113.078	41.070	0.127	0.114
-112.064	-165.280	0.328	0.014
-111.049	-46.512	-0.217	0.106
-110.034	800.000	0.095	0.359
-109.020	-172.158	-0.492	-0.016
-108.005	800.000	0.073	-0.226
-106.991	-200.000	0.012	-0.205
-105.976	-163.730	0.245	-0.011
-104.962	-63.952	0.177	-0.072
-103.947	96.591	-0.158	0.180
-102.932	-85.694	0.282	0.087
-101.918	-81.591	-0.296	0.097
-100.903	142.231	-0.068	-0.089
-99.889	83.994	0.162	0.176
-98.874	-190.758	0.502	0.005
-97.859	800.000	-0.064	0.262
-96.845	19.454	-0.288	0.230
-95.830	286.669	0.123	-0.221
-94.816	-77.241	0.224	-0.078
-93.801	800.000	-0.038	0.156
-92.786	-200.000	-0.024	0.223
-91.772	-200.000	-0.005	-0.194
-90.757	-87.697	-0.207	0.062
-89.743	226.828	-0.123	-0.198
-88.728	-78.929	0.261	0.088
-87.713	-200.000	-0.002	0.273
-86.699	800.000	0.065	0.237
-85.684	-200.000	0.007	0.077
-84.670	38.072	0.038	-0.034
-83.655	66.545	-0.170	-0.172
-82.640	284.541	0.098	0.175
-81.626	369.732	0.205	0.413
-80.611	205.822	-0.076	-0.117
-79.597	-200.000	-0.082	0.474
-78.582	-87.635	0.279	0.084
-77.567	124.064	-0.218	-0.273
-76.553	44.028	0.285	0.260
-75.538	16.834	0.154	-0.121
-74.524	297.252	-0.083	0.151
-73.509	800.000	0.110	-0.334
-72.494	91.418	-0.162	-0.180
-71.480	-200.000	-0.024	0.106
-70.465	-54.220	-0.065	-0.029
-69.451	592.627	-0.029	0.071
-68.436	-200.000	-0.024	-0.232
-67.422	-71.296	0.217	0.081
-66.407	-99.193	0.203	0.051
-65.392	-16.850	-0.120	-0.075
-64.378	291.661	-0.183	-0.331
-63.363	454.387	-0.084	-0.186
-62.349	-151.804	0.214	-0.016
-61.334	23.055	-0.877	-0.715
-60.319	298.180	0.225	0.410
-59.305	439.572	-0.387	-0.841
-58.290	220.582	0.519	0.828
-57.276	800.000	0.637	1.767
-56.261	-200.000	89.030	498.696
-55.246	448.805	1400.768	3066.729
-54.232	145.519	2611.399	3474.787
-53.217	109.657	2230.803	2656.307
-52.203	46.073	1755.700	1614.792
-51.188	39.483	1561.309	1389.657
-50.173	36.994	1533.002	1347.141
-49.159	54.288	1579.544	1510.369
-48.144	58.103	1599.058	1555.894
-47.130	40.103	1556.691	1389.686
-46.115	36.776	1541.643	1352.993
-45.100	36.669	1538.213	1349.187
-44.086	36.606	1535.893	1346.658
-43.071	36.495	1534.118	1344.274
-42.057	36.442	1532.694	1342.608
-41.042	36.464	1531.264	1341.450
-40.027	36.531	1529.608	1340.411
-39.013	36.513	1528.494	1339.255
-37.998	36.471	1526.772	1337.407
-36.984	36.480	1525.546	1336.339
-35.969	36.438	1524.784	1335.330
-34.954	36.489	1523.024	1334.088
-33.940	36.402	1521.779	1332.347
-32.925	36.586	1520.021	1332.022
-31.911	36.544	1519.118	1330.888
-30.896	36.628	1517.317	1329.837
-29.881	36.666	1515.885	1328.787
-28.867	36.547	1515.248	1327.358
-27.852	36.558	1513.608	1325.948
-26.838	36.546	1511.612	1324.061
-25.823	36.558	1510.252	1322.901
-24.809	36.515	1508.758	1321.246
-23.794	36.611	1507.292	1320.567
-22.779	36.648	1505.970	1319.606
-21.765	36.589	1504.787	1318.115
-20.750	36.580	1503.706	1317.056
-19.736	36.607	1502.497	1316.128
-18.721	36.574	1501.984	1315.403
-17.706	36.481	1500.556	1313.465
-16.692	36.561	1498.954	1312.552
-15.677	36.556	1497.884	1311.530
-14.663	36.523	1497.407	1310.840
-13.648	36.445	1496.070	1309.089
-12.633	36.432	1494.944	1307.959
-11.619	36.466	1494.579	1307.825
-10.604	36.483	1493.480	1306.921
-9.590	36.466	1492.495	1305.895
-8.575	36.402	1492.194	1305.145
-7.560	36.448	1491.401	1304.708
-6.546	36.529	1489.946	1303.932
-5.531	36.437	1489.331	1302.725
-4.517	36.449	1488.397	1301.932
-3.502	36.568	1486.734	1301.229
-2.487	36.483	1486.057	1300.011
-1.473	36.497	1484.793	1298.953
-0.458	36.345	1483.985	1297.171
0.556	36.622	1474.875	1288.502
1.571	34.119	1448.453	1248.903
2.586	30.871	1387.361	1175.662
3.600	29.245	1304.313	1095.531
4.615	27.594	1256.093	1045.475
5.629	22.772	1196.174	969.108
6.644	11.587	1105.306	838.328
7.659	3.383	1060.769	763.945
8.673	2.146	1055.109	753.700
9.688	1.945	1051.886	750.342
10.702	1.716	1050.396	748.084
11.717	1.634	1048.671	746.387
12.731	5.019	1052.696	765.831
13.746	15.468	1067.521	828.356
14.761	23.748	1077.951	877.456
15.775	25.071	1079.718	885.355
16.790	25.360	1078.714	885.880
17.804	25.260	1077.748	884.516
18.819	25.028	1077.535	883.120
19.834	25.072	1076.718	882.590
20.848	25.256	1076.223	883.010
21.863	25.279	1075.964	882.832
22.877	25.274	1075.338	882.215
23.892	25.328	1074.631	881.824
24.907	25.222	1073.699	880.462
25.921	25.095	1073.516	879.610
26.936	25.212	1072.173	879.004
27.950	25.181	1071.329	878.083
28.965	25.195	1069.939	876.936
29.980	25.023	1068.581	874.903
30.994	25.081	1067.558	874.270
32.009	25.195	1067.144	874.411
33.023	25.411	1065.984	874.437
34.038	25.185	1064.963	872.423
35.053	25.015	1064.844	871.419
36.067	25.240	1063.527	871.357
37.082	25.312	1062.530	870.814
38.096	25.166	1062.704	870.170
39.111	25.388	1061.513	870.194
40.126	25.543	1059.826	869.485
41.140	25.503	1059.272	868.757
42.155	25.139	1057.835	865.748
43.169	24.741	1056.848	862.939
44.184	24.776	1055.706	862.100
45.199	24.911	1054.942	862.050
46.213	24.763	1053.811	860.337
47.228	24.713	1052.874	859.258
48.242	24.874	1052.353	859.531
49.257	25.116	1051.641	860.033
50.271	25.043	1050.995	859.081
51.286	25.317	1049.773	859.316
52.301	25.318	1049.194	858.770
53.315	25.157	1048.893	857.678
54.330	25.146	1047.888	856.727
55.344	25.242	1046.996	856.380
56.359	25.154	1046.288	855.307
57.374	25.211	1045.544	854.893
58.388	25.125	1044.280	853.376
59.403	24.904	1043.784	851.845
60.417	24.945	1043.155	851.448
61.432	24.814	1042.010	849.816
62.447	24.856	1041.161	849.250
63.461	24.956	1040.927	849.457
64.476	25.038	1039.851	848.891
65.490	24.966	1039.250	847.986
66.505	24.810	1038.562	846.614
67.520	24.992	1036.843	845.997
68.534	24.965	1036.940	845.874
69.549	24.811	1035.997	844.300
70.563	24.560	1034.317	841.673
71.578	24.258	1033.889	839.828
72.593	24.440	1032.786	839.715
73.607	24.304	1031.615	838.048
74.622	24.242	1031.191	837.340
75.636	24.661	1030.372	838.566
76.651	24.781	1029.539	838.376
77.666	24.686	1028.937	837.369
78.680	24.598	1027.646	835.834
79.695	24.559	1027.110	835.141
80.709	24.513	1026.590	834.426
81.724	24.817	1025.616	834.979
82.739	24.816	1024.788	834.227
83.753	24.791	1023.921	833.331
84.768	25.082	1023.778	834.496
85.782	25.364	1022.897	835.018
86.797	25.505	1022.285	835.101
87.812	25.495	1021.528	834.360
88.826	25.154	1020.814	832.123
89.841	25.196	1019.710	831.340
90.855	25.444	1018.958	831.803
91.870	25.512	1018.339	831.538
92.884	25.550	1016.965	830.522
93.899	25.290	1016.702	829.030
94.914	25.155	1015.691	827.512
95.928	25.331	1015.002	827.689
96.943	25.399	1013.933	827.057
97.957	25.010	1012.939	824.380
98.972	24.842	1011.476	822.347
99.987	24.761	1010.306	820.951
101.001	24.691	1010.073	820.369
102.016	25.065	1010.002	821.951
103.030	25.079	1009.252	821.333
104.045	25.232	1007.473	820.514
105.060	24.848	1006.509	817.900
106.074	24.786	1004.960	816.287
107.089	24.771	1004.467	815.747
108.103	25.047	1004.184	816.700
109.118	25.083	1003.751	816.439
110.133	24.894	1002.194	814.243
111.147	24.875	1001.148	813.234
112.162	24.791	1000.112	811.940
113.176	24.506	999.082	809.739
114.191	24.764	997.945	809.914
115.206	24.834	997.231	809.580
116.220	24.550	996.173	807.368
117.235	24.336	995.178	805.522
118.249	24.512	994.971	806.079
119.264	24.500	994.190	805.320
120.279	24.397	993.415	804.157
121.293	24.486	992.254	803.544
122.308	24.617	991.997	803.858
123.322	24.584	991.338	803.105
124.337	24.647	989.869	802.124
125.352	24.202	988.927	799.296
126.366	23.991	987.008	796.728
127.381	23.676	985.416	793.965
128.395	24.213	985.756	796.571
129.410	24.933	985.390	799.418
130.424	24.974	984.724	798.989
131.439	25.115	983.221	798.327
132.454	25.056	982.632	797.519
133.468	25.112	981.744	796.973
134.483	24.832	981.286	795.287
135.497	24.975	980.481	795.198
136.512	25.076	980.140	795.303
137.527	25.287	979.025	795.264
138.541	25.287	978.354	794.647
139.556	25.369	977.236	794.028
140.570	25.199	976.920	792.953
141.585	25.220	976.219	792.406
142.600	25.429	975.309	792.518
143.614	25.499	974.033	791.721
144.629	25.407	973.470	790.786
145.643	25.622	972.957	791.248
146.658	25.521	971.849	789.834
147.673	25.359	970.366	787.846
148.687	25.131	969.477	786.057
149.702	25.106	968.491	785.078
150.716	25.099	967.036	783.799
151.731	24.997	966.140	782.556
152.746	25.096	965.779	782.628
153.760	25.215	965.019	782.462
154.775	25.459	964.289	782.864
155.789	25.516	963.563	782.454
156.804	25.332	963.005	781.128
157.819	25.386	961.633	780.183
158.833	25.368	960.827	779.379
159.848	25.612	960.259	779.909
160.862	25.607	959.240	778.990
161.877	25.356	958.272	777.049
162.892	25.327	957.477	776.211
163.906	25.357	956.800	775.724
164.921	25.457	956.061	775.489
165.935	25.368	954.727	773.954
166.950	25.298	953.845	772.867
167.964	25.356	953.016	772.376
168.979	25.352	951.766	771.280
169.994	25.235	950.607	769.769
171.008	25.114	949.819	768.544
172.023	25.313	949.445	769.027
173.037	25.405	948.320	768.439
174.052	25.423	946.909	767.308
175.067	25.032	946.191	764.987
176.081	25.058	945.588	764.544
177.096	25.119	944.616	763.952
178.110	25.253	943.697	763.709
179.125	25.001	942.503	761.603
180.140	24.831	941.429	759.950
181.154	24.575	941.273	758.666
182.169	24.844	941.007	759.528
183.183	24.974	940.611	759.691
184.198	25.330	940.224	760.822
185.213	25.306	939.380	759.970
186.227	25.354	938.315	759.245
187.242	25.269	937.954	758.526
188.256	25.551	937.101	758.959
189.271	25.357	936.637	757.697
190.286	25.344	935.978	757.042
191.300	25.390	934.927	756.320
192.315	24.700	933.601	752.276
193.329	23.986	931.903	747.844
194.344	23.659	930.305	745.121
195.359	24.121	931.042	747.588
196.373	25.051	931.589	751.862
197.388	25.345	931.301	752.795
198.402	25.233	930.370	751.509
199.417	25.298	929.723	751.190
200.432	25.358	929.596	751.273
201.446	25.222	928.821	750.012
202.461	24.918	928.032	748.038
203.475	25.059	927.453	748.096
204.490	24.591	926.037	744.936
205.504	23.378	924.030	738.205
206.519	23.664	924.036	739.337
207.534	24.750	924.047	743.799
208.548	24.856	923.593	743.806
209.563	25.313	923.161	745.291
210.577	25.196	922.648	744.325
211.592	24.945	921.724	742.473
212.607	25.234	921.974	743.807
213.621	25.491	921.213	744.191
214.636	25.341	920.807	743.177
215.650	25.446	920.001	742.895
216.665	25.434	919.427	742.317
217.680	25.323	918.948	741.406
218.694	25.363	918.707	741.312
219.709	25.194	917.668	739.713
220.723	24.730	916.649	736.911
221.738	25.037	916.366	737.883
222.753	25.130	916.131	738.013
223.767	25.201	915.013	737.337
224.782	25.161	914.438	736.646
225.796	25.455	913.618	737.126
226.811	25.665	912.765	737.233
227.826	25.283	911.766	734.797
228.840	24.344	910.078	729.534
229.855	24.235	909.552	728.603
230.869	24.493	909.448	729.506
231.884	24.158	908.351	727.196
232.899	24.163	908.139	726.981
233.913	25.059	908.287	730.693
234.928	25.138	907.490	730.306
235.942	25.046	907.210	729.645
236.957	25.084	906.389	729.073
237.972	24.758	905.106	726.654
238.986	24.682	905.067	726.247
240.001	24.641	904.415	725.493
241.015	24.862	903.453	725.552
242.030	24.945	902.852	725.345
243.045	25.105	902.536	725.673
244.059	25.176	902.144	725.582
245.074	25.327	901.579	725.672
246.088	25.206	901.000	724.652
247.103	24.886	899.992	722.490
248.117	25.027	899.378	722.500
249.132	25.478	899.441	724.304
250.147	25.843	899.237	725.547
251.161	25.970	898.697	725.556
252.176	26.104	898.031	725.494
253.190	26.147	897.395	725.090
254.205	26.147	897.061	724.755
255.220	26.327	896.626	725.062
256.234	26.266	895.958	724.213
257.249	26.196	895.549	723.539
258.263	26.006	895.029	722.292
259.278	26.060	893.685	721.360
260.293	25.981	894.035	721.263
261.307	26.280	893.016	721.571
262.322	26.220	892.016	720.460
263.336	26.023	891.654	719.316
264.351	25.602	890.338	716.514
265.366	24.420	887.985	709.859
266.380	24.097	887.603	708.206
267.395	24.839	888.062	711.460
268.409	25.738	887.768	714.735
269.424	25.680	887.431	714.169
270.439	25.797	887.076	714.285
271.453	25.853	886.736	714.169
272.468	25.897	885.778	713.510
273.482	26.064	885.384	713.791
274.497	26.012	885.416	713.545
275.512	25.978	883.755	712.011
276.526	25.509	882.308	708.934
277.541	25.608	882.314	709.266
278.555	25.856	882.040	709.958
279.570	25.780	881.474	709.142
280.585	25.601	880.770	707.808
281.599	25.632	880.822	707.908
282.614	25.908	879.734	708.056
283.628	25.472	878.180	705.034
284.643	25.007	877.656	702.727
285.657	25.389	877.766	704.252
286.672	25.246	877.404	703.338
287.687	24.720	876.009	700.100
288.701	25.126	876.155	701.743
289.716	25.566	875.634	702.984
290.730	25.234	874.816	700.970
291.745	25.113	874.255	699.986
292.760	25.071	872.755	698.559
293.774	25.085	872.099	698.024
294.789	25.816	872.984	701.521
295.803	26.461	873.072	704.040
296.818	26.561	872.406	703.829
297.833	26.559	871.854	703.314
298.847	26.300	870.763	701.368
299.862	25.847	869.869	698.828
300.876	26.151	869.055	699.290
301.891	26.404	869.239	700.356
302.906	26.457	868.537	699.935
303.920	26.132	867.606	697.866
304.935	25.910	867.011	696.467
305.949	26.331	866.600	697.701
306.964	26.465	866.083	697.739
307.979	26.223	865.498	696.275
308.993	26.296	864.932	696.039
310.008	26.323	864.886	696.044
311.022	26.578	864.510	696.661
312.037	26.469	863.667	695.501
313.052	26.114	863.452	693.902
314.066	26.210	862.237	693.232
315.081	25.450	860.600	688.942
316.095	24.619	859.665	684.950
317.110	25.175	859.631	686.991
318.125	26.178	859.792	690.897
319.139	25.761	858.797	688.443
320.154	24.617	857.122	682.672
321.168	24.123	856.254	680.036
322.183	24.627	856.461	682.064
323.197	25.582	857.053	686.122
324.212	25.877	856.412	686.671
325.227	26.071	856.220	687.193
326.241	26.314	855.735	687.669
327.256	26.225	855.339	686.954
328.270	25.985	854.466	685.277
329.285	25.919	854.024	684.613
330.300	25.721	853.155	683.102
331.314	25.629	852.391	682.084
332.329	25.619	851.825	681.532
333.343	26.004	851.674	682.810
334.358	26.335	851.193	683.615
335.373	26.312	850.561	682.961
336.387	26.287	850.133	682.461
337.402	26.593	849.803	683.290
338.416	26.723	849.480	683.462
339.431	26.857	848.689	683.269
340.446	26.597	848.655	682.202
341.460	26.908	848.312	683.035
342.475	27.027	847.276	682.587
343.489	26.642	846.744	680.654
344.504	26.668	845.996	680.089
345.519	26.935	845.846	680.913
346.533	27.195	845.150	681.266
347.548	27.070	845.066	680.667
348.562	27.176	844.650	680.671
349.577	27.048	843.960	679.576
350.592	27.141	842.761	678.899
351.606	26.937	842.512	677.875
352.621	27.065	842.003	677.883
353.635	26.964	841.410	676.970
354.650	26.795	841.461	676.318
355.665	26.513	840.395	674.352
356.679	25.506	838.133	668.731
357.694	25.347	837.930	667.919
358.708	26.087	837.999	670.668
359.723	26.050	836.907	669.598
360.738	26.275	836.923	670.386
361.752	26.685	837.108	671.994
362.767	26.743	836.819	671.920
363.781	27.020	836.615	672.722
364.796	27.313	836.658	673.784
365.810	27.342	836.242	673.494
366.825	27.418	835.883	673.429
367.840	27.357	835.789	673.067
368.854	27.460	834.530	672.372
369.869	26.902	833.988	669.817
370.883	26.780	832.863	668.407
371.898	26.774	832.486	668.021
372.913	26.713	831.663	667.078
373.927	26.750	831.097	666.700
374.942	26.911	830.933	667.102
375.956	27.132	829.916	667.039
376.971	27.021	829.958	666.604
377.986	27.189	829.447	666.754
379.000	27.412	828.484	666.737
380.015	27.290	828.484	666.231
381.029	27.370	827.580	665.736
382.044	27.178	827.200	664.670
383.059	27.372	826.805	665.002
384.073	27.271	826.279	664.150
385.088	27.389	825.681	664.043
386.102	27.378	825.072	663.454
387.117	27.231	824.123	662.097
388.132	27.094	823.292	660.872
389.146	26.888	823.270	660.049
390.161	26.265	822.238	656.899
391.175	26.310	821.894	656.729
392.190	26.899	821.885	658.802
393.205	27.031	821.279	658.736
394.219	26.022	819.608	653.685
395.234	24.287	817.353	645.552
396.248	23.612	815.909	641.916
397.263	24.613	816.929	646.283
398.278	26.403	818.243	653.741
399.292	27.023	818.138	655.840
400.307	26.685	817.602	654.131
401.321	26.544	817.122	653.181
402.336	26.662	816.972	653.429
403.350	27.009	816.773	654.464
404.365	27.418	816.743	655.856
405.380	27.770	816.377	656.772
406.394	28.190	815.869	657.815
407.409	28.171	815.671	657.529
408.423	28.145	815.388	657.148
409.438	28.074	814.473	656.097
410.453	28.007	814.427	655.762
411.467	28.058	814.086	655.614
412.482	28.135	812.901	654.875
413.496	28.098	812.630	654.466
414.511	28.213	812.263	654.525
415.526	28.149	812.160	654.154
416.540	28.201	811.837	654.024
417.555	28.029	811.219	652.853
418.569	27.887	809.885	651.215
419.584	27.723	809.478	650.247
420.599	27.879	809.339	650.634
421.613	102.724	1278.354	1426.818
422.628	88.499	1346.711	1426.930
