DTS Sentinel unit serial number:	SN413079Multiplexer serial number:	ORYXHardware model number:	OX4-SRSoftware version number:	ORYX F/W v4.00 Oryx Data Collector v3.7.2.0data status	okinstallation	princeton_trtdifferential loss correction	single-endedforward channel	channel 3reverse channel	N/Adate	2019/09/12time	19:50:04forward acquisition time	15.00reverse acquisition time	0.00gamma	496.2192k internal	0.2323k external	0.2323temperature offset calibration	1.0116default loss term (dB/km)	0.3790temperature slope calibration	1.0000multiplexer offset coefficient	1.0000multiplexer slope coefficient	1.0000fibre end	0.00T internal ref (°C)	31.94T ext. ref 1 (°C)	3.48T ext. ref 2 (°C)	26.57length (m)	temperature (°C)	Stokes	anti-Stokes-747.200	-83.413	-0.419	0.136
-746.185	50.467	0.358	-0.341
-745.171	98.891	-0.146	0.170
-744.156	-118.137	1.115	-0.201
-743.142	-200.000	0.050	0.384
-742.127	-200.000	0.072	0.496
-741.112	73.264	-0.538	0.568
-740.098	136.319	-0.336	-0.442
-739.083	210.449	-0.193	0.306
-738.069	-107.931	-0.198	-0.044
-737.054	133.572	-0.258	-0.337
-736.039	-57.875	-0.057	-0.025
-735.025	37.096	0.334	-0.299
-734.010	-1.041	-0.772	-0.552
-732.996	171.749	-0.141	-0.204
-731.981	603.054	0.055	-0.137
-730.966	-65.085	0.210	0.086
-729.952	188.896	-0.441	0.666
-728.937	-167.262	-0.820	0.033
-727.923	-200.000	0.061	0.715
-726.908	800.000	-0.188	-0.553
-725.894	-193.198	0.700	-0.006
-724.879	271.838	-0.211	-0.375
-723.864	800.000	-0.130	0.568
-722.850	80.000	0.817	0.886
-721.835	-82.766	-0.311	0.101
-720.821	67.991	0.208	-0.215
-719.806	-200.000	-0.113	1.005
-718.791	-200.000	-0.065	-0.419
-717.777	-53.722	0.170	0.079
-716.762	-104.940	0.442	-0.102
-715.748	-23.137	0.040	0.024
-714.733	-89.048	0.069	0.021
-713.718	-119.151	-0.530	-0.093
-712.704	800.000	0.020	-0.069
-711.689	-19.126	0.430	-0.270
-710.675	114.871	-0.180	-0.222
-709.660	114.600	0.428	0.526
-708.645	-138.772	-0.227	-0.025
-707.631	64.513	0.255	-0.259
-706.616	-107.839	0.634	0.139
-705.602	110.639	-0.230	0.279
-704.587	800.000	-0.224	-0.867
-703.572	-108.560	-0.617	0.134
-702.558	414.640	0.591	-1.269
-701.543	-88.612	-0.123	-0.037
-700.529	-200.000	-0.017	0.317
-699.514	50.592	-0.255	-0.243
-698.499	433.226	0.085	0.185
-697.485	-138.955	0.481	-0.053
-696.470	672.882	-0.337	-0.880
-695.456	183.222	-0.247	-0.368
-694.441	-72.118	-0.436	0.163
-693.426	-200.000	-0.003	-0.224
-692.412	-190.085	0.173	-0.002
-691.397	98.547	0.313	0.363
-690.383	451.749	0.013	0.029
-689.368	-200.000	0.014	-0.531
-688.354	-141.116	-0.514	-0.053
-687.339	304.743	-0.301	0.564
-686.324	33.508	0.029	-0.025
-685.310	156.572	0.258	0.359
-684.295	74.859	0.883	-0.937
-683.281	-200.000	0.080	-0.447
-682.266	-31.899	-0.424	-0.240
-681.251	-128.293	0.423	0.061
-680.237	239.376	-0.484	-0.812
-679.222	77.902	-0.401	0.431
-678.208	-139.293	0.456	0.049
-677.193	131.757	-0.465	-0.602
-676.178	-200.000	-0.067	-0.421
-675.164	-190.859	-0.282	0.003
-674.149	800.000	0.208	0.910
-673.135	81.253	-0.578	0.628
-672.120	367.985	0.323	0.657
-671.105	-200.000	-0.004	0.212
-670.091	-20.043	0.914	0.568
-669.076	314.737	-0.459	-0.870
-668.062	37.324	-0.390	-0.348
-667.047	-4.869	-0.380	-0.264
-666.032	-123.680	0.909	-0.145
-665.018	59.516	0.354	0.352
-664.003	-138.816	-0.574	0.063
-662.989	-75.311	-0.613	-0.220
-661.974	800.000	0.405	-1.253
-660.959	214.037	0.442	-0.704
-659.945	800.000	0.104	-0.441
-658.930	-110.177	1.031	0.216
-657.916	-44.426	0.263	-0.133
-656.901	5.495	-0.838	0.623
-655.886	12.538	-0.421	-0.327
-654.872	-45.294	-0.125	0.062
-653.857	800.000	0.150	0.526
-652.843	800.000	-0.149	-0.476
-651.828	-80.234	0.650	-0.219
-650.814	-40.887	-0.571	-0.297
-649.799	-38.987	-0.775	-0.411
-648.784	-161.442	0.203	0.011
-647.770	-31.182	-0.279	0.158
-646.755	64.751	0.815	-0.828
-645.741	72.737	0.342	0.359
-644.726	585.119	-0.334	-0.825
-643.711	128.297	0.225	0.288
-642.697	-145.954	0.902	-0.080
-641.682	438.846	0.238	-0.523
-640.668	-50.281	0.569	0.270
-639.653	262.087	-0.116	0.201
-638.638	-162.544	-0.524	0.026
-637.624	-197.597	-0.637	-0.004
-636.609	800.000	-0.167	-0.503
-635.595	93.372	0.189	0.215
-634.580	139.114	0.205	0.271
-633.565	395.103	-0.213	0.446
-632.551	638.249	0.133	-0.340
-631.536	-18.764	0.580	0.363
-630.522	-54.638	-0.494	-0.224
-629.507	-21.091	-0.513	-0.316
-628.492	-66.571	-0.428	0.171
-627.478	732.886	0.178	-0.479
-626.463	112.209	-0.215	-0.261
-625.449	-102.196	0.538	-0.130
-624.434	-57.804	1.159	0.509
-623.419	10.015	0.792	0.605
-622.405	316.778	-0.083	-0.158
-621.390	-129.833	0.889	0.123
-620.376	800.000	0.044	0.142
-619.361	177.377	0.462	-0.676
-618.346	-29.982	0.275	0.158
-617.332	162.494	-0.234	0.330
-616.317	800.000	0.325	-1.058
-615.303	-25.589	-0.487	-0.289
-614.288	12.959	-0.030	0.024
-613.273	-4.860	0.594	-0.411
-612.259	800.000	0.072	-0.283
-611.244	-154.065	-0.195	-0.013
-610.230	93.950	-0.410	0.467
-609.215	467.082	-0.094	-0.211
-608.201	800.000	0.207	-0.747
-607.186	-57.417	-0.334	0.147
-606.171	-91.811	-0.504	-0.144
-605.157	-58.785	-0.519	-0.226
-604.142	97.443	-0.433	0.499
-603.128	-200.000	0.073	-0.460
-602.113	182.490	-0.147	0.218
-601.098	260.768	-0.312	0.542
-600.084	122.850	0.266	-0.334
-599.069	-135.465	-0.415	0.050
-598.055	-33.074	-0.240	0.133
-597.040	-77.671	0.242	-0.084
-596.025	-173.831	-0.411	0.012
-595.011	35.668	-0.654	0.577
-593.996	16.107	0.234	0.185
-592.982	-110.457	-0.625	-0.130
-591.967	101.699	0.479	-0.561
-590.952	-200.000	-0.138	0.647
-589.938	800.000	-0.180	0.532
-588.923	-200.000	-0.141	0.789
-587.909	-55.852	-0.305	0.137
-586.894	-200.000	0.042	-0.355
-585.879	-7.911	0.404	-0.274
-584.865	-57.402	-0.343	0.151
-583.850	176.428	-0.235	-0.342
-582.836	-70.056	-0.329	0.126
-581.821	30.665	0.382	0.328
-580.806	-46.604	-0.758	0.373
-579.792	800.000	0.134	-0.485
-578.777	-60.544	-0.247	-0.105
-577.763	-73.389	0.502	-0.184
-576.748	-200.000	0.074	0.482
-575.733	69.033	-0.226	0.234
-574.719	-83.915	-0.026	-0.008
-573.704	97.523	-0.330	0.380
-572.690	-200.000	-0.055	0.254
-571.675	-89.290	-0.125	0.037
-570.661	-200.000	0.013	0.336
-569.646	459.569	-0.036	-0.081
-568.631	-63.665	0.248	-0.102
-567.617	-200.000	-0.052	-0.705
-566.602	-58.686	0.068	0.029
-565.588	420.303	0.328	0.705
-564.573	-89.995	-1.145	-0.335
-563.558	800.000	0.151	0.480
-562.544	-23.666	-0.397	0.238
-561.529	-189.780	0.254	-0.003
-560.515	144.291	-0.107	-0.143
-559.500	221.291	-0.186	-0.300
-558.485	-8.531	-0.313	0.211
-557.471	-77.849	-0.786	-0.272
-556.456	557.086	0.149	-0.361
-555.442	550.614	0.045	0.107
-554.427	-136.279	-0.486	0.057
-553.412	71.879	0.253	-0.264
-552.398	-36.433	-0.321	0.173
-551.383	459.169	-0.184	0.410
-550.369	-157.671	0.260	-0.016
-549.354	27.404	0.639	0.539
-548.339	-200.000	0.005	0.946
-547.325	575.280	-0.635	-1.555
-546.310	-52.044	-0.693	0.323
-545.296	93.612	0.462	-0.525
-544.281	-92.293	-0.257	-0.072
-543.266	51.459	-0.732	0.697
-542.252	619.504	0.250	-0.630
-541.237	263.917	0.050	-0.087
-540.223	-41.953	0.042	-0.022
-539.208	-6.622	-0.154	0.105
-538.193	48.735	-0.047	0.044
-537.179	-200.000	0.270	0.001
-536.164	-200.000	0.025	0.144
-535.150	297.426	-0.270	-0.497
-534.135	-123.919	0.213	-0.034
-533.121	6.780	-0.464	-0.346
-532.106	201.617	-0.277	-0.428
-531.091	-84.115	0.507	-0.161
-530.077	87.019	0.275	-0.305
-529.062	174.344	-0.409	-0.592
-528.048	-200.000	0.019	0.339
-527.033	86.449	-0.217	0.240
-526.018	519.666	-0.252	0.592
-525.004	4.023	-0.402	-0.295
-523.989	-200.000	-0.094	0.780
-522.975	-200.000	0.004	-0.608
-521.960	70.789	0.376	-0.390
-520.945	200.446	-0.167	0.257
-519.931	642.470	-0.133	0.340
-518.916	-87.905	0.350	0.105
-517.902	-82.433	0.328	0.107
-516.887	57.964	0.275	0.270
-515.872	-142.101	0.203	0.020
-514.858	-34.186	0.323	-0.177
-513.843	-77.362	0.855	-0.297
-512.829	-55.696	-0.566	0.253
-511.814	5.916	0.442	-0.327
-510.799	-200.000	0.074	0.418
-509.785	-200.000	-0.036	-0.221
-508.770	9.133	-0.589	-0.445
-507.756	-117.082	0.833	-0.152
-506.741	115.579	-0.691	0.845
-505.726	-146.664	0.313	0.027
-504.712	800.000	-0.064	-0.186
-503.697	272.420	0.337	0.595
-502.683	-57.705	-0.832	-0.364
-501.668	-200.000	0.002	0.093
-500.653	-157.854	0.259	0.015
-499.639	17.062	-0.650	0.516
-498.624	5.333	-0.065	-0.048
-497.610	-24.866	0.375	0.223
-496.595	-69.888	0.532	-0.203
-495.581	-200.000	0.157	-1.039
-494.566	283.871	-0.400	-0.720
-493.551	800.000	-0.291	-0.823
-492.537	-160.611	-0.697	-0.037
-491.522	-68.515	0.570	-0.221
-490.508	201.390	0.190	-0.292
-489.493	-7.331	-0.727	-0.492
-488.478	-134.881	0.595	-0.072
-487.464	131.073	-0.314	0.403
-486.449	-200.000	0.022	-0.387
-485.435	447.483	0.258	-0.568
-484.420	-103.409	-0.727	0.171
-483.405	800.000	-0.153	0.434
-482.391	-76.246	-0.702	-0.247
-481.376	-200.000	-0.025	-0.473
-480.362	-87.413	0.359	-0.109
-479.347	124.764	0.503	-0.632
-478.332	-7.756	-0.530	0.358
-477.318	227.883	0.113	0.184
-476.303	63.495	-0.322	0.323
-475.289	-173.048	0.193	-0.006
-474.274	-123.275	0.990	0.158
-473.259	458.339	-0.078	0.173
-472.245	-88.735	-0.095	-0.028
-471.230	113.357	-0.211	0.255
-470.216	-200.000	-0.103	0.742
-469.201	739.967	-0.132	-0.354
-468.186	9.538	0.993	0.752
-467.172	-200.000	0.075	-0.560
-466.157	-12.331	-0.454	0.297
-465.143	800.000	0.102	-0.321
-464.128	-38.505	0.930	0.491
-463.113	-12.419	-0.620	0.404
-462.099	800.000	-0.163	0.583
-461.084	-62.413	-0.882	-0.366
-460.070	-200.000	0.032	0.415
-459.055	-72.121	-0.570	0.211
-458.040	-34.265	-0.241	0.132
-457.026	226.296	-0.432	-0.700
-456.011	92.842	0.220	0.248
-454.997	-200.000	0.013	-1.234
-453.982	100.685	0.210	-0.243
-452.968	232.690	0.248	0.407
-451.953	-200.000	0.003	-0.041
-450.938	489.084	-0.150	0.343
-449.924	800.000	-0.227	-0.817
-448.909	-150.851	0.748	-0.057
-447.895	-153.865	0.403	-0.027
-446.880	187.995	-0.542	-0.808
-445.865	112.226	-0.442	-0.533
-444.851	58.366	0.782	-0.766
-443.836	-99.831	-0.402	-0.100
-442.822	0.948	-0.269	-0.192
-441.807	384.106	0.427	0.878
-440.792	-158.681	0.318	0.018
-439.778	-165.317	0.253	0.011
-438.763	619.834	0.287	0.721
-437.749	-66.967	-0.681	-0.268
-436.734	800.000	-0.174	0.623
-435.719	800.000	0.227	0.789
-434.705	539.366	-0.558	1.324
-433.690	100.291	0.262	-0.303
-432.676	800.000	0.176	-0.500
-431.661	800.000	0.177	0.563
-430.646	423.152	0.237	-0.508
-429.632	108.781	0.187	0.223
-428.617	250.702	0.536	-0.909
-427.603	56.802	-0.268	0.260
-426.588	42.334	-0.806	-0.730
-425.573	71.391	-0.106	-0.109
-424.559	126.142	0.443	-0.558
-423.544	583.100	0.199	0.487
-422.530	49.983	-0.388	-0.365
-421.515	-9.357	0.450	-0.299
-420.500	-132.195	0.376	0.049
-419.486	205.282	-0.235	0.364
-418.471	226.834	-0.092	-0.149
-417.457	666.763	0.097	0.250
-416.442	-33.461	0.076	-0.042
-415.428	108.064	-0.159	-0.189
-414.413	318.595	-0.394	0.743
-413.398	192.971	0.065	0.098
-412.384	-60.613	0.258	-0.109
-411.369	392.885	-0.162	-0.335
-410.355	-56.517	-0.796	-0.352
-409.340	626.131	-0.115	-0.290
-408.325	-200.000	-0.010	0.185
-407.311	-200.000	0.033	0.189
-406.296	483.165	-0.151	-0.342
-405.282	-2.655	-0.844	0.589
-404.267	-34.384	0.571	-0.312
-403.252	29.595	0.680	0.576
-402.238	-200.000	0.102	0.730
-401.223	-90.724	0.068	-0.020
-400.209	800.000	0.186	0.577
-399.194	514.689	-0.131	-0.304
-398.179	24.237	-0.256	-0.210
-397.165	-105.998	-0.916	-0.205
-396.150	-129.924	0.432	0.059
-395.136	-8.370	0.690	0.462
-394.121	800.000	0.116	0.426
-393.106	800.000	0.173	0.578
-392.092	-20.898	0.236	-0.144
-391.077	44.697	0.160	0.146
-390.063	167.349	0.117	-0.165
-389.048	-20.544	0.267	-0.163
-388.033	43.640	0.203	0.185
-387.019	459.869	-0.159	-0.352
-386.004	445.906	-0.123	0.269
-384.990	-122.137	0.275	0.045
-383.975	353.113	0.142	-0.281
-382.960	37.145	0.550	-0.485
-381.946	-66.758	0.199	-0.078
-380.931	-36.520	-0.691	-0.371
-379.917	-200.000	0.052	-0.227
-378.902	-200.000	0.024	0.362
-377.888	-72.860	0.098	0.036
-376.873	-50.602	-0.253	0.118
-375.858	178.174	0.954	-1.386
-374.844	146.278	0.182	-0.244
-373.829	59.618	0.448	0.440
-372.815	270.856	0.200	0.351
-371.800	-106.306	0.934	-0.208
-370.785	-200.000	-0.017	-0.496
-369.771	79.804	-0.514	0.550
-368.756	82.053	-0.255	0.275
-367.742	-68.563	0.097	-0.037
-366.727	-42.454	-1.150	-0.583
-365.712	294.471	-0.191	-0.347
-364.698	49.766	0.779	-0.730
-363.683	37.778	-0.298	0.263
-362.669	65.390	0.246	-0.248
-361.654	-200.000	-0.039	-0.271
-360.639	-200.000	-0.116	0.986
-359.625	-31.972	0.660	0.368
-358.610	489.668	0.302	0.686
-357.596	800.000	-0.218	0.890
-356.581	-200.000	-0.093	-0.499
-355.566	486.544	0.335	0.760
-354.552	396.180	-0.072	0.150
-353.537	353.123	0.409	0.807
-352.523	131.007	-0.453	0.578
-351.508	211.669	0.606	-0.948
-350.493	-12.260	-0.222	-0.144
-349.479	-29.347	-0.386	0.219
-348.464	-150.580	0.922	0.070
-347.450	63.177	0.322	-0.321
-346.435	528.789	-0.162	0.379
-345.420	-48.982	0.503	-0.239
-344.406	800.000	0.345	0.974
-343.391	-41.746	0.520	0.265
-342.377	-163.601	-0.431	0.020
-341.362	-59.901	0.579	-0.246
-340.348	25.393	0.085	0.070
-339.333	56.503	-0.072	0.070
-338.318	21.760	-0.491	-0.398
-337.304	-85.649	-0.447	0.138
-336.289	-200.000	0.035	-0.257
-335.275	253.036	-0.331	-0.562
-334.260	-97.362	-0.364	0.094
-333.245	320.922	-0.136	0.257
-332.231	-115.649	-0.471	-0.088
-331.216	83.521	0.387	-0.419
-330.202	168.508	-0.163	-0.231
-329.187	-200.000	0.205	1.263
-328.172	-200.000	-0.000	-0.463
-327.158	-36.285	0.969	-0.519
-326.143	-114.067	-0.333	-0.064
-325.129	240.786	-0.296	-0.490
-324.114	-80.101	-0.242	0.081
-323.099	-4.845	0.264	0.181
-322.085	-89.890	0.799	0.232
-321.070	164.778	0.364	-0.510
-320.056	-76.593	-0.839	-0.293
-319.041	275.473	-0.251	0.443
-318.026	-121.947	-0.979	-0.160
-317.012	-113.254	-0.131	-0.026
-315.997	-40.508	0.507	0.262
-314.983	-164.630	-0.719	-0.032
-313.968	688.075	-0.226	-0.587
-312.953	88.821	0.400	-0.442
-311.939	-75.151	1.175	0.417
-310.924	16.805	0.404	-0.318
-309.910	46.987	-0.322	0.297
-308.895	-104.448	-0.329	-0.076
-307.880	75.469	-0.413	0.433
-306.866	-200.000	0.049	-0.746
-305.851	-70.970	-0.324	-0.121
-304.837	-26.313	0.359	-0.209
-303.822	-163.188	0.282	-0.013
-302.807	800.000	-0.156	0.607
-301.793	15.083	0.416	-0.323
-300.778	-200.000	-0.129	-0.734
-299.764	204.315	-0.265	-0.407
-298.749	-171.371	-0.853	-0.028
-297.735	28.018	0.381	-0.319
-296.720	-11.468	0.179	0.117
-295.705	1.685	-0.226	-0.162
-294.691	25.663	-0.202	-0.167
-293.676	-36.675	-0.601	-0.320
-292.662	-200.000	0.063	-0.439
-291.647	237.685	0.313	0.516
-290.632	-135.299	-0.740	0.088
-289.618	-164.570	-1.004	-0.045
-288.603	-200.000	-0.012	0.931
-287.589	-36.804	0.306	-0.163
-286.574	47.650	-0.941	0.871
-285.559	399.181	-0.167	-0.347
-284.545	39.023	-0.513	0.455
-283.530	-16.039	-0.408	0.257
-282.516	186.969	-0.323	-0.478
-281.501	-200.000	-0.057	-0.481
-280.486	250.238	-0.115	-0.193
-279.472	-143.719	0.430	0.040
-278.457	367.974	-0.369	0.739
-277.443	92.016	0.569	0.635
-276.428	-3.594	0.682	0.470
-275.413	-144.007	0.217	0.020
-274.399	34.600	-0.439	-0.381
-273.384	-200.000	-0.066	0.592
-272.370	-85.742	0.469	-0.144
-271.355	-10.515	-0.556	0.365
-270.340	-94.664	-0.220	0.059
-269.326	-200.000	0.014	-0.136
-268.311	-26.732	0.200	-0.116
-267.297	392.745	-0.156	0.322
-266.282	-69.983	-0.351	0.133
-265.267	-55.243	0.317	0.141
-264.253	-200.000	-0.071	-0.552
-263.238	-33.660	0.562	-0.307
-262.224	800.000	0.250	0.833
-261.209	-115.299	1.265	0.237
-260.195	800.000	0.224	-0.715
-259.180	-64.709	0.671	0.269
-258.165	800.000	-0.095	-0.278
-257.151	-200.000	0.021	0.293
-256.136	-200.000	0.116	0.791
-255.122	800.000	0.321	0.896
-254.107	236.414	0.254	0.416
-253.092	-116.434	-1.173	-0.215
-252.078	800.000	0.238	-0.779
-251.063	44.377	0.324	0.295
-250.049	-200.000	-0.026	0.171
-249.034	-200.000	0.023	-0.231
-248.019	533.906	-0.450	-1.055
-247.005	-114.501	0.185	-0.035
-245.990	-68.347	0.028	-0.011
-244.976	63.755	0.252	0.251
-243.961	800.000	-0.127	0.540
-242.946	-68.217	0.307	0.118
-241.932	-79.269	-0.700	0.235
-240.917	-200.000	0.033	0.333
-239.903	89.831	-0.278	-0.307
-238.888	755.307	0.065	0.173
-237.873	-102.227	0.355	0.084
-236.859	-93.160	-0.345	0.095
-235.844	278.609	-0.141	0.250
-234.830	-45.657	-0.600	-0.294
-233.815	222.846	0.255	0.407
-232.800	302.792	0.477	-0.874
-231.786	-148.334	0.658	0.054
-230.771	-200.000	-0.174	-0.838
-229.757	800.000	0.466	1.546
-228.742	-36.124	0.347	0.185
-227.727	-200.000	-0.039	-0.412
-226.713	204.582	0.181	-0.278
-225.698	-34.743	-0.460	-0.249
-224.684	78.783	-0.270	-0.286
-223.669	-200.000	0.007	-0.273
-222.655	30.842	-0.759	-0.643
-221.640	-200.000	-0.009	0.292
-220.625	-26.637	-0.481	-0.278
-219.611	-27.402	-0.847	0.487
-218.596	-25.304	-0.204	-0.120
-217.582	-200.000	0.000	-0.052
-216.567	-66.868	0.549	-0.215
-215.552	-200.000	0.017	0.245
-214.538	-50.127	0.473	0.222
-213.523	-200.000	0.026	-0.201
-212.509	-102.158	0.772	-0.184
-211.494	800.000	-0.015	0.048
-210.479	-200.000	0.025	-0.257
-209.465	-37.596	0.336	-0.177
-208.450	-135.567	-0.081	-0.009
-207.436	-200.000	-0.046	0.595
-206.421	-78.538	1.095	-0.371
-205.406	-76.609	0.605	-0.210
-204.392	5.007	-0.109	0.080
-203.377	55.616	0.285	0.273
-202.363	238.688	0.211	-0.347
-201.348	-24.447	-0.426	-0.251
-200.333	18.511	0.087	-0.069
-199.319	73.850	0.366	-0.380
-198.304	-91.414	0.296	-0.084
-197.290	-200.000	0.016	0.469
-196.275	325.329	-0.262	0.496
-195.260	71.714	-0.360	0.369
-194.246	-109.565	0.677	0.141
-193.231	-74.086	0.169	0.061
-192.217	50.670	-0.367	0.343
-191.202	-200.000	-0.024	-0.309
-190.187	-200.000	-0.016	0.603
-189.173	-8.252	0.368	-0.245
-188.158	29.935	-0.690	-0.581
-187.144	800.000	-0.400	-1.404
-186.129	-52.080	0.485	-0.223
-185.114	-9.414	-0.284	0.187
-184.100	-105.223	-0.098	0.022
-183.085	-200.000	-0.125	-0.714
-182.071	-21.634	0.379	0.228
-181.056	-43.023	-0.357	0.179
-180.042	-200.000	-0.054	0.268
-179.027	-200.000	-0.062	0.496
-178.012	800.000	-0.055	-0.174
-176.998	30.572	-0.594	0.502
-175.983	-71.005	-0.817	0.304
-174.969	-25.275	0.187	-0.109
-173.954	250.878	0.246	-0.413
-172.939	10.002	0.391	0.294
-171.925	-67.082	-0.283	-0.110
-170.910	-47.329	0.922	0.443
-169.896	32.595	0.445	0.380
-168.881	800.000	0.170	0.700
-167.866	-200.000	0.007	0.991
-166.852	-123.964	-0.454	-0.071
-165.837	-200.000	0.059	-0.827
-164.823	39.876	0.448	-0.397
-163.808	-200.000	0.089	0.778
-162.793	-19.751	-0.553	0.338
-161.779	800.000	-0.344	1.139
-160.764	-6.186	-0.209	0.141
-159.750	633.468	0.143	-0.357
-158.735	619.948	-0.120	-0.298
-157.720	298.648	0.282	0.512
-156.706	-147.104	0.759	-0.064
-155.691	124.883	-0.400	-0.497
-154.677	464.539	-0.185	0.408
-153.662	259.577	-0.133	-0.226
-152.647	21.895	0.677	-0.544
-151.633	44.853	0.432	-0.392
-150.618	423.789	-0.213	0.451
-149.604	-139.007	-0.077	0.008
-148.589	800.000	-0.287	1.093
-147.574	-21.183	-0.202	-0.122
-146.560	-43.009	-0.665	-0.333
-145.545	584.884	-0.267	0.647
-144.531	-128.473	-0.499	0.070
-143.516	51.023	0.905	-0.846
-142.502	211.529	0.375	-0.583
-141.487	170.407	0.207	-0.293
-140.472	-200.000	-0.081	-0.498
-139.458	800.000	0.137	0.399
-138.443	108.263	0.382	0.450
-137.429	716.678	0.187	-0.488
-136.414	-76.166	0.576	0.200
-135.399	-40.019	0.549	-0.282
-134.385	-90.832	0.351	0.100
-133.370	185.142	0.516	0.754
-132.356	-200.000	-0.007	0.644
-131.341	-188.561	-0.165	-0.002
-130.326	81.157	-0.447	-0.476
-129.312	-88.363	-0.154	-0.046
-128.297	704.503	-0.130	-0.338
-127.283	-104.222	-0.091	-0.021
-126.268	181.623	-0.106	-0.153
-125.253	-200.000	0.063	0.698
-124.239	6.617	-0.171	0.125
-123.224	-108.308	-0.282	0.060
-122.210	50.810	-0.234	0.218
-121.195	114.497	-0.157	-0.188
-120.180	-122.582	0.480	-0.077
-119.166	-175.411	-0.875	0.024
-118.151	364.139	-0.267	0.530
-117.137	800.000	0.080	-0.229
-116.122	-183.001	-0.649	-0.011
-115.107	-200.000	0.030	-0.397
-114.093	39.514	-0.428	0.378
-113.078	505.240	-0.229	-0.523
-112.064	203.306	-0.398	0.607
-111.049	-124.933	-0.647	-0.098
-110.034	-64.840	0.783	-0.312
-109.020	-117.864	0.447	0.079
-108.005	474.777	0.233	-0.517
-106.991	-200.000	0.071	-0.489
-105.976	800.000	0.109	0.297
-104.962	345.764	0.018	-0.036
-103.947	176.403	0.210	-0.300
-102.932	19.440	0.667	0.528
-101.918	-79.299	-0.275	0.092
-100.903	137.177	-0.182	0.234
-99.889	51.093	0.451	-0.421
-98.874	180.556	0.369	-0.533
-97.859	-200.000	-0.047	0.534
-96.845	-107.255	-0.315	0.068
-95.830	-16.072	-0.617	-0.386
-94.816	209.912	-0.304	0.469
-93.801	-84.559	-0.271	0.084
-92.786	-200.000	0.207	-1.172
-91.772	-55.608	0.304	-0.134
-90.757	-116.626	-0.657	-0.119
-89.743	-76.766	0.722	-0.249
-88.728	800.000	0.197	-0.561
-87.713	-200.000	0.057	-0.530
-86.699	-60.674	-0.659	0.275
-85.684	106.016	-0.453	-0.528
-84.670	433.553	-0.264	0.564
-83.655	-146.649	0.372	-0.032
-82.640	21.601	-0.437	0.350
-81.626	-89.652	0.219	-0.063
-80.611	111.674	0.003	-0.003
-79.597	108.271	-0.215	0.252
-78.582	-48.348	0.439	0.208
-77.567	-200.000	0.052	0.338
-76.553	-103.419	-0.228	-0.053
-75.538	-200.000	0.146	0.848
-74.524	-105.961	-0.878	-0.194
-73.509	29.413	0.083	-0.069
-72.494	800.000	0.288	1.168
-71.480	456.472	0.387	-0.845
-70.465	387.371	-0.396	-0.804
-69.451	-50.371	0.777	-0.361
-68.436	-154.449	-0.594	-0.039
-67.422	21.141	-0.245	0.196
-66.407	67.225	0.329	-0.330
-65.392	172.135	0.374	-0.529
-64.378	-95.648	-0.493	0.130
-63.363	13.896	0.534	0.408
-62.349	-200.000	0.035	-0.737
-61.334	-200.000	-0.264	-1.851
-60.319	215.115	0.774	1.206
-59.305	209.518	-0.412	-0.635
-58.290	260.623	1.218	2.070
-57.276	-200.000	0.098	1.254
-56.261	-200.000	96.284	604.734
-55.246	660.270	1361.943	3447.591
-54.232	202.930	2528.940	3841.399
-53.217	119.486	2137.686	2601.813
-52.203	42.916	1687.805	1512.408
-51.188	35.362	1502.787	1295.780
-50.173	32.581	1477.580	1255.493
-49.159	54.004	1530.515	1446.238
-48.144	54.395	1546.863	1464.283
-47.130	35.328	1505.383	1297.584
-46.115	32.195	1491.275	1264.327
-45.100	31.791	1488.079	1258.856
-44.086	32.126	1485.270	1258.673
-43.071	31.956	1483.365	1255.873
-42.057	31.756	1482.344	1253.618
-41.042	31.994	1479.539	1252.787
-40.027	32.043	1477.723	1251.528
-39.013	32.021	1477.248	1250.930
-37.998	31.835	1476.626	1249.115
-36.984	31.846	1475.345	1248.053
-35.969	31.987	1473.382	1247.279
-34.954	32.022	1472.118	1246.395
-33.940	32.053	1470.736	1245.378
-32.925	32.115	1469.903	1245.037
-31.911	31.995	1468.903	1243.344
-30.896	31.976	1466.960	1241.525
-29.881	32.327	1465.242	1242.338
-28.867	31.927	1464.041	1238.631
-27.852	32.057	1462.244	1237.918
-26.838	31.922	1461.353	1236.229
-25.823	31.952	1459.753	1235.023
-24.809	32.155	1458.110	1234.917
-23.794	31.922	1457.632	1232.933
-22.779	31.907	1456.207	1231.578
-21.765	32.064	1454.047	1230.731
-20.750	31.926	1454.071	1229.797
-19.736	32.050	1451.883	1228.712
-18.721	31.964	1451.111	1227.450
-17.706	31.858	1450.874	1226.502
-16.692	31.748	1449.487	1224.566
-15.677	31.731	1448.173	1223.295
-14.663	31.931	1446.989	1223.550
-13.648	31.869	1445.804	1222.098
-12.633	32.079	1444.906	1222.655
-11.619	31.655	1445.311	1220.186
-10.604	31.739	1443.907	1219.499
-9.590	31.617	1443.269	1218.122
-8.575	31.772	1441.420	1217.518
-7.560	32.077	1440.208	1218.428
-6.546	32.216	1439.064	1218.311
-5.531	31.783	1438.546	1215.017
-4.517	32.074	1437.226	1215.741
-3.502	31.854	1437.234	1214.271
-2.487	31.968	1434.942	1213.027
-1.473	31.858	1435.532	1212.762
-0.458	31.704	1434.113	1210.525
0.556	33.254	1424.544	1200.307
1.571	29.893	1399.888	1158.433
2.586	26.384	1340.727	1088.298
3.600	24.739	1261.114	1014.263
4.615	23.308	1215.220	969.443
5.629	20.241	1159.191	908.623
6.644	11.618	1074.979	800.474
7.659	4.755	1035.202	738.321
8.673	3.619	1029.666	728.948
9.688	3.281	1025.566	724.392
10.702	3.484	1022.979	723.450
11.717	3.536	1022.957	723.614
12.731	6.230	1025.536	738.031
13.746	15.157	1038.752	789.732
14.761	22.590	1047.915	831.848
15.775	24.324	1048.931	840.761
16.790	24.211	1047.450	838.970
17.804	23.869	1046.397	836.444
18.819	23.320	1046.243	833.661
19.834	23.204	1044.928	831.995
20.848	23.427	1043.841	832.101
21.863	23.262	1043.071	830.642
22.877	23.555	1043.056	831.928
23.892	23.305	1042.237	830.030
24.907	23.224	1041.152	828.714
25.921	23.202	1040.498	828.017
26.936	23.332	1038.657	827.085
27.950	23.127	1038.323	825.791
28.965	23.347	1037.091	825.763
29.980	22.801	1035.880	822.185
30.994	23.164	1034.194	822.460
32.009	23.255	1034.968	823.426
33.023	23.138	1033.095	821.320
34.038	22.982	1033.866	821.136
35.053	23.365	1031.849	821.236
36.067	22.973	1030.625	818.373
37.082	23.008	1030.449	818.327
38.096	22.867	1030.434	817.589
39.111	23.000	1029.640	817.500
40.126	23.426	1027.950	818.055
41.140	23.075	1026.712	815.377
42.155	22.509	1026.968	812.899
43.169	22.419	1025.066	810.904
44.184	22.482	1023.550	809.924
45.199	22.520	1022.643	809.311
46.213	22.543	1020.967	808.015
47.228	22.282	1021.266	806.985
48.242	23.049	1020.097	809.502
49.257	22.767	1021.028	808.878
50.271	23.186	1020.096	809.988
51.286	23.247	1018.210	808.696
52.301	23.112	1018.813	808.487
53.315	23.474	1016.664	808.362
54.330	22.997	1016.552	806.026
55.344	23.003	1015.853	805.426
56.359	22.883	1015.239	804.322
57.374	23.106	1013.537	803.915
58.388	22.773	1013.909	802.623
59.403	22.909	1011.598	801.345
60.417	22.626	1011.149	799.632
61.432	22.726	1010.142	799.220
62.447	22.827	1009.527	799.119
63.461	22.285	1009.873	796.868
64.476	22.356	1008.393	795.948
65.490	22.336	1007.960	795.448
66.505	22.368	1006.072	794.030
67.520	22.241	1005.586	793.003
68.534	22.275	1006.245	793.605
69.549	22.567	1003.988	793.073
70.563	22.423	1003.797	792.202
71.578	22.428	1002.552	791.172
72.593	22.096	1000.726	788.174
73.607	21.889	999.864	786.495
74.622	21.717	999.171	785.111
75.636	21.821	999.215	785.542
76.651	21.858	998.539	785.106
77.666	22.134	997.093	785.135
78.680	22.348	995.661	784.888
79.695	22.070	996.565	784.294
80.709	22.190	995.657	784.045
81.724	22.413	994.810	784.302
82.739	22.045	995.385	783.046
83.753	22.330	993.607	782.847
84.768	23.130	992.551	785.495
85.782	23.380	993.134	786.998
86.797	23.293	992.843	786.313
87.812	23.861	990.843	787.174
88.826	23.509	991.791	786.296
89.841	23.236	989.943	783.554
90.855	23.701	988.259	784.207
91.870	23.663	988.773	784.376
92.884	23.408	988.655	783.090
93.899	23.274	987.623	781.610
94.914	23.376	985.754	780.512
95.928	23.410	986.175	780.927
96.943	23.182	984.940	778.876
97.957	23.032	983.720	777.184
98.972	23.479	982.023	777.732
99.987	23.079	982.212	776.059
101.001	23.426	981.316	776.803
102.016	23.127	980.319	774.636
103.030	23.362	979.094	774.628
104.045	23.444	978.313	774.300
105.060	23.239	978.640	773.592
106.074	23.128	976.693	771.505
107.089	22.893	976.025	769.881
108.103	22.979	974.616	769.077
109.118	22.817	974.054	767.862
110.133	22.405	972.540	764.808
111.147	22.398	971.405	763.819
112.162	22.306	970.745	762.836
113.176	22.244	970.191	762.063
114.191	22.502	968.423	761.721
115.206	22.543	968.609	761.977
116.220	22.402	968.017	760.834
117.235	22.555	966.642	760.348
118.249	22.323	966.050	758.813
119.264	22.239	965.085	757.627
120.279	22.323	963.952	757.033
121.293	22.002	963.512	755.241
122.308	21.994	962.125	754.052
123.322	22.145	960.904	753.675
124.337	21.943	959.803	751.881
125.352	21.941	958.877	751.078
126.366	21.854	958.155	750.077
127.381	21.467	957.958	748.199
128.395	21.691	957.054	748.383
129.410	22.259	955.129	749.233
130.424	22.489	954.576	749.711
131.439	22.427	953.944	748.885
132.454	22.475	953.726	748.854
133.468	22.319	954.186	748.482
134.483	22.782	952.996	749.451
135.497	22.381	951.626	746.607
136.512	22.484	951.112	746.576
137.527	22.675	950.095	746.520
138.541	22.534	949.078	745.059
139.556	22.526	949.129	745.000
140.570	22.639	948.072	744.578
141.585	23.011	946.716	745.018
142.600	22.999	947.808	745.758
143.614	23.277	946.120	745.534
144.629	23.324	945.941	745.525
145.643	23.535	945.191	745.758
146.658	23.243	944.505	743.922
147.673	23.441	943.234	743.686
148.687	22.919	940.994	739.671
149.702	23.200	940.010	740.006
150.716	23.040	938.959	738.445
151.731	22.903	938.190	737.201
152.746	22.713	938.174	736.330
153.760	22.904	937.100	736.221
154.775	22.986	935.486	735.227
155.789	23.093	935.837	735.885
156.804	23.087	934.976	735.116
157.819	23.190	934.233	734.895
158.833	23.232	933.187	734.183
159.848	22.957	933.298	733.064
160.862	23.628	932.277	734.976
161.877	23.333	931.502	733.078
162.892	22.827	930.544	730.169
163.906	22.801	929.928	729.513
164.921	22.613	927.830	727.026
165.935	22.698	927.552	727.097
166.950	22.983	926.343	727.255
167.964	22.815	925.504	725.843
168.979	22.582	925.751	725.014
169.994	23.182	923.709	725.812
171.008	22.869	922.831	723.776
172.023	22.909	921.790	723.059
173.037	23.231	921.684	724.228
174.052	23.501	921.904	725.442
175.067	23.203	920.678	723.196
176.081	23.327	918.654	722.047
177.096	22.802	917.602	719.019
178.110	21.935	918.027	715.754
179.125	22.246	916.670	715.899
180.140	22.480	916.052	716.307
181.154	22.475	914.734	715.190
182.169	22.573	915.680	716.264
183.183	22.881	914.604	716.610
184.198	22.947	915.127	717.226
185.213	23.202	913.800	717.156
186.227	22.931	913.346	715.636
187.242	23.155	912.348	715.700
188.256	23.428	911.435	716.021
189.271	23.237	911.784	715.461
190.286	23.221	910.622	714.421
191.300	23.310	909.641	713.948
192.315	22.471	908.667	709.741
193.329	22.224	908.243	708.352
194.344	22.080	906.836	706.610
195.359	22.409	905.623	706.924
196.373	22.686	906.569	708.714
197.388	22.857	905.599	708.580
198.402	22.967	906.399	709.585
199.417	23.564	904.865	710.715
200.432	23.803	905.252	711.910
201.446	23.806	904.406	711.196
202.461	23.529	904.937	710.440
203.475	23.900	903.959	711.093
204.490	23.383	903.311	708.454
205.504	23.297	901.282	706.459
206.519	23.040	900.890	705.062
207.534	23.144	900.414	705.041
208.548	23.023	900.561	704.612
209.563	23.222	899.297	704.352
210.577	23.108	898.471	703.189
211.592	22.850	897.432	701.290
212.607	23.599	897.630	704.359
213.621	23.658	898.226	704.997
214.636	23.588	896.960	703.664
215.650	23.742	894.664	702.411
216.665	23.600	894.154	701.387
217.680	23.392	894.527	700.796
218.694	23.366	894.643	700.721
219.709	23.687	893.422	700.971
220.723	23.540	892.406	699.532
221.738	23.234	892.874	698.630
222.753	23.448	890.755	697.752
223.767	23.179	891.297	697.053
224.782	23.168	891.140	696.825
225.796	23.592	889.743	697.338
226.811	23.464	889.386	696.494
227.826	23.561	888.060	695.773
228.840	23.413	887.153	694.422
229.855	22.972	887.027	692.535
230.869	23.158	886.142	692.513
231.884	22.742	885.459	690.287
232.899	22.861	884.900	690.256
233.913	23.077	884.297	690.569
234.928	23.129	882.758	689.511
235.942	22.906	882.731	688.556
236.957	22.776	881.413	686.962
237.972	22.275	881.189	684.778
238.986	22.703	879.680	685.206
240.001	22.670	879.939	685.219
241.015	22.633	879.659	684.797
242.030	22.688	879.079	684.497
243.045	23.113	877.974	685.225
244.059	22.848	878.550	684.585
245.074	22.874	878.158	684.320
246.088	23.020	877.281	684.140
247.103	23.101	876.847	684.057
248.117	23.724	875.344	685.227
249.132	23.777	875.542	685.525
250.147	24.117	875.934	687.085
251.161	24.471	875.295	687.886
252.176	24.528	874.607	687.505
253.190	24.521	874.328	687.197
254.205	24.735	873.928	687.644
255.220	24.710	873.594	687.225
256.234	24.227	873.121	684.938
257.249	24.440	871.472	684.399
258.263	24.238	871.784	683.809
259.278	24.290	871.132	683.438
260.293	24.132	870.109	681.969
261.307	24.250	869.526	681.904
262.322	24.564	869.514	683.034
263.336	24.480	868.147	681.581
264.351	24.461	867.221	680.718
265.366	23.986	867.575	679.123
266.380	23.635	866.483	676.871
267.395	24.259	865.869	678.707
268.409	24.468	865.411	679.085
269.424	24.208	864.286	677.153
270.439	24.307	863.890	677.159
271.453	24.208	862.657	675.759
272.468	24.032	862.315	674.763
273.482	24.110	861.858	674.643
274.497	23.980	861.974	674.180
275.512	24.163	859.703	673.037
276.526	23.611	860.325	671.374
277.541	24.045	858.698	671.684
278.555	23.950	858.681	671.255
279.570	24.581	858.963	673.793
280.585	24.742	857.720	673.368
281.599	24.724	857.141	672.786
282.614	23.898	857.630	669.999
283.628	24.032	855.987	669.158
284.643	23.684	855.473	667.390
285.657	24.072	854.697	668.182
286.672	23.908	854.718	667.526
287.687	23.878	854.331	667.051
288.701	23.790	853.819	666.261
289.716	24.211	852.429	666.694
290.730	24.096	852.535	666.287
291.745	24.289	851.416	666.074
292.760	24.239	851.118	665.596
293.774	24.458	850.663	665.999
294.789	24.475	850.734	666.060
295.803	24.394	850.168	665.255
296.818	24.384	848.783	664.076
297.833	24.298	848.226	663.261
298.847	24.228	847.611	662.461
299.862	24.136	846.894	661.500
300.876	24.063	845.577	660.142
301.891	24.159	845.927	660.712
302.906	24.248	846.315	661.288
303.920	25.060	844.672	662.952
304.935	24.706	843.568	660.720
305.949	24.593	844.558	661.017
306.964	24.703	844.316	661.177
307.979	24.659	842.181	659.282
308.993	24.730	841.287	658.785
310.008	24.405	840.925	657.249
311.022	24.422	841.364	657.597
312.037	24.802	840.643	658.371
313.052	24.471	840.266	656.802
314.066	24.556	838.672	655.810
315.081	24.072	838.048	653.489
316.095	23.739	837.406	651.708
317.110	24.066	836.727	652.319
318.125	23.811	836.991	651.532
319.139	24.156	835.029	651.208
320.154	23.682	834.582	649.071
321.168	23.704	834.674	649.166
322.183	24.086	833.680	649.728
323.197	23.937	833.235	648.781
324.212	23.921	833.146	648.598
325.227	24.284	832.405	649.285
326.241	23.858	832.991	648.131
327.256	24.103	831.862	648.086
328.270	23.581	831.834	646.108
329.285	23.651	831.196	645.809
330.300	23.379	830.739	644.408
331.314	23.742	829.951	645.058
332.329	23.652	828.879	643.841
333.343	24.166	828.684	645.497
334.358	24.520	828.091	646.261
335.373	24.382	828.141	645.742
336.387	24.148	828.226	644.904
337.402	24.524	827.724	645.815
338.416	24.439	826.774	644.711
339.431	24.666	826.043	644.903
340.446	24.973	825.442	645.483
341.460	24.720	825.549	644.597
342.475	25.156	824.662	645.416
343.489	24.627	825.547	644.147
344.504	25.166	823.954	644.786
345.519	25.457	823.530	645.442
346.533	25.436	823.003	644.896
347.548	25.321	822.294	643.873
348.562	25.191	820.939	642.286
349.577	25.225	819.899	641.539
350.592	24.825	819.925	640.070
351.606	24.613	819.301	638.772
352.621	24.539	819.256	638.413
353.635	24.537	818.341	637.637
354.650	24.850	817.923	638.372
355.665	24.260	818.130	636.372
356.679	24.124	817.074	635.008
357.694	24.650	816.688	636.527
358.708	24.822	816.819	637.186
359.723	24.382	815.678	634.674
360.738	24.443	815.193	634.457
361.752	24.190	815.540	633.771
362.767	24.448	814.341	633.699
363.781	24.777	814.499	634.934
364.796	24.980	814.330	635.467
365.810	25.255	814.016	636.139
366.825	25.236	813.865	635.900
367.840	25.696	812.196	636.164
368.854	25.345	812.579	635.168
369.869	25.025	812.546	633.953
370.883	24.964	810.957	632.442
371.898	25.119	810.073	632.243
372.913	25.036	810.177	631.977
373.927	25.257	809.998	632.558
374.942	24.910	809.742	631.079
375.956	24.817	807.756	629.151
376.971	25.217	807.928	630.634
377.986	25.137	807.390	629.878
379.000	25.387	806.679	630.144
380.015	25.451	807.208	630.729
381.029	25.394	806.171	629.661
382.044	25.841	805.033	630.279
383.059	25.692	803.998	628.893
384.073	25.534	803.853	628.174
385.088	25.254	804.592	627.715
386.102	25.412	802.119	626.282
387.117	24.833	801.605	623.806
388.132	24.863	801.126	623.484
389.146	24.659	801.022	622.636
390.161	25.090	799.670	623.029
391.175	24.991	800.106	622.968
392.190	25.105	801.222	624.179
393.205	25.628	798.940	624.162
394.219	25.086	798.582	621.948
395.234	24.422	798.636	619.630
396.248	24.191	797.964	618.253
397.263	24.623	796.228	618.346
398.278	24.714	797.166	619.337
399.292	24.510	796.060	617.716
400.307	24.589	794.831	616.980
401.321	24.620	794.356	616.666
402.336	24.175	794.578	615.247
403.350	24.326	794.845	615.919
404.365	24.684	794.836	617.094
405.380	25.160	794.226	618.208
406.394	25.574	793.826	619.266
407.409	26.091	793.879	621.035
408.423	25.990	793.247	620.136
409.438	25.912	793.021	619.638
410.453	25.609	792.609	618.219
411.467	25.979	791.744	618.759
412.482	25.542	792.176	617.542
413.496	25.845	790.973	617.588
414.511	26.108	790.016	617.686
415.526	25.864	790.162	616.910
416.540	25.577	790.581	616.199
417.555	25.480	788.976	614.565
418.569	25.595	787.872	614.042
419.584	25.978	788.045	615.430
420.599	25.953	788.021	615.271
421.613	161.572	1369.695	1794.274
422.628	139.889	1454.440	1794.313
