DTS Sentinel unit serial number:	SN413079Multiplexer serial number:	ORYXHardware model number:	OX4-SRSoftware version number:	ORYX F/W v4.00 Oryx Data Collector v3.7.2.0data status	okinstallation	princeton_trtdifferential loss correction	single-endedforward channel	channel 3reverse channel	N/Adate	2019/09/13time	10:40:35forward acquisition time	60.00reverse acquisition time	0.00gamma	496.2192k internal	0.2320k external	0.2320temperature offset calibration	1.0144default loss term (dB/km)	0.3790temperature slope calibration	1.0000multiplexer offset coefficient	1.0000multiplexer slope coefficient	1.0000fibre end	0.00T internal ref (°C)	31.42T ext. ref 1 (°C)	4.58T ext. ref 2 (°C)	28.16length (m)	temperature (°C)	Stokes	anti-Stokes-747.200	-83.887	0.175	0.056
-746.185	-39.535	0.223	-0.118
-745.171	800.000	-0.009	-0.038
-744.156	-136.429	0.116	-0.014
-743.142	-169.469	0.204	-0.008
-742.127	146.079	-0.129	0.175
-741.112	284.319	-0.077	0.139
-740.098	-200.000	-0.017	0.196
-739.083	800.000	-0.061	0.230
-738.069	800.000	-0.090	0.305
-737.054	46.525	0.214	0.201
-736.039	-61.002	-0.196	-0.084
-735.025	-71.706	0.254	0.096
-734.010	149.587	0.075	-0.102
-732.996	-200.000	0.040	-0.333
-731.981	-200.000	0.005	-0.026
-730.966	800.000	-0.068	0.192
-729.952	-34.288	0.115	0.064
-728.937	-200.000	0.011	-0.157
-727.923	445.737	-0.057	-0.126
-726.908	-195.131	-0.314	0.002
-725.894	-72.282	-0.191	0.071
-724.879	-70.731	-0.294	-0.112
-723.864	-0.213	0.194	-0.140
-722.850	-200.000	-0.072	0.438
-721.835	-48.409	-0.403	-0.196
-720.821	-33.686	0.304	-0.169
-719.806	-124.670	-0.436	-0.068
-718.791	-167.764	-0.371	-0.015
-717.777	-58.524	-0.159	0.070
-716.762	-83.923	-0.249	-0.080
-715.748	-200.000	0.001	0.022
-714.733	800.000	-0.041	0.177
-713.718	35.922	0.039	-0.034
-712.704	258.439	-0.087	0.152
-711.689	-101.955	-0.171	0.042
-710.675	-84.055	0.163	-0.052
-709.660	52.050	0.216	-0.208
-708.645	-25.349	0.361	-0.216
-707.631	800.000	0.037	-0.157
-706.616	26.442	0.202	0.171
-705.602	-200.000	0.092	-0.475
-704.587	800.000	-0.128	-0.410
-703.572	800.000	0.026	0.090
-702.558	794.679	-0.092	0.256
-701.543	-49.539	-0.191	-0.092
-700.529	-19.279	-0.185	0.116
-699.514	800.000	-0.019	0.058
-698.499	162.563	-0.180	-0.254
-697.485	38.777	0.107	0.096
-696.470	341.788	-0.009	-0.017
-695.456	153.699	0.163	-0.225
-694.441	57.480	-0.127	-0.125
-693.426	-35.718	0.285	0.156
-692.412	-35.071	-0.148	-0.081
-691.397	-115.957	-0.226	0.043
-690.383	-24.896	-0.034	0.021
-689.368	86.597	0.113	-0.126
-688.354	800.000	-0.131	0.385
-687.339	-16.600	0.259	0.165
-686.324	301.555	0.123	0.230
-685.310	-26.837	0.246	-0.145
-684.295	-200.000	-0.017	-0.118
-683.281	346.145	-0.071	0.141
-682.266	-138.292	0.387	0.043
-681.251	51.760	-0.129	-0.124
-680.237	-21.659	0.185	0.114
-679.222	-38.297	0.179	0.096
-678.208	-200.000	-0.024	-0.218
-677.193	-96.065	-0.237	-0.063
-676.178	114.511	-0.245	0.301
-675.164	391.669	-0.090	-0.188
-674.149	121.461	0.170	0.213
-673.135	-20.822	-0.070	0.043
-672.120	-29.245	0.157	-0.090
-671.105	-200.000	0.023	0.156
-670.091	-200.000	0.011	-0.110
-669.076	-44.179	0.247	-0.125
-668.062	234.913	0.124	0.207
-667.047	-8.863	-0.253	-0.171
-666.032	-65.995	-0.276	0.111
-665.018	-58.982	-0.147	-0.064
-664.003	-62.828	-0.104	0.043
-662.989	-105.514	-0.213	0.049
-661.974	-116.237	0.240	0.045
-660.959	256.113	-0.119	0.206
-659.945	800.000	0.052	-0.186
-658.930	103.329	-0.098	-0.116
-657.916	-182.052	-0.469	0.009
-656.901	-87.711	0.300	-0.091
-655.886	781.630	0.096	-0.264
-654.872	105.427	0.054	-0.064
-653.857	800.000	0.072	-0.271
-652.843	800.000	-0.101	0.367
-651.828	393.423	-0.074	0.156
-650.814	800.000	-0.040	-0.140
-649.799	-200.000	0.055	0.309
-648.784	-118.145	0.118	0.021
-647.770	-200.000	-0.007	-0.128
-646.755	-65.924	0.251	0.101
-645.741	61.973	-0.110	-0.111
-644.726	-40.245	-0.281	0.148
-643.711	-200.000	-0.016	0.076
-642.697	206.298	-0.024	0.038
-641.682	-120.294	-0.034	-0.006
-640.668	-22.513	-0.073	0.044
-639.653	-75.654	-0.346	0.124
-638.638	-32.097	-0.202	-0.114
-637.624	-200.000	0.025	0.241
-636.609	-83.524	-0.370	0.119
-635.595	800.000	-0.020	-0.065
-634.580	-200.000	0.050	-0.330
-633.565	0.388	-0.182	0.131
-632.551	-58.592	-0.269	-0.117
-631.536	800.000	-0.063	-0.279
-630.522	-200.000	-0.002	0.243
-629.507	800.000	-0.099	0.296
-628.492	-33.220	-0.197	0.110
-627.478	-41.085	-0.149	-0.077
-626.463	128.477	0.113	-0.144
-625.449	-73.666	-0.358	0.131
-624.434	-200.000	0.008	-0.071
-623.419	800.000	0.082	0.284
-622.405	23.902	0.176	0.146
-621.390	-153.514	0.251	-0.017
-620.376	-35.580	-0.115	-0.063
-619.361	800.000	-0.051	-0.205
-618.346	28.293	0.149	0.126
-617.332	-34.987	-0.248	-0.136
-616.317	-200.000	-0.001	-0.153
-615.303	486.566	0.161	0.369
-614.288	155.581	0.171	0.238
-613.273	-200.000	-0.002	0.171
-612.259	160.668	-0.175	0.246
-611.244	-102.302	-0.260	-0.063
-610.230	-78.834	-0.162	-0.055
-609.215	-200.000	-0.023	0.202
-608.201	-200.000	-0.013	0.082
-607.186	-23.260	-0.191	-0.116
-606.171	-94.175	0.240	0.066
-605.157	-33.250	-0.230	-0.128
-604.142	-16.432	-0.228	0.146
-603.128	-130.409	-0.104	0.014
-602.113	-102.589	-0.231	-0.056
-601.098	-48.583	0.289	0.140
-600.084	194.966	0.066	-0.101
-599.069	-77.637	-0.223	0.077
-598.055	-51.259	0.212	-0.100
-597.040	56.344	-0.195	-0.191
-596.025	-200.000	-0.008	-0.102
-595.011	-50.493	-0.140	0.066
-593.996	588.782	-0.055	0.136
-592.982	-5.799	-0.082	0.057
-591.967	-52.170	0.369	-0.172
-590.952	289.459	0.142	-0.259
-589.938	-144.427	0.201	0.019
-588.923	-109.575	-0.262	-0.055
-587.909	596.181	-0.115	-0.286
-586.894	-200.000	-0.050	-0.258
-585.879	20.825	-0.202	0.165
-584.865	18.556	-0.229	0.184
-583.850	197.514	0.107	-0.164
-582.836	2.366	0.077	0.056
-581.821	29.620	0.176	0.151
-580.806	228.619	0.054	-0.089
-579.792	-169.242	-0.122	-0.005
-578.777	-160.679	-0.094	-0.005
-577.763	120.805	-0.067	0.084
-576.748	-81.168	-0.395	-0.131
-575.733	276.823	-0.059	-0.106
-574.719	-31.744	0.176	0.099
-573.704	452.463	-0.132	0.294
-572.690	-23.832	-0.154	0.093
-571.675	-156.218	0.053	-0.003
-570.661	-8.661	-0.041	0.028
-569.646	-43.574	-0.045	0.023
-568.631	407.816	-0.133	0.282
-567.617	200.413	0.048	0.074
-566.602	-200.000	-0.000	-0.038
-565.588	-200.000	0.012	-0.069
-564.573	50.664	0.089	-0.084
-563.558	192.435	-0.091	0.137
-562.544	178.971	-0.132	-0.194
-561.529	-200.000	0.000	0.141
-560.515	-200.000	0.017	-0.284
-559.500	412.471	0.095	0.202
-558.485	800.000	-0.137	-0.414
-557.471	-33.115	-0.174	0.097
-556.456	352.218	0.099	-0.197
-555.442	-17.692	-0.221	-0.139
-554.427	2.366	-0.074	0.054
-553.412	345.888	-0.080	-0.157
-552.398	-144.644	-0.266	-0.025
-551.383	507.657	-0.045	0.104
-550.369	116.004	-0.191	-0.235
-549.354	169.222	-0.100	0.143
-548.339	463.677	-0.066	0.148
-547.325	-31.182	-0.102	0.058
-546.310	800.000	-0.078	0.336
-545.296	-200.000	0.008	0.146
-544.281	134.302	0.162	0.210
-543.266	405.766	-0.047	-0.098
-542.252	173.787	-0.195	-0.283
-541.237	-126.098	-0.163	-0.025
-540.223	171.149	-0.126	0.181
-539.208	800.000	-0.029	-0.123
-538.193	-9.300	0.170	-0.114
-537.179	189.880	0.122	-0.183
-536.164	579.750	-0.092	-0.226
-535.150	343.986	0.024	-0.048
-534.135	-200.000	0.006	0.104
-533.121	208.704	0.161	-0.253
-532.106	800.000	0.154	-0.495
-531.091	226.719	-0.030	-0.050
-530.077	-116.639	0.315	0.058
-529.062	-61.027	0.162	-0.069
-528.048	610.290	0.111	-0.279
-527.033	-74.113	0.193	0.070
-526.018	800.000	0.025	0.106
-525.004	-57.585	-0.356	-0.156
-523.989	-53.220	0.186	-0.086
-522.975	435.896	0.127	-0.277
-521.960	-200.000	-0.037	-0.263
-520.945	301.188	0.117	0.216
-519.931	-36.392	0.233	-0.126
-518.916	-2.967	-0.093	-0.065
-517.902	-34.441	-0.190	0.104
-516.887	-166.063	-0.387	0.017
-515.872	85.142	-0.137	-0.151
-514.858	800.000	0.043	-0.175
-513.843	-200.000	0.018	-0.214
-512.829	-200.000	-0.011	-0.246
-511.814	65.025	0.220	-0.223
-510.799	-72.255	0.095	-0.035
-509.785	800.000	0.074	-0.299
-508.770	800.000	0.073	0.276
-507.756	-87.368	0.236	0.072
-506.741	-130.657	-0.251	-0.034
-505.726	169.120	-0.149	-0.213
-504.712	117.825	-0.106	0.131
-503.697	-171.390	-0.181	-0.006
-502.683	191.297	-0.219	0.330
-501.668	-105.235	-0.048	0.011
-500.653	-200.000	0.043	-0.219
-499.639	-200.000	0.002	0.110
-498.624	278.225	-0.109	0.195
-497.610	73.716	0.128	0.134
-496.595	800.000	-0.173	0.482
-495.581	800.000	0.037	0.156
-494.566	171.187	0.144	-0.207
-493.551	50.584	-0.075	0.071
-492.537	759.453	-0.094	0.256
-491.522	496.270	-0.098	0.225
-490.508	58.564	-0.069	-0.067
-489.493	63.006	-0.231	-0.231
-488.478	-200.000	-0.007	-0.233
-487.464	-200.000	0.010	-0.139
-486.449	34.260	-0.034	-0.029
-485.435	800.000	0.033	0.125
-484.420	99.078	-0.124	0.143
-483.405	-48.662	-0.185	0.089
-482.391	-66.922	-0.041	0.016
-481.376	-200.000	0.047	0.244
-480.362	-200.000	0.026	-0.308
-479.347	-200.000	-0.012	-0.067
-478.332	150.480	-0.065	0.088
-477.318	-200.000	0.011	-0.341
-476.303	-133.477	0.198	-0.025
-475.289	369.847	-0.085	-0.173
-474.274	36.493	0.157	-0.139
-473.259	133.748	0.055	-0.071
-472.245	-71.502	0.102	0.038
-471.230	-59.995	-0.258	-0.110
-470.216	-200.000	0.023	0.135
-469.201	-60.878	0.180	0.076
-468.186	144.688	0.053	-0.071
-467.172	-106.765	-0.256	-0.057
-466.157	159.587	0.127	-0.176
-465.143	305.965	-0.041	-0.076
-464.128	-8.885	-0.040	-0.027
-463.113	330.052	0.129	-0.249
-462.099	-129.122	0.167	0.023
-461.084	-97.455	-0.127	-0.033
-460.070	487.711	0.077	0.176
-459.055	800.000	-0.089	-0.314
-458.040	-143.064	-0.193	-0.019
-457.026	476.041	-0.024	-0.055
-456.011	-68.213	0.103	-0.040
-454.997	-6.550	0.176	0.120
-453.982	-59.835	0.203	0.087
-452.968	73.867	-0.044	0.047
-451.953	800.000	0.115	-0.375
-450.938	383.412	-0.093	0.190
-449.924	-101.000	-0.213	-0.052
-448.909	-151.741	0.299	0.022
-447.895	-200.000	-0.049	0.234
-446.880	623.162	-0.025	0.063
-445.865	-155.817	-0.115	0.007
-444.851	800.000	-0.048	0.133
-443.836	-144.005	0.230	0.022
-442.822	-200.000	-0.055	-0.272
-441.807	240.975	0.135	-0.226
-440.792	401.700	0.071	0.149
-439.778	-177.478	-0.289	-0.007
-438.763	218.596	0.211	0.337
-437.749	-125.470	-0.198	-0.030
-436.734	-106.594	-0.124	0.028
-435.719	-82.962	0.074	-0.024
-434.705	800.000	-0.028	0.096
-433.690	50.976	0.168	-0.159
-432.676	-200.000	-0.030	-0.135
-431.661	800.000	0.048	-0.198
-430.646	800.000	-0.096	-0.311
-429.632	-66.131	0.137	-0.055
-428.617	212.981	-0.085	-0.134
-427.603	-200.000	0.050	0.388
-426.588	353.311	0.125	-0.248
-425.573	326.744	0.130	-0.249
-424.559	238.426	0.113	0.187
-423.544	101.818	-0.140	-0.163
-422.530	-200.000	-0.000	-0.114
-421.515	391.355	-0.039	0.081
-420.500	282.271	0.056	0.100
-419.486	312.287	0.117	-0.218
-418.471	-41.391	0.099	0.051
-417.457	17.088	-0.276	0.219
-416.442	-132.344	-0.248	0.032
-415.428	-200.000	0.025	-0.411
-414.413	-96.226	0.149	0.039
-413.398	7.450	0.103	0.077
-412.384	-200.000	-0.051	-0.311
-411.369	-200.000	-0.023	0.347
-410.355	91.211	-0.069	-0.077
-409.340	-200.000	0.047	0.269
-408.325	272.473	-0.287	0.505
-407.311	9.353	0.153	-0.116
-406.296	800.000	-0.026	0.089
-405.282	-80.241	-0.206	0.069
-404.267	313.152	-0.106	-0.199
-403.252	366.238	-0.103	-0.208
-402.238	-200.000	0.049	-0.259
-401.223	-136.181	0.182	0.021
-400.209	259.983	0.083	-0.143
-399.194	339.406	0.066	-0.128
-398.179	-200.000	-0.080	-0.353
-397.165	-30.950	0.239	-0.135
-396.150	-128.584	0.012	0.002
-395.136	-155.336	0.212	0.014
-394.121	370.078	-0.060	-0.121
-393.106	-99.809	-0.123	0.031
-392.092	627.230	-0.075	0.188
-391.077	-65.050	-0.195	0.079
-390.063	16.782	0.388	-0.306
-389.048	800.000	-0.058	-0.213
-388.033	800.000	-0.008	0.032
-387.019	-20.148	-0.210	0.129
-386.004	-151.926	0.329	-0.024
-384.990	-51.043	0.102	-0.048
-383.975	21.147	0.269	0.218
-382.960	20.398	-0.229	0.185
-381.946	723.037	0.104	0.275
-380.931	23.528	0.230	0.188
-379.917	-106.856	-0.130	0.029
-378.902	-137.794	-0.037	-0.004
-377.888	10.649	0.317	-0.241
-376.873	182.640	-0.108	0.159
-375.858	-200.000	0.006	0.120
-374.844	15.112	-0.108	-0.084
-373.829	160.509	-0.124	-0.173
-372.815	-200.000	0.003	-0.123
-371.800	167.730	0.237	0.336
-370.785	-41.050	-0.064	-0.033
-369.771	383.321	0.085	-0.174
-368.756	-91.117	0.117	0.034
-367.742	184.312	0.153	-0.226
-366.727	-30.956	-0.254	0.143
-365.712	562.436	-0.093	-0.225
-364.698	52.903	-0.042	0.040
-363.683	5.756	0.188	0.138
-362.669	-83.980	-0.338	-0.107
-361.654	-62.543	0.149	-0.062
-360.639	15.461	0.196	0.154
-359.625	13.305	-0.129	0.099
-358.610	800.000	-0.028	-0.078
-357.596	-147.901	-0.321	-0.027
-356.581	-200.000	-0.021	0.213
-355.566	-200.000	0.062	-0.324
-354.552	800.000	0.063	0.242
-353.537	800.000	-0.016	-0.051
-352.523	475.625	-0.065	-0.145
-351.508	-114.180	-0.296	0.057
-350.493	-174.694	0.165	0.005
-349.479	35.070	0.297	-0.259
-348.464	-200.000	0.062	-0.342
-347.450	-25.205	-0.249	-0.147
-346.435	191.960	0.156	-0.234
-345.420	-200.000	0.407	0.000
-344.406	-200.000	0.003	0.130
-343.391	-62.659	0.192	-0.079
-342.377	142.234	0.166	0.219
-341.362	-200.000	-0.017	-0.077
-340.348	220.793	-0.127	0.202
-339.333	800.000	0.019	-0.075
-338.318	-200.000	0.065	-0.507
-337.304	71.605	-0.137	0.142
-336.289	-200.000	-0.010	-0.129
-335.275	72.686	0.214	0.223
-334.260	7.317	-0.152	0.113
-333.245	-71.094	0.250	-0.093
-332.231	-35.520	0.090	-0.048
-331.216	-16.035	-0.214	-0.136
-330.202	-200.000	-0.016	-0.139
-329.187	127.600	-0.127	-0.160
-328.172	800.000	-0.026	-0.101
-327.158	104.164	0.138	0.162
-326.143	214.485	-0.048	0.076
-325.129	125.460	0.204	0.256
-324.114	-13.087	0.316	-0.205
-323.099	368.976	-0.064	-0.128
-322.085	-45.252	-0.359	0.178
-321.070	-91.756	-0.336	-0.095
-320.056	-200.000	-0.012	0.230
-319.041	207.541	0.112	0.174
-318.026	-200.000	-0.002	-0.091
-317.012	359.728	-0.088	0.175
-315.997	-134.995	0.101	0.012
-314.983	-78.405	0.236	0.080
-313.968	-55.368	0.159	-0.071
-312.953	-200.000	-0.013	0.214
-311.939	117.864	0.160	0.195
-310.924	754.929	0.102	0.273
-309.910	-200.000	0.008	0.054
-308.895	101.218	0.195	0.226
-307.880	21.445	0.129	0.105
-306.866	-200.000	-0.029	0.259
-305.851	38.530	-0.188	-0.167
-304.837	441.826	0.040	-0.086
-303.822	187.870	-0.168	0.250
-302.807	-200.000	0.068	0.307
-301.793	94.684	-0.088	-0.099
-300.778	163.006	-0.328	0.458
-299.764	149.831	-0.116	0.156
-298.749	-135.808	-0.225	-0.026
-297.735	45.575	-0.149	0.136
-296.720	109.027	0.077	-0.091
-295.705	212.345	0.067	-0.105
-294.691	-35.335	0.063	-0.034
-293.676	-200.000	-0.045	-0.216
-292.662	49.387	0.359	-0.335
-291.647	117.119	0.388	-0.473
-290.632	800.000	-0.068	0.219
-289.618	-16.838	-0.123	-0.077
-288.603	-200.000	-0.044	-0.310
-287.589	-100.345	0.176	-0.043
-286.574	-138.414	0.217	0.024
-285.559	0.116	-0.424	0.300
-284.545	-181.920	0.284	0.005
-283.530	-82.213	-0.227	-0.074
-282.516	-0.225	0.047	0.033
-281.501	-200.000	-0.022	0.125
-280.486	-86.306	0.365	0.111
-279.472	-200.000	0.015	0.104
-278.457	470.492	0.135	0.301
-277.443	-200.000	0.115	0.579
-276.428	-200.000	-0.009	-0.268
-275.413	-200.000	-0.036	-0.332
-274.399	-111.684	0.328	0.066
-273.384	12.107	-0.014	-0.010
-272.370	207.897	0.100	-0.155
-271.355	163.910	0.087	-0.122
-270.340	115.799	0.065	-0.078
-269.326	-200.000	0.031	-0.244
-268.311	139.513	-0.095	0.125
-267.297	334.093	-0.076	0.147
-266.282	800.000	0.131	0.403
-265.267	82.349	0.239	0.257
-264.253	-200.000	-0.064	-0.421
-263.238	206.457	-0.042	-0.065
-262.224	-146.973	0.465	0.040
-261.209	-200.000	0.004	-0.197
-260.195	-28.024	-0.172	0.099
-259.180	23.109	0.118	0.096
-258.165	-101.197	0.337	0.082
-257.151	-36.880	0.108	0.058
-256.136	-88.967	0.266	0.078
-255.122	-51.426	-0.202	0.094
-254.107	-200.000	-0.051	-0.290
-253.092	-103.668	0.030	0.007
-252.078	-41.838	0.112	-0.057
-251.063	800.000	-0.143	0.423
-250.049	-200.000	0.017	0.086
-249.034	-76.622	-0.214	0.075
-248.019	143.141	-0.141	0.186
-247.005	605.301	-0.010	-0.025
-245.990	11.648	0.172	-0.131
-244.976	-115.587	0.277	-0.052
-243.961	-193.012	-0.220	0.002
-242.946	-200.000	0.036	-0.324
-241.932	-110.357	-0.247	0.051
-240.917	800.000	0.021	0.068
-239.903	-200.000	0.075	-0.426
-238.888	800.000	0.041	-0.119
-237.873	-12.403	0.260	0.169
-236.859	104.451	0.277	0.324
-235.844	-19.737	0.417	0.256
-234.830	-76.831	0.206	-0.071
-233.815	95.262	0.145	-0.163
-232.800	73.811	0.227	-0.236
-231.786	-200.000	0.026	-0.232
-230.771	54.751	0.132	-0.126
-229.757	51.506	0.155	-0.146
-228.742	154.911	0.039	0.053
-227.727	760.352	0.048	-0.128
-226.713	773.046	0.048	-0.129
-225.698	800.000	-0.021	0.069
-224.684	402.666	-0.148	-0.309
-223.669	418.791	0.106	0.225
-222.655	-133.396	0.144	0.018
-221.640	-200.000	-0.032	0.157
-220.625	1.079	-0.162	-0.115
-219.611	800.000	-0.106	0.300
-218.596	781.536	0.073	0.197
-217.582	14.398	-0.236	0.182
-216.567	-27.060	0.197	-0.114
-215.552	486.984	-0.075	0.170
-214.538	-72.977	0.090	0.033
-213.523	-145.151	0.414	0.037
-212.509	-53.587	-0.096	0.043
-211.494	-125.111	0.214	0.033
-210.479	-165.763	0.304	-0.013
-209.465	-200.000	0.037	-0.188
-208.450	319.706	0.078	-0.146
-207.436	800.000	0.029	0.081
-206.421	-8.396	0.215	-0.143
-205.406	7.076	-0.068	0.050
-204.392	-118.739	0.308	-0.054
-203.377	-200.000	0.016	-0.124
-202.363	177.171	-0.057	-0.082
-201.348	-5.290	-0.105	0.072
-200.333	69.816	-0.165	-0.168
-199.319	47.077	0.205	0.189
-198.304	-78.828	0.208	0.070
-197.290	-80.640	-0.324	-0.107
-196.275	205.566	-0.193	-0.296
-195.260	800.000	-0.066	0.232
-194.246	-200.000	0.000	0.304
-193.231	495.855	0.028	0.063
-192.217	800.000	-0.085	0.343
-191.202	-178.190	0.145	-0.003
-190.187	5.444	-0.260	0.190
-189.173	-79.744	-0.280	0.093
-188.158	0.691	-0.145	-0.103
-187.144	-110.468	-0.170	0.035
-186.129	-200.000	-0.023	-0.196
-185.114	-111.038	0.121	0.025
-184.100	-200.000	-0.019	-0.293
-183.085	-200.000	-0.005	0.075
-182.071	473.608	0.052	-0.116
-181.056	-7.712	-0.109	-0.073
-180.042	425.671	-0.045	0.095
-179.027	-103.024	-0.270	-0.063
-178.012	32.923	0.144	0.123
-176.998	-46.139	0.217	-0.106
-175.983	-104.414	-0.282	-0.064
-174.969	52.243	0.250	-0.235
-173.954	-23.282	0.229	0.136
-172.939	184.053	-0.406	0.594
-171.925	-24.105	0.319	0.189
-170.910	184.884	-0.135	0.198
-169.896	406.461	-0.075	-0.158
-168.881	-200.000	0.028	0.264
-167.866	-200.000	0.026	0.130
-166.852	-165.606	-0.191	0.008
-165.837	120.034	-0.074	0.091
-164.823	-186.658	0.225	0.003
-163.808	-149.735	0.100	0.008
-162.793	-200.000	-0.010	0.198
-161.779	-64.596	0.143	0.057
-160.764	-200.000	0.035	0.183
-159.750	-200.000	0.010	0.190
-158.735	29.757	-0.268	0.226
-157.720	800.000	0.075	0.230
-156.706	99.063	-0.182	0.207
-155.691	-30.211	-0.179	0.101
-154.677	-30.158	0.087	-0.049
-153.662	-159.814	0.147	-0.008
-152.647	22.367	-0.266	-0.215
-151.633	800.000	-0.049	-0.137
-150.618	-200.000	-0.030	0.367
-149.604	-87.306	-0.411	-0.123
-148.589	-40.827	-0.134	0.069
-147.574	-130.156	-0.060	0.008
-146.560	28.600	0.023	0.019
-145.545	40.257	-0.306	0.272
-144.531	328.227	-0.137	-0.261
-143.516	134.577	0.140	-0.180
-142.502	396.115	-0.180	-0.371
-141.487	171.919	0.115	-0.164
-140.472	-47.402	-0.297	0.143
-139.458	800.000	0.059	-0.236
-138.443	-7.587	-0.040	-0.027
-137.429	34.736	0.040	0.035
-136.414	-153.382	0.438	-0.030
-135.399	-2.321	0.101	-0.070
-134.385	119.426	0.112	0.137
-133.370	-87.047	-0.418	0.126
-132.356	-76.966	0.184	-0.063
-131.341	-38.268	-0.287	-0.150
-130.326	-63.036	-0.226	0.092
-129.312	34.061	0.241	-0.207
-128.297	-51.164	0.268	-0.124
-127.283	-46.357	0.129	0.063
-126.268	464.018	-0.250	-0.552
-125.253	-200.000	-0.013	0.113
-124.239	480.951	-0.101	0.226
-123.224	146.015	0.101	-0.134
-122.210	-114.311	-0.223	0.042
-121.195	77.585	0.034	0.036
-120.180	-200.000	0.019	0.103
-119.166	-56.325	0.146	-0.064
-118.151	45.426	-0.141	0.128
-117.137	80.095	0.291	-0.309
-116.122	-200.000	0.013	0.273
-115.107	800.000	0.061	-0.195
-114.093	-30.160	0.252	-0.141
-113.078	-185.285	0.149	0.002
-112.064	59.382	-0.349	0.339
-111.049	225.164	-0.140	-0.224
-110.034	-36.182	0.190	-0.101
-109.020	-9.764	0.266	-0.175
-108.005	-107.299	-0.317	0.069
-106.991	-129.948	-0.677	-0.091
-105.976	-200.000	0.020	0.196
-104.962	80.386	0.106	-0.112
-103.947	18.896	0.056	0.044
-102.932	12.633	-0.216	-0.165
-101.918	800.000	0.112	-0.358
-100.903	-156.694	-0.527	-0.032
-99.889	-25.456	-0.109	0.064
-98.874	141.239	0.172	0.224
-97.859	-200.000	0.010	-0.181
-96.845	56.665	0.067	0.064
-95.830	800.000	-0.089	-0.332
-94.816	137.637	-0.077	0.099
-93.801	111.918	0.267	0.317
-92.786	27.800	0.272	0.226
-91.772	5.240	0.223	-0.162
-90.757	-46.696	0.468	-0.226
-89.743	-43.311	-0.338	-0.168
-88.728	-125.873	-0.201	0.030
-87.713	800.000	-0.069	0.206
-86.699	66.704	-0.093	0.094
-85.684	-125.163	-0.274	-0.041
-84.670	94.778	0.028	0.031
-83.655	402.838	-0.073	0.152
-82.640	-32.108	-0.372	-0.205
-81.626	125.808	0.084	-0.105
-80.611	-39.830	-0.164	-0.085
-79.597	-133.924	-0.301	0.037
-78.582	-200.000	0.038	-0.279
-77.567	800.000	0.030	-0.128
-76.553	122.745	-0.189	0.233
-75.538	42.815	0.158	0.142
-74.524	127.052	-0.062	0.077
-73.509	-200.000	-0.047	0.700
-72.494	-87.477	-0.359	0.107
-71.480	-200.000	0.382	-0.001
-70.465	37.413	-0.070	-0.061
-69.451	508.299	-0.068	-0.155
-68.436	20.842	-0.096	0.077
-67.422	22.184	-0.081	0.065
-66.407	26.804	-0.142	0.117
-65.392	-200.000	-0.018	-0.244
-64.378	-200.000	0.014	0.292
-63.363	800.000	0.059	0.218
-62.349	-200.000	-0.051	0.235
-61.334	144.678	-0.666	-0.877
-60.319	94.197	0.716	0.801
-59.305	-200.000	-0.114	-1.020
-58.290	355.975	0.600	1.176
-57.276	408.370	0.729	1.518
-56.261	-200.000	95.371	591.225
-55.246	632.726	1390.128	3467.522
-54.232	192.593	2585.454	3842.983
-53.217	119.287	2187.113	2664.115
-52.203	42.531	1722.797	1543.034
-51.188	34.650	1533.653	1319.389
-50.173	32.256	1507.427	1280.493
-49.159	51.648	1556.616	1456.912
-48.144	53.330	1573.858	1484.634
-47.130	34.836	1534.041	1320.798
-46.115	31.669	1519.562	1286.563
-45.100	31.428	1516.194	1282.004
-44.086	31.466	1513.951	1280.321
-43.071	31.425	1512.280	1278.573
-42.057	31.375	1510.236	1276.457
-41.042	31.438	1509.030	1275.813
-40.027	31.522	1507.228	1274.812
-39.013	31.442	1505.790	1273.000
-37.998	31.426	1504.537	1271.786
-36.984	31.458	1503.273	1270.885
-35.969	31.471	1501.793	1269.666
-34.954	31.311	1500.736	1267.641
-33.940	31.397	1499.375	1267.024
-32.925	31.469	1498.079	1266.363
-31.911	31.523	1496.588	1265.417
-30.896	31.498	1495.378	1264.175
-29.881	31.575	1493.563	1263.114
-28.867	31.536	1492.389	1261.808
-27.852	31.495	1491.359	1260.605
-26.838	31.488	1489.845	1259.230
-25.823	31.423	1488.468	1257.579
-24.809	31.409	1486.442	1255.724
-23.794	31.501	1484.593	1254.733
-22.779	31.455	1483.682	1253.603
-21.765	31.521	1482.481	1252.980
-20.750	31.399	1481.878	1251.600
-19.736	31.354	1480.588	1250.166
-18.721	31.438	1479.119	1249.435
-17.706	31.391	1478.150	1248.254
-16.692	31.416	1476.977	1247.381
-15.677	31.312	1476.212	1245.991
-14.663	31.339	1474.755	1244.892
-13.648	31.386	1474.262	1244.735
-12.633	31.393	1473.006	1243.675
-11.619	31.411	1472.660	1243.450
-10.604	31.435	1471.269	1242.388
-9.590	31.415	1470.579	1241.622
-8.575	31.391	1470.063	1240.980
-7.560	31.389	1468.704	1239.768
-6.546	31.379	1468.153	1239.192
-5.531	31.325	1467.140	1237.925
-4.517	31.318	1465.805	1236.704
-3.502	31.351	1464.714	1235.956
-2.487	31.301	1464.063	1235.024
-1.473	31.310	1463.095	1234.218
-0.458	31.331	1461.559	1233.012
0.556	33.490	1451.509	1222.903
1.571	30.500	1426.593	1182.809
2.586	26.815	1364.592	1108.818
3.600	25.090	1281.825	1031.556
4.615	23.215	1235.056	983.424
5.629	19.773	1178.492	920.017
6.644	11.925	1094.148	815.184
7.659	5.735	1054.196	755.583
8.673	4.870	1048.663	747.401
9.688	4.651	1045.685	744.164
10.702	4.353	1044.270	741.668
11.717	4.457	1042.157	740.600
12.731	7.434	1045.797	757.349
13.746	15.478	1056.046	803.337
14.761	21.345	1063.367	837.019
15.775	22.155	1063.606	841.011
16.790	21.499	1062.019	836.546
17.804	20.737	1059.421	830.787
18.819	19.831	1057.845	825.161
19.834	19.233	1057.054	821.620
20.848	19.167	1056.456	820.767
21.863	19.225	1055.392	820.145
22.877	19.075	1054.778	818.880
23.892	18.836	1053.704	816.840
24.907	18.898	1052.960	816.485
25.921	18.668	1052.642	815.074
26.936	18.612	1051.804	814.083
27.950	18.685	1050.830	813.604
28.965	18.648	1049.620	812.421
29.980	18.799	1048.425	812.140
30.994	18.977	1047.510	812.201
32.009	18.974	1046.973	811.696
33.023	19.158	1045.827	811.605
34.038	19.153	1045.237	811.052
35.053	19.100	1043.680	809.522
36.067	18.853	1043.306	807.996
37.082	18.750	1042.631	806.919
38.096	18.794	1041.474	806.160
39.111	19.011	1040.783	806.571
40.126	18.997	1040.327	806.083
41.140	18.871	1039.138	804.500
42.155	18.674	1037.642	802.348
43.169	18.576	1036.264	800.755
44.184	18.356	1035.702	799.225
45.199	18.412	1034.351	798.371
46.213	18.229	1033.582	796.854
47.228	18.534	1032.408	797.296
48.242	18.625	1031.890	797.249
49.257	18.914	1031.175	797.966
50.271	18.741	1030.191	796.332
51.286	18.945	1028.896	796.207
52.301	19.034	1028.300	796.089
53.315	18.798	1027.781	794.521
54.330	18.767	1026.883	793.616
55.344	18.532	1025.468	791.367
56.359	18.522	1024.712	790.668
57.374	18.591	1023.745	790.171
58.388	18.583	1022.772	789.310
59.403	18.414	1021.838	787.745
60.417	18.232	1021.526	786.598
61.432	18.438	1020.677	786.819
62.447	18.335	1020.151	785.870
63.461	18.356	1018.782	784.843
64.476	18.156	1018.363	783.535
65.490	18.235	1017.105	782.862
66.505	18.140	1016.414	781.826
67.520	18.233	1015.127	781.192
68.534	18.200	1014.563	780.537
69.549	18.224	1013.985	780.132
70.563	18.160	1013.551	779.437
71.578	18.193	1012.514	778.720
72.593	18.095	1011.289	777.262
73.607	17.896	1010.609	775.769
74.622	17.912	1009.395	774.840
75.636	17.957	1008.342	774.170
76.651	18.049	1008.072	774.308
77.666	18.022	1007.015	773.308
78.680	18.177	1006.362	773.440
79.695	18.167	1006.101	773.123
80.709	18.030	1005.768	772.181
81.724	18.194	1005.125	772.358
82.739	18.398	1004.070	772.400
83.753	18.392	1003.169	771.613
84.768	18.618	1002.941	772.386
85.782	18.911	1002.335	773.168
86.797	19.124	1001.838	773.673
87.812	19.103	1001.159	772.986
88.826	18.962	1000.153	771.507
89.841	18.956	998.848	770.407
90.855	19.046	998.201	770.242
91.870	19.043	997.691	769.766
92.884	19.224	996.653	769.708
93.899	19.057	996.475	768.754
94.914	18.922	995.918	767.654
95.928	19.227	994.534	767.878
96.943	19.189	993.928	767.177
97.957	19.092	992.934	765.909
98.972	18.964	992.192	764.701
99.987	18.851	991.652	763.712
101.001	19.020	990.897	763.815
102.016	19.012	990.194	763.169
103.030	18.912	989.032	761.763
104.045	18.941	988.198	761.181
105.060	19.038	987.214	760.785
106.074	18.971	986.157	759.608
107.089	18.614	985.354	757.346
108.103	18.318	984.268	755.138
109.118	18.402	982.953	754.432
110.133	18.305	982.217	753.374
111.147	18.334	981.311	752.742
112.162	18.165	980.508	751.315
113.176	18.330	979.561	751.250
114.191	18.330	979.056	750.793
115.206	18.531	977.997	750.795
116.220	18.522	977.237	750.105
117.235	18.364	976.216	748.565
118.249	18.338	975.908	748.149
119.264	18.341	974.556	747.062
120.279	18.248	973.820	746.024
121.293	18.134	972.832	744.708
122.308	18.162	972.081	744.186
123.322	17.968	971.558	742.878
124.337	18.118	970.121	742.366
125.352	18.137	968.666	741.269
126.366	17.946	968.248	740.055
127.381	18.074	966.921	739.527
128.395	17.950	966.371	738.508
129.410	18.120	964.805	737.980
130.424	18.220	964.099	737.802
131.439	18.262	963.201	737.233
132.454	18.236	963.029	736.922
133.468	18.587	961.921	737.518
134.483	18.500	961.518	736.774
135.497	18.433	961.007	736.028
136.512	18.397	960.525	735.438
137.527	18.363	960.117	734.916
138.541	18.392	959.201	734.274
139.556	18.512	958.488	734.175
140.570	18.519	957.629	733.481
141.585	18.652	957.028	733.527
142.600	18.780	956.302	733.452
143.614	18.849	956.134	733.554
144.629	18.936	955.290	733.211
145.643	19.205	954.124	733.399
146.658	19.008	953.723	732.184
147.673	18.884	952.271	730.478
148.687	18.584	951.538	728.580
149.702	18.535	950.379	727.417
150.716	18.399	949.332	725.977
151.731	18.465	948.490	725.549
152.746	18.481	947.793	725.020
153.760	18.589	947.138	724.910
154.775	18.577	946.389	724.220
155.789	18.823	945.447	724.474
156.804	18.738	945.168	723.837
157.819	18.717	944.278	723.004
158.833	18.699	944.252	722.845
159.848	19.022	943.188	723.325
160.862	19.125	942.817	723.410
161.877	18.984	941.767	721.947
162.892	18.810	940.618	720.274
163.906	18.496	939.504	718.040
164.921	18.388	939.218	717.304
165.935	18.373	937.929	716.195
166.950	18.619	936.389	715.983
167.964	18.600	936.509	715.932
168.979	18.673	935.231	715.195
169.994	18.617	933.928	713.905
171.008	18.504	933.102	712.737
172.023	18.694	932.272	712.829
173.037	18.752	931.903	712.727
174.052	18.938	931.515	713.139
175.067	18.887	930.608	712.169
176.081	18.636	929.365	710.115
177.096	18.479	928.069	708.414
178.110	18.364	927.681	707.582
179.125	18.519	927.071	707.694
180.140	18.558	926.276	707.183
181.154	18.633	925.606	706.919
182.169	18.790	924.904	706.967
183.183	19.009	924.540	707.527
184.198	19.060	923.950	707.223
185.213	19.045	923.357	706.643
186.227	19.021	922.722	705.999
187.242	19.076	922.559	706.037
188.256	19.120	922.042	705.759
189.271	19.124	921.214	705.080
190.286	19.282	920.493	705.108
191.300	19.038	919.289	703.127
192.315	18.734	918.022	700.857
193.329	18.316	917.361	698.585
194.344	18.310	916.586	697.910
195.359	18.558	916.231	698.587
196.373	18.769	915.901	699.131
197.388	18.799	915.995	699.262
198.402	18.981	915.396	699.487
199.417	19.231	914.608	699.837
200.432	19.303	914.592	700.056
201.446	19.493	913.988	700.304
202.461	19.453	914.053	700.127
203.475	19.460	913.455	699.636
204.490	19.492	912.796	699.198
205.504	19.215	911.560	697.068
206.519	19.028	910.604	695.522
207.534	19.147	909.494	695.093
208.548	19.135	908.613	694.310
209.563	19.091	908.098	693.678
210.577	19.081	907.696	693.269
211.592	19.359	906.615	693.499
212.607	19.337	906.430	693.210
213.621	19.562	906.329	693.975
214.636	19.497	905.594	693.087
215.650	19.355	904.925	691.945
216.665	19.512	903.907	691.736
217.680	19.338	904.096	691.122
218.694	19.493	903.532	691.248
219.709	19.446	903.560	691.022
220.723	19.515	902.755	690.621
221.738	19.598	901.725	690.105
222.753	19.541	900.879	689.169
223.767	19.512	900.264	688.519
224.782	19.493	899.159	687.539
225.796	19.684	898.777	687.947
226.811	19.733	898.047	687.522
227.826	19.638	897.569	686.717
228.840	19.467	896.732	685.337
229.855	19.417	896.050	684.554
230.869	19.354	895.248	683.633
231.884	19.301	894.745	682.978
232.899	19.428	893.725	682.642
233.913	19.240	893.407	681.595
234.928	19.215	892.547	680.780
235.942	19.112	891.748	679.706
236.957	19.227	890.632	679.245
237.972	19.200	890.123	678.690
238.986	19.237	889.876	678.589
240.001	19.103	889.403	677.642
241.015	19.258	888.397	677.422
242.030	19.144	887.945	676.571
243.045	19.365	887.328	676.911
244.059	19.457	886.833	676.832
245.074	19.468	886.476	676.545
246.088	19.497	885.908	676.164
247.103	19.414	885.603	675.547
248.117	19.672	884.744	675.840
249.132	19.844	884.427	676.209
250.147	20.044	883.974	676.585
251.161	20.295	883.312	676.997
252.176	20.417	882.971	677.152
253.190	20.285	882.494	676.213
254.205	20.283	882.258	675.964
255.220	20.320	881.443	675.423
256.234	20.297	880.362	674.448
257.249	20.409	879.846	674.427
258.263	20.269	879.359	673.450
259.278	20.317	878.969	673.279
260.293	20.415	878.060	672.904
261.307	20.509	877.350	672.660
262.322	20.576	876.725	672.383
263.336	20.622	876.575	672.385
264.351	20.606	875.574	671.497
265.366	20.645	875.492	671.524
266.380	20.512	874.814	670.431
267.395	20.550	873.880	669.805
268.409	20.444	873.039	668.694
269.424	20.303	872.185	667.438
270.439	20.360	871.847	667.339
271.453	20.326	871.140	666.606
272.468	20.196	869.998	665.176
273.482	20.212	869.716	664.964
274.497	20.099	869.194	664.073
275.512	20.287	867.988	663.809
276.526	20.216	867.447	663.065
277.541	20.344	866.653	662.891
278.555	20.197	866.568	662.203
279.570	20.434	865.945	662.575
280.585	20.548	865.769	662.815
281.599	20.601	865.322	662.617
282.614	20.478	864.434	661.411
283.628	20.419	863.693	660.561
284.643	20.271	863.113	659.495
285.657	20.363	862.491	659.313
286.672	20.433	861.826	659.009
287.687	20.405	861.413	658.529
288.701	20.506	860.980	658.524
289.716	20.243	860.594	657.173
290.730	20.453	859.519	657.088
291.745	20.522	858.960	656.865
292.760	20.401	858.494	655.993
293.774	20.573	857.855	656.097
294.789	20.762	857.564	656.529
295.803	20.736	856.831	655.811
296.818	20.566	856.788	655.080
297.833	20.376	855.715	653.486
298.847	20.391	854.881	652.849
299.862	20.594	854.171	653.010
300.876	20.657	853.513	652.685
301.891	20.532	853.392	652.068
302.906	20.738	852.424	652.039
303.920	20.727	852.553	652.042
304.935	20.803	851.796	651.691
305.949	21.143	850.729	652.086
306.964	21.101	850.268	651.517
307.979	20.873	849.370	649.923
308.993	20.831	849.117	649.514
310.008	21.070	848.308	649.729
311.022	21.070	848.219	649.602
312.037	20.898	847.687	648.496
313.052	20.784	847.098	647.563
314.066	20.617	846.117	646.137
315.081	20.540	844.936	644.892
316.095	20.584	844.528	644.685
317.110	20.512	844.362	644.237
318.125	20.519	843.634	643.652
319.139	20.511	842.920	643.018
320.154	20.475	842.782	642.724
321.168	20.524	841.961	642.220
322.183	20.625	841.524	642.203
323.197	20.698	841.110	642.101
324.212	20.798	840.285	641.781
325.227	20.600	839.964	640.750
326.241	20.673	839.799	640.838
327.256	20.648	838.960	640.049
328.270	20.619	838.187	639.297
329.285	20.625	837.791	638.958
330.300	20.439	837.629	638.097
331.314	20.533	836.791	637.747
332.329	20.485	836.245	637.099
333.343	20.837	835.474	637.744
334.358	20.837	835.304	637.556
335.373	20.869	834.605	637.085
336.387	21.087	833.864	637.257
337.402	21.175	833.297	637.091
338.416	21.122	833.343	636.877
339.431	21.126	832.834	636.444
340.446	21.368	832.051	636.670
341.460	21.376	831.623	636.314
342.475	21.376	830.920	635.722
343.489	21.462	830.608	635.741
344.504	21.643	830.428	636.203
345.519	21.595	829.930	635.593
346.533	21.641	829.508	635.379
347.548	21.724	828.635	634.956
348.562	21.344	828.040	633.065
349.577	21.183	827.238	631.813
350.592	21.164	826.709	631.285
351.606	21.039	826.110	630.321
352.621	21.018	825.541	629.754
353.635	20.947	825.332	629.284
354.650	20.955	825.059	629.049
355.665	21.138	824.607	629.308
356.679	21.254	824.294	629.433
357.694	21.139	824.089	628.807
358.708	21.366	822.943	628.691
359.723	21.500	822.285	628.616
360.738	21.403	821.949	627.955
361.752	21.297	821.547	627.212
362.767	21.341	821.239	627.076
363.781	21.355	820.941	626.844
364.796	21.585	820.498	627.274
365.810	21.684	820.060	627.241
366.825	21.967	819.664	627.893
367.840	21.863	819.595	627.414
368.854	21.985	819.027	627.360
369.869	21.815	818.610	626.377
370.883	21.643	817.602	624.936
371.898	21.566	817.248	624.336
372.913	21.804	816.650	624.673
373.927	21.832	816.071	624.275
374.942	21.875	815.242	623.737
375.956	21.631	814.983	622.617
376.971	21.831	814.172	622.651
377.986	21.970	813.617	622.665
379.000	21.920	813.490	622.336
380.015	22.052	812.689	622.135
381.029	22.285	812.065	622.427
382.044	22.010	811.902	621.275
383.059	22.006	811.138	620.620
384.073	22.044	810.534	620.237
385.088	22.202	810.143	620.443
386.102	21.762	809.222	618.129
387.117	21.741	808.560	617.494
388.132	21.644	808.117	616.761
389.146	21.777	807.393	616.622
390.161	21.643	807.623	616.273
391.175	21.793	806.814	616.125
392.190	22.065	806.786	617.008
393.205	22.035	805.951	616.207
394.219	21.832	805.615	615.185
395.234	21.987	804.874	615.109
396.248	21.707	804.418	613.725
397.263	21.463	803.860	612.389
398.278	21.506	803.402	612.139
399.292	21.445	803.146	611.675
400.307	21.477	802.574	611.297
401.321	21.410	802.181	610.710
402.336	21.577	801.557	610.763
403.350	21.754	801.356	611.175
404.365	21.961	800.948	611.527
405.380	21.992	800.503	611.243
406.394	22.172	799.856	611.322
407.409	22.213	800.096	611.594
408.423	22.238	799.387	611.085
409.438	22.414	799.002	611.347
410.453	22.500	798.670	611.339
411.467	22.625	797.816	611.063
412.482	22.443	797.796	610.363
413.496	22.486	797.259	610.048
414.511	22.604	797.188	610.346
415.526	22.519	796.802	609.704
416.540	22.521	796.589	609.493
417.555	22.355	796.193	608.563
418.569	22.431	795.199	608.012
419.584	22.362	794.903	607.494
420.599	22.436	794.579	607.445
421.613	162.572	1368.971	1795.608
422.628	141.043	1452.665	1795.709
