DTS Sentinel unit serial number:	SN413079Multiplexer serial number:	ORYXHardware model number:	OX4-SRSoftware version number:	ORYX F/W v4.00 Oryx Data Collector v3.7.2.0data status	okinstallation	princeton_trtdifferential loss correction	single-endedforward channel	channel 3reverse channel	N/Adate	2019/09/12time	16:30:11forward acquisition time	60.00reverse acquisition time	0.00gamma	496.2192k internal	0.2305k external	0.2305temperature offset calibration	1.0068default loss term (dB/km)	0.3790temperature slope calibration	1.0000multiplexer offset coefficient	1.0000multiplexer slope coefficient	1.0000fibre end	0.00T internal ref (°C)	37.31T ext. ref 1 (°C)	2.52T ext. ref 2 (°C)	29.83length (m)	temperature (°C)	Stokes	anti-Stokes-747.200	-200.000	0.019	0.120
-746.185	-200.000	-0.019	0.256
-745.171	7.649	-0.029	-0.022
-744.156	218.865	-0.166	0.270
-743.142	633.581	-0.079	0.205
-742.127	-200.000	0.002	0.140
-741.112	157.935	-0.207	-0.292
-740.098	-115.478	0.215	-0.041
-739.083	800.000	0.016	-0.071
-738.069	800.000	0.163	0.463
-737.054	142.121	-0.223	-0.301
-736.039	138.985	-0.106	-0.141
-735.025	51.581	0.256	0.248
-734.010	-118.671	-0.358	-0.064
-732.996	800.000	-0.116	-0.369
-731.981	-200.000	-0.006	0.210
-730.966	800.000	0.079	0.251
-729.952	240.673	-0.083	-0.141
-728.937	-82.269	-0.272	0.090
-727.923	-130.190	-0.126	-0.017
-726.908	-51.100	0.037	0.018
-725.894	-44.962	-0.061	0.031
-724.879	-134.156	-0.166	0.021
-723.864	143.370	-0.117	-0.159
-722.850	800.000	0.032	0.098
-721.835	-172.381	0.315	0.010
-720.821	-172.117	0.140	-0.005
-719.806	197.261	-0.300	0.465
-718.791	-129.145	-0.273	-0.039
-717.777	800.000	-0.052	-0.191
-716.762	-200.000	-0.009	0.190
-715.748	490.834	0.073	-0.170
-714.733	800.000	-0.027	0.101
-713.718	-200.000	0.017	-0.428
-712.704	-127.249	-0.212	-0.031
-711.689	41.804	0.236	-0.218
-710.675	154.655	0.136	-0.191
-709.660	-200.000	-0.075	0.394
-708.645	603.830	0.012	-0.031
-707.631	39.667	0.072	0.066
-706.616	6.984	-0.431	-0.327
-705.602	201.745	-0.053	0.082
-704.587	379.609	-0.133	0.277
-703.572	-112.021	-0.135	0.028
-702.558	180.586	0.057	0.085
-701.543	-200.000	0.024	-0.185
-700.529	-200.000	0.064	0.349
-699.514	-15.717	-0.155	0.101
-698.499	-40.897	0.412	0.217
-697.485	204.587	-0.089	-0.141
-696.470	340.035	0.065	-0.128
-695.456	-113.161	0.171	-0.034
-694.441	-200.000	0.029	-0.142
-693.426	445.745	0.154	-0.343
-692.412	101.616	0.295	-0.350
-691.397	170.042	-0.250	-0.363
-690.383	-200.000	0.044	-0.276
-689.368	-95.552	0.419	0.114
-688.354	-200.000	0.007	-0.203
-687.339	800.000	0.064	-0.212
-686.324	-200.000	-0.052	0.310
-685.310	235.868	0.165	-0.277
-684.295	800.000	0.067	-0.228
-683.281	-200.000	0.008	0.055
-682.266	800.000	-0.051	0.153
-681.251	213.531	0.070	0.112
-680.237	256.410	0.054	0.095
-679.222	-76.867	0.252	-0.090
-678.208	-200.000	0.050	-0.223
-677.193	648.657	0.078	0.203
-676.178	423.531	-0.122	0.266
-675.164	-94.794	-0.270	0.074
-674.149	-200.000	0.007	0.042
-673.135	181.235	0.059	0.088
-672.120	800.000	0.036	-0.131
-671.105	-90.728	0.252	-0.074
-670.091	-88.151	0.135	0.041
-669.076	-200.000	-0.025	0.246
-668.062	800.000	-0.071	0.305
-667.047	122.827	0.188	-0.239
-666.032	-100.788	0.474	0.118
-665.018	-200.000	0.027	0.215
-664.003	50.585	-0.192	0.184
-662.989	-200.000	0.061	-0.318
-661.974	800.000	-0.192	-0.668
-660.959	-80.731	0.181	0.061
-659.945	10.077	0.114	0.088
-658.930	-80.273	-0.253	-0.086
-657.916	-84.751	-0.138	-0.044
-656.901	173.652	-0.113	0.166
-655.886	-88.182	0.071	-0.022
-654.872	197.980	-0.091	-0.142
-653.857	-198.984	0.162	-0.001
-652.843	-54.476	-0.271	-0.124
-651.828	-200.000	0.009	0.047
-650.814	-200.000	-0.010	0.086
-649.799	67.868	0.154	0.160
-648.784	-63.838	0.249	-0.103
-647.770	472.356	0.063	-0.144
-646.755	70.573	-0.234	-0.245
-645.741	-74.341	0.150	-0.055
-644.726	-92.850	-0.190	-0.054
-643.711	9.462	0.274	-0.210
-642.697	77.587	0.080	0.086
-641.682	120.679	-0.183	-0.231
-640.668	800.000	0.024	0.103
-639.653	-139.292	-0.102	0.011
-638.638	-104.342	-0.060	-0.014
-637.624	800.000	0.065	0.215
-636.609	800.000	-0.082	-0.237
-635.595	800.000	0.023	-0.091
-634.580	-160.087	-0.310	-0.017
-633.565	46.299	-0.050	-0.047
-632.551	-110.564	-0.101	0.021
-631.536	-200.000	0.027	0.355
-630.522	-20.304	-0.113	0.071
-629.507	532.898	0.071	-0.171
-628.492	680.106	0.045	0.118
-627.478	-94.068	-0.121	0.034
-626.463	40.322	-0.197	-0.179
-625.449	-60.686	-0.172	0.074
-624.434	-200.000	0.375	-0.002
-623.419	800.000	0.107	0.301
-622.405	175.127	0.114	-0.167
-621.390	-125.717	0.299	0.046
-620.376	306.026	0.071	-0.134
-619.361	83.521	-0.135	-0.149
-618.346	294.668	-0.098	0.181
-617.332	-152.920	0.240	0.017
-616.317	-66.711	-0.157	-0.063
-615.303	-76.099	0.190	-0.068
-614.288	27.739	-0.275	-0.235
-613.273	-129.176	0.219	0.031
-612.259	470.917	0.066	-0.150
-611.244	457.965	-0.124	-0.278
-610.230	85.912	0.069	0.077
-609.215	-156.201	-0.144	0.009
-608.201	-48.682	-0.249	-0.121
-607.186	11.068	-0.188	-0.146
-606.171	369.594	0.097	-0.198
-605.157	-200.000	0.008	-0.215
-604.142	800.000	0.028	0.096
-603.128	73.864	-0.011	0.011
-602.113	158.848	-0.181	0.254
-601.098	-21.371	0.386	0.239
-600.084	800.000	-0.083	0.251
-599.069	328.250	-0.116	0.225
-598.055	-150.323	0.278	-0.022
-597.040	-136.248	-0.325	0.038
-596.025	602.893	0.067	0.169
-595.011	-49.746	0.319	-0.153
-593.996	-200.000	-0.016	0.620
-592.982	249.099	0.081	-0.138
-591.967	44.150	0.149	0.138
-590.952	-44.201	0.153	0.077
-589.938	800.000	0.037	0.146
-588.923	23.159	0.093	-0.077
-587.909	122.537	0.329	-0.416
-586.894	38.696	0.062	0.056
-585.879	800.000	0.067	-0.225
-584.865	-153.142	0.483	-0.034
-583.850	328.320	0.088	0.170
-582.836	-119.008	0.132	0.023
-581.821	567.572	-0.050	0.122
-580.806	54.498	0.319	0.311
-579.792	-160.353	0.174	0.009
-578.777	3.608	-0.093	-0.068
-577.763	-32.902	0.140	0.079
-576.748	6.287	0.068	-0.051
-575.733	-106.378	-0.174	-0.039
-574.719	-102.762	0.179	-0.043
-573.704	225.693	0.033	-0.053
-572.690	-44.457	0.319	-0.161
-571.675	111.824	-0.312	0.381
-570.661	-38.162	-0.345	0.185
-569.646	77.237	0.054	-0.058
-568.631	-97.496	-0.150	0.039
-567.617	-200.000	-0.018	-0.109
-566.602	-200.000	-0.040	-0.263
-565.588	-149.877	0.058	0.005
-564.573	121.845	-0.101	-0.128
-563.558	-122.691	-0.080	-0.013
-562.544	-118.987	0.277	-0.049
-561.529	-109.932	0.149	-0.032
-560.515	-180.845	0.398	0.008
-559.500	-200.000	-0.001	0.360
-558.485	337.942	-0.105	-0.206
-557.471	-108.953	0.275	0.059
-556.456	-106.948	-0.094	-0.021
-555.442	-85.954	0.123	0.038
-554.427	-200.000	-0.006	-0.160
-553.412	-20.093	0.136	-0.085
-552.398	800.000	0.116	0.338
-551.383	800.000	-0.110	-0.402
-550.369	94.671	0.072	-0.083
-549.354	-200.000	0.005	0.077
-548.339	-0.358	-0.203	-0.146
-547.325	-24.632	0.158	0.095
-546.310	-38.808	-0.124	-0.066
-545.296	618.484	-0.068	-0.172
-544.281	-131.271	0.152	0.020
-543.266	-200.000	0.002	0.173
-542.252	-200.000	-0.023	0.147
-541.237	63.533	0.098	0.099
-540.223	71.006	0.079	-0.082
-539.208	8.727	-0.253	0.192
-538.193	-146.185	0.189	-0.017
-537.179	247.559	0.155	-0.265
-536.164	-25.711	0.193	-0.115
-535.150	18.479	0.174	-0.141
-534.135	-131.367	0.303	-0.041
-533.121	-136.063	0.154	0.018
-532.106	-51.645	-0.042	0.020
-531.091	116.778	-0.205	0.254
-530.077	602.964	0.134	0.336
-529.062	22.093	-0.199	0.164
-528.048	-138.675	-0.233	-0.026
-527.033	17.442	-0.355	-0.285
-526.018	-96.932	-0.239	-0.063
-525.004	215.784	0.163	-0.261
-523.989	129.820	0.230	-0.296
-522.975	158.583	-0.034	-0.048
-521.960	18.745	0.161	0.130
-520.945	-74.836	0.155	0.056
-519.931	130.826	-0.212	0.274
-518.916	-35.963	-0.044	-0.024
-517.902	17.400	0.207	0.165
-516.887	597.085	-0.039	0.097
-515.872	39.497	0.165	0.149
-514.858	523.916	0.109	0.259
-513.843	150.570	-0.126	-0.173
-512.829	-200.000	0.019	0.239
-511.814	1.873	-0.132	0.096
-510.799	342.047	0.101	-0.199
-509.785	-102.163	-0.160	-0.039
-508.770	-200.000	-0.001	-0.060
-507.756	-200.000	0.034	-0.202
-506.741	-43.130	0.058	0.030
-505.726	800.000	-0.017	-0.063
-504.712	-200.000	0.024	-0.365
-503.697	-136.626	-0.304	-0.035
-502.683	-200.000	-0.025	0.180
-501.668	-200.000	-0.003	0.401
-500.653	-124.212	-0.218	-0.034
-499.639	-89.478	0.147	0.043
-498.624	250.895	-0.091	-0.156
-497.610	-58.247	-0.317	-0.139
-496.595	508.342	0.031	-0.072
-495.581	-65.835	-0.294	0.118
-494.566	303.663	0.153	-0.286
-493.551	-130.463	-0.182	-0.025
-492.537	-130.320	-0.317	0.043
-491.522	78.082	-0.145	0.156
-490.508	95.487	-0.144	0.165
-489.493	800.000	-0.011	0.042
-488.478	-200.000	-0.024	0.408
-487.464	-117.742	-0.216	-0.039
-486.449	72.174	0.209	-0.219
-485.435	81.935	0.054	0.059
-484.420	94.132	0.096	0.110
-483.405	-89.622	-0.191	-0.056
-482.391	-148.787	0.236	0.019
-481.376	-106.316	0.481	0.108
-480.362	-62.652	-0.169	-0.071
-479.347	116.585	0.177	-0.218
-478.332	296.200	0.049	0.091
-477.318	-39.087	0.108	0.057
-476.303	-86.008	0.514	-0.160
-475.289	-71.163	-0.140	0.053
-474.274	800.000	-0.063	-0.204
-473.259	162.416	-0.218	0.308
-472.245	399.602	0.050	0.105
-471.230	-200.000	0.087	-0.481
-470.216	41.539	0.161	-0.147
-469.201	563.965	-0.085	0.208
-468.186	-35.192	0.076	0.042
-467.172	-83.936	0.232	0.074
-466.157	800.000	-0.102	0.370
-465.143	57.589	-0.080	0.079
-464.128	-105.540	0.157	-0.036
-463.113	-85.187	-0.033	-0.011
-462.099	-200.000	-0.024	0.262
-461.084	8.106	0.038	-0.029
-460.070	-79.167	-0.206	-0.070
-459.055	-200.000	-0.045	-0.268
-458.040	104.688	-0.157	0.186
-457.026	-24.837	-0.177	-0.106
-456.011	424.054	-0.112	-0.242
-454.997	800.000	-0.024	-0.071
-453.982	-52.086	0.155	-0.072
-452.968	354.572	0.058	0.115
-451.953	800.000	-0.028	-0.080
-450.938	-95.862	-0.146	-0.039
-449.924	-200.000	0.026	-0.230
-448.909	19.042	-0.080	0.065
-447.895	-76.501	-0.115	0.041
-446.880	800.000	0.038	-0.110
-445.865	671.781	-0.094	0.244
-444.851	76.154	0.129	-0.138
-443.836	211.386	0.106	-0.168
-442.822	-50.112	0.137	-0.065
-441.807	-91.168	0.008	-0.002
-440.792	-200.000	-0.011	0.122
-439.778	174.641	-0.202	-0.294
-438.763	176.798	0.269	0.393
-437.749	23.014	0.135	-0.111
-436.734	-127.225	-0.494	-0.073
-435.719	-200.000	0.020	0.111
-434.705	33.500	0.163	-0.142
-433.690	800.000	-0.028	0.082
-432.676	549.661	-0.063	0.152
-431.661	19.388	-0.383	-0.310
-430.646	388.128	0.067	0.139
-429.632	-152.757	-0.125	-0.009
-428.617	1.444	0.359	-0.259
-427.603	-37.268	0.061	0.033
-426.588	129.501	-0.260	-0.334
-425.573	800.000	0.043	0.161
-424.559	83.269	0.071	-0.078
-423.544	-20.795	0.064	-0.040
-422.530	-200.000	0.084	0.458
-421.515	-18.441	-0.263	0.165
-420.500	-200.000	-0.072	0.321
-419.486	146.403	-0.141	-0.190
-418.471	-6.742	-0.396	0.271
-417.457	528.208	-0.070	-0.165
-416.442	-139.659	-0.325	0.035
-415.428	-200.000	0.004	-0.317
-414.413	-20.301	0.003	-0.002
-413.398	-200.000	0.032	-0.172
-412.384	-78.082	-0.088	-0.031
-411.369	-140.673	-0.292	-0.030
-410.355	87.832	0.150	-0.167
-409.340	-177.958	0.156	-0.004
-408.325	106.407	0.093	-0.111
-407.311	800.000	0.116	0.384
-406.296	-28.846	-0.252	0.146
-405.282	186.662	0.130	0.195
-404.267	540.301	-0.024	-0.057
-403.252	44.756	-0.169	0.156
-402.238	321.619	0.165	-0.314
-401.223	-113.971	-0.028	-0.006
-400.209	-127.248	-0.106	0.016
-399.194	-200.000	-0.021	0.168
-398.179	97.297	-0.148	0.171
-397.165	14.241	0.123	0.096
-396.150	-127.125	0.027	0.004
-395.136	-83.444	-0.199	0.064
-394.121	246.694	0.129	-0.219
-393.106	255.371	-0.205	-0.353
-392.092	-200.000	-0.056	0.269
-391.077	415.852	0.091	0.194
-390.063	606.861	-0.076	0.190
-389.048	-140.699	-0.436	-0.045
-388.033	-200.000	-0.002	0.190
-387.019	-127.656	-0.138	-0.020
-386.004	-57.926	0.044	0.019
-384.990	-47.140	0.094	-0.046
-383.975	445.992	-0.155	0.342
-382.960	243.882	0.188	0.317
-381.946	-103.124	-0.356	0.085
-380.931	-109.731	0.322	-0.068
-379.917	-200.000	0.060	-0.324
-378.902	-200.000	0.001	0.382
-377.888	-112.702	-0.218	-0.043
-376.873	74.729	-0.142	0.150
-375.858	3.620	-0.106	-0.078
-374.844	236.577	0.189	-0.313
-373.829	558.679	0.062	-0.150
-372.815	-200.000	-0.002	0.031
-371.800	-69.025	0.714	0.276
-370.785	-200.000	0.006	-0.112
-369.771	330.387	0.030	-0.058
-368.756	-134.662	0.284	0.035
-367.742	800.000	0.030	-0.128
-366.727	7.957	-0.350	0.263
-365.712	27.673	0.254	0.215
-364.698	51.177	0.152	-0.145
-363.683	800.000	0.042	0.179
-362.669	-24.769	-0.180	-0.107
-361.654	777.451	0.102	0.280
-360.639	247.520	0.046	-0.078
-359.625	62.710	-0.187	-0.188
-358.610	115.852	-0.230	-0.282
-357.596	-100.826	-0.289	-0.071
-356.581	-200.000	0.020	0.089
-355.566	-165.957	-0.304	0.013
-354.552	53.267	-0.139	-0.133
-353.537	-179.875	0.297	-0.006
-352.523	-130.616	0.229	0.031
-351.508	800.000	-0.092	-0.332
-350.493	10.505	0.180	0.137
-349.479	42.230	-0.325	0.296
-348.464	-53.934	0.220	0.100
-347.450	164.164	-0.166	-0.234
-346.435	453.944	0.047	0.104
-345.420	350.577	0.073	0.144
-344.406	800.000	0.151	-0.466
-343.391	-12.975	0.148	-0.096
-342.377	-139.165	-0.024	0.003
-341.362	-200.000	-0.024	0.294
-340.348	539.977	-0.087	0.206
-339.333	-11.891	-0.326	0.214
-338.318	49.334	-0.222	0.210
-337.304	145.719	-0.173	0.233
-336.289	-108.343	-0.135	0.029
-335.275	194.033	0.147	-0.224
-334.260	138.347	0.129	-0.170
-333.245	297.101	0.016	-0.030
-332.231	291.826	0.101	-0.185
-331.216	85.821	-0.369	-0.406
-330.202	-200.000	-0.024	0.550
-329.187	434.288	-0.071	0.156
-328.172	-93.789	-0.081	-0.022
-327.158	-81.798	-0.168	0.055
-326.143	-31.100	0.131	-0.074
-325.129	310.864	-0.098	-0.184
-324.114	-60.110	0.146	0.062
-323.099	-200.000	-0.017	-0.082
-322.085	108.594	-0.221	0.264
-321.070	-32.802	0.107	0.060
-320.056	426.148	-0.133	0.287
-319.041	27.069	-0.265	-0.223
-318.026	392.286	-0.104	-0.217
-317.012	800.000	-0.033	-0.093
-315.997	567.016	-0.045	0.109
-314.983	35.094	0.131	-0.115
-313.968	-120.137	0.284	0.049
-312.953	-200.000	0.010	-0.213
-311.939	95.554	0.229	-0.261
-310.924	-200.000	-0.045	0.356
-309.910	-74.506	0.082	0.030
-308.895	-122.873	0.303	0.049
-307.880	-134.825	0.349	-0.042
-306.866	11.383	-0.236	-0.181
-305.851	-196.714	-0.531	0.004
-304.837	50.222	0.212	0.200
-303.822	-108.087	-0.165	-0.036
-302.807	33.894	-0.032	-0.028
-301.793	-68.382	-0.127	-0.049
-300.778	-33.090	-0.292	-0.162
-299.764	-20.301	0.231	-0.142
-298.749	-200.000	-0.037	0.188
-297.735	44.321	-0.338	-0.310
-296.720	-123.317	-0.363	-0.058
-295.705	-200.000	-0.319	-0.001
-294.691	800.000	0.060	-0.178
-293.676	-101.067	-0.153	0.038
-292.662	16.238	0.034	0.027
-291.647	-200.000	-0.019	-0.160
-290.632	-19.387	0.120	-0.074
-289.618	-92.749	-0.083	-0.023
-288.603	11.434	-0.124	-0.095
-287.589	-200.000	0.030	-0.179
-286.574	20.995	-0.221	-0.179
-285.559	-62.654	-0.222	0.092
-284.545	150.442	0.198	-0.268
-283.530	49.597	0.316	-0.298
-282.516	800.000	0.009	0.027
-281.501	-200.000	-0.003	0.264
-280.486	148.973	-0.297	0.401
-279.472	-128.959	0.443	0.062
-278.457	30.769	-0.134	0.115
-277.443	69.963	-0.124	-0.128
-276.428	54.720	-0.098	0.094
-275.413	-48.571	-0.182	0.088
-274.399	800.000	-0.133	0.408
-273.384	495.771	-0.035	0.080
-272.370	-78.276	0.154	-0.053
-271.355	-200.000	0.052	0.356
-270.340	178.826	0.115	0.168
-269.326	430.096	0.104	-0.225
-268.311	35.815	-0.245	-0.215
-267.297	-61.168	-0.196	-0.083
-266.282	175.251	0.146	-0.211
-265.267	-57.334	-0.223	0.098
-264.253	-28.083	0.286	0.165
-263.238	-28.039	-0.251	0.145
-262.224	-29.125	0.213	-0.122
-261.209	82.044	0.109	-0.118
-260.195	-35.220	0.161	-0.087
-259.180	498.522	0.130	0.299
-258.165	-29.806	-0.060	0.034
-257.151	545.620	0.015	0.036
-256.136	-190.124	0.187	-0.002
-255.122	-200.000	0.008	0.520
-254.107	-200.000	0.038	-0.229
-253.092	800.000	-0.102	-0.379
-252.078	553.194	0.060	-0.144
-251.063	800.000	0.121	-0.365
-250.049	-160.220	0.434	-0.023
-249.034	359.405	-0.086	-0.172
-248.019	-78.703	0.082	0.028
-247.005	-153.730	0.204	-0.014
-245.990	-71.829	0.079	-0.029
-244.976	-47.609	-0.167	-0.081
-243.961	-10.733	0.113	0.075
-242.946	-77.503	0.326	-0.113
-241.932	-60.110	0.150	-0.064
-240.917	-38.417	-0.196	-0.104
-239.903	392.660	0.099	-0.205
-238.888	800.000	0.020	0.069
-237.873	-80.607	-0.124	0.041
-236.859	42.543	-0.100	-0.091
-235.844	-176.889	-0.065	-0.002
-234.830	-200.000	-0.017	0.413
-233.815	-149.875	0.196	-0.015
-232.800	-118.120	0.331	-0.059
-231.786	160.512	0.157	0.219
-230.771	-120.503	0.152	0.026
-229.757	201.455	-0.189	-0.291
-228.742	111.853	-0.050	0.061
-227.727	-153.912	0.129	-0.009
-226.713	460.770	-0.091	-0.203
-225.698	-0.459	0.055	0.039
-224.684	55.216	0.369	-0.356
-223.669	346.763	0.087	-0.171
-222.655	-107.927	-0.280	-0.061
-221.640	120.410	-0.107	0.132
-220.625	34.747	0.138	0.120
-219.611	-200.000	-0.003	0.115
-218.596	333.513	0.051	-0.098
-217.582	189.321	-0.088	0.131
-216.567	173.398	-0.246	0.353
-215.552	-19.380	-0.195	0.121
-214.538	-62.310	-0.115	-0.048
-213.523	-79.509	0.192	-0.065
-212.509	-107.569	0.269	0.059
-211.494	-61.347	-0.193	0.081
-210.479	-166.554	-0.394	-0.016
-209.465	-148.445	0.245	0.020
-208.450	60.145	-0.086	0.085
-207.436	643.762	0.088	0.223
-206.421	-200.000	0.019	0.308
-205.406	-77.314	0.122	-0.042
-204.392	-124.643	0.270	-0.042
-203.377	800.000	-0.052	-0.201
-202.363	-200.000	0.055	0.343
-201.348	-97.839	-0.198	0.051
-200.333	429.816	0.148	-0.320
-199.319	-102.626	0.114	-0.027
-198.304	-200.000	0.046	-0.278
-197.290	-197.736	-0.294	0.002
-196.275	-61.285	0.157	0.066
-195.260	4.962	-0.258	0.189
-194.246	-60.860	-0.167	0.070
-193.231	94.365	-0.216	0.245
-192.217	800.000	0.077	-0.232
-191.202	165.303	-0.118	0.166
-190.187	-200.000	-0.011	0.142
-189.173	2.368	0.102	0.073
-188.158	-105.242	-0.181	-0.041
-187.144	220.801	0.212	-0.338
-186.129	-86.904	-0.132	-0.040
-185.114	242.373	0.148	0.246
-184.100	-129.920	-0.115	-0.016
-183.085	-104.685	0.285	-0.065
-182.071	800.000	-0.023	0.090
-181.056	-35.456	-0.262	0.142
-180.042	-82.653	-0.230	-0.074
-179.027	-30.308	-0.344	0.195
-178.012	-165.279	0.627	-0.027
-176.998	-32.681	-0.204	-0.113
-175.983	-74.510	0.367	-0.132
-174.969	-200.000	0.003	-0.028
-173.954	800.000	0.059	0.211
-172.939	-15.429	-0.110	-0.070
-171.925	-83.004	0.058	0.019
-170.910	800.000	-0.084	-0.278
-169.896	-200.000	-0.011	0.121
-168.881	71.499	-0.055	0.057
-167.866	-200.000	0.079	0.368
-166.852	204.280	0.094	-0.145
-165.837	187.145	-0.009	0.013
-164.823	-33.580	0.074	0.041
-163.808	117.564	0.252	-0.308
-162.793	20.799	-0.191	-0.154
-161.779	213.858	-0.067	0.106
-160.764	-84.538	0.106	0.033
-159.750	-200.000	0.012	-0.124
-158.735	-75.027	-0.085	-0.030
-157.720	270.258	-0.172	-0.300
-156.706	-8.998	0.258	0.172
-155.691	489.371	0.200	-0.456
-154.677	510.426	-0.152	-0.351
-153.662	-200.000	-0.015	0.431
-152.647	43.854	0.181	-0.165
-151.633	80.530	-0.147	0.157
-150.618	-64.633	-0.327	0.132
-149.604	-161.088	-0.151	0.008
-148.589	-70.760	-0.266	0.100
-147.574	216.204	0.117	0.185
-146.560	132.182	0.222	-0.284
-145.545	85.365	0.073	0.079
-144.531	72.544	-0.086	0.089
-143.516	89.034	-0.219	0.242
-142.502	361.198	0.157	0.313
-141.487	15.087	0.150	0.117
-140.472	-127.226	-0.280	0.041
-139.458	71.927	0.067	-0.069
-138.443	318.805	0.110	0.206
-137.429	-44.838	0.345	0.171
-136.414	2.401	-0.271	0.195
-135.399	112.445	-0.139	-0.167
-134.385	100.073	-0.073	-0.084
-133.370	81.392	-0.106	-0.114
-132.356	-39.704	0.085	-0.044
-131.341	-174.773	-0.194	0.005
-130.326	-74.788	-0.415	-0.148
-129.312	7.553	-0.086	0.064
-128.297	800.000	0.112	0.347
-127.283	-42.057	0.197	0.100
-126.268	95.882	-0.046	-0.052
-125.253	-200.000	0.043	0.484
-124.239	-114.089	-0.283	-0.054
-123.224	-92.304	-0.136	-0.038
-122.210	800.000	0.088	-0.328
-121.195	66.566	0.078	-0.079
-120.180	-200.000	0.016	0.171
-119.166	-151.520	0.417	0.031
-118.151	-200.000	0.020	-0.123
-117.137	-200.000	-0.023	0.170
-116.122	-34.743	0.208	0.113
-115.107	-200.000	-0.003	0.219
-114.093	267.294	-0.145	0.252
-113.078	-89.399	0.174	-0.051
-112.064	-52.559	0.187	0.086
-111.049	800.000	0.039	-0.156
-110.034	388.836	0.045	0.093
-109.020	135.775	0.186	-0.240
-108.005	-162.036	0.175	0.009
-106.991	33.446	0.019	-0.016
-105.976	-200.000	0.013	0.083
-104.962	-200.000	0.025	-0.332
-103.947	-200.000	0.048	-0.318
-102.932	800.000	-0.051	0.166
-101.918	6.272	0.094	-0.069
-100.903	-95.511	0.325	0.086
-99.889	410.371	-0.086	0.182
-98.874	-29.802	0.054	-0.030
-97.859	116.612	0.223	0.271
-96.845	236.192	-0.098	0.160
-95.830	-86.187	-0.081	-0.025
-94.816	-123.156	0.395	-0.063
-93.801	-72.262	0.259	0.095
-92.786	-157.530	0.375	-0.022
-91.772	405.624	-0.191	-0.400
-90.757	32.324	-0.264	0.226
-89.743	-168.715	-0.316	0.012
-88.728	211.215	0.172	-0.269
-87.713	395.716	0.123	-0.255
-86.699	53.975	0.231	0.220
-85.684	-51.497	-0.153	0.071
-84.670	49.087	-0.230	0.214
-83.655	210.635	-0.110	-0.171
-82.640	-43.149	-0.276	-0.139
-81.626	338.148	0.095	0.184
-80.611	-200.000	-0.030	0.167
-79.597	-100.796	-0.443	-0.108
-78.582	-46.043	-0.051	0.025
-77.567	800.000	0.082	0.244
-76.553	438.826	-0.026	0.056
-75.538	-6.693	-0.174	-0.118
-74.524	-87.871	0.115	-0.034
-73.509	83.271	-0.367	0.397
-72.494	-17.630	0.042	-0.026
-71.480	-200.000	-0.012	-0.171
-70.465	-200.000	-0.017	-0.174
-69.451	-143.085	-0.360	0.034
-68.436	-99.032	0.089	-0.022
-67.422	28.756	0.138	0.116
-66.407	-168.577	0.042	0.002
-65.392	184.622	-0.088	0.130
-64.378	-8.867	-0.148	0.099
-63.363	-108.839	-0.041	0.009
-62.349	218.624	0.079	-0.125
-61.334	85.049	-0.553	-0.601
-60.319	141.802	0.199	0.261
-59.305	-200.000	0.091	-0.557
-58.290	158.393	0.626	0.860
-57.276	800.000	0.478	1.849
-56.261	-200.000	89.848	517.434
-55.246	494.249	1375.262	3127.656
-54.232	150.940	2577.827	3473.252
-53.217	114.211	2199.961	2652.754
-52.203	47.556	1735.427	1603.402
-51.188	40.480	1544.038	1377.581
-50.173	37.946	1516.046	1335.233
-49.159	55.210	1563.322	1497.255
-48.144	59.146	1583.258	1543.678
-47.130	40.873	1539.776	1376.281
-46.115	37.524	1525.166	1340.140
-45.100	37.414	1521.228	1335.872
-44.086	37.379	1519.427	1333.996
-43.071	37.205	1517.827	1331.350
-42.057	37.214	1515.871	1329.644
-41.042	37.157	1514.657	1328.135
-40.027	37.269	1513.636	1327.949
-39.013	37.252	1511.994	1326.343
-37.998	37.282	1510.224	1324.940
-36.984	37.377	1509.308	1324.734
-35.969	37.353	1507.732	1323.130
-34.954	37.306	1506.642	1321.808
-33.940	37.258	1505.751	1320.643
-32.925	37.318	1503.813	1319.296
-31.911	37.381	1502.693	1318.692
-30.896	37.336	1500.884	1316.749
-29.881	37.392	1499.958	1316.259
-28.867	37.447	1497.793	1314.685
-27.852	37.396	1496.780	1313.395
-26.838	37.298	1495.309	1311.394
-25.823	37.340	1493.679	1310.194
-24.809	37.282	1491.907	1308.195
-23.794	37.312	1490.524	1307.132
-22.779	37.356	1489.391	1306.386
-21.765	37.410	1488.197	1305.650
-20.750	37.409	1487.055	1304.583
-19.736	37.414	1486.321	1303.925
-18.721	37.306	1485.293	1302.246
-17.706	37.214	1484.623	1300.993
-16.692	37.353	1482.709	1300.191
-15.677	37.308	1481.992	1299.210
-14.663	37.251	1481.000	1297.908
-13.648	37.234	1479.727	1296.626
-12.633	37.235	1479.062	1296.003
-11.619	37.399	1477.272	1295.473
-10.604	37.219	1476.866	1293.870
-9.590	37.257	1475.985	1293.295
-8.575	37.346	1475.040	1293.011
-7.560	37.306	1474.250	1292.001
-6.546	37.191	1473.851	1290.833
-5.531	37.323	1472.538	1290.510
-4.517	37.196	1471.700	1288.879
-3.502	37.270	1470.333	1288.126
-2.487	37.264	1469.313	1287.138
-1.473	37.261	1468.026	1285.941
-0.458	37.305	1466.783	1285.090
0.556	37.641	1456.643	1271.646
1.571	33.738	1429.080	1222.398
2.586	29.023	1365.775	1139.040
3.600	26.646	1282.231	1055.438
4.615	24.860	1234.137	1005.734
5.629	21.027	1177.473	938.883
6.644	11.467	1090.218	821.351
7.659	3.979	1046.903	752.356
8.673	2.813	1041.370	742.674
9.688	2.474	1038.258	738.754
10.702	2.361	1036.361	736.792
11.717	2.413	1034.799	735.869
12.731	5.533	1038.113	753.192
13.746	14.954	1051.905	808.882
14.761	23.290	1062.112	857.185
15.775	25.669	1064.712	870.737
16.790	26.041	1064.972	872.673
17.804	25.875	1064.168	871.132
18.819	25.662	1063.326	869.339
19.834	25.837	1062.446	869.390
20.848	25.998	1061.730	869.501
21.863	26.049	1061.805	869.732
22.877	26.008	1061.719	869.386
23.892	25.966	1061.399	868.843
24.907	25.902	1060.241	867.511
25.921	25.944	1059.265	866.837
26.936	25.985	1058.507	866.339
27.950	25.948	1057.430	865.205
28.965	25.970	1056.126	864.164
29.980	25.877	1054.703	862.479
30.994	25.774	1053.429	860.871
32.009	25.958	1052.893	861.234
33.023	26.195	1052.312	861.812
34.038	25.997	1051.410	860.054
35.053	25.812	1050.511	858.362
36.067	25.957	1050.160	858.687
37.082	25.959	1049.277	857.903
38.096	26.027	1048.207	857.273
39.111	26.175	1047.763	857.537
40.126	26.344	1046.715	857.403
41.140	26.265	1045.566	856.016
42.155	25.962	1043.727	852.999
43.169	25.598	1042.821	850.463
44.184	25.614	1041.843	849.664
45.199	25.630	1040.923	848.915
46.213	25.573	1039.791	847.650
47.228	25.564	1039.187	847.040
48.242	25.711	1038.653	847.219
49.257	25.790	1037.929	846.924
50.271	25.974	1036.805	846.798
51.286	26.035	1036.062	846.402
52.301	26.053	1035.550	845.992
53.315	26.208	1034.463	845.756
54.330	26.059	1034.160	844.735
55.344	25.915	1033.015	843.055
56.359	25.973	1032.050	842.463
57.374	25.919	1031.554	841.732
58.388	25.820	1030.415	840.264
59.403	25.705	1029.984	839.305
60.417	25.636	1029.171	838.247
61.432	25.512	1028.552	837.089
62.447	25.619	1027.822	836.917
63.461	25.612	1027.162	836.272
64.476	25.875	1026.136	836.587
65.490	25.851	1025.124	835.578
66.505	25.551	1024.401	833.523
67.520	25.581	1023.615	832.947
68.534	25.718	1023.309	833.259
69.549	25.597	1021.729	831.342
70.563	25.198	1020.903	828.753
71.578	25.148	1020.324	827.977
72.593	25.293	1019.292	827.736
73.607	25.045	1018.193	825.627
74.622	25.039	1017.238	824.753
75.636	25.436	1016.433	825.854
76.651	25.583	1015.465	825.668
77.666	25.489	1014.734	824.569
78.680	25.437	1013.641	823.367
79.695	25.389	1013.293	822.795
80.709	25.434	1012.971	822.665
81.724	25.587	1012.072	822.564
82.739	25.620	1011.363	822.066
83.753	25.637	1010.142	821.075
84.768	25.837	1009.925	821.741
85.782	26.134	1009.496	822.672
86.797	26.333	1009.066	823.154
87.812	26.289	1007.695	821.766
88.826	26.130	1006.871	820.296
89.841	26.136	1006.173	819.681
90.855	26.254	1005.894	819.918
91.870	26.270	1004.887	819.096
92.884	26.298	1003.551	818.062
93.899	26.194	1002.963	817.041
94.914	25.934	1002.144	815.124
95.928	26.218	1000.878	815.307
96.943	26.201	1000.245	814.643
97.957	25.938	999.266	812.585
98.972	25.799	997.792	810.692
99.987	25.465	997.025	808.494
101.001	25.660	996.765	809.090
102.016	25.921	996.219	809.747
103.030	25.933	995.456	809.107
104.045	25.785	994.684	807.746
105.060	25.772	993.098	806.327
106.074	25.524	992.189	804.410
107.089	25.614	991.231	803.965
108.103	25.837	991.195	804.861
109.118	26.015	990.030	804.637
110.133	25.783	988.697	802.450
111.147	25.789	987.524	801.451
112.162	25.487	987.012	799.621
113.176	25.364	985.724	797.960
114.191	25.456	985.155	797.838
115.206	25.627	984.373	797.892
116.220	25.298	983.007	795.258
117.235	25.214	982.293	794.236
118.249	25.416	981.498	794.418
119.264	25.561	980.811	794.431
120.279	25.304	979.598	792.247
121.293	25.297	979.088	791.732
122.308	25.422	978.587	791.810
123.322	25.444	977.558	791.003
124.337	25.253	977.098	789.722
125.352	25.160	975.384	787.855
126.366	24.761	974.257	785.125
127.381	24.505	972.812	782.768
128.395	24.947	972.822	784.645
129.410	25.642	972.664	787.491
130.424	25.762	971.809	787.253
131.439	25.918	970.311	786.651
132.454	25.802	969.493	785.413
133.468	25.931	969.032	785.534
134.483	25.649	968.481	783.786
135.497	25.755	967.667	783.524
136.512	26.114	967.111	784.563
137.527	26.072	966.602	783.896
138.541	26.144	965.498	783.246
139.556	26.185	964.754	782.752
140.570	26.170	963.933	781.951
141.585	26.113	963.328	781.143
142.600	26.266	962.617	781.158
143.614	26.111	961.414	779.443
144.629	26.222	960.946	779.477
145.643	26.525	960.157	780.075
146.658	26.331	959.107	778.316
147.673	26.124	958.152	776.583
148.687	25.999	957.224	775.225
149.702	26.046	956.030	774.389
150.716	25.888	954.768	772.622
151.731	25.883	953.396	771.420
152.746	25.928	953.019	771.238
153.760	26.116	952.687	771.706
154.775	26.213	952.195	771.656
155.789	26.429	951.156	771.664
156.804	26.240	950.396	770.177
157.819	26.044	949.284	768.374
158.833	26.118	948.568	768.040
159.848	26.224	948.127	768.065
160.862	26.293	947.382	767.686
161.877	26.288	945.960	766.447
162.892	26.190	945.251	765.388
163.906	26.220	944.444	764.795
164.921	26.308	942.922	763.867
165.935	26.172	942.325	762.741
166.950	26.166	941.490	761.971
167.964	26.341	940.452	761.799
168.979	26.085	939.616	759.979
169.994	26.141	938.249	759.041
171.008	26.003	937.415	757.721
172.023	26.148	936.855	757.809
173.037	26.392	935.820	757.926
174.052	26.269	934.572	756.335
175.067	25.896	934.105	754.328
176.081	26.054	932.858	753.917
177.096	26.019	932.680	753.558
178.110	26.090	931.616	752.931
179.125	25.863	930.491	751.008
180.140	25.626	929.729	749.340
181.154	25.555	928.703	748.149
182.169	25.701	928.591	748.599
183.183	25.876	928.558	749.238
184.198	26.177	927.795	749.803
185.213	26.136	927.410	749.255
186.227	26.151	926.548	748.554
187.242	26.247	925.786	748.271
188.256	26.253	925.437	747.948
189.271	26.299	924.946	747.675
190.286	26.346	924.118	747.135
191.300	26.247	923.102	745.837
192.315	25.486	922.158	741.871
193.329	24.842	919.921	737.352
194.344	24.509	918.803	735.021
195.359	25.014	919.516	737.605
196.373	25.906	919.537	741.225
197.388	26.135	919.360	741.961
198.402	26.120	918.555	741.181
199.417	26.005	918.160	740.325
200.432	26.228	917.454	740.605
201.446	26.008	917.025	739.293
202.461	25.849	915.927	737.692
203.475	25.703	915.635	736.794
204.490	25.380	914.350	734.373
205.504	24.184	912.401	727.861
206.519	24.753	911.933	729.746
207.534	25.550	912.494	733.382
208.548	25.690	911.819	733.343
209.563	25.991	912.072	734.709
210.577	25.984	910.970	733.730
211.592	25.809	910.453	732.534
212.607	26.165	910.174	733.692
213.621	26.388	909.451	733.952
214.636	26.307	908.885	733.101
215.650	26.411	908.387	733.057
216.665	26.197	908.441	732.169
217.680	26.355	907.568	732.037
218.694	26.383	907.134	731.738
219.709	26.062	905.850	729.338
220.723	25.732	905.019	727.271
221.738	25.862	904.524	727.334
222.753	26.109	903.974	727.825
223.767	25.986	903.653	727.005
224.782	26.133	902.949	726.968
225.796	26.290	902.317	727.027
226.811	26.391	901.736	726.900
227.826	26.091	900.379	724.537
228.840	25.209	899.090	719.898
229.855	25.073	898.462	718.786
230.869	25.469	897.903	719.864
231.884	25.130	896.837	717.586
232.899	25.230	896.226	717.435
233.913	25.973	896.787	720.792
234.928	26.006	896.316	720.482
235.942	25.975	895.616	719.731
236.957	25.985	894.912	719.141
237.972	25.634	894.334	717.216
238.986	25.745	893.133	716.631
240.001	25.868	892.524	716.565
241.015	25.715	892.367	715.770
242.030	25.788	891.580	715.363
243.045	25.925	890.984	715.368
244.059	26.183	890.364	715.830
245.074	26.226	890.539	716.074
246.088	26.131	889.504	714.806
247.103	25.762	888.732	712.660
248.117	25.941	888.117	712.814
249.132	26.358	888.122	714.400
250.147	26.666	888.010	715.465
251.161	26.874	887.465	715.783
252.176	27.028	886.797	715.788
253.190	26.856	886.409	714.736
254.205	27.102	885.690	715.061
255.220	27.140	886.023	715.414
256.234	27.206	884.697	714.538
257.249	26.993	884.423	713.418
258.263	26.832	883.708	712.148
259.278	26.966	882.767	711.850
260.293	27.022	882.402	711.711
261.307	26.977	882.220	711.325
262.322	26.968	881.719	710.826
263.336	26.942	880.448	709.636
264.351	26.420	879.312	706.616
265.366	25.478	877.109	701.113
266.380	24.802	876.359	697.816
267.395	25.804	876.763	701.984
268.409	26.573	876.948	705.064
269.424	26.527	876.387	704.372
270.439	26.766	875.617	704.619
271.453	26.759	875.325	704.294
272.468	26.708	874.729	703.557
273.482	26.899	874.098	703.726
274.497	27.130	873.564	704.129
275.512	26.923	872.548	702.449
276.526	26.288	871.162	698.817
277.541	26.462	870.846	699.172
278.555	26.794	870.967	700.489
279.570	26.693	870.474	699.641
280.585	26.478	869.620	698.062
281.599	26.665	868.891	698.138
282.614	26.690	868.304	697.701
283.628	26.351	867.151	695.409
284.643	25.927	866.435	693.144
285.657	26.301	866.662	694.699
286.672	26.207	866.062	693.796
287.687	25.656	864.595	690.447
288.701	26.133	864.699	692.298
289.716	26.429	864.600	693.294
290.730	26.095	863.453	691.036
291.745	26.022	862.701	690.091
292.760	25.989	861.813	689.193
293.774	25.574	861.583	687.363
294.789	26.707	861.990	691.955
295.803	27.300	861.820	694.023
296.818	27.415	861.560	694.191
297.833	27.415	860.791	693.510
298.847	27.240	859.672	691.879
299.862	26.843	858.737	689.557
300.876	26.930	858.346	689.512
301.891	27.180	858.267	690.337
302.906	27.368	857.632	690.479
303.920	27.030	856.281	688.049
304.935	26.977	855.891	687.477
305.949	27.287	855.685	688.424
306.964	27.305	855.529	688.303
307.979	27.082	854.274	686.390
308.993	26.992	853.932	685.715
310.008	27.310	853.765	686.720
311.022	27.513	853.614	687.307
312.037	27.404	852.758	686.146
313.052	27.141	851.780	684.308
314.066	26.977	851.415	683.336
315.081	26.279	850.028	679.537
316.095	25.558	848.575	675.609
317.110	26.024	848.745	677.434
318.125	26.958	849.199	681.245
319.139	26.673	847.767	678.967
320.154	25.450	845.989	672.905
321.168	24.925	845.190	670.245
322.183	25.516	845.598	672.724
323.197	26.629	845.848	677.026
324.212	26.806	845.973	677.729
325.227	26.897	845.521	677.645
326.241	27.119	844.744	677.791
327.256	26.901	844.108	676.410
328.270	26.863	843.785	675.948
329.285	26.717	843.360	675.005
330.300	26.562	842.443	673.635
331.314	26.490	841.435	672.501
332.329	26.537	840.973	672.246
333.343	26.807	840.692	672.963
334.358	27.173	840.427	674.050
335.373	27.251	839.434	673.485
336.387	27.284	839.379	673.501
337.402	27.438	839.132	673.813
338.416	27.684	838.477	674.138
339.431	27.543	838.167	673.306
340.446	27.526	837.540	672.680
341.460	27.778	837.244	673.316
342.475	27.754	836.421	672.503
343.489	27.605	835.647	671.272
344.504	27.641	835.050	670.866
345.519	27.892	834.962	671.662
346.533	27.944	834.982	671.808
347.548	27.970	834.379	671.360
348.562	28.090	833.438	670.984
349.577	28.108	833.028	670.659
350.592	27.847	832.763	669.428
351.606	27.870	831.873	668.741
352.621	27.914	831.440	668.495
353.635	27.705	831.014	667.327
354.650	27.853	829.909	666.921
355.665	27.325	829.393	664.521
356.679	26.496	827.163	659.654
357.694	26.337	827.110	658.973
358.708	26.951	827.074	661.125
359.723	26.785	826.653	660.124
360.738	27.197	825.859	660.929
361.752	27.684	825.826	662.616
362.767	27.605	826.031	662.434
363.781	27.804	826.062	663.125
364.796	28.050	826.086	663.978
365.810	28.204	825.384	663.913
366.825	28.314	825.228	664.128
367.840	28.391	824.938	664.114
368.854	28.022	824.455	662.331
369.869	27.838	822.960	660.406
370.883	27.520	822.168	658.562
371.898	27.663	821.958	658.854
372.913	27.626	821.338	658.163
373.927	27.684	820.520	657.659
374.942	27.836	819.962	657.702
375.956	27.893	819.317	657.331
376.971	28.040	818.865	657.440
377.986	28.174	818.147	657.287
379.000	28.028	818.564	657.036
380.015	28.186	817.981	657.078
381.029	28.107	817.094	656.025
382.044	28.009	816.496	655.137
383.059	28.186	815.985	655.302
384.073	28.353	815.417	655.384
385.088	28.258	815.043	654.688
386.102	28.250	814.355	654.047
387.117	28.207	813.375	653.047
388.132	27.866	813.388	651.784
389.146	27.853	812.398	650.889
390.161	27.209	811.510	647.825
391.175	27.281	811.194	647.771
392.190	27.913	811.195	649.964
393.205	27.916	810.298	649.198
394.219	27.002	808.705	644.623
395.234	25.322	806.779	637.074
396.248	24.565	805.606	633.408
397.263	25.460	806.566	637.281
398.278	27.275	807.927	644.742
399.292	27.927	807.951	647.013
400.307	27.566	807.172	645.054
401.321	27.368	806.780	643.983
402.336	27.585	806.131	644.177
403.350	27.914	806.015	645.187
404.365	28.345	806.165	646.772
405.380	28.671	805.971	647.710
406.394	28.801	806.029	648.159
407.409	29.069	805.377	648.522
408.423	28.940	804.667	647.438
409.438	28.844	804.471	646.887
410.453	28.891	803.860	646.503
411.467	29.022	803.511	646.624
412.482	29.011	802.943	646.071
413.496	28.928	802.326	645.227
414.511	29.224	801.876	645.848
415.526	29.025	801.534	644.816
416.540	28.997	801.297	644.471
417.555	28.958	800.749	643.837
418.569	28.661	799.816	641.991
419.584	28.716	798.915	641.404
420.599	28.618	799.044	641.106
421.613	104.406	1277.059	1425.227
422.628	89.787	1346.715	1425.345
