DTS Sentinel unit serial number:	SN413079Multiplexer serial number:	ORYXHardware model number:	OX4-SRSoftware version number:	ORYX F/W v4.00 Oryx Data Collector v3.7.2.0data status	okinstallation	princeton_trtdifferential loss correction	single-endedforward channel	channel 3reverse channel	N/Adate	2019/09/11time	21:02:11forward acquisition time	60.00reverse acquisition time	0.00gamma	496.2192k internal	0.2307k external	0.2307temperature offset calibration	1.0032default loss term (dB/km)	0.3790temperature slope calibration	1.0000multiplexer offset coefficient	1.0000multiplexer slope coefficient	1.0000fibre end	0.00T internal ref (°C)	36.62T ext. ref 1 (°C)	1.59T ext. ref 2 (°C)	30.61length (m)	temperature (°C)	Stokes	anti-Stokes-747.200	-103.041	-0.217	-0.052
-746.185	-16.507	-0.071	0.046
-745.171	131.898	0.105	-0.137
-744.156	-9.818	-0.112	0.076
-743.142	19.027	0.269	-0.220
-742.127	-78.628	-0.252	0.087
-741.112	800.000	0.015	-0.055
-740.098	-113.983	-0.251	0.049
-739.083	-126.096	0.289	-0.044
-738.069	-110.362	0.239	0.051
-737.054	-200.000	0.020	-0.109
-736.039	17.447	-0.165	0.133
-735.025	517.097	0.088	-0.210
-734.010	21.781	0.168	-0.139
-732.996	-200.000	0.022	0.128
-731.981	-200.000	0.011	-0.049
-730.966	56.107	-0.172	-0.170
-729.952	-10.568	0.312	-0.210
-728.937	650.296	0.024	-0.063
-727.923	-98.864	-0.120	0.031
-726.908	-200.000	-0.017	-0.206
-725.894	160.560	0.097	0.138
-724.879	-97.258	-0.132	-0.035
-723.864	201.386	-0.040	-0.063
-722.850	-18.425	-0.252	-0.160
-721.835	-117.380	0.329	-0.061
-720.821	-200.000	-0.003	0.291
-719.806	-128.300	-0.343	0.050
-718.791	79.278	0.178	-0.193
-717.777	-182.784	-0.125	0.002
-716.762	-101.159	-0.085	-0.021
-715.748	-85.292	-0.295	-0.094
-714.733	366.906	0.130	0.267
-713.718	-95.270	0.352	0.096
-712.704	-130.751	0.262	-0.036
-711.689	-159.868	0.126	0.007
-710.675	-63.660	-0.160	-0.067
-709.660	800.000	0.032	0.103
-708.645	19.330	-0.374	-0.305
-707.631	-178.558	-0.086	-0.002
-706.616	528.000	0.011	-0.026
-705.602	-120.126	-0.178	-0.031
-704.587	260.514	0.096	-0.168
-703.572	408.685	-0.142	-0.305
-702.558	-29.790	-0.214	-0.124
-701.543	800.000	-0.034	-0.146
-700.529	-91.846	0.190	-0.055
-699.514	-28.869	-0.189	-0.110
-698.499	-155.388	0.300	-0.020
-697.485	256.422	-0.122	0.212
-696.470	11.292	0.150	-0.117
-695.456	-72.202	0.070	-0.026
-694.441	-145.821	0.146	-0.013
-693.426	800.000	-0.043	0.188
-692.412	84.164	-0.120	0.133
-691.397	49.303	-0.109	0.104
-690.383	1.536	0.169	0.123
-689.368	163.191	-0.135	-0.193
-688.354	-200.000	-0.031	-0.227
-687.339	574.886	0.177	0.438
-686.324	-31.375	-0.252	-0.144
-685.310	9.768	-0.148	-0.114
-684.295	16.254	0.206	-0.165
-683.281	-60.964	0.308	0.132
-682.266	-99.538	0.149	0.038
-681.251	-32.255	-0.221	-0.125
-680.237	-200.000	-0.023	-0.105
-679.222	-157.283	-0.347	-0.021
-678.208	-200.000	0.092	0.533
-677.193	-126.886	-0.389	0.058
-676.178	-73.101	0.055	0.021
-675.164	53.442	0.024	0.024
-674.149	-113.032	0.064	-0.013
-673.135	-119.291	0.168	0.030
-672.120	70.133	0.131	-0.137
-671.105	-200.000	-0.007	0.071
-670.091	-34.133	-0.382	-0.213
-669.076	392.662	-0.232	-0.488
-668.062	-200.000	0.042	-0.265
-667.047	-34.936	-0.134	-0.074
-666.032	-104.696	-0.297	-0.069
-665.018	800.000	0.057	-0.216
-664.003	17.751	0.045	-0.036
-662.989	-131.775	0.313	0.042
-661.974	555.662	0.169	0.411
-660.959	51.745	0.202	0.194
-659.945	-40.195	-0.282	0.149
-658.930	-200.000	-0.018	0.353
-657.916	-21.987	0.266	-0.164
-656.901	-59.285	0.265	-0.116
-655.886	800.000	0.152	-0.483
-654.872	-200.000	0.013	0.279
-653.857	-110.552	0.303	0.064
-652.843	-27.929	-0.165	0.097
-651.828	178.115	-0.060	-0.088
-650.814	602.767	0.129	0.326
-649.799	120.102	0.158	-0.198
-648.784	8.086	0.193	-0.147
-647.770	-200.000	0.033	-0.256
-646.755	146.803	0.102	-0.139
-645.741	278.822	-0.187	-0.338
-644.726	-53.407	-0.128	-0.059
-643.711	-116.599	0.151	0.028
-642.697	-200.000	-0.046	-0.264
-641.682	155.125	0.268	0.374
-640.668	379.604	-0.139	-0.289
-639.653	-177.119	0.164	0.004
-638.638	101.025	-0.239	0.281
-637.624	-200.000	-0.027	-0.336
-636.609	-45.591	0.121	-0.061
-635.595	-200.000	-0.023	-0.165
-634.580	540.821	-0.085	-0.205
-633.565	-116.018	0.213	0.040
-632.551	-0.918	-0.110	0.079
-631.536	246.136	-0.124	-0.211
-630.522	800.000	0.032	0.089
-629.507	-50.534	0.130	-0.062
-628.492	-81.516	-0.059	-0.020
-627.478	168.228	-0.138	0.199
-626.463	584.414	0.066	-0.165
-625.449	-84.975	0.197	-0.063
-624.434	-165.212	-0.201	-0.009
-623.419	-112.862	0.179	-0.036
-622.405	356.957	0.072	-0.145
-621.390	-200.000	0.036	0.266
-620.376	39.970	0.229	-0.208
-619.361	-99.297	0.358	0.092
-618.346	125.263	-0.139	0.177
-617.332	176.193	-0.160	0.235
-616.317	227.628	-0.038	0.062
-615.303	-39.794	0.112	0.059
-614.288	4.438	-0.184	-0.137
-613.273	-200.000	-0.003	-0.031
-612.259	800.000	-0.045	0.132
-611.244	72.938	-0.059	-0.062
-610.230	8.057	-0.191	0.145
-609.215	740.797	0.187	-0.509
-608.201	-9.085	0.171	0.116
-607.186	124.690	0.252	0.321
-606.171	-200.000	-0.028	-0.262
-605.157	-30.019	0.141	0.081
-604.142	291.944	-0.089	-0.165
-603.128	461.718	0.072	0.163
-602.113	-200.000	0.020	0.171
-601.098	30.288	-0.144	0.124
-600.084	33.155	-0.061	-0.053
-599.069	-146.064	-0.199	0.018
-598.055	120.356	0.056	-0.070
-597.040	89.373	-0.071	0.079
-596.025	-181.700	0.125	0.002
-595.011	114.773	0.047	0.058
-593.996	-200.000	-0.001	-0.117
-592.982	92.706	0.042	0.048
-591.967	14.636	-0.190	-0.150
-590.952	47.037	0.153	-0.144
-589.938	-97.032	-0.015	0.004
-588.923	390.277	0.046	0.097
-587.909	-106.779	-0.321	-0.072
-586.894	-10.904	-0.285	-0.190
-585.879	-110.781	0.213	-0.044
-584.865	267.746	0.313	0.554
-583.850	-100.875	0.118	-0.029
-582.836	64.823	-0.026	0.026
-581.821	-155.703	0.150	-0.010
-580.806	107.203	-0.066	-0.079
-579.792	-200.000	-0.019	-0.460
-578.777	121.011	-0.119	-0.149
-577.763	48.873	0.024	-0.023
-576.748	-60.985	0.102	0.044
-575.733	308.175	-0.111	-0.208
-574.719	3.987	-0.393	-0.290
-573.704	201.127	-0.209	-0.324
-572.690	173.425	-0.183	-0.267
-571.675	800.000	-0.011	-0.043
-570.661	-60.336	-0.178	-0.077
-569.646	-200.000	-0.027	0.297
-568.631	-77.623	-0.401	0.140
-567.617	-167.599	-0.171	0.007
-566.602	-200.000	0.002	-0.128
-565.588	101.625	0.103	-0.122
-564.573	-9.212	-0.303	0.205
-563.558	146.471	-0.194	0.263
-562.544	286.290	-0.068	-0.123
-561.529	-33.726	-0.354	-0.197
-560.515	-66.944	-0.233	-0.093
-559.500	-200.000	0.014	0.173
-558.485	19.157	-0.406	0.329
-557.471	270.568	0.123	0.219
-556.456	418.845	0.064	0.139
-555.442	160.159	-0.116	-0.163
-554.427	-19.464	-0.156	-0.097
-553.412	-62.939	0.211	0.088
-552.398	-46.540	0.010	0.005
-551.383	402.657	0.180	0.383
-550.369	-60.573	-0.143	-0.061
-549.354	14.478	-0.238	-0.187
-548.339	-200.000	-0.052	0.267
-547.325	298.181	-0.055	0.102
-546.310	-200.000	-0.012	0.129
-545.296	-138.399	-0.219	-0.024
-544.281	370.126	-0.074	-0.151
-543.266	-97.798	0.228	-0.059
-542.252	-200.000	-0.038	-0.248
-541.237	22.020	-0.299	0.246
-540.223	-121.952	0.310	-0.051
-539.208	86.192	-0.121	-0.134
-538.193	156.438	0.035	0.049
-537.179	-93.281	0.131	0.037
-536.164	-111.587	0.250	0.051
-535.150	-200.000	0.006	-0.229
-534.135	800.000	0.027	-0.090
-533.121	800.000	0.057	0.204
-532.106	57.115	-0.257	-0.253
-531.091	160.625	0.046	-0.064
-530.077	13.079	-0.097	-0.076
-529.062	-57.188	-0.338	0.150
-528.048	-102.177	0.210	-0.051
-527.033	-14.379	-0.136	0.088
-526.018	-131.235	0.311	-0.042
-525.004	-131.331	0.423	0.056
-523.989	98.528	-0.146	0.169
-522.975	-122.492	0.157	0.026
-521.960	-200.000	0.014	0.107
-520.945	328.762	0.121	-0.234
-519.931	800.000	0.080	-0.252
-518.916	234.487	-0.199	-0.331
-517.902	-8.034	0.146	-0.100
-516.887	-200.000	0.010	0.389
-515.872	-133.918	-0.198	0.025
-514.858	106.744	-0.224	-0.267
-513.843	51.427	0.318	-0.304
-512.829	-73.220	0.368	-0.136
-511.814	-152.893	-0.115	-0.008
-510.799	94.898	0.077	-0.089
-509.785	-67.516	-0.214	-0.084
-508.770	482.548	0.058	0.133
-507.756	-200.000	-0.003	0.126
-506.741	174.376	0.053	-0.077
-505.726	-90.054	0.110	-0.032
-504.712	271.147	-0.082	0.145
-503.697	800.000	-0.094	0.353
-502.683	-200.000	-0.029	0.140
-501.668	307.085	-0.183	-0.343
-500.653	2.804	0.201	-0.147
-499.639	38.009	0.207	0.186
-498.624	800.000	-0.053	0.156
-497.610	237.817	0.052	-0.087
-496.595	99.133	0.126	0.147
-495.581	-134.236	0.146	-0.018
-494.566	-91.311	-0.277	0.080
-493.551	601.930	0.071	-0.177
-492.537	40.592	0.239	-0.217
-491.522	-200.000	0.068	-0.354
-490.508	-128.822	0.569	-0.081
-489.493	-144.793	-0.283	-0.026
-488.478	-200.000	-0.018	0.242
-487.464	43.397	-0.308	-0.284
-486.449	-96.254	0.349	0.093
-485.435	-200.000	0.024	0.140
-484.420	79.222	-0.176	0.190
-483.405	493.962	0.154	-0.356
-482.391	-178.354	0.255	0.006
-481.376	-78.084	0.221	-0.076
-480.362	520.297	-0.053	-0.126
-479.347	227.101	-0.076	-0.125
-478.332	319.032	0.088	0.167
-477.318	66.836	-0.305	-0.313
-476.303	741.607	0.042	0.113
-475.289	-30.036	0.289	-0.166
-474.274	800.000	-0.048	-0.185
-473.259	-25.857	-0.122	0.072
-472.245	143.239	0.058	0.077
-471.230	-7.701	-0.231	0.157
-470.216	800.000	0.127	-0.479
-469.201	154.250	-0.347	-0.479
-468.186	-68.388	0.064	-0.025
-467.172	-75.225	0.152	-0.055
-466.157	138.618	0.263	0.347
-465.143	481.385	0.190	-0.433
-464.128	438.563	0.135	-0.297
-463.113	69.267	-0.157	-0.162
-462.099	-41.649	0.320	0.165
-461.084	-91.902	0.182	-0.052
-460.070	147.113	0.174	0.236
-459.055	-72.366	0.106	0.039
-458.040	-77.464	-0.135	-0.047
-457.026	-200.000	-0.015	-0.251
-456.011	155.375	-0.179	-0.248
-454.997	71.603	-0.128	0.134
-453.982	-41.894	-0.299	0.154
-452.968	-200.000	-0.019	0.167
-451.953	327.138	-0.091	-0.175
-450.938	-115.809	0.376	-0.071
-449.924	13.452	-0.169	0.132
-448.909	-200.000	-0.043	-0.378
-447.895	188.990	0.131	-0.198
-446.880	437.163	-0.187	0.410
-445.865	-200.000	-0.084	0.390
-444.851	-95.481	-0.228	0.062
-443.836	16.343	-0.244	-0.193
-442.822	600.664	-0.108	-0.270
-441.807	-103.428	-0.244	0.058
-440.792	-200.000	-0.009	0.222
-439.778	-200.000	0.062	-0.323
-438.763	94.111	-0.120	-0.137
-437.749	-200.000	-0.034	0.227
-436.734	800.000	0.013	-0.055
-435.719	-77.576	-0.185	0.064
-434.705	742.873	0.122	0.331
-433.690	18.961	-0.185	-0.149
-432.676	-153.910	0.305	0.021
-431.661	-200.000	0.009	-0.063
-430.646	-200.000	0.011	0.473
-429.632	-53.836	0.315	-0.144
-428.617	142.548	0.159	-0.212
-427.603	214.594	0.112	0.179
-426.588	73.199	0.119	0.125
-425.573	-200.000	-0.014	-0.067
-424.559	800.000	0.044	0.190
-423.544	-45.474	-0.285	-0.142
-422.530	-200.000	-0.042	0.224
-421.515	79.564	-0.096	0.104
-420.500	221.038	-0.038	-0.062
-419.486	58.940	-0.170	-0.168
-418.471	-28.139	0.269	-0.156
-417.457	-75.762	0.138	0.049
-416.442	14.232	-0.120	-0.094
-415.428	169.657	0.122	0.175
-414.413	-191.579	-0.075	-0.001
-413.398	-53.522	-0.113	-0.052
-412.384	-103.490	-0.209	-0.049
-411.369	-200.000	0.011	0.123
-410.355	800.000	-0.013	-0.039
-409.340	-200.000	-0.006	-0.188
-408.325	59.612	0.272	-0.269
-407.311	-11.435	0.128	-0.085
-406.296	13.879	-0.127	0.099
-405.282	-200.000	-0.073	-0.341
-404.267	-114.835	0.199	0.038
-403.252	-200.000	-0.002	-0.054
-402.238	-200.000	0.012	-0.306
-401.223	800.000	-0.141	-0.473
-400.209	-153.988	0.074	-0.005
-399.194	-22.429	-0.267	0.162
-398.179	-200.000	0.008	-0.140
-397.165	-200.000	0.008	0.293
-396.150	-31.124	0.180	0.102
-395.136	75.277	-0.157	-0.166
-394.121	800.000	-0.091	-0.282
-393.106	-38.529	0.211	-0.112
-392.092	800.000	0.082	-0.321
-391.077	165.037	0.104	0.147
-390.063	-26.071	0.038	-0.023
-389.048	-200.000	0.054	0.241
-388.033	-200.000	0.012	-0.094
-387.019	-62.253	-0.205	0.086
-386.004	69.047	0.424	0.437
-384.990	-200.000	-0.001	0.090
-383.975	165.361	0.177	0.250
-382.960	100.856	-0.051	-0.060
-381.946	105.843	-0.037	0.044
-380.931	-200.000	0.262	-0.001
-379.917	-58.878	-0.263	0.114
-378.902	-1.838	0.320	0.226
-377.888	300.669	-0.230	0.426
-376.873	343.669	0.116	0.227
-375.858	800.000	-0.073	0.304
-374.844	109.745	-0.269	0.324
-373.829	87.034	-0.092	0.102
-372.815	106.332	-0.072	0.086
-371.800	-16.806	-0.195	-0.124
-370.785	-105.022	-0.210	-0.048
-369.771	-200.000	-0.019	0.324
-368.756	224.121	0.144	-0.233
-367.742	-101.774	-0.037	-0.009
-366.727	43.666	0.199	0.182
-365.712	-82.339	-0.124	0.040
-364.698	-200.000	0.250	-0.001
-363.683	575.226	-0.064	-0.155
-362.669	-57.273	-0.190	0.084
-361.654	-4.179	0.231	0.160
-360.639	-18.046	0.367	-0.230
-359.625	-63.497	0.200	-0.082
-358.610	-130.456	-0.204	-0.028
-357.596	316.014	-0.122	0.231
-356.581	160.024	0.183	0.256
-355.566	30.346	-0.128	-0.109
-354.552	71.942	0.235	0.245
-353.537	-47.155	-0.288	-0.141
-352.523	-200.000	0.001	-0.109
-351.508	-200.000	-0.068	-0.316
-350.493	-148.983	0.211	-0.017
-349.479	564.582	0.064	-0.155
-348.464	67.305	0.114	0.117
-347.450	104.133	-0.238	0.281
-346.435	-116.580	0.313	-0.058
-345.420	171.613	-0.193	-0.277
-344.406	-22.082	0.131	-0.080
-343.391	-27.378	0.141	-0.082
-342.377	-85.807	-0.285	0.088
-341.362	317.409	-0.122	0.231
-340.348	800.000	0.125	-0.438
-339.333	-126.018	0.131	-0.020
-338.318	388.201	-0.103	0.214
-337.304	-110.851	-0.139	-0.029
-336.289	-8.326	-0.255	0.171
-335.275	800.000	-0.053	0.191
-334.260	-200.000	-0.006	-0.210
-333.245	94.182	0.154	-0.174
-332.231	22.045	0.064	0.052
-331.216	232.076	0.258	0.423
-330.202	-200.000	-0.018	-0.113
-329.187	-120.791	-0.369	0.062
-328.172	-200.000	0.007	-0.190
-327.158	-84.161	-0.250	0.079
-326.143	142.963	-0.072	-0.096
-325.129	-200.000	-0.020	-0.116
-324.114	-37.266	-0.094	0.050
-323.099	188.581	-0.192	-0.287
-322.085	-200.000	-0.035	-0.460
-321.070	177.239	-0.014	-0.021
-320.056	-200.000	-0.003	0.081
-319.041	800.000	0.075	0.209
-318.026	-64.974	-0.294	-0.119
-317.012	19.774	-0.197	-0.159
-315.997	800.000	-0.060	0.245
-314.983	-29.862	0.124	-0.070
-313.968	624.677	0.081	0.204
-312.953	127.168	-0.099	0.126
-311.939	-26.435	0.264	-0.155
-310.924	697.056	0.065	-0.170
-309.910	577.575	0.122	-0.298
-308.895	-75.221	-0.284	0.101
-307.880	124.335	-0.063	-0.079
-306.866	-112.449	0.256	-0.051
-305.851	-200.000	0.022	0.100
-304.837	424.371	-0.080	0.172
-303.822	9.712	0.289	-0.219
-302.807	-200.000	-0.006	-0.110
-301.793	800.000	-0.068	0.219
-300.778	800.000	-0.025	-0.090
-299.764	-118.649	0.144	0.025
-298.749	-200.000	0.057	0.429
-297.735	364.560	-0.073	0.147
-296.720	-8.689	0.390	0.261
-295.705	-101.607	-0.041	0.010
-294.691	-104.515	-0.329	0.076
-293.676	-200.000	0.005	-0.185
-292.662	-106.732	-0.100	0.022
-291.647	138.079	-0.146	-0.191
-290.632	-200.000	-0.004	-0.133
-289.618	800.000	-0.151	0.482
-288.603	-9.717	0.365	-0.243
-287.589	-108.514	0.456	-0.098
-286.574	-200.000	0.048	0.217
-285.559	-27.071	-0.233	0.136
-284.545	-200.000	-0.019	0.413
-283.530	-61.142	-0.259	0.109
-282.516	-41.443	0.188	-0.097
-281.501	447.630	-0.028	-0.062
-280.486	-200.000	0.000	-0.302
-279.472	-200.000	-0.016	-0.093
-278.457	-160.834	0.354	-0.019
-277.443	197.975	-0.057	0.086
-276.428	191.522	0.030	-0.046
-275.413	-85.174	0.285	0.089
-274.399	-200.000	0.007	-0.087
-273.384	-107.180	0.223	0.049
-272.370	-40.409	0.121	-0.063
-271.355	238.996	-0.145	-0.241
-270.340	-200.000	0.018	-0.094
-269.326	153.954	-0.150	0.206
-268.311	577.154	-0.148	-0.360
-267.297	148.512	-0.058	0.078
-266.282	407.686	0.062	-0.131
-265.267	-200.000	0.017	0.119
-264.253	578.892	-0.180	0.440
-263.238	230.602	-0.108	-0.176
-262.224	-92.397	-0.202	0.057
-261.209	358.120	-0.125	-0.249
-260.195	-25.309	-0.131	-0.077
-259.180	-200.000	0.013	-0.073
-258.165	303.276	0.049	0.091
-257.151	132.606	-0.184	0.237
-256.136	283.646	-0.136	0.243
-255.122	253.459	-0.226	0.385
-254.107	-200.000	-0.010	0.366
-253.092	-62.497	0.250	0.104
-252.078	264.290	0.020	-0.034
-251.063	-200.000	0.031	-0.351
-250.049	83.329	-0.224	0.243
-249.034	800.000	-0.067	-0.215
-248.019	-149.067	-0.130	-0.010
-247.005	-90.205	-0.266	-0.077
-245.990	-116.695	0.383	-0.070
-244.976	707.057	-0.030	0.079
-243.961	800.000	0.120	0.342
-242.946	195.363	0.093	0.142
-241.932	241.700	-0.115	-0.191
-240.917	-44.676	0.249	0.124
-239.903	66.141	0.141	0.142
-238.888	-100.937	-0.037	0.009
-237.873	800.000	0.063	0.182
-236.859	-81.932	0.113	0.037
-235.844	-200.000	0.044	-0.372
-234.830	-200.000	0.025	-0.291
-233.815	-106.504	-0.393	0.087
-232.800	-179.244	-0.171	0.004
-231.786	-23.204	0.136	0.082
-230.771	-122.275	-0.490	0.080
-229.757	-92.198	-0.380	0.107
-228.742	-29.686	0.129	0.073
-227.727	-31.887	-0.117	0.066
-226.713	24.707	0.275	0.227
-225.698	116.964	0.051	0.062
-224.684	82.637	-0.210	0.227
-223.669	61.528	-0.041	-0.041
-222.655	404.839	-0.094	-0.198
-221.640	-200.000	-0.008	0.066
-220.625	-200.000	-0.007	0.421
-219.611	536.942	0.090	0.213
-218.596	-67.705	0.096	0.038
-217.582	-138.639	0.057	-0.006
-216.567	61.426	-0.180	0.179
-215.552	98.768	0.097	-0.111
-214.538	-200.000	-0.033	-0.348
-213.523	-88.677	-0.370	0.110
-212.509	64.880	0.205	-0.206
-211.494	-20.205	-0.459	-0.282
-210.479	-200.000	0.018	0.218
-209.465	285.382	0.169	0.304
-208.450	-168.700	0.372	-0.014
-207.436	-97.635	0.512	0.132
-206.421	19.265	-0.275	0.220
-205.406	272.557	-0.127	0.224
-204.392	295.942	0.072	-0.132
-203.377	800.000	0.015	0.064
-202.363	-78.110	-0.014	-0.005
-201.348	-153.396	0.026	0.002
-200.333	-19.071	-0.121	-0.075
-199.319	-60.021	0.352	-0.150
-198.304	108.064	0.070	0.083
-197.290	-23.516	-0.277	-0.166
-196.275	-59.611	-0.251	0.107
-195.260	800.000	-0.067	-0.229
-194.246	-74.410	-0.341	-0.122
-193.231	-200.000	0.103	-0.478
-192.217	2.981	0.145	0.105
-191.202	119.811	-0.115	-0.142
-190.187	105.836	0.101	-0.119
-189.173	-136.754	0.327	0.038
-188.158	100.432	0.346	-0.399
-187.144	-144.856	0.285	0.026
-186.129	30.966	-0.270	0.230
-185.114	-200.000	0.039	0.332
-184.100	150.609	0.290	0.393
-183.085	800.000	0.051	-0.197
-182.071	-47.550	0.273	-0.132
-181.056	-200.000	0.067	0.335
-180.042	-200.000	0.008	0.148
-179.027	-200.000	0.006	0.055
-178.012	44.203	-0.106	0.097
-176.998	37.983	0.248	0.220
-175.983	481.951	-0.154	0.349
-174.969	361.661	0.128	-0.256
-173.954	-92.032	-0.091	-0.026
-172.939	785.559	-0.049	0.134
-171.925	-82.641	-0.191	-0.062
-170.910	70.272	-0.150	-0.154
-169.896	-36.708	0.234	-0.125
-168.881	134.857	-0.110	-0.142
-167.866	-32.201	-0.141	0.079
-166.852	-4.684	0.105	-0.072
-165.837	350.951	0.056	0.110
-164.823	-200.000	-0.016	0.321
-163.808	-23.116	0.144	0.086
-162.793	-200.000	0.027	0.433
-161.779	356.060	0.025	0.050
-160.764	-200.000	-0.017	0.184
-159.750	-142.537	0.088	-0.009
-158.735	401.377	0.135	0.281
-157.720	130.723	-0.122	0.155
-156.706	-200.000	0.027	0.256
-155.691	-81.200	0.228	-0.075
-154.677	113.546	0.348	-0.420
-153.662	-174.868	-0.077	0.002
-152.647	153.619	-0.137	0.186
-151.633	5.275	0.177	0.129
-150.618	-68.977	0.098	-0.038
-149.604	145.550	0.225	-0.300
-148.589	800.000	0.133	-0.398
-147.574	76.748	0.034	-0.036
-146.560	-18.705	-0.127	0.079
-145.545	-114.576	-0.359	0.068
-144.531	800.000	0.016	-0.046
-143.516	-200.000	-0.003	-0.127
-142.502	256.248	0.105	0.178
-141.487	-87.758	-0.185	0.055
-140.472	166.752	0.173	0.244
-139.458	692.267	0.054	-0.139
-138.443	-200.000	-0.009	0.184
-137.429	-59.173	0.089	-0.038
-136.414	-4.505	-0.091	0.062
-135.399	-54.652	0.080	0.036
-134.385	-97.872	-0.416	-0.107
-133.370	-200.000	-0.005	0.130
-132.356	-134.570	0.316	-0.038
-131.341	-200.000	-0.216	-0.001
-130.326	359.692	-0.074	0.147
-129.312	-121.683	-0.325	-0.053
-128.297	-0.364	0.345	-0.243
-127.283	800.000	0.058	-0.200
-126.268	-22.636	-0.180	0.108
-125.253	800.000	0.137	0.489
-124.239	85.308	0.026	0.028
-123.224	-48.766	-0.147	-0.070
-122.210	98.554	0.196	0.224
-121.195	800.000	0.007	0.023
-120.180	-60.026	-0.200	-0.085
-119.166	72.151	0.288	0.297
-118.151	110.489	-0.128	0.153
-117.137	-200.000	-0.013	-0.100
-116.122	-118.716	0.210	-0.037
-115.107	-200.000	-0.012	0.226
-114.093	67.698	0.135	-0.136
-113.078	-37.909	0.122	-0.064
-112.064	-17.740	0.116	-0.072
-111.049	274.085	0.140	-0.246
-110.034	800.000	-0.024	-0.101
-109.020	-116.924	0.245	-0.044
-108.005	800.000	0.033	-0.091
-106.991	-104.698	0.442	-0.101
-105.976	13.528	0.152	0.117
-104.962	13.715	0.112	0.086
-103.947	-145.093	-0.135	0.012
-102.932	800.000	0.101	0.341
-101.918	59.894	-0.198	0.194
-100.903	190.110	0.184	0.274
-99.889	-200.000	-0.017	0.139
-98.874	92.597	-0.180	0.202
-97.859	-51.616	-0.374	0.173
-96.845	-97.246	0.273	-0.071
-95.830	259.286	-0.172	-0.294
-94.816	139.023	-0.072	-0.093
-93.801	120.173	0.256	0.315
-92.786	34.182	-0.084	0.072
-91.772	-92.453	0.062	0.017
-90.757	183.295	0.140	-0.205
-89.743	-91.439	0.477	0.135
-88.728	58.159	0.198	-0.193
-87.713	-79.664	0.216	-0.072
-86.699	-6.427	0.373	0.252
-85.684	560.976	0.165	0.395
-84.670	126.728	-0.141	0.177
-83.655	272.910	-0.208	0.364
-82.640	370.127	-0.086	0.173
-81.626	113.877	0.049	0.059
-80.611	-120.424	-0.177	-0.030
-79.597	-99.416	0.111	-0.028
-78.582	-23.182	-0.182	-0.108
-77.567	-132.646	0.111	-0.014
-76.553	-200.000	-0.020	-0.122
-75.538	-200.000	0.028	-0.262
-74.524	49.285	-0.073	-0.068
-73.509	-104.719	-0.196	-0.045
-72.494	800.000	-0.059	-0.255
-71.480	-91.612	0.172	0.049
-70.465	-23.844	-0.109	0.065
-69.451	90.332	0.064	0.071
-68.436	-75.531	0.239	-0.084
-67.422	54.197	-0.261	0.248
-66.407	182.501	-0.155	0.227
-65.392	800.000	-0.050	-0.186
-64.378	-159.445	0.109	-0.006
-63.363	225.173	-0.117	-0.188
-62.349	37.644	0.199	0.175
-61.334	90.773	-0.722	-0.801
-60.319	133.135	0.478	0.611
-59.305	-200.000	0.216	-0.985
-58.290	305.403	0.640	1.177
-57.276	387.251	0.675	1.381
-56.261	-200.000	90.458	531.288
-55.246	514.298	1366.889	3157.061
-54.232	151.925	2577.256	3478.438
-53.217	114.607	2194.280	2646.728
-52.203	46.928	1730.971	1592.842
-51.188	39.702	1539.980	1367.195
-50.173	37.166	1512.451	1325.412
-49.159	54.873	1560.770	1491.006
-48.144	58.886	1580.317	1537.469
-47.130	40.164	1536.702	1367.262
-46.115	36.929	1521.238	1331.267
-45.100	36.683	1518.351	1327.001
-44.086	36.691	1516.378	1325.278
-43.071	36.576	1514.550	1322.846
-42.057	36.540	1512.969	1321.164
-41.042	36.608	1511.290	1320.112
-40.027	36.581	1510.261	1318.976
-39.013	36.601	1508.560	1317.576
-37.998	36.635	1507.659	1316.969
-36.984	36.603	1506.233	1315.453
-35.969	36.577	1504.957	1314.109
-34.954	36.610	1503.132	1312.685
-33.940	36.604	1501.963	1311.572
-32.925	36.697	1500.354	1310.747
-31.911	36.625	1499.170	1309.171
-30.896	36.710	1497.403	1308.151
-29.881	36.723	1496.492	1307.391
-28.867	36.713	1495.262	1306.199
-27.852	36.708	1493.506	1304.574
-26.838	36.645	1492.055	1302.832
-25.823	36.681	1490.958	1302.067
-24.809	36.654	1488.828	1299.976
-23.794	36.710	1487.420	1299.067
-22.779	36.588	1486.609	1297.489
-21.765	36.660	1485.680	1297.108
-20.750	36.673	1484.202	1295.858
-19.736	36.674	1483.027	1294.784
-18.721	36.669	1482.202	1293.981
-17.706	36.666	1480.722	1292.616
-16.692	36.675	1479.389	1291.464
-15.677	36.650	1478.738	1290.672
-14.663	36.533	1478.236	1289.405
-13.648	36.486	1477.395	1288.306
-12.633	36.621	1475.663	1287.641
-11.619	36.629	1474.852	1286.940
-10.604	36.543	1473.944	1285.525
-9.590	36.488	1473.412	1284.646
-8.575	36.585	1472.353	1284.314
-7.560	36.551	1471.643	1283.419
-6.546	36.668	1470.440	1283.092
-5.531	36.645	1469.817	1282.348
-4.517	36.659	1468.894	1281.582
-3.502	36.504	1467.867	1279.612
-2.487	36.550	1466.881	1279.006
-1.473	36.526	1465.489	1277.583
-0.458	36.586	1464.358	1276.943
0.556	36.418	1454.335	1264.925
1.571	33.272	1428.630	1222.178
2.586	29.609	1366.636	1146.356
3.600	27.714	1283.083	1065.121
4.615	26.145	1235.904	1017.036
5.629	21.949	1177.740	946.510
6.644	11.331	1089.162	822.001
7.659	3.038	1045.190	748.494
8.673	1.783	1039.513	738.285
9.688	1.573	1036.202	734.852
10.702	1.559	1034.615	733.598
11.717	1.446	1033.131	731.934
12.731	5.133	1037.076	752.466
13.746	15.309	1051.640	812.500
14.761	22.941	1061.417	857.160
15.775	24.325	1062.465	864.647
16.790	24.414	1061.980	864.607
17.804	24.273	1061.570	863.514
18.819	24.140	1060.437	861.871
19.834	24.310	1059.948	862.218
20.848	24.374	1059.304	861.928
21.863	24.449	1058.845	861.842
22.877	24.442	1058.560	861.499
23.892	24.405	1057.905	860.711
24.907	24.323	1057.370	859.802
25.921	24.383	1056.405	859.233
26.936	24.328	1055.403	858.076
27.950	24.274	1054.545	857.043
28.965	24.330	1053.481	856.373
29.980	24.216	1051.784	854.370
30.994	24.200	1050.733	853.364
32.009	24.453	1049.761	853.710
33.023	24.417	1049.518	853.263
34.038	24.279	1048.263	851.510
35.053	24.092	1047.749	850.124
36.067	24.246	1047.054	850.219
37.082	24.414	1045.914	850.019
38.096	24.352	1045.397	849.229
39.111	24.502	1044.576	849.201
40.126	24.690	1043.492	849.137
41.140	24.747	1042.189	848.272
42.155	24.336	1040.805	845.125
43.169	24.042	1039.243	842.389
44.184	23.947	1038.595	841.341
45.199	24.098	1037.393	841.004
46.213	23.996	1036.703	839.890
47.228	24.064	1035.780	839.390
48.242	24.250	1034.796	839.394
49.257	24.228	1034.468	838.949
50.271	24.265	1033.497	838.259
51.286	24.441	1032.873	838.509
52.301	24.601	1031.806	838.319
53.315	24.519	1031.621	837.707
54.330	24.417	1030.908	836.579
55.344	24.359	1029.623	835.188
56.359	24.391	1029.033	834.785
57.374	24.345	1028.249	833.861
58.388	24.237	1027.006	832.277
59.403	24.098	1026.487	831.131
60.417	24.145	1025.729	830.665
61.432	23.945	1025.081	829.131
62.447	24.020	1024.617	829.037
63.461	24.126	1023.444	828.503
64.476	24.222	1023.112	828.611
65.490	24.098	1022.090	827.135
66.505	24.052	1020.762	825.770
67.520	24.007	1020.962	825.651
68.534	24.247	1019.278	825.326
69.549	24.068	1018.646	823.914
70.563	23.783	1017.696	821.754
71.578	23.682	1016.478	820.234
72.593	23.758	1015.751	819.923
73.607	23.530	1014.344	817.666
74.622	23.626	1013.508	817.362
75.636	23.630	1013.784	817.530
76.651	23.883	1012.969	817.966
77.666	23.774	1011.900	816.530
78.680	23.713	1011.166	815.584
79.695	23.766	1010.181	814.960
80.709	23.899	1009.753	815.150
81.724	23.925	1009.038	814.623
82.739	24.001	1008.114	814.152
83.753	24.032	1007.246	813.519
84.768	24.333	1006.765	814.437
85.782	24.475	1005.878	814.291
86.797	24.638	1005.816	814.913
87.812	24.632	1004.400	813.669
88.826	24.416	1003.713	812.058
89.841	24.456	1002.575	811.245
90.855	24.538	1002.325	811.344
91.870	24.628	1001.632	811.120
92.884	24.637	1000.624	810.271
93.899	24.444	999.803	808.661
94.914	24.384	998.585	807.333
95.928	24.548	997.854	807.412
96.943	24.529	997.124	806.666
97.957	24.285	996.076	804.643
98.972	24.114	994.741	802.725
99.987	23.879	994.102	801.080
101.001	23.909	993.781	800.885
102.016	24.326	993.061	802.110
103.030	24.325	992.095	801.255
104.045	24.323	990.586	799.955
105.060	24.126	989.499	798.123
106.074	23.944	988.447	796.387
107.089	24.020	987.301	795.734
108.103	24.384	987.382	797.356
109.118	24.404	986.888	796.977
110.133	24.157	985.417	794.619
111.147	24.047	984.426	793.258
112.162	24.002	983.361	792.130
113.176	23.713	982.463	790.052
114.191	23.878	981.866	790.232
115.206	24.016	980.846	789.957
116.220	23.693	979.532	787.395
117.235	23.523	978.439	785.692
118.249	23.581	978.247	785.727
119.264	23.760	977.530	785.872
120.279	23.749	976.028	784.547
121.293	23.544	975.585	783.216
122.308	23.649	975.437	783.492
123.322	23.638	974.555	782.669
124.337	23.831	972.978	782.181
125.352	23.608	971.603	780.024
126.366	23.244	970.449	777.433
127.381	23.077	968.679	775.214
128.395	23.415	968.385	776.391
129.410	24.113	967.925	779.007
130.424	24.329	967.358	779.427
131.439	24.202	966.876	778.413
132.454	24.265	965.677	777.657
133.468	24.230	965.045	776.923
134.483	24.194	963.876	775.760
135.497	24.250	963.322	775.486
136.512	24.321	962.936	775.415
137.527	24.435	962.638	775.606
138.541	24.377	962.071	774.827
139.556	24.493	960.530	774.022
140.570	24.540	959.958	773.695
141.585	24.617	958.778	773.006
142.600	24.627	958.235	772.544
143.614	24.450	957.138	770.826
144.629	24.598	956.067	770.535
145.643	24.886	955.831	771.517
146.658	24.734	954.612	769.813
147.673	24.431	953.546	767.580
148.687	24.362	952.474	766.352
149.702	24.309	951.140	764.987
150.716	24.271	949.875	763.740
151.731	24.290	948.847	762.925
152.746	24.344	948.514	762.819
153.760	24.496	947.882	762.895
154.775	24.596	947.215	762.716
155.789	24.552	946.689	762.036
156.804	24.613	945.537	761.305
157.819	24.490	944.760	760.085
158.833	24.455	943.915	759.192
159.848	24.730	943.133	759.665
160.862	24.708	942.434	758.939
161.877	24.590	941.013	757.230
162.892	24.585	940.254	756.528
163.906	24.495	939.560	755.522
164.921	24.488	938.743	754.771
165.935	24.517	937.261	753.632
166.950	24.792	936.121	753.809
167.964	24.728	935.250	752.773
168.979	24.616	934.576	751.691
169.994	24.605	933.113	750.401
171.008	24.312	932.713	748.785
172.023	24.596	931.592	749.010
173.037	24.832	930.807	749.300
174.052	24.504	930.146	747.328
175.067	24.280	929.299	745.645
176.081	24.186	928.771	744.764
177.096	24.495	927.194	744.722
178.110	24.508	926.496	744.147
179.125	24.286	925.283	742.183
180.140	23.928	924.532	740.029
181.154	23.980	923.629	739.454
182.169	24.029	923.586	739.561
183.183	24.354	922.828	740.235
184.198	24.683	922.650	741.393
185.213	24.570	921.831	740.201
186.227	24.305	921.767	738.984
187.242	24.496	921.179	739.239
188.256	24.469	920.131	738.220
189.271	24.612	919.165	737.972
190.286	24.622	918.584	737.481
191.300	24.583	917.358	736.273
192.315	24.037	915.982	732.856
193.329	23.313	914.754	728.829
194.344	22.913	913.763	726.330
195.359	23.373	914.187	728.494
196.373	24.314	914.491	732.540
197.388	24.663	914.014	733.524
198.402	24.360	913.472	731.784
199.417	24.538	912.289	731.500
200.432	24.464	912.491	731.293
201.446	24.379	911.300	729.926
202.461	24.079	910.932	728.339
203.475	24.020	910.579	727.754
204.490	23.683	908.964	725.022
205.504	22.554	906.839	718.663
206.519	23.061	906.394	720.313
207.534	23.834	907.181	724.024
208.548	24.061	906.575	724.400
209.563	24.553	905.971	725.854
210.577	24.379	905.560	724.752
211.592	24.148	904.685	723.051
212.607	24.556	904.681	724.639
213.621	24.686	904.251	724.757
214.636	24.625	903.188	723.593
215.650	24.703	902.532	723.319
216.665	24.664	901.941	722.624
217.680	24.519	901.721	721.800
218.694	24.676	901.407	722.116
219.709	24.391	900.533	720.201
220.723	24.032	899.659	717.990
221.738	24.311	899.333	718.793
222.753	24.480	898.468	718.720
223.767	24.447	897.848	718.027
224.782	24.492	896.990	717.457
225.796	24.829	896.259	718.161
226.811	24.854	895.697	717.747
227.826	24.357	895.014	715.144
228.840	23.513	893.309	710.343
229.855	23.439	892.844	709.614
230.869	23.756	892.477	710.527
231.884	23.499	891.350	708.540
232.899	23.520	890.762	708.094
233.913	24.264	891.185	711.339
234.928	24.387	891.214	711.787
235.942	24.426	890.206	711.077
236.957	24.464	889.037	710.230
237.972	24.124	888.408	708.311
238.986	24.119	887.460	707.473
240.001	24.207	886.705	707.158
241.015	24.029	886.505	706.230
242.030	24.221	885.755	706.333
243.045	24.386	885.416	706.653
244.059	24.455	884.939	706.483
245.074	24.739	884.365	707.084
246.088	24.582	883.591	705.783
247.103	24.124	883.043	703.473
248.117	24.237	882.178	703.168
249.132	24.590	882.778	704.977
250.147	25.179	882.117	706.710
251.161	25.300	881.355	706.513
252.176	25.408	880.934	706.538
253.190	25.345	880.574	705.938
254.205	25.309	880.166	705.408
255.220	25.575	879.807	706.103
256.234	25.444	878.910	704.806
257.249	25.466	878.501	704.500
258.263	25.182	877.705	702.689
259.278	25.234	877.166	702.399
260.293	25.484	876.349	702.660
261.307	25.546	875.712	702.328
262.322	25.408	875.261	701.368
263.336	25.225	874.724	700.159
264.351	24.826	873.524	697.583
265.366	23.623	871.363	691.115
266.380	23.185	870.311	688.516
267.395	23.924	871.266	692.086
268.409	24.856	870.906	695.361
269.424	24.856	870.151	694.697
270.439	25.117	869.798	695.366
271.453	25.232	869.432	695.459
272.468	25.195	868.409	694.435
273.482	25.398	868.436	695.180
274.497	25.545	867.615	695.031
275.512	25.217	866.785	693.037
276.526	24.667	865.537	689.856
277.541	24.778	865.377	690.096
278.555	25.233	865.266	691.700
279.570	24.902	864.737	689.940
280.585	24.949	863.509	689.083
281.599	24.884	863.260	688.571
282.614	24.975	863.209	688.820
283.628	24.652	861.645	686.271
284.643	24.139	860.860	683.618
285.657	24.700	860.594	685.496
286.672	24.616	859.765	684.453
287.687	24.245	858.810	682.213
288.701	24.390	858.878	682.762
289.716	24.740	858.728	683.921
290.730	24.679	857.395	682.566
291.745	24.370	856.959	680.980
292.760	24.267	856.134	679.871
293.774	23.985	855.875	678.530
294.789	24.965	856.461	682.670
295.803	25.801	856.137	685.535
296.818	25.731	855.965	685.073
297.833	25.777	855.120	684.510
298.847	25.510	853.975	682.517
299.862	25.186	852.837	680.321
300.876	25.265	852.749	680.491
301.891	25.695	852.301	681.700
302.906	25.654	851.690	680.996
303.920	25.331	850.427	678.705
304.935	25.059	850.143	677.390
305.949	25.640	849.623	679.110
306.964	25.702	849.073	678.844
307.979	25.332	848.991	677.324
308.993	25.345	848.260	676.730
310.008	25.670	848.122	677.783
311.022	25.797	847.693	677.859
312.037	25.757	846.762	676.904
313.052	25.432	846.058	675.062
314.066	25.400	845.350	674.317
315.081	24.718	843.781	670.450
316.095	24.023	842.410	666.695
317.110	24.402	842.839	668.397
318.125	25.283	843.359	672.051
319.139	25.082	841.877	670.058
320.154	23.700	840.146	663.462
321.168	23.408	839.341	661.680
322.183	23.963	839.497	663.816
323.197	24.807	840.386	667.609
324.212	25.125	839.710	668.201
325.227	25.391	839.284	668.793
326.241	25.540	839.052	669.104
327.256	25.389	838.757	668.247
328.270	25.170	837.991	666.763
329.285	25.130	837.146	665.881
330.300	25.113	836.435	665.197
331.314	24.786	834.960	662.753
332.329	24.962	834.460	662.948
333.343	25.340	834.665	664.451
334.358	25.595	834.258	665.011
335.373	25.581	833.493	664.292
336.387	25.663	833.115	664.234
337.402	25.827	832.605	664.373
338.416	26.082	832.584	665.239
339.431	26.016	831.645	664.184
340.446	26.001	831.364	663.848
341.460	26.292	831.113	664.658
342.475	26.182	830.178	663.448
343.489	25.883	829.618	661.844
344.504	25.985	828.845	661.542
345.519	26.078	828.922	661.886
346.533	26.226	828.890	662.346
347.548	26.420	827.911	662.214
348.562	26.544	827.319	662.138
349.577	26.375	827.122	661.302
350.592	26.250	826.342	660.162
351.606	26.229	825.986	659.745
352.621	26.311	825.497	659.596
353.635	26.098	825.139	658.474
354.650	26.151	824.328	657.963
355.665	25.967	822.908	656.099
356.679	24.743	821.531	650.494
357.694	24.617	821.137	649.666
358.708	25.354	821.191	652.330
359.723	25.187	820.779	651.340
360.738	25.442	820.787	652.213
361.752	25.930	820.572	653.756
362.767	25.959	820.184	653.492
363.781	26.322	819.833	654.471
364.796	26.556	819.994	655.387
365.810	26.609	819.515	655.140
366.825	26.596	818.942	654.576
367.840	26.859	818.428	655.059
368.854	26.617	818.074	653.843
369.869	26.087	817.203	651.178
370.883	25.948	816.107	649.745
371.898	26.136	815.764	650.091
372.913	25.964	815.409	649.132
373.927	26.039	814.249	648.422
374.942	26.209	813.785	648.604
375.956	26.480	812.906	648.818
376.971	26.430	812.770	648.474
377.986	26.590	812.360	648.663
379.000	26.635	812.074	648.539
380.015	26.569	811.852	648.068
381.029	26.378	811.295	646.883
382.044	26.520	810.263	646.509
383.059	26.575	809.947	646.395
384.073	26.790	809.262	646.560
385.088	26.628	808.912	645.644
386.102	26.690	808.322	645.337
387.117	26.390	807.728	643.737
388.132	26.386	806.700	642.848
389.146	26.289	805.979	641.871
390.161	25.608	805.293	638.851
391.175	25.746	805.126	639.153
392.190	26.189	805.086	640.635
393.205	26.279	805.010	640.837
394.219	25.288	803.269	635.886
395.234	23.660	801.012	628.285
396.248	22.873	799.572	624.320
397.263	24.047	800.543	629.175
398.278	25.725	801.574	635.863
399.292	26.328	801.964	638.247
400.307	26.044	800.816	636.275
401.321	26.069	800.478	636.040
402.336	25.950	800.249	635.379
403.350	26.290	799.931	636.270
404.365	26.703	800.018	637.735
405.380	27.102	800.012	639.080
406.394	27.313	799.557	639.400
407.409	27.456	799.138	639.510
408.423	27.498	798.315	638.943
409.438	27.196	797.851	637.456
410.453	27.247	797.513	637.309
411.467	27.458	797.000	637.582
412.482	27.422	796.741	637.192
413.496	27.215	796.258	636.025
414.511	27.381	795.990	636.336
415.526	27.535	795.388	636.337
416.540	27.439	795.000	635.635
417.555	27.232	794.698	634.613
418.569	26.990	793.975	633.135
419.584	27.140	793.219	633.002
420.599	27.197	792.611	632.657
421.613	105.104	1275.269	1430.393
422.628	90.283	1345.588	1430.515
