DTS Sentinel unit serial number:	SN413079Multiplexer serial number:	ORYXHardware model number:	OX4-SRSoftware version number:	ORYX F/W v4.00 Oryx Data Collector v3.7.2.0data status	okinstallation	princeton_trtdifferential loss correction	single-endedforward channel	channel 3reverse channel	N/Adate	2019/09/10time	22:38:11forward acquisition time	60.00reverse acquisition time	0.00gamma	496.2192k internal	0.2331k external	0.2331temperature offset calibration	0.9923default loss term (dB/km)	0.3790temperature slope calibration	1.0000multiplexer offset coefficient	1.0000multiplexer slope coefficient	1.0000fibre end	0.00T internal ref (°C)	30.25T ext. ref 1 (°C)	-0.28T ext. ref 2 (°C)	23.61length (m)	temperature (°C)	Stokes	anti-Stokes-747.200	5.325	-0.180	-0.134
-746.185	-4.562	-0.099	-0.069
-745.171	-6.508	0.058	-0.039
-744.156	-166.006	0.163	-0.007
-743.142	49.547	-0.253	0.239
-742.127	-53.248	-0.113	-0.052
-741.112	310.392	0.107	0.201
-740.098	391.718	-0.153	0.320
-739.083	-200.000	0.012	0.309
-738.069	147.615	-0.170	0.230
-737.054	-41.510	0.195	0.101
-736.039	90.553	-0.053	-0.060
-735.025	83.667	-0.062	-0.068
-734.010	-200.000	-0.030	-0.236
-732.996	-85.671	-0.162	-0.051
-731.981	-108.694	0.395	-0.085
-730.966	453.419	-0.224	-0.499
-729.952	148.369	-0.095	-0.130
-728.937	47.257	-0.099	-0.093
-727.923	193.425	0.128	0.195
-726.908	216.598	-0.233	-0.372
-725.894	193.805	0.200	0.304
-724.879	-98.361	-0.047	0.012
-723.864	13.061	-0.123	-0.096
-722.850	-129.526	-0.104	0.015
-721.835	-81.149	0.046	0.015
-720.821	-200.000	-0.028	-0.255
-719.806	-76.639	-0.365	-0.129
-718.791	-124.532	-0.129	0.020
-717.777	120.921	-0.023	0.029
-716.762	321.503	0.160	-0.307
-715.748	-24.079	-0.193	0.116
-714.733	50.384	0.196	-0.187
-713.718	-100.340	0.185	0.046
-712.704	135.085	-0.079	-0.103
-711.689	30.219	0.141	-0.121
-710.675	-33.268	0.368	-0.205
-709.660	-57.639	0.167	-0.074
-708.645	-154.693	-0.124	-0.008
-707.631	66.998	0.219	0.224
-706.616	-130.764	-0.203	-0.027
-705.602	-108.106	0.405	-0.088
-704.587	-85.488	-0.335	0.105
-703.572	-77.548	-0.141	-0.049
-702.558	190.196	0.230	-0.347
-701.543	-200.000	0.038	-0.252
-700.529	-2.643	-0.243	-0.171
-699.514	-103.740	-0.257	-0.061
-698.499	-39.583	-0.147	0.078
-697.485	-200.000	0.045	-0.248
-696.470	-200.000	0.019	-0.148
-695.456	-28.542	0.301	-0.174
-694.441	780.432	-0.091	-0.249
-693.426	-13.801	0.088	0.057
-692.412	634.860	0.095	-0.243
-691.397	-75.813	-0.272	0.097
-690.383	-71.529	0.113	-0.042
-689.368	334.137	-0.127	-0.247
-688.354	-84.137	0.441	0.141
-687.339	349.573	-0.021	0.042
-686.324	37.959	0.061	-0.054
-685.310	800.000	-0.065	-0.185
-684.295	336.371	0.072	-0.140
-683.281	233.447	-0.151	-0.250
-682.266	261.056	-0.112	0.194
-681.251	800.000	0.077	-0.239
-680.237	800.000	-0.095	-0.319
-679.222	-149.535	0.343	0.027
-678.208	-200.000	0.002	0.013
-677.193	800.000	0.017	0.056
-676.178	453.370	0.065	0.145
-675.164	-69.971	0.254	-0.097
-674.149	96.190	-0.204	-0.234
-673.135	711.225	0.083	0.221
-672.120	151.752	0.051	-0.070
-671.105	-200.000	0.006	0.058
-670.091	179.926	-0.274	0.403
-669.076	-200.000	-0.008	-0.387
-668.062	-3.295	0.083	-0.058
-667.047	-72.623	-0.305	-0.113
-666.032	-32.347	0.177	-0.099
-665.018	-57.566	0.031	-0.014
-664.003	537.735	-0.058	-0.139
-662.989	21.181	0.059	-0.048
-661.974	-119.850	0.094	-0.016
-660.959	-81.054	-0.428	-0.142
-659.945	-200.000	0.024	-0.266
-658.930	-123.617	-0.206	0.033
-657.916	800.000	-0.048	-0.137
-656.901	385.667	0.161	-0.332
-655.886	-200.000	-0.011	-0.365
-654.872	15.998	0.202	-0.160
-653.857	95.228	-0.100	0.114
-652.843	-200.000	0.040	-0.217
-651.828	213.692	-0.190	-0.302
-650.814	-200.000	-0.060	0.000
-649.799	-72.708	0.161	0.060
-648.784	72.312	0.250	0.261
-647.770	-145.547	-0.348	0.031
-646.755	-200.000	-0.031	0.163
-645.741	409.169	0.073	0.155
-644.726	-89.701	-0.366	0.108
-643.711	-41.269	0.107	0.055
-642.697	-30.643	0.189	-0.108
-641.682	-77.038	-0.170	0.060
-640.668	-109.340	0.136	0.029
-639.653	-58.330	-0.209	0.091
-638.638	-15.000	-0.036	-0.023
-637.624	513.760	-0.149	0.347
-636.609	-8.014	0.257	0.174
-635.595	219.955	-0.130	-0.209
-634.580	380.668	0.104	-0.214
-633.565	250.852	0.055	-0.094
-632.551	-186.368	0.235	0.003
-631.536	75.804	-0.155	-0.164
-630.522	-107.891	-0.159	0.035
-629.507	800.000	-0.035	-0.112
-628.492	321.921	0.094	0.179
-627.478	502.311	-0.029	0.067
-626.463	-61.326	-0.380	-0.160
-625.449	-159.050	0.055	0.003
-624.434	145.740	0.089	0.120
-623.419	800.000	0.020	0.062
-622.405	51.307	-0.104	-0.099
-621.390	-80.225	-0.277	-0.093
-620.376	75.821	0.143	-0.151
-619.361	643.625	-0.047	0.121
-618.346	62.456	0.140	0.140
-617.332	-200.000	-0.041	0.359
-616.317	-72.626	-0.074	0.027
-615.303	-6.101	0.166	0.114
-614.288	-32.359	0.038	0.021
-613.273	-200.000	0.039	-0.468
-612.259	800.000	-0.132	0.439
-611.244	-90.864	0.235	0.068
-610.230	500.539	-0.113	-0.261
-609.215	-154.771	-0.255	-0.017
-608.201	78.239	0.166	-0.177
-607.186	781.982	-0.266	-0.729
-606.171	110.082	-0.135	0.162
-605.157	129.379	0.151	0.193
-604.142	-71.370	0.254	0.095
-603.128	303.348	-0.144	0.268
-602.113	749.055	0.069	0.185
-601.098	36.261	0.255	-0.225
-600.084	-170.416	0.211	0.007
-599.069	-200.000	-0.017	-0.076
-598.055	315.730	0.103	-0.194
-597.040	156.841	0.020	-0.027
-596.025	28.158	0.110	-0.093
-595.011	123.563	0.222	-0.278
-593.996	120.713	0.136	0.170
-592.982	404.580	0.099	0.209
-591.967	48.811	0.079	0.074
-590.952	-150.117	0.013	-0.001
-589.938	800.000	-0.039	-0.164
-588.923	-83.847	-0.221	0.070
-587.909	-88.813	-0.129	0.038
-586.894	269.935	0.122	0.214
-585.879	800.000	0.039	-0.129
-584.865	-101.593	-0.356	-0.087
-583.850	66.305	0.146	-0.148
-582.836	-162.390	0.206	-0.010
-581.821	-88.255	0.061	-0.018
-580.806	-200.000	0.024	-0.112
-579.792	-105.156	-0.104	0.024
-578.777	188.144	-0.237	0.355
-577.763	-200.000	0.004	-0.043
-576.748	267.844	0.174	-0.304
-575.733	-107.457	-0.351	-0.077
-574.719	-15.084	-0.022	0.014
-573.704	-167.036	-0.123	0.005
-572.690	-146.647	0.296	0.026
-571.675	-73.378	-0.273	0.100
-570.661	-121.966	0.074	0.012
-569.646	236.994	-0.230	-0.381
-568.631	800.000	-0.072	0.301
-567.617	-118.913	0.396	-0.070
-566.602	800.000	-0.070	0.229
-565.588	-122.469	-0.224	0.036
-564.573	-8.720	0.233	-0.156
-563.558	800.000	0.031	-0.129
-562.544	44.259	0.155	0.142
-561.529	-200.000	0.007	0.271
-560.515	-83.871	-0.205	-0.065
-559.500	800.000	0.139	-0.487
-558.485	-200.000	-0.055	0.322
-557.471	-200.000	0.014	0.398
-556.456	-200.000	-0.023	-0.210
-555.442	-150.818	-0.137	0.010
-554.427	-200.000	0.014	0.160
-553.412	140.412	-0.057	-0.075
-552.398	-23.087	0.248	-0.149
-551.383	-49.394	-0.284	0.135
-550.369	-200.000	-0.023	-0.283
-549.354	-118.581	-0.218	0.039
-548.339	227.459	0.053	-0.087
-547.325	-200.000	0.031	0.217
-546.310	44.697	0.218	0.200
-545.296	800.000	0.063	-0.264
-544.281	32.109	-0.252	-0.217
-543.266	-40.396	0.161	0.084
-542.252	4.937	0.069	-0.050
-541.237	447.416	0.041	0.089
-540.223	-78.922	-0.354	-0.120
-539.208	-63.038	0.172	-0.071
-538.193	-76.504	-0.208	-0.073
-537.179	283.202	-0.065	0.116
-536.164	50.386	-0.146	0.137
-535.150	-138.550	0.264	-0.029
-534.135	-71.025	-0.174	0.065
-533.121	182.142	-0.107	0.157
-532.106	101.743	-0.189	-0.221
-531.091	-78.730	0.194	-0.066
-530.077	-40.697	-0.261	0.135
-529.062	350.804	0.052	0.103
-528.048	-45.720	-0.196	-0.097
-527.033	-141.481	-0.282	-0.028
-526.018	-120.609	0.275	0.046
-525.004	27.614	-0.154	-0.129
-523.989	283.134	-0.212	-0.380
-522.975	-200.000	-0.013	-0.162
-521.960	81.639	-0.318	0.343
-520.945	-200.000	-0.048	0.297
-519.931	-12.621	-0.283	0.184
-518.916	-3.258	0.228	0.158
-517.902	633.181	-0.054	0.137
-516.887	-30.334	-0.215	0.122
-515.872	6.215	0.137	0.101
-514.858	57.969	-0.348	0.340
-513.843	34.951	0.117	-0.102
-512.829	46.181	0.122	-0.112
-511.814	91.715	0.125	-0.140
-510.799	68.912	-0.062	0.064
-509.785	149.826	-0.130	0.175
-508.770	124.515	-0.201	-0.252
-507.756	180.187	0.186	0.272
-506.741	-72.498	-0.128	0.047
-505.726	-116.028	-0.453	0.084
-504.712	-81.208	0.136	-0.045
-503.697	369.718	0.206	0.415
-502.683	800.000	-0.039	0.144
-501.668	800.000	-0.007	-0.029
-500.653	-70.855	-0.364	0.137
-499.639	355.967	-0.034	0.068
-498.624	-200.000	-0.012	0.121
-497.610	419.366	0.068	0.146
-496.595	-200.000	-0.036	-0.309
-495.581	-13.351	-0.093	-0.060
-494.566	209.119	-0.106	0.165
-493.551	400.293	0.093	0.194
-492.537	-77.171	-0.153	0.053
-491.522	16.405	0.242	0.190
-490.508	800.000	0.007	-0.021
-489.493	55.793	-0.075	0.073
-488.478	233.015	-0.124	-0.203
-487.464	-0.029	0.193	-0.137
-486.449	-137.130	-0.101	-0.011
-485.435	29.476	-0.090	-0.077
-484.420	-78.115	0.110	0.038
-483.405	-128.080	-0.074	-0.011
-482.391	-63.912	-0.179	0.073
-481.376	-25.916	0.107	-0.063
-480.362	131.872	0.097	-0.124
-479.347	-134.134	-0.186	-0.023
-478.332	800.000	0.141	-0.393
-477.318	-45.165	-0.155	-0.077
-476.303	294.790	-0.188	-0.342
-475.289	800.000	0.059	-0.204
-474.274	-200.000	0.005	0.046
-473.259	-61.932	0.188	-0.078
-472.245	46.472	-0.116	0.107
-471.230	10.665	-0.185	0.141
-470.216	-39.209	-0.175	-0.092
-469.201	586.108	-0.123	-0.300
-468.186	685.059	0.140	-0.365
-467.172	-200.000	-0.027	-0.207
-466.157	-6.246	0.317	-0.215
-465.143	-84.558	-0.385	0.121
-464.128	-178.567	0.085	-0.002
-463.113	-200.000	0.012	0.286
-462.099	-0.986	0.188	0.132
-461.084	-200.000	0.012	-0.081
-460.070	506.455	0.084	-0.195
-459.055	-139.509	-0.167	-0.018
-458.040	-200.000	-0.041	-0.236
-457.026	-200.000	0.061	0.306
-456.011	134.941	-0.120	0.155
-454.997	-60.827	-0.257	0.108
-453.982	50.069	0.070	0.066
-452.968	35.384	-0.086	-0.075
-451.953	-87.002	-0.250	0.076
-450.938	800.000	0.037	-0.133
-449.924	-65.833	0.079	-0.031
-448.909	98.297	0.138	0.158
-447.895	-46.376	0.263	0.129
-446.880	-47.823	0.279	-0.134
-445.865	-200.000	0.023	-0.110
-444.851	73.964	-0.115	-0.120
-443.836	-200.000	-0.004	0.325
-442.822	-200.000	0.015	-0.084
-441.807	154.740	-0.073	-0.099
-440.792	-191.759	0.061	0.001
-439.778	-200.000	-0.002	0.289
-438.763	599.952	-0.098	-0.241
-437.749	-133.360	-0.195	0.024
-436.734	-135.607	0.382	-0.045
-435.719	163.084	0.022	-0.030
-434.705	-180.191	-0.092	0.002
-433.690	536.130	0.111	-0.261
-432.676	192.123	-0.190	-0.286
-431.661	-7.524	-0.254	-0.171
-430.646	508.449	0.076	0.175
-429.632	-129.613	-0.285	-0.039
-428.617	122.885	0.183	0.227
-427.603	-200.000	0.025	0.269
-426.588	195.780	-0.171	0.258
-425.573	117.141	0.089	0.109
-424.559	147.105	0.074	0.100
-423.544	0.320	0.108	0.077
-422.530	-200.000	-0.016	-0.070
-421.515	33.542	0.028	0.024
-420.500	800.000	0.095	-0.283
-419.486	-119.892	0.207	0.035
-418.471	-48.669	-0.129	-0.062
-417.457	-142.428	0.128	-0.012
-416.442	-66.888	0.316	0.124
-415.428	352.216	0.099	-0.196
-414.413	-200.000	-0.035	-0.254
-413.398	-200.000	0.018	-0.167
-412.384	-86.940	0.109	-0.033
-411.369	13.199	0.112	0.086
-410.355	2.909	-0.208	-0.150
-409.340	365.115	0.093	-0.187
-408.325	-58.172	-0.354	-0.153
-407.311	629.608	-0.137	-0.345
-406.296	-18.228	-0.026	0.016
-405.282	84.326	0.354	0.384
-404.267	215.559	-0.114	-0.180
-403.252	-200.000	0.020	0.361
-402.238	58.018	0.323	0.314
-401.223	231.151	-0.098	0.160
-400.209	-200.000	-0.031	0.250
-399.194	-175.587	-0.380	0.010
-398.179	-21.045	0.235	0.143
-397.165	-149.211	0.289	0.023
-396.150	-67.652	-0.196	0.076
-395.136	-142.711	-0.525	0.051
-394.121	477.852	-0.015	-0.034
-393.106	568.061	-0.119	0.288
-392.092	-121.102	-0.220	-0.037
-391.077	349.784	0.052	-0.102
-390.063	14.525	-0.112	0.086
-389.048	177.778	0.116	0.168
-388.033	52.575	0.148	-0.140
-387.019	-159.180	-0.039	0.002
-386.004	44.524	0.298	0.272
-384.990	-200.000	0.023	0.228
-383.975	191.769	-0.028	0.042
-382.960	10.497	-0.150	0.113
-381.946	800.000	-0.081	0.259
-380.931	-200.000	-0.021	0.169
-379.917	-41.678	0.148	0.076
-378.902	-193.391	0.088	-0.001
-377.888	165.686	-0.066	0.092
-376.873	-104.040	0.328	0.076
-375.858	800.000	0.039	0.135
-374.844	-54.109	0.091	0.041
-373.829	-200.000	-0.013	0.255
-372.815	74.623	-0.103	0.108
-371.800	-30.268	0.199	0.112
-370.785	216.337	-0.028	0.044
-369.771	-16.500	0.292	-0.184
-368.756	150.233	-0.220	-0.297
-367.742	-200.000	0.056	-0.358
-366.727	-37.544	0.105	-0.055
-365.712	-1.717	0.133	-0.093
-364.698	84.962	0.168	-0.183
-363.683	-65.087	-0.117	0.047
-362.669	707.620	-0.096	-0.252
-361.654	800.000	-0.011	-0.035
-360.639	-126.521	0.436	0.064
-359.625	800.000	0.080	0.244
-358.610	-78.237	0.198	0.067
-357.596	-111.912	-0.187	0.037
-356.581	-4.820	0.131	-0.089
-355.566	406.003	-0.148	0.309
-354.552	-62.224	0.367	-0.151
-353.537	-31.636	0.144	-0.080
-352.523	-161.164	-0.370	0.019
-351.508	-200.000	0.006	-0.065
-350.493	563.457	0.046	-0.112
-349.479	-73.573	0.127	-0.046
-348.464	-61.034	-0.232	-0.097
-347.450	-200.000	-0.017	-0.122
-346.435	800.000	-0.021	-0.061
-345.420	57.795	0.242	-0.234
-344.406	-108.036	-0.159	0.034
-343.391	-200.000	-0.019	-0.117
-342.377	-41.289	0.147	0.075
-341.362	-15.066	0.126	0.080
-340.348	-200.000	-0.023	-0.165
-339.333	-14.783	-0.130	-0.083
-338.318	800.000	0.110	0.309
-337.304	-200.000	0.102	0.517
-336.289	-200.000	-0.014	0.313
-335.275	-126.856	0.177	0.026
-334.260	-200.000	0.022	0.414
-333.245	-118.307	0.108	-0.019
-332.231	183.775	0.190	0.278
-331.216	800.000	0.082	0.327
-330.202	-200.000	-0.064	-0.440
-329.187	750.143	-0.075	-0.200
-328.172	-54.432	-0.162	0.073
-327.158	9.110	-0.125	-0.094
-326.143	-24.675	0.475	-0.280
-325.129	379.577	0.111	-0.226
-324.114	130.336	-0.204	-0.258
-323.099	-43.347	-0.206	0.103
-322.085	-76.408	-0.208	-0.072
-321.070	-102.178	0.389	0.093
-320.056	-121.021	0.138	-0.023
-319.041	90.224	0.067	0.074
-318.026	-200.000	0.035	0.193
-317.012	473.674	0.083	0.185
-315.997	175.784	-0.188	0.270
-314.983	74.472	-0.167	-0.174
-313.968	-128.649	-0.204	-0.028
-312.953	43.590	-0.041	-0.037
-311.939	310.757	0.153	0.284
-310.924	-98.174	-0.227	0.058
-309.910	18.894	0.105	0.083
-308.895	28.569	0.125	0.104
-307.880	297.066	-0.103	0.188
-306.866	201.747	-0.054	-0.083
-305.851	754.715	-0.045	-0.119
-304.837	-200.000	-0.018	-0.346
-303.822	-200.000	-0.012	-0.173
-302.807	-146.352	-0.500	0.043
-301.793	229.399	-0.052	-0.084
-300.778	232.190	0.122	-0.197
-299.764	778.557	-0.017	-0.046
-298.749	-103.895	-0.121	0.028
-297.735	-145.924	-0.210	-0.018
-296.720	-75.528	0.374	0.132
-295.705	-103.634	-0.155	-0.036
-294.691	-55.364	0.041	-0.018
-293.676	-52.622	-0.085	0.039
-292.662	354.693	-0.076	-0.150
-291.647	-200.000	0.067	-0.295
-290.632	-7.081	0.082	-0.055
-289.618	425.312	0.059	-0.125
-288.603	-200.000	-0.032	-0.139
-287.589	-25.268	0.156	-0.091
-286.574	-64.094	-0.113	-0.046
-285.559	-106.212	0.254	0.056
-284.545	403.193	0.079	-0.164
-283.530	-6.804	0.112	-0.075
-282.516	-14.520	0.320	-0.204
-281.501	90.107	-0.173	0.191
-280.486	800.000	0.053	0.190
-279.472	46.430	0.266	-0.244
-278.457	-200.000	-0.027	-0.151
-277.443	79.634	0.303	0.321
-276.428	800.000	-0.067	0.250
-275.413	307.910	-0.043	-0.079
-274.399	800.000	-0.151	0.443
-273.384	-200.000	-0.012	0.344
-272.370	-200.000	-0.025	-0.386
-271.355	46.985	0.147	0.135
-270.340	-3.203	-0.119	-0.082
-269.326	-200.000	-0.006	-0.148
-268.311	160.096	-0.071	-0.098
-267.297	64.359	0.228	0.226
-266.282	-27.684	-0.298	-0.171
-265.267	-200.000	0.061	-0.373
-264.253	-82.858	-0.174	-0.055
-263.238	-83.804	-0.458	0.144
-262.224	-200.000	-0.018	0.324
-261.209	-200.000	0.002	0.230
-260.195	-163.295	-0.132	0.006
-259.180	800.000	0.149	-0.499
-258.165	625.663	-0.098	-0.243
-257.151	800.000	-0.013	-0.052
-256.136	442.005	0.026	-0.056
-255.122	-94.714	0.102	-0.027
-254.107	397.738	0.072	0.148
-253.092	54.867	-0.110	0.105
-252.078	-150.061	0.181	-0.014
-251.063	-149.127	-0.360	-0.028
-250.049	254.314	-0.045	-0.075
-249.034	800.000	-0.076	-0.216
-248.019	-117.321	-0.192	-0.034
-247.005	-187.326	0.299	0.004
-245.990	564.988	0.117	0.281
-244.976	323.325	-0.116	0.219
-243.961	96.907	-0.146	-0.166
-242.946	-40.689	0.185	-0.095
-241.932	-31.541	-0.146	-0.081
-240.917	-200.000	0.051	0.235
-239.903	25.915	0.187	0.154
-238.888	264.122	-0.022	0.038
-237.873	-25.028	0.131	0.077
-236.859	92.954	0.227	-0.253
-235.844	-174.241	0.430	0.012
-234.830	402.107	-0.092	0.191
-233.815	800.000	-0.051	0.214
-232.800	135.415	-0.123	-0.158
-231.786	-96.150	0.286	0.075
-230.771	154.658	-0.204	-0.276
-229.757	-90.212	0.103	0.030
-228.742	-39.358	0.236	-0.122
-227.727	549.524	-0.067	-0.158
-226.713	600.105	-0.190	0.466
-225.698	800.000	-0.070	0.195
-224.684	-117.349	-0.354	-0.063
-223.669	-200.000	0.034	-0.204
-222.655	-199.233	-0.174	-0.001
-221.640	81.320	-0.155	-0.165
-220.625	545.424	0.092	0.218
-219.611	126.456	0.173	0.217
-218.596	99.794	0.087	-0.100
-217.582	800.000	0.082	-0.321
-216.567	-160.999	0.171	0.009
-215.552	-103.645	-0.135	-0.031
-214.538	80.499	-0.174	-0.185
-213.523	-200.000	-0.038	-0.183
-212.509	-79.923	0.256	0.085
-211.494	-150.091	0.211	-0.016
-210.479	-80.150	0.190	-0.063
-209.465	25.359	0.178	-0.146
-208.450	-200.000	-0.022	0.203
-207.436	-200.000	-0.002	-0.017
-206.421	202.933	0.112	0.170
-205.406	651.725	0.051	0.128
-204.392	56.037	0.089	-0.085
-203.377	43.166	-0.070	-0.063
-202.363	800.000	0.067	0.205
-201.348	-200.000	0.024	0.115
-200.333	71.463	-0.131	0.134
-199.319	42.803	0.020	-0.018
-198.304	371.949	0.103	-0.206
-197.290	289.397	-0.179	-0.320
-196.275	-96.962	0.127	-0.033
-195.260	-136.218	0.317	-0.036
-194.246	-24.562	-0.334	-0.196
-193.231	800.000	0.091	-0.251
-192.217	85.397	-0.155	0.168
-191.202	-200.000	-0.062	0.323
-190.187	155.246	-0.100	-0.135
-189.173	1.669	-0.127	-0.090
-188.158	2.329	0.160	0.114
-187.144	800.000	0.051	-0.201
-186.129	-200.000	0.077	-0.386
-185.114	256.661	0.044	-0.075
-184.100	137.837	0.139	-0.180
-183.085	-167.503	-0.241	-0.009
-182.071	-200.000	0.021	0.171
-181.056	-41.603	-0.120	0.061
-180.042	-200.000	-0.043	-0.284
-179.027	-0.770	0.270	-0.188
-178.012	-200.000	-0.016	-0.103
-176.998	100.201	0.126	0.144
-175.983	-72.444	0.506	-0.184
-174.969	151.055	0.158	0.211
-173.954	-23.828	0.018	-0.011
-172.939	119.802	0.145	0.177
-171.925	-143.691	-0.109	0.010
-170.910	-200.000	-0.004	-0.329
-169.896	-62.754	0.196	0.080
-168.881	-28.166	-0.240	0.136
-167.866	-127.607	-0.326	0.047
-166.852	-74.735	0.259	-0.091
-165.837	55.484	-0.186	-0.177
-164.823	800.000	-0.069	0.209
-163.808	-94.460	0.142	0.038
-162.793	-128.379	0.282	0.039
-161.779	233.369	-0.211	0.341
-160.764	-97.009	0.247	-0.064
-159.750	-200.000	0.003	-0.248
-158.735	198.785	0.140	-0.210
-157.720	800.000	-0.122	-0.348
-156.706	-140.746	0.102	-0.010
-155.691	800.000	-0.127	0.354
-154.677	516.458	-0.097	-0.224
-153.662	296.584	-0.176	-0.318
-152.647	800.000	0.016	0.064
-151.633	-83.973	-0.055	0.017
-150.618	200.587	0.175	-0.264
-149.604	800.000	-0.085	0.309
-148.589	223.158	-0.178	0.283
-147.574	-152.830	-0.323	0.023
-146.560	-36.409	0.118	-0.062
-145.545	-67.121	0.207	-0.080
-144.531	-156.835	0.270	-0.016
-143.516	245.639	-0.119	-0.197
-142.502	354.864	0.182	0.356
-141.487	200.179	-0.052	0.079
-140.472	20.772	0.048	-0.038
-139.458	539.041	-0.056	0.132
-138.443	-88.196	-0.249	0.073
-137.429	94.521	0.078	0.087
-136.414	103.219	0.167	0.192
-135.399	-107.459	0.177	0.038
-134.385	800.000	-0.034	0.109
-133.370	-46.789	0.125	-0.060
-132.356	381.498	-0.096	0.194
-131.341	800.000	0.099	0.287
-130.326	473.829	0.142	0.314
-129.312	0.471	0.303	-0.213
-128.297	132.478	0.071	-0.090
-127.283	-200.000	-0.019	-0.235
-126.268	-156.554	0.340	0.021
-125.253	-101.997	0.080	-0.019
-124.239	77.455	0.148	0.155
-123.224	61.610	0.174	-0.170
-122.210	244.299	-0.092	-0.151
-121.195	782.645	0.059	-0.160
-120.180	73.520	-0.170	-0.175
-119.166	-27.768	-0.087	-0.050
-118.151	48.535	0.160	-0.147
-117.137	-52.577	-0.274	0.124
-116.122	414.565	0.108	0.226
-115.107	-200.000	-0.070	0.624
-114.093	-33.898	0.115	-0.062
-113.078	-51.133	-0.138	0.064
-112.064	-37.289	-0.074	0.039
-111.049	431.146	0.060	0.127
-110.034	-32.873	-0.065	-0.035
-109.020	-200.000	-0.021	-0.334
-108.005	800.000	0.051	-0.194
-106.991	-127.494	0.196	0.028
-105.976	45.150	0.079	-0.072
-104.962	-200.000	-0.074	0.446
-103.947	-67.401	0.167	-0.064
-102.932	278.038	0.175	0.307
-101.918	33.860	-0.099	0.085
-100.903	800.000	0.039	-0.139
-99.889	-150.477	0.219	-0.016
-98.874	-200.000	-0.007	0.353
-97.859	739.161	-0.110	0.290
-96.845	-40.524	0.270	0.138
-95.830	381.364	-0.046	0.093
-94.816	-64.141	-0.116	0.046
-93.801	397.347	0.198	-0.407
-92.786	289.731	0.041	-0.073
-91.772	85.276	0.261	-0.281
-90.757	21.301	0.290	-0.231
-89.743	800.000	0.041	0.129
-88.728	19.670	-0.135	-0.106
-87.713	-30.659	-0.155	-0.086
-86.699	-200.000	0.057	-0.319
-85.684	38.376	0.176	-0.154
-84.670	60.763	0.276	-0.268
-83.655	217.606	-0.073	-0.113
-82.640	15.698	-0.337	0.260
-81.626	18.097	-0.302	0.236
-80.611	-150.498	-0.240	0.018
-79.597	128.206	-0.098	0.122
-78.582	800.000	-0.022	-0.063
-77.567	-138.135	0.082	-0.009
-76.553	-69.671	0.108	-0.041
-75.538	800.000	-0.135	-0.513
-74.524	-97.965	-0.346	-0.088
-73.509	-200.000	0.039	0.169
-72.494	12.600	0.197	0.149
-71.480	-14.381	-0.038	0.024
-70.465	152.043	0.191	-0.256
-69.451	189.613	0.065	0.095
-68.436	-200.000	-0.066	0.314
-67.422	800.000	0.010	0.042
-66.407	-140.712	-0.267	-0.027
-65.392	-157.304	-0.170	-0.010
-64.378	800.000	0.028	-0.105
-63.363	-148.385	-0.175	-0.014
-62.349	457.403	0.076	-0.166
-61.334	80.355	-0.965	-1.018
-60.319	23.038	0.457	0.367
-59.305	561.603	-0.426	-1.009
-58.290	572.725	0.573	1.369
-57.276	325.689	0.840	1.574
-56.261	-200.000	103.813	616.721
-55.246	524.687	1474.401	3398.367
-54.232	181.584	2667.381	3845.200
-53.217	113.717	2170.916	2584.181
-52.203	40.947	1694.457	1498.420
-51.188	33.434	1504.044	1279.478
-50.173	30.991	1477.803	1240.872
-49.159	51.748	1532.134	1427.770
-48.144	52.441	1548.966	1448.101
-47.130	33.715	1505.670	1282.561
-46.115	30.463	1491.092	1248.282
-45.100	30.333	1487.613	1244.449
-44.086	30.292	1485.405	1242.277
-43.071	30.297	1483.230	1240.441
-42.057	30.210	1481.729	1238.560
-41.042	30.252	1479.995	1237.337
-40.027	30.340	1478.564	1236.682
-39.013	30.223	1477.184	1234.699
-37.998	30.250	1475.687	1233.580
-36.984	30.217	1475.009	1232.743
-35.969	30.302	1473.579	1232.065
-34.954	30.198	1472.390	1230.331
-33.940	30.154	1470.867	1228.714
-32.925	30.327	1469.252	1228.462
-31.911	30.335	1468.328	1227.693
-30.896	30.317	1467.106	1226.508
-29.881	30.289	1465.519	1224.944
-28.867	30.417	1464.023	1224.494
-27.852	30.309	1463.030	1222.898
-26.838	30.363	1461.269	1221.735
-25.823	30.142	1460.070	1219.231
-24.809	30.287	1458.083	1218.474
-23.794	30.323	1456.627	1217.448
-22.779	30.262	1455.600	1216.141
-21.765	30.350	1454.924	1216.103
-20.750	30.282	1453.969	1214.814
-19.736	30.335	1452.643	1214.003
-18.721	30.253	1451.375	1212.357
-17.706	30.238	1450.504	1211.483
-16.692	30.382	1448.887	1211.026
-15.677	30.293	1448.315	1209.919
-14.663	30.220	1447.770	1208.938
-13.648	30.235	1446.576	1207.997
-12.633	30.282	1445.377	1207.248
-11.619	30.191	1444.751	1206.087
-10.604	30.135	1444.141	1205.169
-9.590	30.174	1443.289	1204.660
-8.575	30.083	1442.589	1203.437
-7.560	30.120	1441.306	1202.562
-6.546	30.220	1440.479	1202.470
-5.531	30.233	1439.690	1201.850
-4.517	30.167	1438.864	1200.681
-3.502	30.181	1437.613	1199.684
-2.487	30.181	1436.697	1198.870
-1.473	30.131	1435.719	1197.682
-0.458	30.229	1433.638	1196.531
0.556	28.009	1424.408	1185.506
1.571	24.938	1399.387	1144.979
2.586	21.455	1339.275	1074.346
3.600	19.957	1257.611	1000.096
4.615	18.728	1213.495	958.077
5.629	16.084	1159.314	901.105
6.644	7.724	1076.461	794.982
7.659	0.879	1036.314	732.226
8.673	-0.070	1030.762	723.670
9.688	-0.350	1027.628	720.066
10.702	-0.325	1025.766	718.816
11.717	-0.395	1024.149	717.284
12.731	2.622	1027.149	733.779
13.746	11.336	1039.106	784.316
14.761	18.133	1047.876	823.718
15.775	19.519	1049.139	831.321
16.790	19.703	1048.483	831.611
17.804	19.443	1047.609	829.595
18.819	19.265	1046.680	827.929
19.834	19.347	1046.412	828.038
20.848	19.441	1045.992	828.085
21.863	19.428	1045.649	827.678
22.877	19.410	1045.043	827.036
23.892	19.415	1044.256	826.366
24.907	19.344	1043.526	825.377
25.921	19.286	1042.787	824.441
26.936	19.472	1041.954	824.599
27.950	19.376	1041.105	823.396
28.965	19.300	1039.799	821.926
29.980	19.238	1038.034	820.165
30.994	19.309	1036.672	819.350
32.009	19.393	1035.903	819.070
33.023	19.411	1035.459	818.733
34.038	19.213	1033.979	816.551
35.053	19.221	1033.081	815.810
36.067	19.357	1032.726	816.101
37.082	19.422	1031.723	815.541
38.096	19.666	1030.751	815.854
39.111	19.677	1030.193	815.394
40.126	19.714	1029.081	814.612
41.140	19.678	1027.564	813.174
42.155	19.479	1026.540	811.356
43.169	19.239	1025.519	809.347
44.184	19.120	1023.975	807.498
45.199	19.220	1023.319	807.380
46.213	19.069	1022.224	805.738
47.228	19.084	1021.047	804.807
48.242	19.120	1020.135	804.188
49.257	19.236	1018.858	803.652
50.271	19.323	1018.497	803.699
51.286	19.402	1017.644	803.321
52.301	19.474	1016.677	802.823
53.315	19.503	1015.844	802.231
54.330	19.454	1015.128	801.365
55.344	19.449	1014.402	800.700
56.359	19.482	1013.293	799.906
57.374	19.460	1012.586	799.173
58.388	19.269	1011.319	797.218
59.403	19.077	1011.084	796.076
60.417	19.252	1010.338	796.229
61.432	19.124	1009.066	794.563
62.447	19.157	1008.396	794.117
63.461	19.238	1008.348	794.386
64.476	19.303	1007.059	793.597
65.490	19.296	1005.802	792.505
66.505	19.187	1005.135	791.407
67.520	19.225	1004.212	790.785
68.534	19.414	1003.305	790.869
69.549	19.358	1002.166	789.644
70.563	18.872	1001.475	786.803
71.578	18.936	1000.001	785.872
72.593	18.913	999.331	785.170
73.607	18.790	998.495	783.883
74.622	18.793	997.731	783.226
75.636	18.980	996.689	783.190
76.651	19.169	995.999	783.440
77.666	19.068	995.238	782.313
78.680	18.986	994.101	780.975
79.695	19.092	993.608	781.000
80.709	19.176	993.269	781.044
81.724	19.221	992.376	780.477
82.739	19.210	991.021	779.293
83.753	19.195	990.438	778.698
84.768	19.409	989.900	779.175
85.782	19.764	989.234	780.181
86.797	19.643	988.519	779.005
87.812	19.577	987.559	777.883
88.826	19.441	986.702	776.527
89.841	19.421	986.004	775.816
90.855	19.824	984.375	776.277
91.870	19.832	983.507	775.561
92.884	19.740	983.253	774.878
93.899	19.539	981.893	772.836
94.914	19.372	981.141	771.431
95.928	19.609	980.589	771.988
96.943	19.684	979.468	771.374
97.957	19.339	978.153	768.731
98.972	19.232	977.402	767.594
99.987	19.138	975.812	765.860
101.001	19.076	975.353	765.158
102.016	19.366	974.799	765.942
103.030	19.528	973.830	765.830
104.045	19.386	972.855	764.368
105.060	19.198	971.385	762.314
106.074	19.024	970.547	760.818
107.089	19.202	969.893	761.027
108.103	19.323	970.119	761.671
109.118	19.647	968.349	761.644
110.133	19.394	967.133	759.506
111.147	19.374	966.116	758.549
112.162	19.156	965.166	756.780
113.176	18.934	964.005	754.830
114.191	19.147	962.820	754.766
115.206	19.237	962.611	754.932
116.220	18.959	961.242	752.572
117.235	18.749	960.427	750.949
118.249	19.067	959.244	751.347
119.264	18.930	958.736	750.284
120.279	18.972	957.548	749.473
121.293	18.945	957.065	748.912
122.308	19.096	956.215	748.836
123.322	19.106	955.363	748.148
124.337	19.031	954.144	746.801
125.352	18.863	952.997	745.106
126.366	18.669	950.802	742.489
127.381	18.225	949.753	739.683
128.395	18.636	949.491	741.190
129.410	19.358	948.686	743.610
130.424	19.526	947.872	743.628
131.439	19.521	947.003	742.861
132.454	19.364	945.913	741.264
133.468	19.431	944.733	740.561
134.483	19.227	944.641	739.549
135.497	19.317	943.836	739.238
136.512	19.475	943.320	739.445
137.527	19.717	942.237	739.568
138.541	19.634	941.482	738.555
139.556	19.786	940.442	738.324
140.570	19.659	939.595	737.052
141.585	19.719	938.484	736.372
142.600	19.710	937.928	735.829
143.614	19.528	937.295	734.496
144.629	19.725	936.720	734.816
145.643	19.899	935.573	734.589
146.658	19.757	934.718	733.252
147.673	19.574	933.818	731.706
148.687	19.628	932.646	730.953
149.702	19.629	931.344	729.869
150.716	19.490	930.479	728.543
151.731	19.457	929.166	727.312
152.746	19.456	928.784	726.944
153.760	19.668	928.454	727.511
154.775	19.827	927.282	727.198
155.789	19.978	926.309	727.005
156.804	19.669	926.202	725.559
157.819	19.760	924.791	724.770
158.833	19.761	923.711	723.865
159.848	19.853	923.097	723.703
160.862	19.914	922.361	723.319
161.877	19.708	921.401	721.641
162.892	19.617	920.822	720.745
163.906	19.860	919.837	720.924
164.921	19.822	919.003	720.045
165.935	19.840	917.819	719.132
166.950	19.930	916.878	718.702
167.964	19.743	916.261	717.381
168.979	19.815	915.152	716.747
169.994	19.761	913.816	715.413
171.008	19.616	913.253	714.310
172.023	19.701	912.394	713.927
173.037	19.857	911.879	714.102
174.052	19.690	910.278	712.097
175.067	19.525	909.285	710.579
176.081	19.635	908.476	710.337
177.096	19.724	907.815	710.123
178.110	19.744	906.918	709.441
179.125	19.586	905.839	707.885
180.140	19.184	905.188	705.667
181.154	19.149	904.500	704.927
182.169	19.334	903.965	705.203
183.183	19.565	903.798	705.954
184.198	19.922	902.638	706.445
185.213	19.780	902.484	705.682
186.227	19.681	901.628	704.545
187.242	19.871	901.288	704.994
188.256	19.754	900.438	703.787
189.271	19.853	899.188	703.152
190.286	19.849	899.259	703.128
191.300	19.737	898.272	701.842
192.315	19.193	897.014	698.590
193.329	18.744	895.009	695.148
194.344	18.196	894.766	692.679
195.359	18.886	894.402	695.128
196.373	19.601	894.664	698.163
197.388	19.786	894.394	698.636
198.402	19.682	893.618	697.550
199.417	19.612	892.470	696.308
200.432	19.585	892.427	696.103
201.446	19.461	891.561	694.867
202.461	19.257	890.473	693.140
203.475	19.234	890.083	692.682
204.490	18.934	888.409	690.115
205.504	17.718	886.923	684.022
206.519	18.312	886.845	686.285
207.534	19.154	887.288	689.942
208.548	19.240	886.628	689.712
209.563	19.651	886.494	691.190
210.577	19.666	885.726	690.592
211.592	19.326	884.798	688.447
212.607	19.758	884.275	689.705
213.621	19.875	883.833	689.767
214.636	19.779	883.234	688.857
215.650	19.878	882.785	688.839
216.665	19.799	881.811	687.702
217.680	19.833	881.620	687.629
218.694	19.879	880.630	686.975
219.709	19.604	879.534	684.969
220.723	19.039	879.186	682.397
221.738	19.372	878.852	683.399
222.753	19.819	877.823	684.309
223.767	19.651	877.188	683.089
224.782	19.755	876.255	682.711
225.796	19.841	876.071	682.848
226.811	19.964	875.179	682.575
227.826	19.578	873.954	680.040
228.840	18.764	872.461	675.619
229.855	18.818	871.776	675.242
230.869	19.112	871.588	676.191
231.884	18.751	870.533	673.895
232.899	18.753	870.342	673.694
233.913	19.658	869.954	676.883
234.928	19.691	869.877	676.891
235.942	19.486	869.137	675.453
236.957	19.781	867.999	675.664
237.972	19.470	867.004	673.614
238.986	19.394	866.460	672.834
240.001	19.390	866.192	672.553
241.015	19.461	865.485	672.220
242.030	19.531	864.785	671.890
243.045	19.587	864.302	671.673
244.059	19.703	863.900	671.753
245.074	19.849	863.577	672.008
246.088	19.818	862.707	671.153
247.103	19.411	861.525	668.596
248.117	19.480	860.731	668.187
249.132	19.825	860.811	669.525
250.147	20.242	860.238	670.636
251.161	20.231	859.886	670.257
252.176	20.319	859.250	670.041
253.190	20.420	858.640	669.896
254.205	20.452	857.919	669.396
255.220	20.579	857.789	669.727
256.234	20.745	856.660	669.425
257.249	20.490	856.323	668.120
258.263	20.385	855.375	666.919
259.278	20.455	854.742	666.635
260.293	20.516	854.686	666.766
261.307	20.441	853.939	665.839
262.322	20.528	853.056	665.422
263.336	20.364	852.181	664.056
264.351	19.903	850.722	661.099
265.366	18.688	849.038	655.097
266.380	18.282	848.182	652.831
267.395	19.408	848.078	656.984
268.409	20.128	848.440	659.949
269.424	19.952	847.829	658.747
270.439	20.123	847.337	658.956
271.453	20.355	846.561	659.175
272.468	20.276	846.242	658.566
273.482	20.429	845.616	658.604
274.497	20.602	845.598	659.186
275.512	20.409	844.245	657.343
276.526	19.952	842.694	654.348
277.541	20.142	842.413	654.793
278.555	20.518	841.823	655.693
279.570	20.191	841.456	654.116
280.585	20.006	840.314	652.474
281.599	20.086	839.805	652.322
282.614	20.246	839.418	652.568
283.628	19.839	838.295	650.108
284.643	19.487	837.700	648.265
285.657	19.879	837.569	649.580
286.672	19.908	836.703	648.957
287.687	19.543	835.337	646.475
288.701	19.716	835.789	647.416
289.716	20.031	835.328	648.181
290.730	19.819	834.130	646.403
291.745	19.630	833.778	645.366
292.760	19.424	832.746	643.740
293.774	19.354	832.162	642.972
294.789	20.250	832.605	646.597
295.803	20.891	832.265	648.665
296.818	20.913	831.828	648.345
297.833	21.068	831.548	648.649
298.847	20.725	830.159	646.233
299.862	20.531	829.229	644.734
300.876	20.532	828.987	644.491
301.891	20.939	828.436	645.512
302.906	20.736	828.366	644.651
303.920	20.545	826.983	642.809
304.935	20.219	826.487	641.164
305.949	20.617	826.136	642.304
306.964	20.876	825.238	642.505
307.979	20.735	824.767	641.563
308.993	20.609	824.371	640.733
310.008	20.924	823.824	641.411
311.022	21.014	823.823	641.683
312.037	20.915	822.632	640.336
313.052	20.759	822.394	639.521
314.066	20.604	821.621	638.295
315.081	20.007	820.065	634.840
316.095	19.230	818.958	631.082
317.110	19.910	819.168	633.678
318.125	20.618	819.558	636.519
319.139	20.291	818.049	634.093
320.154	19.197	816.674	628.978
321.168	18.774	816.101	626.939
322.183	19.562	815.720	629.463
323.197	20.213	816.410	632.314
324.212	20.578	815.958	633.239
325.227	20.552	815.893	633.038
326.241	20.762	814.919	632.990
327.256	20.689	814.759	632.545
328.270	20.602	813.972	631.560
329.285	20.621	812.955	630.784
330.300	20.479	812.113	629.562
331.314	20.140	811.516	627.817
332.329	20.324	810.645	627.751
333.343	20.579	810.838	628.769
334.358	20.817	810.451	629.272
335.373	20.706	810.059	628.511
336.387	20.767	809.220	628.025
337.402	20.973	809.205	628.699
338.416	21.153	808.639	628.855
339.431	21.024	807.731	627.629
340.446	21.075	807.582	627.640
341.460	21.228	807.022	627.699
342.475	21.247	806.099	626.992
343.489	20.888	805.460	625.154
344.504	21.102	805.054	625.551
345.519	21.147	804.906	625.543
346.533	21.385	804.263	625.839
347.548	21.530	803.828	625.963
348.562	21.597	803.605	625.974
349.577	21.553	803.035	625.319
350.592	21.473	802.737	624.744
351.606	21.596	801.819	624.413
352.621	21.478	801.453	623.652
353.635	21.423	801.078	623.110
354.650	21.318	800.376	622.134
355.665	21.140	799.218	620.545
356.679	19.963	797.847	615.246
357.694	19.900	797.366	614.597
358.708	20.558	797.560	617.030
359.723	20.482	796.678	616.022
360.738	20.749	796.649	616.893
361.752	21.141	796.528	618.134
362.767	21.136	796.463	618.010
363.781	21.463	795.823	618.614
364.796	21.651	795.401	618.897
365.810	21.668	795.375	618.882
366.825	21.805	794.742	618.820
367.840	21.805	794.075	618.244
368.854	21.633	793.570	617.192
369.869	21.315	792.837	615.444
370.883	21.129	792.498	614.473
371.898	21.299	791.883	614.540
372.913	21.104	791.034	613.142
373.927	21.159	790.135	612.584
374.942	21.219	790.028	612.659
375.956	21.363	789.533	612.725
376.971	21.495	788.832	612.588
377.986	21.577	788.448	612.522
379.000	21.786	788.004	612.853
380.015	21.835	787.807	612.818
381.029	21.667	786.844	611.426
382.044	21.518	786.404	610.513
383.059	21.642	786.062	610.624
384.073	21.832	785.266	610.616
385.088	21.748	784.737	609.857
386.102	21.904	784.487	610.149
387.117	21.684	783.683	608.708
388.132	21.598	783.340	608.088
389.146	21.473	782.521	606.965
390.161	20.814	781.952	604.185
391.175	20.916	781.362	604.027
392.190	21.377	781.557	605.723
393.205	21.544	780.849	605.700
394.219	20.641	779.460	601.449
395.234	19.123	777.154	594.378
396.248	18.453	776.439	591.467
397.263	19.562	777.350	595.939
398.278	21.205	777.995	602.051
399.292	21.859	777.606	603.948
400.307	21.443	777.134	602.097
401.321	21.347	776.888	601.521
402.336	21.626	776.381	602.035
403.350	21.605	776.126	601.714
404.365	21.846	776.486	602.766
405.380	22.273	775.934	603.749
406.394	22.445	775.575	604.007
407.409	22.622	775.244	604.305
408.423	22.530	775.067	603.798
409.438	22.374	774.619	602.860
410.453	22.318	773.935	602.084
411.467	22.400	773.486	601.962
412.482	22.437	772.648	601.381
413.496	22.358	772.398	600.865
414.511	22.411	772.042	600.715
415.526	22.443	771.879	600.644
416.540	22.283	771.908	600.067
417.555	22.580	770.734	600.114
418.569	22.169	769.861	597.984
419.584	22.122	769.458	597.456
420.599	22.197	768.870	597.204
421.613	158.828	1361.103	1798.492
422.628	136.936	1447.394	1798.602
