DTS Sentinel unit serial number:	SN413079Multiplexer serial number:	ORYXHardware model number:	OX4-SRSoftware version number:	ORYX F/W v4.00 Oryx Data Collector v3.7.2.0data status	okinstallation	princeton_trtdifferential loss correction	single-endedforward channel	channel 3reverse channel	N/Adate	2019/09/16time	02:56:34forward acquisition time	60.00reverse acquisition time	0.00gamma	496.2192k internal	0.2334k external	0.2334temperature offset calibration	0.9953default loss term (dB/km)	0.3790temperature slope calibration	1.0000multiplexer offset coefficient	1.0000multiplexer slope coefficient	1.0000fibre end	0.00T internal ref (°C)	27.75T ext. ref 1 (°C)	10.40T ext. ref 2 (°C)	22.18length (m)	temperature (°C)	Stokes	anti-Stokes-747.200	-2.531	-0.257	0.181
-746.185	78.471	-0.083	0.090
-745.171	-200.000	-0.064	0.360
-744.156	-200.000	0.032	0.190
-743.142	-200.000	-0.001	-0.078
-742.127	-200.000	-0.042	0.374
-741.112	97.942	0.280	-0.324
-740.098	-106.698	-0.229	-0.051
-739.083	202.911	0.049	-0.076
-738.069	76.025	0.214	0.228
-737.054	-146.425	-0.406	-0.036
-736.039	800.000	0.047	-0.134
-735.025	-106.666	0.287	-0.064
-734.010	-91.793	-0.025	-0.007
-732.996	-200.000	-0.042	0.214
-731.981	-30.159	-0.352	0.201
-730.966	800.000	0.095	-0.301
-729.952	742.729	-0.021	0.056
-728.937	0.007	0.147	0.105
-727.923	244.458	0.074	0.125
-726.908	-137.621	-0.020	-0.002
-725.894	-141.681	-0.621	0.063
-724.879	-114.235	0.080	-0.015
-723.864	-200.000	-0.047	-0.355
-722.850	451.725	-0.156	-0.346
-721.835	-200.000	-0.094	-0.557
-720.821	51.409	-0.095	0.090
-719.806	-158.997	0.367	-0.021
-718.791	-131.345	-0.303	0.040
-717.777	-22.373	0.104	-0.063
-716.762	334.601	-0.100	-0.195
-715.748	237.355	0.075	-0.125
-714.733	-67.990	-0.205	0.080
-713.718	541.715	-0.110	-0.262
-712.704	-63.678	-0.141	-0.058
-711.689	-200.000	0.052	0.245
-710.675	-79.005	-0.303	0.103
-709.660	-87.299	0.108	0.033
-708.645	800.000	0.045	0.158
-707.631	-78.609	-0.235	-0.081
-706.616	-144.642	0.337	0.031
-705.602	-127.953	-0.366	0.053
-704.587	182.983	0.106	0.157
-703.572	2.511	0.146	0.106
-702.558	312.249	0.047	-0.088
-701.543	-200.000	-0.029	-0.143
-700.529	48.397	-0.077	-0.073
-699.514	-1.853	-0.187	-0.132
-698.499	487.321	-0.096	-0.220
-697.485	-18.575	0.414	0.259
-696.470	120.256	-0.229	0.286
-695.456	-200.000	0.042	0.319
-694.441	291.163	0.055	0.100
-693.426	-95.485	0.302	0.081
-692.412	166.860	-0.148	-0.211
-691.397	10.606	-0.091	-0.070
-690.383	-200.000	0.015	-0.075
-689.368	-22.007	0.183	0.112
-688.354	185.421	-0.090	-0.134
-687.339	-97.090	0.124	-0.033
-686.324	345.160	0.042	-0.082
-685.310	594.437	-0.126	-0.312
-684.295	87.854	-0.038	0.042
-683.281	800.000	-0.028	-0.085
-682.266	-33.274	-0.325	0.181
-681.251	-200.000	-0.006	-0.185
-680.237	-38.814	0.088	0.046
-679.222	-88.598	-0.310	-0.093
-678.208	-135.139	-0.121	0.015
-677.193	-200.000	0.002	0.061
-676.178	43.420	-0.013	0.012
-675.164	-1.521	0.142	0.100
-674.149	129.779	0.100	-0.128
-673.135	-15.565	-0.341	-0.218
-672.120	-13.911	-0.165	0.107
-671.105	-200.000	0.017	-0.507
-670.091	-151.309	-0.158	0.012
-669.076	136.414	0.183	-0.239
-668.062	142.979	0.123	-0.164
-667.047	74.196	-0.141	-0.148
-666.032	-200.000	0.002	-0.450
-665.018	800.000	0.083	0.340
-664.003	476.004	0.148	0.335
-662.989	143.698	0.310	-0.414
-661.974	227.444	0.183	-0.299
-660.959	421.478	0.096	-0.207
-659.945	39.892	0.228	-0.205
-658.930	221.280	-0.128	0.207
-657.916	340.774	0.039	-0.077
-656.901	39.942	-0.154	0.139
-655.886	18.083	-0.129	-0.103
-654.872	-21.633	-0.340	-0.207
-653.857	-123.558	0.416	0.066
-652.843	126.357	0.005	0.007
-651.828	-60.290	-0.106	-0.045
-650.814	-33.895	0.192	0.106
-649.799	800.000	0.085	0.294
-648.784	189.126	0.171	-0.256
-647.770	800.000	0.072	-0.301
-646.755	380.613	-0.127	0.261
-645.741	12.314	0.100	0.077
-644.726	279.028	-0.111	-0.198
-643.711	8.632	0.026	-0.020
-642.697	31.640	0.032	-0.027
-641.682	800.000	-0.108	0.343
-640.668	-200.000	-0.021	-0.119
-639.653	-88.598	-0.260	-0.078
-638.638	3.117	-0.310	0.225
-637.624	-200.000	-0.038	0.192
-636.609	-200.000	0.031	-0.265
-635.595	369.724	0.052	0.106
-634.580	-166.424	-0.138	-0.006
-633.565	8.858	0.053	-0.040
-632.551	217.288	-0.033	-0.053
-631.536	800.000	-0.108	-0.409
-630.522	800.000	0.094	0.286
-629.507	5.122	-0.243	-0.179
-628.492	-164.271	0.013	-0.001
-627.478	-200.000	0.044	-0.307
-626.463	-106.999	0.278	0.062
-625.449	90.718	0.146	-0.164
-624.434	715.081	-0.076	0.202
-623.419	198.692	0.040	-0.061
-622.405	264.075	-0.067	-0.116
-621.390	-128.151	-0.047	-0.007
-620.376	-127.287	0.068	0.010
-619.361	284.869	-0.089	-0.161
-618.346	2.895	0.075	0.055
-617.332	0.229	-0.097	0.069
-616.317	800.000	-0.096	-0.381
-615.303	28.144	-0.135	-0.114
-614.288	295.950	0.222	0.408
-613.273	800.000	-0.062	-0.177
-612.259	-76.634	-0.255	-0.089
-611.244	538.293	-0.101	-0.241
-610.230	800.000	-0.045	-0.140
-609.215	-200.000	-0.016	0.210
-608.201	-5.039	0.145	0.100
-607.186	800.000	-0.085	-0.265
-606.171	-90.159	0.172	-0.050
-605.157	141.702	0.127	0.168
-604.142	311.608	-0.067	-0.126
-603.128	449.599	-0.032	-0.070
-602.113	-40.115	0.112	-0.058
-601.098	203.567	0.098	0.152
-600.084	165.838	-0.112	0.158
-599.069	800.000	0.046	0.150
-598.055	-164.962	-0.253	-0.011
-597.040	800.000	-0.018	-0.071
-596.025	336.469	-0.086	-0.167
-595.011	42.895	0.244	-0.222
-593.996	125.376	0.274	-0.346
-592.982	127.918	0.144	-0.183
-591.967	293.406	-0.106	0.193
-590.952	-147.213	0.144	-0.012
-589.938	-89.359	-0.133	-0.039
-588.923	199.994	0.015	0.023
-587.909	-1.099	0.259	0.183
-586.894	33.619	0.125	-0.108
-585.879	639.122	0.017	-0.044
-584.865	-80.928	-0.264	-0.087
-583.850	719.291	0.147	-0.390
-582.836	16.666	-0.062	0.049
-581.821	-7.809	-0.059	0.040
-580.806	37.597	-0.255	0.226
-579.792	-200.000	-0.026	-0.241
-578.777	525.458	-0.165	0.389
-577.763	-159.988	-0.427	0.023
-576.748	800.000	-0.163	-0.537
-575.733	371.225	0.090	0.182
-574.719	-200.000	0.071	-0.359
-573.704	-69.726	0.249	0.095
-572.690	-200.000	0.022	0.429
-571.675	-176.291	-0.171	-0.004
-570.661	-59.041	0.245	0.106
-569.646	-178.636	-0.517	0.012
-568.631	-200.000	0.022	0.193
-567.617	-111.504	0.158	-0.032
-566.602	-200.000	0.053	-0.351
-565.588	75.998	-0.063	-0.066
-564.573	60.413	0.131	-0.129
-563.558	-153.717	-0.331	-0.023
-562.544	-10.609	-0.217	0.143
-561.529	800.000	0.020	-0.072
-560.515	-110.846	-0.311	0.064
-559.500	-121.823	0.467	-0.077
-558.485	-155.173	-0.181	0.012
-557.471	800.000	0.082	0.299
-556.456	92.757	-0.162	0.183
-555.442	-63.201	0.266	-0.109
-554.427	83.576	0.087	-0.095
-553.412	800.000	-0.027	0.100
-552.398	736.099	0.072	-0.193
-551.383	68.489	-0.037	-0.038
-550.369	441.705	0.100	0.218
-549.354	-144.394	0.269	-0.025
-548.339	7.207	0.109	-0.081
-547.325	96.656	0.219	-0.250
-546.310	-71.110	-0.122	0.046
-545.296	76.458	-0.285	-0.301
-544.281	216.730	0.098	-0.155
-543.266	-200.000	-0.000	-0.062
-542.252	40.532	0.183	-0.165
-541.237	-9.480	-0.184	-0.122
-540.223	337.625	0.060	0.116
-539.208	166.189	0.251	0.354
-538.193	65.481	0.281	0.283
-537.179	37.507	0.155	0.137
-536.164	427.889	-0.188	-0.405
-535.150	-200.000	-0.015	0.166
-534.135	-51.590	-0.322	-0.150
-533.121	-77.928	-0.266	-0.092
-532.106	-24.760	0.212	0.125
-531.091	-139.400	0.413	-0.044
-530.077	-200.000	0.023	0.361
-529.062	104.514	-0.152	-0.178
-528.048	-125.301	-0.154	0.024
-527.033	-200.000	-0.045	-0.203
-526.018	-9.424	0.350	0.233
-525.004	107.746	0.118	0.140
-523.989	-200.000	-0.003	0.251
-522.975	-80.073	0.071	0.024
-521.960	-200.000	-0.002	0.114
-520.945	-129.129	0.146	0.020
-519.931	145.909	0.225	0.301
-518.916	-93.148	-0.284	0.079
-517.902	-17.410	-0.096	-0.060
-516.887	48.367	0.068	0.063
-515.872	-200.000	0.033	-0.243
-514.858	-162.140	0.009	-0.000
-513.843	-69.789	0.417	0.159
-512.829	800.000	-0.074	0.301
-511.814	-88.695	-0.136	0.040
-510.799	252.861	-0.103	-0.175
-509.785	204.660	-0.043	-0.067
-508.770	-133.483	-0.331	-0.041
-507.756	-123.405	0.156	-0.025
-506.741	457.145	-0.093	0.206
-505.726	-200.000	-0.017	0.324
-504.712	-51.986	-0.210	-0.097
-503.697	-51.496	-0.293	-0.136
-502.683	-200.000	0.013	0.455
-501.668	-200.000	0.069	-0.446
-500.653	-200.000	0.005	-0.350
-499.639	324.324	-0.091	0.173
-498.624	-48.039	-0.373	-0.180
-497.610	-23.058	-0.061	-0.037
-496.595	-200.000	0.010	-0.196
-495.581	130.434	-0.183	0.234
-494.566	512.485	0.115	0.268
-493.551	213.833	0.081	0.127
-492.537	-75.962	0.172	-0.061
-491.522	261.801	0.028	0.049
-490.508	-58.420	0.304	-0.131
-489.493	103.812	0.096	-0.112
-488.478	-26.868	-0.174	0.101
-487.464	-21.338	0.167	0.101
-486.449	800.000	0.059	0.247
-485.435	800.000	0.021	0.088
-484.420	-71.580	0.335	0.125
-483.405	-145.196	-0.103	0.009
-482.391	267.663	-0.112	0.196
-481.376	-200.000	0.018	0.175
-480.362	-90.814	0.275	0.079
-479.347	800.000	0.063	-0.274
-478.332	-200.000	-0.057	-0.439
-477.318	800.000	-0.132	0.422
-476.303	26.498	0.082	-0.068
-475.289	504.696	-0.086	-0.199
-474.274	-200.000	-0.018	-0.211
-473.259	-15.279	0.063	-0.040
-472.245	267.546	0.185	0.323
-471.230	145.327	-0.155	0.206
-470.216	170.128	-0.166	-0.236
-469.201	-171.643	-0.210	0.007
-468.186	800.000	-0.065	-0.179
-467.172	57.186	0.211	0.204
-466.157	-42.092	0.155	0.079
-465.143	-200.000	-0.013	0.225
-464.128	-77.116	-0.014	-0.005
-463.113	-200.000	-0.009	-0.188
-462.099	27.335	-0.098	0.082
-461.084	-39.536	0.376	0.196
-460.070	-53.870	-0.151	-0.068
-459.055	800.000	0.119	0.413
-458.040	-103.972	-0.345	-0.080
-457.026	-200.000	0.031	-0.162
-456.011	478.533	-0.128	0.288
-454.997	345.996	0.060	0.117
-453.982	-38.504	0.441	0.231
-452.968	800.000	0.118	-0.494
-451.953	90.729	-0.015	-0.017
-450.938	-200.000	-0.014	0.355
-449.924	-200.000	-0.039	0.265
-448.909	-200.000	-0.006	0.276
-447.895	-112.184	-0.095	0.019
-446.880	531.615	0.057	0.135
-445.865	-200.000	0.003	0.041
-444.851	105.166	0.069	-0.081
-443.836	-200.000	0.034	-0.254
-442.822	-89.934	0.385	0.112
-441.807	470.002	-0.076	0.169
-440.792	30.841	0.062	0.053
-439.778	61.282	0.134	0.132
-438.763	800.000	-0.085	-0.273
-437.749	-26.713	0.254	0.147
-436.734	30.579	-0.260	0.220
-435.719	-200.000	-0.038	-0.257
-434.705	800.000	0.087	-0.271
-433.690	268.023	-0.046	0.081
-432.676	-94.220	-0.216	-0.059
-431.661	-41.993	0.108	-0.055
-430.646	180.533	-0.102	-0.149
-429.632	21.703	-0.322	-0.261
-428.617	-151.272	0.227	0.017
-427.603	39.429	0.172	-0.153
-426.588	185.656	-0.038	-0.056
-425.573	-200.000	-0.009	-0.124
-424.559	-33.266	-0.336	-0.185
-423.544	80.108	0.082	-0.087
-422.530	-200.000	0.038	0.216
-421.515	38.521	-0.065	-0.057
-420.500	611.665	0.180	-0.446
-419.486	-198.084	-0.151	0.001
-418.471	800.000	-0.039	0.110
-417.457	26.071	0.265	-0.219
-416.442	-200.000	0.006	0.030
-415.428	575.433	-0.119	0.288
-414.413	-37.690	0.208	-0.110
-413.398	800.000	-0.031	-0.129
-412.384	433.394	-0.036	-0.078
-411.369	78.963	-0.142	-0.151
-410.355	170.864	0.079	-0.112
-409.340	59.123	0.142	-0.139
-408.325	415.564	-0.085	-0.179
-407.311	-200.000	0.004	0.063
-406.296	-200.000	0.022	0.147
-405.282	-88.803	-0.020	0.006
-404.267	81.271	-0.191	0.205
-403.252	27.636	-0.090	-0.075
-402.238	6.583	0.150	0.111
-401.223	491.388	-0.144	0.327
-400.209	-72.330	-0.455	0.167
-399.194	-41.254	0.107	-0.055
-398.179	1.618	-0.175	-0.125
-397.165	-200.000	0.040	-0.380
-396.150	-200.000	-0.006	-0.179
-395.136	-15.410	-0.141	-0.090
-394.121	46.284	0.144	0.132
-393.106	800.000	0.078	-0.255
-392.092	800.000	0.087	-0.252
-391.077	560.812	-0.092	-0.221
-390.063	-10.052	-0.236	0.155
-389.048	-70.477	0.195	0.073
-388.033	657.517	-0.087	0.223
-387.019	-122.267	0.344	0.056
-386.004	367.649	-0.040	0.080
-384.990	-19.193	-0.313	0.192
-383.975	800.000	0.132	-0.533
-382.960	-76.504	-0.361	0.126
-381.946	-200.000	0.004	-0.082
-380.931	350.333	-0.017	-0.033
-379.917	-91.078	0.412	-0.117
-378.902	800.000	-0.075	0.276
-377.888	102.576	-0.158	-0.183
-376.873	-200.000	-0.046	-0.331
-375.858	800.000	-0.116	0.379
-374.844	5.887	0.242	-0.178
-373.829	-111.509	-0.221	-0.045
-372.815	303.334	-0.055	-0.100
-371.800	53.938	0.243	0.232
-370.785	197.705	0.085	-0.129
-369.771	-198.350	0.247	-0.001
-368.756	64.809	-0.115	-0.115
-367.742	800.000	-0.072	-0.299
-366.727	-25.490	0.168	-0.098
-365.712	-200.000	-0.022	0.130
-364.698	-200.000	0.052	0.234
-363.683	-62.366	0.082	0.034
-362.669	74.646	-0.077	0.080
-361.654	5.195	0.227	-0.166
-360.639	-200.000	0.030	-0.132
-359.625	150.700	0.195	-0.262
-358.610	-51.407	-0.083	0.038
-357.596	800.000	0.057	-0.177
-356.581	-108.539	0.304	0.065
-355.566	-15.056	0.129	0.082
-354.552	-132.656	0.323	-0.041
-353.537	-143.090	-0.147	0.014
-352.523	-200.000	0.072	0.379
-351.508	800.000	0.047	-0.132
-350.493	-71.593	0.331	0.122
-349.479	-47.779	-0.197	-0.095
-348.464	-128.119	0.122	0.017
-347.450	800.000	0.072	0.247
-346.435	-191.757	0.197	0.002
-345.420	800.000	-0.015	0.047
-344.406	-91.616	-0.290	-0.082
-343.391	-200.000	0.011	0.119
-342.377	227.795	-0.039	0.063
-341.362	800.000	-0.045	0.175
-340.348	148.933	-0.240	0.322
-339.333	800.000	0.055	0.233
-338.318	279.967	0.106	-0.188
-337.304	-96.971	0.359	-0.093
-336.289	-152.398	-0.071	0.005
-335.275	32.626	-0.137	-0.117
-334.260	140.845	-0.053	-0.070
-333.245	738.960	-0.041	0.110
-332.231	-87.467	0.138	0.041
-331.216	-22.326	-0.108	0.065
-330.202	-116.698	0.140	-0.026
-329.187	311.383	0.138	-0.256
-328.172	-200.000	-0.008	0.182
-327.158	800.000	-0.047	-0.129
-326.143	-156.380	-0.290	0.018
-325.129	-200.000	0.061	-0.269
-324.114	29.925	0.251	0.211
-323.099	-101.253	-0.211	0.051
-322.085	167.411	0.077	0.108
-321.070	98.678	-0.140	0.159
-320.056	-36.522	-0.207	0.110
-319.041	-159.384	-0.224	-0.012
-318.026	-166.497	-0.284	-0.012
-317.012	-111.299	-0.400	0.081
-315.997	-19.056	0.294	-0.180
-314.983	-11.336	0.120	0.078
-313.968	-95.238	0.169	0.045
-312.953	-116.169	-0.284	-0.052
-311.939	-200.000	0.006	-0.187
-310.924	-200.000	0.061	0.294
-309.910	-58.998	-0.166	0.071
-308.895	-124.167	0.293	0.045
-307.880	197.896	-0.060	-0.091
-306.866	-40.791	-0.261	0.133
-305.851	-200.000	-0.039	0.363
-304.837	486.484	-0.083	0.187
-303.822	120.735	-0.132	0.163
-302.807	-56.725	0.196	0.086
-301.793	205.192	-0.163	0.250
-300.778	60.795	-0.221	-0.216
-299.764	-191.052	0.087	-0.001
-298.749	-25.220	0.192	0.112
-297.735	800.000	0.118	-0.470
-296.720	-139.304	0.325	0.034
-295.705	363.967	0.122	-0.242
-294.691	-68.911	0.075	-0.029
-293.676	-3.163	-0.124	0.085
-292.662	43.205	-0.088	0.079
-291.647	-144.702	-0.266	0.024
-290.632	-27.855	0.082	0.047
-289.618	-32.924	-0.068	0.038
-288.603	140.509	0.223	0.291
-287.589	3.618	0.173	-0.125
-286.574	-200.000	-0.027	0.161
-285.559	-19.692	-0.142	-0.087
-284.545	-89.087	-0.135	0.040
-283.530	-200.000	0.007	-0.204
-282.516	-95.953	0.126	0.033
-281.501	-73.246	-0.455	0.165
-280.486	-200.000	0.034	-0.275
-279.472	-18.631	0.243	0.150
-278.457	52.553	-0.045	0.042
-277.443	316.226	0.082	-0.152
-276.428	112.371	-0.117	0.139
-275.413	8.861	0.208	-0.155
-274.399	32.479	-0.173	-0.147
-273.384	-137.526	-0.246	0.027
-272.370	-200.000	0.022	0.223
-271.355	62.327	0.067	0.066
-270.340	-200.000	-0.279	0.000
-269.326	-200.000	-0.032	0.154
-268.311	-200.000	-0.002	0.174
-267.297	-171.006	0.234	-0.008
-266.282	-43.058	0.311	-0.155
-265.267	-200.000	0.029	-0.197
-264.253	-200.000	-0.009	-0.076
-263.238	800.000	-0.078	0.222
-262.224	-50.191	0.101	0.047
-261.209	-70.936	0.118	0.044
-260.195	138.758	-0.164	0.213
-259.180	800.000	0.016	0.048
-258.165	-38.567	-0.151	0.079
-257.151	-200.000	-0.009	0.144
-256.136	-127.858	0.315	0.045
-255.122	25.366	0.172	0.141
-254.107	-6.125	-0.150	-0.101
-253.092	-139.562	-0.389	0.041
-252.078	800.000	-0.058	0.176
-251.063	-75.429	0.220	-0.077
-250.049	38.285	-0.148	0.130
-249.034	-22.593	0.265	0.158
-248.019	-96.683	-0.101	-0.026
-247.005	110.040	-0.103	-0.122
-245.990	800.000	-0.139	0.408
-244.976	84.295	0.128	0.138
-243.961	-200.000	-0.040	-0.285
-242.946	70.598	0.161	-0.164
-241.932	613.791	-0.063	-0.154
-240.917	-21.142	0.285	-0.172
-239.903	59.063	0.081	0.078
-238.888	-21.176	-0.207	-0.125
-237.873	382.239	-0.080	0.162
-236.859	577.234	0.116	0.280
-235.844	149.212	0.079	0.106
-234.830	-23.775	0.088	-0.052
-233.815	-200.000	-0.002	-0.238
-232.800	-149.248	0.160	-0.013
-231.786	80.622	-0.138	0.147
-230.771	800.000	0.134	0.391
-229.757	800.000	-0.078	-0.219
-228.742	-108.687	0.444	0.094
-227.727	219.763	-0.188	0.297
-226.713	21.820	-0.307	-0.247
-225.698	141.219	-0.124	-0.161
-224.684	29.809	0.149	-0.125
-223.669	-200.000	-0.060	0.267
-222.655	-9.371	-0.185	-0.122
-221.640	-200.000	0.038	-0.391
-220.625	800.000	-0.075	-0.259
-219.611	695.961	-0.187	-0.483
-218.596	433.031	0.152	0.325
-217.582	34.005	-0.184	-0.158
-216.567	-200.000	0.192	0.000
-215.552	800.000	-0.042	0.170
-214.538	-189.763	-0.212	-0.002
-213.523	104.821	0.055	-0.064
-212.509	-151.451	-0.045	-0.003
-211.494	-68.551	-0.068	-0.026
-210.479	145.271	0.087	0.115
-209.465	378.263	0.059	0.119
-208.450	800.000	-0.080	0.258
-207.436	-200.000	-0.034	0.254
-206.421	-200.000	-0.010	0.311
-205.406	140.524	0.232	-0.301
-204.392	-43.541	-0.326	-0.162
-203.377	-82.798	-0.125	0.040
-202.363	-129.251	-0.151	-0.021
-201.348	-44.784	-0.138	-0.068
-200.333	84.760	-0.122	-0.131
-199.319	275.683	0.080	-0.140
-198.304	800.000	-0.015	-0.060
-197.290	-123.104	-0.180	0.028
-196.275	-100.257	-0.174	-0.042
-195.260	506.078	0.072	-0.163
-194.246	-118.605	-0.067	0.012
-193.231	39.978	0.132	0.117
-192.217	595.784	0.072	0.176
-191.202	419.642	0.132	-0.279
-190.187	-200.000	0.006	-0.191
-189.173	-74.939	0.083	-0.029
-188.158	-75.512	-0.281	0.098
-187.144	-78.679	0.539	-0.181
-186.129	1.317	-0.311	-0.219
-185.114	289.617	0.092	0.164
-184.100	793.724	0.075	0.204
-183.085	-51.787	-0.039	0.018
-182.071	228.497	0.107	0.172
-181.056	27.753	-0.249	-0.206
-180.042	-82.600	-0.278	0.089
-179.027	-91.062	-0.329	-0.093
-178.012	21.217	-0.218	0.174
-176.998	-106.958	-0.202	-0.044
-175.983	408.432	-0.095	0.198
-174.969	110.917	0.035	-0.042
-173.954	38.639	-0.097	0.085
-172.939	-17.879	0.198	-0.122
-171.925	-200.000	-0.033	-0.174
-170.910	-65.736	0.261	-0.103
-169.896	-53.979	0.108	-0.048
-168.881	-14.763	0.058	0.036
-167.866	-200.000	-0.261	-0.001
-166.852	-200.000	-0.057	-0.310
-165.837	-161.956	0.179	0.009
-164.823	-147.712	-0.055	-0.005
-163.808	-30.552	0.182	-0.101
-162.793	800.000	0.031	0.090
-161.779	-200.000	0.057	0.354
-160.764	45.216	-0.210	-0.190
-159.750	-95.207	0.116	0.031
-158.735	-124.608	0.290	0.044
-157.720	-67.102	-0.162	-0.063
-156.706	-19.645	0.285	0.173
-155.691	85.718	-0.128	-0.138
-154.677	-121.414	0.088	-0.014
-153.662	-96.751	0.250	0.065
-152.647	-130.621	0.161	0.021
-151.633	173.930	0.214	-0.303
-150.618	-200.000	-0.038	-0.214
-149.604	64.210	-0.185	-0.182
-148.589	406.560	0.035	0.073
-147.574	142.488	-0.073	-0.095
-146.560	436.740	0.062	-0.134
-145.545	283.697	0.048	-0.085
-144.531	-200.000	0.004	0.151
-143.516	16.950	-0.116	0.090
-142.502	-130.809	0.151	-0.020
-141.487	18.988	-0.251	-0.197
-140.472	-93.165	0.439	-0.120
-139.458	187.359	-0.112	-0.164
-138.443	-15.023	0.235	0.148
-137.429	-65.788	-0.284	0.112
-136.414	800.000	0.110	-0.315
-135.399	800.000	0.048	-0.194
-134.385	-18.134	-0.343	0.211
-133.370	-200.000	-0.016	0.075
-132.356	-16.739	0.110	-0.068
-131.341	-13.428	0.252	-0.160
-130.326	-48.518	0.085	0.040
-129.312	-72.921	0.092	0.033
-128.297	117.966	0.113	0.137
-127.283	-200.000	0.062	-0.549
-126.268	3.718	0.239	0.171
-125.253	73.655	-0.163	-0.168
-124.239	-121.633	0.223	0.036
-123.224	-200.000	-0.024	0.343
-122.210	-35.204	-0.148	-0.079
-121.195	-81.001	-0.237	0.077
-120.180	800.000	-0.042	-0.177
-119.166	-87.642	0.380	-0.113
-118.151	-119.633	0.276	-0.047
-117.137	274.256	-0.005	-0.009
-116.122	-200.000	-0.009	0.079
-115.107	-5.050	-0.225	-0.152
-114.093	33.497	0.101	-0.086
-113.078	-200.000	0.007	0.075
-112.064	800.000	0.092	0.263
-111.049	112.011	0.142	-0.168
-110.034	27.080	0.203	-0.167
-109.020	-96.497	0.048	-0.012
-108.005	25.968	0.208	-0.170
-106.991	-14.205	0.114	-0.072
-105.976	21.192	0.452	-0.360
-104.962	-104.655	-0.122	-0.028
-103.947	-70.428	-0.106	-0.039
-102.932	-109.156	0.174	0.036
-101.918	313.775	0.152	-0.280
-100.903	-56.099	0.384	0.168
-99.889	39.572	0.090	-0.079
-98.874	-200.000	0.004	0.398
-97.859	800.000	0.047	0.173
-96.845	-17.224	0.153	0.095
-95.830	-13.258	0.147	0.094
-94.816	722.700	-0.063	0.164
-93.801	-74.043	0.220	-0.078
-92.786	-200.000	0.034	-0.159
-91.772	70.245	0.214	-0.216
-90.757	162.061	0.164	-0.226
-89.743	800.000	-0.090	-0.333
-88.728	-143.101	0.092	0.009
-87.713	417.707	0.155	-0.325
-86.699	-82.898	0.155	-0.049
-85.684	-200.000	0.014	0.095
-84.670	-200.000	0.018	0.253
-83.655	707.995	-0.023	0.059
-82.640	-52.321	0.217	0.099
-81.626	162.073	-0.074	0.102
-80.611	275.171	-0.040	-0.070
-79.597	502.762	0.240	0.543
-78.582	-111.633	-0.202	0.040
-77.567	328.608	-0.100	0.189
-76.553	-74.628	-0.189	0.066
-75.538	72.529	0.157	0.161
-74.524	792.851	-0.104	-0.279
-73.509	-200.000	0.029	-0.163
-72.494	-200.000	-0.029	0.184
-71.480	-99.156	0.224	-0.056
-70.465	-200.000	0.008	0.034
-69.451	-126.724	-0.229	0.033
-68.436	259.581	-0.113	0.191
-67.422	-87.445	0.100	0.030
-66.407	800.000	0.042	-0.148
-65.392	472.665	0.072	-0.159
-64.378	-58.769	-0.145	0.062
-63.363	-104.372	0.119	0.027
-62.349	353.991	-0.126	0.245
-61.334	108.897	-1.001	-1.171
-60.319	45.883	0.610	0.552
-59.305	666.591	-0.411	-1.040
-58.290	154.492	1.013	1.362
-57.276	-200.000	0.347	1.621
-56.261	-200.000	112.444	635.520
-55.246	471.975	1499.132	3302.198
-54.232	148.618	2664.565	3522.370
-53.217	103.381	2173.429	2494.308
-52.203	38.003	1705.683	1483.977
-51.188	30.783	1524.860	1277.288
-50.173	28.521	1500.426	1241.481
-49.159	52.295	1557.176	1452.886
-48.144	51.374	1572.360	1460.656
-47.130	31.032	1529.790	1282.928
-46.115	28.019	1515.024	1249.925
-45.100	27.832	1511.563	1245.749
-44.086	27.828	1509.316	1243.820
-43.071	27.778	1507.649	1242.056
-42.057	27.761	1506.130	1240.639
-41.042	27.734	1504.792	1239.302
-40.027	27.719	1503.088	1237.751
-39.013	27.697	1501.690	1236.400
-37.998	27.741	1500.153	1235.385
-36.984	27.731	1498.608	1233.993
-35.969	27.761	1497.763	1233.450
-34.954	27.748	1496.287	1232.101
-33.940	27.728	1494.805	1230.698
-32.925	27.799	1493.109	1229.726
-31.911	27.763	1492.393	1228.848
-30.896	27.688	1491.417	1227.489
-29.881	27.788	1489.512	1226.544
-28.867	27.777	1488.837	1225.868
-27.852	27.816	1487.274	1224.792
-26.838	27.793	1486.293	1223.781
-25.823	27.760	1484.364	1221.927
-24.809	27.770	1482.914	1220.751
-23.794	27.752	1481.786	1219.654
-22.779	27.830	1480.455	1219.030
-21.765	27.760	1479.346	1217.603
-20.750	27.839	1478.511	1217.392
-19.736	27.865	1476.835	1216.136
-18.721	27.748	1476.036	1214.655
-17.706	27.745	1474.823	1213.588
-16.692	27.865	1473.548	1213.287
-15.677	27.781	1472.672	1211.958
-14.663	27.733	1471.846	1210.912
-13.648	27.701	1471.114	1210.052
-12.633	27.688	1470.328	1209.273
-11.619	27.662	1469.401	1208.287
-10.604	27.659	1468.657	1207.609
-9.590	27.800	1467.504	1207.543
-8.575	27.814	1466.307	1206.605
-7.560	27.773	1465.446	1205.579
-6.546	27.749	1464.517	1204.609
-5.531	27.618	1463.919	1203.202
-4.517	27.747	1462.866	1203.137
-3.502	27.688	1462.183	1202.140
-2.487	27.715	1460.907	1201.225
-1.473	27.798	1459.438	1200.513
-0.458	27.754	1458.349	1199.284
0.556	26.080	1448.879	1187.954
1.571	23.221	1423.865	1148.816
2.586	19.867	1363.869	1079.425
3.600	18.425	1280.242	1004.702
4.615	17.371	1235.193	963.292
5.629	16.525	1181.860	917.032
6.644	13.492	1105.772	842.508
7.659	10.865	1071.074	803.037
8.673	10.509	1066.203	797.563
9.688	10.348	1063.037	794.336
10.702	10.353	1061.651	793.255
11.717	10.410	1059.302	791.709
12.731	11.557	1058.889	796.928
13.746	14.552	1062.899	814.522
14.761	17.215	1066.219	830.020
15.775	17.767	1066.429	832.806
16.790	17.096	1063.716	827.344
17.804	15.973	1061.811	820.323
18.819	14.940	1060.269	814.032
19.834	14.568	1058.301	810.642
20.848	14.124	1057.651	807.916
21.863	14.055	1056.594	806.705
22.877	13.839	1055.563	804.797
23.892	13.553	1055.345	803.173
24.907	13.402	1054.355	801.618
25.921	13.571	1053.105	801.414
26.936	13.424	1052.582	800.235
27.950	13.487	1052.064	800.076
28.965	13.553	1050.588	799.201
29.980	13.678	1049.216	798.689
30.994	13.694	1048.169	797.896
32.009	13.846	1047.031	797.688
33.023	13.761	1046.839	797.063
34.038	13.763	1045.787	796.204
35.053	13.775	1044.886	795.507
36.067	13.723	1044.147	794.621
37.082	13.695	1043.080	793.608
38.096	13.702	1042.124	792.844
39.111	13.557	1042.168	792.112
40.126	13.726	1040.573	791.635
41.140	13.565	1039.348	789.866
42.155	13.458	1038.654	788.759
43.169	13.542	1037.303	788.062
44.184	13.436	1036.250	786.689
45.199	13.433	1035.495	786.034
46.213	13.490	1034.494	785.475
47.228	13.519	1033.539	784.817
48.242	13.535	1032.813	784.274
49.257	13.642	1031.724	783.881
50.271	13.595	1030.878	782.947
51.286	13.753	1029.673	782.708
52.301	13.668	1029.062	781.774
53.315	13.676	1028.305	781.168
54.330	13.572	1027.439	779.953
55.344	13.471	1026.844	778.957
56.359	13.508	1025.713	778.201
57.374	13.479	1025.299	777.683
58.388	13.658	1023.806	777.324
59.403	13.559	1023.164	776.303
60.417	13.456	1022.587	775.313
61.432	13.458	1021.856	774.698
62.447	13.560	1020.640	774.187
63.461	13.477	1019.717	773.027
64.476	13.407	1019.094	772.163
65.490	13.420	1017.987	771.314
66.505	13.347	1017.553	770.580
67.520	13.407	1016.706	770.148
68.534	13.449	1015.927	769.686
69.549	13.452	1015.194	769.074
70.563	13.367	1014.888	768.381
71.578	13.472	1013.745	767.936
72.593	13.434	1013.286	767.344
73.607	13.367	1011.845	765.872
74.622	13.422	1010.561	765.088
75.636	13.312	1010.500	764.466
76.651	13.328	1009.483	763.706
77.666	13.334	1008.624	763.014
78.680	13.317	1007.927	762.340
79.695	13.359	1007.494	762.138
80.709	13.462	1007.138	762.278
81.724	13.519	1005.804	761.461
82.739	13.585	1005.198	761.240
83.753	13.647	1004.567	760.978
84.768	13.652	1003.642	760.233
85.782	13.672	1003.226	759.941
86.797	13.674	1002.321	759.198
87.812	13.752	1001.653	758.981
88.826	13.695	1000.768	757.984
89.841	13.528	1000.197	756.722
90.855	13.582	999.267	756.196
91.870	13.698	998.209	755.860
92.884	13.847	997.493	755.928
93.899	13.696	996.957	754.768
94.914	13.805	995.692	754.240
95.928	13.702	995.576	753.615
96.943	13.724	994.656	752.953
97.957	13.800	993.408	752.286
98.972	13.751	992.704	751.464
99.987	13.771	991.714	750.738
101.001	13.789	991.089	750.282
102.016	13.791	990.230	749.575
103.030	13.614	989.580	748.214
104.045	13.779	988.362	747.972
105.060	13.719	987.623	747.075
106.074	13.707	986.625	746.202
107.089	13.706	985.619	745.372
108.103	13.606	985.298	744.612
109.118	13.524	983.773	743.025
110.133	13.437	983.245	742.173
111.147	13.681	982.031	742.283
112.162	13.474	981.326	740.756
113.176	13.517	980.646	740.370
114.191	13.550	980.161	740.086
115.206	13.489	979.143	738.981
116.220	13.559	978.038	738.392
117.235	13.391	977.650	737.287
118.249	13.471	976.650	736.822
119.264	13.633	975.642	736.717
120.279	13.571	974.759	735.711
121.293	13.584	974.202	735.283
122.308	13.539	973.583	734.550
123.322	13.439	972.612	733.312
124.337	13.547	971.474	732.865
125.352	13.369	970.624	731.370
126.366	13.401	969.013	730.235
127.381	13.383	968.331	729.577
128.395	13.575	967.148	729.467
129.410	13.573	965.949	728.490
130.424	13.510	965.357	727.703
131.439	13.470	964.334	726.691
132.454	13.621	963.357	726.552
133.468	13.631	962.939	726.215
134.483	13.664	962.248	725.775
135.497	13.619	961.226	724.744
136.512	13.633	960.728	724.364
137.527	13.645	959.724	723.596
138.541	13.601	959.605	723.248
139.556	13.638	958.953	722.856
140.570	13.634	958.158	722.176
141.585	13.600	957.119	721.182
142.600	13.777	956.404	721.346
143.614	13.827	955.333	720.694
144.629	13.879	954.500	720.226
145.643	13.909	953.814	719.773
146.658	13.880	953.260	719.166
147.673	13.868	952.083	718.163
148.687	13.838	951.363	717.430
149.702	13.719	950.340	716.079
150.716	13.729	949.781	715.637
151.731	13.759	948.352	714.629
152.746	13.550	948.575	713.829
153.760	13.605	947.633	713.294
154.775	13.729	946.758	713.106
155.789	13.849	946.159	713.107
156.804	13.804	945.192	712.125
157.819	13.866	944.543	711.838
158.833	13.734	944.106	710.879
159.848	13.860	943.687	711.041
160.862	13.949	942.152	710.204
161.877	14.031	941.727	710.171
162.892	13.804	941.010	708.597
163.906	13.720	940.659	707.910
164.921	13.716	939.401	706.884
165.935	13.921	938.051	706.680
166.950	13.819	937.657	705.884
167.964	13.894	936.584	705.336
168.979	13.822	935.927	704.473
169.994	13.898	934.553	703.697
171.008	13.865	933.889	702.993
172.023	13.825	933.441	702.425
173.037	13.982	932.326	702.187
174.052	13.877	931.491	701.055
175.067	14.022	930.727	701.028
176.081	13.867	930.145	699.873
177.096	13.734	929.404	698.693
178.110	13.952	928.214	698.656
179.125	14.050	927.485	698.457
180.140	13.901	926.939	697.360
181.154	13.958	926.246	697.014
182.169	14.029	925.543	696.722
183.183	14.026	925.227	696.410
184.198	14.108	924.189	695.912
185.213	14.141	923.402	695.394
186.227	14.100	923.146	694.969
187.242	14.161	922.340	694.552
188.256	14.153	922.112	694.287
189.271	14.319	921.428	694.405
190.286	14.194	920.560	693.166
191.300	14.065	920.312	692.380
192.315	14.028	918.948	691.141
193.329	13.949	918.445	690.372
194.344	13.984	917.668	689.873
195.359	14.071	916.969	689.649
196.373	14.062	916.586	689.262
197.388	14.281	915.924	689.608
198.402	14.304	915.558	689.367
199.417	14.398	914.706	689.055
200.432	14.395	914.564	688.872
201.446	14.447	914.050	688.640
202.461	14.557	913.677	688.754
203.475	14.470	913.141	687.928
204.490	14.455	912.651	687.439
205.504	14.300	911.737	686.051
206.519	14.519	910.766	686.160
207.534	14.415	910.018	685.105
208.548	14.412	909.275	684.475
209.563	14.385	908.649	683.831
210.577	14.392	908.169	683.439
211.592	14.369	907.197	682.555
212.607	14.321	907.170	682.274
213.621	14.559	906.491	682.678
214.636	14.575	905.804	682.165
215.650	14.588	904.782	681.390
216.665	14.554	904.563	681.025
217.680	14.454	904.025	680.152
218.694	14.651	903.705	680.656
219.709	14.689	902.827	680.087
220.723	14.571	902.577	679.358
221.738	14.674	901.755	679.099
222.753	14.582	901.097	678.171
223.767	14.681	899.932	677.636
224.782	14.714	899.334	677.259
225.796	14.714	898.561	676.616
226.811	14.731	898.094	676.275
227.826	14.818	897.324	675.984
228.840	14.777	896.432	675.087
229.855	14.649	896.307	674.416
230.869	14.739	895.115	673.825
231.884	14.666	894.757	673.199
232.899	14.691	893.974	672.653
233.913	14.582	893.214	671.581
234.928	14.651	892.637	671.367
235.942	14.743	891.620	670.910
236.957	14.710	890.824	670.121
237.972	14.711	890.387	669.737
238.986	14.760	889.793	669.426
240.001	14.674	889.347	668.690
241.015	14.675	888.456	667.962
242.030	14.822	887.612	667.859
243.045	14.808	887.291	667.502
244.059	14.835	886.545	666.986
245.074	14.971	885.744	666.870
246.088	14.853	885.142	665.888
247.103	14.804	885.051	665.563
248.117	14.986	884.125	665.534
249.132	15.101	883.654	665.576
250.147	15.077	882.837	664.805
251.161	14.987	882.708	664.294
252.176	15.148	881.798	664.186
253.190	15.307	880.977	664.139
254.205	15.249	880.427	663.437
255.220	15.343	879.889	663.347
256.234	15.265	879.221	662.475
257.249	15.172	878.925	661.825
258.263	15.182	878.425	661.429
259.278	15.266	877.812	661.241
260.293	15.370	876.944	660.940
261.307	15.367	876.305	660.389
262.322	15.418	875.802	660.150
263.336	15.414	875.321	659.713
264.351	15.430	874.317	658.962
265.366	15.344	874.026	658.345
266.380	15.396	873.602	658.172
267.395	15.486	872.740	657.818
268.409	15.399	872.104	656.939
269.424	15.402	871.336	656.314
270.439	15.542	870.400	656.099
271.453	15.547	869.168	655.133
272.468	15.568	868.707	654.808
273.482	15.498	868.017	653.958
274.497	15.572	867.557	653.841
275.512	15.461	867.397	653.232
276.526	15.541	866.389	652.722
277.541	15.492	865.674	651.938
278.555	15.462	865.527	651.653
279.570	15.558	864.898	651.493
280.585	15.568	864.388	651.092
281.599	15.501	863.607	650.185
282.614	15.473	863.303	649.790
283.628	15.499	862.487	649.219
284.643	15.605	861.728	648.999
285.657	15.579	861.071	648.349
286.672	15.611	860.818	648.221
287.687	15.519	860.483	647.558
288.701	15.674	859.671	647.489
289.716	15.772	858.848	647.185
290.730	15.752	858.488	646.782
291.745	15.765	857.847	646.290
292.760	15.663	857.142	645.312
293.774	15.827	856.416	645.338
294.789	15.692	856.283	644.663
295.803	15.864	855.091	644.365
296.818	15.928	854.568	644.160
297.833	15.643	854.009	642.593
298.847	15.859	853.299	642.825
299.862	15.865	852.409	642.119
300.876	15.883	851.908	641.756
301.891	15.824	851.628	641.265
302.906	15.924	850.773	640.942
303.920	15.939	850.356	640.630
304.935	15.957	849.724	640.164
305.949	16.047	849.078	639.962
306.964	16.214	847.961	639.697
307.979	16.152	847.418	638.998
308.993	15.971	847.183	638.079
310.008	16.065	846.830	638.112
311.022	16.182	846.098	637.947
312.037	16.016	845.924	637.129
313.052	16.093	845.381	636.958
314.066	15.965	844.535	635.777
315.081	16.091	843.734	635.595
316.095	16.117	843.169	635.211
317.110	16.016	842.941	634.604
318.125	16.075	842.269	634.263
319.139	16.005	842.395	634.039
320.154	16.175	841.153	633.687
321.168	16.135	840.947	633.325
322.183	16.201	840.072	632.856
323.197	16.302	839.825	632.993
324.212	16.126	838.861	631.552
325.227	16.105	838.919	631.460
326.241	16.303	837.976	631.437
327.256	16.293	837.076	630.666
328.270	16.335	836.815	630.570
329.285	16.241	836.225	629.719
330.300	16.213	835.737	629.189
331.314	16.184	835.184	628.610
332.329	16.080	834.549	627.690
333.343	16.259	833.931	627.833
334.358	16.258	833.557	627.492
335.373	16.405	832.810	627.423
336.387	16.245	832.673	626.668
337.402	16.537	831.913	627.123
338.416	16.337	831.586	626.080
339.431	16.447	830.694	625.760
340.446	16.526	830.201	625.626
341.460	16.438	829.593	624.789
342.475	16.493	828.856	624.382
343.489	16.625	828.510	624.554
344.504	16.620	827.993	624.090
345.519	16.643	827.521	623.763
346.533	16.876	826.455	623.763
347.548	16.676	826.441	622.960
348.562	16.571	826.258	622.381
349.577	16.550	825.476	621.659
350.592	16.586	824.635	621.103
351.606	16.556	824.777	621.045
352.621	16.614	824.216	620.782
353.635	16.541	823.669	620.048
354.650	16.605	823.046	619.758
355.665	16.768	822.511	619.897
356.679	16.513	822.071	618.577
357.694	16.813	821.321	619.054
358.708	16.735	821.083	618.533
359.723	16.623	820.726	617.801
360.738	16.741	820.221	617.797
361.752	16.697	819.778	617.249
362.767	16.860	819.079	617.261
363.781	16.816	818.604	616.687
364.796	16.953	818.039	616.705
365.810	16.863	818.055	616.338
366.825	16.875	817.605	615.988
367.840	17.116	817.053	616.389
368.854	17.104	816.407	615.805
369.869	17.083	816.256	615.563
370.883	16.812	815.775	614.163
371.898	16.927	815.286	614.156
372.913	17.050	814.518	613.969
373.927	17.039	813.743	613.289
374.942	17.119	813.018	612.977
375.956	16.949	812.640	612.027
376.971	17.124	811.930	612.068
377.986	17.236	811.421	612.033
379.000	17.055	811.498	611.385
380.015	17.115	810.864	611.070
381.029	17.265	809.853	610.791
382.044	17.196	809.607	610.306
383.059	17.345	808.633	610.050
384.073	17.276	808.446	609.609
385.088	17.275	807.877	609.121
386.102	17.246	807.087	608.370
387.117	17.110	806.712	607.545
388.132	16.928	806.588	606.748
389.146	17.126	806.240	607.141
390.161	17.305	805.298	607.017
391.175	17.210	805.253	606.588
392.190	17.336	804.802	606.644
393.205	17.325	804.331	606.199
394.219	17.273	804.176	605.842
395.234	17.217	803.251	604.891
396.248	17.238	802.839	604.601
397.263	17.171	802.420	603.995
398.278	17.034	802.037	603.167
399.292	17.117	801.389	602.920
400.307	17.067	801.126	602.493
401.321	17.352	800.491	602.971
402.336	17.236	800.208	602.295
403.350	17.221	799.783	601.866
404.365	17.433	799.292	602.197
405.380	17.387	798.604	601.461
406.394	17.381	798.897	601.606
407.409	17.384	798.510	601.274
408.423	17.638	797.539	601.384
409.438	17.373	797.547	600.402
410.453	17.535	797.017	600.523
411.467	17.606	796.191	600.097
412.482	17.702	795.977	600.222
413.496	17.656	795.398	599.570
414.511	17.780	795.027	599.671
415.526	17.676	794.881	599.142
416.540	17.635	794.580	598.718
417.555	17.766	794.015	598.702
418.569	17.730	793.465	598.105
419.584	17.763	793.084	597.882
420.599	17.652	792.639	597.106
421.613	111.016	1293.126	1474.621
422.628	95.413	1366.022	1474.723
