DTS Sentinel unit serial number:	SN413079Multiplexer serial number:	ORYXHardware model number:	OX4-SRSoftware version number:	ORYX F/W v4.00 Oryx Data Collector v3.7.2.0data status	okinstallation	princeton_trtdifferential loss correction	single-endedforward channel	channel 3reverse channel	N/Adate	2019/09/15time	06:44:35forward acquisition time	60.00reverse acquisition time	0.00gamma	496.2192k internal	0.2324k external	0.2324temperature offset calibration	0.9980default loss term (dB/km)	0.3790temperature slope calibration	1.0000multiplexer offset coefficient	1.0000multiplexer slope coefficient	1.0000fibre end	0.00T internal ref (°C)	30.48T ext. ref 1 (°C)	4.80T ext. ref 2 (°C)	25.47length (m)	temperature (°C)	Stokes	anti-Stokes-747.200	-47.360	0.132	0.065
-746.185	78.647	-0.249	0.269
-745.171	-200.000	0.010	-0.115
-744.156	286.970	0.099	-0.180
-743.142	800.000	-0.065	0.260
-742.127	42.611	0.108	0.099
-741.112	-85.175	0.275	0.087
-740.098	-145.269	-0.162	0.015
-739.083	800.000	0.005	0.019
-738.069	-14.280	0.047	-0.030
-737.054	800.000	-0.076	0.224
-736.039	-77.470	-0.221	0.077
-735.025	800.000	0.057	0.247
-734.010	-80.703	-0.180	0.060
-732.996	-68.825	-0.344	-0.134
-731.981	779.345	-0.018	-0.049
-730.966	-20.231	-0.429	0.267
-729.952	-85.099	-0.127	-0.040
-728.937	176.931	0.015	-0.021
-727.923	37.579	0.007	0.006
-726.908	18.937	-0.078	0.063
-725.894	-142.770	-0.336	0.033
-724.879	-200.000	-0.010	-0.253
-723.864	-200.000	0.032	-0.214
-722.850	63.120	0.055	-0.056
-721.835	-124.424	-0.187	-0.029
-720.821	-78.673	0.397	-0.137
-719.806	47.886	-0.082	0.077
-718.791	207.553	0.120	0.189
-717.777	-200.000	0.001	0.111
-716.762	303.547	0.048	0.090
-715.748	668.046	-0.054	-0.142
-714.733	487.139	0.114	-0.261
-713.718	800.000	0.048	0.186
-712.704	24.245	0.205	0.170
-711.689	122.203	-0.076	0.096
-710.675	-200.000	-0.035	-0.185
-709.660	333.838	0.031	-0.061
-708.645	-41.018	0.403	0.210
-707.631	650.465	0.078	-0.200
-706.616	-80.076	-0.058	-0.020
-705.602	420.473	0.174	-0.375
-704.587	632.432	-0.074	-0.188
-703.572	75.250	-0.104	-0.111
-702.558	-151.126	0.139	-0.011
-701.543	-106.971	0.286	0.064
-700.529	-200.000	-0.026	-0.208
-699.514	-32.051	-0.295	-0.166
-698.499	-200.000	0.008	0.186
-697.485	-91.130	0.135	0.039
-696.470	-31.800	0.210	0.118
-695.456	-200.000	0.011	-0.054
-694.441	531.589	-0.109	-0.259
-693.426	-181.285	-0.175	0.003
-692.412	800.000	-0.020	-0.074
-691.397	-200.000	0.018	-0.326
-690.383	8.840	0.118	-0.090
-689.368	-83.197	0.279	-0.090
-688.354	210.908	0.182	-0.287
-687.339	208.846	0.177	-0.278
-686.324	283.239	0.068	-0.124
-685.310	47.700	-0.135	-0.127
-684.295	-82.727	0.115	-0.038
-683.281	11.549	-0.281	0.217
-682.266	-11.605	0.244	0.161
-681.251	-120.839	0.030	-0.005
-680.237	-75.582	0.246	-0.088
-679.222	800.000	-0.034	0.139
-678.208	-85.834	0.202	0.063
-677.193	-200.000	0.043	-0.230
-676.178	-200.000	0.015	0.404
-675.164	213.580	-0.141	0.224
-674.149	-81.666	-0.313	-0.104
-673.135	-53.283	-0.117	0.054
-672.120	-200.000	-0.002	-0.050
-671.105	95.095	-0.174	0.199
-670.091	-77.568	-0.267	-0.093
-669.076	237.943	0.208	0.347
-668.062	95.931	-0.163	-0.187
-667.047	427.755	0.147	-0.319
-666.032	302.095	0.092	0.170
-665.018	-200.000	0.202	0.001
-664.003	-200.000	-0.019	-0.106
-662.989	65.244	-0.181	-0.184
-661.974	175.218	-0.162	-0.236
-660.959	-107.674	-0.039	0.009
-659.945	-200.000	0.062	-0.317
-658.930	27.111	-0.218	-0.184
-657.916	171.074	-0.167	0.241
-656.901	-37.078	0.227	-0.122
-655.886	-67.516	-0.078	0.031
-654.872	800.000	-0.067	0.191
-653.857	-64.909	-0.341	0.139
-652.843	40.480	-0.115	-0.104
-651.828	133.276	0.223	0.290
-650.814	-200.000	-0.004	0.536
-649.799	81.016	-0.214	0.232
-648.784	35.979	-0.125	-0.111
-647.770	-42.302	0.107	0.055
-646.755	56.508	-0.100	-0.098
-645.741	-200.000	-0.010	-0.234
-644.726	411.719	-0.168	-0.359
-643.711	71.598	0.071	0.074
-642.697	-200.000	0.028	0.127
-641.682	17.552	-0.338	-0.270
-640.668	27.200	0.069	0.058
-639.653	800.000	0.128	-0.481
-638.638	800.000	0.066	-0.246
-637.624	-95.253	-0.079	-0.021
-636.609	23.127	0.118	-0.097
-635.595	51.823	0.100	-0.095
-634.580	-148.477	0.315	-0.026
-633.565	-140.424	0.084	0.009
-632.551	-200.000	-0.064	0.286
-631.536	800.000	0.083	-0.330
-630.522	-51.184	0.157	0.074
-629.507	-41.776	-0.505	0.261
-628.492	30.464	-0.253	0.218
-627.478	356.413	-0.160	-0.320
-626.463	-110.228	-0.105	-0.022
-625.449	72.419	0.216	-0.226
-624.434	442.663	-0.204	-0.448
-623.419	-42.287	-0.049	-0.025
-622.405	108.179	-0.067	0.081
-621.390	302.839	0.064	-0.118
-620.376	33.448	-0.034	-0.029
-619.361	-124.818	-0.157	-0.024
-618.346	-200.000	-0.011	-0.050
-617.332	-25.335	0.341	0.203
-616.317	146.414	0.160	-0.216
-615.303	703.828	-0.113	-0.298
-614.288	-41.120	-0.139	0.072
-613.273	38.240	0.166	0.149
-612.259	-96.376	0.192	0.051
-611.244	60.917	0.303	0.301
-610.230	164.912	-0.037	-0.052
-609.215	-200.000	-0.003	-0.022
-608.201	-200.000	-0.046	0.220
-607.186	398.441	0.047	0.099
-606.171	686.235	0.097	-0.255
-605.157	-106.588	-0.162	0.036
-604.142	89.092	0.240	-0.269
-603.128	-200.000	-0.022	-0.183
-602.113	-115.699	0.153	-0.029
-601.098	85.739	0.274	0.302
-600.084	516.609	-0.047	0.110
-599.069	-112.950	-0.147	-0.029
-598.055	122.557	0.138	0.173
-597.040	-26.452	0.252	-0.148
-596.025	800.000	-0.025	0.075
-595.011	800.000	-0.069	-0.197
-593.996	648.391	-0.166	-0.425
-592.982	-161.848	-0.358	-0.018
-591.967	37.738	-0.034	0.030
-590.952	-63.257	-0.108	0.045
-589.938	-139.892	-0.319	0.034
-588.923	-67.461	-0.102	0.040
-587.909	79.183	0.198	-0.213
-586.894	-59.818	-0.380	0.163
-585.879	-46.542	-0.190	-0.093
-584.865	-114.501	-0.283	-0.055
-583.850	-151.625	-0.145	-0.011
-582.836	800.000	-0.037	0.135
-581.821	-193.111	0.290	0.003
-580.806	800.000	0.015	0.050
-579.792	-200.000	-0.085	0.389
-578.777	86.462	0.430	0.476
-577.763	195.791	-0.141	-0.215
-576.748	800.000	0.047	-0.171
-575.733	39.563	0.233	0.210
-574.719	84.566	-0.175	-0.192
-573.704	-14.038	-0.075	0.049
-572.690	463.852	-0.062	-0.139
-571.675	-16.186	-0.185	-0.118
-570.661	-200.000	-0.094	0.553
-569.646	119.948	0.176	0.219
-568.631	121.645	0.047	0.059
-567.617	-72.851	0.055	-0.020
-566.602	-86.700	0.293	-0.090
-565.588	72.004	0.231	0.241
-564.573	-200.000	0.015	-0.190
-563.558	800.000	0.024	0.075
-562.544	8.881	0.098	0.074
-561.529	-107.958	0.467	0.102
-560.515	-68.490	-0.212	0.083
-559.500	-80.170	-0.107	0.036
-558.485	-57.041	0.067	0.030
-557.471	-200.000	0.038	0.198
-556.456	-200.000	0.022	0.149
-555.442	800.000	-0.063	0.197
-554.427	-200.000	-0.024	-0.121
-553.412	599.115	0.039	-0.096
-552.398	-73.037	-0.324	-0.119
-551.383	-159.898	0.234	-0.013
-550.369	146.516	0.120	0.162
-549.354	-200.000	0.014	0.137
-548.339	347.013	-0.094	0.185
-547.325	-200.000	0.062	-0.366
-546.310	-78.955	0.312	-0.106
-545.296	-67.124	0.227	-0.090
-544.281	800.000	-0.022	0.069
-543.266	122.272	-0.020	0.025
-542.252	-148.147	-0.231	-0.019
-541.237	-200.000	0.011	-0.112
-540.223	800.000	0.072	-0.230
-539.208	-60.783	0.331	0.140
-538.193	-200.000	-0.079	-0.589
-537.179	-200.000	0.004	-0.085
-536.164	-200.000	-0.010	0.133
-535.150	-200.000	-0.035	0.248
-534.135	-108.518	0.320	-0.069
-533.121	66.434	0.094	-0.095
-532.106	-21.291	-0.265	-0.162
-531.091	29.838	-0.213	0.181
-530.077	184.887	0.260	0.386
-529.062	179.019	-0.101	0.148
-528.048	653.956	-0.160	-0.412
-527.033	800.000	0.016	-0.061
-526.018	505.611	0.161	0.373
-525.004	-25.182	-0.201	0.119
-523.989	-127.729	-0.116	0.017
-522.975	-96.718	0.136	-0.036
-521.960	800.000	-0.089	-0.253
-520.945	-200.000	-0.038	-0.273
-519.931	-44.067	0.247	0.124
-518.916	-165.014	-0.245	0.011
-517.902	78.274	-0.297	0.317
-516.887	250.184	0.098	0.166
-515.872	142.519	0.066	-0.088
-514.858	128.594	-0.180	0.230
-513.843	167.172	0.131	0.186
-512.829	-144.816	0.074	0.007
-511.814	-131.501	0.122	0.016
-510.799	800.000	-0.049	-0.136
-509.785	-70.349	0.206	0.078
-508.770	791.708	-0.175	-0.482
-507.756	294.421	0.143	-0.262
-506.741	166.421	-0.246	-0.349
-505.726	800.000	-0.099	0.280
-504.712	800.000	0.079	-0.265
-503.697	-178.318	-0.191	0.004
-502.683	552.126	-0.131	0.315
-501.668	-200.000	-0.006	-0.220
-500.653	379.476	0.069	0.141
-499.639	-96.000	0.333	-0.089
-498.624	130.798	-0.247	0.317
-497.610	-16.441	0.298	-0.189
-496.595	265.073	0.060	-0.104
-495.581	422.307	-0.052	0.112
-494.566	-10.316	0.145	0.096
-493.551	90.615	-0.131	-0.147
-492.537	65.228	0.269	-0.271
-491.522	206.247	0.096	-0.149
-490.508	-200.000	-0.004	0.211
-489.493	-200.000	-0.027	0.251
-488.478	194.368	-0.028	0.042
-487.464	20.437	-0.217	0.176
-486.449	245.798	-0.167	-0.280
-485.435	800.000	-0.040	-0.133
-484.420	-71.107	0.165	-0.062
-483.405	38.394	-0.174	0.155
-482.391	-200.000	0.025	-0.256
-481.376	-13.168	-0.052	0.034
-480.362	800.000	-0.029	-0.119
-479.347	800.000	-0.131	-0.410
-478.332	-81.975	-0.100	-0.033
-477.318	157.340	-0.209	0.289
-476.303	-41.287	0.456	0.235
-475.289	-172.197	-0.158	0.005
-474.274	800.000	-0.015	0.045
-473.259	-51.074	-0.241	0.113
-472.245	800.000	-0.093	0.279
-471.230	-200.000	-0.045	0.220
-470.216	-41.862	0.096	-0.049
-469.201	-145.904	-0.257	0.023
-468.186	-38.458	-0.283	0.150
-467.172	-23.377	-0.092	-0.055
-466.157	-33.275	0.213	-0.118
-465.143	-40.757	0.201	0.104
-464.128	23.774	-0.309	0.254
-463.113	264.322	0.122	-0.211
-462.099	146.854	-0.133	0.178
-461.084	-101.611	-0.207	0.050
-460.070	-147.620	0.116	0.010
-459.055	-200.000	0.004	-0.074
-458.040	485.620	-0.027	0.062
-457.026	131.426	0.051	-0.066
-456.011	-134.154	0.246	0.030
-454.997	-200.000	0.047	-0.286
-453.982	800.000	-0.066	-0.282
-452.968	-200.000	0.029	0.397
-451.953	-124.614	-0.162	0.025
-450.938	697.235	-0.039	-0.103
-449.924	251.327	-0.226	-0.383
-448.909	-62.034	-0.121	-0.050
-447.895	185.363	0.138	0.204
-446.880	0.877	0.110	-0.079
-445.865	-145.187	-0.166	0.015
-444.851	-200.000	0.097	0.575
-443.836	-66.897	-0.275	0.108
-442.822	399.503	0.016	-0.034
-441.807	479.075	-0.125	0.282
-440.792	-70.549	-0.096	-0.036
-439.778	-200.000	0.040	0.270
-438.763	-157.654	-0.127	-0.008
-437.749	-45.540	-0.322	-0.159
-436.734	-200.000	0.028	0.126
-435.719	-68.434	-0.378	-0.146
-434.705	-138.673	0.236	-0.026
-433.690	-200.000	0.028	0.319
-432.676	800.000	-0.074	0.205
-431.661	74.246	0.380	0.398
-430.646	800.000	-0.033	-0.121
-429.632	597.850	0.120	-0.298
-428.617	-200.000	0.008	-0.049
-427.603	-144.594	-0.210	0.019
-426.588	-81.496	0.392	0.129
-425.573	43.383	0.205	-0.186
-424.559	-42.526	-0.125	0.063
-423.544	-200.000	-0.003	-0.127
-422.530	267.319	-0.093	-0.163
-421.515	111.330	0.493	-0.592
-420.500	-150.050	-0.216	-0.017
-419.486	-200.000	0.012	0.112
-418.471	-73.459	0.334	-0.122
-417.457	-200.000	0.047	0.207
-416.442	-161.386	0.248	0.013
-415.428	-14.723	-0.081	0.052
-414.413	-200.000	0.007	-0.199
-413.398	-67.230	0.211	-0.083
-412.384	66.647	-0.101	0.102
-411.369	106.032	0.110	0.130
-410.355	2.772	0.095	-0.069
-409.340	43.029	-0.079	-0.072
-408.325	-200.000	0.031	-0.212
-407.311	35.613	0.161	0.141
-406.296	800.000	0.084	0.277
-405.282	8.076	-0.142	0.106
-404.267	-200.000	-0.003	0.353
-403.252	73.796	0.118	-0.123
-402.238	-200.000	-0.019	-0.255
-401.223	105.965	0.071	-0.083
-400.209	267.974	0.116	0.202
-399.194	-4.282	-0.248	0.171
-398.179	83.078	0.245	-0.265
-397.165	-200.000	0.019	-0.223
-396.150	-200.000	-0.052	-0.280
-395.136	-40.427	-0.435	0.225
-394.121	8.008	0.115	-0.086
-393.106	-63.515	0.268	0.110
-392.092	299.810	0.174	-0.320
-391.077	-200.000	-0.014	0.088
-390.063	618.764	0.046	0.114
-389.048	-60.185	-0.153	-0.065
-388.033	130.749	-0.130	0.166
-387.019	152.647	0.044	-0.059
-386.004	-94.724	-0.181	0.049
-384.990	-70.747	-0.236	-0.089
-383.975	348.404	0.071	0.139
-382.960	-85.238	-0.106	-0.033
-381.946	-74.326	-0.187	0.067
-380.931	-200.000	-0.007	0.322
-379.917	-96.640	-0.074	-0.019
-378.902	-200.000	0.038	-0.237
-377.888	-22.345	0.116	-0.070
-376.873	226.825	0.171	-0.276
-375.858	125.021	-0.063	-0.079
-374.844	107.896	0.206	-0.244
-373.829	-192.621	0.142	-0.001
-372.815	-54.134	-0.085	0.038
-371.800	800.000	0.054	0.193
-370.785	-41.631	0.431	-0.220
-369.771	-33.959	-0.377	0.207
-368.756	4.102	-0.086	0.063
-367.742	56.326	0.199	0.192
-366.727	-31.852	-0.113	-0.063
-365.712	333.834	0.118	-0.226
-364.698	-60.935	0.240	-0.101
-363.683	800.000	-0.054	-0.201
-362.669	123.719	-0.037	-0.046
-361.654	557.145	-0.092	-0.221
-360.639	426.503	-0.094	0.201
-359.625	-200.000	-0.019	-0.134
-358.610	-200.000	-0.010	-0.070
-357.596	800.000	-0.057	0.184
-356.581	33.963	0.056	0.049
-355.566	-200.000	0.034	0.243
-354.552	-35.946	0.300	0.161
-353.537	800.000	0.034	-0.137
-352.523	-29.284	0.182	-0.103
-351.508	21.218	0.239	-0.193
-350.493	-130.639	-0.259	0.035
-349.479	-149.517	0.164	0.013
-348.464	82.450	-0.060	-0.065
-347.450	129.778	0.114	-0.145
-346.435	235.466	-0.088	0.144
-345.420	800.000	-0.128	0.510
-344.406	725.446	-0.096	0.254
-343.391	39.330	-0.145	0.129
-342.377	-200.000	-0.070	-0.499
-341.362	-29.535	-0.111	0.063
-340.348	118.010	-0.095	-0.117
-339.333	237.482	0.083	0.136
-338.318	800.000	-0.037	0.119
-337.304	-89.411	0.265	-0.077
-336.289	-63.725	-0.345	-0.141
-335.275	-200.000	-0.014	0.082
-334.260	67.264	-0.261	0.264
-333.245	161.719	0.275	0.383
-332.231	-200.000	-0.014	-0.221
-331.216	209.408	-0.127	-0.198
-330.202	-140.055	0.262	-0.027
-329.187	-1.413	-0.376	-0.264
-328.172	-21.013	-0.156	0.095
-327.158	15.271	-0.106	-0.083
-326.143	-200.000	-0.005	-0.173
-325.129	740.757	0.087	-0.232
-324.114	-99.052	0.131	-0.033
-323.099	115.193	-0.092	0.111
-322.085	-88.340	-0.243	-0.072
-321.070	-42.160	-0.179	0.091
-320.056	70.187	-0.248	0.254
-319.041	-200.000	0.020	0.203
-318.026	31.218	-0.303	0.258
-317.012	205.712	-0.234	-0.360
-315.997	0.973	-0.072	0.051
-314.983	-16.932	-0.379	-0.238
-313.968	-78.233	-0.206	0.070
-312.953	55.081	-0.272	-0.260
-311.939	105.781	0.046	-0.054
-310.924	-200.000	0.015	-0.255
-309.910	267.207	0.089	0.154
-308.895	428.274	0.063	-0.135
-307.880	-200.000	0.026	-0.228
-306.866	800.000	-0.055	0.173
-305.851	-93.539	-0.198	0.054
-304.837	-200.000	0.022	0.308
-303.822	-154.700	0.247	-0.016
-302.807	70.700	-0.007	0.007
-301.793	-123.843	0.024	0.004
-300.778	-100.188	-0.154	-0.038
-299.764	-200.000	-0.011	-0.145
-298.749	800.000	-0.035	0.148
-297.735	400.157	-0.179	0.373
-296.720	-186.254	-0.132	-0.002
-295.705	6.727	-0.134	-0.099
-294.691	-55.249	0.166	0.074
-293.676	-36.535	0.156	-0.083
-292.662	18.978	-0.284	-0.225
-291.647	2.588	-0.058	-0.042
-290.632	-200.000	-0.034	0.191
-289.618	55.755	-0.205	-0.197
-288.603	175.457	0.110	0.158
-287.589	-200.000	0.039	0.345
-286.574	12.810	0.163	0.125
-285.559	-200.000	-0.051	-0.232
-284.545	-20.472	0.172	-0.105
-283.530	472.858	0.098	-0.219
-282.516	-156.431	0.072	-0.004
-281.501	-95.069	-0.265	0.071
-280.486	-76.473	-0.363	0.126
-279.472	-105.829	0.337	-0.075
-278.457	-200.000	-0.001	0.057
-277.443	-108.489	-0.138	0.029
-276.428	464.986	0.071	0.158
-275.413	-140.473	-0.086	0.009
-274.399	-200.000	-0.037	0.248
-273.384	109.772	0.069	-0.082
-272.370	-118.021	-0.275	0.049
-271.355	-144.464	0.196	-0.018
-270.340	-28.277	0.208	-0.119
-269.326	375.410	0.041	-0.082
-268.311	-103.124	0.118	0.028
-267.297	800.000	0.029	0.106
-266.282	272.899	-0.050	-0.087
-265.267	-102.112	0.187	0.045
-264.253	800.000	-0.047	0.170
-263.238	647.121	0.105	0.265
-262.224	-54.542	0.205	-0.092
-261.209	-81.834	0.106	0.034
-260.195	-200.000	0.003	0.098
-259.180	32.408	0.030	-0.025
-258.165	411.877	0.042	-0.087
-257.151	-37.493	0.216	0.114
-256.136	800.000	0.003	-0.007
-255.122	-200.000	0.000	-0.117
-254.107	-200.000	-0.028	0.133
-253.092	106.128	-0.047	-0.055
-252.078	-69.586	0.067	0.025
-251.063	-200.000	0.038	0.350
-250.049	-41.691	0.138	-0.070
-249.034	162.664	-0.148	-0.205
-248.019	365.509	0.111	-0.222
-247.005	-130.626	0.150	-0.020
-245.990	-20.274	0.137	-0.084
-244.976	148.268	-0.198	-0.264
-243.961	-66.036	0.276	-0.109
-242.946	-200.000	-0.023	0.183
-241.932	-200.000	-0.018	-0.116
-240.917	-41.516	0.241	0.122
-239.903	52.478	-0.217	0.205
-238.888	138.901	0.114	0.148
-237.873	502.928	0.127	-0.291
-236.859	236.218	-0.175	0.286
-235.844	-95.791	-0.135	0.036
-234.830	388.914	-0.093	-0.190
-233.815	97.021	-0.220	0.249
-232.800	-4.208	-0.258	0.176
-231.786	800.000	-0.042	-0.169
-230.771	-115.639	0.150	0.028
-229.757	-118.156	0.309	-0.055
-228.742	42.742	-0.219	-0.197
-227.727	-200.000	0.025	0.181
-226.713	-200.000	-0.039	-0.230
-225.698	-116.154	-0.232	0.043
-224.684	247.219	-0.065	-0.108
-223.669	800.000	-0.054	-0.168
-222.655	235.754	0.108	0.176
-221.640	-154.632	-0.063	0.004
-220.625	-130.911	0.561	0.074
-219.611	37.981	0.076	0.067
-218.596	-143.843	0.482	0.045
-217.582	173.398	-0.032	0.045
-216.567	-32.763	0.048	-0.027
-215.552	32.962	-0.127	-0.109
-214.538	-200.000	-0.001	0.170
-213.523	116.166	-0.068	-0.082
-212.509	59.241	-0.133	-0.130
-211.494	299.395	0.189	0.345
-210.479	-200.000	-0.037	-0.162
-209.465	686.867	0.099	-0.256
-208.450	-200.000	0.035	0.220
-207.436	469.350	0.064	0.143
-206.421	414.627	-0.062	-0.130
-205.406	116.518	0.264	-0.320
-204.392	-161.135	-0.332	-0.017
-203.377	800.000	0.079	0.287
-202.363	-103.017	-0.031	-0.007
-201.348	800.000	0.043	-0.155
-200.333	-47.512	0.102	-0.049
-199.319	-161.069	0.252	-0.013
-198.304	68.546	-0.102	-0.103
-197.290	-19.384	0.108	0.066
-196.275	-200.000	0.015	-0.347
-195.260	-143.815	0.089	-0.008
-194.246	-160.065	-0.090	0.005
-193.231	-47.792	-0.047	0.023
-192.217	-16.173	-0.259	0.163
-191.202	170.126	0.165	0.233
-190.187	34.497	0.222	-0.192
-189.173	6.356	0.191	0.140
-188.158	162.055	-0.014	-0.019
-187.144	800.000	-0.145	-0.412
-186.129	800.000	-0.051	0.155
-185.114	-18.366	0.203	0.125
-184.100	-95.220	-0.175	-0.047
-183.085	137.044	0.034	-0.044
-182.071	25.113	-0.334	0.274
-181.056	16.100	-0.455	-0.354
-180.042	80.388	0.226	0.240
-179.027	800.000	0.192	0.607
-178.012	-200.000	0.028	0.287
-176.998	800.000	-0.059	0.197
-175.983	-46.749	-0.042	0.020
-174.969	800.000	0.055	0.197
-173.954	316.497	-0.078	0.146
-172.939	-200.000	-0.013	0.229
-171.925	292.810	0.174	-0.313
-170.910	-94.874	0.103	-0.028
-169.896	431.526	-0.179	-0.382
-168.881	220.330	-0.222	-0.352
-167.866	-178.821	0.142	0.003
-166.852	783.892	-0.104	0.282
-165.837	45.760	-0.196	0.179
-164.823	-200.000	-0.026	-0.142
-163.808	-2.202	0.192	0.133
-162.793	-44.820	0.254	-0.125
-161.779	149.263	0.076	0.102
-160.764	-108.880	-0.215	-0.045
-159.750	-71.950	0.208	0.076
-158.735	800.000	-0.028	0.086
-157.720	-68.005	0.214	0.082
-156.706	-200.000	-0.021	-0.174
-155.691	-200.000	0.001	-0.078
-154.677	-200.000	-0.008	-0.066
-153.662	-60.538	0.267	0.112
-152.647	-72.922	0.338	-0.123
-151.633	314.574	0.091	-0.169
-150.618	-200.000	-0.020	0.123
-149.604	-51.977	-0.250	0.115
-148.589	146.626	-0.143	0.190
-147.574	164.393	-0.112	0.156
-146.560	-200.000	-0.033	0.339
-145.545	-113.164	0.155	-0.030
-144.531	436.620	0.161	-0.346
-143.516	49.601	0.073	0.068
-142.502	-3.907	0.230	0.157
-141.487	144.009	0.092	-0.121
-140.472	-200.000	0.038	-0.279
-139.458	428.495	-0.191	-0.407
-138.443	-200.000	0.005	-0.173
-137.429	800.000	-0.003	-0.007
-136.414	142.884	-0.136	-0.178
-135.399	-200.000	-0.002	-0.034
-134.385	-175.482	-0.399	0.011
-133.370	-115.356	-0.029	-0.005
-132.356	-12.974	0.249	0.160
-131.341	-61.533	-0.280	0.116
-130.326	-200.000	-0.076	0.393
-129.312	121.892	-0.210	0.258
-128.297	-59.026	-0.068	-0.029
-127.283	-200.000	-0.005	0.472
-126.268	-127.165	-0.170	-0.024
-125.253	-5.280	0.339	-0.230
-124.239	-32.374	0.125	-0.069
-123.224	691.322	0.095	0.246
-122.210	225.324	0.145	0.232
-121.195	11.701	0.157	-0.119
-120.180	-77.484	-0.103	-0.035
-119.166	-124.526	-0.411	-0.063
-118.151	-134.596	-0.204	-0.024
-117.137	-48.655	0.165	-0.078
-116.122	-126.668	-0.278	-0.040
-115.107	79.946	0.328	-0.347
-114.093	526.154	-0.093	0.217
-113.078	-200.000	-0.074	0.382
-112.064	-72.770	0.094	0.034
-111.049	800.000	-0.036	0.118
-110.034	311.786	-0.057	-0.106
-109.020	-200.000	-0.014	-0.292
-108.005	800.000	-0.096	-0.319
-106.991	-30.448	0.254	-0.142
-105.976	-33.345	-0.200	-0.109
-104.962	-31.276	0.303	-0.168
-103.947	-200.000	0.064	0.314
-102.932	-200.000	-0.015	0.248
-101.918	61.457	-0.191	-0.187
-100.903	-34.954	-0.131	0.070
-99.889	580.177	0.041	0.098
-98.874	-200.000	-0.032	0.168
-97.859	401.784	0.070	-0.145
-96.845	-200.000	0.047	0.355
-95.830	-200.000	-0.044	0.258
-94.816	-119.248	-0.382	0.065
-93.801	-200.000	0.027	0.201
-92.786	-70.111	0.343	0.128
-91.772	263.897	0.149	-0.255
-90.757	-128.991	-0.097	-0.013
-89.743	41.240	-0.251	0.223
-88.728	800.000	-0.076	0.297
-87.713	-114.049	-0.022	-0.004
-86.699	-90.100	0.305	0.087
-85.684	190.670	-0.051	0.075
-84.670	800.000	-0.035	-0.124
-83.655	470.383	0.143	0.317
-82.640	752.439	-0.089	0.236
-81.626	-200.000	-0.032	0.192
-80.611	532.463	-0.075	0.176
-79.597	-76.053	-0.284	0.099
-78.582	201.448	-0.171	0.259
-77.567	-200.000	0.062	0.369
-76.553	-121.541	0.115	0.019
-75.538	-138.984	-0.091	0.010
-74.524	72.774	-0.225	-0.231
-73.509	-143.530	0.213	-0.020
-72.494	717.899	-0.178	0.465
-71.480	-19.333	0.261	-0.159
-70.465	-64.159	0.244	-0.098
-69.451	800.000	0.116	0.331
-68.436	-131.507	0.211	-0.027
-67.422	-19.972	-0.297	-0.180
-66.407	202.528	-0.139	-0.211
-65.392	273.149	0.109	-0.189
-64.378	-200.000	0.016	0.254
-63.363	-6.941	-0.025	0.017
-62.349	-52.759	0.449	0.204
-61.334	-22.812	-1.038	-0.616
-60.319	-102.297	0.520	0.123
-59.305	800.000	-0.337	-0.964
-58.290	136.955	0.885	1.136
-57.276	800.000	0.458	1.358
-56.261	-200.000	103.446	599.478
-55.246	559.626	1441.075	3418.875
-54.232	186.313	2628.733	3842.976
-53.217	116.379	2168.774	2611.617
-52.203	41.298	1696.508	1507.079
-51.188	33.631	1506.109	1286.146
-50.173	31.181	1479.201	1246.780
-49.159	52.058	1533.147	1434.787
-48.144	52.995	1549.989	1456.864
-47.130	33.821	1507.384	1288.319
-46.115	30.684	1492.443	1254.385
-45.100	30.587	1488.743	1250.579
-44.086	30.436	1487.215	1248.231
-43.071	30.538	1484.711	1246.759
-42.057	30.478	1483.138	1244.990
-41.042	30.436	1481.593	1243.364
-40.027	30.512	1480.306	1242.740
-39.013	30.485	1478.783	1241.232
-37.998	30.468	1477.710	1240.169
-36.984	30.446	1476.261	1238.757
-35.969	30.393	1474.900	1237.214
-34.954	30.432	1473.519	1236.266
-33.940	30.437	1472.734	1235.593
-32.925	30.423	1470.966	1233.964
-31.911	30.508	1469.717	1233.432
-30.896	30.577	1468.452	1232.781
-29.881	30.583	1467.303	1231.809
-28.867	30.603	1465.784	1230.618
-27.852	30.494	1464.322	1228.620
-26.838	30.554	1463.027	1227.881
-25.823	30.573	1461.196	1226.417
-24.809	30.541	1459.839	1225.023
-23.794	30.647	1457.854	1224.006
-22.779	30.558	1457.343	1222.939
-21.765	30.584	1456.236	1222.131
-20.750	30.540	1455.416	1221.109
-19.736	30.613	1453.953	1220.313
-18.721	30.527	1452.884	1218.802
-17.706	30.487	1451.913	1217.680
-16.692	30.484	1451.186	1216.995
-15.677	30.441	1450.024	1215.692
-14.663	30.534	1448.524	1214.996
-13.648	30.454	1447.841	1213.854
-12.633	30.355	1447.010	1212.458
-11.619	30.493	1446.209	1212.644
-10.604	30.426	1445.402	1211.479
-9.590	30.376	1444.880	1210.671
-8.575	30.415	1444.009	1210.145
-7.560	30.433	1442.524	1208.973
-6.546	30.438	1441.962	1208.486
-5.531	30.383	1441.450	1207.650
-4.517	30.425	1439.833	1206.520
-3.502	30.381	1439.384	1205.813
-2.487	30.366	1438.493	1204.915
-1.473	30.456	1437.193	1204.363
-0.458	30.454	1435.855	1203.180
0.556	29.351	1426.581	1192.485
1.571	26.491	1401.533	1153.241
2.586	23.161	1344.720	1086.000
3.600	21.519	1264.936	1011.986
4.615	20.269	1219.690	968.725
5.629	17.633	1164.514	910.753
6.644	10.913	1083.026	813.438
7.659	5.593	1044.816	758.938
8.673	4.958	1040.012	752.315
9.688	4.846	1036.810	749.395
10.702	4.734	1035.499	747.841
11.717	4.683	1033.231	745.895
12.731	6.836	1034.737	757.244
13.746	13.463	1043.374	795.436
14.761	18.110	1049.609	822.526
15.775	18.359	1048.902	823.099
16.790	17.472	1046.790	817.108
17.804	16.346	1044.374	809.759
18.819	15.498	1042.672	804.304
19.834	15.083	1041.172	801.091
20.848	14.737	1040.400	798.773
21.863	14.487	1040.083	797.261
22.877	14.391	1038.921	795.846
23.892	14.156	1038.263	794.146
24.907	14.049	1037.530	793.005
25.921	14.025	1036.933	792.365
26.936	14.074	1035.717	791.597
27.950	14.097	1034.915	791.023
28.965	14.043	1034.063	790.046
29.980	14.316	1032.237	789.876
30.994	14.299	1031.584	789.229
32.009	14.418	1030.406	788.820
33.023	14.354	1030.451	788.482
34.038	14.468	1028.916	787.776
35.053	14.199	1028.301	785.966
36.067	14.394	1026.586	785.503
37.082	14.250	1026.441	784.644
38.096	14.280	1025.432	783.943
39.111	14.202	1024.826	783.045
40.126	14.249	1023.767	782.386
41.140	14.289	1022.660	781.660
42.155	14.114	1021.938	780.221
43.169	14.157	1020.378	779.158
44.184	14.012	1019.398	777.664
45.199	13.990	1018.318	776.668
46.213	13.996	1017.534	776.031
47.228	14.025	1016.806	775.541
48.242	14.137	1015.908	775.311
49.257	14.243	1014.802	774.892
50.271	14.179	1013.892	773.831
51.286	14.196	1012.944	773.115
52.301	14.264	1012.115	772.730
53.315	14.194	1011.466	771.842
54.330	14.212	1010.666	771.247
55.344	13.993	1009.888	769.573
56.359	13.978	1008.480	768.360
57.374	14.023	1008.104	768.215
58.388	14.204	1006.567	767.809
59.403	14.015	1006.559	766.862
60.417	13.879	1005.728	765.535
61.432	13.972	1004.744	765.149
62.447	13.933	1004.090	764.401
63.461	13.957	1003.093	763.687
64.476	14.016	1002.202	763.214
65.490	13.953	1001.192	762.085
66.505	13.889	1000.503	761.202
67.520	13.943	999.663	760.743
68.534	13.944	999.007	760.179
69.549	14.035	997.931	759.709
70.563	13.938	998.110	759.336
71.578	13.934	997.010	758.411
72.593	13.926	995.676	757.293
73.607	14.035	994.631	756.928
74.622	13.826	994.382	755.722
75.636	13.878	992.784	754.676
76.651	13.875	992.554	754.422
77.666	13.889	991.893	753.918
78.680	13.933	991.067	753.423
79.695	13.854	990.555	752.605
80.709	13.915	989.950	752.358
81.724	13.956	989.357	752.027
82.739	14.093	988.315	751.784
83.753	14.030	987.967	751.170
84.768	14.147	987.249	751.085
85.782	14.117	986.928	750.641
86.797	14.446	985.876	751.256
87.812	14.354	985.076	750.167
88.826	14.259	984.135	748.958
89.841	14.235	983.300	748.146
90.855	14.196	982.884	747.590
91.870	14.364	981.973	747.585
92.884	14.404	981.024	746.974
93.899	14.355	980.317	746.150
94.914	14.329	979.455	745.313
95.928	14.437	978.623	745.095
96.943	14.369	978.016	744.266
97.957	14.461	977.172	743.967
98.972	14.383	976.383	742.951
99.987	14.229	975.871	741.810
101.001	14.404	975.149	741.975
102.016	14.394	974.158	741.110
103.030	14.273	973.548	740.041
104.045	14.356	972.465	739.521
105.060	14.387	971.418	738.798
106.074	14.467	970.050	738.048
107.089	14.183	969.831	736.560
108.103	13.944	969.336	735.058
109.118	13.931	968.102	734.002
110.133	14.006	967.264	733.633
111.147	14.097	966.133	733.109
112.162	13.919	965.566	731.833
113.176	13.973	964.754	731.388
114.191	14.110	963.666	731.104
115.206	14.192	962.794	730.734
116.220	14.113	962.326	729.969
117.235	14.144	961.436	729.367
118.249	14.096	960.455	728.346
119.264	14.047	960.033	727.746
120.279	14.088	958.855	726.967
121.293	14.083	958.278	726.443
122.308	14.044	957.958	725.968
123.322	14.141	956.896	725.523
124.337	14.048	955.463	723.967
125.352	13.966	954.426	722.762
126.366	13.921	953.689	721.942
127.381	13.868	952.945	721.084
128.395	13.901	952.085	720.515
129.410	14.113	950.282	720.003
130.424	13.992	949.882	719.111
131.439	14.099	948.855	718.734
132.454	14.193	948.195	718.579
133.468	14.178	947.565	717.972
134.483	14.152	946.944	717.326
135.497	14.010	946.422	716.252
136.512	14.164	945.105	715.858
137.527	14.148	944.828	715.514
138.541	14.070	943.935	714.438
139.556	14.260	942.920	714.423
140.570	14.099	942.497	713.349
141.585	14.198	941.594	713.030
142.600	14.147	941.455	712.639
143.614	14.218	940.553	712.198
144.629	14.347	939.753	712.082
145.643	14.396	938.624	711.373
146.658	14.367	938.144	710.824
147.673	14.278	937.304	709.743
148.687	14.338	936.186	709.089
149.702	14.156	935.615	707.818
150.716	14.172	934.537	707.010
151.731	14.191	933.416	706.181
152.746	14.060	933.031	705.269
153.760	14.193	932.432	705.317
154.775	14.281	931.268	704.749
155.789	14.253	930.747	704.174
156.804	14.455	930.151	704.514
157.819	14.478	928.776	703.507
158.833	14.446	928.762	703.298
159.848	14.413	928.206	702.675
160.862	14.511	927.221	702.280
161.877	14.460	926.689	701.601
162.892	14.313	925.763	700.220
163.906	14.309	924.843	699.446
164.921	14.261	924.107	698.628
165.935	14.295	923.048	697.907
166.950	14.202	922.504	697.044
167.964	14.436	920.742	696.629
168.979	14.449	919.975	696.039
169.994	14.380	919.082	695.016
171.008	14.265	919.003	694.415
172.023	14.295	918.023	693.739
173.037	14.542	917.023	693.951
174.052	14.599	916.417	693.665
175.067	14.615	915.409	692.909
176.081	14.383	914.782	691.411
177.096	14.394	914.042	690.835
178.110	14.401	912.768	689.838
179.125	14.302	912.462	689.136
180.140	14.466	911.513	689.039
181.154	14.372	910.936	688.150
182.169	14.378	910.499	687.786
183.183	14.424	910.280	687.752
184.198	14.528	909.201	687.304
185.213	14.613	908.420	687.002
186.227	14.605	907.850	686.478
187.242	14.639	907.233	686.087
188.256	14.689	906.465	685.654
189.271	14.723	906.061	685.425
190.286	14.802	905.317	685.125
191.300	14.702	904.190	683.804
192.315	14.473	903.692	682.427
193.329	14.320	902.804	681.074
194.344	14.463	901.843	680.873
195.359	14.463	901.765	680.751
196.373	14.549	900.894	680.386
197.388	14.589	901.009	680.577
198.402	14.668	900.579	680.514
199.417	14.757	899.941	680.332
200.432	14.917	899.527	680.612
201.446	14.927	898.832	680.064
202.461	14.902	899.004	680.031
203.475	14.956	898.130	679.531
204.490	15.023	897.424	679.210
205.504	14.940	896.482	678.099
206.519	14.816	896.098	677.248
207.534	14.775	894.996	676.187
208.548	14.925	894.163	676.107
209.563	14.806	893.996	675.439
210.577	14.868	893.035	674.903
211.592	14.848	892.722	674.524
212.607	14.893	892.247	674.288
213.621	14.946	891.548	673.913
214.636	15.062	890.660	673.649
215.650	15.036	889.939	672.941
216.665	14.954	889.512	672.228
217.680	15.063	888.861	672.113
218.694	15.119	888.468	671.983
219.709	15.038	888.421	671.562
220.723	15.192	887.267	671.248
221.738	15.160	886.709	670.640
222.753	15.121	886.207	670.042
223.767	15.165	885.027	669.269
224.782	15.270	884.252	669.040
225.796	15.264	883.534	668.417
226.811	15.368	882.870	668.266
227.826	15.288	882.250	667.421
228.840	15.158	882.069	666.706
229.855	15.037	881.268	665.564
230.869	15.173	880.605	665.543
231.884	15.157	879.836	664.839
232.899	15.196	879.219	664.468
233.913	15.189	878.428	663.786
234.928	15.062	878.024	662.916
235.942	15.144	877.118	662.500
236.957	15.046	876.210	661.369
237.972	15.060	875.804	661.058
238.986	15.088	875.118	660.592
240.001	15.097	874.843	660.362
241.015	15.141	874.481	660.204
242.030	15.260	872.947	659.456
243.045	15.226	872.351	658.814
244.059	15.167	871.920	658.195
245.074	15.131	871.610	657.763
246.088	15.406	870.449	657.909
247.103	15.412	870.237	657.714
248.117	15.322	870.026	657.144
249.132	15.369	869.533	656.896
250.147	15.556	868.364	656.685
251.161	15.567	868.225	656.567
252.176	15.659	867.492	656.313
253.190	15.631	867.110	655.854
254.205	15.802	866.251	655.814
255.220	15.712	865.784	655.054
256.234	15.878	864.788	654.889
257.249	15.752	864.367	654.021
258.263	15.757	863.775	653.536
259.278	15.923	863.557	653.956
260.293	15.731	862.799	652.578
261.307	15.935	862.348	652.971
262.322	15.800	861.894	652.045
263.336	15.948	861.717	652.429
264.351	15.914	860.700	651.471
265.366	16.044	859.924	651.326
266.380	16.120	859.123	650.956
267.395	16.022	858.729	650.221
268.409	15.942	857.882	649.214
269.424	16.025	856.690	648.574
270.439	15.829	856.969	647.973
271.453	15.924	855.766	647.370
272.468	15.901	855.134	646.748
273.482	15.960	854.804	646.666
274.497	15.805	854.306	645.641
275.512	15.831	853.439	645.026
276.526	16.048	852.373	644.992
277.541	15.907	851.876	644.022
278.555	15.975	851.431	643.889
279.570	16.155	850.798	644.038
280.585	16.189	850.067	643.558
281.599	16.103	849.993	643.119
282.614	16.109	849.298	642.557
283.628	16.077	848.732	641.950
284.643	16.041	848.193	641.351
285.657	16.044	847.547	640.816
286.672	16.100	847.126	640.655
287.687	16.021	846.586	639.887
288.701	16.147	846.405	640.172
289.716	16.134	845.597	639.456
290.730	16.189	844.563	638.824
291.745	16.229	844.385	638.786
292.760	16.210	843.298	637.835
293.774	16.132	843.136	637.363
294.789	16.407	842.220	637.653
295.803	16.451	841.484	637.203
296.818	16.345	840.964	636.353
297.833	16.139	840.324	635.040
298.847	16.139	839.620	634.449
299.862	16.198	839.223	634.315
300.876	16.287	838.649	634.161
301.891	16.179	838.141	633.313
302.906	16.376	837.563	633.561
303.920	16.289	836.985	632.741
304.935	16.371	836.157	632.367
305.949	16.465	835.279	631.999
306.964	16.541	834.630	631.736
307.979	16.346	834.404	630.780
308.993	16.515	833.795	630.892
310.008	16.590	833.329	630.765
311.022	16.669	832.617	630.465
312.037	16.540	832.091	629.532
313.052	16.481	831.877	629.092
314.066	16.374	831.026	627.997
315.081	16.393	830.356	627.506
316.095	16.408	829.974	627.217
317.110	16.385	829.482	626.703
318.125	16.390	828.855	626.195
319.139	16.547	828.254	626.265
320.154	16.403	827.806	625.336
321.168	16.473	827.510	625.318
322.183	16.496	826.582	624.647
323.197	16.635	825.990	624.658
324.212	16.612	825.658	624.264
325.227	16.642	825.188	623.967
326.241	16.544	824.857	623.297
327.256	16.528	823.954	622.504
328.270	16.409	823.640	621.774
329.285	16.572	822.665	621.578
330.300	16.507	822.417	621.100
331.314	16.596	821.881	620.967
332.329	16.552	821.288	620.301
333.343	16.611	820.761	620.063
334.358	16.739	820.397	620.203
335.373	16.761	819.624	619.647
336.387	16.774	819.074	619.222
337.402	16.619	819.020	618.559
338.416	16.766	817.953	618.235
339.431	16.814	817.236	617.815
340.446	16.967	817.073	618.195
341.460	16.998	816.246	617.628
342.475	17.001	815.985	617.385
343.489	17.094	815.306	617.157
344.504	17.036	814.794	616.502
345.519	17.145	814.403	616.549
346.533	17.224	813.501	616.096
347.548	17.267	813.366	616.098
348.562	17.111	812.897	615.122
349.577	16.930	812.453	614.077
350.592	16.897	811.923	613.500
351.606	16.821	811.438	612.805
352.621	16.928	810.551	612.468
353.635	17.055	810.061	612.502
354.650	17.096	809.616	612.259
355.665	16.976	809.512	611.692
356.679	17.070	809.043	611.623
357.694	17.074	808.721	611.342
358.708	17.102	808.043	610.874
359.723	17.018	807.687	610.251
360.738	17.086	807.334	610.174
361.752	17.072	806.643	609.545
362.767	17.311	805.904	609.791
363.781	17.223	805.835	609.368
364.796	17.271	805.321	609.097
365.810	17.304	804.877	608.827
366.825	17.299	805.030	608.871
367.840	17.431	804.400	608.815
368.854	17.346	804.057	608.195
369.869	17.236	803.445	607.285
370.883	17.357	802.558	606.993
371.898	17.392	801.866	606.542
372.913	17.387	801.529	606.214
373.927	17.389	800.668	605.518
374.942	17.498	800.291	605.565
375.956	17.491	799.810	605.123
376.971	17.372	799.442	604.368
377.986	17.584	798.681	604.493
379.000	17.629	798.337	604.340
380.015	17.645	797.791	603.928
381.029	17.543	797.501	603.293
382.044	17.751	796.262	603.038
383.059	17.712	795.785	602.487
384.073	17.613	795.467	601.842
385.088	17.620	794.949	601.422
386.102	17.568	794.241	600.652
387.117	17.505	793.729	599.988
388.132	17.539	793.738	600.062
389.146	17.519	793.267	599.582
390.161	17.549	792.968	599.409
391.175	17.729	792.132	599.356
392.190	17.762	792.023	599.335
393.205	17.765	791.717	599.061
394.219	17.589	791.535	598.254
395.234	17.667	790.663	597.814
396.248	17.661	789.742	597.044
397.263	17.504	789.596	596.332
398.278	17.544	788.725	595.761
399.292	17.485	788.459	595.300
400.307	17.600	787.949	595.266
401.321	17.514	787.676	594.707
402.336	17.511	787.517	594.523
403.350	17.521	787.212	594.274
404.365	17.611	786.607	594.080
405.380	17.696	786.212	594.026
406.394	17.879	785.540	594.102
407.409	17.882	785.346	593.914
408.423	17.888	784.764	593.440
409.438	17.961	784.533	593.465
410.453	17.974	783.927	593.000
411.467	18.075	783.829	593.225
412.482	18.174	782.908	592.820
413.496	18.150	782.571	592.427
414.511	18.178	782.558	592.464
415.526	17.993	782.079	591.408
416.540	18.189	781.472	591.575
417.555	18.089	781.462	591.169
418.569	18.137	780.797	590.778
419.584	18.201	779.910	590.276
420.599	18.219	779.466	589.951
421.613	157.103	1369.357	1795.754
422.628	135.584	1455.290	1795.850
