DTS Sentinel unit serial number:	SN413079Multiplexer serial number:	ORYXHardware model number:	OX4-SRSoftware version number:	ORYX F/W v4.00 Oryx Data Collector v3.7.2.0data status	okinstallation	princeton_trtdifferential loss correction	single-endedforward channel	channel 3reverse channel	N/Adate	2019/09/15time	21:40:34forward acquisition time	60.00reverse acquisition time	0.00gamma	496.2192k internal	0.2329k external	0.2329temperature offset calibration	0.9939default loss term (dB/km)	0.3790temperature slope calibration	1.0000multiplexer offset coefficient	1.0000multiplexer slope coefficient	1.0000fibre end	0.00T internal ref (°C)	30.42T ext. ref 1 (°C)	8.36T ext. ref 2 (°C)	23.50length (m)	temperature (°C)	Stokes	anti-Stokes-747.200	37.452	0.332	-0.297
-746.185	1.254	-0.061	-0.044
-745.171	-125.438	0.230	-0.035
-744.156	627.747	-0.098	0.250
-743.142	800.000	0.127	0.374
-742.127	-111.841	-0.424	0.086
-741.112	54.812	0.118	0.115
-740.098	-57.358	-0.335	0.148
-739.083	-65.911	-0.144	0.058
-738.069	-200.000	0.045	0.305
-737.054	-200.000	-0.019	0.106
-736.039	13.707	-0.309	-0.242
-735.025	-7.578	0.123	0.084
-734.010	-44.983	0.157	0.079
-732.996	426.849	-0.138	-0.299
-731.981	-200.000	-0.037	0.205
-730.966	-200.000	0.001	0.082
-729.952	-200.000	0.019	0.148
-728.937	509.739	0.061	0.142
-727.923	-200.000	-0.000	-0.249
-726.908	-59.401	-0.178	-0.077
-725.894	-121.671	0.054	0.009
-724.879	-200.000	0.043	-0.189
-723.864	168.626	-0.050	-0.071
-722.850	-161.283	0.292	0.015
-721.835	-169.224	-0.284	0.011
-720.821	58.407	0.197	-0.194
-719.806	800.000	0.041	-0.143
-718.791	-200.000	0.005	-0.119
-717.777	800.000	-0.040	-0.134
-716.762	-15.974	0.243	-0.155
-715.748	-200.000	0.016	0.384
-714.733	17.935	0.023	-0.018
-713.718	40.362	-0.215	-0.195
-712.704	-50.403	-0.556	-0.264
-711.689	-200.000	0.001	0.199
-710.675	-2.496	0.385	0.272
-709.660	-41.419	0.231	0.120
-708.645	-200.000	-0.055	0.251
-707.631	303.028	0.053	-0.100
-706.616	173.136	-0.030	-0.044
-705.602	-94.777	-0.257	0.070
-704.587	-200.000	-0.009	0.088
-703.572	-145.237	-0.136	-0.012
-702.558	800.000	-0.162	-0.574
-701.543	704.904	0.046	-0.121
-700.529	-62.707	0.258	0.108
-699.514	800.000	0.061	-0.254
-698.499	-41.668	-0.289	0.149
-697.485	324.692	-0.129	0.248
-696.470	174.499	-0.059	-0.086
-695.456	58.958	0.071	0.070
-694.441	800.000	0.033	0.094
-693.426	16.651	0.053	0.042
-692.412	-36.720	-0.138	-0.074
-691.397	-51.725	0.245	-0.115
-690.383	426.262	0.062	-0.135
-689.368	800.000	-0.028	0.096
-688.354	224.960	-0.105	-0.170
-687.339	-43.395	-0.129	-0.066
-686.324	-64.141	0.099	0.041
-685.310	245.374	0.099	-0.167
-684.295	-155.388	0.047	0.003
-683.281	-119.088	-0.203	-0.036
-682.266	-129.187	-0.145	-0.020
-681.251	-11.512	0.272	-0.180
-680.237	23.877	0.107	-0.089
-679.222	-135.556	0.172	-0.021
-678.208	250.121	-0.210	-0.359
-677.193	-53.811	0.168	-0.077
-676.178	261.393	0.079	0.137
-675.164	-22.111	-0.178	0.108
-674.149	800.000	0.087	-0.356
-673.135	-200.000	0.009	-0.063
-672.120	457.423	0.157	-0.350
-671.105	35.423	0.357	0.315
-670.091	-22.378	-0.244	-0.148
-669.076	800.000	-0.041	-0.117
-668.062	-46.009	-0.272	0.134
-667.047	313.789	0.109	-0.207
-666.032	-200.000	0.008	0.138
-665.018	2.299	0.092	-0.067
-664.003	-52.524	-0.283	-0.131
-662.989	-200.000	0.055	-0.367
-661.974	-131.673	0.286	-0.038
-660.959	-80.745	-0.228	-0.076
-659.945	-200.000	-0.002	-0.188
-658.930	-200.000	0.055	0.273
-657.916	-200.000	-0.228	0.000
-656.901	54.776	-0.266	0.258
-655.886	-113.198	0.240	0.047
-654.872	49.320	-0.131	0.123
-653.857	-2.389	-0.128	-0.090
-652.843	-43.457	0.209	0.106
-651.828	-105.560	-0.422	-0.096
-650.814	-128.636	0.167	-0.024
-649.799	-42.351	-0.396	-0.203
-648.784	-200.000	0.012	0.164
-647.770	294.677	0.213	-0.391
-646.755	-145.060	-0.170	-0.016
-645.741	-200.000	0.028	-0.547
-644.726	-20.913	-0.110	-0.068
-643.711	189.069	0.170	-0.256
-642.697	87.098	-0.169	0.187
-641.682	2.636	0.127	-0.092
-640.668	-150.265	0.133	0.010
-639.653	0.438	-0.078	-0.056
-638.638	-34.096	-0.085	0.047
-637.624	-200.000	0.040	0.181
-636.609	-200.000	0.034	-0.225
-635.595	-125.631	0.156	0.024
-634.580	-200.000	-0.001	0.051
-633.565	-53.572	0.152	0.070
-632.551	-200.000	0.014	0.220
-631.536	-46.461	-0.500	0.246
-630.522	124.904	0.089	-0.113
-629.507	686.739	-0.072	-0.188
-628.492	-81.003	-0.068	0.023
-627.478	-132.292	-0.248	0.032
-626.463	99.472	0.085	-0.099
-625.449	-200.000	-0.015	-0.232
-624.434	-113.559	-0.271	-0.053
-623.419	-198.896	0.019	0.000
-622.405	-200.000	-0.022	-0.536
-621.390	-200.000	-0.043	-0.483
-620.376	-15.485	-0.072	-0.046
-619.361	581.610	-0.018	-0.045
-618.346	337.058	-0.034	-0.067
-617.332	-85.288	-0.138	0.043
-616.317	84.686	0.041	0.045
-615.303	374.660	0.169	0.346
-614.288	-200.000	-0.049	-0.314
-613.273	-100.518	-0.303	0.075
-612.259	547.520	-0.124	-0.299
-611.244	58.221	-0.174	-0.170
-610.230	664.241	0.048	0.124
-609.215	-87.810	-0.289	0.087
-608.201	-53.691	0.100	-0.046
-607.186	-200.000	0.001	-0.094
-606.171	26.564	-0.108	0.091
-605.157	800.000	0.005	-0.020
-604.142	-200.000	0.005	0.239
-603.128	63.646	-0.107	-0.108
-602.113	232.670	0.068	-0.112
-601.098	-130.567	-0.160	-0.022
-600.084	14.229	-0.158	0.123
-599.069	45.626	0.188	0.174
-598.055	800.000	-0.130	-0.445
-597.040	-200.000	-0.028	-0.251
-596.025	-200.000	-0.022	0.380
-595.011	12.043	-0.208	-0.161
-593.996	69.998	0.172	0.177
-592.982	-120.780	-0.119	0.020
-591.967	800.000	-0.073	-0.234
-590.952	-10.025	0.233	0.155
-589.938	-17.957	-0.170	-0.106
-588.923	-200.000	-0.004	-0.159
-587.909	-16.832	-0.450	0.285
-586.894	-99.522	-0.277	-0.070
-585.879	-200.000	-0.004	-0.182
-584.865	-95.103	0.152	-0.041
-583.850	168.310	-0.215	-0.306
-582.836	57.022	0.088	0.086
-581.821	325.903	-0.098	0.188
-580.806	72.665	-0.052	0.055
-579.792	-134.691	0.304	-0.037
-578.777	37.259	0.157	0.140
-577.763	376.172	0.039	0.080
-576.748	-89.048	0.247	0.073
-575.733	296.882	0.053	0.098
-574.719	-122.979	0.172	-0.028
-573.704	-45.605	-0.062	-0.031
-572.690	-200.000	0.053	-0.292
-571.675	152.292	-0.110	0.150
-570.661	-2.357	0.094	0.066
-569.646	800.000	0.060	0.259
-568.631	310.305	0.024	0.044
-567.617	-200.000	0.014	0.175
-566.602	-126.990	0.483	0.071
-565.588	-73.880	-0.131	-0.048
-564.573	-115.527	-0.117	-0.022
-563.558	60.570	0.046	-0.046
-562.544	-103.965	0.287	-0.067
-561.529	800.000	0.049	0.201
-560.515	-200.000	0.031	-0.189
-559.500	800.000	-0.043	0.126
-558.485	-123.778	-0.344	-0.054
-557.471	96.412	-0.141	-0.161
-556.456	31.596	-0.164	-0.141
-555.442	800.000	-0.066	-0.243
-554.427	-200.000	-0.002	0.156
-553.412	44.026	0.053	-0.049
-552.398	84.105	-0.087	-0.095
-551.383	275.871	0.056	-0.100
-550.369	52.140	0.135	-0.128
-549.354	209.289	-0.076	0.120
-548.339	3.339	0.135	0.098
-547.325	69.094	0.111	0.114
-546.310	-12.601	0.055	-0.036
-545.296	-42.126	-0.296	-0.152
-544.281	111.996	-0.300	-0.362
-543.266	-101.619	0.349	-0.085
-542.252	-200.000	-0.019	0.178
-541.237	800.000	0.058	0.232
-540.223	-27.136	0.406	-0.237
-539.208	800.000	0.097	-0.416
-538.193	704.456	-0.074	-0.194
-537.179	57.847	-0.155	0.151
-536.164	800.000	-0.065	0.279
-535.150	245.955	-0.107	-0.181
-534.135	-62.044	0.064	-0.027
-533.121	-13.704	-0.269	0.174
-532.106	-17.143	-0.100	0.063
-531.091	160.810	-0.175	-0.244
-530.077	-190.036	-0.235	0.003
-529.062	-131.733	0.047	-0.006
-528.048	5.769	-0.082	-0.061
-527.033	47.149	-0.076	0.071
-526.018	28.566	0.093	0.079
-525.004	800.000	-0.066	-0.263
-523.989	197.529	0.132	0.201
-522.975	27.014	-0.107	-0.089
-521.960	441.461	0.052	-0.114
-520.945	-105.720	-0.384	-0.087
-519.931	-41.677	0.187	-0.096
-518.916	332.839	0.134	0.259
-517.902	683.063	0.084	0.218
-516.887	83.206	-0.175	0.190
-515.872	-200.000	-0.014	-0.291
-514.858	800.000	-0.064	-0.267
-513.843	84.580	0.166	0.181
-512.829	203.831	-0.117	-0.181
-511.814	800.000	-0.012	-0.036
-510.799	165.318	0.147	0.207
-509.785	516.042	-0.050	-0.116
-508.770	632.544	-0.096	-0.243
-507.756	800.000	0.040	-0.173
-506.741	-69.051	0.175	-0.067
-505.726	759.711	-0.080	-0.217
-504.712	268.966	-0.080	-0.140
-503.697	7.281	0.297	0.221
-502.683	-48.557	-0.333	-0.160
-501.668	294.159	0.083	-0.151
-500.653	-107.688	0.201	-0.044
-499.639	212.827	-0.130	0.205
-498.624	573.976	-0.212	0.517
-497.610	-60.676	0.196	0.083
-496.595	5.723	0.129	-0.095
-495.581	-30.380	-0.225	0.127
-494.566	75.824	-0.220	0.232
-493.551	637.124	0.050	0.128
-492.537	-200.000	0.060	-0.291
-491.522	146.607	-0.058	-0.077
-490.508	221.795	0.229	0.367
-489.493	-154.419	0.155	0.010
-488.478	-162.811	-0.325	-0.016
-487.464	354.740	0.093	-0.184
-486.449	-130.059	-0.081	-0.011
-485.435	800.000	-0.070	-0.300
-484.420	-139.189	0.118	0.013
-483.405	-155.109	0.112	-0.007
-482.391	-72.482	-0.588	-0.217
-481.376	-200.000	-0.171	0.001
-480.362	800.000	0.133	0.395
-479.347	420.162	0.063	-0.134
-478.332	-200.000	-0.003	0.120
-477.318	-78.966	0.252	0.085
-476.303	449.561	-0.152	-0.335
-475.289	-200.000	-0.035	0.322
-474.274	-87.812	-0.134	0.040
-473.259	-200.000	-0.003	0.196
-472.245	800.000	0.053	0.184
-471.230	206.281	-0.071	0.111
-470.216	-200.000	0.022	-0.157
-469.201	287.964	-0.075	0.135
-468.186	-51.598	-0.131	0.061
-467.172	625.384	-0.085	0.212
-466.157	800.000	-0.046	0.131
-465.143	-157.126	-0.081	-0.005
-464.128	-23.408	0.186	0.112
-463.113	-200.000	0.018	0.090
-462.099	800.000	-0.056	0.184
-461.084	-26.631	0.084	0.049
-460.070	165.244	0.152	0.213
-459.055	294.701	0.051	-0.092
-458.040	30.442	0.187	0.159
-457.026	266.794	-0.142	-0.247
-456.011	86.482	0.243	-0.267
-454.997	800.000	0.023	0.097
-453.982	-145.235	0.103	-0.009
-452.968	-92.488	-0.135	-0.038
-451.953	49.361	-0.209	0.196
-450.938	14.263	-0.201	0.156
-449.924	166.920	0.235	0.333
-448.909	-27.755	-0.206	0.119
-447.895	800.000	-0.017	-0.068
-446.880	35.270	-0.268	-0.234
-445.865	-91.322	0.173	0.049
-444.851	-74.320	0.251	-0.090
-443.836	9.627	0.292	-0.220
-442.822	-112.064	-0.413	0.083
-441.807	-131.173	0.220	0.029
-440.792	114.857	-0.154	0.187
-439.778	46.648	-0.136	-0.126
-438.763	123.116	0.170	0.212
-437.749	67.516	-0.220	-0.224
-436.734	11.217	0.088	0.067
-435.719	116.885	0.079	0.097
-434.705	297.094	-0.105	-0.192
-433.690	107.336	0.207	0.245
-432.676	-10.460	0.090	-0.060
-431.661	296.014	0.078	-0.142
-430.646	71.691	0.220	0.228
-429.632	391.766	0.054	-0.112
-428.617	-144.435	0.301	-0.028
-427.603	-171.514	0.217	0.007
-426.588	68.085	-0.208	0.211
-425.573	-83.077	0.232	0.074
-424.559	800.000	0.092	0.319
-423.544	800.000	-0.094	0.329
-422.530	-200.000	-0.012	0.347
-421.515	800.000	-0.087	-0.369
-420.500	-77.746	-0.201	0.069
-419.486	46.198	-0.057	0.053
-418.471	95.127	-0.014	0.016
-417.457	179.263	0.070	-0.102
-416.442	67.204	0.353	0.358
-415.428	6.056	0.107	-0.079
-414.413	435.481	-0.048	0.104
-413.398	323.397	-0.077	0.146
-412.384	196.654	0.224	0.340
-411.369	-200.000	-0.001	0.062
-410.355	-48.318	-0.110	0.053
-409.340	209.543	-0.111	-0.172
-408.325	177.938	0.187	-0.271
-407.311	361.121	-0.099	-0.197
-406.296	55.017	-0.210	0.202
-405.282	-10.115	0.078	-0.052
-404.267	4.976	-0.159	0.116
-403.252	272.519	-0.050	-0.088
-402.238	385.497	0.106	-0.218
-401.223	-200.000	-0.034	-0.211
-400.209	37.868	0.229	0.202
-399.194	800.000	0.095	0.304
-398.179	90.539	-0.086	-0.096
-397.165	29.125	-0.144	-0.121
-396.150	-200.000	-0.015	0.294
-395.136	-89.538	0.092	0.027
-394.121	-200.000	-0.038	-0.171
-393.106	-200.000	0.007	-0.056
-392.092	-105.749	0.274	0.062
-391.077	19.224	0.097	0.077
-390.063	-34.097	-0.295	0.161
-389.048	675.273	-0.068	0.176
-388.033	-182.392	-0.143	0.003
-387.019	-200.000	0.063	0.453
-386.004	-89.150	-0.246	0.072
-384.990	176.238	0.175	-0.253
-383.975	800.000	0.104	-0.388
-382.960	-160.922	0.223	-0.012
-381.946	781.894	-0.050	-0.136
-380.931	4.073	-0.112	-0.081
-379.917	-19.773	-0.350	-0.215
-378.902	360.998	0.071	0.141
-377.888	95.952	0.118	-0.134
-376.873	-51.242	-0.167	-0.078
-375.858	800.000	0.028	-0.088
-374.844	800.000	0.048	0.159
-373.829	128.157	-0.149	0.188
-372.815	-43.548	-0.405	0.203
-371.800	204.005	-0.074	-0.114
-370.785	498.169	-0.088	0.202
-369.771	-143.880	-0.302	0.028
-368.756	-105.377	0.274	-0.062
-367.742	800.000	0.077	-0.243
-366.727	96.396	-0.118	0.134
-365.712	800.000	0.016	0.068
-364.698	251.959	0.098	-0.166
-363.683	-85.863	0.262	-0.080
-362.669	8.565	0.036	-0.027
-361.654	-98.641	0.199	-0.050
-360.639	6.176	-0.067	-0.049
-359.625	12.246	-0.363	-0.278
-358.610	-93.052	-0.174	-0.048
-357.596	10.988	0.309	-0.234
-356.581	777.257	-0.021	0.056
-355.566	-98.254	-0.368	0.094
-354.552	-69.364	0.113	0.043
-353.537	-121.188	-0.314	0.052
-352.523	85.121	-0.312	-0.339
-351.508	-24.055	0.234	0.139
-350.493	146.262	0.067	0.089
-349.479	213.718	-0.200	-0.313
-348.464	-95.171	0.082	0.022
-347.450	-56.145	-0.205	0.091
-346.435	-200.000	-0.035	0.550
-345.420	-200.000	0.018	0.212
-344.406	21.374	0.103	0.083
-343.391	800.000	-0.079	0.324
-342.377	192.722	0.008	-0.012
-341.362	-200.000	-0.023	0.418
-340.348	-33.393	-0.034	-0.018
-339.333	800.000	0.034	-0.122
-338.318	-200.000	-0.024	0.157
-337.304	-89.383	0.161	0.047
-336.289	800.000	0.009	0.040
-335.275	6.997	0.105	0.078
-334.260	7.063	0.182	0.135
-333.245	-154.323	0.126	0.008
-332.231	189.271	0.072	-0.107
-331.216	31.353	-0.336	-0.286
-330.202	800.000	-0.047	-0.177
-329.187	-200.000	0.037	0.165
-328.172	-200.000	0.018	-0.418
-327.158	-82.693	0.217	0.070
-326.143	68.225	-0.122	-0.123
-325.129	-2.926	-0.298	-0.206
-324.114	-187.906	0.153	0.002
-323.099	8.476	0.091	-0.068
-322.085	-200.000	-0.020	-0.229
-321.070	-37.842	-0.109	-0.057
-320.056	-200.000	-0.059	-0.399
-319.041	11.217	-0.131	0.099
-318.026	140.675	0.143	-0.187
-317.012	800.000	0.057	-0.179
-315.997	-200.000	0.007	0.281
-314.983	228.240	0.083	0.133
-313.968	800.000	0.073	0.291
-312.953	335.322	-0.066	-0.127
-311.939	206.139	-0.049	-0.075
-310.924	-118.991	-0.110	-0.019
-309.910	-169.085	0.077	0.003
-308.895	-200.000	0.054	-0.255
-307.880	800.000	0.034	-0.095
-306.866	83.890	0.181	0.195
-305.851	-14.989	-0.017	-0.010
-304.837	-200.000	-0.028	0.234
-303.822	-127.958	-0.377	0.054
-302.807	800.000	0.059	0.181
-301.793	20.189	-0.040	-0.032
-300.778	322.756	-0.136	-0.256
-299.764	800.000	-0.071	-0.256
-298.749	86.376	-0.081	0.088
-297.735	281.498	-0.061	0.108
-296.720	800.000	-0.041	-0.127
-295.705	-200.000	-0.007	-0.308
-294.691	779.409	-0.082	0.221
-293.676	800.000	0.084	-0.301
-292.662	32.174	-0.164	0.140
-291.647	800.000	-0.046	0.195
-290.632	800.000	0.006	0.023
-289.618	252.568	0.189	0.318
-288.603	69.733	-0.117	0.119
-287.589	800.000	0.046	-0.191
-286.574	287.914	0.146	-0.262
-285.559	-121.092	0.257	-0.043
-284.545	261.584	0.134	-0.230
-283.530	15.336	0.115	0.089
-282.516	-175.303	-0.129	0.004
-281.501	-200.000	-0.017	-0.187
-280.486	-200.000	0.025	-0.275
-279.472	-91.876	0.071	-0.020
-278.457	110.362	-0.063	-0.075
-277.443	-200.000	-0.024	0.333
-276.428	418.661	-0.199	0.421
-275.413	800.000	0.047	0.176
-274.399	122.558	-0.067	0.083
-273.384	-17.466	-0.091	-0.057
-272.370	-200.000	-0.006	-0.194
-271.355	-100.742	-0.061	0.015
-270.340	-200.000	0.006	-0.149
-269.326	124.526	0.120	-0.149
-268.311	-200.000	0.003	0.100
-267.297	-33.290	-0.235	-0.129
-266.282	-200.000	-0.044	0.265
-265.267	74.329	0.270	0.281
-264.253	12.049	-0.099	0.075
-263.238	79.382	-0.161	-0.171
-262.224	-173.801	0.231	0.007
-261.209	227.191	-0.115	0.185
-260.195	-109.243	-0.255	-0.054
-259.180	-27.861	0.118	-0.068
-258.165	-27.718	-0.401	-0.230
-257.151	25.704	0.188	-0.154
-256.136	-200.000	0.009	-0.136
-255.122	-200.000	0.002	-0.349
-254.107	278.189	0.084	-0.148
-253.092	800.000	-0.079	0.228
-252.078	800.000	-0.116	0.456
-251.063	-21.900	0.132	0.079
-250.049	-200.000	-0.024	-0.226
-249.034	302.561	0.164	0.300
-248.019	-108.670	0.086	0.018
-247.005	-72.200	0.338	0.124
-245.990	26.926	-0.105	-0.087
-244.976	800.000	0.046	-0.195
-243.961	141.951	0.068	-0.089
-242.946	-101.787	0.262	0.063
-241.932	-91.344	0.450	-0.127
-240.917	-17.724	-0.216	0.134
-239.903	-0.841	-0.301	-0.211
-238.888	146.584	0.077	-0.102
-237.873	148.725	0.158	-0.211
-236.859	190.238	0.110	0.164
-235.844	-35.828	0.312	0.167
-234.830	-32.305	-0.240	-0.132
-233.815	115.459	0.071	-0.086
-232.800	-71.992	0.141	0.052
-231.786	-200.000	-0.048	0.240
-230.771	42.527	0.360	-0.324
-229.757	-200.000	0.033	-0.190
-228.742	-200.000	-0.078	0.386
-227.727	-200.000	0.038	0.205
-226.713	800.000	-0.020	-0.061
-225.698	-200.000	-0.064	-0.343
-224.684	-200.000	-0.033	-0.240
-223.669	497.645	-0.069	0.157
-222.655	-23.687	-0.239	-0.141
-221.640	-76.249	0.148	-0.052
-220.625	-84.503	0.174	-0.054
-219.611	494.949	-0.032	0.072
-218.596	-112.378	0.307	0.061
-217.582	800.000	-0.128	0.479
-216.567	-46.906	-0.272	0.131
-215.552	-90.344	0.362	-0.104
-214.538	417.057	-0.101	-0.213
-213.523	198.359	0.179	-0.270
-212.509	-83.769	0.588	0.185
-211.494	-132.845	0.093	-0.012
-210.479	-102.040	-0.172	0.041
-209.465	800.000	-0.109	0.300
-208.450	54.557	0.161	0.153
-207.436	-136.284	0.212	-0.024
-206.421	30.867	0.294	0.248
-205.406	-148.604	0.155	-0.012
-204.392	-122.104	-0.030	0.005
-203.377	464.641	0.087	-0.193
-202.363	60.180	-0.106	-0.103
-201.348	800.000	0.077	0.238
-200.333	95.867	0.152	-0.171
-199.319	292.194	0.170	0.305
-198.304	-144.578	0.431	-0.039
-197.290	161.150	-0.062	0.085
-196.275	147.788	-0.213	0.283
-195.260	800.000	-0.085	0.319
-194.246	42.800	-0.231	-0.208
-193.231	800.000	0.043	0.165
-192.217	70.653	0.104	-0.107
-191.202	10.569	0.229	0.172
-190.187	529.729	-0.195	0.455
-189.173	-200.000	-0.017	-0.172
-188.158	-147.086	0.079	-0.007
-187.144	-200.000	0.013	0.391
-186.129	800.000	0.091	0.309
-185.114	161.846	0.134	0.185
-184.100	241.898	-0.181	-0.298
-183.085	-124.003	-0.091	0.014
-182.071	-200.000	-0.033	0.230
-181.056	-200.000	-0.008	-0.194
-180.042	204.772	0.087	-0.133
-179.027	800.000	0.040	-0.109
-178.012	525.719	0.095	-0.220
-176.998	-200.000	0.028	-0.459
-175.983	-49.191	0.212	0.100
-174.969	-137.335	0.371	0.041
-173.954	63.858	0.065	0.064
-172.939	391.454	-0.061	0.124
-171.925	-88.816	0.199	-0.058
-170.910	-11.330	0.146	-0.095
-169.896	379.879	-0.138	0.278
-168.881	800.000	0.052	-0.213
-167.866	-171.512	0.076	-0.002
-166.852	-55.312	-0.386	0.171
-165.837	-200.000	-0.032	0.166
-164.823	464.899	0.190	0.419
-163.808	-200.000	-0.017	0.224
-162.793	85.705	-0.276	0.299
-161.779	-39.522	-0.229	-0.118
-160.764	-98.266	0.296	0.075
-159.750	193.029	0.145	0.216
-158.735	325.506	-0.225	-0.423
-157.720	117.604	0.278	-0.337
-156.706	239.056	0.223	-0.365
-155.691	146.665	-0.149	-0.197
-154.677	74.407	0.153	0.158
-153.662	-36.730	-0.103	-0.055
-152.647	-139.305	0.299	0.032
-151.633	5.451	-0.171	-0.124
-150.618	-63.918	0.122	-0.049
-149.604	-200.000	0.027	0.323
-148.589	-99.060	0.168	-0.042
-147.574	-57.073	0.254	-0.110
-146.560	13.492	-0.110	-0.084
-145.545	603.781	0.141	-0.344
-144.531	4.665	0.138	-0.100
-143.516	-98.920	-0.160	-0.040
-142.502	-72.919	-0.124	-0.045
-141.487	-95.840	-0.318	0.084
-140.472	800.000	0.051	-0.213
-139.458	-142.057	-0.237	-0.023
-138.443	-61.464	-0.251	-0.104
-137.429	-147.442	0.185	-0.015
-136.414	121.392	0.183	-0.224
-135.399	428.576	0.132	0.280
-134.385	273.288	-0.205	0.356
-133.370	-68.572	-0.090	0.034
-132.356	-88.705	-0.173	-0.051
-131.341	-200.000	0.018	0.264
-130.326	800.000	0.094	-0.341
-129.312	-100.483	0.166	-0.040
-128.297	104.326	-0.057	0.066
-127.283	-136.962	0.238	-0.027
-126.268	-90.982	-0.226	-0.064
-125.253	-73.961	0.387	-0.138
-124.239	45.332	-0.126	-0.114
-123.224	29.126	0.161	0.134
-122.210	89.173	0.130	0.143
-121.195	145.705	0.017	0.023
-120.180	-200.000	-0.006	0.148
-119.166	63.035	0.184	0.181
-118.151	-138.432	0.271	0.029
-117.137	-84.450	0.101	-0.031
-116.122	-112.152	-0.160	0.032
-115.107	-200.000	-0.022	-0.163
-114.093	-29.058	0.051	0.029
-113.078	-61.024	0.265	0.110
-112.064	96.553	-0.087	-0.098
-111.049	-169.858	-0.213	-0.008
-110.034	33.035	0.161	0.137
-109.020	-70.461	0.012	-0.005
-108.005	-126.911	0.326	-0.047
-106.991	-63.498	0.089	0.036
-105.976	10.795	-0.054	0.040
-104.962	800.000	0.029	-0.100
-103.947	-135.322	-0.360	-0.042
-102.932	370.283	0.087	-0.173
-101.918	-35.813	-0.135	0.072
-100.903	800.000	0.092	0.338
-99.889	-43.546	0.117	0.058
-98.874	-200.000	-0.001	0.094
-97.859	204.551	0.062	-0.095
-96.845	-117.725	-0.177	0.031
-95.830	-35.638	-0.498	-0.265
-94.816	-137.722	-0.056	-0.006
-93.801	-31.878	0.225	0.124
-92.786	247.991	-0.189	0.315
-91.772	110.571	0.101	-0.119
-90.757	511.045	-0.098	0.224
-89.743	-200.000	0.030	-0.188
-88.728	333.354	0.294	-0.558
-87.713	-53.451	0.143	-0.064
-86.699	-95.734	-0.160	-0.042
-85.684	250.201	-0.108	0.180
-84.670	102.508	0.221	-0.254
-83.655	-128.461	0.140	0.020
-82.640	-149.870	0.239	-0.018
-81.626	9.882	0.171	-0.128
-80.611	-200.000	-0.006	0.073
-79.597	647.863	-0.036	0.090
-78.582	48.654	-0.202	-0.186
-77.567	800.000	-0.022	-0.059
-76.553	-1.128	0.068	0.047
-75.538	69.340	-0.276	-0.278
-74.524	800.000	0.006	-0.021
-73.509	546.692	0.084	0.197
-72.494	4.809	-0.099	0.071
-71.480	24.997	0.083	-0.068
-70.465	-118.084	-0.360	-0.063
-69.451	-59.298	-0.040	-0.017
-68.436	-165.412	0.294	0.013
-67.422	268.889	0.155	-0.266
-66.407	68.377	0.142	-0.143
-65.392	-62.641	-0.210	-0.085
-64.378	-148.736	0.260	-0.021
-63.363	-200.000	0.000	0.175
-62.349	-43.942	-0.164	-0.081
-61.334	77.541	-1.047	-1.094
-60.319	96.413	0.583	0.654
-59.305	800.000	-0.408	-1.114
-58.290	160.448	0.814	1.113
-57.276	800.000	0.506	1.782
-56.261	-200.000	105.935	598.018
-55.246	474.176	1457.161	3223.177
-54.232	151.918	2629.927	3516.260
-53.217	108.981	2159.153	2531.846
-52.203	40.746	1695.679	1499.298
-51.188	33.576	1510.639	1287.177
-50.173	31.207	1483.773	1248.417
-49.159	51.889	1538.619	1436.016
-48.144	52.771	1555.415	1457.645
-47.130	33.763	1512.546	1289.866
-46.115	30.718	1497.842	1256.748
-45.100	30.510	1494.312	1252.338
-44.086	30.469	1492.452	1250.450
-43.071	30.485	1490.199	1248.625
-42.057	30.395	1488.871	1246.858
-41.042	30.315	1487.584	1245.191
-40.027	30.412	1485.780	1244.281
-39.013	30.428	1484.066	1242.907
-37.998	30.357	1483.097	1241.570
-36.984	30.397	1482.030	1240.897
-35.969	30.330	1480.724	1239.306
-34.954	30.403	1479.341	1238.584
-33.940	30.361	1477.807	1236.972
-32.925	30.495	1476.375	1236.615
-31.911	30.400	1475.372	1235.095
-30.896	30.449	1474.276	1234.452
-29.881	30.544	1472.298	1233.382
-28.867	30.423	1471.711	1232.034
-27.852	30.470	1469.903	1230.783
-26.838	30.544	1468.457	1230.012
-25.823	30.554	1467.115	1228.906
-24.809	30.556	1465.245	1227.303
-23.794	30.433	1463.883	1225.303
-22.779	30.451	1463.056	1224.685
-21.765	30.450	1461.738	1223.524
-20.750	30.539	1460.518	1223.040
-19.736	30.442	1460.062	1221.975
-18.721	30.447	1459.082	1221.139
-17.706	30.460	1457.712	1220.025
-16.692	30.364	1456.723	1218.518
-15.677	30.387	1455.493	1217.595
-14.663	30.416	1454.621	1217.002
-13.648	30.492	1453.843	1216.804
-12.633	30.474	1452.540	1215.548
-11.619	30.445	1452.102	1214.943
-10.604	30.366	1451.202	1213.628
-9.590	30.349	1450.457	1212.843
-8.575	30.344	1449.135	1211.656
-7.560	30.413	1448.445	1211.481
-6.546	30.303	1448.024	1210.364
-5.531	30.287	1447.225	1209.546
-4.517	30.337	1446.062	1208.852
-3.502	30.468	1444.883	1208.668
-2.487	30.444	1443.447	1207.262
-1.473	30.359	1442.543	1205.905
-0.458	30.366	1441.488	1205.026
0.556	28.311	1431.596	1192.509
1.571	24.917	1405.210	1148.696
2.586	20.973	1343.873	1074.206
3.600	19.152	1261.713	997.904
4.615	17.921	1216.945	955.523
5.629	16.674	1164.191	907.343
6.644	12.632	1087.350	827.103
7.659	9.103	1051.200	782.366
8.673	8.595	1046.149	776.076
9.688	8.356	1042.805	772.367
10.702	8.314	1041.603	771.209
11.717	8.195	1039.790	769.224
12.731	9.906	1040.225	777.725
13.746	13.978	1045.570	801.327
14.761	17.287	1049.037	819.900
15.775	17.529	1048.996	820.962
16.790	16.713	1046.426	814.953
17.804	15.803	1044.313	808.862
18.819	14.839	1042.328	802.627
19.834	14.282	1041.616	799.333
20.848	13.955	1040.306	796.691
21.863	13.770	1039.248	794.922
22.877	13.503	1038.846	793.266
23.892	13.255	1038.077	791.423
24.907	13.258	1037.052	790.586
25.921	13.325	1035.883	789.942
26.936	13.199	1035.866	789.256
27.950	13.330	1034.601	788.847
28.965	13.371	1033.541	788.165
29.980	13.369	1032.419	787.230
30.994	13.582	1031.537	787.500
32.009	13.644	1030.409	786.866
33.023	13.549	1029.688	785.795
34.038	13.609	1029.044	785.519
35.053	13.527	1028.270	784.467
36.067	13.575	1026.824	783.522
37.082	13.481	1026.229	782.557
38.096	13.447	1025.639	781.877
39.111	13.506	1024.704	781.373
40.126	13.673	1023.554	781.215
41.140	13.479	1023.093	779.878
42.155	13.346	1021.898	778.272
43.169	13.246	1020.949	777.014
44.184	13.290	1019.952	776.390
45.199	13.329	1018.383	775.313
46.213	13.411	1017.591	775.022
47.228	13.273	1017.104	773.937
48.242	13.351	1015.598	773.089
49.257	13.486	1014.821	773.057
50.271	13.451	1013.665	771.945
51.286	13.504	1012.834	771.492
52.301	13.469	1012.507	771.010
53.315	13.429	1011.828	770.240
54.330	13.472	1010.776	769.571
55.344	13.364	1010.110	768.495
56.359	13.314	1008.618	767.058
57.374	13.189	1008.373	766.227
58.388	13.213	1007.289	765.444
59.403	13.279	1006.390	765.002
60.417	13.287	1005.640	764.400
61.432	13.257	1004.900	763.630
62.447	13.243	1004.216	762.979
63.461	13.239	1003.120	762.062
64.476	13.225	1001.972	761.055
65.490	13.113	1001.372	760.018
66.505	13.141	1000.362	759.313
67.520	13.171	999.760	758.927
68.534	13.283	998.906	758.724
69.549	13.190	998.194	757.691
70.563	13.205	997.698	757.315
71.578	13.120	997.032	756.353
72.593	13.191	995.915	755.766
73.607	13.145	995.139	754.897
74.622	13.203	994.137	754.338
75.636	13.054	993.562	753.153
76.651	13.112	992.686	752.689
77.666	13.067	992.112	751.980
78.680	13.030	991.245	751.090
79.695	13.053	990.693	750.705
80.709	13.152	990.415	750.880
81.724	13.196	989.710	750.481
82.739	13.296	988.439	749.901
83.753	13.290	987.489	749.090
84.768	13.359	987.017	748.978
85.782	13.531	986.103	748.993
86.797	13.573	985.438	748.615
87.812	13.410	985.135	747.583
88.826	13.522	983.643	746.888
89.841	13.527	983.148	746.467
90.855	13.366	982.340	745.065
91.870	13.450	981.563	744.788
92.884	13.589	980.985	744.904
93.899	13.527	980.295	744.040
94.914	13.578	979.561	743.646
95.928	13.568	979.068	743.160
96.943	13.547	978.254	742.383
97.957	13.657	977.073	741.912
98.972	13.564	976.307	740.848
99.987	13.397	975.865	739.699
101.001	13.449	975.314	739.452
102.016	13.531	974.078	738.813
103.030	13.514	973.046	737.890
104.045	13.428	972.246	736.835
105.060	13.648	970.994	736.800
106.074	13.524	970.135	735.531
107.089	13.351	969.558	734.260
108.103	13.351	968.855	733.663
109.118	13.210	968.016	732.338
110.133	13.204	967.546	731.890
111.147	13.324	965.774	731.017
112.162	13.235	964.916	729.911
113.176	13.226	964.610	729.577
114.191	13.386	963.567	729.424
115.206	13.497	962.444	729.001
116.220	13.386	962.060	728.156
117.235	13.278	961.430	727.142
118.249	13.372	960.405	726.716
119.264	13.365	959.453	725.900
120.279	13.414	958.664	725.451
121.293	13.381	957.828	724.611
122.308	13.332	956.885	723.617
123.322	13.364	955.974	723.008
124.337	13.230	955.372	721.903
125.352	13.170	953.951	720.503
126.366	13.304	952.804	720.155
127.381	13.336	951.786	719.462
128.395	13.401	950.679	718.846
129.410	13.208	950.253	717.620
130.424	13.317	949.078	717.142
131.439	13.214	948.665	716.322
132.454	13.350	947.727	716.139
133.468	13.428	946.963	715.834
134.483	13.312	946.357	714.811
135.497	13.374	945.706	714.523
136.512	13.383	944.957	713.932
137.527	13.332	944.126	713.023
138.541	13.287	943.641	712.400
139.556	13.374	942.717	712.014
140.570	13.424	941.836	711.498
141.585	13.443	940.765	710.707
142.600	13.604	940.371	711.039
143.614	13.530	939.844	710.261
144.629	13.607	938.838	709.768
145.643	13.567	938.150	709.013
146.658	13.513	937.531	708.254
147.673	13.567	936.268	707.465
148.687	13.585	935.798	707.127
149.702	13.473	934.957	705.951
150.716	13.464	933.667	704.876
151.731	13.504	933.073	704.534
152.746	13.423	932.541	703.724
153.760	13.420	931.313	702.723
154.775	13.481	930.638	702.411
155.789	13.539	930.251	702.305
156.804	13.670	929.225	702.022
157.819	13.629	928.403	701.165
158.833	13.550	928.358	700.734
159.848	13.736	927.755	701.002
160.862	13.654	927.054	700.065
161.877	13.567	926.275	699.049
162.892	13.608	925.534	698.598
163.906	13.604	924.523	697.760
164.921	13.597	923.547	696.932
165.935	13.425	922.836	695.608
166.950	13.516	921.788	695.142
167.964	13.688	920.364	694.727
168.979	13.590	919.653	693.718
169.994	13.635	918.605	693.051
171.008	13.489	917.877	691.834
172.023	13.622	916.964	691.638
173.037	13.585	916.652	691.186
174.052	13.892	915.578	691.595
175.067	13.857	914.844	690.834
176.081	13.663	914.414	689.639
177.096	13.732	913.144	688.908
178.110	13.612	912.756	688.056
179.125	13.656	912.160	687.729
180.140	13.638	911.266	686.921
181.154	13.643	910.352	686.193
182.169	13.781	909.949	686.399
183.183	13.807	909.534	686.131
184.198	13.692	909.099	685.266
185.213	13.850	907.639	684.760
186.227	13.858	907.175	684.381
187.242	13.971	906.759	684.471
188.256	13.833	906.029	683.293
189.271	13.991	905.394	683.400
190.286	13.971	904.671	682.715
191.300	14.003	903.462	681.872
192.315	13.836	903.025	680.798
193.329	13.625	902.398	679.401
194.344	13.627	901.805	678.901
195.359	13.672	901.100	678.495
196.373	13.791	900.590	678.537
197.388	13.815	900.324	678.373
198.402	13.913	900.021	678.485
199.417	14.072	898.922	678.247
200.432	14.145	898.732	678.339
201.446	14.061	898.537	677.792
202.461	14.242	898.089	678.130
203.475	14.305	897.390	677.802
204.490	14.118	896.800	676.535
205.504	14.195	895.796	676.029
206.519	14.113	895.177	675.168
207.534	13.901	894.793	673.958
208.548	13.984	893.523	673.278
209.563	14.114	892.914	673.289
210.577	14.158	892.392	673.014
211.592	14.135	891.681	672.323
212.607	14.182	891.176	672.073
213.621	14.280	890.566	671.950
214.636	14.176	889.873	670.947
215.650	14.305	889.351	671.015
216.665	14.345	888.686	670.613
217.680	14.325	888.469	670.310
218.694	14.357	887.564	669.699
219.709	14.315	887.423	669.364
220.723	14.346	886.559	668.778
221.738	14.346	885.823	668.163
222.753	14.220	885.478	667.339
223.767	14.368	884.736	667.314
224.782	14.352	883.860	666.528
225.796	14.410	883.311	666.289
226.811	14.548	882.048	665.826
227.826	14.420	881.809	665.074
228.840	14.320	881.183	664.147
229.855	14.350	880.760	663.890
230.869	14.588	879.583	663.891
231.884	14.431	879.017	662.781
232.899	14.506	877.939	662.207
233.913	14.390	877.693	661.502
234.928	14.319	876.845	660.522
235.942	14.291	876.404	660.020
236.957	14.398	875.413	659.641
237.972	14.377	874.869	659.086
238.986	14.321	874.608	658.613
240.001	14.257	873.968	657.817
241.015	14.461	872.926	657.781
242.030	14.488	872.229	657.306
243.045	14.497	871.673	656.863
244.059	14.500	871.290	656.530
245.074	14.561	870.584	656.180
246.088	14.586	870.017	655.789
247.103	14.611	869.540	655.471
248.117	14.613	868.869	654.915
249.132	14.760	868.303	655.007
250.147	15.033	867.340	655.290
251.161	14.871	866.923	654.283
252.176	14.945	866.261	654.017
253.190	15.003	865.813	653.846
254.205	15.034	865.317	653.535
255.220	14.968	865.157	653.097
256.234	15.002	863.720	652.090
257.249	15.077	863.187	651.921
258.263	15.029	863.285	651.749
259.278	15.008	862.158	650.761
260.293	15.073	861.890	650.753
261.307	15.159	861.463	650.706
262.322	15.099	860.939	650.021
263.336	15.125	860.471	649.712
264.351	15.201	859.567	649.266
265.366	15.266	858.658	648.773
266.380	15.200	858.520	648.357
267.395	15.218	857.964	647.948
268.409	15.242	856.958	647.225
269.424	15.182	856.165	646.334
270.439	15.187	855.494	645.793
271.453	15.240	854.752	645.378
272.468	15.051	854.136	644.129
273.482	15.242	853.440	644.283
274.497	15.209	853.068	643.816
275.512	15.237	852.114	643.147
276.526	15.255	851.175	642.450
277.541	15.156	851.161	642.003
278.555	15.240	850.505	641.775
279.570	15.250	850.170	641.504
280.585	15.469	849.206	641.557
281.599	15.518	848.803	641.381
282.614	15.457	848.323	640.728
283.628	15.294	847.763	639.629
284.643	15.364	847.244	639.445
285.657	15.375	846.560	638.916
286.672	15.321	845.902	638.156
287.687	15.383	845.237	637.835
288.701	15.443	844.882	637.739
289.716	15.283	844.449	636.747
290.730	15.456	843.802	636.860
291.745	15.407	843.576	636.447
292.760	15.501	842.617	636.022
293.774	15.563	841.782	635.572
294.789	15.596	841.293	635.269
295.803	15.677	840.671	635.050
296.818	15.654	840.027	634.421
297.833	15.517	839.676	633.583
298.847	15.569	838.485	632.823
299.862	15.527	837.916	632.180
300.876	15.624	837.584	632.239
301.891	15.552	836.961	631.442
302.906	15.553	836.856	631.310
303.920	15.694	835.727	630.932
304.935	15.776	835.204	630.790
305.949	15.764	834.490	630.151
306.964	15.755	833.855	629.582
307.979	15.765	833.316	629.156
308.993	15.841	832.961	629.115
310.008	15.894	832.340	628.790
311.022	15.863	831.488	627.976
312.037	15.822	831.354	627.664
313.052	15.798	830.907	627.182
314.066	15.787	829.846	626.286
315.081	15.693	829.465	625.592
316.095	15.855	828.805	625.641
317.110	15.722	828.373	624.764
318.125	15.765	827.920	624.527
319.139	15.702	827.917	624.236
320.154	15.734	827.142	623.715
321.168	15.770	826.435	623.261
322.183	15.897	825.690	623.114
323.197	15.691	825.603	622.232
324.212	15.958	824.469	622.309
325.227	15.822	824.562	621.821
326.241	15.996	823.613	621.691
327.256	15.878	823.142	620.844
328.270	15.975	822.183	620.423
329.285	15.926	822.127	620.148
330.300	15.799	821.542	619.183
331.314	15.795	821.259	618.902
332.329	15.926	820.557	618.801
333.343	16.044	819.544	618.412
334.358	16.067	818.953	617.996
335.373	16.010	818.765	617.590
336.387	16.054	817.857	617.012
337.402	16.103	817.654	616.983
338.416	16.035	817.018	616.199
339.431	16.099	816.895	616.287
340.446	16.216	815.943	615.944
341.460	16.186	815.396	615.365
342.475	16.342	814.903	615.507
343.489	16.311	814.667	615.161
344.504	16.382	813.950	614.823
345.519	16.395	813.666	614.603
346.533	16.480	812.826	614.223
347.548	16.380	812.604	613.637
348.562	16.348	811.837	612.888
349.577	16.307	811.379	612.337
350.592	16.443	810.457	612.080
351.606	16.340	810.052	611.347
352.621	16.255	809.962	610.921
353.635	16.394	809.518	611.032
354.650	16.449	809.187	610.929
355.665	16.322	808.731	610.071
356.679	16.432	807.837	609.741
357.694	16.476	807.824	609.833
358.708	16.406	807.092	608.974
359.723	16.506	806.371	608.738
360.738	16.404	805.905	607.963
361.752	16.451	805.325	607.641
362.767	16.479	804.807	607.297
363.781	16.563	804.671	607.445
364.796	16.653	804.130	607.305
365.810	16.548	803.943	606.732
366.825	16.738	803.530	607.050
367.840	16.632	803.379	606.500
368.854	16.655	802.905	606.171
369.869	16.483	802.657	605.314
370.883	16.566	801.972	605.042
371.898	16.647	801.648	605.032
372.913	16.724	800.669	604.515
373.927	16.776	799.947	604.104
374.942	16.810	799.293	603.677
375.956	16.643	798.907	602.739
376.971	16.933	797.979	603.014
377.986	16.983	797.492	602.772
379.000	16.967	797.274	602.496
380.015	16.931	796.584	601.794
381.029	16.829	796.288	601.156
382.044	16.908	795.881	601.073
383.059	16.879	795.395	600.551
384.073	16.860	794.905	600.063
385.088	16.884	794.104	599.488
386.102	16.872	793.826	599.182
387.117	16.844	793.003	598.411
388.132	16.831	792.586	597.996
389.146	16.841	792.207	597.694
390.161	17.057	791.626	597.963
391.175	16.945	791.574	597.477
392.190	16.999	791.247	597.366
393.205	16.997	790.684	596.883
394.219	17.009	790.058	596.398
395.234	16.833	789.642	595.414
396.248	17.077	788.957	595.701
397.263	16.820	788.639	594.506
398.278	16.808	788.298	594.155
399.292	16.908	787.754	594.041
400.307	16.893	787.609	593.828
401.321	16.811	787.266	593.228
402.336	16.940	786.974	593.408
403.350	16.884	786.426	592.746
404.365	17.079	785.655	592.793
405.380	16.940	785.499	592.140
406.394	17.174	784.600	592.224
407.409	17.357	784.133	592.458
408.423	17.427	783.769	592.373
409.438	17.305	783.467	591.668
410.453	17.318	783.184	591.447
411.467	17.353	782.766	591.202
412.482	17.498	782.108	591.155
413.496	17.516	781.815	590.943
414.511	17.443	781.663	590.524
415.526	17.511	781.071	590.260
416.540	17.243	781.172	589.354
417.555	17.411	780.350	589.263
418.569	17.513	779.999	589.300
419.584	17.434	779.302	588.448
420.599	17.412	779.020	588.108
421.613	109.273	1290.604	1468.318
422.628	93.459	1365.127	1468.433
