DTS Sentinel unit serial number:	SN413079Multiplexer serial number:	ORYXHardware model number:	OX4-SRSoftware version number:	ORYX F/W v4.00 Oryx Data Collector v3.7.2.0data status	okinstallation	princeton_trtdifferential loss correction	single-endedforward channel	channel 3reverse channel	N/Adate	2019/09/17time	00:04:35forward acquisition time	60.00reverse acquisition time	0.00gamma	496.2192k internal	0.2325k external	0.2325temperature offset calibration	0.9944default loss term (dB/km)	0.3790temperature slope calibration	1.0000multiplexer offset coefficient	1.0000multiplexer slope coefficient	1.0000fibre end	0.00T internal ref (°C)	29.56T ext. ref 1 (°C)	0.10T ext. ref 2 (°C)	23.94length (m)	temperature (°C)	Stokes	anti-Stokes-747.200	439.180	-0.103	0.226
-746.185	-8.830	-0.184	0.125
-745.171	-119.567	-0.179	0.031
-744.156	-146.811	-0.103	0.009
-743.142	-26.089	-0.239	-0.142
-742.127	-161.342	0.172	0.009
-741.112	104.282	0.446	0.530
-740.098	299.144	0.046	-0.086
-739.083	800.000	0.060	-0.257
-738.069	-15.030	-0.474	0.306
-737.054	-141.446	-0.599	0.061
-736.039	-31.498	-0.331	-0.188
-735.025	9.433	0.046	-0.035
-734.010	-103.023	0.077	0.018
-732.996	-102.805	-0.085	-0.021
-731.981	7.458	-0.228	-0.172
-730.966	-82.945	-0.322	-0.105
-729.952	48.277	0.199	0.187
-728.937	-111.994	-0.096	0.020
-727.923	-129.275	0.049	0.007
-726.908	182.838	0.073	-0.109
-725.894	-73.233	-0.267	0.099
-724.879	24.261	-0.016	-0.013
-723.864	52.930	-0.095	-0.092
-722.850	-200.000	-0.008	-0.127
-721.835	210.900	-0.148	-0.234
-720.821	-72.309	0.072	0.027
-719.806	-149.164	-0.237	0.019
-718.791	15.749	0.212	-0.168
-717.777	13.640	-0.130	-0.102
-716.762	800.000	0.032	-0.123
-715.748	-162.059	-0.206	-0.010
-714.733	-33.791	-0.270	0.150
-713.718	196.989	-0.092	0.142
-712.704	249.620	-0.076	-0.130
-711.689	800.000	0.117	0.343
-710.675	-103.468	-0.210	-0.050
-709.660	-82.904	-0.341	-0.111
-708.645	203.919	-0.137	-0.214
-707.631	-149.478	-0.187	-0.015
-706.616	-200.000	0.050	0.412
-705.602	-85.278	-0.243	-0.077
-704.587	774.564	0.046	-0.127
-703.572	-113.143	-0.430	0.085
-702.558	-18.596	0.224	0.141
-701.543	800.000	0.062	-0.241
-700.529	36.758	-0.233	0.208
-699.514	52.939	0.099	0.095
-698.499	-46.538	-0.179	-0.088
-697.485	-200.000	-0.055	0.412
-696.470	20.423	0.096	-0.078
-695.456	133.756	0.034	-0.044
-694.441	305.810	-0.107	-0.201
-693.426	-26.136	0.277	0.164
-692.412	195.225	-0.163	0.249
-691.397	-155.761	-0.331	0.021
-690.383	-9.510	-0.109	-0.073
-689.368	-65.989	-0.124	-0.050
-688.354	-200.000	-0.003	-0.342
-687.339	37.140	-0.177	0.158
-686.324	800.000	-0.062	0.204
-685.310	-200.000	-0.018	-0.240
-684.295	-112.756	-0.265	0.053
-683.281	12.642	0.305	0.237
-682.266	17.000	0.111	0.089
-681.251	615.416	-0.047	0.118
-680.237	-107.224	-0.223	-0.049
-679.222	-128.694	-0.149	-0.021
-678.208	-200.000	0.040	-0.411
-677.193	-74.223	-0.205	0.074
-676.178	-87.874	0.022	0.007
-675.164	219.649	0.093	-0.150
-674.149	-144.636	0.148	-0.014
-673.135	-80.604	-0.264	-0.088
-672.120	-111.487	0.192	0.039
-671.105	-32.706	-0.289	-0.162
-670.091	758.890	0.096	-0.262
-669.076	-49.845	0.196	0.093
-668.062	57.983	-0.067	0.066
-667.047	-43.410	0.154	0.078
-666.032	-136.740	-0.176	-0.020
-665.018	650.773	-0.106	0.273
-664.003	-200.000	-0.012	-0.315
-662.989	-146.620	0.475	-0.041
-661.974	-37.898	0.236	0.126
-660.959	166.604	0.130	-0.185
-659.945	-200.000	-0.001	-0.322
-658.930	168.550	0.203	0.290
-657.916	185.347	-0.034	0.051
-656.901	-200.000	0.011	-0.206
-655.886	-98.837	-0.267	-0.068
-654.872	118.766	-0.103	-0.128
-653.857	-87.614	0.229	0.069
-652.843	-14.789	-0.329	-0.212
-651.828	155.887	-0.171	0.237
-650.814	800.000	-0.013	0.050
-649.799	130.573	0.179	-0.231
-648.784	335.970	-0.092	0.179
-647.770	171.751	0.106	0.153
-646.755	-193.419	-0.214	0.002
-645.741	619.792	0.036	0.091
-644.726	66.828	0.074	-0.075
-643.711	-200.000	-0.011	0.127
-642.697	-179.841	-0.293	0.006
-641.682	52.529	-0.139	0.133
-640.668	8.522	-0.161	-0.122
-639.653	-200.000	-0.006	-0.117
-638.638	-200.000	0.017	0.235
-637.624	800.000	-0.038	0.106
-636.609	-41.402	0.095	0.049
-635.595	-200.000	-0.038	0.167
-634.580	-37.820	-0.113	-0.061
-633.565	-158.559	0.130	0.008
-632.551	-98.368	0.398	0.102
-631.536	-200.000	-0.045	0.320
-630.522	174.218	-0.129	-0.187
-629.507	-59.408	-0.212	0.092
-628.492	-200.000	0.010	0.048
-627.478	-21.237	0.159	0.097
-626.463	236.304	-0.141	-0.235
-625.449	-200.000	0.011	-0.055
-624.434	800.000	0.090	0.255
-623.419	-91.819	-0.086	0.025
-622.405	-9.650	-0.377	-0.252
-621.390	90.250	0.088	-0.099
-620.376	-29.260	-0.170	-0.098
-619.361	504.911	0.108	-0.251
-618.346	-200.000	-0.010	-0.422
-617.332	-200.000	0.008	-0.103
-616.317	-38.858	0.352	-0.186
-615.303	-112.903	-0.047	-0.009
-614.288	-107.073	0.333	-0.074
-613.273	646.488	-0.121	-0.311
-612.259	629.394	-0.065	0.166
-611.244	-157.674	-0.176	0.011
-610.230	800.000	0.081	0.263
-609.215	-125.961	-0.095	-0.014
-608.201	-128.628	0.266	0.038
-607.186	673.368	-0.084	-0.219
-606.171	-200.000	0.051	-0.265
-605.157	328.555	0.134	-0.259
-604.142	221.824	0.057	0.092
-603.128	25.223	0.295	0.246
-602.113	-108.273	0.186	-0.040
-601.098	-103.250	0.352	-0.083
-600.084	273.760	-0.153	-0.272
-599.069	-50.576	-0.338	0.160
-598.055	800.000	0.077	-0.274
-597.040	-59.095	0.261	0.113
-596.025	-200.000	0.083	0.418
-595.011	42.959	-0.087	0.079
-593.996	-64.804	-0.228	-0.093
-592.982	171.795	0.070	-0.101
-591.967	-167.521	-0.169	0.007
-590.952	-200.000	0.053	0.284
-589.938	-37.213	0.278	0.149
-588.923	-78.269	-0.147	0.051
-587.909	98.332	-0.191	-0.221
-586.894	-91.533	0.325	-0.093
-585.879	-194.858	-0.145	0.001
-584.865	-21.342	-0.106	-0.065
-583.850	-95.202	0.228	0.062
-582.836	-200.000	-0.018	0.269
-581.821	-82.151	-0.111	0.036
-580.806	800.000	-0.071	-0.294
-579.792	170.917	0.214	0.307
-578.777	-58.662	-0.262	-0.114
-577.763	135.709	0.159	0.207
-576.748	-83.164	0.230	0.074
-575.733	74.745	-0.101	0.107
-574.719	-200.000	-0.232	-0.001
-573.704	58.834	-0.277	-0.273
-572.690	-78.027	-0.323	-0.111
-571.675	-150.343	0.259	0.020
-570.661	230.192	-0.122	-0.201
-569.646	-115.748	-0.058	0.011
-568.631	-200.000	-0.005	-0.367
-567.617	35.708	0.268	-0.236
-566.602	-97.562	0.393	-0.102
-565.588	-200.000	-0.000	0.198
-564.573	-93.668	0.018	0.005
-563.558	-175.188	-0.153	0.004
-562.544	-10.540	0.220	0.146
-561.529	-200.000	0.019	-0.248
-560.515	-63.302	-0.099	0.041
-559.500	14.527	-0.082	-0.064
-558.485	187.129	0.132	-0.197
-557.471	-140.935	-0.261	0.027
-556.456	-0.923	-0.418	-0.296
-555.442	-200.000	0.002	-0.076
-554.427	5.900	0.244	0.181
-553.412	800.000	-0.097	0.390
-552.398	305.587	-0.097	-0.180
-551.383	-199.937	0.339	-0.002
-550.369	-92.683	-0.172	0.048
-549.354	8.783	-0.092	0.070
-548.339	75.051	0.255	0.269
-547.325	-78.833	-0.106	-0.036
-546.310	-62.945	0.214	0.088
-545.296	6.720	0.170	-0.126
-544.281	46.643	-0.089	-0.083
-543.266	800.000	0.034	0.134
-542.252	-200.000	0.000	-0.105
-541.237	-200.000	0.016	0.147
-540.223	428.157	-0.080	0.174
-539.208	30.267	0.051	0.044
-538.193	-79.333	-0.184	0.062
-537.179	800.000	0.072	-0.239
-536.164	-200.000	-0.001	0.181
-535.150	-59.480	0.144	-0.062
-534.135	-123.355	0.601	0.096
-533.121	-197.533	-0.130	-0.001
-532.106	81.255	0.278	-0.301
-531.091	-200.000	0.010	-0.244
-530.077	-137.992	-0.147	-0.016
-529.062	37.948	0.194	0.172
-528.048	-107.580	0.465	0.102
-527.033	-39.520	-0.233	-0.122
-526.018	-90.291	0.340	-0.099
-525.004	89.826	-0.168	0.188
-523.989	574.261	-0.138	0.337
-522.975	40.469	0.080	-0.072
-521.960	111.247	-0.161	0.194
-520.945	-200.000	-0.035	0.254
-519.931	-77.895	-0.175	-0.060
-518.916	-113.510	-0.212	0.042
-517.902	-200.000	-0.049	-0.238
-516.887	508.479	-0.115	0.268
-515.872	211.049	-0.077	0.120
-514.858	-35.180	-0.108	0.059
-513.843	-29.364	0.379	-0.217
-512.829	-75.604	0.052	-0.019
-511.814	84.836	-0.116	-0.127
-510.799	431.298	0.094	0.203
-509.785	-132.671	0.183	0.023
-508.770	-90.041	0.114	-0.033
-507.756	362.290	0.059	-0.118
-506.741	-68.056	0.118	0.046
-505.726	-108.110	0.110	-0.024
-504.712	276.214	0.044	0.077
-503.697	-115.249	-0.303	0.057
-502.683	-50.187	-0.172	-0.081
-501.668	538.055	-0.111	-0.265
-500.653	-200.000	0.029	-0.181
-499.639	800.000	0.064	0.211
-498.624	224.685	-0.165	0.267
-497.610	-15.422	0.215	-0.137
-496.595	74.714	-0.347	-0.364
-495.581	135.417	-0.091	-0.119
-494.566	-122.661	-0.108	-0.017
-493.551	98.597	0.115	0.132
-492.537	364.759	0.089	-0.180
-491.522	-154.292	-0.408	-0.027
-490.508	528.772	0.057	-0.135
-489.493	146.363	0.082	0.110
-488.478	339.105	-0.112	0.219
-487.464	-200.000	-0.083	0.566
-486.449	-200.000	-0.052	0.331
-485.435	403.692	0.072	-0.151
-484.420	-30.079	0.042	0.024
-483.405	195.853	-0.084	0.128
-482.391	-159.979	0.298	0.016
-481.376	-200.000	-0.027	0.223
-480.362	-200.000	0.072	0.458
-479.347	-73.456	0.119	0.043
-478.332	-173.557	-0.611	-0.018
-477.318	-200.000	-0.020	0.163
-476.303	15.001	0.215	0.168
-475.289	4.168	-0.145	0.106
-474.274	-200.000	-0.016	-0.170
-473.259	-200.000	0.038	0.199
-472.245	71.900	-0.276	-0.286
-471.230	-168.211	0.339	-0.013
-470.216	150.674	0.078	0.106
-469.201	554.130	0.020	-0.048
-468.186	-200.000	0.003	-0.150
-467.172	715.081	-0.082	-0.218
-466.157	-166.536	-0.148	0.006
-465.143	85.712	-0.222	-0.244
-464.128	129.298	-0.120	-0.153
-463.113	112.308	0.248	-0.300
-462.099	-200.000	-0.034	0.196
-461.084	72.896	-0.187	0.195
-460.070	73.139	0.225	-0.235
-459.055	-200.000	-0.003	-0.091
-458.040	-7.683	0.233	0.157
-457.026	-93.855	0.142	-0.039
-456.011	800.000	0.059	0.254
-454.997	800.000	0.098	0.274
-453.982	800.000	-0.071	0.213
-452.968	-200.000	-0.019	0.274
-451.953	117.537	0.145	-0.178
-450.938	98.765	-0.044	-0.050
-449.924	-74.515	0.307	0.110
-448.909	475.826	0.006	-0.012
-447.895	800.000	0.031	-0.108
-446.880	-146.358	-0.212	0.019
-445.865	-200.000	-0.008	0.442
-444.851	-91.063	-0.149	0.043
-443.836	320.966	0.124	-0.235
-442.822	-200.000	0.016	-0.112
-441.807	800.000	-0.036	-0.128
-440.792	283.546	0.116	-0.208
-439.778	77.249	0.051	-0.054
-438.763	-135.734	-0.235	0.028
-437.749	-64.486	-0.086	0.035
-436.734	295.222	0.230	0.420
-435.719	-38.568	0.244	-0.129
-434.705	-14.142	0.266	0.171
-433.690	-64.087	-0.168	-0.068
-432.676	-200.000	-0.008	0.071
-431.661	159.429	0.082	0.113
-430.646	800.000	0.046	0.147
-429.632	-200.000	0.002	-0.071
-428.617	-37.641	-0.127	0.067
-427.603	207.583	-0.087	-0.136
-426.588	395.977	-0.076	-0.158
-425.573	51.290	0.152	-0.144
-424.559	-149.749	-0.112	-0.009
-423.544	-21.083	-0.118	0.072
-422.530	461.270	0.096	0.213
-421.515	800.000	0.053	0.215
-420.500	800.000	0.045	-0.146
-419.486	158.282	-0.180	-0.248
-418.471	20.317	-0.166	0.134
-417.457	-153.684	-0.324	-0.022
-416.442	696.412	0.010	0.027
-415.428	-60.523	0.092	-0.039
-414.413	-107.151	0.014	-0.003
-413.398	-200.000	-0.019	0.146
-412.384	50.254	-0.090	0.085
-411.369	-200.000	0.005	-0.180
-410.355	-156.957	0.170	0.010
-409.340	800.000	-0.027	0.099
-408.325	-78.052	-0.216	0.074
-407.311	-200.000	0.043	0.305
-406.296	86.703	-0.084	0.093
-405.282	800.000	0.044	-0.168
-404.267	-169.019	0.248	-0.009
-403.252	-184.178	-0.140	0.002
-402.238	68.445	-0.030	0.031
-401.223	-200.000	0.018	-0.134
-400.209	-200.000	-0.021	0.122
-399.194	-64.642	-0.386	0.156
-398.179	-200.000	-0.012	-0.106
-397.165	148.648	0.029	-0.039
-396.150	162.493	0.041	0.057
-395.136	-5.951	0.150	0.102
-394.121	-200.000	0.027	-0.129
-393.106	161.491	-0.062	-0.086
-392.092	-57.608	0.221	0.096
-391.077	67.004	-0.112	0.114
-390.063	-129.506	0.181	-0.025
-389.048	-50.386	-0.134	-0.063
-388.033	79.436	-0.020	0.022
-387.019	-43.213	-0.289	-0.146
-386.004	-96.966	-0.145	-0.038
-384.990	-200.000	0.025	0.302
-383.975	261.603	-0.203	-0.350
-382.960	-91.071	-0.024	0.007
-381.946	530.160	0.070	0.166
-380.931	-53.285	0.065	-0.029
-379.917	-127.938	0.259	0.037
-378.902	-87.569	-0.126	-0.038
-377.888	340.627	-0.138	-0.268
-376.873	-78.068	0.396	0.136
-375.858	-89.841	0.262	0.076
-374.844	-65.669	-0.204	0.081
-373.829	800.000	-0.071	-0.285
-372.815	-90.398	0.437	0.126
-371.800	-200.000	-0.003	0.093
-370.785	-78.946	-0.151	0.051
-369.771	439.924	-0.143	0.312
-368.756	-200.000	-0.007	-0.172
-367.742	253.309	-0.100	-0.170
-366.727	-31.997	-0.184	0.102
-365.712	104.422	0.129	-0.151
-364.698	-34.015	0.058	-0.032
-363.683	-200.000	0.019	-0.105
-362.669	738.328	0.091	-0.244
-361.654	410.548	-0.099	0.208
-360.639	2.665	-0.160	0.115
-359.625	162.385	-0.150	0.209
-358.610	57.808	-0.024	0.024
-357.596	-124.490	0.060	0.009
-356.581	257.886	-0.019	0.033
-355.566	167.664	0.062	0.088
-354.552	-200.000	0.021	0.292
-353.537	-151.327	0.094	-0.007
-352.523	220.720	0.101	0.160
-351.508	224.987	0.081	0.130
-350.493	800.000	-0.064	0.265
-349.479	-200.000	-0.007	0.052
-348.464	127.607	-0.148	-0.187
-347.450	-187.857	0.136	0.002
-346.435	-200.000	0.001	-0.091
-345.420	-200.000	-0.010	0.049
-344.406	-136.103	0.343	-0.040
-343.391	-133.022	0.187	0.024
-342.377	-166.488	0.317	0.013
-341.362	68.279	-0.098	-0.100
-340.348	658.785	-0.023	-0.059
-339.333	-160.269	-0.218	0.012
-338.318	800.000	0.109	-0.341
-337.304	63.966	-0.150	-0.150
-336.289	-200.000	-0.009	-0.246
-335.275	-200.000	0.073	0.341
-334.260	-178.237	0.430	0.010
-333.245	151.261	0.039	0.052
-332.231	-99.541	0.219	0.055
-331.216	-69.291	-0.300	0.115
-330.202	745.106	0.062	0.166
-329.187	800.000	-0.149	-0.456
-328.172	-149.395	0.441	-0.035
-327.158	147.630	-0.094	-0.126
-326.143	-124.830	0.178	0.027
-325.129	-200.000	0.007	-0.123
-324.114	119.480	-0.178	-0.219
-323.099	-90.349	0.448	-0.129
-322.085	-200.000	0.003	-0.263
-321.070	10.355	-0.290	0.219
-320.056	-6.769	-0.216	0.146
-319.041	13.380	0.208	0.160
-318.026	49.529	-0.071	0.066
-317.012	-200.000	-0.000	-0.107
-315.997	533.810	0.033	0.078
-314.983	-200.000	0.055	-0.312
-313.968	-200.000	0.010	-0.106
-312.953	-77.611	0.044	0.015
-311.939	205.891	-0.143	0.221
-310.924	-200.000	0.001	-0.037
-309.910	-152.780	0.305	0.021
-308.895	153.160	0.189	0.257
-307.880	-76.688	0.293	0.102
-306.866	67.553	0.109	0.110
-305.851	800.000	-0.147	0.463
-304.837	315.734	0.056	0.105
-303.822	-109.866	-0.279	0.058
-302.807	189.939	0.040	0.060
-301.793	155.467	-0.045	0.062
-300.778	-129.111	-0.273	-0.038
-299.764	-9.030	0.242	0.160
-298.749	471.700	-0.173	-0.386
-297.735	8.689	-0.342	-0.255
-296.720	249.781	-0.143	0.241
-295.705	-200.000	0.059	0.268
-294.691	-200.000	0.022	0.175
-293.676	0.760	-0.101	0.071
-292.662	-105.365	0.523	-0.118
-291.647	56.110	0.006	-0.006
-290.632	-178.615	-0.216	-0.005
-289.618	475.981	0.036	-0.080
-288.603	241.212	0.146	0.242
-287.589	122.653	-0.122	-0.152
-286.574	314.143	0.122	-0.228
-285.559	-135.179	-0.244	-0.029
-284.545	-200.000	-0.056	0.362
-283.530	-200.000	0.008	-0.242
-282.516	21.678	0.116	-0.094
-281.501	-4.141	0.034	-0.023
-280.486	-200.000	-0.048	-0.385
-279.472	216.014	-0.080	0.126
-278.457	-45.951	-0.403	0.197
-277.443	567.345	0.057	0.138
-276.428	323.798	-0.047	0.088
-275.413	-10.341	-0.207	0.136
-274.399	742.136	-0.044	-0.117
-273.384	117.963	-0.198	-0.241
-272.370	24.239	0.018	0.014
-271.355	-136.283	-0.164	-0.019
-270.340	15.018	-0.349	-0.271
-269.326	-200.000	-0.048	-0.301
-268.311	72.883	-0.296	-0.307
-267.297	64.459	-0.111	0.110
-266.282	-44.542	-0.321	0.159
-265.267	15.237	-0.307	0.239
-264.253	-116.010	-0.124	-0.023
-263.238	-200.000	0.058	-0.259
-262.224	-134.096	-0.076	0.009
-261.209	-149.068	0.186	-0.015
-260.195	-25.980	0.158	-0.092
-259.180	-126.637	-0.247	-0.036
-258.165	248.837	-0.031	-0.052
-257.151	-99.444	-0.233	0.058
-256.136	-74.676	0.105	-0.037
-255.122	-141.547	-0.234	0.023
-254.107	800.000	-0.108	-0.335
-253.092	-48.296	0.143	0.068
-252.078	672.858	0.078	0.200
-251.063	-200.000	0.009	-0.110
-250.049	-140.910	-0.264	-0.027
-249.034	112.908	0.199	-0.239
-248.019	109.944	0.164	0.194
-247.005	-200.000	-0.002	0.114
-245.990	-115.429	0.165	0.031
-244.976	705.278	0.113	-0.296
-243.961	158.838	0.112	-0.154
-242.946	11.880	-0.204	-0.155
-241.932	-107.932	-0.036	0.008
-240.917	247.673	0.056	-0.093
-239.903	-200.000	0.039	-0.200
-238.888	54.596	-0.149	0.142
-237.873	-69.044	-0.125	-0.048
-236.859	188.870	-0.083	-0.123
-235.844	800.000	0.043	0.133
-234.830	130.416	-0.150	-0.190
-233.815	800.000	-0.106	-0.314
-232.800	-120.143	0.213	0.036
-231.786	215.053	-0.079	-0.124
-230.771	295.457	0.201	-0.364
-229.757	-50.680	0.214	-0.100
-228.742	-200.000	0.012	0.394
-227.727	-108.086	-0.216	0.046
-226.713	-129.199	0.336	-0.046
-225.698	-76.553	-0.271	-0.094
-224.684	-161.477	-0.159	0.008
-223.669	-143.845	-0.226	0.021
-222.655	-105.840	0.175	-0.039
-221.640	-10.421	0.196	0.128
-220.625	-15.308	-0.317	-0.201
-219.611	54.918	0.275	0.263
-218.596	-107.051	0.107	-0.023
-217.582	97.618	-0.117	0.133
-216.567	0.434	-0.437	-0.308
-215.552	385.652	0.046	0.094
-214.538	-200.000	0.029	0.299
-213.523	-36.188	0.071	-0.038
-212.509	-108.685	0.322	-0.068
-211.494	800.000	-0.073	-0.233
-210.479	800.000	0.037	-0.112
-209.465	800.000	-0.060	-0.238
-208.450	-81.137	0.272	-0.089
-207.436	-18.124	-0.200	0.124
-206.421	-40.386	0.214	-0.110
-205.406	-37.112	-0.347	0.184
-204.392	800.000	-0.065	-0.282
-203.377	800.000	0.046	0.152
-202.363	364.856	0.106	0.211
-201.348	-18.883	0.118	-0.072
-200.333	-200.000	-0.007	-0.059
-199.319	41.624	-0.076	0.068
-198.304	-63.130	-0.034	0.014
-197.290	82.717	-0.261	-0.280
-196.275	18.275	0.160	-0.126
-195.260	113.494	-0.052	0.063
-194.246	297.251	0.143	-0.259
-193.231	379.526	0.066	0.133
-192.217	-200.000	0.091	0.409
-191.202	800.000	0.033	0.113
-190.187	800.000	-0.040	0.151
-189.173	728.151	-0.140	-0.368
-188.158	800.000	0.083	0.300
-187.144	290.254	0.170	-0.304
-186.129	-159.663	-0.170	-0.009
-185.114	-200.000	0.021	0.193
-184.100	-51.428	0.170	0.079
-183.085	-200.000	0.030	0.316
-182.071	-200.000	-0.023	-0.180
-181.056	-168.620	0.226	-0.008
-180.042	-200.000	-0.012	0.213
-179.027	-90.521	-0.295	-0.084
-178.012	86.481	-0.058	0.063
-176.998	-153.352	0.039	-0.003
-175.983	73.856	-0.219	-0.227
-174.969	0.719	0.158	0.112
-173.954	49.489	-0.095	0.088
-172.939	-200.000	0.014	-0.113
-171.925	-48.573	-0.164	-0.078
-170.910	16.592	-0.119	-0.093
-169.896	323.015	0.096	0.180
-168.881	117.950	-0.053	0.064
-167.866	-200.000	-0.018	-0.168
-166.852	103.825	0.145	0.168
-165.837	243.279	0.081	0.134
-164.823	331.398	-0.089	0.169
-163.808	800.000	0.178	0.501
-162.793	-62.125	-0.194	-0.080
-161.779	57.616	0.213	-0.205
-160.764	77.400	0.177	-0.186
-159.750	800.000	-0.052	0.206
-158.735	407.291	0.162	-0.337
-157.720	-48.546	0.240	-0.114
-156.706	-123.453	0.285	0.045
-155.691	-31.410	-0.175	-0.097
-154.677	-178.676	0.380	0.009
-153.662	-28.572	0.085	-0.048
-152.647	-126.950	-0.358	-0.052
-151.633	800.000	0.083	-0.281
-150.618	800.000	0.033	-0.119
-149.604	316.846	-0.102	-0.189
-148.589	-156.875	-0.228	0.014
-147.574	-200.000	-0.093	-0.498
-146.560	-200.000	-0.024	-0.160
-145.545	-32.681	-0.309	0.170
-144.531	-34.929	0.236	0.127
-143.516	-200.000	-0.038	-0.215
-142.502	-15.974	-0.071	-0.045
-141.487	122.996	0.166	0.205
-140.472	291.878	0.164	0.294
-139.458	-24.266	0.137	-0.081
-138.443	-200.000	-0.009	0.082
-137.429	32.815	-0.087	0.074
-136.414	12.905	-0.171	0.130
-135.399	-153.818	-0.202	0.014
-134.385	-44.444	0.135	0.067
-133.370	-148.696	0.227	0.018
-132.356	111.841	0.055	-0.065
-131.341	-200.000	-0.019	0.087
-130.326	52.971	0.180	0.169
-129.312	-138.966	-0.180	0.019
-128.297	446.341	0.113	-0.244
-127.283	-88.624	0.259	0.076
-126.268	32.611	-0.106	-0.090
-125.253	-200.000	-0.021	-0.105
-124.239	800.000	-0.049	0.155
-123.224	15.365	0.173	0.133
-122.210	69.879	0.224	0.227
-121.195	-111.589	0.346	-0.069
-120.180	143.291	0.139	-0.182
-119.166	109.157	0.200	-0.236
-118.151	21.032	-0.202	0.161
-117.137	-35.814	0.168	-0.089
-116.122	30.635	-0.193	0.162
-115.107	-100.465	-0.187	0.046
-114.093	774.281	-0.148	0.397
-113.078	-200.000	-0.023	0.300
-112.064	31.182	-0.135	-0.114
-111.049	13.297	0.043	0.033
-110.034	-161.706	0.266	0.013
-109.020	-133.507	-0.346	-0.043
-108.005	-180.689	-0.274	-0.006
-106.991	-177.125	0.330	0.008
-105.976	-83.488	-0.144	0.045
-104.962	-82.434	0.141	0.045
-103.947	-68.445	-0.182	-0.070
-102.932	-74.178	0.259	0.092
-101.918	322.609	0.137	0.257
-100.903	-94.209	0.159	-0.043
-99.889	800.000	0.127	0.370
-98.874	8.347	-0.129	0.095
-97.859	105.632	-0.190	0.220
-96.845	194.352	-0.107	-0.160
-95.830	-109.550	0.170	-0.035
-94.816	-116.274	-0.151	0.028
-93.801	-200.000	-0.002	-0.148
-92.786	426.886	0.161	-0.342
-91.772	75.209	-0.141	0.146
-90.757	774.975	0.064	0.173
-89.743	-114.804	0.124	-0.023
-88.728	-84.752	-0.482	-0.149
-87.713	-200.000	-0.059	0.387
-86.699	207.167	0.169	-0.259
-85.684	-200.000	0.029	-0.239
-84.670	-77.781	0.015	0.005
-83.655	-97.095	0.183	-0.047
-82.640	-122.067	0.190	-0.031
-81.626	-188.493	0.216	0.003
-80.611	278.520	0.152	-0.266
-79.597	2.533	-0.301	0.214
-78.582	-114.596	0.125	-0.024
-77.567	-200.000	-0.047	-0.352
-76.553	-21.579	0.345	0.207
-75.538	-31.322	0.191	0.106
-74.524	-57.779	0.179	0.077
-73.509	-49.872	0.165	-0.077
-72.494	24.316	-0.091	0.074
-71.480	800.000	0.020	0.076
-70.465	-77.607	-0.196	-0.067
-69.451	-77.799	-0.222	-0.075
-68.436	-14.204	-0.255	0.162
-67.422	-55.898	0.161	-0.071
-66.407	-200.000	-0.017	0.153
-65.392	-200.000	-0.035	0.167
-64.378	621.852	0.010	-0.024
-63.363	-99.791	-0.294	-0.072
-62.349	8.332	0.039	0.029
-61.334	184.853	-0.718	-1.045
-60.319	118.500	0.441	0.535
-59.305	-200.000	-0.219	-1.074
-58.290	194.946	0.634	0.945
-57.276	730.851	0.583	1.530
-56.261	-200.000	108.821	593.262
-55.246	445.243	1483.931	3200.800
-54.232	147.055	2662.543	3517.617
-53.217	104.717	2173.890	2515.995
-52.203	39.691	1706.490	1503.192
-51.188	32.633	1522.195	1292.600
-50.173	30.427	1495.588	1255.068
-49.159	51.160	1551.452	1445.301
-48.144	51.389	1568.742	1462.929
-47.130	32.832	1524.262	1295.514
-46.115	29.855	1509.382	1262.538
-45.100	29.682	1506.135	1258.594
-44.086	29.716	1503.597	1256.654
-43.071	29.605	1501.753	1254.306
-42.057	29.606	1499.943	1252.757
-41.042	29.520	1498.806	1251.172
-40.027	29.540	1497.200	1249.915
-39.013	29.617	1495.779	1249.205
-37.998	29.519	1494.262	1247.225
-36.984	29.465	1493.464	1246.142
-35.969	29.554	1491.987	1245.461
-34.954	29.597	1490.610	1244.555
-33.940	29.445	1489.652	1242.679
-32.925	29.423	1488.636	1241.637
-31.911	29.621	1486.463	1241.101
-30.896	29.631	1485.372	1240.208
-29.881	29.613	1484.356	1239.191
-28.867	29.598	1482.873	1237.807
-27.852	29.586	1481.725	1236.716
-26.838	29.678	1480.339	1236.125
-25.823	29.659	1478.813	1234.678
-24.809	29.617	1476.955	1232.796
-23.794	29.553	1476.007	1231.528
-22.779	29.675	1474.652	1231.162
-21.765	29.612	1473.799	1229.982
-20.750	29.672	1472.001	1228.829
-19.736	29.532	1471.715	1227.612
-18.721	29.569	1470.276	1226.610
-17.706	29.472	1469.367	1225.159
-16.692	29.579	1467.584	1224.330
-15.677	29.598	1466.632	1223.614
-14.663	29.554	1465.682	1222.486
-13.648	29.551	1464.817	1221.693
-12.633	29.606	1463.788	1221.150
-11.619	29.553	1463.026	1220.115
-10.604	29.573	1462.020	1219.362
-9.590	29.415	1461.725	1218.020
-8.575	29.625	1460.412	1218.268
-7.560	29.581	1459.680	1217.318
-6.546	29.519	1458.501	1215.877
-5.531	29.488	1458.063	1215.260
-4.517	29.515	1456.944	1214.455
-3.502	29.460	1455.698	1213.009
-2.487	29.474	1454.664	1212.187
-1.473	29.551	1453.478	1211.656
-0.458	29.422	1452.511	1209.960
0.556	27.766	1442.547	1199.342
1.571	24.783	1418.161	1159.658
2.586	21.507	1357.707	1089.757
3.600	19.834	1276.193	1014.438
4.615	18.656	1230.790	971.594
5.629	16.172	1173.880	913.154
6.644	8.100	1088.590	806.062
7.659	1.271	1047.788	742.461
8.673	0.284	1042.443	733.801
9.688	0.136	1039.140	730.689
10.702	0.002	1037.823	729.053
11.717	-0.022	1035.749	727.416
12.731	2.627	1038.302	741.978
13.746	10.831	1049.350	789.816
14.761	16.942	1056.772	825.151
15.775	17.551	1056.304	827.672
16.790	16.541	1054.005	820.900
17.804	15.467	1051.691	813.819
18.819	14.628	1049.991	808.371
19.834	14.125	1048.905	805.028
20.848	13.708	1048.188	802.389
21.863	13.566	1047.219	800.889
22.877	13.390	1046.259	799.237
23.892	13.282	1045.549	798.101
24.907	13.125	1044.426	796.418
25.921	13.133	1043.852	795.946
26.936	13.053	1043.582	795.287
27.950	13.158	1042.259	794.714
28.965	13.203	1042.201	794.816
29.980	13.250	1040.790	793.892
30.994	13.286	1039.895	793.312
32.009	13.395	1039.014	793.094
33.023	13.376	1038.357	792.432
34.038	13.396	1037.774	792.013
35.053	13.243	1036.799	790.467
36.067	13.315	1035.559	789.796
37.082	13.326	1034.875	789.257
38.096	13.329	1034.439	788.865
39.111	13.355	1033.454	788.168
40.126	13.460	1032.467	787.846
41.140	13.153	1031.865	785.860
42.155	13.201	1030.958	785.326
43.169	13.001	1030.054	783.620
44.184	13.091	1028.830	783.043
45.199	13.068	1027.771	782.062
46.213	13.121	1026.515	781.286
47.228	13.243	1025.953	781.364
48.242	13.135	1025.071	780.115
49.257	13.233	1023.996	779.691
50.271	13.365	1022.506	779.107
51.286	13.082	1022.165	777.448
52.301	13.308	1021.193	777.701
53.315	13.224	1020.680	776.846
54.330	13.159	1019.661	775.700
55.344	13.150	1019.025	775.105
56.359	13.141	1017.805	774.065
57.374	13.205	1017.033	773.710
58.388	13.107	1016.544	772.810
59.403	13.094	1015.496	771.882
60.417	13.129	1014.643	771.330
61.432	13.159	1013.524	770.551
62.447	13.086	1013.100	769.821
63.461	13.106	1012.175	769.144
64.476	13.123	1011.377	768.547
65.490	13.055	1010.525	767.516
66.505	13.014	1009.657	766.597
67.520	13.122	1008.743	766.339
68.534	13.087	1008.262	765.743
69.549	13.088	1007.762	765.297
70.563	13.013	1006.942	764.260
71.578	12.963	1006.325	763.493
72.593	13.062	1004.954	762.846
73.607	13.092	1003.831	762.063
74.622	12.957	1003.401	761.047
75.636	12.933	1002.385	760.100
76.651	12.995	1001.643	759.755
77.666	13.065	1000.915	759.454
78.680	12.857	1000.405	758.043
79.695	13.010	999.635	758.099
80.709	13.107	999.328	758.245
81.724	12.948	998.586	756.882
82.739	13.112	997.616	756.834
83.753	13.191	996.690	756.425
84.768	13.283	995.532	755.900
85.782	13.300	995.301	755.736
86.797	13.297	994.469	755.023
87.812	13.258	993.724	754.213
88.826	13.183	992.963	753.226
89.841	13.078	992.629	752.428
90.855	13.283	991.147	752.169
91.870	13.235	991.031	751.799
92.884	13.204	990.334	751.063
93.899	13.323	989.582	750.966
94.914	13.405	988.406	750.379
95.928	13.394	987.974	749.935
96.943	13.480	987.066	749.566
97.957	13.368	986.482	748.550
98.972	13.364	985.885	748.013
99.987	13.236	984.787	746.537
101.001	13.340	984.025	746.361
102.016	13.235	983.724	745.593
103.030	13.300	982.094	744.588
104.045	13.327	981.491	744.182
105.060	13.400	980.091	743.385
106.074	13.109	979.781	741.779
107.089	13.234	978.864	741.578
108.103	13.227	977.671	740.578
109.118	13.246	976.435	739.659
110.133	13.159	975.983	738.865
111.147	13.069	975.156	737.768
112.162	13.114	974.457	737.377
113.176	13.184	973.560	736.944
114.191	13.216	972.307	736.072
115.206	13.253	971.558	735.609
116.220	13.273	971.028	735.230
117.235	13.357	969.793	734.602
118.249	13.200	969.386	733.531
119.264	13.165	968.418	732.581
120.279	13.225	967.402	732.012
121.293	13.164	966.921	731.312
122.308	13.146	966.263	730.672
123.322	13.221	965.085	730.046
124.337	13.095	964.268	728.806
125.352	13.144	962.852	727.889
126.366	13.139	961.907	727.087
127.381	13.109	960.964	726.178
128.395	13.169	960.063	725.698
129.410	13.110	958.836	724.450
130.424	13.036	958.664	723.930
131.439	13.243	957.393	723.812
132.454	13.232	956.608	723.108
133.468	13.193	955.953	722.374
134.483	13.179	955.222	721.700
135.497	13.329	954.464	721.717
136.512	13.283	953.557	720.766
137.527	13.294	953.030	720.351
138.541	13.254	952.091	719.407
139.556	13.231	951.581	718.857
140.570	13.313	950.646	718.444
141.585	13.334	950.142	718.088
142.600	13.314	949.362	717.350
143.614	13.253	948.231	716.166
144.629	13.491	947.378	716.490
145.643	13.542	947.069	716.411
146.658	13.420	946.130	715.114
147.673	13.278	945.526	713.978
148.687	13.383	944.844	713.855
149.702	13.273	944.226	712.848
150.716	13.288	943.026	711.944
151.731	13.301	942.101	711.240
152.746	13.336	941.502	710.875
153.760	13.385	940.577	710.326
154.775	13.307	940.021	709.508
155.789	13.378	938.907	708.909
156.804	13.372	938.329	708.382
157.819	13.413	937.363	707.767
158.833	13.491	936.787	707.601
159.848	13.611	935.890	707.374
160.862	13.309	935.884	706.019
161.877	13.419	934.708	705.535
162.892	13.409	933.980	704.881
163.906	13.351	933.139	703.939
164.921	13.385	932.413	703.475
165.935	13.489	931.017	702.799
166.950	13.447	930.318	702.030
167.964	13.281	929.520	700.663
168.979	13.422	928.431	700.377
169.994	13.496	927.307	699.781
171.008	13.294	926.877	698.540
172.023	13.539	925.762	698.674
173.037	13.495	924.998	697.847
174.052	13.650	924.193	697.830
175.067	13.634	923.611	697.262
176.081	13.356	923.244	695.754
177.096	13.423	921.928	694.981
178.110	13.555	921.181	694.913
179.125	13.600	920.466	694.501
180.140	13.615	919.212	693.555
181.154	13.447	919.571	693.061
182.169	13.665	918.479	693.088
183.183	13.627	917.809	692.361
184.198	13.735	916.858	692.035
185.213	13.652	916.453	691.323
186.227	13.643	915.866	690.779
187.242	13.737	915.662	690.956
188.256	13.841	914.495	690.449
189.271	13.817	913.975	689.897
190.286	13.885	913.108	689.461
191.300	13.693	912.507	688.151
192.315	13.552	911.629	686.842
193.329	13.434	911.068	685.872
194.344	13.490	910.276	685.444
195.359	13.715	909.321	685.594
196.373	13.733	909.062	685.413
197.388	13.808	908.583	685.303
198.402	13.789	908.343	684.983
199.417	13.719	908.347	684.637
200.432	13.890	907.370	684.544
201.446	13.901	907.281	684.460
202.461	13.994	906.323	684.063
203.475	14.043	905.613	683.667
204.490	13.999	905.214	683.123
205.504	13.985	904.521	682.483
206.519	14.047	903.225	681.698
207.534	13.921	902.985	680.941
208.548	13.934	901.965	680.163
209.563	14.006	901.469	680.026
210.577	13.943	900.447	678.936
211.592	14.105	899.985	679.189
212.607	14.009	899.879	678.657
213.621	13.971	899.559	678.202
214.636	14.041	898.596	677.700
215.650	13.998	897.858	676.908
216.665	14.092	897.021	676.602
217.680	14.096	896.616	676.249
218.694	14.160	896.436	676.315
219.709	14.188	895.346	675.546
220.723	14.232	894.813	675.262
221.738	14.245	894.237	674.820
222.753	14.259	893.487	674.253
223.767	14.097	892.747	672.978
224.782	14.248	892.179	673.103
225.796	14.322	891.310	672.685
226.811	14.394	890.430	672.252
227.826	14.292	890.053	671.496
228.840	14.300	889.344	670.936
229.855	14.155	888.973	670.011
230.869	14.119	888.255	669.265
231.884	14.355	887.799	669.814
232.899	14.239	886.935	668.635
233.913	14.221	886.337	668.055
234.928	14.285	885.363	667.515
235.942	14.209	884.828	666.749
236.957	14.227	883.751	665.951
237.972	14.209	883.341	665.509
238.986	14.201	882.993	665.161
240.001	14.334	881.794	664.729
241.015	14.279	881.550	664.267
242.030	14.247	881.049	663.701
243.045	14.443	880.282	663.847
244.059	14.393	879.601	663.074
245.074	14.445	878.637	662.497
246.088	14.438	878.303	662.157
247.103	14.438	877.939	661.823
248.117	14.484	877.184	661.381
249.132	14.549	876.484	661.051
250.147	14.629	876.332	661.195
251.161	14.683	875.811	660.958
252.176	14.740	874.392	660.051
253.190	14.778	873.967	659.824
254.205	14.673	873.558	659.041
255.220	14.804	872.812	658.936
256.234	14.853	872.261	658.655
257.249	14.920	871.643	658.396
258.263	14.820	871.395	657.757
259.278	14.830	870.684	657.200
260.293	14.846	870.421	657.008
261.307	14.806	869.788	656.311
262.322	14.953	868.785	656.076
263.336	15.065	868.054	655.903
264.351	15.021	867.846	655.515
265.366	15.025	867.103	654.914
266.380	15.058	866.430	654.475
267.395	14.947	866.239	653.840
268.409	15.017	865.176	653.252
269.424	15.110	864.353	652.934
270.439	15.091	863.646	652.270
271.453	15.102	862.647	651.499
272.468	14.973	862.180	650.590
273.482	14.976	861.526	650.050
274.497	15.031	861.170	649.936
275.512	15.126	860.177	649.497
276.526	15.039	859.528	648.615
277.541	15.058	858.913	648.164
278.555	15.109	858.527	648.015
279.570	15.054	858.179	647.482
280.585	15.280	857.182	647.547
281.599	15.225	857.033	647.164
282.614	15.242	856.358	646.660
283.628	15.229	855.337	645.783
284.643	15.051	855.308	645.020
285.657	15.281	854.434	645.189
286.672	15.282	853.778	644.639
287.687	15.229	853.397	644.092
288.701	15.096	853.298	643.448
289.716	15.131	852.947	643.259
290.730	15.402	851.774	643.359
291.745	15.277	851.274	642.445
292.760	15.277	850.749	641.991
293.774	15.159	849.907	640.849
294.789	15.353	849.400	641.150
295.803	15.334	848.906	640.649
296.818	15.438	848.156	640.421
297.833	15.368	847.457	639.571
298.847	15.283	847.239	639.025
299.862	15.267	846.538	638.378
300.876	15.486	845.454	638.339
301.891	15.387	844.965	637.535
302.906	15.585	844.353	637.771
303.920	15.564	843.693	637.136
304.935	15.645	842.951	636.828
305.949	15.751	842.072	636.507
306.964	15.671	841.708	635.874
307.979	15.549	841.079	634.881
308.993	15.630	840.611	634.777
310.008	15.668	840.205	634.555
311.022	15.647	839.447	633.851
312.037	15.661	839.016	633.519
313.052	15.652	838.706	633.196
314.066	15.692	838.145	632.866
315.081	15.645	837.916	632.462
316.095	15.556	837.090	631.446
317.110	15.555	836.240	630.748
318.125	15.564	836.068	630.597
319.139	15.526	835.312	629.825
320.154	15.660	834.870	629.941
321.168	15.700	834.331	629.629
322.183	15.924	833.035	629.430
323.197	15.857	833.028	629.118
324.212	15.773	832.404	628.279
325.227	15.753	832.023	627.861
326.241	15.842	831.567	627.795
327.256	15.671	830.961	626.642
328.270	15.710	830.527	626.407
329.285	15.807	829.850	626.202
330.300	15.684	829.474	625.405
331.314	15.771	828.899	625.239
332.329	15.828	827.961	624.689
333.343	15.876	827.594	624.533
334.358	15.818	827.188	623.955
335.373	15.889	826.245	623.451
336.387	15.900	826.232	623.430
337.402	15.842	825.703	622.761
338.416	15.846	825.122	622.280
339.431	16.002	824.583	622.395
340.446	16.071	823.838	622.031
341.460	16.147	823.193	621.771
342.475	16.072	822.536	620.946
343.489	16.090	822.219	620.717
344.504	16.265	821.405	620.690
345.519	16.129	821.328	620.075
346.533	16.152	820.795	619.704
347.548	16.319	819.834	619.535
348.562	16.285	819.627	619.202
349.577	16.101	819.268	618.201
350.592	16.039	818.422	617.280
351.606	16.088	818.108	617.169
352.621	16.126	817.462	616.766
353.635	16.152	817.533	616.858
354.650	16.080	816.872	616.042
355.665	16.166	816.329	615.893
356.679	16.232	815.829	615.701
357.694	16.304	815.227	615.455
358.708	16.332	814.394	614.872
359.723	16.221	814.227	614.289
360.738	16.166	813.745	613.671
361.752	16.339	813.178	613.817
362.767	16.256	812.908	613.257
363.781	16.297	812.154	612.785
364.796	16.422	811.890	612.984
365.810	16.455	811.348	612.641
366.825	16.695	810.665	612.939
367.840	16.439	810.824	612.079
368.854	16.524	810.317	611.950
369.869	16.567	809.756	611.628
370.883	16.453	809.308	610.823
371.898	16.514	808.811	610.613
372.913	16.447	808.068	609.756
373.927	16.584	807.244	609.575
374.942	16.602	806.524	609.042
375.956	16.404	806.647	608.368
376.971	16.678	805.566	608.484
377.986	16.654	805.038	607.945
379.000	16.730	804.756	607.950
380.015	16.810	804.248	607.800
381.029	16.705	803.774	607.014
382.044	16.796	803.162	606.822
383.059	16.804	802.343	606.179
384.073	16.952	802.019	606.408
385.088	16.763	801.488	605.278
386.102	16.584	801.263	604.416
387.117	16.757	800.547	604.440
388.132	16.529	800.397	603.460
389.146	16.694	799.634	603.420
390.161	16.651	798.980	602.718
391.175	16.839	798.904	603.277
392.190	16.841	798.765	603.125
393.205	16.925	797.787	602.632
394.219	16.893	797.386	602.164
395.234	16.888	796.760	601.620
396.248	16.827	796.523	601.172
397.263	16.775	795.959	600.508
398.278	16.752	795.521	600.043
399.292	16.828	795.048	599.901
400.307	16.983	794.706	600.139
401.321	16.835	794.420	599.345
402.336	16.783	794.306	599.023
403.350	16.875	793.597	598.761
404.365	16.909	792.875	598.284
405.380	17.056	792.521	598.482
406.394	17.026	792.265	598.129
407.409	17.130	791.701	598.017
408.423	17.116	791.208	597.541
409.438	17.144	790.760	597.248
410.453	17.164	790.473	597.050
411.467	17.169	789.822	596.525
412.482	17.201	789.215	596.123
413.496	17.232	788.967	595.993
414.511	17.241	788.903	595.925
415.526	17.279	788.560	595.745
416.540	17.237	788.072	595.176
417.555	17.320	787.593	595.052
418.569	17.247	787.131	594.394
419.584	17.184	786.479	593.630
420.599	17.319	786.325	593.934
421.613	109.143	1291.069	1469.773
422.628	93.535	1364.613	1469.865
