DTS Sentinel unit serial number:	SN413079Multiplexer serial number:	ORYXHardware model number:	OX4-SRSoftware version number:	ORYX F/W v4.00 Oryx Data Collector v3.7.2.0data status	okinstallation	princeton_trtdifferential loss correction	single-endedforward channel	channel 3reverse channel	N/Adate	2019/09/19time	02:56:35forward acquisition time	60.00reverse acquisition time	0.00gamma	496.2192k internal	0.2348k external	0.2348temperature offset calibration	0.9991default loss term (dB/km)	0.3790temperature slope calibration	1.0000multiplexer offset coefficient	1.0000multiplexer slope coefficient	1.0000fibre end	0.00T internal ref (°C)	20.87T ext. ref 1 (°C)	0.66T ext. ref 2 (°C)	14.69length (m)	temperature (°C)	Stokes	anti-Stokes-747.200	164.692	0.046	-0.065
-746.185	228.929	-0.098	0.159
-745.171	-128.387	-0.129	0.018
-744.156	-10.467	0.091	-0.060
-743.142	-79.018	0.280	-0.095
-742.127	-71.480	-0.080	-0.030
-741.112	701.730	0.060	0.157
-740.098	-41.744	-0.474	0.243
-739.083	233.038	-0.232	0.381
-738.069	-97.280	-0.179	0.047
-737.054	276.356	-0.149	-0.264
-736.039	-121.190	-0.277	0.046
-735.025	800.000	0.097	0.314
-734.010	800.000	0.089	-0.278
-732.996	202.165	0.250	-0.386
-731.981	341.492	0.029	0.056
-730.966	-13.982	-0.399	-0.257
-729.952	-32.305	-0.248	0.138
-728.937	-13.351	-0.129	-0.084
-727.923	-163.787	-0.281	0.013
-726.908	-141.959	-0.169	0.017
-725.894	477.920	0.127	-0.286
-724.879	-200.000	0.006	0.068
-723.864	-200.000	-0.025	-0.145
-722.850	489.249	-0.083	-0.189
-721.835	-125.206	0.209	0.032
-720.821	166.368	-0.101	-0.143
-719.806	211.614	0.155	-0.244
-718.791	167.971	-0.186	-0.265
-717.777	194.762	0.158	0.239
-716.762	73.945	-0.252	-0.264
-715.748	-200.000	0.011	0.315
-714.733	112.253	0.077	-0.093
-713.718	-165.679	-0.294	0.013
-712.704	-200.000	-0.012	0.144
-711.689	-44.655	-0.078	-0.039
-710.675	-118.725	0.321	-0.056
-709.660	382.613	-0.059	0.121
-708.645	78.849	0.174	0.185
-707.631	-54.394	-0.035	0.016
-706.616	47.457	-0.244	-0.227
-705.602	462.677	-0.047	0.104
-704.587	63.302	-0.164	0.164
-703.572	20.621	0.095	0.076
-702.558	-74.573	0.225	0.081
-701.543	54.622	0.019	0.018
-700.529	-101.584	0.308	0.075
-699.514	-200.000	0.001	-0.326
-698.499	-200.000	0.086	0.000
-697.485	50.179	0.216	0.204
-696.470	-200.000	-0.004	0.022
-695.456	-28.258	0.314	-0.181
-694.441	116.281	0.098	-0.120
-693.426	800.000	0.092	-0.391
-692.412	-71.229	0.114	0.043
-691.397	-39.168	-0.162	0.085
-690.383	675.567	0.118	-0.305
-689.368	43.163	-0.137	-0.125
-688.354	54.703	-0.123	0.118
-687.339	710.711	-0.093	0.244
-686.324	713.118	-0.033	-0.088
-685.310	55.671	-0.104	0.100
-684.295	-200.000	0.006	-0.087
-683.281	-188.235	0.134	-0.002
-682.266	4.048	-0.173	-0.126
-681.251	61.775	-0.040	0.040
-680.237	7.749	-0.298	0.223
-679.222	-127.731	0.359	0.052
-678.208	-200.000	-0.027	-0.263
-677.193	-200.000	0.037	0.251
-676.178	800.000	0.085	0.268
-675.164	54.569	-0.334	0.321
-674.149	-139.047	0.164	-0.018
-673.135	74.906	-0.201	-0.211
-672.120	-184.201	-0.159	0.003
-671.105	-117.892	0.302	-0.054
-670.091	-200.000	-0.010	0.216
-669.076	-200.000	0.019	-0.167
-668.062	-72.575	0.242	0.089
-667.047	-194.224	0.209	-0.002
-666.032	-39.637	0.272	0.142
-665.018	307.356	-0.201	-0.373
-664.003	55.359	-0.203	0.196
-662.989	-50.411	-0.233	0.110
-661.974	-200.000	-0.036	0.248
-660.959	-15.235	-0.239	0.152
-659.945	-200.000	-0.017	-0.197
-658.930	-71.774	-0.139	-0.052
-657.916	-94.683	0.163	-0.044
-656.901	254.802	-0.296	0.505
-655.886	-200.000	0.044	-0.348
-654.872	284.842	-0.144	-0.259
-653.857	800.000	-0.081	0.248
-652.843	800.000	-0.034	-0.130
-651.828	-200.000	-0.004	0.207
-650.814	-173.233	0.105	0.003
-649.799	-59.144	-0.081	0.035
-648.784	-97.055	-0.175	0.046
-647.770	800.000	-0.068	-0.223
-646.755	-94.267	-0.140	0.038
-645.741	105.394	-0.128	0.150
-644.726	13.485	0.344	0.265
-643.711	-95.634	-0.259	-0.069
-642.697	142.370	-0.167	0.220
-641.682	39.176	0.126	-0.112
-640.668	420.386	0.120	0.256
-639.653	-200.000	-0.018	-0.078
-638.638	195.762	-0.029	-0.044
-637.624	125.271	-0.119	0.149
-636.609	-37.667	0.039	0.021
-635.595	-107.105	-0.320	0.070
-634.580	296.938	-0.100	-0.183
-633.565	173.188	0.260	-0.372
-632.551	-200.000	0.007	-0.215
-631.536	-36.520	-0.288	-0.154
-630.522	160.914	-0.225	-0.313
-629.507	401.225	-0.097	0.203
-628.492	159.877	-0.158	-0.219
-627.478	-88.252	-0.202	-0.060
-626.463	271.316	0.036	-0.063
-625.449	-200.000	0.012	-0.144
-624.434	231.663	0.202	-0.330
-623.419	-41.206	0.218	-0.112
-622.405	10.228	-0.217	-0.164
-621.390	-200.000	0.002	-0.263
-620.376	-45.534	-0.172	0.084
-619.361	-200.000	0.074	0.462
-618.346	624.088	0.060	-0.150
-617.332	-95.300	-0.085	0.023
-616.317	29.706	0.142	-0.120
-615.303	-200.000	0.004	-0.303
-614.288	58.260	-0.187	-0.182
-613.273	-151.242	-0.259	0.019
-612.259	48.975	0.176	-0.164
-611.244	270.697	-0.011	-0.019
-610.230	-93.153	-0.116	0.032
-609.215	64.215	0.071	0.071
-608.201	-42.252	0.333	0.169
-607.186	-68.869	-0.130	0.050
-606.171	19.920	0.227	0.182
-605.157	400.942	0.142	0.296
-604.142	-200.000	0.019	0.278
-603.128	329.494	-0.168	-0.321
-602.113	72.592	0.167	0.173
-601.098	-190.346	-0.296	0.003
-600.084	-140.770	-0.205	0.021
-599.069	210.266	0.243	0.378
-598.055	-200.000	0.013	-0.246
-597.040	16.164	0.082	-0.064
-596.025	-117.187	-0.320	-0.058
-595.011	-111.022	-0.120	0.025
-593.996	-200.000	0.000	0.131
-592.982	221.594	-0.092	0.147
-591.967	207.551	-0.067	-0.104
-590.952	-200.000	-0.029	-0.205
-589.938	800.000	-0.047	-0.138
-588.923	800.000	0.114	0.379
-587.909	248.281	-0.164	-0.276
-586.894	-200.000	-0.031	-0.199
-585.879	51.908	0.146	0.138
-584.865	-17.911	0.219	0.136
-583.850	-41.545	-0.305	0.156
-582.836	216.988	0.047	0.074
-581.821	-103.663	0.114	-0.026
-580.806	87.296	0.168	0.185
-579.792	-121.217	-0.034	-0.006
-578.777	-3.426	0.055	0.038
-577.763	-47.055	-0.070	-0.034
-576.748	355.146	0.137	-0.271
-575.733	-200.000	-0.027	0.296
-574.719	88.970	-0.051	0.057
-573.704	-63.433	-0.106	-0.043
-572.690	-88.195	-0.380	0.113
-571.675	226.445	0.122	-0.197
-570.661	-197.367	0.302	0.002
-569.646	-200.000	-0.038	0.195
-568.631	800.000	-0.106	0.344
-567.617	-144.905	0.274	0.025
-566.602	134.948	-0.134	-0.173
-565.588	88.126	-0.266	-0.293
-564.573	246.948	-0.251	-0.420
-563.558	592.007	-0.075	0.183
-562.544	48.542	0.176	0.164
-561.529	-200.000	0.012	-0.221
-560.515	283.461	-0.070	0.125
-559.500	261.875	-0.249	-0.427
-558.485	-101.243	-0.586	-0.142
-557.471	89.843	-0.074	0.082
-556.456	-39.351	-0.138	0.072
-555.442	-22.434	-0.189	0.114
-554.427	-200.000	0.082	0.400
-553.412	-154.896	0.180	-0.012
-552.398	-133.111	-0.200	-0.025
-551.383	-108.285	-0.107	0.023
-550.369	-62.960	0.205	0.084
-549.354	-200.000	-0.028	-0.176
-548.339	-119.991	0.214	-0.036
-547.325	-200.000	0.010	0.197
-546.310	800.000	-0.069	-0.238
-545.296	111.051	0.080	-0.096
-544.281	12.595	0.194	-0.148
-543.266	-200.000	-0.061	0.264
-542.252	113.222	0.054	-0.065
-541.237	-200.000	0.020	-0.112
-540.223	-135.467	0.371	-0.044
-539.208	-200.000	-0.008	0.078
-538.193	-200.000	-0.082	-0.380
-537.179	266.471	-0.076	-0.132
-536.164	-145.326	-0.297	-0.027
-535.150	-200.000	-0.014	-0.146
-534.135	-200.000	-0.033	0.196
-533.121	-146.821	-0.160	-0.014
-532.106	98.403	-0.119	-0.136
-531.091	-74.998	0.090	0.032
-530.077	409.554	0.042	-0.089
-529.062	106.424	-0.062	-0.073
-528.048	85.677	0.127	0.138
-527.033	-8.472	-0.025	0.017
-526.018	-200.000	0.041	-0.262
-525.004	800.000	-0.066	0.211
-523.989	147.626	0.079	0.106
-522.975	-192.548	0.267	0.002
-521.960	-200.000	-0.011	-0.064
-520.945	41.423	-0.073	-0.065
-519.931	-200.000	0.027	-0.118
-518.916	-13.434	-0.213	0.137
-517.902	201.258	-0.121	-0.184
-516.887	-200.000	0.012	-0.145
-515.872	800.000	-0.107	-0.404
-514.858	432.992	0.052	0.111
-513.843	165.468	0.186	0.260
-512.829	-30.808	-0.295	-0.165
-511.814	11.453	0.259	0.197
-510.799	147.360	-0.213	0.284
-509.785	276.752	0.053	-0.094
-508.770	110.710	-0.092	0.110
-507.756	-43.217	-0.181	0.091
-506.741	295.219	-0.036	-0.065
-505.726	-125.261	-0.166	-0.025
-504.712	-37.199	-0.272	-0.144
-503.697	800.000	0.011	0.040
-502.683	-35.819	0.143	-0.077
-501.668	-194.931	-0.383	0.003
-500.653	-141.475	0.254	-0.025
-499.639	-99.689	0.147	-0.037
-498.624	-16.025	0.134	0.085
-497.610	148.906	-0.156	-0.208
-496.595	-192.422	0.105	0.001
-495.581	41.351	0.129	-0.115
-494.566	-121.855	0.401	-0.065
-493.551	489.231	-0.057	0.129
-492.537	-43.931	-0.254	0.126
-491.522	800.000	0.099	0.367
-490.508	27.646	0.118	0.098
-489.493	59.607	-0.084	0.082
-488.478	-200.000	0.001	-0.008
-487.464	-98.261	0.045	-0.011
-486.449	-161.806	0.075	0.004
-485.435	-118.802	-0.110	0.019
-484.420	-200.000	-0.013	0.122
-483.405	127.629	0.182	0.228
-482.391	-143.634	-0.192	-0.018
-481.376	-186.173	0.188	-0.003
-480.362	349.786	0.132	-0.259
-479.347	102.297	0.169	0.195
-478.332	-62.059	-0.059	0.024
-477.318	-200.000	0.046	-0.313
-476.303	79.997	-0.087	-0.092
-475.289	-200.000	-0.023	-0.209
-474.274	-159.154	-0.283	0.016
-473.259	-200.000	-0.013	0.167
-472.245	80.505	-0.073	0.078
-471.230	-33.516	0.252	-0.138
-470.216	-11.488	0.126	0.082
-469.201	-200.000	-0.070	-0.348
-468.186	180.907	0.062	0.090
-467.172	58.800	0.278	0.270
-466.157	290.598	-0.071	-0.127
-465.143	83.291	0.158	0.170
-464.128	800.000	0.046	-0.187
-463.113	-200.000	0.029	-0.229
-462.099	-200.000	-0.077	-0.375
-461.084	-89.712	0.415	-0.120
-460.070	-49.803	0.200	0.094
-459.055	189.657	0.081	-0.120
-458.040	165.370	0.241	0.337
-457.026	-28.846	0.283	0.161
-456.011	60.619	-0.056	0.055
-454.997	-200.000	0.021	-0.100
-453.982	-130.087	0.086	0.012
-452.968	800.000	0.060	-0.197
-451.953	125.408	-0.099	-0.123
-450.938	-200.000	-0.020	-0.228
-449.924	67.339	0.060	0.060
-448.909	800.000	-0.085	0.355
-447.895	-169.759	-0.181	0.006
-446.880	-200.000	-0.025	0.341
-445.865	146.617	-0.159	-0.211
-444.851	-141.068	0.133	-0.013
-443.836	-200.000	0.015	-0.248
-442.822	59.207	0.132	0.128
-441.807	431.944	-0.149	-0.319
-440.792	-7.654	0.265	0.177
-439.778	-49.502	-0.054	0.025
-438.763	411.604	0.095	-0.199
-437.749	-92.022	-0.280	-0.078
-436.734	15.735	0.186	0.145
-435.719	-37.191	-0.077	-0.041
-434.705	-200.000	-0.001	0.138
-433.690	600.157	0.169	0.414
-432.676	-13.383	0.223	-0.143
-431.661	-65.879	-0.297	0.117
-430.646	-200.000	0.018	-0.451
-429.632	-150.000	-0.196	0.015
-428.617	800.000	0.034	0.138
-427.603	-200.000	-0.021	0.198
-426.588	236.813	-0.095	-0.155
-425.573	-128.945	0.337	-0.047
-424.559	-34.350	-0.281	-0.152
-423.544	3.047	-0.268	-0.192
-422.530	16.242	-0.234	0.182
-421.515	800.000	-0.021	0.088
-420.500	-200.000	-0.004	-0.405
-419.486	-200.000	0.018	-0.127
-418.471	800.000	0.065	0.220
-417.457	0.900	-0.226	0.160
-416.442	161.198	-0.189	0.260
-415.428	-200.000	-0.048	0.314
-414.413	-200.000	-0.010	0.145
-413.398	-102.581	-0.113	-0.027
-412.384	324.837	-0.128	0.241
-411.369	-200.000	-0.082	0.420
-410.355	-24.314	-0.103	0.061
-409.340	267.837	-0.162	0.280
-408.325	800.000	-0.219	0.819
-407.311	-54.794	-0.099	0.044
-406.296	266.989	-0.089	-0.154
-405.282	-12.581	-0.106	-0.068
-404.267	800.000	0.091	-0.330
-403.252	-95.107	-0.032	0.008
-402.238	-26.755	0.062	0.036
-401.223	97.721	0.006	0.006
-400.209	-99.949	-0.179	0.044
-399.194	800.000	0.078	0.253
-398.179	65.011	0.177	-0.176
-397.165	-122.397	0.115	0.018
-396.150	-200.000	0.086	-0.441
-395.136	-129.379	-0.087	-0.012
-394.121	-200.000	-0.010	0.119
-393.106	-200.000	0.006	0.092
-392.092	106.857	0.155	0.181
-391.077	-97.795	-0.085	-0.022
-390.063	-183.246	0.169	0.003
-389.048	-108.197	-0.258	-0.055
-388.033	238.963	0.142	0.233
-387.019	800.000	-0.065	-0.189
-386.004	800.000	0.056	-0.201
-384.990	409.025	0.243	-0.507
-383.975	-123.995	-0.376	-0.058
-382.960	-200.000	-0.023	-0.149
-381.946	247.458	0.068	-0.113
-380.931	353.317	-0.042	-0.081
-379.917	141.656	-0.189	-0.247
-378.902	-130.870	0.045	-0.006
-377.888	112.935	-0.105	-0.125
-376.873	-120.597	0.242	0.040
-375.858	-28.863	-0.235	-0.133
-374.844	-153.158	0.332	-0.023
-373.829	160.709	0.289	-0.397
-372.815	617.143	-0.044	-0.108
-371.800	-194.480	0.289	-0.002
-370.785	50.500	0.088	-0.082
-369.771	358.665	-0.075	-0.148
-368.756	1.874	0.273	0.194
-367.742	334.021	0.079	0.150
-366.727	209.924	0.033	-0.050
-365.712	701.046	0.015	-0.038
-364.698	-32.024	-0.173	0.095
-363.683	-147.505	-0.320	-0.027
-362.669	-200.000	0.049	0.274
-361.654	-200.000	-0.011	0.123
-360.639	242.402	-0.120	0.197
-359.625	-141.837	0.126	0.012
-358.610	-15.259	0.090	0.056
-357.596	119.940	0.087	0.106
-356.581	-200.000	0.047	0.367
-355.566	-13.373	-0.091	-0.058
-354.552	94.445	0.162	0.182
-353.537	800.000	-0.065	-0.185
-352.523	-46.874	0.190	-0.092
-351.508	246.649	0.136	0.225
-350.493	347.750	0.044	0.086
-349.479	593.856	-0.044	-0.106
-348.464	-72.270	0.501	0.183
-347.450	-123.701	0.170	-0.026
-346.435	-82.447	-0.262	-0.084
-345.420	118.224	0.136	0.165
-344.406	-116.295	0.186	0.034
-343.391	335.811	-0.118	0.225
-342.377	76.601	0.279	-0.291
-341.362	-200.000	0.000	0.095
-340.348	-200.000	-0.005	0.217
-339.333	416.969	-0.050	-0.104
-338.318	800.000	-0.029	-0.098
-337.304	-200.000	0.026	-0.625
-336.289	-200.000	0.010	-0.125
-335.275	289.375	0.085	0.152
-334.260	-200.000	0.019	-0.277
-333.245	172.765	-0.130	0.183
-332.231	41.255	0.318	-0.282
-331.216	182.744	-0.217	-0.315
-330.202	-116.243	-0.244	-0.044
-329.187	129.261	-0.089	0.112
-328.172	258.930	0.095	0.161
-327.158	800.000	-0.071	0.221
-326.143	-174.602	0.214	-0.006
-325.129	-14.126	0.150	-0.095
-324.114	2.906	0.103	-0.073
-323.099	-65.587	-0.394	0.156
-322.085	100.101	0.105	0.120
-321.070	-26.883	0.205	0.118
-320.056	-82.258	-0.137	0.044
-319.041	14.566	-0.195	-0.150
-318.026	182.569	0.049	-0.071
-317.012	800.000	0.089	-0.305
-315.997	-200.000	-0.005	0.127
-314.983	-200.000	0.001	0.129
-313.968	39.582	0.072	-0.064
-312.953	-76.868	0.196	0.067
-311.939	19.440	0.257	-0.203
-310.924	11.486	0.021	-0.016
-309.910	26.156	0.201	-0.165
-308.895	-70.422	-0.218	-0.081
-307.880	-200.000	-0.028	-0.168
-306.866	-109.379	0.101	-0.021
-305.851	21.359	-0.288	-0.230
-304.837	800.000	0.078	-0.249
-303.822	-88.067	0.304	-0.089
-302.807	-63.791	0.089	-0.036
-301.793	-200.000	-0.053	0.469
-300.778	-200.000	0.010	-0.254
-299.764	-200.000	0.016	-0.146
-298.749	-17.012	-0.183	-0.113
-297.735	800.000	0.048	0.166
-296.720	407.178	0.033	0.069
-295.705	-141.843	0.110	0.011
-294.691	614.180	-0.054	0.134
-293.676	304.621	-0.056	0.101
-292.662	-200.000	-0.017	-0.159
-291.647	-107.479	-0.243	0.052
-290.632	91.941	0.104	0.114
-289.618	-70.485	-0.276	0.103
-288.603	-74.105	0.345	0.123
-287.589	-114.330	-0.406	0.077
-286.574	-200.000	0.037	-0.168
-285.559	-200.000	-0.026	0.181
-284.545	800.000	-0.114	0.333
-283.530	19.273	0.029	0.023
-282.516	-78.958	-0.112	-0.038
-281.501	-35.072	0.138	0.074
-280.486	-198.060	0.095	0.001
-279.472	-200.000	0.007	-0.108
-278.457	715.877	0.061	-0.160
-277.443	-31.373	-0.213	-0.117
-276.428	0.578	-0.183	0.129
-275.413	-162.569	0.265	-0.013
-274.399	-47.528	-0.364	0.174
-273.384	800.000	-0.074	-0.209
-272.370	-156.048	0.170	-0.011
-271.355	95.409	0.115	-0.129
-270.340	240.592	0.092	-0.151
-269.326	-76.748	0.456	-0.157
-268.311	-200.000	-0.034	0.341
-267.297	-88.350	-0.123	-0.036
-266.282	-200.000	0.004	0.031
-265.267	141.236	-0.085	-0.111
-264.253	-200.000	-0.046	-0.339
-263.238	165.108	-0.024	0.033
-262.224	-200.000	-0.055	0.414
-261.209	62.441	0.214	0.209
-260.195	8.908	0.213	0.157
-259.180	-200.000	-0.001	0.116
-258.165	432.219	0.056	-0.119
-257.151	45.510	0.073	-0.067
-256.136	-108.625	-0.139	0.029
-255.122	-98.768	-0.266	0.066
-254.107	36.894	-0.373	-0.323
-253.092	632.283	0.121	-0.300
-252.078	-200.000	0.017	-0.073
-251.063	-148.646	0.263	-0.021
-250.049	-67.759	-0.228	-0.087
-249.034	338.699	0.162	0.309
-248.019	464.562	0.120	0.263
-247.005	-200.000	0.021	0.187
-245.990	-84.881	-0.086	0.026
-244.976	456.759	0.039	-0.086
-243.961	239.155	-0.114	0.186
-242.946	77.641	0.209	-0.218
-241.932	-182.671	-0.222	0.004
-240.917	774.367	-0.033	0.089
-239.903	212.454	0.152	0.234
-238.888	-98.104	-0.163	-0.041
-237.873	-74.437	0.236	-0.083
-236.859	-200.000	-0.018	-0.161
-235.844	-73.746	0.143	0.051
-234.830	-200.000	0.012	-0.158
-233.815	-200.000	-0.005	0.174
-232.800	-156.459	0.113	-0.007
-231.786	135.404	0.050	0.064
-230.771	46.046	-0.178	0.161
-229.757	193.713	-0.146	-0.216
-228.742	87.379	0.198	0.214
-227.727	-200.000	0.045	0.429
-226.713	-57.041	0.248	-0.107
-225.698	283.576	0.072	0.127
-224.684	150.269	0.244	0.324
-223.669	290.491	-0.171	-0.303
-222.655	-134.335	0.162	0.020
-221.640	-130.165	-0.176	-0.023
-220.625	302.343	-0.138	0.249
-219.611	582.159	0.017	0.040
-218.596	-71.030	0.194	-0.071
-217.582	96.692	-0.109	-0.122
-216.567	-133.851	-0.068	-0.008
-215.552	-152.631	-0.143	-0.010
-214.538	497.183	0.093	0.209
-213.523	-34.157	0.260	-0.140
-212.509	-200.000	-0.005	-0.086
-211.494	24.730	-0.066	0.054
-210.479	139.506	0.193	0.248
-209.465	-11.978	-0.175	-0.112
-208.450	-200.000	0.027	-0.296
-207.436	800.000	0.074	0.243
-206.421	343.145	-0.081	-0.155
-205.406	-157.098	0.041	-0.002
-204.392	800.000	-0.070	0.240
-203.377	-146.080	-0.104	-0.009
-202.363	218.246	-0.091	-0.142
-201.348	-138.852	0.272	0.029
-200.333	-200.000	-0.009	0.112
-199.319	-105.382	-0.298	0.066
-198.304	-7.966	0.185	0.122
-197.290	-200.000	-0.010	0.211
-196.275	3.067	-0.085	0.060
-195.260	-39.938	0.187	-0.095
-194.246	87.865	-0.415	0.450
-193.231	800.000	0.030	0.104
-192.217	-42.284	-0.170	0.085
-191.202	200.088	0.104	0.156
-190.187	-34.598	-0.269	-0.144
-189.173	-200.000	0.008	-0.085
-188.158	-200.000	0.045	-0.227
-187.144	-96.919	0.291	0.075
-186.129	159.603	0.045	0.061
-185.114	-11.699	0.062	-0.040
-184.100	73.483	0.133	-0.136
-183.085	1.157	0.298	-0.209
-182.071	-29.336	-0.225	0.126
-181.056	135.444	0.061	0.078
-180.042	-14.219	-0.094	0.059
-179.027	56.969	0.062	0.059
-178.012	176.951	-0.030	-0.043
-176.998	151.765	-0.139	-0.185
-175.983	-20.006	-0.035	-0.021
-174.969	97.831	-0.096	-0.107
-173.954	-110.156	0.262	0.053
-172.939	30.423	0.111	-0.092
-171.925	247.941	-0.097	0.161
-170.910	-82.059	0.254	-0.081
-169.896	-56.654	-0.123	-0.053
-168.881	-27.025	-0.336	0.191
-167.866	-45.035	0.190	-0.092
-166.852	-91.079	-0.272	-0.076
-165.837	-107.542	0.416	0.089
-164.823	800.000	0.096	0.353
-163.808	13.232	-0.145	-0.110
-162.793	-157.461	0.301	-0.018
-161.779	-44.422	0.217	-0.106
-160.764	-17.713	-0.374	0.230
-159.750	-109.605	0.113	0.023
-158.735	626.986	0.118	0.292
-157.720	-73.262	-0.322	-0.115
-156.706	-120.001	0.302	0.051
-155.691	-200.000	-0.044	-0.301
-154.677	-200.000	0.001	-0.114
-153.662	-200.000	0.096	0.429
-152.647	49.443	-0.097	-0.089
-151.633	-200.000	-0.011	-0.233
-150.618	-87.563	-0.235	-0.069
-149.604	800.000	-0.048	-0.132
-148.589	151.564	0.149	-0.198
-147.574	52.960	-0.242	0.226
-146.560	559.091	0.191	-0.450
-145.545	30.773	0.206	0.172
-144.531	-200.000	0.015	-0.191
-143.516	-65.432	0.156	-0.061
-142.502	-200.000	-0.025	-0.134
-141.487	616.713	0.145	-0.355
-140.472	360.995	0.095	-0.185
-139.458	-91.482	0.297	0.083
-138.443	800.000	0.090	-0.364
-137.429	-200.000	-0.011	-0.368
-136.414	800.000	-0.130	-0.430
-135.399	-84.242	0.308	0.095
-134.385	222.311	0.226	-0.355
-133.370	-48.679	-0.255	-0.119
-132.356	545.158	0.092	-0.214
-131.341	-35.616	-0.169	-0.089
-130.326	-124.576	0.153	0.023
-129.312	-200.000	-0.241	-0.001
-128.297	143.548	0.198	-0.257
-127.283	-200.000	-0.029	0.183
-126.268	-33.221	0.393	-0.212
-125.253	800.000	-0.066	-0.211
-124.239	-200.000	0.019	0.124
-123.224	-200.000	0.015	-0.220
-122.210	150.213	-0.080	-0.105
-121.195	-36.231	-0.231	-0.122
-120.180	76.472	-0.430	-0.444
-119.166	800.000	-0.075	0.290
-118.151	64.754	-0.211	-0.208
-117.137	800.000	0.054	0.189
-116.122	92.569	-0.451	-0.496
-115.107	51.163	-0.239	0.221
-114.093	-36.776	0.222	-0.116
-113.078	38.016	-0.216	-0.188
-112.064	-200.000	-0.071	-0.432
-111.049	38.132	-0.219	0.190
-110.034	-200.000	-0.007	-0.232
-109.020	-34.303	-0.260	-0.139
-108.005	800.000	-0.104	0.336
-106.991	-66.916	0.285	0.110
-105.976	187.990	0.163	0.237
-104.962	-200.000	-0.003	0.057
-103.947	-200.000	-0.009	0.207
-102.932	-200.000	0.013	-0.099
-101.918	-27.606	-0.295	-0.167
-100.903	-16.961	0.292	0.180
-99.889	140.146	0.124	-0.159
-98.874	-43.296	0.193	-0.095
-97.859	-200.000	-0.017	0.223
-96.845	-0.706	-0.058	-0.040
-95.830	-154.489	-0.160	-0.010
-94.816	800.000	-0.039	0.156
-93.801	119.960	-0.108	-0.130
-92.786	-33.746	-0.135	0.073
-91.772	-200.000	-0.046	0.223
-90.757	-70.754	0.245	0.090
-89.743	70.016	0.083	-0.084
-88.728	260.556	0.174	-0.294
-87.713	800.000	0.057	-0.174
-86.699	-200.000	-0.024	-0.272
-85.684	-31.612	0.271	0.148
-84.670	-200.000	-0.008	0.140
-83.655	-50.950	0.147	-0.067
-82.640	44.156	-0.130	0.116
-81.626	47.442	0.133	-0.121
-80.611	-200.000	0.003	0.092
-79.597	800.000	0.019	0.068
-78.582	30.125	0.130	-0.108
-77.567	-111.032	-0.320	0.064
-76.553	-17.277	0.161	0.099
-75.538	-36.043	0.091	-0.048
-74.524	26.012	-0.089	-0.072
-73.509	535.275	0.040	0.093
-72.494	145.708	0.105	0.137
-71.480	140.720	0.196	-0.252
-70.465	-23.747	0.451	-0.263
-69.451	-200.000	0.027	-0.185
-68.436	-138.772	-0.069	-0.007
-67.422	166.599	-0.196	0.271
-66.407	-68.074	-0.109	0.041
-65.392	-112.287	0.155	-0.030
-64.378	800.000	0.021	0.086
-63.363	-120.942	0.302	0.049
-62.349	-200.000	-0.027	0.205
-61.334	110.234	-1.143	-1.335
-60.319	47.819	0.972	0.883
-59.305	800.000	-0.462	-1.430
-58.290	186.327	1.069	1.547
-57.276	800.000	0.494	1.335
-56.261	-200.000	135.555	682.280
-55.246	340.399	1677.621	3184.288
-54.232	134.605	2803.545	3537.829
-53.217	87.166	2195.325	2360.078
-52.203	30.866	1712.745	1426.727
-51.188	23.850	1536.347	1231.337
-50.173	22.165	1514.545	1202.295
-49.159	46.506	1589.830	1434.273
-48.144	43.007	1600.461	1419.211
-47.130	23.934	1548.621	1241.558
-46.115	21.138	1533.200	1209.796
-45.100	20.995	1529.276	1205.664
-44.086	20.890	1527.652	1203.612
-43.071	20.851	1525.562	1201.647
-42.057	20.859	1524.062	1200.474
-41.042	20.893	1522.184	1199.178
-40.027	20.797	1520.922	1197.476
-39.013	20.756	1519.831	1196.292
-37.998	20.700	1518.900	1195.127
-36.984	20.859	1517.133	1194.779
-35.969	20.842	1515.902	1193.647
-34.954	20.876	1514.485	1192.710
-33.940	20.763	1513.796	1191.349
-32.925	20.836	1512.116	1190.483
-31.911	20.840	1510.516	1189.197
-30.896	20.883	1509.290	1188.481
-29.881	20.912	1508.013	1187.627
-28.867	20.920	1506.511	1186.453
-27.852	20.990	1504.988	1185.681
-26.838	20.972	1503.434	1184.283
-25.823	20.908	1502.694	1183.219
-24.809	20.916	1500.817	1181.750
-23.794	20.942	1499.242	1180.638
-22.779	20.967	1497.863	1179.679
-21.765	20.974	1496.886	1178.906
-20.750	20.992	1496.340	1178.554
-19.736	20.908	1495.135	1176.988
-18.721	20.873	1494.078	1175.875
-17.706	20.853	1492.877	1174.751
-16.692	20.900	1492.015	1174.341
-15.677	20.885	1491.209	1173.559
-14.663	20.866	1490.032	1172.458
-13.648	20.889	1488.937	1171.706
-12.633	20.963	1487.949	1171.375
-11.619	20.874	1487.325	1170.243
-10.604	20.842	1485.919	1168.874
-9.590	20.853	1485.430	1168.518
-8.575	20.938	1484.159	1168.042
-7.560	20.876	1483.296	1166.897
-6.546	20.792	1482.660	1165.792
-5.531	20.821	1481.907	1165.344
-4.517	20.816	1480.611	1164.246
-3.502	20.874	1479.422	1163.654
-2.487	20.877	1478.790	1163.127
-1.473	20.815	1477.784	1161.877
-0.458	20.840	1476.695	1161.142
0.556	19.908	1465.950	1149.309
1.571	16.671	1441.935	1109.205
2.586	13.268	1379.361	1039.609
3.600	11.776	1293.750	966.197
4.615	10.966	1250.204	928.967
5.629	9.808	1193.443	880.400
6.644	5.084	1112.589	796.602
7.659	1.203	1078.235	752.708
8.673	0.823	1072.751	746.938
9.688	0.626	1069.822	743.859
10.702	0.623	1068.285	742.713
11.717	0.578	1065.801	740.698
12.731	2.195	1066.245	748.873
13.746	7.567	1073.802	780.574
14.761	14.026	1081.914	818.297
15.775	16.904	1085.332	835.004
16.790	16.974	1083.890	834.163
17.804	16.017	1081.581	827.614
18.819	15.091	1080.117	821.876
19.834	14.706	1078.591	818.755
20.848	14.465	1077.847	816.938
21.863	14.270	1077.075	815.328
22.877	14.029	1076.438	813.594
23.892	13.833	1075.216	811.638
24.907	13.696	1074.506	810.360
25.921	13.555	1073.719	809.007
26.936	13.753	1072.559	809.030
27.950	13.747	1072.269	808.707
28.965	13.806	1071.465	808.320
29.980	13.926	1070.109	807.805
30.994	13.852	1070.120	807.386
32.009	13.853	1069.046	806.507
33.023	13.935	1068.106	806.123
34.038	13.886	1067.527	805.379
35.053	13.899	1066.568	804.648
36.067	13.887	1065.323	803.578
37.082	13.797	1064.691	802.593
38.096	13.866	1064.072	802.390
39.111	13.937	1063.028	801.875
40.126	13.831	1062.489	800.886
41.140	13.876	1061.100	799.987
42.155	13.607	1060.479	798.153
43.169	13.709	1059.226	797.627
44.184	13.717	1058.121	796.763
45.199	13.672	1057.315	795.871
46.213	13.503	1057.087	794.818
47.228	13.808	1055.391	794.933
48.242	13.742	1054.338	793.755
49.257	13.722	1053.496	792.953
50.271	13.797	1052.189	792.258
51.286	13.833	1051.147	791.576
52.301	13.788	1050.947	791.140
53.315	13.844	1050.040	790.655
54.330	13.844	1049.293	790.021
55.344	13.804	1048.136	788.889
56.359	13.736	1047.159	787.765
57.374	13.819	1046.238	787.394
58.388	13.697	1045.722	786.359
59.403	13.783	1044.513	785.787
60.417	13.692	1044.073	784.956
61.432	13.734	1043.235	784.453
62.447	13.590	1042.703	783.302
63.461	13.683	1041.748	782.957
64.476	13.614	1041.207	782.152
65.490	13.688	1040.260	781.723
66.505	13.568	1039.164	780.266
67.520	13.696	1038.509	780.307
68.534	13.658	1037.361	779.196
69.549	13.684	1036.806	778.834
70.563	13.744	1035.983	778.427
71.578	13.699	1035.615	777.868
72.593	13.635	1034.257	776.480
73.607	13.722	1033.222	776.041
74.622	13.551	1032.762	774.830
75.636	13.650	1031.662	774.397
76.651	13.512	1031.010	773.197
77.666	13.691	1029.690	772.971
78.680	13.659	1028.967	772.211
79.695	13.722	1028.399	772.012
80.709	13.571	1028.391	771.232
81.724	13.768	1026.974	771.018
82.739	13.759	1025.851	770.067
83.753	13.720	1025.862	769.826
84.768	13.732	1024.779	769.001
85.782	13.876	1024.030	769.036
86.797	13.969	1022.828	768.494
87.812	13.766	1022.448	767.202
88.826	13.890	1021.521	767.012
89.841	13.819	1020.628	765.948
90.855	13.767	1019.961	765.139
91.870	13.887	1019.061	764.949
92.884	13.915	1018.136	764.313
93.899	13.796	1017.669	763.351
94.914	13.897	1016.733	763.043
95.928	13.940	1016.199	762.771
96.943	13.970	1015.472	762.296
97.957	13.959	1014.388	761.366
98.972	13.864	1013.977	760.553
99.987	13.872	1013.094	759.864
101.001	13.884	1011.981	759.016
102.016	13.940	1011.430	758.793
103.030	13.829	1010.484	757.508
104.045	13.898	1009.304	756.868
105.060	13.933	1008.438	756.310
106.074	13.934	1007.736	755.723
107.089	13.809	1006.562	754.208
108.103	13.809	1005.699	753.493
109.118	13.788	1004.965	752.781
110.133	13.722	1004.167	751.820
111.147	13.772	1003.257	751.299
112.162	13.795	1002.126	750.490
113.176	13.779	1001.719	750.043
114.191	13.870	1000.398	749.400
115.206	13.741	999.716	748.240
116.220	13.836	998.599	747.767
117.235	13.792	998.013	747.065
118.249	13.754	997.467	746.418
119.264	13.844	996.230	745.830
120.279	13.755	995.774	745.026
121.293	13.774	994.592	744.160
122.308	13.820	993.690	743.625
123.322	13.755	993.109	742.832
124.337	13.776	991.291	741.500
125.352	13.742	990.661	740.814
126.366	13.804	989.000	739.783
127.381	13.814	988.044	739.046
128.395	13.778	987.158	738.159
129.410	13.728	986.116	737.090
130.424	13.758	985.240	736.504
131.439	13.684	984.816	735.794
132.454	13.759	983.922	735.392
133.468	13.734	983.012	734.536
134.483	13.802	982.705	734.542
135.497	13.871	981.842	734.141
136.512	13.763	981.042	732.998
137.527	13.765	980.562	732.582
138.541	13.732	979.656	731.696
139.556	13.757	979.026	731.272
140.570	13.899	977.997	731.062
141.585	13.908	977.126	730.387
142.600	13.946	976.611	730.105
143.614	13.911	976.103	729.507
144.629	13.994	974.987	728.973
145.643	14.075	974.370	728.800
146.658	14.035	973.428	727.855
147.673	14.036	972.421	727.044
148.687	14.070	971.235	726.241
149.702	13.854	970.849	724.947
150.716	13.841	969.818	724.057
151.731	13.902	968.597	723.344
152.746	13.921	968.275	723.123
153.760	13.974	967.413	722.646
154.775	13.949	966.505	721.794
155.789	14.084	965.579	721.624
156.804	14.026	965.177	721.011
157.819	14.017	963.966	720.004
158.833	14.119	963.687	720.173
159.848	14.209	962.588	719.674
160.862	14.139	962.137	718.973
161.877	14.086	961.263	718.026
162.892	13.942	960.468	716.750
163.906	13.993	959.589	716.249
164.921	13.989	959.059	715.774
165.935	14.017	957.910	714.971
166.950	14.155	956.562	714.497
167.964	14.191	955.571	713.847
168.979	14.151	954.895	713.106
169.994	14.042	953.969	711.885
171.008	14.153	953.239	711.755
172.023	14.198	952.327	711.204
173.037	14.128	951.941	710.551
174.052	14.362	950.518	710.424
175.067	14.218	950.293	709.579
176.081	14.184	949.404	708.709
177.096	14.256	948.072	707.958
178.110	14.087	947.781	706.959
179.125	14.155	947.138	706.704
180.140	14.300	946.087	706.475
181.154	14.314	945.451	705.995
182.169	14.282	944.637	705.192
183.183	14.307	944.180	704.892
184.198	14.383	943.346	704.529
185.213	14.355	942.751	703.902
186.227	14.330	942.200	703.324
187.242	14.462	941.500	703.296
188.256	14.500	940.902	702.947
189.271	14.512	939.944	702.220
190.286	14.406	939.439	701.336
191.300	14.413	938.620	700.691
192.315	14.376	937.734	699.810
193.329	14.301	937.148	698.999
194.344	14.209	936.809	698.299
195.359	14.265	935.942	697.825
196.373	14.433	935.505	698.142
197.388	14.454	935.020	697.805
198.402	14.466	934.254	697.223
199.417	14.640	934.233	697.872
200.432	14.580	933.614	697.097
201.446	14.526	933.160	696.471
202.461	14.639	932.635	696.489
203.475	14.812	932.057	696.717
204.490	14.621	931.498	695.441
205.504	14.649	930.270	694.578
206.519	14.615	929.633	693.900
207.534	14.743	928.623	693.616
208.548	14.561	928.249	692.520
209.563	14.612	927.323	691.980
210.577	14.586	927.094	691.641
211.592	14.732	926.054	691.408
212.607	14.756	925.557	691.074
213.621	14.774	925.010	690.680
214.636	14.663	924.277	689.611
215.650	14.767	923.367	689.302
216.665	14.746	923.311	689.112
217.680	14.748	922.478	688.437
218.694	14.937	921.835	688.675
219.709	14.841	921.155	687.710
220.723	14.894	920.421	687.322
221.738	14.802	920.135	686.670
222.753	15.041	918.828	686.614
223.767	14.921	918.535	685.840
224.782	14.886	917.444	684.822
225.796	14.930	917.225	684.779
226.811	15.066	916.417	684.672
227.826	15.028	915.099	683.469
228.840	14.964	914.858	682.968
229.855	14.932	914.229	682.308
230.869	14.974	913.502	681.879
231.884	14.921	912.993	681.220
232.899	14.983	912.200	680.821
233.913	15.006	911.385	680.244
234.928	14.934	911.050	679.643
235.942	14.962	910.354	679.179
236.957	14.914	909.607	678.366
237.972	15.018	908.891	678.193
238.986	15.008	908.042	677.457
240.001	15.062	907.375	677.122
241.015	15.076	906.454	676.428
242.030	14.931	906.513	675.828
243.045	15.212	905.294	675.992
244.059	15.033	904.896	674.915
245.074	15.073	903.866	674.247
246.088	15.228	903.531	674.560
247.103	15.277	902.867	674.202
248.117	15.193	902.527	673.550
249.132	15.166	901.876	672.899
250.147	15.253	900.963	672.506
251.161	15.294	899.777	671.727
252.176	15.414	899.364	671.840
253.190	15.447	898.657	671.384
254.205	15.341	898.377	670.689
255.220	15.397	897.665	670.324
256.234	15.502	896.432	669.761
257.249	15.627	896.054	669.920
258.263	15.571	895.700	669.373
259.278	15.470	895.409	668.692
260.293	15.477	895.186	668.493
261.307	15.538	894.154	667.906
262.322	15.528	893.571	667.375
263.336	15.669	893.015	667.461
264.351	15.762	892.284	667.222
265.366	15.773	891.356	666.513
266.380	15.724	890.568	665.670
267.395	15.638	890.336	665.098
268.409	15.593	889.753	664.424
269.424	15.634	888.905	663.894
270.439	15.746	888.004	663.607
271.453	15.637	887.173	662.498
272.468	15.682	886.672	662.241
273.482	15.744	886.049	661.961
274.497	15.881	885.378	661.939
275.512	15.708	884.540	660.576
276.526	15.704	883.519	659.740
277.541	15.728	882.975	659.370
278.555	15.796	882.879	659.505
279.570	15.799	882.109	658.884
280.585	15.881	881.107	658.398
281.599	15.932	880.707	658.240
282.614	15.835	880.672	657.775
283.628	15.905	879.816	657.351
284.643	15.899	879.050	656.697
285.657	15.805	878.911	656.169
286.672	15.869	878.279	655.888
287.687	15.974	877.193	655.427
288.701	16.152	876.600	655.618
289.716	15.984	876.534	654.860
290.730	15.957	875.610	654.008
291.745	15.921	875.284	653.563
292.760	16.012	873.947	652.860
293.774	16.058	873.528	652.668
294.789	16.111	873.224	652.588
295.803	15.991	872.510	651.533
296.818	16.084	871.893	651.376
297.833	15.966	871.451	650.530
298.847	16.172	870.364	650.454
299.862	16.111	870.099	649.965
300.876	16.144	869.320	649.454
301.891	16.263	868.480	649.227
302.906	16.214	867.855	648.513
303.920	16.252	867.007	647.969
304.935	16.309	866.414	647.686
305.949	16.291	866.017	647.263
306.964	16.425	864.948	646.920
307.979	16.205	864.696	645.833
308.993	16.279	864.356	645.805
310.008	16.367	863.505	645.447
311.022	16.245	862.976	644.529
312.037	16.539	862.093	644.933
313.052	16.424	862.230	644.540
314.066	16.426	861.196	643.718
315.081	16.360	860.680	643.024
316.095	16.409	860.248	642.829
317.110	16.333	859.816	642.162
318.125	16.339	859.147	641.628
319.139	16.441	858.307	641.330
320.154	16.373	858.226	640.956
321.168	16.561	857.776	641.278
322.183	16.472	856.619	640.018
323.197	16.542	856.068	639.816
324.212	16.530	855.621	639.377
325.227	16.472	855.176	638.769
326.241	16.541	854.420	638.410
327.256	16.385	854.407	637.755
328.270	16.570	853.783	637.931
329.285	16.535	852.769	636.982
330.300	16.453	852.370	636.322
331.314	16.387	851.873	635.645
332.329	16.558	850.940	635.535
333.343	16.545	850.752	635.288
334.358	16.673	849.692	634.921
335.373	16.612	849.510	634.500
336.387	16.543	849.186	633.944
337.402	16.582	848.543	633.552
338.416	16.672	847.984	633.418
339.431	16.792	847.222	633.241
340.446	16.789	846.572	632.689
341.460	16.907	845.773	632.474
342.475	16.864	845.383	631.968
343.489	16.807	844.912	631.348
344.504	16.796	844.351	630.830
345.519	16.952	843.850	630.979
346.533	17.061	843.220	630.858
347.548	16.932	842.786	630.000
348.562	16.888	842.193	629.337
349.577	16.996	841.625	629.258
350.592	16.917	841.041	628.473
351.606	17.089	840.648	628.761
352.621	16.809	840.435	627.509
353.635	16.811	840.219	627.298
354.650	16.888	839.799	627.213
355.665	17.036	838.990	627.102
356.679	17.019	838.455	626.585
357.694	16.905	838.160	625.886
358.708	16.986	837.584	625.702
359.723	16.987	836.785	625.051
360.738	17.265	836.247	625.620
361.752	17.131	836.143	624.994
362.767	16.955	835.624	623.902
363.781	17.111	835.041	623.986
364.796	17.161	834.689	623.850
365.810	17.271	833.866	623.581
366.825	17.123	833.827	622.955
367.840	17.194	833.488	622.906
368.854	17.285	832.806	622.675
369.869	17.280	832.492	622.368
370.883	17.279	831.965	621.914
371.898	17.398	831.117	621.661
372.913	17.450	830.230	621.132
373.927	17.333	830.261	620.674
374.942	17.303	829.207	619.721
375.956	17.315	828.992	619.550
376.971	17.433	827.959	619.151
377.986	17.455	827.929	619.153
379.000	17.294	827.568	618.246
380.015	17.598	826.513	618.506
381.029	17.502	826.252	617.908
382.044	17.418	825.764	617.183
383.059	17.598	824.792	617.054
384.073	17.476	824.498	616.339
385.088	17.566	824.055	616.277
386.102	17.532	823.602	615.763
387.117	17.514	823.033	615.217
388.132	17.616	822.453	615.097
389.146	17.576	821.616	614.273
390.161	17.510	821.780	614.101
391.175	17.647	821.081	614.018
392.190	17.521	821.005	613.456
393.205	17.550	820.572	613.179
394.219	17.554	820.103	612.789
395.234	17.635	819.546	612.612
396.248	17.697	818.787	612.213
397.263	17.709	818.436	611.937
398.278	17.656	817.856	611.259
399.292	17.584	817.527	610.704
400.307	17.581	817.210	610.401
401.321	17.738	816.532	610.404
402.336	17.637	816.456	609.930
403.350	17.631	815.861	609.410
404.365	17.785	815.449	609.599
405.380	17.604	815.220	608.728
406.394	17.785	814.256	608.601
407.409	17.865	813.826	608.509
408.423	17.829	813.388	607.999
409.438	17.951	812.933	608.039
410.453	17.851	812.734	607.481
411.467	17.818	812.355	607.027
412.482	18.049	811.694	607.301
413.496	18.006	811.148	606.686
414.511	18.058	810.853	606.596
415.526	18.034	810.601	606.267
416.540	18.180	809.869	606.184
417.555	17.970	809.751	605.299
418.569	17.944	808.907	604.521
419.584	17.959	808.987	604.581
420.599	18.168	808.109	604.612
421.613	115.927	1299.914	1491.945
422.628	100.271	1371.529	1492.048
