DTS Sentinel unit serial number:	SN413079Multiplexer serial number:	ORYXHardware model number:	OX4-SRSoftware version number:	ORYX F/W v4.00 Oryx Data Collector v3.7.2.0data status	okinstallation	princeton_trtdifferential loss correction	single-endedforward channel	channel 3reverse channel	N/Adate	2019/09/18time	13:08:35forward acquisition time	60.00reverse acquisition time	0.00gamma	496.2192k internal	0.2314k external	0.2314temperature offset calibration	0.9968default loss term (dB/km)	0.3790temperature slope calibration	1.0000multiplexer offset coefficient	1.0000multiplexer slope coefficient	1.0000fibre end	0.00T internal ref (°C)	33.75T ext. ref 1 (°C)	0.59T ext. ref 2 (°C)	31.58length (m)	temperature (°C)	Stokes	anti-Stokes-747.200	411.792	0.186	0.402
-746.185	-3.215	0.073	-0.052
-745.171	-71.009	0.206	0.079
-744.156	173.907	0.277	0.405
-743.142	52.259	-0.119	0.115
-742.127	80.304	-0.104	0.113
-741.112	800.000	0.025	0.101
-740.098	5.777	-0.137	0.103
-739.083	52.955	-0.175	0.170
-738.069	498.833	0.184	0.430
-737.054	223.410	0.024	0.039
-736.039	-46.261	-0.178	-0.089
-735.025	-200.000	0.017	0.286
-734.010	-39.964	0.134	-0.071
-732.996	49.736	-0.232	-0.221
-731.981	160.425	0.193	-0.273
-730.966	-83.508	-0.269	0.087
-729.952	83.213	-0.168	-0.185
-728.937	239.144	-0.162	-0.273
-727.923	90.799	-0.203	0.231
-726.908	-200.000	-0.001	0.181
-725.894	800.000	-0.105	0.316
-724.879	23.033	-0.112	-0.093
-723.864	-24.506	0.146	-0.088
-722.850	-85.083	0.363	-0.115
-721.835	35.315	-0.069	-0.062
-720.821	800.000	0.147	-0.418
-719.806	43.431	0.150	0.138
-718.791	-71.507	0.080	0.030
-717.777	-44.356	0.077	0.039
-716.762	-119.857	-0.440	-0.077
-715.748	-97.905	0.241	0.063
-714.733	-131.813	-0.170	0.022
-713.718	-200.000	0.011	-0.057
-712.704	-124.355	-0.223	0.035
-711.689	-11.839	-0.059	-0.039
-710.675	-200.000	0.027	0.231
-709.660	101.761	-0.043	-0.051
-708.645	0.836	-0.167	-0.121
-707.631	84.258	-0.287	0.318
-706.616	94.619	-0.248	-0.285
-705.602	-200.000	0.003	-0.017
-704.587	-47.355	-0.163	0.081
-703.572	-132.970	-0.288	0.037
-702.558	8.387	0.228	-0.173
-701.543	-80.887	-0.193	0.065
-700.529	22.836	0.097	0.081
-699.514	800.000	-0.036	-0.153
-698.499	-200.000	-0.003	0.174
-697.485	464.136	-0.101	0.229
-696.470	129.318	0.122	0.158
-695.456	21.902	-0.139	-0.115
-694.441	69.836	0.206	0.215
-693.426	258.711	-0.189	0.330
-692.412	304.797	-0.045	0.084
-691.397	182.096	0.195	0.291
-690.383	-14.097	0.104	0.068
-689.368	201.117	0.208	0.325
-688.354	113.017	-0.208	0.255
-687.339	-184.237	-0.084	0.001
-686.324	-98.457	-0.183	-0.047
-685.310	586.390	-0.027	0.066
-684.295	-133.166	-0.256	0.033
-683.281	1.402	0.223	-0.163
-682.266	60.014	0.105	-0.105
-681.251	386.438	0.123	-0.257
-680.237	-58.443	0.409	0.180
-679.222	66.211	0.184	0.189
-678.208	132.525	-0.124	0.162
-677.193	277.637	-0.171	0.309
-676.178	-200.000	-0.034	0.236
-675.164	800.000	-0.095	-0.387
-674.149	244.553	-0.082	0.139
-673.135	-62.098	0.352	0.148
-672.120	-200.000	0.020	-0.149
-671.105	800.000	-0.064	0.209
-670.091	-200.000	0.068	0.406
-669.076	138.357	0.042	-0.056
-668.062	161.798	0.047	0.066
-667.047	266.582	0.119	-0.211
-666.032	-200.000	0.013	0.166
-665.018	183.095	-0.196	0.293
-664.003	555.873	0.028	-0.069
-662.989	-153.876	-0.083	0.006
-661.974	132.948	-0.210	-0.274
-660.959	-200.000	-0.003	0.119
-659.945	800.000	-0.071	0.241
-658.930	-13.051	-0.121	0.079
-657.916	800.000	0.110	-0.319
-656.901	-72.250	0.287	-0.107
-655.886	-144.665	-0.243	-0.023
-654.872	800.000	-0.053	-0.151
-653.857	71.797	0.064	-0.067
-652.843	-112.696	-0.436	0.088
-651.828	43.558	-0.151	-0.139
-650.814	-61.720	0.191	-0.081
-649.799	-121.219	0.135	0.023
-648.784	110.638	0.114	-0.139
-647.770	-200.000	0.013	0.134
-646.755	-42.385	-0.142	-0.073
-645.741	-103.025	0.058	-0.014
-644.726	225.975	0.073	-0.120
-643.711	47.491	-0.201	-0.189
-642.697	557.208	0.128	0.311
-641.682	-46.352	-0.229	-0.114
-640.668	23.400	0.223	0.185
-639.653	-104.548	-0.241	-0.056
-638.638	800.000	0.025	-0.110
-637.624	-112.053	-0.153	0.031
-636.609	44.358	-0.196	0.182
-635.595	644.803	-0.119	0.306
-634.580	-94.973	0.319	-0.087
-633.565	-24.037	0.171	-0.103
-632.551	800.000	-0.166	-0.521
-631.536	60.180	-0.022	-0.022
-630.522	-15.943	-0.173	-0.111
-629.507	800.000	-0.083	-0.259
-628.492	97.255	0.227	0.263
-627.478	-27.197	0.107	-0.063
-626.463	800.000	0.085	-0.349
-625.449	13.496	0.351	-0.275
-624.434	800.000	-0.069	-0.255
-623.419	-93.799	0.270	-0.075
-622.405	-52.608	0.188	-0.088
-621.390	-200.000	-0.023	-0.137
-620.376	48.568	0.130	0.123
-619.361	-26.273	0.130	0.077
-618.346	-58.695	-0.288	-0.126
-617.332	264.031	-0.080	0.141
-616.317	151.164	-0.187	0.257
-615.303	204.425	-0.019	0.029
-614.288	-172.873	0.073	0.002
-613.273	79.113	-0.036	-0.039
-612.259	800.000	-0.049	-0.168
-611.244	-84.562	-0.140	0.044
-610.230	-70.380	-0.183	-0.070
-609.215	323.665	-0.024	-0.046
-608.201	170.302	-0.137	0.198
-607.186	48.068	-0.167	-0.157
-606.171	-87.733	-0.615	-0.187
-605.157	-200.000	-0.032	0.181
-604.142	-65.956	0.205	0.083
-603.128	-174.585	-0.282	-0.008
-602.113	128.398	-0.058	-0.075
-601.098	-76.969	0.123	-0.043
-600.084	-200.000	-0.007	0.255
-599.069	180.333	-0.099	0.146
-598.055	744.098	0.100	-0.270
-597.040	-101.244	-0.167	0.041
-596.025	-200.000	-0.022	0.140
-595.011	-200.000	0.048	-0.326
-593.996	382.535	0.064	0.132
-592.982	-192.356	-0.318	0.003
-591.967	-161.006	-0.391	0.021
-590.952	-154.729	-0.221	0.015
-589.938	800.000	-0.015	0.049
-588.923	-84.760	0.312	0.099
-587.909	117.283	-0.084	0.104
-586.894	204.806	0.014	-0.022
-585.879	372.078	0.165	-0.337
-584.865	34.870	0.049	-0.044
-583.850	-95.123	0.418	0.114
-582.836	800.000	-0.094	-0.296
-581.821	248.371	-0.125	-0.213
-580.806	-2.511	0.066	-0.046
-579.792	239.860	0.101	-0.169
-578.777	-58.719	0.239	-0.104
-577.763	15.770	-0.020	-0.016
-576.748	-200.000	0.010	0.083
-575.733	-162.773	-0.409	-0.020
-574.719	-200.000	-0.002	-0.051
-573.704	-104.384	-0.174	-0.040
-572.690	112.936	-0.209	0.255
-571.675	210.821	-0.156	0.246
-570.661	-173.466	0.036	0.001
-569.646	-200.000	-0.028	0.196
-568.631	-27.279	-0.269	-0.157
-567.617	15.320	0.120	-0.095
-566.602	-129.079	0.133	-0.019
-565.588	61.799	0.119	0.119
-564.573	-125.327	0.157	-0.024
-563.558	-200.000	0.070	0.324
-562.544	-150.420	-0.212	-0.016
-561.529	-77.722	0.135	-0.047
-560.515	58.732	0.264	0.262
-559.500	10.734	0.113	-0.087
-558.485	296.295	-0.031	-0.057
-557.471	-106.949	0.198	0.044
-556.456	14.388	0.129	0.101
-555.442	-64.446	0.178	-0.073
-554.427	331.294	-0.173	0.335
-553.412	-200.000	-0.040	0.229
-552.398	-81.913	-0.334	0.110
-551.383	-129.961	0.326	0.045
-550.369	37.135	0.107	0.095
-549.354	-200.000	0.046	-0.240
-548.339	-185.410	-0.273	0.004
-547.325	-10.915	-0.303	0.201
-546.310	392.599	0.065	-0.137
-545.296	121.291	0.149	-0.187
-544.281	26.756	-0.182	0.153
-543.266	13.304	-0.115	0.090
-542.252	58.352	0.250	0.247
-541.237	-26.154	-0.112	0.066
-540.223	431.862	-0.066	0.145
-539.208	-57.527	0.075	-0.033
-538.193	32.846	0.144	0.126
-537.179	513.255	-0.027	-0.064
-536.164	392.751	-0.040	-0.084
-535.150	117.827	0.246	-0.305
-534.135	442.860	-0.068	0.150
-533.121	27.073	-0.110	-0.093
-532.106	800.000	-0.064	0.215
-531.091	-115.559	-0.251	-0.047
-530.077	-200.000	0.001	-0.331
-529.062	-130.760	0.235	0.032
-528.048	-82.221	0.289	0.095
-527.033	-190.059	0.085	0.001
-526.018	75.943	-0.124	-0.132
-525.004	3.168	-0.088	-0.065
-523.989	-6.228	0.272	0.187
-522.975	-9.049	-0.115	-0.077
-521.960	497.158	-0.051	-0.118
-520.945	-85.791	0.526	0.164
-519.931	29.207	-0.098	0.083
-518.916	-72.571	-0.147	-0.055
-517.902	800.000	0.096	-0.301
-516.887	404.538	-0.155	-0.327
-515.872	332.460	0.126	-0.244
-514.858	-200.000	-0.027	0.193
-513.843	111.168	-0.165	0.199
-512.829	-200.000	0.026	0.169
-511.814	-120.887	0.442	-0.075
-510.799	-200.000	-0.024	-0.604
-509.785	78.049	0.067	0.072
-508.770	-188.893	0.285	0.003
-507.756	79.544	0.237	0.255
-506.741	-47.128	0.191	-0.094
-505.726	-147.930	0.563	0.047
-504.712	500.571	-0.042	0.097
-503.697	800.000	-0.027	0.103
-502.683	10.252	-0.197	0.150
-501.668	-37.991	-0.186	0.099
-500.653	479.040	-0.180	-0.409
-499.639	-30.020	-0.225	0.128
-498.624	-24.588	0.108	0.065
-497.610	-183.235	-0.138	0.002
-496.595	-200.000	-0.012	-0.066
-495.581	800.000	-0.068	-0.203
-494.566	-147.175	-0.198	0.017
-493.551	-200.000	-0.004	-0.023
-492.537	-128.243	-0.174	-0.025
-491.522	-200.000	-0.026	-0.179
-490.508	800.000	0.054	0.206
-489.493	81.715	-0.088	0.096
-488.478	114.931	0.087	-0.106
-487.464	-157.623	-0.331	-0.020
-486.449	18.190	-0.029	0.023
-485.435	-96.801	-0.055	0.015
-484.420	21.449	-0.215	-0.175
-483.405	350.104	0.112	-0.223
-482.391	160.720	0.042	-0.059
-481.376	238.280	0.091	-0.152
-480.362	-75.447	0.284	0.102
-479.347	42.707	0.199	0.182
-478.332	-200.000	0.021	-0.190
-477.318	732.022	-0.129	0.345
-476.303	-109.971	-0.280	0.059
-475.289	159.641	0.116	0.162
-474.274	800.000	-0.130	-0.395
-473.259	-9.055	-0.218	-0.147
-472.245	74.278	0.272	-0.287
-471.230	800.000	-0.049	-0.213
-470.216	310.328	-0.219	-0.410
-469.201	4.759	0.063	0.046
-468.186	75.674	-0.226	0.239
-467.172	-200.000	0.008	0.192
-466.157	-14.103	0.133	-0.086
-465.143	-145.176	-0.427	0.039
-464.128	-101.714	0.246	0.060
-463.113	800.000	0.075	-0.235
-462.099	-74.463	-0.128	-0.046
-461.084	78.016	0.213	-0.228
-460.070	-43.767	-0.326	0.165
-459.055	179.443	-0.123	-0.180
-458.040	-14.857	0.089	0.058
-457.026	-133.166	0.051	-0.006
-456.011	-200.000	-0.007	0.044
-454.997	-200.000	0.027	-0.175
-453.982	-53.006	0.156	-0.072
-452.968	-183.888	-0.418	-0.007
-451.953	-158.307	0.134	-0.008
-450.938	-72.226	0.242	0.090
-449.924	429.703	0.199	0.432
-448.909	-158.553	0.436	-0.025
-447.895	27.581	-0.187	0.158
-446.880	-200.000	-0.050	0.222
-445.865	112.896	0.176	-0.214
-444.851	-96.513	-0.137	0.036
-443.836	-38.892	0.157	-0.083
-442.822	-114.943	-0.092	-0.017
-441.807	-73.405	-0.436	0.160
-440.792	-4.710	0.102	0.071
-439.778	170.029	0.152	-0.217
-438.763	692.198	-0.081	-0.212
-437.749	800.000	-0.079	-0.230
-436.734	-133.339	0.174	-0.022
-435.719	-200.000	0.059	-0.310
-434.705	-200.000	-0.039	-0.568
-433.690	59.067	-0.137	0.135
-432.676	196.071	-0.101	0.154
-431.661	70.169	0.193	-0.199
-430.646	-200.000	-0.015	-0.495
-429.632	-101.466	-0.091	0.022
-428.617	800.000	0.123	-0.430
-427.603	-145.085	0.404	-0.037
-426.588	-77.263	0.276	0.096
-425.573	28.655	0.158	0.134
-424.559	14.346	-0.146	0.114
-423.544	-143.673	-0.371	0.035
-422.530	-110.356	0.267	-0.055
-421.515	785.096	-0.109	-0.298
-420.500	-200.000	-0.012	-0.076
-419.486	-114.892	0.081	0.015
-418.471	-41.507	-0.315	-0.162
-417.457	-145.034	-0.124	0.011
-416.442	-200.000	-0.042	0.198
-415.428	-5.726	0.339	0.232
-414.413	68.196	0.073	0.075
-413.398	4.330	-0.340	-0.250
-412.384	-200.000	0.000	-0.215
-411.369	-200.000	0.059	-0.328
-410.355	-200.000	-0.049	0.357
-409.340	-32.674	-0.115	-0.064
-408.325	16.158	-0.239	-0.189
-407.311	-118.243	0.160	0.029
-406.296	15.215	0.122	-0.096
-405.282	-66.489	0.210	-0.084
-404.267	-200.000	-0.006	-0.052
-403.252	-200.000	-0.000	0.225
-402.238	-200.000	0.271	0.000
-401.223	-110.186	-0.176	0.037
-400.209	-23.362	-0.305	-0.183
-399.194	-49.325	-0.053	0.025
-398.179	178.032	-0.191	0.279
-397.165	800.000	-0.041	0.120
-396.150	-94.191	0.457	0.125
-395.136	-114.459	0.061	0.012
-394.121	800.000	0.035	-0.155
-393.106	6.262	0.190	-0.141
-392.092	-95.810	0.349	0.093
-391.077	-55.111	-0.184	0.083
-390.063	-156.423	0.101	-0.006
-389.048	-145.464	0.171	-0.015
-388.033	-200.000	0.023	-0.181
-387.019	800.000	0.063	0.197
-386.004	-26.868	-0.067	-0.039
-384.990	800.000	-0.045	-0.186
-383.975	-200.000	0.152	-0.001
-382.960	-140.979	0.329	0.034
-381.946	800.000	-0.058	-0.229
-380.931	-123.427	0.286	-0.046
-379.917	-126.413	0.270	-0.040
-378.902	70.898	-0.404	-0.418
-377.888	210.149	0.106	0.166
-376.873	-99.551	-0.239	-0.060
-375.858	-200.000	0.008	0.247
-374.844	-102.848	0.164	0.039
-373.829	52.246	-0.273	0.260
-372.815	-26.849	-0.268	-0.157
-371.800	556.899	0.218	-0.525
-370.785	800.000	0.071	-0.234
-369.771	-0.367	-0.158	-0.112
-368.756	800.000	0.056	0.219
-367.742	-124.793	0.194	-0.030
-366.727	106.631	-0.151	-0.179
-365.712	396.346	0.234	0.487
-364.698	-66.890	-0.066	-0.026
-363.683	-133.196	-0.173	0.022
-362.669	62.219	0.259	0.258
-361.654	-32.390	0.173	-0.096
-360.639	-32.604	-0.204	0.113
-359.625	-200.000	-0.029	0.183
-358.610	-200.000	0.008	0.108
-357.596	-180.088	-0.304	0.006
-356.581	55.906	-0.181	0.176
-355.566	-113.743	-0.341	0.066
-354.552	11.106	0.431	-0.329
-353.537	-200.000	-0.019	0.205
-352.523	-36.518	-0.473	0.254
-351.508	-63.444	-0.167	0.069
-350.493	-106.503	0.276	0.061
-349.479	94.305	-0.173	0.196
-348.464	-57.753	0.191	0.084
-347.450	-133.317	0.161	-0.020
-346.435	13.144	-0.162	0.126
-345.420	223.216	-0.158	0.254
-344.406	3.690	0.035	-0.025
-343.391	-114.863	-0.261	-0.050
-342.377	41.030	-0.147	0.132
-341.362	-109.903	0.318	-0.067
-340.348	-109.288	0.188	0.040
-339.333	5.499	-0.167	-0.123
-338.318	-29.771	0.227	0.129
-337.304	-200.000	0.005	0.125
-336.289	195.412	0.412	0.625
-335.275	-19.666	0.312	-0.193
-334.260	-200.000	-0.005	0.193
-333.245	-120.061	-0.093	0.016
-332.231	12.981	0.201	-0.155
-331.216	-150.147	-0.248	0.019
-330.202	-19.388	0.068	0.042
-329.187	-200.000	-0.050	0.333
-328.172	-63.400	-0.093	-0.038
-327.158	-43.997	0.265	0.133
-326.143	18.388	0.044	0.035
-325.129	-200.000	-0.007	-0.117
-324.114	-200.000	-0.035	0.233
-323.099	-12.489	0.061	-0.040
-322.085	254.756	-0.080	-0.136
-321.070	-200.000	0.003	0.223
-320.056	-200.000	-0.005	0.204
-319.041	199.474	-0.148	0.226
-318.026	298.419	-0.160	-0.293
-317.012	-200.000	-0.042	-0.286
-315.997	310.211	-0.227	-0.424
-314.983	-8.648	0.112	-0.075
-313.968	-25.051	0.076	-0.045
-312.953	-94.125	0.237	-0.065
-311.939	64.986	-0.209	0.211
-310.924	-119.755	-0.184	0.032
-309.910	-200.000	-0.001	0.140
-308.895	-200.000	-0.032	0.174
-307.880	-200.000	0.023	0.154
-306.866	-139.466	0.311	-0.033
-305.851	181.238	-0.114	-0.166
-304.837	-200.000	0.006	0.057
-303.822	27.050	0.225	0.188
-302.807	800.000	0.016	-0.060
-301.793	370.432	0.167	0.337
-300.778	-200.000	-0.028	0.261
-299.764	54.859	0.387	0.373
-298.749	128.771	0.043	-0.054
-297.735	-200.000	0.077	0.000
-296.720	15.070	-0.289	0.226
-295.705	-43.310	-0.057	0.029
-294.691	200.770	0.135	-0.206
-293.676	70.821	-0.131	-0.135
-292.662	32.943	-0.132	0.113
-291.647	-186.147	-0.035	0.001
-290.632	-4.965	-0.136	0.093
-289.618	800.000	0.060	0.235
-288.603	-77.686	0.272	0.094
-287.589	-52.224	0.087	-0.040
-286.574	25.109	-0.209	-0.173
-285.559	2.306	-0.264	-0.190
-284.545	64.473	0.237	-0.238
-283.530	-5.811	0.037	-0.025
-282.516	-9.518	0.207	0.137
-281.501	-66.927	-0.377	0.148
-280.486	222.045	-0.082	0.131
-279.472	-24.904	-0.038	-0.022
-278.457	-91.870	-0.319	0.090
-277.443	-125.313	-0.176	-0.027
-276.428	86.976	-0.166	-0.183
-275.413	-200.000	-0.008	-0.054
-274.399	-42.583	-0.137	0.069
-273.384	-28.452	-0.082	-0.047
-272.370	-200.000	-0.053	-0.319
-271.355	-42.201	-0.222	0.113
-270.340	20.874	0.177	-0.143
-269.326	33.874	-0.315	-0.273
-268.311	-110.140	-0.072	0.015
-267.297	-57.134	-0.130	0.057
-266.282	-200.000	-0.023	0.374
-265.267	-5.707	0.034	-0.023
-264.253	-101.265	0.361	0.088
-263.238	516.041	0.061	-0.143
-262.224	-142.529	0.279	0.027
-261.209	83.314	-0.022	0.024
-260.195	-200.000	0.048	0.218
-259.180	440.975	-0.115	-0.250
-258.165	-34.352	0.105	0.057
-257.151	-44.506	0.222	0.110
-256.136	38.243	-0.281	0.249
-255.122	200.571	-0.191	0.292
-254.107	-200.000	0.008	-0.540
-253.092	13.703	0.097	0.075
-252.078	800.000	0.030	0.081
-251.063	428.877	-0.085	-0.182
-250.049	113.949	0.173	-0.209
-249.034	-200.000	0.057	-0.392
-248.019	92.973	-0.031	0.034
-247.005	800.000	0.014	0.051
-245.990	268.893	-0.057	0.100
-244.976	-12.643	0.173	-0.112
-243.961	50.897	-0.070	-0.066
-242.946	-104.905	0.086	-0.020
-241.932	-120.621	0.291	-0.049
-240.917	375.736	0.157	0.318
-239.903	-44.522	0.200	-0.100
-238.888	671.124	0.074	0.190
-237.873	-65.380	0.282	0.113
-236.859	-120.952	-0.309	-0.052
-235.844	-117.337	-0.637	-0.115
-234.830	-200.000	0.051	0.410
-233.815	58.260	0.193	-0.188
-232.800	-142.729	0.133	-0.013
-231.786	36.745	-0.121	-0.106
-230.771	800.000	-0.086	0.297
-229.757	800.000	-0.064	-0.237
-228.742	800.000	0.013	-0.044
-227.727	-82.561	0.085	-0.027
-226.713	800.000	-0.022	-0.083
-225.698	-22.126	0.224	0.135
-224.684	-109.905	-0.234	-0.049
-223.669	605.159	0.117	0.288
-222.655	-200.000	-0.044	0.243
-221.640	800.000	-0.029	-0.120
-220.625	-35.610	-0.237	0.128
-219.611	-47.267	0.191	-0.093
-218.596	-117.892	0.202	-0.036
-217.582	-18.767	0.196	-0.122
-216.567	176.351	0.157	0.226
-215.552	800.000	-0.044	-0.137
-214.538	-82.286	-0.331	0.107
-213.523	29.981	-0.185	-0.157
-212.509	-200.000	0.022	-0.107
-211.494	223.470	0.310	-0.496
-210.479	-9.571	-0.140	-0.093
-209.465	81.423	-0.143	0.153
-208.450	-200.000	0.012	0.097
-207.436	-153.867	0.246	-0.017
-206.421	800.000	0.056	-0.234
-205.406	800.000	-0.023	0.071
-204.392	641.535	-0.063	-0.160
-203.377	102.176	0.091	0.105
-202.363	-89.329	0.263	0.077
-201.348	-200.000	-0.018	0.279
-200.333	800.000	0.056	0.196
-199.319	800.000	0.030	0.088
-198.304	-11.124	-0.217	0.142
-197.290	459.574	-0.093	0.206
-196.275	117.589	0.200	0.244
-195.260	-200.000	0.070	0.505
-194.246	-49.403	0.098	0.047
-193.231	120.382	0.139	-0.171
-192.217	-64.457	0.232	0.094
-191.202	142.947	-0.188	0.248
-190.187	-69.099	-0.074	0.028
-189.173	-11.152	-0.299	0.195
-188.158	203.996	-0.147	0.226
-187.144	-74.741	-0.146	0.052
-186.129	279.441	-0.052	0.092
-185.114	279.946	-0.020	-0.036
-184.100	-200.000	0.017	0.322
-183.085	74.523	0.078	-0.081
-182.071	-44.575	-0.045	-0.023
-181.056	-17.161	0.258	0.162
-180.042	-96.690	-0.434	-0.113
-179.027	-81.904	-0.228	0.074
-178.012	-200.000	0.091	0.412
-176.998	-112.658	-0.186	-0.037
-175.983	800.000	0.071	-0.243
-174.969	42.425	-0.267	0.240
-173.954	5.342	0.266	0.195
-172.939	60.745	-0.031	0.030
-171.925	-149.213	-0.085	0.007
-170.910	206.634	0.004	0.006
-169.896	-112.991	0.359	-0.070
-168.881	198.010	-0.203	-0.308
-167.866	-179.830	-0.137	-0.003
-166.852	-200.000	0.030	0.199
-165.837	731.725	0.060	0.158
-164.823	800.000	-0.101	-0.319
-163.808	80.380	-0.188	-0.200
-162.793	-200.000	0.009	0.139
-161.779	-200.000	0.016	-0.081
-160.764	-109.362	-0.208	-0.044
-159.750	-65.534	0.211	-0.084
-158.735	266.588	0.070	0.121
-157.720	204.344	0.110	0.169
-156.706	-49.723	0.359	-0.169
-155.691	659.777	0.086	-0.218
-154.677	43.770	-0.085	-0.077
-153.662	-200.000	-0.069	-0.402
-152.647	227.122	-0.198	-0.318
-151.633	-20.816	0.085	0.052
-150.618	-54.998	0.508	-0.227
-149.604	262.635	0.081	0.140
-148.589	277.192	0.149	0.263
-147.574	-74.473	0.081	0.029
-146.560	6.014	0.277	0.203
-145.545	-200.000	-0.039	0.228
-144.531	286.473	0.039	0.070
-143.516	205.627	-0.041	-0.063
-142.502	-200.000	0.040	0.202
-141.487	-137.003	-0.238	-0.027
-140.472	-164.509	0.054	0.002
-139.458	34.657	-0.152	-0.132
-138.443	-3.112	-0.231	-0.160
-137.429	-153.978	0.111	-0.008
-136.414	-2.401	-0.216	0.150
-135.399	85.195	-0.134	0.145
-134.385	415.456	0.135	0.285
-133.370	600.232	-0.081	0.198
-132.356	-200.000	-0.008	-0.078
-131.341	169.438	-0.298	0.422
-130.326	106.096	-0.236	-0.277
-129.312	104.705	0.154	-0.179
-128.297	-200.000	0.064	0.355
-127.283	46.059	-0.182	0.166
-126.268	-1.537	-0.284	-0.198
-125.253	57.638	0.067	0.065
-124.239	800.000	-0.120	0.516
-123.224	-88.370	0.307	-0.091
-122.210	-200.000	0.010	-0.292
-121.195	-200.000	0.020	0.265
-120.180	87.312	0.164	0.180
-119.166	800.000	0.045	0.142
-118.151	-64.826	0.186	0.074
-117.137	-200.000	-0.015	0.228
-116.122	-154.755	-0.485	0.032
-115.107	-200.000	0.333	-0.000
-114.093	701.194	0.150	-0.392
-113.078	174.585	0.056	0.079
-112.064	-74.007	0.148	-0.053
-111.049	3.856	-0.204	0.147
-110.034	42.548	-0.520	0.468
-109.020	56.298	0.220	0.211
-108.005	-43.661	-0.434	0.217
-106.991	219.688	-0.163	0.258
-105.976	51.617	-0.207	0.195
-104.962	-200.000	-0.013	-0.115
-103.947	-200.000	0.016	0.129
-102.932	0.767	0.029	-0.021
-101.918	299.679	-0.058	0.105
-100.903	-49.448	-0.202	0.095
-99.889	800.000	0.035	0.110
-98.874	102.405	0.128	0.148
-97.859	127.703	0.158	0.199
-96.845	25.022	-0.059	-0.048
-95.830	-200.000	0.010	0.213
-94.816	-200.000	0.003	-0.085
-93.801	632.926	-0.116	0.291
-92.786	-137.119	0.197	-0.022
-91.772	165.033	-0.113	-0.158
-90.757	-145.419	-0.121	-0.011
-89.743	268.682	0.102	0.177
-88.728	347.502	-0.078	-0.151
-87.713	380.318	-0.056	-0.112
-86.699	-118.033	0.253	-0.045
-85.684	-156.795	0.163	-0.010
-84.670	226.589	0.087	0.139
-83.655	-38.249	0.243	-0.127
-82.640	-8.268	-0.156	0.104
-81.626	-200.000	-0.009	0.127
-80.611	658.856	0.075	-0.191
-79.597	187.386	-0.083	-0.122
-78.582	63.607	0.228	0.226
-77.567	-200.000	-0.048	-0.286
-76.553	-17.610	-0.094	-0.058
-75.538	-102.378	-0.298	-0.071
-74.524	-75.867	-0.225	-0.079
-73.509	-105.735	-0.161	-0.036
-72.494	-179.153	0.359	0.008
-71.480	800.000	0.084	-0.284
-70.465	92.412	-0.162	0.180
-69.451	146.399	0.121	0.160
-68.436	381.981	-0.042	-0.084
-67.422	228.296	0.150	-0.240
-66.407	-200.000	-0.025	0.255
-65.392	135.377	0.128	0.164
-64.378	318.442	-0.125	-0.235
-63.363	-75.874	0.118	0.041
-62.349	284.086	0.108	0.192
-61.334	77.800	-0.795	-0.836
-60.319	-7.666	0.351	0.235
-59.305	-200.000	-0.188	-1.009
-58.290	491.570	0.462	1.044
-57.276	233.048	0.908	1.474
-56.261	-200.000	96.147	543.706
-55.246	488.951	1434.675	3235.142
-54.232	143.671	2660.282	3497.897
-53.217	107.801	2248.862	2643.279
-52.203	43.803	1769.262	1598.565
-51.188	36.748	1577.824	1375.625
-50.173	34.475	1550.406	1335.772
-49.159	51.947	1599.969	1503.244
-48.144	54.448	1619.339	1539.219
-47.130	37.157	1575.216	1376.034
-46.115	34.090	1559.461	1340.641
-45.100	33.842	1556.411	1336.227
-44.086	33.791	1554.586	1334.246
-43.071	33.832	1552.680	1332.847
-42.057	33.746	1551.219	1330.934
-41.042	33.769	1549.051	1329.181
-40.027	33.793	1548.125	1328.506
-39.013	33.796	1546.752	1327.292
-37.998	33.745	1545.379	1325.704
-36.984	33.730	1544.413	1324.719
-35.969	33.718	1542.734	1323.142
-34.954	33.756	1541.089	1321.946
-33.940	33.757	1539.640	1320.657
-32.925	33.772	1538.208	1319.478
-31.911	33.738	1537.232	1318.356
-30.896	33.804	1535.947	1317.661
-29.881	33.872	1534.215	1316.595
-28.867	33.861	1532.956	1315.381
-27.852	33.805	1531.930	1314.066
-26.838	33.765	1530.606	1312.596
-25.823	33.827	1528.527	1311.192
-24.809	33.794	1526.968	1309.574
-23.794	33.739	1525.989	1308.302
-22.779	33.729	1524.391	1306.816
-21.765	33.786	1522.824	1305.812
-20.750	33.763	1522.182	1305.047
-19.736	33.777	1520.442	1303.604
-18.721	33.823	1519.289	1302.876
-17.706	33.687	1518.954	1301.606
-16.692	33.799	1517.230	1300.844
-15.677	33.786	1516.306	1299.912
-14.663	33.738	1515.632	1298.951
-13.648	33.665	1514.826	1297.713
-12.633	33.663	1514.056	1296.983
-11.619	33.751	1512.740	1296.411
-10.604	33.700	1511.636	1295.063
-9.590	33.658	1510.960	1294.147
-8.575	33.737	1510.501	1294.242
-7.560	33.780	1509.526	1293.649
-6.546	33.752	1508.394	1292.436
-5.531	33.673	1507.561	1291.129
-4.517	33.660	1506.581	1290.156
-3.502	33.615	1506.177	1289.447
-2.487	33.668	1504.708	1288.504
-1.473	33.713	1503.329	1287.571
-0.458	33.774	1501.867	1286.685
0.556	32.730	1492.956	1277.968
1.571	30.207	1466.947	1238.765
2.586	26.808	1402.796	1162.732
3.600	24.543	1315.987	1077.043
4.615	22.216	1267.645	1023.849
5.629	18.807	1208.836	957.301
6.644	9.529	1119.447	838.339
7.659	1.946	1075.180	767.087
8.673	0.781	1069.285	756.985
9.688	0.575	1066.361	753.819
10.702	0.499	1064.758	752.237
11.717	0.505	1063.133	751.056
12.731	3.251	1066.157	766.814
13.746	11.695	1078.050	817.677
14.761	17.401	1084.902	851.441
15.775	17.498	1084.080	851.206
16.790	16.803	1082.010	846.034
17.804	15.914	1079.575	839.623
18.819	14.886	1078.109	833.288
19.834	14.559	1076.417	830.278
20.848	14.176	1075.354	827.482
21.863	13.895	1074.642	825.464
22.877	13.630	1073.833	823.452
23.892	13.522	1072.617	821.915
24.907	13.345	1072.165	820.617
25.921	13.355	1071.276	819.910
26.936	13.382	1070.932	819.712
27.950	13.411	1070.070	819.123
28.965	13.428	1069.280	818.527
29.980	13.478	1068.537	818.136
30.994	13.536	1066.884	817.081
32.009	13.557	1066.356	816.709
33.023	13.412	1066.003	815.653
34.038	13.680	1064.764	815.952
35.053	13.644	1063.812	814.975
36.067	13.556	1062.651	813.579
37.082	13.515	1062.217	812.970
38.096	13.611	1061.444	812.779
39.111	13.501	1061.186	811.971
40.126	13.646	1059.499	811.317
41.140	13.554	1058.564	810.083
42.155	13.486	1057.124	808.576
43.169	13.335	1057.075	807.726
44.184	13.260	1056.001	806.472
45.199	13.358	1054.254	805.543
46.213	13.388	1053.991	805.418
47.228	13.359	1052.978	804.432
48.242	13.399	1051.980	803.790
49.257	13.420	1050.774	802.898
50.271	13.432	1049.426	801.858
51.286	13.459	1048.778	801.423
52.301	13.567	1047.671	801.026
53.315	13.475	1047.809	800.618
54.330	13.540	1046.215	799.643
55.344	13.419	1045.877	798.727
56.359	13.374	1044.765	797.591
57.374	13.450	1043.707	797.078
58.388	13.422	1042.931	796.283
59.403	13.356	1042.032	795.207
60.417	13.401	1041.300	794.794
61.432	13.400	1040.765	794.311
62.447	13.382	1039.566	793.241
63.461	13.351	1039.189	792.735
64.476	13.230	1038.376	791.466
65.490	13.227	1037.525	790.731
66.505	13.376	1036.291	790.434
67.520	13.317	1035.585	789.542
68.534	13.300	1035.102	789.021
69.549	13.488	1033.530	788.651
70.563	13.449	1033.262	788.189
71.578	13.426	1032.722	787.598
72.593	13.401	1031.412	786.411
73.607	13.263	1030.991	785.366
74.622	13.275	1029.962	784.569
75.636	13.272	1028.776	783.581
76.651	13.208	1028.222	782.787
77.666	13.183	1027.656	782.171
78.680	13.197	1027.061	781.713
79.695	13.318	1025.939	781.362
80.709	13.256	1025.756	780.860
81.724	13.349	1024.399	780.198
82.739	13.191	1023.871	778.982
83.753	13.354	1023.162	779.140
84.768	13.461	1022.278	778.901
85.782	13.453	1021.422	778.146
86.797	13.508	1020.327	777.498
87.812	13.516	1019.787	777.055
88.826	13.322	1019.582	775.920
89.841	13.487	1017.950	775.382
90.855	13.415	1017.558	774.678
91.870	13.412	1016.798	774.019
92.884	13.444	1016.177	773.626
93.899	13.541	1015.797	773.723
94.914	13.578	1014.522	772.854
95.928	13.534	1013.925	772.126
96.943	13.576	1012.844	771.430
97.957	13.513	1012.209	770.584
98.972	13.559	1010.948	769.771
99.987	13.426	1010.719	768.910
101.001	13.596	1009.425	768.646
102.016	13.535	1008.974	767.951
103.030	13.494	1008.266	767.155
104.045	13.636	1006.804	766.631
105.060	13.523	1006.145	765.539
106.074	13.534	1004.968	764.629
107.089	13.519	1004.404	764.059
108.103	13.445	1003.896	763.268
109.118	13.381	1002.708	762.003
110.133	13.450	1001.928	761.659
111.147	13.390	1001.222	760.779
112.162	13.357	1000.285	759.848
113.176	13.431	999.297	759.370
114.191	13.554	998.395	759.179
115.206	13.358	997.632	757.638
116.220	13.383	996.615	756.909
117.235	13.416	996.072	756.584
118.249	13.471	995.098	756.028
119.264	13.474	993.771	754.966
120.279	13.528	992.954	754.524
121.293	13.362	992.714	753.519
122.308	13.378	991.539	752.633
123.322	13.337	990.761	751.787
124.337	13.424	989.335	751.036
125.352	13.376	988.522	750.135
126.366	13.451	987.391	749.549
127.381	13.370	986.306	748.293
128.395	13.461	985.558	748.072
129.410	13.443	984.075	746.797
130.424	13.438	983.530	746.295
131.439	13.569	982.502	746.041
132.454	13.437	981.868	744.897
133.468	13.605	981.021	744.943
134.483	13.558	980.404	744.200
135.497	13.436	979.894	743.197
136.512	13.624	978.913	743.233
137.527	13.444	978.620	742.135
138.541	13.469	977.497	741.329
139.556	13.604	976.205	740.891
140.570	13.578	975.714	740.336
141.585	13.424	975.094	739.111
142.600	13.558	974.261	739.013
143.614	13.586	973.430	738.440
144.629	13.509	973.205	737.865
145.643	13.789	972.097	738.202
146.658	13.647	971.472	737.032
147.673	13.654	970.491	736.255
148.687	13.619	969.631	735.380
149.702	13.631	968.419	734.448
150.716	13.553	967.800	733.571
151.731	13.670	966.440	732.990
152.746	13.571	965.805	732.006
153.760	13.584	965.212	731.551
154.775	13.629	964.272	730.970
155.789	13.613	963.756	730.444
156.804	13.736	962.955	730.314
157.819	13.713	961.898	729.347
158.833	13.731	961.544	729.093
159.848	13.777	960.894	728.740
160.862	13.707	960.427	728.013
161.877	13.743	959.175	727.155
162.892	13.683	958.895	726.616
163.906	13.692	957.566	725.584
164.921	13.648	957.014	724.911
165.935	13.649	956.095	724.155
166.950	13.644	955.073	723.296
167.964	13.668	953.889	722.437
168.979	13.648	953.214	721.777
169.994	13.658	952.088	720.904
171.008	13.752	951.057	720.469
172.023	13.746	950.659	720.075
173.037	13.779	949.720	719.444
174.052	13.777	949.284	719.042
175.067	13.834	948.588	718.698
176.081	13.758	947.578	717.540
177.096	13.770	946.492	716.708
178.110	13.732	945.749	715.915
179.125	13.750	944.998	715.365
180.140	13.880	944.335	715.357
181.154	13.936	943.438	714.854
182.169	13.956	942.860	714.441
183.183	13.869	942.419	713.668
184.198	13.975	941.699	713.514
185.213	13.975	940.389	712.459
186.227	14.002	940.060	712.265
187.242	13.989	939.573	711.778
188.256	14.064	938.928	711.547
189.271	13.970	937.909	710.309
190.286	14.094	937.262	710.285
191.300	13.913	936.727	709.043
192.315	13.949	935.919	708.522
193.329	13.869	935.185	707.562
194.344	13.822	934.824	707.030
195.359	13.955	933.775	706.737
196.373	13.974	932.929	706.116
197.388	13.960	933.283	706.261
198.402	13.928	932.599	705.546
199.417	14.072	931.768	705.467
200.432	14.135	931.318	705.328
201.446	14.167	930.986	705.152
202.461	14.191	930.660	704.944
203.475	14.292	930.022	704.826
204.490	14.237	929.296	703.981
205.504	14.148	928.071	702.613
206.519	14.242	927.589	702.586
207.534	14.117	927.127	701.646
208.548	14.219	926.387	701.452
209.563	14.277	925.082	700.645
210.577	14.304	924.662	700.378
211.592	14.251	924.017	699.606
212.607	14.260	923.762	699.390
213.621	14.364	922.972	699.168
214.636	14.363	922.339	698.620
215.650	14.406	921.409	698.036
216.665	14.303	920.864	697.130
217.680	14.375	920.126	696.809
218.694	14.459	920.038	697.032
219.709	14.432	919.241	696.255
220.723	14.297	918.866	695.346
221.738	14.542	917.827	695.518
222.753	14.344	917.614	694.469
223.767	14.477	916.298	693.968
224.782	14.525	915.531	693.526
225.796	14.374	915.090	692.499
226.811	14.583	914.530	692.883
227.826	14.651	913.726	692.497
228.840	14.499	913.055	691.295
229.855	14.478	912.208	690.506
230.869	14.636	911.638	690.666
231.884	14.543	911.383	690.029
232.899	14.534	909.902	688.809
233.913	14.611	909.470	688.740
234.928	14.499	909.119	687.950
235.942	14.464	908.281	687.111
236.957	14.611	907.069	686.736
237.972	14.545	906.735	686.151
238.986	14.506	906.437	685.708
240.001	14.615	905.470	685.363
241.015	14.616	904.512	684.582
242.030	14.609	904.219	684.270
243.045	14.677	903.394	683.862
244.059	14.859	902.868	684.147
245.074	14.710	902.229	682.994
246.088	14.638	901.658	682.207
247.103	14.772	900.961	682.167
248.117	14.704	900.716	681.644
249.132	14.754	899.941	681.203
250.147	14.871	899.153	681.020
251.161	14.941	898.439	680.705
252.176	14.858	897.735	679.772
253.190	14.932	897.233	679.635
254.205	15.028	896.561	679.456
255.220	15.015	895.992	678.910
256.234	14.983	895.434	678.300
257.249	15.001	894.657	677.723
258.263	15.149	893.753	677.575
259.278	15.019	893.550	676.837
260.293	15.025	893.311	676.619
261.307	15.247	892.066	676.515
262.322	15.113	892.119	675.952
263.336	15.070	891.827	675.499
264.351	15.249	890.879	675.444
265.366	15.292	890.046	674.926
266.380	15.274	889.314	674.237
267.395	15.246	888.768	673.650
268.409	15.164	887.843	672.559
269.424	15.315	887.129	672.565
270.439	15.243	886.540	671.770
271.453	15.175	885.617	670.741
272.468	15.323	885.123	670.897
273.482	15.236	884.648	670.131
274.497	15.297	883.789	669.667
275.512	15.324	882.822	668.981
276.526	15.246	882.619	668.458
277.541	15.287	881.871	667.995
278.555	15.440	880.956	667.852
279.570	15.250	880.888	666.983
280.585	15.393	880.036	666.850
281.599	15.431	879.965	666.888
282.614	15.452	879.100	666.256
283.628	15.424	878.227	665.423
284.643	15.537	878.010	665.647
285.657	15.503	877.349	664.954
286.672	15.560	876.894	664.775
287.687	15.565	875.994	664.054
288.701	15.539	875.782	663.732
289.716	15.445	875.065	662.759
290.730	15.683	874.197	662.981
291.745	15.724	873.487	662.545
292.760	15.609	873.096	661.736
293.774	15.574	872.579	661.149
294.789	15.519	872.053	660.476
295.803	15.695	871.299	660.539
296.818	15.581	870.801	659.654
297.833	15.744	869.789	659.470
298.847	15.664	869.468	658.855
299.862	15.930	868.215	658.889
300.876	15.761	867.797	657.850
301.891	15.679	867.555	657.286
302.906	15.659	866.798	656.581
303.920	15.782	866.325	656.644
304.935	15.796	865.576	656.070
305.949	15.882	864.776	655.742
306.964	15.974	864.060	655.497
307.979	15.898	863.661	654.843
308.993	15.821	863.155	654.102
310.008	15.895	862.797	654.060
311.022	15.855	862.047	653.277
312.037	15.903	861.571	653.047
313.052	15.866	861.128	652.510
314.066	15.983	860.377	652.336
315.081	15.908	859.544	651.357
316.095	15.932	859.270	651.185
317.110	15.921	858.834	650.753
318.125	15.810	858.111	649.717
319.139	15.978	857.563	649.896
320.154	15.967	856.892	649.287
321.168	15.902	856.764	648.882
322.183	15.947	856.453	648.763
323.197	16.173	855.336	648.726
324.212	16.018	854.839	647.696
325.227	16.064	854.289	647.400
326.241	16.070	853.700	646.919
327.256	15.954	853.159	646.009
328.270	16.067	852.174	645.637
329.285	16.062	852.022	645.445
330.300	15.982	851.401	644.612
331.314	16.163	850.752	644.756
332.329	16.120	850.149	644.076
333.343	16.162	849.246	643.495
334.358	16.148	848.945	643.160
335.373	16.194	848.116	642.650
336.387	16.290	847.789	642.708
337.402	16.113	847.532	641.785
338.416	16.207	846.678	641.436
339.431	16.371	846.080	641.550
340.446	16.289	845.498	640.741
341.460	16.398	844.854	640.611
342.475	16.328	844.274	639.850
343.489	16.206	843.756	638.938
344.504	16.444	842.785	639.045
345.519	16.518	842.688	639.195
346.533	16.467	842.128	638.522
347.548	16.601	841.632	638.594
348.562	16.506	840.631	637.420
349.577	16.445	840.741	637.218
350.592	16.429	840.185	636.681
351.606	16.349	840.001	636.183
352.621	16.314	839.363	635.510
353.635	16.367	839.098	635.453
354.650	16.346	838.648	634.978
355.665	16.473	838.055	634.950
356.679	16.391	837.393	634.084
357.694	16.538	836.775	634.110
358.708	16.453	836.261	633.348
359.723	16.572	835.544	633.195
360.738	16.543	835.006	632.620
361.752	16.738	834.204	632.688
362.767	16.519	834.216	631.820
363.781	16.662	833.752	631.948
364.796	16.583	833.514	631.415
365.810	16.703	832.567	631.089
366.825	16.677	832.489	630.880
367.840	16.818	832.004	630.981
368.854	16.839	831.466	630.595
369.869	16.941	831.228	630.739
370.883	16.813	830.448	629.616
371.898	16.806	830.191	629.338
372.913	16.729	829.730	628.649
373.927	16.820	828.551	628.034
374.942	16.755	828.359	627.595
375.956	16.833	827.850	627.439
376.971	17.051	826.843	627.430
377.986	16.918	826.405	626.547
379.000	16.948	826.256	626.490
380.015	16.952	825.778	626.089
381.029	16.966	824.887	625.410
382.044	16.970	824.524	625.094
383.059	17.031	823.654	624.601
384.073	17.089	823.150	624.378
385.088	17.013	822.908	623.859
386.102	16.947	822.246	623.062
387.117	16.919	821.749	622.526
388.132	17.010	821.434	622.567
389.146	16.960	820.945	621.959
390.161	17.215	820.309	622.357
391.175	17.052	819.906	621.398
392.190	17.177	819.401	621.416
393.205	17.247	819.388	621.607
394.219	17.148	818.489	620.508
395.234	17.093	818.487	620.253
396.248	17.022	817.783	619.403
397.263	17.111	817.121	619.173
398.278	17.126	816.869	618.982
399.292	17.154	816.233	618.549
400.307	17.232	815.849	618.486
401.321	17.094	815.482	617.650
402.336	17.225	815.022	617.723
403.350	17.336	814.302	617.525
404.365	17.314	814.314	617.399
405.380	17.170	813.668	616.334
406.394	17.232	813.129	616.095
407.409	17.443	812.605	616.408
408.423	17.402	812.037	615.774
409.438	17.373	811.992	615.580
410.453	17.377	811.490	615.160
411.467	17.440	810.811	614.819
412.482	17.491	810.826	614.959
413.496	17.590	809.785	614.473
414.511	17.626	809.722	614.500
415.526	17.658	809.067	614.066
416.540	17.562	808.969	613.592
417.555	17.665	808.440	613.505
418.569	17.584	808.047	612.861
419.584	17.480	807.297	611.865
420.599	17.567	807.199	612.048
421.613	105.576	1286.172	1449.866
422.628	90.943	1355.952	1449.991
