DTS Sentinel unit serial number:	SN413079Multiplexer serial number:	ORYXHardware model number:	OX4-SRSoftware version number:	ORYX F/W v4.00 Oryx Data Collector v3.7.2.0data status	okinstallation	princeton_trtdifferential loss correction	single-endedforward channel	channel 3reverse channel	N/Adate	2019/09/18time	02:08:34forward acquisition time	60.00reverse acquisition time	0.00gamma	496.2192k internal	0.2344k external	0.2344temperature offset calibration	0.9951default loss term (dB/km)	0.3790temperature slope calibration	1.0000multiplexer offset coefficient	1.0000multiplexer slope coefficient	1.0000fibre end	0.00T internal ref (°C)	22.87T ext. ref 1 (°C)	0.17T ext. ref 2 (°C)	16.68length (m)	temperature (°C)	Stokes	anti-Stokes-747.200	81.474	0.085	0.092
-746.185	800.000	0.048	0.133
-745.171	-96.190	0.347	0.092
-744.156	220.205	0.128	0.205
-743.142	800.000	-0.025	0.084
-742.127	-137.312	-0.152	0.017
-741.112	-200.000	0.012	0.128
-740.098	192.819	0.074	0.112
-739.083	-200.000	0.013	0.141
-738.069	-85.934	-0.115	-0.036
-737.054	103.386	-0.062	0.073
-736.039	139.822	-0.296	-0.391
-735.025	-64.983	0.219	0.089
-734.010	-141.345	0.307	-0.031
-732.996	-182.400	-0.434	0.008
-731.981	61.639	0.122	0.121
-730.966	-200.000	-0.011	0.063
-729.952	-200.000	0.013	-0.104
-728.937	-153.145	-0.334	0.023
-727.923	13.375	-0.099	0.077
-726.908	183.045	-0.112	0.165
-725.894	-181.099	0.130	-0.003
-724.879	-141.192	-0.313	0.032
-723.864	-200.000	-0.059	0.295
-722.850	447.813	0.051	0.113
-721.835	-121.181	0.245	-0.041
-720.821	-40.014	-0.280	0.146
-719.806	78.678	-0.190	-0.204
-718.791	-130.276	0.074	-0.010
-717.777	-155.607	0.140	-0.009
-716.762	-113.721	0.088	-0.017
-715.748	371.054	0.104	-0.212
-714.733	-64.597	-0.197	-0.080
-713.718	-200.000	0.005	-0.092
-712.704	-105.284	-0.220	-0.050
-711.689	-200.000	0.010	-0.163
-710.675	266.207	-0.140	-0.245
-709.660	191.810	-0.183	0.276
-708.645	55.995	-0.289	-0.281
-707.631	203.782	0.285	0.441
-706.616	37.753	0.139	0.124
-705.602	-20.607	0.168	-0.103
-704.587	-53.488	0.283	-0.129
-703.572	-158.573	-0.287	0.017
-702.558	-93.100	0.374	0.104
-701.543	800.000	-0.136	-0.401
-700.529	-108.066	-0.212	0.046
-699.514	-200.000	0.032	-0.146
-698.499	-200.000	-0.003	0.092
-697.485	44.318	0.062	-0.057
-696.470	-200.000	-0.073	-0.386
-695.456	-44.542	0.366	-0.183
-694.441	487.789	0.110	0.252
-693.426	13.681	-0.269	-0.209
-692.412	52.312	0.087	0.083
-691.397	-121.541	-0.216	-0.036
-690.383	590.427	-0.111	-0.273
-689.368	-200.000	-0.006	-0.157
-688.354	-200.000	-0.064	0.360
-687.339	71.109	0.107	-0.111
-686.324	95.817	0.140	0.160
-685.310	-109.735	0.205	0.043
-684.295	-48.894	0.134	0.064
-683.281	105.606	0.144	0.170
-682.266	-32.778	0.223	0.124
-681.251	310.855	0.131	0.245
-680.237	370.247	0.022	0.045
-679.222	-89.817	-0.122	-0.036
-678.208	800.000	0.037	-0.122
-677.193	104.663	-0.075	-0.088
-676.178	800.000	-0.045	-0.142
-675.164	-200.000	0.004	-0.201
-674.149	10.324	-0.063	-0.048
-673.135	369.093	-0.237	-0.479
-672.120	-96.084	-0.145	-0.038
-671.105	132.459	-0.199	-0.256
-670.091	-115.722	0.144	0.027
-669.076	800.000	-0.063	-0.199
-668.062	307.618	0.058	0.108
-667.047	800.000	0.023	0.068
-666.032	-119.372	-0.361	0.063
-665.018	-200.000	0.009	-0.071
-664.003	16.803	0.313	-0.247
-662.989	-11.524	0.113	-0.074
-661.974	28.593	0.102	0.086
-660.959	402.078	0.140	-0.293
-659.945	93.617	-0.248	0.280
-658.930	800.000	-0.085	0.263
-657.916	-200.000	-0.017	-0.426
-656.901	-117.950	-0.277	0.049
-655.886	160.979	-0.122	-0.170
-654.872	229.343	-0.113	0.184
-653.857	-53.720	-0.249	0.113
-652.843	34.834	0.238	-0.207
-651.828	70.469	-0.067	0.069
-650.814	-55.332	0.159	0.071
-649.799	-109.599	0.049	-0.010
-648.784	-153.121	0.130	0.009
-647.770	-110.024	0.245	0.051
-646.755	-106.541	-0.194	0.043
-645.741	-97.178	0.160	-0.042
-644.726	146.776	-0.180	0.241
-643.711	-161.600	-0.337	0.017
-642.697	-75.578	0.327	0.116
-641.682	-200.000	-0.049	-0.257
-640.668	-105.208	-0.298	-0.068
-639.653	800.000	-0.050	0.147
-638.638	4.001	0.034	0.025
-637.624	-200.000	-0.002	0.222
-636.609	62.031	0.082	-0.081
-635.595	-187.748	0.069	0.001
-634.580	107.558	-0.193	0.229
-633.565	-200.000	0.016	-0.348
-632.551	-200.000	-0.000	0.334
-631.536	-55.716	0.138	0.062
-630.522	-200.000	-0.036	-0.261
-629.507	311.202	0.166	-0.310
-628.492	-102.649	0.260	0.062
-627.478	0.822	-0.166	-0.119
-626.463	437.938	-0.078	0.170
-625.449	-200.000	0.005	0.207
-624.434	-200.000	0.030	-0.162
-623.419	-200.000	0.035	0.333
-622.405	680.368	-0.147	-0.380
-621.390	677.649	0.055	0.142
-620.376	-200.000	0.007	-0.227
-619.361	800.000	-0.047	0.142
-618.346	38.168	0.121	-0.107
-617.332	-200.000	-0.067	-0.394
-616.317	-111.807	0.317	0.064
-615.303	-200.000	-0.087	0.452
-614.288	94.714	-0.028	0.031
-613.273	22.663	0.067	-0.055
-612.259	239.567	-0.137	0.227
-611.244	34.610	-0.280	0.244
-610.230	800.000	0.150	-0.537
-609.215	-200.000	0.034	-0.360
-608.201	-200.000	0.042	-0.376
-607.186	410.516	-0.125	-0.265
-606.171	246.789	0.121	-0.204
-605.157	-200.000	0.013	0.113
-604.142	-200.000	0.013	-0.190
-603.128	-33.958	-0.410	0.225
-602.113	-17.494	-0.347	0.217
-601.098	244.499	0.129	-0.215
-600.084	-200.000	-0.024	0.138
-599.069	508.014	-0.070	0.161
-598.055	-200.000	-0.277	0.001
-597.040	-68.566	0.207	-0.080
-596.025	226.061	0.191	0.307
-595.011	-96.543	0.242	-0.064
-593.996	800.000	-0.078	-0.234
-592.982	-14.907	-0.117	-0.075
-591.967	800.000	-0.116	0.330
-590.952	255.542	0.056	-0.096
-589.938	12.155	0.089	0.068
-588.923	555.673	-0.109	-0.260
-587.909	14.744	-0.170	0.132
-586.894	307.268	-0.148	0.274
-585.879	58.926	-0.291	-0.284
-584.865	189.282	-0.178	-0.265
-583.850	71.655	0.260	-0.269
-582.836	-103.474	0.386	-0.090
-581.821	-22.420	-0.366	-0.220
-580.806	-200.000	-0.020	0.102
-579.792	472.462	-0.142	-0.317
-578.777	800.000	0.092	-0.274
-577.763	800.000	0.050	-0.206
-576.748	800.000	-0.039	-0.112
-575.733	-90.036	0.218	-0.063
-574.719	-135.482	-0.128	-0.015
-573.704	-200.000	0.015	0.423
-572.690	-200.000	-0.025	0.431
-571.675	23.401	0.058	0.048
-570.661	-80.175	-0.146	-0.048
-569.646	37.514	-0.205	0.181
-568.631	-35.678	-0.167	-0.090
-567.617	-200.000	0.009	-0.347
-566.602	-200.000	-0.004	-0.347
-565.588	10.950	0.154	0.117
-564.573	191.059	-0.070	-0.105
-563.558	800.000	0.096	-0.289
-562.544	-76.047	0.227	-0.080
-561.529	100.894	0.014	0.016
-560.515	-9.190	0.233	-0.155
-559.500	-135.927	0.183	-0.021
-558.485	109.914	0.224	0.267
-557.471	-200.000	-0.001	0.280
-556.456	-14.481	0.215	0.137
-555.442	714.187	-0.044	0.115
-554.427	-200.000	-0.010	-0.405
-553.412	305.493	-0.188	0.348
-552.398	8.999	0.152	0.114
-551.383	-178.959	-0.129	0.003
-550.369	218.767	0.178	-0.282
-549.354	315.893	-0.091	-0.170
-548.339	-200.000	0.014	-0.244
-547.325	-23.076	0.239	-0.143
-546.310	571.308	-0.142	-0.344
-545.296	-200.000	0.035	0.250
-544.281	-200.000	-0.024	0.221
-543.266	800.000	0.009	-0.038
-542.252	-141.468	0.130	0.013
-541.237	109.361	-0.103	0.123
-540.223	-12.594	-0.230	0.149
-539.208	800.000	0.044	0.177
-538.193	-106.629	-0.195	-0.043
-537.179	484.155	0.094	-0.211
-536.164	-168.101	0.377	0.015
-535.150	-103.887	-0.134	-0.031
-534.135	-200.000	0.009	-0.122
-533.121	312.313	-0.107	0.199
-532.106	800.000	0.070	0.237
-531.091	647.965	-0.151	-0.382
-530.077	-200.000	0.007	-0.098
-529.062	-200.000	-0.015	0.150
-528.048	-52.508	-0.187	0.086
-527.033	-36.323	-0.234	0.125
-526.018	-200.000	-0.004	0.030
-525.004	459.631	0.230	-0.507
-523.989	-19.512	0.185	0.114
-522.975	-48.352	-0.064	0.031
-521.960	-38.932	-0.277	0.145
-520.945	-200.000	0.071	0.374
-519.931	800.000	0.068	0.220
-518.916	332.840	-0.077	-0.147
-517.902	581.086	0.129	-0.313
-516.887	662.241	0.105	-0.269
-515.872	-200.000	0.072	-0.346
-514.858	23.082	-0.151	0.123
-513.843	-200.000	0.001	-0.029
-512.829	240.385	-0.263	-0.434
-511.814	800.000	0.068	-0.192
-510.799	-200.000	0.077	-0.337
-509.785	-112.452	0.098	-0.019
-508.770	96.239	-0.136	-0.154
-507.756	513.044	-0.080	0.185
-506.741	-196.179	0.289	0.002
-505.726	-46.538	0.271	-0.132
-504.712	-200.000	-0.006	0.321
-503.697	321.501	-0.072	0.135
-502.683	-158.154	-0.321	-0.019
-501.668	61.141	0.235	0.232
-500.653	-200.000	-0.009	0.201
-499.639	-134.029	0.272	0.033
-498.624	81.505	-0.104	0.112
-497.610	-148.982	-0.117	-0.009
-496.595	183.475	0.159	0.233
-495.581	41.202	-0.203	0.182
-494.566	57.709	0.210	0.203
-493.551	-200.000	0.071	-0.314
-492.537	-92.343	0.158	-0.044
-491.522	-44.004	0.362	-0.180
-490.508	11.290	-0.271	-0.206
-489.493	113.740	-0.018	0.022
-488.478	349.514	0.016	0.032
-487.464	-26.224	-0.206	0.120
-486.449	800.000	0.058	0.213
-485.435	-200.000	-0.037	-0.310
-484.420	140.831	-0.142	-0.186
-483.405	-94.598	0.090	0.024
-482.391	238.652	0.101	0.167
-481.376	-200.000	-0.007	0.057
-480.362	183.697	-0.073	0.107
-479.347	164.614	-0.130	-0.182
-478.332	-34.058	-0.177	-0.096
-477.318	-200.000	-0.055	-0.358
-476.303	109.114	0.060	0.071
-475.289	96.768	-0.134	-0.152
-474.274	-200.000	0.016	-0.081
-473.259	29.150	-0.125	0.105
-472.245	-25.171	0.488	-0.286
-471.230	800.000	0.027	0.090
-470.216	-82.720	0.378	-0.121
-469.201	-95.521	0.253	0.067
-468.186	86.060	0.192	0.209
-467.172	53.731	-0.169	-0.160
-466.157	-138.112	0.250	-0.028
-465.143	-80.107	0.114	0.038
-464.128	132.837	-0.251	0.321
-463.113	-89.328	0.114	0.033
-462.099	543.340	0.090	-0.213
-461.084	378.451	-0.146	-0.296
-460.070	644.675	-0.078	0.196
-459.055	19.529	-0.156	0.124
-458.040	-200.000	-0.000	0.402
-457.026	135.522	-0.191	-0.246
-456.011	97.557	0.192	-0.219
-454.997	797.195	0.074	0.202
-453.982	-104.560	-0.394	0.090
-452.968	83.069	-0.240	-0.258
-451.953	-200.000	0.082	0.394
-450.938	399.907	0.065	0.135
-449.924	800.000	-0.063	0.200
-448.909	-116.276	0.121	-0.022
-447.895	121.283	0.147	0.181
-446.880	-200.000	-0.018	0.200
-445.865	148.230	-0.119	0.159
-444.851	118.515	-0.098	-0.120
-443.836	26.137	0.136	-0.112
-442.822	246.923	-0.157	0.262
-441.807	652.588	-0.161	-0.409
-440.792	-12.483	0.259	-0.168
-439.778	800.000	0.066	-0.257
-438.763	12.048	-0.289	-0.220
-437.749	-54.359	-0.193	0.087
-436.734	93.208	0.337	0.377
-435.719	-53.668	-0.106	0.048
-434.705	8.985	-0.057	-0.042
-433.690	-3.156	-0.117	-0.081
-432.676	74.832	0.223	0.232
-431.661	-105.683	0.083	-0.019
-430.646	-30.660	0.077	-0.043
-429.632	734.529	0.023	-0.062
-428.617	98.808	-0.121	0.138
-427.603	434.756	0.153	0.329
-426.588	68.008	-0.036	-0.037
-425.573	-200.000	-0.039	-0.208
-424.559	-94.515	-0.473	0.127
-423.544	185.440	0.188	-0.275
-422.530	50.601	0.095	0.089
-421.515	-28.580	0.238	0.136
-420.500	34.231	-0.347	0.299
-419.486	109.367	0.144	-0.171
-418.471	800.000	-0.043	-0.178
-417.457	38.515	0.234	-0.206
-416.442	800.000	-0.072	0.276
-415.428	171.048	0.127	0.179
-414.413	800.000	-0.095	-0.344
-413.398	-116.079	-0.241	0.044
-412.384	-200.000	0.038	-0.291
-411.369	-200.000	-0.018	-0.137
-410.355	800.000	-0.105	-0.389
-409.340	-81.567	0.145	-0.047
-408.325	9.962	0.219	0.164
-407.311	-200.000	0.030	-0.157
-406.296	392.932	0.069	0.143
-405.282	650.910	-0.106	0.267
-404.267	-200.000	-0.026	0.178
-403.252	372.652	-0.128	0.258
-402.238	800.000	0.083	0.326
-401.223	302.606	-0.042	-0.077
-400.209	-72.204	-0.448	0.164
-399.194	120.660	0.091	-0.112
-398.179	-183.213	0.248	0.004
-397.165	270.276	-0.122	-0.212
-396.150	-132.830	-0.319	0.040
-395.136	334.306	-0.119	0.227
-394.121	5.193	0.313	-0.227
-393.106	176.617	-0.120	-0.173
-392.092	266.144	-0.140	-0.241
-391.077	-14.743	-0.042	-0.027
-390.063	-80.934	-0.248	0.081
-389.048	800.000	0.116	-0.421
-388.033	-8.135	-0.178	-0.119
-387.019	-200.000	0.007	-0.182
-386.004	461.724	0.070	0.153
-384.990	62.946	0.285	-0.282
-383.975	-94.898	-0.186	-0.050
-382.960	730.813	0.107	-0.281
-381.946	-200.000	-0.055	-0.318
-380.931	4.845	-0.177	-0.128
-379.917	-122.549	0.232	0.037
-378.902	580.204	0.101	0.244
-377.888	-64.127	-0.209	-0.084
-376.873	-168.452	-0.316	-0.012
-375.858	-62.490	-0.300	-0.123
-374.844	-169.946	0.200	-0.007
-373.829	157.106	0.176	0.240
-372.815	526.538	0.332	0.771
-371.800	-131.703	0.133	0.017
-370.785	-200.000	-0.054	-0.270
-369.771	203.927	0.270	0.412
-368.756	-64.198	0.232	-0.093
-367.742	81.338	0.287	0.306
-366.727	-69.301	0.228	0.086
-365.712	153.564	-0.111	0.150
-364.698	289.350	0.238	0.426
-363.683	2.516	-0.121	-0.087
-362.669	74.089	-0.101	0.104
-361.654	-3.425	0.281	-0.193
-360.639	16.088	-0.056	-0.044
-359.625	-95.725	0.257	0.068
-358.610	311.822	-0.119	-0.220
-357.596	-200.000	0.063	-0.381
-356.581	-9.954	0.053	0.035
-355.566	571.814	0.035	-0.085
-354.552	342.787	-0.209	0.403
-353.537	-200.000	-0.019	0.277
-352.523	-64.176	0.161	0.065
-351.508	-84.620	0.345	0.107
-350.493	7.180	0.160	-0.118
-349.479	-200.000	0.005	-0.056
-348.464	-66.759	-0.178	-0.069
-347.450	496.041	0.050	0.112
-346.435	800.000	-0.052	-0.224
-345.420	-158.216	0.237	-0.014
-344.406	93.648	-0.101	0.112
-343.391	-200.000	0.049	0.248
-342.377	-69.842	-0.134	-0.051
-341.362	-15.352	-0.049	-0.031
-340.348	29.242	0.214	-0.179
-339.333	-200.000	-0.015	0.319
-338.318	-62.991	0.230	-0.094
-337.304	-200.000	0.043	-0.259
-336.289	205.217	-0.061	0.094
-335.275	-148.474	-0.366	-0.029
-334.260	24.316	-0.183	-0.149
-333.245	380.847	0.242	0.490
-332.231	-200.000	-0.028	0.237
-331.216	800.000	-0.034	-0.127
-330.202	-46.018	0.245	0.119
-329.187	-175.543	-0.272	0.007
-328.172	800.000	-0.065	0.184
-327.158	800.000	0.037	-0.129
-326.143	-106.235	-0.157	0.035
-325.129	199.875	0.086	0.130
-324.114	800.000	0.071	-0.261
-323.099	-174.749	-0.245	-0.007
-322.085	-138.464	-0.247	-0.027
-321.070	459.028	-0.163	0.357
-320.056	266.109	-0.102	0.176
-319.041	800.000	0.093	0.297
-318.026	-70.118	0.367	0.137
-317.012	354.699	-0.065	0.128
-315.997	-200.000	0.025	0.188
-314.983	-128.597	-0.068	0.010
-313.968	34.128	-0.164	0.141
-312.953	-190.953	-0.044	0.000
-311.939	156.683	-0.085	-0.115
-310.924	7.535	-0.299	-0.220
-309.910	-75.886	-0.034	0.012
-308.895	148.577	0.250	-0.332
-307.880	-92.649	0.073	-0.020
-306.866	-59.834	0.117	0.049
-305.851	5.794	0.286	-0.208
-304.837	114.008	-0.019	-0.023
-303.822	7.403	0.154	-0.113
-302.807	-98.423	0.215	0.054
-301.793	-167.907	-0.132	0.005
-300.778	150.090	0.077	-0.102
-299.764	-200.000	-0.062	0.472
-298.749	800.000	0.058	-0.242
-297.735	-38.095	0.289	-0.151
-296.720	-130.871	0.286	0.038
-295.705	-63.142	0.292	-0.118
-294.691	-163.933	0.198	0.009
-293.676	-96.633	-0.202	-0.052
-292.662	304.232	-0.038	0.070
-291.647	47.997	-0.112	-0.103
-290.632	-74.348	0.189	-0.067
-289.618	48.650	0.030	0.027
-288.603	72.309	-0.110	0.112
-287.589	-27.671	-0.256	-0.146
-286.574	-76.689	0.337	0.116
-285.559	293.898	0.033	-0.059
-284.545	72.782	0.081	0.083
-283.530	-45.844	-0.248	0.120
-282.516	-200.000	0.003	-0.025
-281.501	499.968	0.081	-0.185
-280.486	-124.084	0.237	0.036
-279.472	1.867	-0.085	-0.060
-278.457	-141.713	-0.360	-0.036
-277.443	-200.000	-0.018	0.177
-276.428	320.799	0.065	0.122
-275.413	800.000	-0.065	-0.229
-274.399	-200.000	-0.029	-0.132
-273.384	800.000	-0.107	0.330
-272.370	-58.156	0.187	-0.080
-271.355	735.687	0.075	0.198
-270.340	488.578	-0.234	0.525
-269.326	-167.692	-0.033	-0.001
-268.311	-22.636	0.185	-0.110
-267.297	587.742	0.088	-0.212
-266.282	-4.129	-0.185	-0.126
-265.267	-75.696	0.241	-0.084
-264.253	-65.364	-0.334	-0.132
-263.238	39.322	-0.116	-0.102
-262.224	15.941	-0.170	-0.131
-261.209	-19.790	0.110	0.067
-260.195	-51.513	0.134	0.061
-259.180	116.407	0.260	-0.312
-258.165	127.047	-0.189	-0.236
-257.151	14.384	-0.067	-0.051
-256.136	-200.000	-0.024	-0.145
-255.122	-3.704	-0.295	-0.201
-254.107	-74.927	0.201	0.071
-253.092	800.000	-0.078	-0.245
-252.078	-36.845	0.144	-0.076
-251.063	-200.000	-0.013	-0.093
-250.049	-44.477	-0.207	0.102
-249.034	-113.640	-0.283	0.054
-248.019	382.436	0.233	0.471
-247.005	262.216	-0.232	0.395
-245.990	267.345	-0.083	0.142
-244.976	-200.000	0.006	-0.292
-243.961	78.952	-0.190	-0.200
-242.946	100.620	-0.143	-0.163
-241.932	7.655	0.196	0.144
-240.917	691.065	0.070	-0.179
-239.903	-85.139	-0.311	-0.095
-238.888	470.179	-0.133	-0.293
-237.873	-90.060	-0.194	0.055
-236.859	137.600	0.151	0.194
-235.844	-116.114	0.125	0.023
-234.830	-12.271	-0.359	0.230
-233.815	216.641	0.099	0.154
-232.800	-105.911	0.261	-0.058
-231.786	-61.481	-0.238	0.098
-230.771	87.289	-0.113	0.123
-229.757	800.000	-0.052	-0.192
-228.742	-27.126	0.139	-0.080
-227.727	-93.814	-0.119	-0.032
-226.713	-200.000	-0.010	0.199
-225.698	745.750	0.067	-0.177
-224.684	-200.000	-0.009	-0.122
-223.669	109.783	-0.077	0.090
-222.655	-200.000	-0.011	-0.085
-221.640	98.525	0.147	0.166
-220.625	-10.192	-0.409	0.266
-219.611	307.849	-0.163	-0.298
-218.596	135.576	-0.036	-0.046
-217.582	-200.000	-0.011	-0.073
-216.567	157.998	0.233	0.316
-215.552	-72.481	0.380	0.138
-214.538	176.211	0.131	0.187
-213.523	20.082	0.400	-0.316
-212.509	387.561	-0.105	0.212
-211.494	-64.385	0.135	-0.054
-210.479	364.739	0.161	-0.317
-209.465	337.395	-0.156	0.298
-208.450	-37.898	0.230	-0.120
-207.436	-124.538	0.145	0.022
-206.421	800.000	0.058	0.217
-205.406	-124.041	-0.274	-0.042
-204.392	-112.169	0.134	-0.026
-203.377	800.000	0.092	-0.264
-202.363	-11.511	-0.047	0.030
-201.348	-72.023	-0.239	-0.087
-200.333	191.982	0.065	-0.097
-199.319	-200.000	-0.069	0.490
-198.304	-61.082	0.089	-0.037
-197.290	-200.000	0.041	0.251
-196.275	-71.000	0.232	-0.086
-195.260	332.529	0.106	-0.201
-194.246	-84.544	-0.062	0.019
-193.231	244.589	0.055	-0.091
-192.217	-200.000	0.036	0.161
-191.202	-9.821	-0.211	0.137
-190.187	-54.994	0.292	0.129
-189.173	0.387	-0.325	-0.227
-188.158	329.796	-0.094	-0.176
-187.144	3.569	-0.104	-0.074
-186.129	31.975	-0.332	0.280
-185.114	-145.829	0.392	-0.034
-184.100	-200.000	-0.235	0.001
-183.085	-153.919	-0.038	-0.003
-182.071	-125.821	-0.194	0.029
-181.056	575.652	0.095	0.228
-180.042	514.230	0.169	0.387
-179.027	-200.000	-0.060	-0.295
-178.012	113.520	0.099	0.118
-176.998	-105.266	0.079	-0.018
-175.983	117.369	-0.101	0.122
-174.969	-10.430	-0.159	0.103
-173.954	800.000	-0.061	0.179
-172.939	361.237	-0.093	0.182
-171.925	-200.000	-0.013	-0.094
-170.910	-50.530	-0.278	-0.128
-169.896	185.630	-0.041	-0.059
-168.881	18.667	0.109	-0.085
-167.866	15.469	0.112	-0.086
-166.852	555.644	-0.075	0.178
-165.837	800.000	0.092	0.271
-164.823	47.811	-0.132	-0.121
-163.808	-85.389	0.154	-0.047
-162.793	-47.464	-0.198	-0.094
-161.779	314.038	-0.075	0.138
-160.764	-165.999	-0.433	-0.018
-159.750	68.442	-0.089	0.089
-158.735	-5.441	0.172	0.115
-157.720	-30.610	-0.185	-0.102
-156.706	-76.896	0.361	0.123
-155.691	143.316	0.036	-0.046
-154.677	41.414	-0.203	0.180
-153.662	8.581	-0.045	0.033
-152.647	196.117	0.235	0.349
-151.633	44.601	-0.077	-0.069
-150.618	-200.000	0.023	0.231
-149.604	712.439	-0.096	-0.249
-148.589	-78.791	0.174	0.058
-147.574	-131.417	0.208	-0.027
-146.560	-200.000	0.027	-0.216
-145.545	72.267	-0.094	0.095
-144.531	-53.164	0.252	-0.113
-143.516	-66.677	-0.177	-0.068
-142.502	-160.588	0.435	-0.023
-141.487	-88.765	-0.120	0.035
-140.472	-16.364	0.324	-0.201
-139.458	154.983	-0.113	0.152
-138.443	-200.000	-0.020	0.098
-137.429	-116.446	0.074	0.013
-136.414	-49.418	-0.240	0.112
-135.399	-9.843	0.390	-0.253
-134.385	103.341	0.174	-0.199
-133.370	-23.708	0.137	0.080
-132.356	800.000	0.037	-0.153
-131.341	136.968	0.080	0.102
-130.326	8.258	0.388	0.285
-129.312	383.585	-0.053	-0.106
-128.297	437.919	-0.142	-0.302
-127.283	46.943	0.072	0.066
-126.268	-25.791	0.257	0.148
-125.253	-132.444	0.183	-0.023
-124.239	-99.113	0.353	-0.087
-123.224	592.564	-0.106	0.256
-122.210	-200.000	0.030	0.256
-121.195	-200.000	0.007	-0.405
-120.180	36.203	0.120	0.103
-119.166	-200.000	0.041	-0.306
-118.151	-19.086	0.364	-0.221
-117.137	32.947	-0.097	-0.082
-116.122	4.289	0.488	-0.349
-115.107	-145.602	-0.247	-0.022
-114.093	185.025	-0.113	-0.164
-113.078	321.027	0.136	0.252
-112.064	40.450	0.195	-0.171
-111.049	-70.530	0.101	-0.037
-110.034	-31.931	-0.105	0.057
-109.020	48.869	0.105	0.097
-108.005	-95.737	-0.230	-0.060
-106.991	-52.489	0.351	0.158
-105.976	14.460	0.089	-0.068
-104.962	188.759	0.022	0.032
-103.947	-33.024	0.338	-0.183
-102.932	-200.000	0.020	-0.192
-101.918	800.000	-0.051	-0.165
-100.903	-49.651	-0.176	0.082
-99.889	146.610	0.155	0.203
-98.874	-31.775	-0.058	0.032
-97.859	-114.888	-0.224	-0.042
-96.845	46.267	0.205	0.186
-95.830	-200.000	0.030	-0.253
-94.816	101.349	-0.054	0.061
-93.801	453.063	-0.077	0.167
-92.786	800.000	0.053	-0.200
-91.772	53.792	0.216	0.202
-90.757	-105.284	0.324	0.072
-89.743	128.665	-0.188	-0.234
-88.728	-200.000	-0.082	-0.367
-87.713	-49.047	-0.246	0.115
-86.699	87.547	0.155	0.167
-85.684	400.949	0.198	0.405
-84.670	-43.347	0.165	0.081
-83.655	86.217	-0.260	0.279
-82.640	126.297	-0.117	0.145
-81.626	800.000	-0.073	0.207
-80.611	248.793	-0.124	0.205
-79.597	-4.041	0.076	-0.051
-78.582	27.287	-0.074	0.061
-77.567	800.000	0.019	-0.077
-76.553	25.922	0.203	-0.165
-75.538	30.770	-0.050	-0.042
-74.524	-200.000	-0.032	-0.161
-73.509	-200.000	-0.002	0.306
-72.494	-200.000	-0.108	-0.000
-71.480	-106.227	0.086	-0.019
-70.465	65.077	-0.316	0.311
-69.451	-173.212	0.045	0.001
-68.436	-154.839	0.266	-0.017
-67.422	-50.116	-0.218	-0.101
-66.407	427.632	0.137	-0.288
-65.392	-55.919	0.189	0.082
-64.378	800.000	-0.023	-0.081
-63.363	-135.987	0.334	0.038
-62.349	-200.000	-0.020	0.392
-61.334	30.610	-1.071	-0.893
-60.319	47.979	0.624	0.568
-59.305	181.734	-0.875	-1.255
-58.290	248.506	0.855	1.409
-57.276	-200.000	0.309	1.668
-56.261	-200.000	127.699	676.471
-55.246	411.482	1605.263	3319.048
-54.232	139.339	2758.608	3535.614
-53.217	95.024	2181.063	2418.475
-52.203	33.228	1697.083	1433.826
-51.188	25.813	1515.041	1229.579
-50.173	23.997	1491.069	1197.861
-49.159	48.992	1562.951	1429.249
-48.144	45.629	1575.534	1417.480
-47.130	26.047	1524.158	1238.386
-46.115	23.183	1507.737	1205.513
-45.100	22.838	1505.210	1201.100
-44.086	22.854	1503.255	1199.604
-43.071	22.901	1500.790	1197.908
-42.057	22.865	1499.148	1196.306
-41.042	22.777	1498.052	1194.785
-40.027	22.774	1496.482	1193.464
-39.013	22.721	1494.892	1191.793
-37.998	22.796	1493.686	1191.289
-36.984	22.933	1492.485	1191.210
-35.969	22.854	1490.971	1189.421
-34.954	22.821	1489.590	1188.049
-33.940	22.829	1488.805	1187.433
-32.925	22.863	1487.348	1186.453
-31.911	22.837	1486.261	1185.358
-30.896	22.840	1484.619	1184.023
-29.881	22.958	1483.548	1183.913
-28.867	22.939	1481.756	1182.313
-27.852	22.985	1480.330	1181.434
-26.838	22.978	1479.048	1180.318
-25.823	22.939	1477.484	1178.760
-24.809	23.005	1475.866	1177.862
-23.794	22.898	1474.656	1176.138
-22.779	22.933	1473.470	1175.376
-21.765	22.812	1472.662	1173.884
-20.750	22.944	1471.618	1173.882
-19.736	22.919	1469.914	1172.313
-18.721	22.849	1469.319	1171.322
-17.706	22.874	1468.270	1170.607
-16.692	22.854	1467.184	1169.561
-15.677	22.856	1466.368	1168.881
-14.663	22.823	1465.311	1167.769
-13.648	22.850	1464.261	1167.065
-12.633	22.846	1463.295	1166.225
-11.619	22.835	1462.753	1165.672
-10.604	22.916	1461.679	1165.308
-9.590	22.878	1460.983	1164.453
-8.575	22.940	1459.540	1163.667
-7.560	22.861	1459.494	1163.060
-6.546	22.898	1458.453	1162.433
-5.531	22.901	1457.559	1161.690
-4.517	22.889	1455.923	1160.261
-3.502	22.950	1454.735	1159.671
-2.487	22.885	1454.023	1158.632
-1.473	22.928	1453.180	1158.194
-0.458	22.894	1451.784	1156.814
0.556	21.180	1441.850	1145.028
1.571	18.152	1418.548	1106.858
2.586	14.840	1356.350	1037.706
3.600	13.307	1273.403	965.217
4.615	12.471	1230.131	927.616
5.629	10.869	1173.717	876.369
6.644	5.338	1092.947	788.160
7.659	0.966	1058.013	741.526
8.673	0.274	1052.379	734.139
9.688	0.120	1050.064	731.713
10.702	0.190	1047.517	730.211
11.717	0.096	1045.599	728.354
12.731	2.081	1045.506	737.825
13.746	8.244	1054.046	773.745
14.761	14.321	1062.479	809.484
15.775	16.687	1065.173	822.981
16.790	16.446	1063.636	820.551
17.804	15.561	1061.452	814.506
18.819	14.742	1059.554	809.010
19.834	14.210	1058.190	805.324
20.848	13.982	1057.477	803.609
21.863	13.717	1056.774	801.724
22.877	13.525	1055.892	800.055
23.892	13.300	1054.681	797.979
24.907	13.301	1054.177	797.530
25.921	13.168	1053.646	796.420
26.936	13.243	1053.120	796.312
27.950	13.205	1052.498	795.588
28.965	13.276	1051.851	795.370
29.980	13.362	1050.731	794.869
30.994	13.421	1049.187	793.914
32.009	13.303	1049.289	793.353
33.023	13.405	1048.610	793.256
34.038	13.367	1047.742	792.347
35.053	13.400	1046.591	791.568
36.067	13.381	1045.902	790.886
37.082	13.241	1045.245	789.648
38.096	13.305	1044.020	788.961
39.111	13.400	1043.412	788.884
40.126	13.451	1042.484	788.354
41.140	13.401	1041.771	787.506
42.155	13.336	1040.225	785.961
43.169	13.216	1039.547	784.809
44.184	13.183	1038.639	783.899
45.199	13.297	1037.262	783.328
46.213	13.246	1036.503	782.442
47.228	13.251	1035.730	781.815
48.242	13.278	1034.780	781.156
49.257	13.395	1033.507	780.680
50.271	13.323	1032.420	779.452
51.286	13.411	1031.802	779.329
52.301	13.251	1031.129	777.999
53.315	13.347	1030.183	777.667
54.330	13.330	1029.502	777.004
55.344	13.310	1028.556	776.128
56.359	13.306	1027.351	775.130
57.374	13.344	1026.391	774.516
58.388	13.406	1025.633	774.164
59.403	13.358	1024.901	773.317
60.417	13.221	1024.088	772.000
61.432	13.190	1023.540	771.373
62.447	13.277	1022.585	770.991
63.461	13.303	1021.771	770.429
64.476	13.180	1021.003	769.212
65.490	13.194	1020.103	768.531
66.505	13.235	1019.014	767.828
67.520	13.286	1018.400	767.538
68.534	13.246	1017.650	766.716
69.549	13.302	1016.948	766.381
70.563	13.288	1016.074	765.588
71.578	13.142	1016.043	764.823
72.593	13.166	1015.101	764.155
73.607	13.173	1013.870	763.195
74.622	13.230	1013.333	762.984
75.636	13.165	1012.462	761.962
76.651	13.173	1011.714	761.369
77.666	13.174	1010.621	760.485
78.680	13.050	1009.823	759.248
79.695	13.275	1008.899	759.517
80.709	13.211	1009.054	759.273
81.724	13.237	1007.852	758.421
82.739	13.231	1007.440	758.017
83.753	13.288	1006.722	757.671
84.768	13.305	1005.657	756.880
85.782	13.415	1005.212	756.981
86.797	13.422	1004.349	756.296
87.812	13.397	1003.354	755.368
88.826	13.477	1002.537	755.048
89.841	13.462	1001.693	754.280
90.855	13.356	1001.129	753.302
91.870	13.373	1000.417	752.781
92.884	13.398	1000.011	752.519
93.899	13.506	998.563	751.854
94.914	13.445	998.356	751.357
95.928	13.471	997.664	750.888
96.943	13.560	996.693	750.491
97.957	13.592	995.817	749.913
98.972	13.535	995.307	749.201
99.987	13.408	994.116	747.664
101.001	13.562	993.327	747.700
102.016	13.436	992.730	746.615
103.030	13.399	991.966	745.808
104.045	13.393	991.281	745.205
105.060	13.569	989.962	744.937
106.074	13.568	988.823	744.007
107.089	13.363	988.321	742.645
108.103	13.404	987.301	741.998
109.118	13.373	986.592	741.257
110.133	13.234	986.056	740.168
111.147	13.262	985.231	739.610
112.162	13.420	984.122	739.419
113.176	13.267	983.457	738.169
114.191	13.421	982.432	738.020
115.206	13.449	981.417	737.319
116.220	13.410	980.768	736.592
117.235	13.333	980.376	735.889
118.249	13.396	979.259	735.267
119.264	13.313	978.627	734.356
120.279	13.337	977.412	733.487
121.293	13.305	976.747	732.783
122.308	13.281	976.019	732.064
123.322	13.226	975.321	731.232
124.337	13.231	974.447	730.537
125.352	13.308	972.804	729.579
126.366	13.288	971.850	728.709
127.381	13.321	970.912	728.088
128.395	13.307	969.323	726.770
129.410	13.297	969.028	726.439
130.424	13.358	967.947	725.836
131.439	13.312	967.378	725.143
132.454	13.268	966.445	724.184
133.468	13.396	965.635	724.076
134.483	13.386	965.144	723.600
135.497	13.316	964.381	722.657
136.512	13.372	963.444	722.136
137.527	13.375	963.031	721.773
138.541	13.253	962.643	720.887
139.556	13.353	961.477	720.386
140.570	13.491	960.649	720.304
141.585	13.422	959.895	719.373
142.600	13.574	959.257	719.490
143.614	13.538	958.709	718.860
144.629	13.518	957.654	717.920
145.643	13.540	957.232	717.633
146.658	13.582	956.341	717.087
147.673	13.594	955.243	716.249
148.687	13.620	954.416	715.677
149.702	13.566	953.617	714.783
150.716	13.573	952.834	714.165
151.731	13.569	951.534	713.110
152.746	13.442	951.674	712.603
153.760	13.469	950.903	712.079
154.775	13.590	949.697	711.636
155.789	13.681	948.920	711.376
156.804	13.577	948.250	710.368
157.819	13.669	947.360	710.034
158.833	13.581	947.027	709.343
159.848	13.722	945.983	709.101
160.862	13.782	945.565	708.983
161.877	13.794	944.780	708.381
162.892	13.752	943.815	707.416
163.906	13.607	943.194	706.271
164.921	13.600	942.377	705.567
165.935	13.601	941.373	704.758
166.950	13.715	940.207	704.307
167.964	13.589	939.974	703.533
168.979	13.725	938.479	702.928
169.994	13.667	937.653	702.001
171.008	13.715	937.197	701.803
172.023	13.616	936.467	700.773
173.037	13.770	935.388	700.555
174.052	13.695	934.719	699.674
175.067	13.807	933.871	699.451
176.081	13.751	933.505	698.881
177.096	13.618	932.467	697.479
178.110	13.725	931.237	696.951
179.125	13.763	930.630	696.592
180.140	13.795	929.686	695.956
181.154	13.666	929.524	695.233
182.169	13.823	928.471	695.044
183.183	13.819	928.479	694.971
184.198	13.897	927.459	694.472
185.213	13.964	926.943	694.303
186.227	13.998	926.379	693.962
187.242	14.045	925.394	693.357
188.256	14.005	925.016	692.847
189.271	13.960	924.251	692.026
190.286	13.925	923.422	691.197
191.300	13.949	922.603	690.624
192.315	13.878	921.805	689.673
193.329	13.886	921.264	689.238
194.344	13.855	920.523	688.494
195.359	13.959	919.708	688.255
196.373	13.961	919.029	687.695
197.388	13.927	918.832	687.347
198.402	14.015	918.529	687.420
199.417	14.199	917.650	687.462
200.432	14.221	917.453	687.344
201.446	14.088	917.061	686.441
202.461	14.231	916.358	686.443
203.475	14.202	916.404	686.298
204.490	14.212	915.376	685.508
205.504	14.267	914.338	684.896
206.519	14.227	913.459	684.013
207.534	14.320	912.867	683.893
208.548	14.053	912.365	682.360
209.563	14.279	911.493	682.574
210.577	14.176	910.789	681.565
211.592	14.218	910.026	681.103
212.607	14.375	909.415	681.231
213.621	14.306	908.867	680.479
214.636	14.364	908.245	680.186
215.650	14.400	907.659	679.834
216.665	14.429	907.374	679.680
217.680	14.386	906.462	678.761
218.694	14.399	906.263	678.606
219.709	14.501	905.550	678.426
220.723	14.414	905.049	677.639
221.738	14.547	904.227	677.502
222.753	14.374	903.978	676.553
223.767	14.513	902.452	675.915
224.782	14.517	901.610	675.241
225.796	14.538	900.988	674.801
226.811	14.475	900.861	674.392
227.826	14.504	900.157	673.921
228.840	14.455	899.417	673.109
229.855	14.501	898.921	672.864
230.869	14.466	897.996	671.970
231.884	14.576	897.286	671.824
232.899	14.538	896.274	670.854
233.913	14.484	895.842	670.252
234.928	14.506	895.386	669.943
235.942	14.565	894.502	669.460
236.957	14.616	893.594	668.924
237.972	14.391	893.541	667.923
238.986	14.574	892.165	667.567
240.001	14.604	891.915	667.440
241.015	14.628	891.077	666.851
242.030	14.670	890.609	666.610
243.045	14.487	889.813	665.225
244.059	14.894	888.635	665.906
245.074	14.761	888.486	665.206
246.088	14.742	887.666	664.459
247.103	14.693	887.257	663.899
248.117	14.711	887.172	663.849
249.132	14.864	886.136	663.620
250.147	14.810	885.939	663.200
251.161	14.949	885.094	663.059
252.176	14.975	884.319	662.526
253.190	14.859	883.911	661.700
254.205	15.029	883.145	661.741
255.220	14.989	882.761	661.236
256.234	15.120	881.704	660.903
257.249	15.045	881.453	660.361
258.263	15.033	880.832	659.788
259.278	14.842	880.415	658.667
260.293	15.089	879.570	658.949
261.307	15.268	878.907	659.098
262.322	15.348	878.121	658.763
263.336	15.170	877.581	657.601
264.351	15.207	877.729	657.798
265.366	15.087	877.093	656.794
266.380	15.232	875.874	656.392
267.395	15.369	875.366	656.486
268.409	15.321	874.298	655.440
269.424	15.284	873.535	654.668
270.439	15.343	873.180	654.572
271.453	15.443	872.260	654.217
272.468	15.292	871.618	653.090
273.482	15.326	871.084	652.763
274.497	15.290	870.674	652.259
275.512	15.321	869.826	651.685
276.526	15.268	869.023	650.822
277.541	15.268	868.471	650.349
278.555	15.425	868.130	650.645
279.570	15.304	867.383	649.557
280.585	15.405	867.152	649.718
281.599	15.380	866.210	648.860
282.614	15.367	866.017	648.607
283.628	15.429	865.158	648.147
284.643	15.442	864.737	647.824
285.657	15.500	864.193	647.582
286.672	15.387	863.763	646.769
287.687	15.550	863.060	646.811
288.701	15.554	862.483	646.338
289.716	15.526	861.918	645.749
290.730	15.507	861.223	645.098
291.745	15.631	860.398	644.897
292.760	15.530	859.711	643.938
293.774	15.645	859.077	643.850
294.789	15.751	858.598	643.839
295.803	15.600	857.977	642.736
296.818	15.696	857.449	642.654
297.833	15.477	856.992	641.416
298.847	15.615	856.114	641.227
299.862	15.711	855.510	641.084
300.876	15.761	854.879	640.745
301.891	15.648	853.922	639.541
302.906	15.871	853.544	640.050
303.920	15.773	853.073	639.268
304.935	15.778	852.282	638.638
305.949	15.874	851.909	638.666
306.964	15.881	851.163	638.076
307.979	15.876	850.048	637.166
308.993	15.963	849.920	637.341
310.008	15.857	849.556	636.612
311.022	16.021	848.728	636.555
312.037	16.001	848.444	636.210
313.052	15.940	848.240	635.772
314.066	16.077	847.159	635.421
315.081	15.855	846.962	634.381
316.095	15.927	846.154	633.992
317.110	15.922	845.518	633.439
318.125	15.907	845.167	633.065
319.139	16.093	844.516	633.220
320.154	15.978	844.166	632.470
321.168	15.902	843.508	631.634
322.183	15.946	843.013	631.371
323.197	15.971	842.736	631.203
324.212	16.087	841.904	630.957
325.227	16.037	841.593	630.481
326.241	15.939	840.885	629.529
327.256	16.040	840.149	629.301
328.270	15.971	840.196	629.022
329.285	16.096	839.043	628.571
330.300	15.981	838.467	627.653
331.314	16.044	838.384	627.772
332.329	15.963	837.783	626.965
333.343	16.131	837.065	626.995
334.358	16.016	836.419	626.028
335.373	16.231	835.514	626.094
336.387	16.150	835.569	625.778
337.402	16.305	834.467	625.471
338.416	16.273	834.155	625.065
339.431	16.431	833.419	625.041
340.446	16.349	833.041	624.402
341.460	16.389	832.485	624.075
342.475	16.319	831.930	623.346
343.489	16.433	831.060	623.059
344.504	16.390	831.010	622.809
345.519	16.540	830.216	622.712
346.533	16.485	829.650	622.030
347.548	16.504	829.351	621.818
348.562	16.488	828.608	621.147
349.577	16.429	828.209	620.578
350.592	16.518	827.530	620.342
351.606	16.400	827.422	619.775
352.621	16.444	827.423	619.880
353.635	16.415	826.605	619.106
354.650	16.595	825.874	619.162
355.665	16.641	825.220	618.786
356.679	16.459	825.287	618.116
357.694	16.478	824.479	617.523
358.708	16.640	823.655	617.442
359.723	16.512	823.518	616.819
360.738	16.655	822.710	616.681
361.752	16.570	822.243	615.966
362.767	16.632	822.000	615.957
363.781	16.799	821.640	616.240
364.796	16.719	821.289	615.631
365.810	16.734	820.692	615.182
366.825	16.860	820.240	615.249
367.840	16.828	820.002	614.898
368.854	16.704	819.662	614.139
369.869	16.806	818.792	613.802
370.883	16.768	818.689	613.534
371.898	16.671	818.093	612.680
372.913	16.877	817.403	612.855
373.927	16.900	816.448	612.168
374.942	16.836	815.878	611.458
375.956	16.768	815.318	610.736
376.971	16.981	814.289	610.679
377.986	16.916	814.332	610.423
379.000	17.017	813.690	610.252
380.015	17.010	813.003	609.656
381.029	17.043	812.634	609.445
382.044	17.200	812.245	609.663
383.059	17.259	811.044	608.920
384.073	17.114	811.074	608.367
385.088	17.034	810.705	607.752
386.102	17.096	810.064	607.437
387.117	17.039	809.383	606.668
388.132	16.946	808.989	605.990
389.146	17.068	808.481	605.991
390.161	17.010	808.282	605.581
391.175	17.186	807.731	605.742
392.190	17.140	807.549	605.388
393.205	17.240	806.789	605.119
394.219	17.178	806.815	604.865
395.234	17.251	805.832	604.334
396.248	17.139	805.574	603.689
397.263	17.103	805.077	603.136
398.278	17.204	804.478	602.991
399.292	17.036	804.460	602.330
400.307	17.328	803.878	602.875
401.321	17.138	803.482	601.851
402.336	17.235	802.790	601.624
403.350	17.262	802.439	601.404
404.365	17.253	802.031	601.013
405.380	17.236	801.816	600.738
406.394	17.385	801.061	600.645
407.409	17.366	801.129	600.577
408.423	17.466	799.935	599.978
409.438	17.431	800.069	599.904
410.453	17.396	799.374	599.207
411.467	17.457	799.106	599.168
412.482	17.436	798.524	598.602
413.496	17.614	797.958	598.752
414.511	17.631	797.322	598.281
415.526	17.531	797.159	597.757
416.540	17.470	797.229	597.541
417.555	17.378	796.818	596.857
418.569	17.597	796.101	597.033
419.584	17.789	795.145	596.938
420.599	17.580	795.114	596.131
421.613	114.031	1297.720	1488.361
422.628	98.182	1370.890	1488.455
