DTS Sentinel unit serial number:	SN413079Multiplexer serial number:	ORYXHardware model number:	OX4-SRSoftware version number:	ORYX F/W v4.00 Oryx Data Collector v3.7.2.0data status	okinstallation	princeton_trtdifferential loss correction	single-endedforward channel	channel 3reverse channel	N/Adate	2019/09/19time	00:00:35forward acquisition time	60.00reverse acquisition time	0.00gamma	496.2192k internal	0.2346k external	0.2346temperature offset calibration	0.9990default loss term (dB/km)	0.3790temperature slope calibration	1.0000multiplexer offset coefficient	1.0000multiplexer slope coefficient	1.0000fibre end	0.00T internal ref (°C)	23.06T ext. ref 1 (°C)	0.75T ext. ref 2 (°C)	16.01length (m)	temperature (°C)	Stokes	anti-Stokes-747.200	243.060	0.105	-0.175
-746.185	156.467	-0.126	0.174
-745.171	-69.771	-0.135	-0.051
-744.156	-78.644	0.151	-0.052
-743.142	143.063	0.111	-0.148
-742.127	800.000	-0.114	0.315
-741.112	800.000	0.020	-0.077
-740.098	-200.000	-0.032	0.170
-739.083	-148.304	0.411	-0.034
-738.069	-40.519	-0.318	-0.165
-737.054	139.704	-0.262	-0.345
-736.039	-21.109	-0.257	-0.157
-735.025	-200.000	0.047	0.346
-734.010	-97.590	-0.330	0.085
-732.996	591.455	-0.095	0.234
-731.981	306.122	-0.227	0.421
-730.966	96.859	0.186	-0.213
-729.952	201.225	0.173	-0.266
-728.937	-83.550	-0.173	-0.055
-727.923	-200.000	-0.008	0.055
-726.908	-31.758	-0.221	0.124
-725.894	48.832	-0.223	0.209
-724.879	483.749	0.022	-0.051
-723.864	800.000	-0.108	0.364
-722.850	394.417	0.087	0.181
-721.835	-81.899	-0.181	-0.059
-720.821	-139.376	-0.280	0.030
-719.806	-169.681	0.027	0.001
-718.791	10.647	0.166	0.126
-717.777	201.612	0.166	0.255
-716.762	511.017	0.153	-0.356
-715.748	-200.000	-0.026	0.147
-714.733	91.006	-0.184	-0.206
-713.718	-180.459	0.160	-0.003
-712.704	-67.363	0.217	-0.085
-711.689	-16.242	-0.256	-0.162
-710.675	-200.000	0.006	0.033
-709.660	-156.734	-0.208	-0.013
-708.645	209.897	-0.141	0.222
-707.631	209.737	0.198	0.310
-706.616	-26.175	0.245	-0.144
-705.602	229.329	0.063	-0.102
-704.587	-185.731	0.096	-0.001
-703.572	-22.721	0.207	-0.125
-702.558	-200.000	-0.010	-0.143
-701.543	-101.764	0.363	-0.088
-700.529	-200.000	-0.007	-0.241
-699.514	-14.893	0.249	-0.160
-698.499	-57.401	-0.179	-0.079
-697.485	-150.296	0.201	-0.015
-696.470	33.330	-0.062	0.053
-695.456	291.908	0.102	0.185
-694.441	-146.239	-0.324	0.028
-693.426	-200.000	0.030	-0.332
-692.412	-200.000	-0.022	0.269
-691.397	35.447	0.217	0.190
-690.383	-113.586	-0.175	0.034
-689.368	82.482	0.316	0.343
-688.354	-200.000	-0.005	-0.313
-687.339	-46.786	0.295	-0.144
-686.324	-121.753	-0.320	0.053
-685.310	665.582	-0.132	-0.339
-684.295	-24.801	-0.020	0.012
-683.281	-65.896	-0.261	-0.104
-682.266	-115.608	0.354	0.066
-681.251	45.952	-0.191	-0.177
-680.237	497.145	0.047	0.108
-679.222	97.822	-0.111	0.128
-678.208	800.000	-0.023	0.073
-677.193	66.302	0.289	0.293
-676.178	-200.000	-0.009	0.233
-675.164	800.000	0.046	0.180
-674.149	-38.486	0.058	-0.030
-673.135	-95.359	0.086	-0.023
-672.120	-24.786	0.076	-0.045
-671.105	-27.321	-0.102	-0.059
-670.091	-183.659	-0.063	0.001
-669.076	-46.805	-0.044	0.021
-668.062	57.529	-0.276	-0.268
-667.047	139.092	-0.128	0.168
-666.032	163.240	-0.094	-0.132
-665.018	800.000	0.069	0.249
-664.003	222.721	0.099	-0.159
-662.989	421.750	-0.162	-0.347
-661.974	-167.201	0.245	-0.010
-660.959	-70.509	-0.159	-0.060
-659.945	579.057	0.092	-0.224
-658.930	-134.684	-0.304	-0.037
-657.916	-121.683	-0.137	-0.023
-656.901	-13.739	-0.280	-0.181
-655.886	-5.648	-0.194	0.132
-654.872	-34.070	0.517	-0.283
-653.857	800.000	-0.054	-0.200
-652.843	209.744	0.081	0.127
-651.828	-129.427	-0.361	-0.050
-650.814	96.384	-0.224	0.256
-649.799	-101.711	0.536	-0.129
-648.784	-21.462	0.204	-0.124
-647.770	15.691	-0.220	-0.172
-646.755	495.336	-0.042	0.096
-645.741	21.093	0.140	-0.113
-644.726	800.000	-0.082	0.306
-643.711	165.432	-0.023	0.033
-642.697	-200.000	-0.010	-0.205
-641.682	-106.344	-0.144	0.032
-640.668	-84.194	-0.162	0.051
-639.653	800.000	0.177	-0.522
-638.638	-47.722	0.083	0.040
-637.624	-13.696	-0.081	-0.052
-636.609	499.306	0.045	-0.103
-635.595	-12.301	-0.144	0.094
-634.580	-200.000	-0.009	-0.057
-633.565	-78.131	-0.335	0.115
-632.551	23.634	-0.109	0.090
-631.536	800.000	0.132	-0.433
-630.522	-50.710	-0.064	-0.030
-629.507	14.170	0.141	-0.110
-628.492	551.004	0.116	0.278
-627.478	-158.091	-0.213	-0.012
-626.463	-85.126	-0.094	0.029
-625.449	107.612	0.122	-0.144
-624.434	-59.147	-0.405	0.174
-623.419	-107.986	0.337	0.073
-622.405	-46.854	0.134	0.065
-621.390	-200.000	-0.055	-0.325
-620.376	-85.803	0.188	-0.058
-619.361	-121.522	-0.347	-0.057
-618.346	404.648	0.104	0.219
-617.332	177.151	-0.176	0.255
-616.317	-92.104	-0.269	0.076
-615.303	-98.079	-0.251	0.064
-614.288	800.000	0.096	0.268
-613.273	574.162	0.073	0.176
-612.259	126.426	-0.072	-0.090
-611.244	-29.035	-0.080	0.046
-610.230	670.170	0.109	0.282
-609.215	800.000	-0.072	0.229
-608.201	180.884	-0.168	-0.245
-607.186	-27.748	0.023	0.014
-606.171	800.000	-0.078	0.256
-605.157	-200.000	0.000	-0.013
-604.142	319.777	0.093	0.176
-603.128	-99.469	-0.295	-0.074
-602.113	-167.695	-0.119	0.005
-601.098	295.014	-0.089	-0.163
-600.084	-48.225	-0.205	-0.098
-599.069	-105.390	0.260	-0.059
-598.055	-200.000	0.025	-0.492
-597.040	137.089	0.164	0.213
-596.025	800.000	-0.138	0.563
-595.011	-38.790	-0.060	-0.032
-593.996	800.000	0.034	-0.119
-592.982	6.337	0.017	0.013
-591.967	-200.000	-0.068	-0.563
-590.952	82.353	0.090	-0.097
-589.938	-0.340	-0.111	0.078
-588.923	-46.151	-0.120	0.059
-587.909	-40.109	0.226	-0.117
-586.894	305.792	0.109	0.201
-585.879	110.449	0.162	0.194
-584.865	66.261	-0.106	0.107
-583.850	-137.112	0.303	-0.034
-582.836	92.646	0.152	-0.171
-581.821	587.880	-0.077	-0.188
-580.806	-67.657	-0.410	-0.160
-579.792	-200.000	-0.032	-0.162
-578.777	-76.087	-0.180	0.063
-577.763	-101.013	0.416	0.101
-576.748	85.811	-0.321	-0.351
-575.733	88.307	0.104	0.115
-574.719	-116.668	0.181	0.033
-573.704	800.000	-0.015	0.052
-572.690	-58.075	-0.095	-0.041
-571.675	-200.000	-0.017	0.160
-570.661	277.340	0.234	0.413
-569.646	347.558	-0.121	0.236
-568.631	82.225	-0.125	-0.135
-567.617	-62.343	0.362	-0.150
-566.602	324.764	-0.073	0.138
-565.588	-181.498	-0.105	0.002
-564.573	-200.000	-0.020	0.120
-563.558	-117.793	-0.081	-0.014
-562.544	94.004	0.092	0.104
-561.529	106.038	-0.159	0.187
-560.515	-126.398	-0.152	-0.023
-559.500	-200.000	-0.019	-0.167
-558.485	44.907	0.195	0.178
-557.471	-200.000	0.036	-0.278
-556.456	308.667	0.173	-0.321
-555.442	321.505	0.088	-0.166
-554.427	282.121	-0.134	-0.239
-553.412	-64.627	0.280	0.113
-552.398	-72.357	0.196	-0.072
-551.383	50.792	0.087	-0.081
-550.369	59.391	-0.041	-0.040
-549.354	-160.861	0.110	0.006
-548.339	45.253	0.070	0.064
-547.325	46.573	0.170	0.157
-546.310	258.173	0.085	-0.145
-545.296	-83.844	0.156	0.049
-544.281	-13.117	0.301	0.194
-543.266	251.392	0.158	0.268
-542.252	394.436	-0.184	-0.381
-541.237	106.226	0.181	0.212
-540.223	-119.226	0.195	-0.034
-539.208	-31.319	-0.063	0.035
-538.193	-40.542	0.066	-0.034
-537.179	-200.000	-0.040	-0.221
-536.164	-200.000	-0.013	-0.256
-535.150	-48.814	-0.068	0.032
-534.135	-144.607	-0.273	0.025
-533.121	534.189	0.039	-0.091
-532.106	-133.450	0.166	0.021
-531.091	439.890	-0.192	0.416
-530.077	-121.532	-0.236	0.039
-529.062	-30.368	0.267	-0.150
-528.048	47.453	-0.394	-0.364
-527.033	665.456	-0.045	-0.115
-526.018	800.000	0.041	0.151
-525.004	-93.018	0.260	-0.072
-523.989	155.434	0.125	0.170
-522.975	663.012	-0.111	-0.285
-521.960	800.000	0.067	-0.286
-520.945	-154.835	0.244	0.016
-519.931	45.720	0.117	0.107
-518.916	12.735	0.044	0.034
-517.902	165.067	-0.113	-0.158
-516.887	-77.645	0.109	-0.037
-515.872	-8.063	0.165	0.111
-514.858	183.116	0.074	-0.109
-513.843	228.948	0.087	0.141
-512.829	98.732	0.047	-0.053
-511.814	90.303	-0.163	-0.181
-510.799	23.992	-0.076	0.062
-509.785	-200.000	0.022	-0.172
-508.770	-98.590	-0.600	-0.152
-507.756	-66.857	0.232	0.091
-506.741	-200.000	-0.014	0.285
-505.726	800.000	0.059	0.210
-504.712	198.270	-0.268	-0.406
-503.697	-44.191	0.016	0.008
-502.683	364.261	-0.077	-0.153
-501.668	-161.734	-0.089	0.004
-500.653	-143.767	-0.047	0.004
-499.639	84.011	0.330	-0.357
-498.624	-200.000	-0.017	0.203
-497.610	214.688	0.134	0.210
-496.595	18.936	-0.231	0.183
-495.581	-106.726	-0.255	0.056
-494.566	-96.662	0.705	-0.184
-493.551	212.853	-0.083	-0.129
-492.537	-32.785	-0.196	-0.108
-491.522	-76.819	-0.182	-0.063
-490.508	72.938	0.032	0.033
-489.493	-200.000	0.003	-0.157
-488.478	-94.445	-0.079	-0.021
-487.464	797.212	-0.112	0.306
-486.449	185.599	-0.109	0.161
-485.435	103.520	0.167	0.194
-484.420	94.615	-0.041	-0.046
-483.405	-73.019	-0.113	-0.041
-482.391	-200.000	-0.016	0.088
-481.376	-25.885	0.254	0.148
-480.362	612.681	0.039	-0.097
-479.347	69.896	0.212	-0.216
-478.332	-122.138	0.135	-0.022
-477.318	118.920	0.181	0.222
-476.303	-200.000	-0.051	0.262
-475.289	-21.319	0.225	-0.136
-474.274	-147.056	-0.238	0.020
-473.259	-200.000	-0.015	0.065
-472.245	53.366	-0.228	-0.216
-471.230	-48.311	0.282	0.135
-470.216	16.571	0.163	-0.128
-469.201	321.638	0.208	0.391
-468.186	236.634	0.149	-0.244
-467.172	800.000	-0.050	-0.158
-466.157	-80.165	0.081	0.027
-465.143	-200.000	-0.022	-0.140
-464.128	-98.241	-0.142	0.036
-463.113	-181.694	-0.192	-0.004
-462.099	-98.199	0.175	0.044
-461.084	153.574	0.077	0.104
-460.070	-137.736	0.204	0.023
-459.055	-96.893	-0.323	0.084
-458.040	-18.757	-0.070	0.043
-457.026	800.000	-0.064	0.186
-456.011	144.167	-0.117	-0.154
-454.997	102.769	0.040	-0.046
-453.982	-138.666	-0.292	0.032
-452.968	800.000	-0.051	-0.142
-451.953	4.165	-0.123	-0.089
-450.938	-200.000	-0.035	-0.183
-449.924	-200.000	0.021	0.135
-448.909	342.483	0.184	0.355
-447.895	-7.750	0.156	-0.104
-446.880	-200.000	-0.072	0.348
-445.865	179.485	-0.195	0.282
-444.851	-200.000	0.010	0.319
-443.836	-29.154	0.302	0.171
-442.822	75.175	0.176	-0.183
-441.807	-53.852	-0.172	0.077
-440.792	-62.583	0.172	0.070
-439.778	800.000	0.052	-0.153
-438.763	800.000	0.052	-0.201
-437.749	-114.545	0.136	0.026
-436.734	-200.000	-0.013	-0.060
-435.719	739.055	-0.128	0.339
-434.705	430.942	-0.110	-0.235
-433.690	-97.329	-0.149	-0.038
-432.676	-200.000	0.040	0.214
-431.661	228.794	-0.053	0.085
-430.646	38.712	-0.345	0.304
-429.632	-121.170	0.116	0.019
-428.617	-71.074	0.170	0.063
-427.603	-11.444	-0.337	0.219
-426.588	-109.463	0.293	-0.061
-425.573	-52.643	-0.024	0.011
-424.559	527.236	-0.188	0.437
-423.544	147.474	-0.177	-0.235
-422.530	193.082	-0.038	-0.057
-421.515	56.500	-0.147	-0.141
-420.500	338.095	0.023	0.044
-419.486	-99.951	-0.328	0.081
-418.471	-30.888	0.334	0.186
-417.457	225.141	0.168	-0.268
-416.442	21.294	0.023	0.019
-415.428	-126.492	-0.115	0.017
-414.413	-200.000	0.032	-0.226
-413.398	-16.586	-0.416	0.260
-412.384	-133.978	-0.443	-0.054
-411.369	-124.606	0.177	-0.027
-410.355	79.118	-0.245	0.259
-409.340	800.000	0.051	0.207
-408.325	-200.000	0.003	-0.423
-407.311	-200.000	-0.040	-0.236
-406.296	92.219	-0.161	0.179
-405.282	-200.000	-0.029	-0.155
-404.267	-130.449	-0.423	-0.057
-403.252	291.094	0.159	-0.285
-402.238	-129.257	-0.113	0.015
-401.223	24.665	0.065	0.053
-400.209	-47.050	-0.323	-0.155
-399.194	546.549	0.080	-0.188
-398.179	-55.554	0.269	0.119
-397.165	-81.433	-0.056	0.018
-396.150	800.000	-0.040	0.144
-395.136	173.118	0.119	0.169
-394.121	237.315	-0.152	-0.249
-393.106	126.860	-0.161	0.201
-392.092	-200.000	0.008	-0.050
-391.077	230.811	-0.033	-0.053
-390.063	-156.348	0.216	-0.013
-389.048	-200.000	0.017	-0.081
-388.033	347.162	-0.095	0.184
-387.019	398.892	0.120	-0.249
-386.004	209.733	-0.107	-0.165
-384.990	110.927	-0.160	-0.190
-383.975	-200.000	-0.024	-0.347
-382.960	57.763	0.140	0.135
-381.946	418.813	0.134	0.282
-380.931	800.000	-0.095	0.262
-379.917	70.437	-0.074	0.076
-378.902	20.121	-0.045	0.036
-377.888	198.048	-0.058	0.088
-376.873	-130.650	0.098	0.013
-375.858	16.234	0.045	0.035
-374.844	57.712	-0.131	0.126
-373.829	366.891	-0.064	-0.128
-372.815	-28.119	-0.106	0.060
-371.800	-200.000	0.018	0.237
-370.785	-106.318	0.146	0.032
-369.771	-83.120	0.320	-0.102
-368.756	42.969	0.323	-0.290
-367.742	-200.000	-0.028	0.407
-366.727	220.955	-0.046	-0.073
-365.712	-9.812	-0.012	0.008
-364.698	-19.175	0.181	0.111
-363.683	-73.051	0.140	0.051
-362.669	-101.491	-0.389	0.093
-361.654	-21.886	-0.085	0.051
-360.639	-96.259	0.058	0.015
-359.625	173.621	-0.046	-0.066
-358.610	800.000	-0.067	0.209
-357.596	-200.000	0.003	-0.086
-356.581	-200.000	0.004	-0.226
-355.566	-45.921	-0.107	-0.052
-354.552	-93.263	0.196	-0.054
-353.537	13.991	0.397	-0.304
-352.523	-89.195	0.234	0.068
-351.508	-108.037	0.250	0.053
-350.493	-10.988	-0.021	-0.014
-349.479	-200.000	-0.026	-0.209
-348.464	53.672	-0.247	-0.233
-347.450	230.297	-0.070	0.112
-346.435	-76.405	-0.394	0.136
-345.420	-58.762	-0.200	-0.085
-344.406	-130.430	0.219	0.029
-343.391	537.406	-0.047	-0.109
-342.377	-200.000	0.012	-0.217
-341.362	-100.889	0.540	0.131
-340.348	477.416	-0.129	0.287
-339.333	-200.000	0.028	0.157
-338.318	145.933	-0.136	0.179
-337.304	363.908	-0.030	0.059
-336.289	264.680	-0.092	-0.158
-335.275	231.245	-0.201	0.325
-334.260	-200.000	-0.027	0.462
-333.245	-92.588	-0.253	-0.070
-332.231	-10.182	-0.281	-0.184
-331.216	-200.000	0.015	0.142
-330.202	221.409	-0.199	-0.314
-329.187	499.128	-0.146	-0.332
-328.172	800.000	-0.047	-0.200
-327.158	67.967	-0.269	0.271
-326.143	800.000	0.039	-0.110
-325.129	-161.034	0.143	-0.007
-324.114	709.399	0.127	0.332
-323.099	-96.712	-0.203	0.053
-322.085	-131.167	0.429	0.056
-321.070	546.405	0.054	-0.127
-320.056	-200.000	-0.034	-0.383
-319.041	-64.079	0.253	-0.102
-318.026	320.847	0.153	-0.286
-317.012	0.168	0.415	-0.291
-315.997	313.155	0.071	0.130
-314.983	109.896	-0.168	0.199
-313.968	-141.269	-0.222	-0.022
-312.953	-200.000	0.049	-0.323
-311.939	-200.000	0.018	-0.134
-310.924	-118.909	-0.411	-0.071
-309.910	-48.932	-0.236	-0.111
-308.895	84.890	0.041	-0.045
-307.880	-200.000	0.070	0.358
-306.866	3.823	0.248	-0.178
-305.851	-91.264	-0.039	-0.011
-304.837	-200.000	-0.058	-0.282
-303.822	275.140	0.040	-0.070
-302.807	-0.561	0.189	-0.132
-301.793	-187.602	0.129	-0.002
-300.778	-67.316	0.114	-0.044
-299.764	386.564	0.105	0.213
-298.749	-129.442	0.114	0.015
-297.735	60.395	-0.153	-0.149
-296.720	-200.000	-0.003	-0.082
-295.705	34.998	-0.189	-0.163
-294.691	22.979	0.131	0.105
-293.676	452.074	0.088	-0.191
-292.662	-200.000	-0.007	0.246
-291.647	122.306	-0.160	-0.196
-290.632	58.502	-0.064	0.062
-289.618	-84.296	-0.190	-0.059
-288.603	-200.000	-0.028	0.126
-287.589	-150.111	0.307	0.023
-286.574	274.913	-0.096	0.167
-285.559	364.569	-0.142	0.280
-284.545	9.873	0.245	-0.183
-283.530	-38.116	-0.253	0.132
-282.516	800.000	-0.165	0.551
-281.501	99.539	0.107	-0.121
-280.486	146.067	-0.073	-0.097
-279.472	56.813	0.121	0.116
-278.457	135.145	0.237	-0.303
-277.443	-82.430	0.287	-0.092
-276.428	316.317	0.139	0.258
-275.413	350.774	0.060	-0.117
-274.399	800.000	0.156	-0.424
-273.384	-1.436	0.172	0.119
-272.370	800.000	0.045	0.152
-271.355	112.141	0.192	-0.228
-270.340	800.000	0.099	-0.372
-269.326	52.801	-0.115	0.108
-268.311	568.186	0.080	-0.191
-267.297	21.087	0.160	-0.128
-266.282	800.000	-0.014	-0.057
-265.267	-22.230	0.186	-0.111
-264.253	160.947	0.189	-0.259
-263.238	-93.366	-0.199	-0.054
-262.224	196.231	0.216	0.323
-261.209	-36.136	0.080	-0.043
-260.195	20.862	-0.130	0.103
-259.180	180.724	0.277	-0.399
-258.165	171.388	0.060	0.084
-257.151	6.715	-0.242	-0.176
-256.136	-200.000	-0.030	-0.291
-255.122	800.000	0.015	0.041
-254.107	449.589	-0.105	-0.227
-253.092	669.221	-0.107	0.271
-252.078	126.006	0.323	0.400
-251.063	-1.480	0.093	-0.064
-250.049	56.512	-0.188	0.180
-249.034	85.150	0.094	-0.101
-248.019	800.000	-0.043	0.128
-247.005	29.297	-0.436	0.363
-245.990	-141.032	-0.241	-0.024
-244.976	19.191	-0.095	-0.075
-243.961	39.338	0.226	0.199
-242.946	-38.497	-0.141	-0.073
-241.932	93.658	-0.066	0.074
-240.917	238.512	-0.034	-0.055
-239.903	800.000	-0.085	0.273
-238.888	87.193	0.193	-0.209
-237.873	-200.000	0.044	0.220
-236.859	157.968	0.132	0.179
-235.844	800.000	-0.037	-0.136
-234.830	-91.204	0.075	0.021
-233.815	78.287	0.200	-0.209
-232.800	-200.000	-0.034	0.166
-231.786	105.952	0.139	0.162
-230.771	-20.644	0.139	0.083
-229.757	106.098	-0.137	0.160
-228.742	800.000	-0.050	-0.206
-227.727	681.962	0.161	0.410
-226.713	-62.437	0.102	0.042
-225.698	-200.000	0.041	-0.204
-224.684	-125.497	0.141	-0.021
-223.669	-28.719	-0.224	-0.126
-222.655	28.454	-0.178	-0.148
-221.640	16.716	0.122	-0.095
-220.625	11.323	-0.227	0.170
-219.611	76.202	0.236	0.245
-218.596	52.818	0.166	0.155
-217.582	155.471	-0.051	0.069
-216.567	-24.412	0.343	-0.200
-215.552	20.382	-0.047	-0.037
-214.538	-92.050	-0.590	-0.164
-213.523	-45.946	-0.266	-0.128
-212.509	-200.000	0.086	-0.499
-211.494	790.771	-0.078	-0.209
-210.479	226.929	-0.167	0.266
-209.465	-99.478	-0.161	0.040
-208.450	-38.178	-0.306	-0.159
-207.436	27.595	0.259	-0.213
-206.421	233.169	-0.086	-0.138
-205.406	-200.000	-0.039	-0.335
-204.392	374.424	0.143	0.285
-203.377	-12.837	-0.393	0.250
-202.363	509.979	0.071	0.161
-201.348	-157.084	0.179	-0.011
-200.333	-200.000	-0.027	0.137
-199.319	40.910	-0.335	-0.296
-198.304	5.500	-0.041	-0.030
-197.290	-27.400	0.132	0.075
-196.275	-128.048	0.206	0.029
-195.260	-77.058	-0.094	-0.032
-194.246	17.051	0.121	0.094
-193.231	770.793	-0.163	0.433
-192.217	140.270	0.190	0.246
-191.202	-75.580	-0.184	0.064
-190.187	68.048	0.142	0.142
-189.173	-74.506	-0.175	0.062
-188.158	-127.881	0.111	0.016
-187.144	-50.749	0.273	-0.126
-186.129	9.840	0.086	-0.064
-185.114	800.000	0.053	0.145
-184.100	152.410	0.117	0.156
-183.085	-58.901	-0.217	0.092
-182.071	447.281	0.213	0.459
-181.056	56.252	-0.075	-0.071
-180.042	-200.000	-0.011	0.141
-179.027	112.067	-0.089	0.105
-178.012	-57.567	0.099	0.043
-176.998	153.593	0.073	-0.098
-175.983	-34.315	-0.432	0.232
-174.969	-7.347	0.180	-0.119
-173.954	109.420	0.167	-0.196
-172.939	-200.000	0.001	0.133
-171.925	-21.969	-0.135	0.080
-170.910	24.407	-0.019	0.015
-169.896	800.000	0.018	0.060
-168.881	6.743	-0.139	0.101
-167.866	-200.000	0.004	-0.072
-166.852	173.976	0.121	0.172
-165.837	246.619	0.089	-0.146
-164.823	800.000	0.097	0.406
-163.808	-200.000	-0.016	-0.229
-162.793	-200.000	-0.028	-0.302
-161.779	-159.755	0.181	0.010
-160.764	70.967	-0.183	0.185
-159.750	-200.000	0.010	-0.083
-158.735	-107.196	-0.162	0.035
-157.720	-200.000	0.006	0.200
-156.706	-54.838	-0.289	-0.127
-155.691	212.911	-0.145	-0.223
-154.677	-200.000	0.435	0.001
-153.662	800.000	-0.049	-0.135
-152.647	302.737	-0.179	-0.324
-151.633	-81.741	0.074	0.024
-150.618	800.000	0.009	-0.026
-149.604	-200.000	-0.048	0.272
-148.589	800.000	0.015	-0.045
-147.574	296.933	-0.063	0.112
-146.560	-200.000	0.059	0.311
-145.545	49.367	0.307	-0.282
-144.531	-8.481	-0.248	-0.163
-143.516	-71.908	-0.109	0.040
-142.502	76.080	0.182	0.188
-141.487	292.920	-0.153	0.272
-140.472	169.803	0.205	-0.287
-139.458	-135.317	-0.158	-0.018
-138.443	92.959	0.067	-0.074
-137.429	-200.000	-0.026	-0.171
-136.414	-3.447	0.095	-0.064
-135.399	-200.000	-0.009	0.135
-134.385	54.630	0.184	-0.173
-133.370	-200.000	-0.014	0.336
-132.356	-152.621	0.356	0.025
-131.341	-11.440	0.024	0.015
-130.326	-83.545	0.352	0.110
-129.312	-200.000	0.071	0.340
-128.297	505.933	0.128	0.291
-127.283	627.380	0.069	0.171
-126.268	-200.000	0.074	0.441
-125.253	-132.391	0.453	-0.057
-124.239	-200.000	0.037	0.223
-123.224	-9.179	0.154	0.101
-122.210	640.360	-0.047	0.117
-121.195	66.892	0.041	0.041
-120.180	182.641	-0.077	-0.111
-119.166	-99.117	-0.213	-0.053
-118.151	129.104	-0.212	0.264
-117.137	204.957	0.143	-0.216
-116.122	161.981	0.119	0.162
-115.107	-60.779	0.352	0.146
-114.093	43.435	0.259	0.231
-113.078	-66.427	0.018	0.007
-112.064	-83.529	-0.112	0.035
-111.049	-55.896	0.047	-0.020
-110.034	-200.000	-0.002	-0.074
-109.020	-109.727	-0.299	-0.061
-108.005	800.000	-0.012	-0.049
-106.991	228.998	0.022	0.035
-105.976	306.333	0.166	-0.301
-104.962	-200.000	-0.068	-0.394
-103.947	-48.929	0.174	-0.081
-102.932	81.033	0.148	0.155
-101.918	186.866	-0.056	0.082
-100.903	-31.054	-0.077	0.042
-99.889	59.971	0.294	0.284
-98.874	-190.014	0.317	-0.003
-97.859	-83.441	0.100	0.031
-96.845	800.000	-0.059	-0.181
-95.830	-200.000	-0.031	0.382
-94.816	-96.106	0.335	0.087
-93.801	-101.015	0.341	0.082
-92.786	-200.000	0.014	0.311
-91.772	120.590	0.043	-0.052
-90.757	169.037	-0.094	-0.131
-89.743	-59.757	0.529	-0.221
-88.728	-166.995	0.083	-0.003
-87.713	-179.777	0.129	0.003
-86.699	23.906	-0.422	0.339
-85.684	457.050	-0.138	0.299
-84.670	-33.819	0.177	0.095
-83.655	368.711	0.186	-0.367
-82.640	332.144	-0.089	0.167
-81.626	52.122	0.012	0.011
-80.611	-200.000	0.016	-0.184
-79.597	-118.029	-0.396	-0.069
-78.582	-138.583	-0.189	0.020
-77.567	-200.000	-0.001	0.063
-76.553	108.073	0.134	0.155
-75.538	111.135	0.269	0.316
-74.524	800.000	-0.063	0.190
-73.509	-200.000	-0.004	0.212
-72.494	800.000	0.073	0.250
-71.480	224.462	0.092	-0.144
-70.465	-174.318	0.278	0.008
-69.451	-200.000	-0.002	0.074
-68.436	-81.785	0.099	0.032
-67.422	-39.820	-0.236	0.120
-66.407	-77.609	0.221	-0.074
-65.392	-31.850	0.077	-0.042
-64.378	-127.694	0.360	0.051
-63.363	80.554	-0.097	-0.102
-62.349	-142.791	0.163	-0.015
-61.334	162.890	-0.956	-1.307
-60.319	102.429	0.562	0.639
-59.305	800.000	-0.406	-1.146
-58.290	157.478	0.806	1.086
-57.276	212.155	0.619	0.950
-56.261	-200.000	128.385	687.967
-55.246	408.937	1616.104	3329.761
-54.232	138.761	2768.360	3539.278
-53.217	95.480	2180.669	2420.122
-52.203	33.646	1694.256	1433.453
-51.188	26.061	1512.463	1228.185
-50.173	24.199	1487.926	1195.734
-49.159	48.864	1560.623	1425.101
-48.144	45.690	1572.474	1414.010
-47.130	26.235	1520.945	1236.070
-46.115	23.310	1504.930	1203.164
-45.100	23.202	1501.495	1199.645
-44.086	23.155	1499.700	1197.844
-43.071	23.051	1498.315	1195.986
-42.057	22.989	1496.645	1194.184
-41.042	22.983	1495.132	1192.889
-40.027	23.101	1493.085	1192.002
-39.013	22.949	1492.028	1190.092
-37.998	22.999	1490.940	1189.514
-36.984	23.023	1490.044	1188.908
-35.969	23.013	1488.269	1187.383
-34.954	23.029	1487.285	1186.656
-33.940	23.063	1485.450	1185.375
-32.925	23.034	1484.370	1184.267
-31.911	23.034	1483.087	1183.195
-30.896	23.097	1481.224	1182.088
-29.881	23.112	1480.152	1181.283
-28.867	23.124	1479.635	1180.902
-27.852	23.036	1477.722	1178.745
-26.838	23.119	1476.539	1178.308
-25.823	23.116	1475.008	1177.019
-24.809	23.156	1472.868	1175.532
-23.794	23.110	1472.119	1174.582
-22.779	23.134	1470.483	1173.388
-21.765	23.123	1469.514	1172.497
-20.750	23.157	1468.426	1171.803
-19.736	23.047	1467.650	1170.412
-18.721	23.071	1466.174	1169.343
-17.706	23.050	1465.342	1168.494
-16.692	22.894	1464.780	1166.974
-15.677	23.003	1463.460	1166.594
-14.663	23.099	1462.103	1166.102
-13.648	23.111	1461.027	1165.275
-12.633	23.025	1460.565	1164.295
-11.619	23.166	1459.329	1164.185
-10.604	23.146	1458.147	1163.070
-9.590	23.105	1457.720	1162.415
-8.575	23.108	1456.977	1161.791
-7.560	23.049	1455.828	1160.445
-6.546	23.040	1455.481	1160.064
-5.531	22.998	1454.967	1159.332
-4.517	23.105	1453.148	1158.537
-3.502	23.055	1452.880	1157.946
-2.487	23.121	1450.980	1156.817
-1.473	23.074	1450.332	1155.953
-0.458	23.067	1449.183	1154.945
0.556	22.041	1438.938	1143.020
1.571	18.500	1414.833	1101.067
2.586	14.764	1352.811	1029.720
3.600	12.965	1269.559	955.855
4.615	12.050	1226.039	917.881
5.629	10.692	1170.309	868.819
6.644	5.680	1090.102	784.169
7.659	1.361	1055.365	738.155
8.673	0.775	1050.082	731.560
9.688	0.717	1046.988	729.062
10.702	0.780	1045.247	728.087
11.717	0.708	1042.917	726.051
12.731	2.363	1043.918	734.637
13.746	8.197	1050.971	767.677
14.761	14.573	1059.063	804.353
15.775	17.225	1062.259	819.516
16.790	17.004	1061.254	817.602
17.804	16.041	1059.457	811.510
18.819	15.157	1057.487	805.679
19.834	14.809	1055.977	802.787
20.848	14.636	1054.520	800.779
21.863	14.238	1054.229	798.576
22.877	14.007	1053.688	796.988
23.892	13.822	1052.198	794.904
24.907	13.624	1051.924	793.681
25.921	13.785	1050.674	793.439
26.936	13.689	1050.732	792.951
27.950	13.671	1049.680	792.000
28.965	13.695	1049.221	791.701
29.980	13.876	1048.197	791.719
30.994	13.907	1046.998	790.893
32.009	13.954	1046.194	790.437
33.023	14.044	1045.180	790.031
34.038	14.068	1044.232	789.359
35.053	13.984	1043.874	788.618
36.067	13.896	1043.065	787.519
37.082	13.957	1041.905	786.863
38.096	13.820	1041.489	785.833
39.111	13.940	1040.620	785.673
40.126	14.056	1039.353	785.198
41.140	13.923	1038.508	783.858
42.155	13.830	1037.349	782.476
43.169	13.915	1036.690	782.313
44.184	13.735	1035.841	780.753
45.199	13.656	1034.682	779.439
46.213	13.731	1033.087	778.520
47.228	13.740	1033.120	778.521
48.242	13.855	1031.684	777.908
49.257	13.963	1030.795	777.675
50.271	13.945	1029.617	776.633
51.286	13.778	1029.320	775.562
52.301	13.730	1028.718	774.812
53.315	13.954	1027.661	774.995
54.330	13.800	1027.239	773.887
55.344	13.803	1025.686	772.666
56.359	13.778	1024.874	771.870
57.374	13.709	1024.357	771.091
58.388	13.870	1023.219	770.912
59.403	13.870	1022.033	769.952
60.417	13.651	1022.028	768.862
61.432	13.639	1021.500	768.341
62.447	13.694	1020.209	767.557
63.461	13.849	1019.564	767.722
64.476	13.685	1018.750	766.283
65.490	13.705	1017.736	765.543
66.505	13.735	1016.666	764.812
67.520	13.836	1016.036	764.735
68.534	13.799	1015.497	764.091
69.549	13.913	1014.418	763.733
70.563	13.744	1013.934	762.524
71.578	13.752	1013.457	762.139
72.593	13.787	1012.342	761.389
73.607	13.696	1011.352	760.164
74.622	13.760	1010.570	759.802
75.636	13.803	1009.295	758.973
76.651	13.746	1008.377	757.955
77.666	13.608	1008.434	757.298
78.680	13.774	1006.689	756.680
79.695	13.730	1006.772	756.474
80.709	13.613	1006.223	755.460
81.724	13.644	1005.488	754.984
82.739	13.672	1004.579	754.363
83.753	13.830	1004.061	754.625
84.768	13.894	1002.967	754.027
85.782	13.969	1002.301	753.799
86.797	13.906	1001.670	752.970
87.812	13.969	1000.424	752.254
88.826	13.967	999.208	751.265
89.841	13.899	998.920	750.674
90.855	13.836	998.707	750.161
91.870	13.933	997.331	749.498
92.884	13.971	996.878	749.266
93.899	13.947	995.893	748.349
94.914	13.945	995.591	748.047
95.928	14.018	994.960	747.837
96.943	14.021	994.034	747.087
97.957	13.942	993.430	746.211
98.972	13.872	992.632	745.230
99.987	14.015	991.391	744.875
101.001	13.946	991.048	744.245
102.016	14.087	989.810	743.880
103.030	14.011	989.017	742.877
104.045	13.979	988.297	742.127
105.060	13.968	987.204	741.192
106.074	14.057	986.004	740.620
107.089	13.761	985.783	739.074
108.103	13.827	984.575	738.395
109.118	13.788	983.864	737.621
110.133	13.782	983.174	737.015
111.147	13.767	982.471	736.356
112.162	13.978	981.149	736.236
113.176	13.895	980.477	735.296
114.191	13.938	979.486	734.681
115.206	13.950	978.635	734.029
116.220	13.886	977.893	733.125
117.235	13.989	976.957	732.814
118.249	14.003	976.055	732.133
119.264	13.822	975.790	731.070
120.279	13.939	974.502	730.556
121.293	13.918	973.756	729.839
122.308	13.959	972.665	729.140
123.322	13.852	972.606	728.561
124.337	13.992	970.996	727.905
125.352	13.973	969.591	726.704
126.366	13.812	969.315	725.728
127.381	13.937	967.493	724.846
128.395	13.864	967.127	724.187
129.410	14.002	965.769	723.707
130.424	13.849	965.349	722.661
131.439	13.953	964.014	722.054
132.454	13.924	963.434	721.429
133.468	14.042	962.381	721.088
134.483	13.986	961.979	720.481
135.497	13.922	961.474	719.760
136.512	13.961	960.717	719.297
137.527	13.966	959.781	718.557
138.541	13.827	959.730	717.852
139.556	13.931	958.646	717.427
140.570	13.962	957.765	716.837
141.585	14.092	956.722	716.554
142.600	13.991	956.483	715.877
143.614	13.982	955.615	715.124
144.629	14.136	954.945	715.222
145.643	14.217	954.228	714.971
146.658	14.069	953.212	713.510
147.673	14.189	952.445	713.388
148.687	13.947	952.252	712.141
149.702	14.022	951.016	711.479
150.716	14.020	950.351	710.907
151.731	14.089	949.315	710.366
152.746	14.213	948.349	710.109
153.760	14.176	947.522	709.267
154.775	14.059	947.101	708.391
155.789	14.230	946.248	708.420
156.804	14.160	945.616	707.586
157.819	14.223	944.727	707.124
158.833	14.222	944.026	706.532
159.848	14.230	943.177	705.871
160.862	14.348	942.561	705.847
161.877	14.195	941.589	704.409
162.892	14.198	941.083	703.982
163.906	14.060	940.529	702.921
164.921	14.153	939.366	702.380
165.935	14.114	938.462	701.478
166.950	14.292	937.388	701.365
167.964	14.293	936.308	700.499
168.979	14.269	935.537	699.760
169.994	14.266	934.679	699.040
171.008	14.317	933.733	698.487
172.023	14.363	932.896	697.993
173.037	14.387	932.399	697.660
174.052	14.286	931.554	696.542
175.067	14.381	930.860	696.357
176.081	14.262	930.517	695.543
177.096	14.205	929.838	694.737
178.110	14.265	928.548	693.963
179.125	14.296	927.910	693.552
180.140	14.472	926.646	693.278
181.154	14.269	926.857	692.531
182.169	14.495	925.693	692.538
183.183	14.375	925.082	691.523
184.198	14.410	924.144	690.904
185.213	14.455	923.710	690.704
186.227	14.536	922.772	690.280
187.242	14.529	922.506	689.988
188.256	14.512	921.972	689.459
189.271	14.619	920.976	689.093
190.286	14.518	920.446	688.220
191.300	14.531	919.416	687.443
192.315	14.367	919.066	686.446
193.329	14.317	918.222	685.549
194.344	14.443	917.329	685.336
195.359	14.375	917.400	685.052
196.373	14.520	916.380	684.823
197.388	14.502	916.114	684.492
198.402	14.586	915.116	684.027
199.417	14.649	915.216	684.299
200.432	14.640	914.149	683.408
201.446	14.814	913.392	683.490
202.461	14.752	913.490	683.250
203.475	14.761	912.841	682.742
204.490	14.880	912.017	682.550
205.504	14.715	911.734	681.606
206.519	14.748	910.856	681.023
207.534	14.729	909.820	680.109
208.548	14.846	908.998	679.912
209.563	14.814	908.190	679.116
210.577	14.632	908.148	678.288
211.592	14.756	907.397	678.167
212.607	14.861	906.487	677.853
213.621	15.052	905.951	678.166
214.636	14.922	905.482	677.228
215.650	14.849	904.846	676.399
216.665	14.977	904.146	676.334
217.680	14.987	904.141	676.311
218.694	15.009	903.587	675.925
219.709	15.132	902.663	675.670
220.723	14.940	902.083	674.401
221.738	14.980	901.695	674.213
222.753	14.980	900.734	673.434
223.767	14.993	900.098	672.954
224.782	15.044	899.022	672.293
225.796	15.031	898.651	671.904
226.811	15.104	898.076	671.708
227.826	15.194	897.225	671.374
228.840	15.073	896.218	670.075
229.855	14.851	896.146	669.073
230.869	15.136	894.947	669.258
231.884	15.182	894.018	668.687
232.899	15.050	893.614	667.798
233.913	15.131	893.011	667.615
234.928	15.105	892.417	667.009
235.942	15.174	891.525	666.554
236.957	15.048	890.838	665.484
237.972	15.021	890.303	664.918
238.986	15.061	890.070	664.844
240.001	15.154	888.913	664.288
241.015	15.186	888.910	664.352
242.030	15.121	887.741	663.164
243.045	15.214	887.280	663.128
244.059	15.263	886.645	662.790
245.074	15.257	885.720	662.016
246.088	15.279	885.331	661.752
247.103	15.378	884.675	661.596
248.117	15.413	883.983	661.157
249.132	15.226	883.960	660.344
250.147	15.385	883.262	660.390
251.161	15.500	882.493	660.209
252.176	15.564	881.601	659.733
253.190	15.426	881.146	658.794
254.205	15.566	880.632	658.900
255.220	15.619	879.609	658.283
256.234	15.626	879.249	657.983
257.249	15.732	878.616	657.866
258.263	15.503	878.233	656.625
259.278	15.666	877.561	656.702
260.293	15.619	877.509	656.423
261.307	15.750	876.215	655.907
262.322	15.729	875.623	655.324
263.336	15.738	875.364	655.107
264.351	15.783	874.552	654.616
265.366	15.829	874.078	654.384
266.380	15.832	873.591	653.972
267.395	15.948	872.325	653.418
268.409	15.676	871.865	651.961
269.424	15.813	871.245	651.971
270.439	15.861	870.645	651.647
271.453	15.839	869.656	650.766
272.468	15.794	869.017	650.056
273.482	15.808	868.451	649.630
274.497	15.785	867.918	649.083
275.512	15.854	867.499	648.979
276.526	15.856	866.615	648.268
277.541	15.734	866.090	647.348
278.555	15.897	865.207	647.259
279.570	15.962	864.460	646.892
280.585	16.035	864.173	646.899
281.599	16.135	863.649	646.835
282.614	16.112	862.831	646.077
283.628	16.019	862.090	645.107
284.643	16.126	861.548	645.056
285.657	16.091	861.321	644.693
286.672	16.032	861.019	644.186
287.687	16.153	860.106	643.906
288.701	16.069	860.019	643.465
289.716	16.082	859.287	642.910
290.730	16.050	858.716	642.302
291.745	16.207	857.811	642.166
292.760	16.076	857.453	641.344
293.774	16.151	856.556	640.899
294.789	16.335	855.927	641.071
295.803	16.290	855.454	640.489
296.818	16.230	855.073	639.922
297.833	16.223	854.283	639.246
298.847	16.128	853.721	638.411
299.862	16.261	852.898	638.241
300.876	16.245	852.430	637.773
301.891	16.322	851.411	637.244
302.906	16.174	850.886	636.237
303.920	16.367	850.278	636.453
304.935	16.525	849.461	636.382
305.949	16.398	849.479	635.861
306.964	16.508	848.222	635.277
307.979	16.357	847.726	634.284
308.993	16.423	847.555	634.347
310.008	16.531	846.636	634.007
311.022	16.487	846.245	633.495
312.037	16.506	845.926	633.270
313.052	16.493	845.018	632.487
314.066	16.391	844.847	631.921
315.081	16.509	844.020	631.687
316.095	16.426	843.531	630.953
317.110	16.491	842.710	630.527
318.125	16.648	842.373	630.803
319.139	16.426	842.294	629.863
320.154	16.533	841.523	629.627
321.168	16.512	840.950	629.063
322.183	16.657	840.378	629.119
323.197	16.722	839.772	628.853
324.212	16.588	839.102	627.798
325.227	16.728	838.777	628.018
326.241	16.651	838.334	627.345
327.256	16.721	837.532	626.949
328.270	16.680	836.986	626.332
329.285	16.769	836.579	626.303
330.300	16.625	835.849	625.169
331.314	16.681	835.250	624.872
332.329	16.612	834.980	624.360
333.343	16.730	834.090	624.075
334.358	16.770	833.648	623.835
335.373	16.832	832.979	623.508
336.387	16.788	832.704	623.086
337.402	16.832	832.055	622.708
338.416	16.796	831.898	622.400
339.431	16.748	831.409	621.804
340.446	16.903	830.631	621.737
341.460	17.010	829.502	621.227
342.475	17.011	829.310	621.034
343.489	17.005	828.392	620.267
344.504	17.153	827.889	620.378
345.519	17.057	827.729	619.851
346.533	17.010	826.968	619.056
347.548	17.148	826.699	619.304
348.562	17.124	826.238	618.814
349.577	16.988	825.534	617.738
350.592	17.018	825.362	617.663
351.606	16.776	824.899	616.382
352.621	17.149	824.146	617.121
353.635	16.900	824.327	616.296
354.650	16.860	823.783	615.688
355.665	17.077	823.423	616.153
356.679	17.196	822.725	616.009
357.694	17.125	821.940	615.109
358.708	17.312	821.237	615.205
359.723	17.096	820.903	614.119
360.738	17.154	820.237	613.775
361.752	17.239	819.965	613.828
362.767	17.154	819.680	613.253
363.781	17.198	819.012	612.857
364.796	17.266	818.396	612.586
365.810	17.421	817.832	612.669
366.825	17.315	817.844	612.240
367.840	17.371	817.297	611.979
368.854	17.311	816.523	611.130
369.869	17.376	816.357	611.183
370.883	17.357	816.025	610.813
371.898	17.442	814.964	610.269
372.913	17.475	814.799	610.210
373.927	17.322	814.206	609.165
374.942	17.378	813.535	608.810
375.956	17.488	812.746	608.557
376.971	17.576	812.338	608.514
377.986	17.648	811.487	608.078
379.000	17.499	811.496	607.501
380.015	17.737	810.804	607.777
381.029	17.650	810.197	606.959
382.044	17.797	809.523	606.923
383.059	17.739	809.136	606.374
384.073	17.635	808.484	605.461
385.088	17.745	807.905	605.364
386.102	17.608	807.279	604.354
387.117	17.714	806.853	604.360
388.132	17.600	806.786	603.852
389.146	17.826	805.961	603.978
390.161	17.651	805.859	603.230
391.175	17.763	805.208	603.087
392.190	17.801	805.009	603.020
393.205	17.781	804.900	602.814
394.219	17.772	803.899	601.979
395.234	17.731	803.594	601.551
396.248	17.757	803.138	601.248
397.263	17.625	802.522	600.271
398.278	17.678	802.503	600.387
399.292	17.714	801.660	599.832
400.307	17.709	801.346	599.527
401.321	17.682	800.908	599.052
402.336	17.871	800.337	599.234
403.350	17.831	800.021	598.805
404.365	17.936	799.432	598.679
405.380	17.962	798.762	598.215
406.394	17.964	798.993	598.340
407.409	17.947	798.410	597.793
408.423	17.996	797.281	597.066
409.438	18.108	797.175	597.323
410.453	17.977	797.216	596.845
411.467	17.903	796.761	596.193
412.482	18.062	796.230	596.296
413.496	18.159	795.253	595.851
414.511	18.192	795.221	595.890
415.526	18.119	795.107	595.496
416.540	18.135	794.376	594.954
417.555	18.161	794.126	594.804
418.569	18.135	793.668	594.318
419.584	18.137	793.253	593.962
420.599	18.139	792.909	593.659
421.613	116.136	1297.890	1491.947
422.628	100.042	1371.429	1492.026
