DTS Sentinel unit serial number:	SN413079Multiplexer serial number:	ORYXHardware model number:	OX4-SRSoftware version number:	ORYX F/W v4.00 Oryx Data Collector v3.7.2.0data status	okinstallation	princeton_trtdifferential loss correction	single-endedforward channel	channel 3reverse channel	N/Adate	2019/09/19time	07:00:35forward acquisition time	60.00reverse acquisition time	0.00gamma	496.2192k internal	0.2348k external	0.2348temperature offset calibration	0.9984default loss term (dB/km)	0.3790temperature slope calibration	1.0000multiplexer offset coefficient	1.0000multiplexer slope coefficient	1.0000fibre end	0.00T internal ref (°C)	19.00T ext. ref 1 (°C)	0.56T ext. ref 2 (°C)	12.87length (m)	temperature (°C)	Stokes	anti-Stokes-747.200	108.720	0.119	-0.142
-746.185	35.412	-0.218	0.191
-745.171	214.598	-0.110	-0.174
-744.156	-149.130	-0.252	0.020
-743.142	234.514	0.159	-0.262
-742.127	368.531	-0.102	0.207
-741.112	-200.000	0.006	-0.253
-740.098	-200.000	-0.036	0.249
-739.083	128.204	0.231	0.293
-738.069	175.504	-0.225	0.326
-737.054	-117.257	-0.094	-0.017
-736.039	800.000	-0.110	-0.321
-735.025	-200.000	-0.007	-0.085
-734.010	-3.402	-0.315	0.219
-732.996	-55.110	-0.118	0.053
-731.981	40.535	-0.207	-0.186
-730.966	327.099	-0.139	-0.265
-729.952	-200.000	0.036	-0.261
-728.937	800.000	-0.077	-0.290
-727.923	-200.000	-0.007	0.169
-726.908	-200.000	-0.004	-0.074
-725.894	-129.360	0.115	-0.016
-724.879	30.091	-0.225	-0.192
-723.864	71.139	-0.164	0.170
-722.850	145.019	0.177	0.237
-721.835	131.143	-0.038	-0.048
-720.821	91.907	0.125	-0.140
-719.806	-53.535	-0.156	-0.071
-718.791	-121.668	-0.066	0.011
-717.777	-200.000	-0.020	-0.168
-716.762	169.583	-0.118	-0.168
-715.748	-48.502	-0.261	-0.125
-714.733	101.583	-0.037	-0.043
-713.718	-11.993	0.178	0.117
-712.704	328.890	-0.119	-0.228
-711.689	-59.627	-0.252	-0.108
-710.675	-41.870	0.310	-0.158
-709.660	-200.000	0.006	0.084
-708.645	447.164	0.102	0.224
-707.631	91.996	0.094	0.105
-706.616	-101.971	-0.345	0.083
-705.602	-112.167	-0.315	-0.063
-704.587	-200.000	-0.006	-0.227
-703.572	-67.964	-0.370	-0.144
-702.558	-21.581	0.198	0.121
-701.543	800.000	0.067	-0.253
-700.529	701.414	0.079	-0.208
-699.514	-36.601	-0.138	-0.074
-698.499	-78.517	0.424	0.145
-697.485	-28.104	0.201	-0.116
-696.470	-200.000	0.027	0.000
-695.456	410.099	-0.130	-0.275
-694.441	-90.826	0.055	-0.016
-693.426	128.293	-0.095	0.120
-692.412	106.844	0.118	-0.139
-691.397	800.000	-0.158	-0.481
-690.383	-11.311	0.208	-0.136
-689.368	151.245	0.139	0.189
-688.354	-45.788	-0.155	-0.076
-687.339	-172.139	-0.255	-0.008
-686.324	-200.000	-0.052	0.266
-685.310	-54.206	0.306	-0.139
-684.295	-200.000	0.007	-0.304
-683.281	-200.000	0.013	-0.208
-682.266	-200.000	0.056	-0.356
-681.251	-45.254	-0.183	0.090
-680.237	-106.189	0.415	0.093
-679.222	-46.742	0.266	-0.130
-678.208	107.577	-0.230	0.273
-677.193	-105.620	0.091	0.020
-676.178	-153.657	-0.182	0.013
-675.164	800.000	-0.056	0.243
-674.149	-48.852	0.179	0.085
-673.135	184.108	0.220	0.325
-672.120	106.670	-0.225	-0.266
-671.105	152.840	-0.108	-0.147
-670.091	143.774	0.057	0.075
-669.076	223.203	-0.128	-0.205
-668.062	220.639	0.133	-0.212
-667.047	50.667	-0.080	-0.075
-666.032	537.128	-0.050	-0.119
-665.018	800.000	0.044	-0.152
-664.003	-163.558	0.128	-0.006
-662.989	37.932	0.251	-0.222
-661.974	-104.984	-0.064	-0.014
-660.959	41.727	-0.284	-0.256
-659.945	-115.482	0.088	-0.016
-658.930	186.275	0.188	-0.278
-657.916	7.097	-0.253	-0.188
-656.901	728.369	0.006	0.017
-655.886	-112.585	0.270	0.054
-654.872	-39.530	-0.112	-0.059
-653.857	170.650	-0.109	-0.155
-652.843	800.000	0.106	-0.395
-651.828	-40.332	0.295	-0.153
-650.814	-200.000	0.094	-0.434
-649.799	-167.579	0.230	0.009
-648.784	-6.256	-0.181	-0.123
-647.770	800.000	0.071	-0.289
-646.755	-35.902	0.330	-0.178
-645.741	-111.049	-0.220	-0.045
-644.726	-121.454	-0.033	-0.005
-643.711	-2.958	-0.078	0.054
-642.697	15.584	-0.183	-0.143
-641.682	-200.000	0.015	-0.192
-640.668	-200.000	0.018	-0.286
-639.653	186.998	0.048	-0.072
-638.638	-43.680	-0.362	0.182
-637.624	-62.413	0.234	-0.097
-636.609	800.000	0.048	-0.138
-635.595	-93.913	0.089	0.024
-634.580	-21.170	-0.160	0.097
-633.565	-69.213	-0.357	-0.137
-632.551	-200.000	0.016	-0.494
-631.536	-200.000	0.015	-0.356
-630.522	36.254	-0.108	-0.095
-629.507	800.000	-0.051	-0.200
-628.492	-200.000	0.069	0.465
-627.478	226.332	-0.082	0.133
-626.463	58.732	-0.286	0.279
-625.449	-184.340	0.215	-0.004
-624.434	-137.127	-0.055	0.006
-623.419	123.797	-0.102	0.127
-622.405	-146.569	0.128	-0.011
-621.390	-200.000	0.555	-0.002
-620.376	800.000	-0.053	-0.166
-619.361	-200.000	-0.019	0.184
-618.346	23.569	0.133	-0.109
-617.332	452.169	0.035	0.078
-616.317	-1.268	-0.129	-0.091
-615.303	40.073	0.327	-0.292
-614.288	800.000	-0.072	-0.260
-613.273	-42.583	-0.272	0.138
-612.259	-145.104	-0.153	-0.014
-611.244	649.534	0.074	0.187
-610.230	-54.027	0.185	0.084
-609.215	800.000	-0.081	-0.286
-608.201	-39.073	0.168	0.088
-607.186	-200.000	0.024	-0.246
-606.171	73.219	-0.077	-0.080
-605.157	-72.371	0.249	-0.091
-604.142	-200.000	-0.026	0.279
-603.128	157.117	-0.173	-0.238
-602.113	-39.300	-0.161	0.084
-601.098	800.000	0.107	-0.310
-600.084	800.000	0.093	-0.328
-599.069	67.523	0.085	0.086
-598.055	-186.069	-0.089	0.001
-597.040	-37.165	-0.157	0.084
-596.025	-40.985	-0.285	0.146
-595.011	-74.527	-0.202	-0.072
-593.996	-200.000	0.065	-0.324
-592.982	-200.000	-0.012	-0.156
-591.967	212.854	0.145	0.228
-590.952	-60.294	-0.019	-0.008
-589.938	-16.622	-0.238	0.149
-588.923	90.616	0.028	0.031
-587.909	-96.024	0.186	-0.049
-586.894	-71.299	0.273	-0.102
-585.879	137.839	-0.078	0.102
-584.865	-73.183	0.055	-0.020
-583.850	-29.555	0.170	0.097
-582.836	-72.557	0.223	-0.082
-581.821	4.348	0.060	-0.044
-580.806	-66.687	-0.299	0.118
-579.792	75.080	-0.180	0.188
-578.777	800.000	-0.118	-0.343
-577.763	62.139	0.154	0.153
-576.748	-115.078	-0.156	0.029
-575.733	800.000	0.081	0.344
-574.719	800.000	-0.091	0.298
-573.704	-151.853	-0.300	0.022
-572.690	-95.380	-0.325	0.087
-571.675	49.961	0.066	0.062
-570.661	434.054	-0.131	-0.282
-569.646	1.904	0.036	-0.026
-568.631	114.095	0.023	-0.027
-567.617	669.643	0.095	0.243
-566.602	-46.907	0.259	0.125
-565.588	-200.000	-0.021	0.129
-564.573	72.083	0.089	-0.092
-563.558	314.548	-0.032	-0.060
-562.544	-200.000	0.038	0.243
-561.529	-80.189	-0.358	0.119
-560.515	-4.080	-0.015	-0.010
-559.500	-57.789	-0.506	0.220
-558.485	-200.000	0.034	-0.211
-557.471	-104.643	-0.151	0.035
-556.456	-109.589	-0.241	-0.050
-555.442	225.575	0.066	-0.107
-554.427	368.910	-0.135	0.270
-553.412	-149.952	-0.163	0.013
-552.398	-145.600	-0.352	0.031
-551.383	-64.020	0.051	0.021
-550.369	-24.895	-0.127	-0.075
-549.354	-133.225	0.217	-0.027
-548.339	84.166	0.218	0.236
-547.325	10.084	0.304	0.229
-546.310	800.000	0.050	0.158
-545.296	-128.034	-0.269	0.038
-544.281	-4.157	0.255	-0.175
-543.266	74.222	0.073	-0.076
-542.252	-143.102	0.258	0.025
-541.237	-131.185	0.181	0.024
-540.223	147.589	0.137	-0.183
-539.208	83.030	0.123	0.132
-538.193	17.351	-0.434	0.341
-537.179	-15.395	-0.058	-0.037
-536.164	29.028	-0.237	-0.199
-535.150	-200.000	0.034	-0.243
-534.135	39.446	-0.235	0.208
-533.121	339.801	0.047	0.090
-532.106	-200.000	-0.058	-0.355
-531.091	-171.182	-0.174	-0.006
-530.077	167.839	-0.252	0.355
-529.062	-200.000	0.002	-0.043
-528.048	521.893	-0.095	-0.222
-527.033	800.000	-0.044	-0.134
-526.018	800.000	-0.060	-0.251
-525.004	-200.000	-0.050	0.278
-523.989	539.961	-0.082	0.192
-522.975	35.157	-0.002	-0.002
-521.960	-62.214	-0.349	0.144
-520.945	-3.526	0.277	-0.191
-519.931	2.715	-0.202	0.145
-518.916	-200.000	-0.013	0.080
-517.902	-200.000	-0.002	-0.281
-516.887	-94.238	-0.309	-0.084
-515.872	362.523	0.044	-0.087
-514.858	51.975	-0.050	0.047
-513.843	800.000	0.191	-0.590
-512.829	-54.053	0.110	0.050
-511.814	325.252	0.161	-0.304
-510.799	-152.971	-0.090	-0.006
-509.785	183.783	0.187	0.273
-508.770	-161.376	0.143	-0.007
-507.756	80.348	0.202	0.215
-506.741	65.632	-0.194	-0.194
-505.726	22.202	-0.315	0.254
-504.712	235.910	0.085	-0.139
-503.697	-29.693	-0.335	-0.189
-502.683	136.258	0.044	0.057
-501.668	347.112	-0.220	0.428
-500.653	86.665	-0.150	0.164
-499.639	0.023	-0.203	0.143
-498.624	800.000	-0.070	0.211
-497.610	-183.339	-0.252	0.004
-496.595	-198.300	-0.253	0.001
-495.581	-200.000	-0.035	-0.337
-494.566	-200.000	0.026	0.245
-493.551	-200.000	0.003	-0.209
-492.537	-97.004	0.154	-0.040
-491.522	81.390	0.181	-0.194
-490.508	145.248	0.128	-0.170
-489.493	-200.000	-0.002	-0.080
-488.478	241.322	-0.090	0.148
-487.464	398.686	-0.143	-0.295
-486.449	415.230	-0.142	0.299
-485.435	415.307	-0.219	0.461
-484.420	122.618	-0.106	0.132
-483.405	-88.566	0.238	0.070
-482.391	-3.906	0.069	0.047
-481.376	149.270	0.158	-0.211
-480.362	-200.000	-0.010	-0.084
-479.347	-200.000	0.067	0.335
-478.332	156.269	-0.216	0.294
-477.318	-175.596	0.237	-0.006
-476.303	87.605	-0.034	0.037
-475.289	278.803	0.094	-0.165
-474.274	241.814	-0.176	-0.292
-473.259	506.152	-0.132	-0.303
-472.245	-200.000	0.026	0.143
-471.230	800.000	-0.097	0.323
-470.216	-40.266	-0.423	0.218
-469.201	6.012	0.094	0.069
-468.186	-96.508	0.132	-0.034
-467.172	-21.713	0.147	-0.088
-466.157	-40.710	0.162	0.083
-465.143	-200.000	-0.011	0.125
-464.128	420.852	-0.044	-0.094
-463.113	-200.000	-0.030	0.166
-462.099	88.439	0.050	0.055
-461.084	692.902	0.046	0.119
-460.070	21.613	0.237	0.190
-459.055	-26.467	-0.124	0.072
-458.040	669.125	-0.069	0.177
-457.026	-67.591	0.078	0.030
-456.011	52.835	-0.053	-0.050
-454.997	-82.428	0.291	0.093
-453.982	82.235	-0.261	-0.279
-452.968	22.137	0.484	0.390
-451.953	-34.285	-0.066	0.036
-450.938	226.210	-0.151	0.241
-449.924	107.166	0.025	-0.029
-448.909	225.248	-0.132	-0.211
-447.895	144.831	-0.136	-0.179
-446.880	149.260	0.066	-0.088
-445.865	312.545	0.131	0.243
-444.851	-5.036	-0.359	-0.244
-443.836	-200.000	-0.015	0.318
-442.822	154.718	-0.067	-0.091
-441.807	800.000	-0.170	-0.485
-440.792	-51.508	0.106	0.049
-439.778	42.707	-0.096	0.086
-438.763	-200.000	0.021	-0.241
-437.749	-43.653	-0.213	-0.106
-436.734	800.000	-0.030	-0.105
-435.719	-180.753	-0.611	0.012
-434.705	-62.901	-0.043	0.018
-433.690	106.208	0.188	0.219
-432.676	655.016	0.124	-0.315
-431.661	-19.780	-0.079	0.048
-430.646	289.507	0.039	-0.070
-429.632	12.557	0.068	0.052
-428.617	-125.966	-0.097	-0.014
-427.603	-26.256	0.118	-0.068
-426.588	585.330	-0.087	-0.211
-425.573	-135.241	0.034	0.004
-424.559	-200.000	0.057	0.447
-423.544	-10.088	-0.152	-0.099
-422.530	-200.000	-0.087	0.392
-421.515	-3.835	0.050	0.034
-420.500	790.865	-0.022	-0.060
-419.486	461.217	-0.185	0.408
-418.471	-124.534	0.130	-0.020
-417.457	800.000	-0.018	0.052
-416.442	800.000	0.083	0.293
-415.428	-123.633	-0.291	0.046
-414.413	-174.301	0.222	-0.006
-413.398	800.000	0.087	-0.373
-412.384	-23.902	0.236	-0.140
-411.369	-200.000	0.003	-0.170
-410.355	4.570	0.277	0.201
-409.340	-139.685	-0.174	0.018
-408.325	31.368	0.088	-0.074
-407.311	3.338	0.175	0.126
-406.296	32.028	0.059	0.050
-405.282	-151.415	0.075	-0.006
-404.267	-19.166	-0.205	0.126
-403.252	99.283	0.106	-0.121
-402.238	-40.132	-0.300	0.154
-401.223	-200.000	0.012	-0.359
-400.209	-200.000	-0.005	-0.108
-399.194	65.845	0.152	-0.152
-398.179	110.822	0.204	-0.242
-397.165	-49.776	0.114	-0.053
-396.150	23.650	0.178	0.144
-395.136	800.000	-0.035	0.129
-394.121	-93.570	0.102	-0.028
-393.106	540.441	0.025	-0.057
-392.092	150.905	0.254	0.340
-391.077	800.000	0.053	-0.199
-390.063	-200.000	-0.035	-0.204
-389.048	800.000	0.027	0.080
-388.033	-200.000	0.051	0.305
-387.019	-200.000	-0.006	-0.080
-386.004	-200.000	-0.029	0.240
-384.990	-200.000	-0.003	-0.049
-383.975	90.347	0.257	0.284
-382.960	134.076	-0.110	0.140
-381.946	694.064	-0.061	-0.158
-380.931	152.180	0.258	-0.347
-379.917	-96.134	0.216	-0.057
-378.902	-83.349	-0.176	0.055
-377.888	-200.000	0.006	-0.298
-376.873	55.721	0.165	-0.158
-375.858	-121.591	-0.319	-0.052
-374.844	-137.489	0.271	0.030
-373.829	-142.103	0.162	-0.016
-372.815	-99.185	-0.251	-0.063
-371.800	-64.013	-0.114	-0.046
-370.785	800.000	-0.066	0.271
-369.771	800.000	0.072	-0.241
-368.756	28.830	-0.244	-0.204
-367.742	-76.738	-0.284	0.098
-366.727	800.000	-0.081	-0.292
-365.712	800.000	0.026	-0.078
-364.698	-200.000	0.020	0.122
-363.683	-200.000	-0.037	-0.253
-362.669	-83.551	-0.110	-0.035
-361.654	-200.000	0.066	0.289
-360.639	11.373	0.085	-0.064
-359.625	7.480	-0.215	-0.158
-358.610	204.159	0.019	0.029
-357.596	-78.826	0.064	-0.022
-356.581	-183.967	0.124	0.002
-355.566	738.134	0.062	0.164
-354.552	68.308	-0.162	0.163
-353.537	-130.249	-0.456	0.061
-352.523	108.615	0.205	0.241
-351.508	-9.610	0.204	-0.134
-350.493	-25.412	-0.278	-0.162
-349.479	800.000	-0.071	0.195
-348.464	108.740	0.257	-0.302
-347.450	-110.621	0.269	0.055
-346.435	800.000	0.064	-0.221
-345.420	-135.021	0.179	0.021
-344.406	-36.941	0.145	-0.077
-343.391	666.117	-0.097	0.246
-342.377	505.471	0.219	-0.498
-341.362	-200.000	0.010	-0.070
-340.348	800.000	0.080	0.249
-339.333	-89.292	-0.420	0.122
-338.318	42.142	0.228	0.204
-337.304	-139.978	0.115	-0.012
-336.289	-90.176	-0.154	-0.044
-335.275	172.581	0.133	0.188
-334.260	800.000	0.117	0.471
-333.245	-200.000	0.003	0.026
-332.231	25.369	-0.046	0.038
-331.216	-49.847	-0.016	0.007
-330.202	22.163	0.078	0.062
-329.187	-159.840	0.082	-0.004
-328.172	800.000	0.064	-0.207
-327.158	-72.756	-0.424	-0.154
-326.143	16.152	-0.190	-0.147
-325.129	-98.658	-0.323	-0.081
-324.114	-56.528	0.314	-0.137
-323.099	-153.018	0.207	0.014
-322.085	-1.021	-0.226	-0.157
-321.070	-174.266	-0.544	0.015
-320.056	-54.249	-0.139	0.062
-319.041	0.147	0.109	-0.076
-318.026	284.754	0.035	-0.061
-317.012	-139.918	0.140	-0.014
-315.997	-200.000	0.012	0.092
-314.983	-200.000	0.013	0.146
-313.968	-1.660	0.168	0.116
-312.953	-70.137	-0.202	-0.075
-311.939	-200.000	0.056	-0.322
-310.924	-64.531	-0.122	-0.049
-309.910	-140.019	0.324	-0.034
-308.895	249.049	-0.005	0.008
-307.880	102.113	0.059	-0.067
-306.866	-13.127	0.328	0.210
-305.851	-86.547	-0.139	-0.042
-304.837	185.737	-0.144	0.210
-303.822	518.531	-0.072	-0.166
-302.807	61.304	0.109	0.107
-301.793	72.724	0.214	0.219
-300.778	137.189	0.078	0.100
-299.764	24.156	-0.408	-0.331
-298.749	50.846	0.203	0.189
-297.735	423.704	-0.127	-0.267
-296.720	-121.859	-0.273	0.044
-295.705	-127.242	0.381	0.055
-294.691	-200.000	0.025	0.368
-293.676	140.310	-0.132	0.171
-292.662	800.000	0.027	0.093
-291.647	-7.646	0.132	-0.088
-290.632	-63.016	-0.192	-0.078
-289.618	228.532	0.076	0.122
-288.603	4.162	-0.032	-0.023
-287.589	-46.201	0.259	0.125
-286.574	558.071	0.038	-0.090
-285.559	-5.749	-0.056	0.038
-284.545	398.656	-0.183	-0.376
-283.530	10.739	-0.053	0.039
-282.516	-143.564	-0.363	-0.034
-281.501	-94.808	0.065	0.017
-280.486	299.101	0.162	-0.293
-279.472	337.882	-0.189	-0.361
-278.457	455.161	0.196	-0.427
-277.443	-164.846	-0.053	0.002
-276.428	298.220	0.173	0.312
-275.413	-150.148	-0.177	0.013
-274.399	-200.000	-0.271	-0.001
-273.384	-29.262	0.191	-0.108
-272.370	284.271	-0.114	0.201
-271.355	800.000	0.042	0.178
-270.340	357.523	0.089	0.173
-269.326	-200.000	0.003	-0.239
-268.311	-93.596	0.310	-0.084
-267.297	-200.000	-0.039	0.195
-266.282	117.633	-0.169	-0.204
-265.267	213.813	-0.150	-0.233
-264.253	-170.105	0.212	-0.007
-263.238	-117.117	0.332	0.059
-262.224	380.977	-0.133	0.267
-261.209	-200.000	-0.026	0.243
-260.195	65.176	-0.151	-0.150
-259.180	-152.268	0.276	0.020
-258.165	-33.193	-0.220	0.120
-257.151	-20.480	-0.392	0.236
-256.136	800.000	0.041	0.176
-255.122	389.338	0.069	-0.139
-254.107	-0.499	-0.241	-0.168
-253.092	294.245	-0.159	-0.285
-252.078	-181.980	0.421	-0.008
-251.063	-172.334	0.165	0.005
-250.049	-200.000	-0.006	-0.213
-249.034	-112.132	0.363	-0.071
-248.019	-79.506	-0.283	-0.094
-247.005	-200.000	0.011	-0.058
-245.990	-11.858	0.222	-0.142
-244.976	-200.000	-0.023	-0.103
-243.961	-134.561	0.199	-0.024
-242.946	392.776	-0.059	0.119
-241.932	66.829	-0.139	0.138
-240.917	-72.924	0.436	-0.157
-239.903	456.250	0.091	0.199
-238.888	-200.000	-0.015	-0.183
-237.873	-1.414	-0.241	-0.167
-236.859	244.907	-0.161	0.265
-235.844	-150.383	-0.245	0.018
-234.830	109.608	-0.316	0.371
-233.815	0.234	0.140	0.098
-232.800	800.000	0.031	-0.098
-231.786	797.480	0.108	-0.290
-230.771	-62.544	0.143	-0.058
-229.757	75.486	0.121	-0.126
-228.742	5.105	0.162	0.117
-227.727	-130.354	-0.341	0.045
-226.713	219.708	-0.159	-0.249
-225.698	27.315	0.103	-0.085
-224.684	-200.000	0.033	-0.372
-223.669	141.676	-0.376	0.488
-222.655	800.000	-0.094	-0.271
-221.640	-171.132	0.281	-0.009
-220.625	-110.157	0.260	-0.053
-219.611	-46.290	-0.299	-0.144
-218.596	-200.000	-0.011	-0.530
-217.582	-124.409	-0.312	0.048
-216.567	-200.000	0.001	-0.209
-215.552	165.333	-0.020	0.027
-214.538	-200.000	0.039	0.322
-213.523	6.079	0.353	-0.256
-212.509	169.520	0.087	-0.121
-211.494	-120.594	0.346	-0.057
-210.479	59.787	0.314	0.303
-209.465	36.081	-0.070	-0.060
-208.450	-83.753	0.189	-0.059
-207.436	-33.027	0.238	-0.129
-206.421	-200.000	-0.010	0.116
-205.406	-142.740	0.218	0.021
-204.392	-72.279	-0.146	-0.053
-203.377	-80.404	0.323	0.105
-202.363	154.644	0.174	0.233
-201.348	182.126	-0.255	0.368
-200.333	-200.000	-0.024	0.184
-199.319	800.000	-0.007	-0.024
-198.304	464.714	0.016	0.034
-197.290	-200.000	0.007	0.163
-196.275	-200.000	0.006	-0.111
-195.260	175.145	-0.025	0.035
-194.246	800.000	0.039	0.119
-193.231	132.648	0.019	0.024
-192.217	61.852	0.139	0.135
-191.202	-93.237	0.242	-0.066
-190.187	-200.000	-0.051	0.588
-189.173	34.576	-0.261	0.223
-188.158	-106.713	0.337	0.073
-187.144	-1.899	0.277	-0.190
-186.129	35.345	-0.117	0.100
-185.114	-152.157	0.281	0.020
-184.100	-152.657	-0.119	0.008
-183.085	294.777	-0.055	0.098
-182.071	-200.000	0.000	-0.345
-181.056	-155.571	-0.105	0.007
-180.042	714.607	0.044	-0.115
-179.027	-200.000	0.011	0.237
-178.012	392.357	-0.018	0.037
-176.998	-163.369	0.244	-0.011
-175.983	34.591	0.271	0.232
-174.969	362.034	-0.203	0.397
-173.954	-22.254	0.054	-0.032
-172.939	-200.000	0.022	0.157
-171.925	158.179	-0.026	0.036
-170.910	324.709	-0.084	0.157
-169.896	441.153	0.082	-0.174
-168.881	31.196	-0.194	-0.163
-167.866	206.856	-0.122	0.186
-166.852	323.788	0.050	-0.093
-165.837	-97.230	0.400	-0.102
-164.823	-200.000	-0.337	0.002
-163.808	-87.028	0.213	-0.063
-162.793	-114.759	0.365	0.068
-161.779	-200.000	-0.014	-0.142
-160.764	-72.275	0.488	-0.176
-159.750	-200.000	-0.062	0.312
-158.735	-152.470	-0.139	-0.010
-157.720	29.598	-0.106	0.088
-156.706	-19.462	0.253	-0.153
-155.691	-200.000	0.016	-0.102
-154.677	-124.435	0.442	-0.067
-153.662	776.831	0.090	0.239
-152.647	719.063	0.018	-0.046
-151.633	31.041	0.144	0.121
-150.618	-200.000	0.005	0.083
-149.604	487.565	0.045	0.101
-148.589	303.794	0.142	-0.256
-147.574	-88.844	-0.165	0.048
-146.560	-136.003	0.127	0.015
-145.545	50.931	0.258	0.238
-144.531	146.639	0.138	-0.181
-143.516	-53.005	-0.213	0.095
-142.502	800.000	-0.031	-0.124
-141.487	744.974	0.108	0.283
-140.472	-94.804	-0.202	-0.054
-139.458	289.747	0.095	-0.168
-138.443	-200.000	-0.082	-0.358
-137.429	305.405	-0.030	0.054
-136.414	347.162	-0.089	0.171
-135.399	-152.358	0.124	0.009
-134.385	-200.000	-0.006	-0.383
-133.370	-153.190	0.239	0.016
-132.356	64.565	-0.130	0.127
-131.341	70.442	0.190	0.192
-130.326	-121.261	0.086	0.014
-129.312	-98.435	-0.312	0.078
-128.297	-10.557	0.183	-0.118
-127.283	-89.866	-0.122	0.035
-126.268	-200.000	-0.028	-0.229
-125.253	800.000	0.091	-0.297
-124.239	106.401	-0.203	-0.234
-123.224	70.373	0.196	-0.197
-122.210	-163.983	-0.332	0.015
-121.195	468.058	-0.072	0.157
-120.180	399.242	0.131	-0.268
-119.166	59.215	0.158	-0.152
-118.151	-165.617	0.089	0.004
-117.137	-42.051	-0.388	0.194
-116.122	-109.981	0.117	-0.024
-115.107	-56.514	-0.236	0.102
-114.093	-166.659	0.135	-0.005
-113.078	-200.000	0.000	0.050
-112.064	464.795	0.056	0.122
-111.049	174.227	-0.068	-0.095
-110.034	204.156	0.186	-0.280
-109.020	800.000	-0.048	-0.198
-108.005	15.379	0.043	-0.033
-106.991	-123.125	0.168	-0.026
-105.976	-78.573	0.343	-0.114
-104.962	-200.000	0.029	-0.298
-103.947	425.535	0.106	0.222
-102.932	12.142	-0.191	-0.143
-101.918	178.659	0.086	-0.123
-100.903	238.766	-0.116	-0.188
-99.889	-144.643	0.233	-0.021
-98.874	-200.000	-0.027	-0.142
-97.859	-112.632	-0.256	0.050
-96.845	240.150	-0.104	-0.169
-95.830	225.316	-0.106	-0.168
-94.816	-142.078	-0.378	-0.037
-93.801	360.510	0.127	-0.248
-92.786	279.554	-0.016	-0.027
-91.772	-200.000	-0.016	0.164
-90.757	-75.334	-0.167	0.058
-89.743	3.471	-0.321	0.228
-88.728	-73.537	0.202	0.072
-87.713	-66.316	0.179	-0.069
-86.699	87.958	0.066	-0.071
-85.684	800.000	0.045	0.155
-84.670	-119.103	0.093	0.016
-83.655	800.000	0.065	-0.209
-82.640	149.180	0.245	0.323
-81.626	800.000	0.048	0.153
-80.611	800.000	0.017	-0.061
-79.597	-200.000	0.030	0.187
-78.582	-75.103	-0.321	0.112
-77.567	-78.497	0.142	-0.047
-76.553	202.961	0.135	0.204
-75.538	-48.952	-0.309	0.144
-74.524	473.669	-0.056	0.124
-73.509	-200.000	0.011	-0.047
-72.494	479.037	-0.125	0.275
-71.480	-200.000	0.011	0.060
-70.465	-1.924	0.304	0.208
-69.451	-65.264	-0.215	0.084
-68.436	-42.714	0.081	0.040
-67.422	-71.588	0.068	-0.025
-66.407	207.417	0.047	-0.071
-65.392	229.404	-0.127	-0.202
-64.378	577.973	-0.143	-0.339
-63.363	-29.567	-0.287	0.160
-62.349	-200.000	0.033	0.147
-61.334	500.524	-0.692	-1.553
-60.319	541.096	0.428	0.992
-59.305	800.000	-0.322	-1.303
-58.290	365.425	0.794	1.555
-57.276	-200.000	0.304	1.589
-56.261	-200.000	136.200	631.062
-55.246	347.857	1634.650	3132.822
-54.232	138.509	2769.957	3535.796
-53.217	80.859	2175.598	2282.043
-52.203	28.700	1696.634	1396.771
-51.188	21.890	1522.561	1206.742
-50.173	20.393	1502.187	1180.377
-49.159	43.734	1578.531	1404.780
-48.144	39.519	1588.728	1384.267
-47.130	21.767	1538.335	1218.199
-46.115	19.305	1522.711	1188.818
-45.100	19.067	1519.088	1184.301
-44.086	19.033	1516.747	1182.200
-43.071	19.045	1514.767	1180.688
-42.057	18.986	1513.748	1179.444
-41.042	19.078	1512.150	1178.782
-40.027	19.024	1510.686	1177.226
-39.013	18.889	1509.048	1174.977
-37.998	18.965	1508.194	1174.790
-36.984	18.881	1507.403	1173.551
-35.969	18.905	1505.893	1172.493
-34.954	18.984	1504.064	1171.561
-33.940	18.934	1502.800	1170.192
-32.925	18.915	1502.110	1169.479
-31.911	19.031	1500.107	1168.660
-30.896	19.010	1498.972	1167.583
-29.881	19.051	1497.304	1166.518
-28.867	19.036	1496.274	1165.569
-27.852	19.051	1494.535	1164.270
-26.838	19.074	1493.114	1163.268
-25.823	19.087	1491.853	1162.329
-24.809	19.061	1490.423	1160.996
-23.794	19.033	1488.906	1159.576
-22.779	18.987	1488.467	1158.881
-21.765	19.066	1487.115	1158.310
-20.750	19.128	1485.554	1157.464
-19.736	19.033	1484.845	1156.230
-18.721	19.013	1483.671	1155.134
-17.706	19.024	1482.222	1154.038
-16.692	19.100	1481.206	1153.709
-15.677	19.012	1480.337	1152.394
-14.663	18.995	1479.130	1151.299
-13.648	18.984	1478.882	1150.987
-12.633	19.007	1477.469	1149.991
-11.619	19.062	1476.448	1149.518
-10.604	19.026	1475.508	1148.502
-9.590	18.945	1475.156	1147.642
-8.575	19.002	1474.380	1147.371
-7.560	18.929	1473.591	1146.228
-6.546	19.042	1472.554	1146.128
-5.531	18.964	1471.483	1144.728
-4.517	19.024	1469.962	1143.898
-3.502	18.955	1469.592	1143.105
-2.487	18.964	1468.801	1142.509
-1.473	19.047	1467.491	1141.994
-0.458	19.005	1466.268	1140.718
0.556	17.876	1456.319	1129.006
1.571	14.760	1433.047	1090.553
2.586	11.374	1372.486	1023.173
3.600	10.070	1288.306	952.649
4.615	9.241	1244.717	915.617
5.629	8.283	1188.574	869.027
6.644	4.245	1109.801	790.799
7.659	0.989	1076.407	750.811
8.673	0.585	1071.206	745.125
9.688	0.645	1067.655	742.886
10.702	0.500	1066.591	741.364
11.717	0.501	1063.811	739.372
12.731	1.786	1064.005	745.737
13.746	6.770	1070.310	774.583
14.761	13.030	1079.240	811.860
15.775	16.759	1082.850	832.870
16.790	16.788	1082.297	832.516
17.804	15.816	1080.340	826.165
18.819	14.891	1078.581	820.210
19.834	14.542	1077.052	817.264
20.848	14.283	1076.190	815.272
21.863	14.086	1075.401	813.640
22.877	13.845	1074.517	811.720
23.892	13.737	1073.573	810.407
24.907	13.655	1072.701	809.276
25.921	13.589	1072.162	808.475
26.936	13.598	1071.484	807.940
27.950	13.604	1070.825	807.398
28.965	13.669	1070.356	807.292
29.980	13.693	1069.389	806.605
30.994	13.753	1068.437	806.107
32.009	13.743	1067.476	805.261
33.023	13.932	1066.199	805.147
34.038	13.801	1065.753	804.104
35.053	13.770	1065.228	803.485
36.067	13.665	1064.561	802.402
37.082	13.677	1063.409	801.519
38.096	13.755	1062.285	800.979
39.111	13.823	1061.713	800.804
40.126	13.816	1060.658	799.908
41.140	13.766	1059.448	798.681
42.155	13.780	1058.455	797.929
43.169	13.601	1057.826	796.525
44.184	13.584	1057.167	795.876
45.199	13.611	1055.539	794.709
46.213	13.633	1054.448	793.922
47.228	13.499	1053.781	792.710
48.242	13.670	1052.030	792.141
49.257	13.798	1051.477	792.264
50.271	13.649	1050.584	790.811
51.286	13.649	1049.484	789.911
52.301	13.584	1048.882	789.080
53.315	13.809	1048.041	789.448
54.330	13.540	1047.772	787.897
55.344	13.755	1046.345	787.772
56.359	13.782	1044.996	786.816
57.374	13.609	1044.744	785.739
58.388	13.676	1043.459	785.019
59.403	13.688	1042.934	784.613
60.417	13.655	1041.863	783.578
61.432	13.607	1041.642	783.117
62.447	13.662	1040.855	782.718
63.461	13.647	1039.677	781.688
64.476	13.520	1039.458	780.856
65.490	13.548	1038.801	780.426
66.505	13.649	1036.955	779.447
67.520	13.502	1036.834	778.593
68.534	13.602	1035.879	778.279
69.549	13.585	1034.801	777.321
70.563	13.605	1034.298	776.967
71.578	13.583	1033.405	776.125
72.593	13.570	1032.414	775.249
73.607	13.539	1031.429	774.296
74.622	13.519	1030.767	773.641
75.636	13.646	1029.845	773.471
76.651	13.506	1029.104	772.194
77.666	13.519	1028.608	771.813
78.680	13.632	1027.534	771.465
79.695	13.541	1027.060	770.618
80.709	13.560	1026.252	770.033
81.724	13.611	1025.462	769.608
82.739	13.723	1024.460	769.307
83.753	13.775	1023.920	769.073
84.768	13.722	1022.891	767.989
85.782	13.684	1022.326	767.318
86.797	13.747	1021.541	766.953
87.812	13.832	1020.212	766.283
88.826	13.779	1019.657	765.550
89.841	13.710	1018.855	764.566
90.855	13.757	1018.020	764.085
91.870	13.696	1017.491	763.340
92.884	13.838	1016.881	763.467
93.899	13.923	1016.033	763.153
94.914	13.872	1015.281	762.288
95.928	13.894	1014.677	761.866
96.943	14.021	1013.541	761.530
97.957	13.734	1013.033	759.765
98.972	13.781	1012.014	759.151
99.987	13.775	1011.309	758.525
101.001	13.917	1010.633	758.599
102.016	13.903	1009.705	757.774
103.030	13.832	1008.784	756.691
104.045	13.889	1007.585	755.986
105.060	13.837	1006.810	755.100
106.074	13.766	1005.829	753.974
107.089	13.654	1005.275	752.986
108.103	13.664	1004.542	752.415
109.118	13.667	1003.180	751.340
110.133	13.769	1002.270	751.053
111.147	13.674	1001.681	750.118
112.162	13.747	1000.333	749.372
113.176	13.767	999.548	748.809
114.191	13.745	999.291	748.448
115.206	13.723	997.950	747.279
116.220	13.767	997.054	746.741
117.235	13.860	996.586	746.742
118.249	13.743	995.523	745.355
119.264	13.821	994.459	744.841
120.279	13.690	994.347	744.103
121.293	13.864	992.581	743.495
122.308	13.834	991.567	742.534
123.322	13.647	991.249	741.398
124.337	13.815	989.856	741.041
125.352	13.633	989.590	739.961
126.366	13.712	987.716	738.848
127.381	13.663	986.792	737.871
128.395	13.681	985.490	736.915
129.410	13.474	985.318	735.799
130.424	13.634	983.611	735.168
131.439	13.780	982.953	735.262
132.454	13.639	982.403	734.157
133.468	13.649	981.693	733.609
134.483	13.691	980.917	733.150
135.497	13.872	979.981	733.184
136.512	13.741	979.429	732.130
137.527	13.811	978.533	731.703
138.541	13.804	977.823	731.073
139.556	13.710	976.825	729.851
140.570	13.871	976.658	730.372
141.585	13.791	975.302	728.938
142.600	13.921	974.704	728.999
143.614	13.937	974.142	728.583
144.629	13.924	973.786	728.197
145.643	13.877	972.781	727.174
146.658	13.936	971.971	726.764
147.673	13.969	970.946	726.076
148.687	13.963	969.939	725.231
149.702	13.883	969.214	724.278
150.716	13.920	967.769	723.293
151.731	13.985	967.003	722.941
152.746	13.831	966.723	722.000
153.760	13.832	965.696	721.171
154.775	13.798	965.387	720.729
155.789	13.871	964.700	720.470
156.804	14.048	963.398	720.201
157.819	13.972	963.114	719.594
158.833	13.971	962.259	718.890
159.848	13.983	961.613	718.395
160.862	13.952	961.129	717.833
161.877	14.113	959.611	717.332
162.892	14.101	958.961	716.731
163.906	14.137	957.907	716.037
164.921	14.059	957.620	715.421
165.935	13.879	956.611	713.831
166.950	14.115	955.222	713.745
167.964	13.993	954.459	712.585
168.979	14.110	953.568	712.359
169.994	14.126	952.441	711.526
171.008	14.152	951.990	711.236
172.023	14.054	950.818	709.879
173.037	14.189	950.310	710.012
174.052	14.193	949.470	709.341
175.067	14.118	949.216	708.765
176.081	14.168	948.023	708.026
177.096	14.073	947.517	707.179
178.110	14.219	946.553	707.021
179.125	14.123	945.601	705.839
180.140	14.142	945.013	705.418
181.154	14.097	944.617	704.868
182.169	14.245	943.687	704.741
183.183	14.164	943.453	704.158
184.198	14.265	942.297	703.660
185.213	14.249	941.507	702.941
186.227	14.366	941.164	703.117
187.242	14.325	940.010	702.020
188.256	14.375	939.348	701.675
189.271	14.359	938.875	701.194
190.286	14.298	938.144	700.329
191.300	14.383	937.516	700.154
192.315	14.233	936.711	698.862
193.329	14.209	936.073	698.222
194.344	14.326	935.221	698.016
195.359	14.330	935.008	697.809
196.373	14.366	933.848	697.033
197.388	14.296	934.008	696.798
198.402	14.432	933.055	696.594
199.417	14.498	932.486	696.385
200.432	14.687	931.877	696.658
201.446	14.544	931.440	695.671
202.461	14.613	931.211	695.725
203.475	14.634	930.587	695.286
204.490	14.700	929.802	694.915
205.504	14.575	929.210	693.888
206.519	14.599	928.403	693.325
207.534	14.624	927.404	692.620
208.548	14.643	926.511	691.974
209.563	14.740	926.231	692.103
210.577	14.693	925.269	691.130
211.592	14.648	924.686	690.447
212.607	14.592	924.244	689.822
213.621	14.616	923.693	689.449
214.636	14.766	922.760	689.311
215.650	14.762	922.251	688.854
216.665	14.631	922.007	688.072
217.680	14.710	921.235	687.761
218.694	14.743	920.926	687.605
219.709	14.709	920.480	687.071
220.723	14.845	919.672	686.966
221.738	14.890	918.630	686.312
222.753	14.872	918.285	685.918
223.767	14.830	917.352	684.989
224.782	14.877	916.302	684.336
225.796	14.862	915.683	683.751
226.811	14.935	914.649	683.219
227.826	14.935	914.546	683.082
228.840	14.810	913.923	682.046
229.855	14.883	912.957	681.560
230.869	14.945	912.200	681.189
231.884	14.790	912.062	680.392
232.899	14.963	910.943	680.201
233.913	14.947	910.215	679.532
234.928	14.970	909.499	679.031
235.942	14.952	908.994	678.522
236.957	14.795	908.207	677.240
237.972	14.902	907.515	677.097
238.986	14.928	906.690	676.524
240.001	15.005	906.165	676.386
241.015	15.036	905.384	675.865
242.030	15.048	905.076	675.624
243.045	14.991	904.471	674.884
244.059	15.050	903.698	674.484
245.074	15.103	902.627	673.840
246.088	15.117	902.171	673.498
247.103	15.130	901.789	673.203
248.117	15.179	901.201	672.902
249.132	15.221	900.450	672.452
250.147	15.301	899.462	671.973
251.161	15.239	899.134	671.420
252.176	15.314	898.132	670.913
253.190	15.302	897.224	670.126
254.205	15.417	896.963	670.335
255.220	15.239	896.766	669.415
256.234	15.397	895.907	669.345
257.249	15.414	895.322	668.917
258.263	15.474	894.686	668.622
259.278	15.469	894.044	668.063
260.293	15.431	893.659	667.563
261.307	15.527	892.505	667.023
262.322	15.356	892.562	666.330
263.336	15.552	891.788	666.469
264.351	15.639	891.170	666.296
265.366	15.672	890.285	665.705
266.380	15.647	889.588	665.025
267.395	15.664	888.732	664.392
268.409	15.656	887.971	663.734
269.424	15.510	887.562	662.794
270.439	15.610	886.769	662.537
271.453	15.662	886.284	662.320
272.468	15.592	885.854	661.668
273.482	15.518	885.358	660.945
274.497	15.783	884.084	660.977
275.512	15.731	883.026	659.925
276.526	15.756	882.054	659.236
277.541	15.593	882.013	658.510
278.555	15.662	881.810	658.570
279.570	15.677	881.037	657.994
280.585	15.648	880.496	657.419
281.599	15.849	879.526	657.421
282.614	15.805	879.183	656.932
283.628	15.774	878.248	656.054
284.643	15.845	877.933	656.039
285.657	15.892	877.634	655.943
286.672	15.809	877.160	655.206
287.687	15.830	876.535	654.764
288.701	15.909	875.880	654.524
289.716	15.841	875.313	653.778
290.730	15.950	874.573	653.589
291.745	16.016	873.984	653.348
292.760	15.928	873.057	652.256
293.774	15.882	872.436	651.554
294.789	15.970	871.804	651.367
295.803	16.063	871.389	651.359
296.818	16.017	870.875	650.738
297.833	16.119	869.695	650.193
298.847	16.190	869.040	649.919
299.862	16.166	868.203	649.143
300.876	16.091	867.677	648.403
301.891	16.166	867.249	648.315
302.906	16.219	866.607	647.983
303.920	16.135	865.767	646.975
304.935	16.250	865.153	646.899
305.949	16.169	864.454	646.009
306.964	16.251	864.185	646.064
307.979	16.272	863.396	645.497
308.993	16.185	863.149	644.922
310.008	16.225	862.529	644.554
311.022	16.442	861.587	644.623
312.037	16.304	861.731	644.147
313.052	16.226	861.364	643.519
314.066	16.413	860.093	643.222
315.081	16.180	859.639	641.941
316.095	16.476	859.011	642.541
317.110	16.301	858.542	641.467
318.125	16.302	857.643	640.740
319.139	16.349	857.522	640.775
320.154	16.240	857.102	639.989
321.168	16.369	856.489	639.964
322.183	16.486	856.037	640.014
323.197	16.394	855.512	639.215
324.212	16.526	854.519	638.915
325.227	16.380	854.512	638.301
326.241	16.429	853.556	637.715
327.256	16.285	853.413	637.009
328.270	16.425	852.921	637.114
329.285	16.426	852.189	636.516
330.300	16.539	851.371	636.273
331.314	16.602	850.649	635.912
332.329	16.410	850.278	634.858
333.343	16.518	849.495	634.625
334.358	16.617	848.693	634.340
335.373	16.632	848.156	633.937
336.387	16.639	847.704	633.571
337.402	16.794	847.016	633.581
338.416	16.669	846.640	632.776
339.431	16.707	846.223	632.551
340.446	16.862	845.433	632.483
341.460	16.698	845.428	631.808
342.475	16.857	844.606	631.734
343.489	16.838	843.950	631.116
344.504	16.753	843.595	630.478
345.519	16.729	842.979	629.874
346.533	16.986	842.131	630.137
347.548	16.898	842.083	629.720
348.562	16.837	841.528	629.021
349.577	16.732	841.248	628.365
350.592	16.755	840.356	627.732
351.606	16.872	839.642	627.573
352.621	16.872	839.246	627.224
353.635	16.876	839.099	627.073
354.650	16.847	838.610	626.544
355.665	16.912	837.906	626.202
356.679	16.948	837.426	625.920
357.694	16.882	837.186	625.441
358.708	16.952	836.467	625.110
359.723	17.008	836.090	624.977
360.738	17.073	835.152	624.462
361.752	16.945	835.042	623.853
362.767	16.955	834.894	623.725
363.781	17.053	834.411	623.668
364.796	16.982	833.631	622.768
365.810	17.146	833.209	622.999
366.825	17.092	832.655	622.333
367.840	17.295	832.277	622.740
368.854	17.330	831.820	622.471
369.869	17.291	831.222	621.824
370.883	17.184	830.966	621.188
371.898	17.105	830.522	620.511
372.913	17.213	829.678	620.221
373.927	17.331	828.895	620.010
374.942	17.231	828.489	619.287
375.956	17.347	827.947	619.249
376.971	17.289	827.290	618.491
377.986	17.357	826.572	618.148
379.000	17.355	826.088	617.726
380.015	17.354	825.897	617.522
381.029	17.601	824.727	617.490
382.044	17.574	824.071	616.846
383.059	17.458	823.994	616.314
384.073	17.501	823.282	615.881
385.088	17.484	822.721	615.345
386.102	17.475	822.376	615.000
387.117	17.443	822.043	614.581
388.132	17.430	821.164	613.825
389.146	17.426	820.638	613.363
390.161	17.460	820.522	613.344
391.175	17.466	820.341	613.175
392.190	17.667	819.710	613.371
393.205	17.365	819.624	612.166
394.219	17.557	819.219	612.502
395.234	17.499	818.834	611.950
396.248	17.593	817.728	611.408
397.263	17.585	817.598	611.226
398.278	17.522	816.795	610.349
399.292	17.706	816.060	610.404
400.307	17.575	815.419	609.402
401.321	17.644	815.661	609.773
402.336	17.607	815.322	609.336
403.350	17.627	814.871	609.014
404.365	17.583	814.166	608.278
405.380	17.748	813.606	608.393
406.394	17.866	812.988	608.299
407.409	17.816	812.955	608.042
408.423	17.816	812.485	607.635
409.438	17.757	812.246	607.194
410.453	17.849	811.841	607.163
411.467	17.854	811.583	606.937
412.482	17.944	810.305	606.246
413.496	17.736	810.231	605.398
414.511	17.797	810.118	605.476
415.526	17.892	809.690	605.442
416.540	18.011	808.938	605.247
417.555	18.004	808.577	604.896
418.569	17.957	808.212	604.404
419.584	18.014	807.662	604.143
420.599	17.942	807.150	603.450
421.613	115.910	1300.244	1493.120
422.628	100.222	1372.015	1493.199
