DTS Sentinel unit serial number:	SN413079Multiplexer serial number:	ORYXHardware model number:	OX4-SRSoftware version number:	ORYX F/W v4.00 Oryx Data Collector v3.7.2.0data status	okinstallation	princeton_trtdifferential loss correction	single-endedforward channel	channel 3reverse channel	N/Adate	2019/09/16time	20:28:35forward acquisition time	60.00reverse acquisition time	0.00gamma	496.2192k internal	0.2323k external	0.2323temperature offset calibration	0.9938default loss term (dB/km)	0.3790temperature slope calibration	1.0000multiplexer offset coefficient	1.0000multiplexer slope coefficient	1.0000fibre end	0.00T internal ref (°C)	32.69T ext. ref 1 (°C)	0.09T ext. ref 2 (°C)	26.62length (m)	temperature (°C)	Stokes	anti-Stokes-747.200	110.352	0.114	0.138
-746.185	-45.692	-0.168	-0.084
-745.171	-154.680	0.138	-0.009
-744.156	-140.956	-0.168	-0.017
-743.142	-81.544	-0.073	-0.024
-742.127	55.321	-0.042	-0.041
-741.112	-200.000	-0.066	0.415
-740.098	415.925	0.121	0.262
-739.083	-131.701	-0.408	-0.054
-738.069	387.187	0.153	0.320
-737.054	402.056	0.026	0.055
-736.039	-0.581	-0.201	0.144
-735.025	-55.660	0.276	0.125
-734.010	10.463	-0.260	-0.200
-732.996	190.858	-0.164	-0.249
-731.981	157.547	-0.128	-0.179
-730.966	126.800	-0.061	0.078
-729.952	-200.000	-0.026	-0.291
-728.937	-12.245	0.167	-0.110
-727.923	-50.063	-0.331	-0.158
-726.908	12.322	0.120	0.093
-725.894	183.044	0.044	0.065
-724.879	87.281	-0.073	-0.081
-723.864	-200.000	0.049	-0.235
-722.850	-60.060	-0.392	-0.169
-721.835	-200.000	-0.013	0.125
-720.821	37.576	-0.327	0.293
-719.806	-21.701	-0.161	-0.099
-718.791	-161.768	-0.334	0.017
-717.777	-87.110	0.054	-0.017
-716.762	-87.606	0.116	0.035
-715.748	-154.055	-0.325	-0.022
-714.733	-38.668	-0.034	0.018
-713.718	45.100	0.203	-0.189
-712.704	-72.779	-0.148	0.055
-711.689	14.905	0.252	0.199
-710.675	-9.687	0.336	0.225
-709.660	-166.408	-0.574	0.024
-708.645	-48.671	0.228	0.110
-707.631	-111.306	0.191	0.039
-706.616	624.765	-0.039	-0.099
-705.602	446.062	0.089	0.197
-704.587	-43.763	-0.373	-0.189
-703.572	14.088	-0.220	-0.173
-702.558	-87.515	-0.162	-0.049
-701.543	-106.136	-0.120	-0.027
-700.529	-140.161	0.103	0.011
-699.514	29.844	-0.223	0.192
-698.499	-10.763	-0.094	-0.063
-697.485	88.659	-0.180	-0.202
-696.470	-114.113	-0.166	-0.032
-695.456	248.046	0.150	-0.256
-694.441	283.494	-0.157	-0.285
-693.426	-200.000	0.003	-0.143
-692.412	-117.729	0.040	0.007
-691.397	101.220	-0.059	-0.069
-690.383	341.601	-0.075	-0.148
-689.368	41.324	-0.245	0.223
-688.354	-200.000	-0.020	-0.171
-687.339	230.826	-0.146	0.241
-686.324	43.471	0.147	-0.135
-685.310	90.627	-0.098	0.110
-684.295	800.000	0.037	-0.134
-683.281	-200.000	-0.075	-0.379
-682.266	38.054	-0.151	-0.135
-681.251	658.911	-0.097	0.252
-680.237	-92.687	0.436	-0.123
-679.222	-106.342	0.258	-0.058
-678.208	800.000	0.023	0.090
-677.193	64.515	0.188	-0.191
-676.178	-99.458	-0.279	-0.071
-675.164	-4.675	0.323	0.225
-674.149	-200.000	0.026	-0.268
-673.135	-53.355	0.236	-0.109
-672.120	-200.000	-0.035	0.173
-671.105	643.487	-0.134	-0.345
-670.091	2.425	-0.303	-0.221
-669.076	340.917	-0.157	-0.309
-668.062	149.348	-0.063	0.086
-667.047	-25.150	-0.185	0.111
-666.032	-119.046	0.454	-0.080
-665.018	800.000	0.016	-0.052
-664.003	-167.283	-0.214	0.009
-662.989	132.782	-0.101	0.131
-661.974	-133.467	-0.146	0.018
-660.959	146.615	0.199	0.269
-659.945	-47.453	-0.260	0.127
-658.930	-200.000	0.029	0.157
-657.916	-122.388	0.113	-0.018
-656.901	-37.563	-0.242	-0.130
-655.886	-95.756	0.126	-0.034
-654.872	-94.379	-0.269	-0.074
-653.857	-41.863	-0.194	0.100
-652.843	-48.615	0.129	-0.062
-651.828	64.327	-0.113	0.115
-650.814	-200.000	-0.101	-0.487
-649.799	-200.000	0.006	-0.086
-648.784	175.855	-0.302	-0.441
-647.770	32.597	-0.215	0.187
-646.755	-65.150	-0.344	-0.140
-645.741	52.698	-0.275	0.265
-644.726	6.589	0.152	0.114
-643.711	800.000	-0.079	0.328
-642.697	-200.000	0.036	-0.230
-641.682	800.000	0.024	0.076
-640.668	311.368	-0.090	0.169
-639.653	800.000	0.064	0.222
-638.638	227.243	-0.085	0.139
-637.624	-96.797	0.161	-0.043
-636.609	-89.321	0.228	-0.068
-635.595	447.824	0.087	-0.194
-634.580	-137.760	-0.193	0.022
-633.565	111.987	0.052	0.063
-632.551	24.703	0.237	-0.198
-631.536	800.000	-0.085	-0.248
-630.522	191.866	-0.100	-0.151
-629.507	-200.000	0.011	-0.156
-628.492	181.364	0.167	-0.246
-627.478	-122.146	-0.326	-0.054
-626.463	-194.832	-0.031	0.000
-625.449	-200.000	-0.036	0.257
-624.434	-200.000	-0.003	0.023
-623.419	152.727	-0.126	-0.172
-622.405	173.477	-0.085	-0.123
-621.390	95.044	-0.136	0.155
-620.376	800.000	0.021	0.073
-619.361	-85.760	-0.203	-0.063
-618.346	-186.663	-0.184	0.003
-617.332	800.000	0.069	0.227
-616.317	207.385	0.258	0.405
-615.303	-36.011	-0.192	0.104
-614.288	-70.911	0.119	-0.045
-613.273	433.810	0.133	0.290
-612.259	-172.801	0.129	-0.004
-611.244	-97.323	0.101	-0.026
-610.230	24.503	-0.190	-0.158
-609.215	-170.955	0.262	-0.009
-608.201	-106.133	-0.174	-0.039
-607.186	-17.854	0.312	0.197
-606.171	800.000	0.027	0.095
-605.157	800.000	-0.010	-0.039
-604.142	-200.000	0.030	-0.179
-603.128	-4.217	0.133	-0.092
-602.113	757.379	-0.030	-0.081
-601.098	-121.038	0.238	-0.040
-600.084	-200.000	0.003	0.059
-599.069	98.481	-0.094	-0.109
-598.055	15.476	0.273	-0.215
-597.040	71.092	-0.160	-0.167
-596.025	-200.000	0.012	-0.152
-595.011	-178.037	0.053	0.001
-593.996	-73.050	-0.118	0.044
-592.982	34.880	0.161	-0.142
-591.967	-57.557	-0.175	0.077
-590.952	-200.000	-0.069	-0.419
-589.938	757.375	-0.153	-0.416
-588.923	-200.000	0.013	-0.235
-587.909	88.767	-0.151	0.169
-586.894	-47.976	-0.134	0.065
-585.879	-200.000	-0.017	0.206
-584.865	-139.950	-0.129	-0.014
-583.850	-197.858	-0.254	-0.002
-582.836	-89.799	0.115	-0.034
-581.821	-75.689	-0.034	0.012
-580.806	-200.000	-0.006	-0.084
-579.792	28.553	-0.156	0.133
-578.777	19.565	-0.243	0.196
-577.763	-60.500	-0.159	0.068
-576.748	109.148	-0.078	-0.094
-575.733	-75.418	0.113	-0.040
-574.719	21.692	0.312	-0.255
-573.704	244.713	-0.194	-0.328
-572.690	-102.038	-0.130	-0.031
-571.675	-164.544	-0.178	0.008
-570.661	-175.100	0.024	0.001
-569.646	-56.638	-0.228	0.101
-568.631	375.267	0.044	-0.090
-567.617	-55.705	0.084	-0.038
-566.602	143.335	-0.094	-0.126
-565.588	-2.221	-0.370	-0.261
-564.573	-96.584	0.243	0.064
-563.558	306.753	-0.071	0.132
-562.544	476.526	0.042	-0.096
-561.529	190.137	0.043	0.065
-560.515	-126.947	-0.411	-0.061
-559.500	-34.190	-0.126	0.069
-558.485	-200.000	0.001	-0.096
-557.471	-200.000	0.043	0.207
-556.456	199.192	-0.131	-0.201
-555.442	-177.076	-0.140	0.004
-554.427	-97.377	0.183	-0.048
-553.412	4.314	0.069	-0.050
-552.398	-42.634	-0.056	0.029
-551.383	794.295	-0.194	-0.534
-550.369	800.000	-0.024	0.091
-549.354	-200.000	-0.045	-0.283
-548.339	-200.000	0.036	0.314
-547.325	-200.000	0.010	-0.217
-546.310	-200.000	-0.018	-0.210
-545.296	-72.776	0.211	-0.078
-544.281	692.386	0.037	0.098
-543.266	746.911	-0.044	0.120
-542.252	-81.076	0.088	-0.029
-541.237	280.293	0.110	-0.197
-540.223	717.882	-0.050	0.134
-539.208	-200.000	0.013	0.140
-538.193	-200.000	0.043	0.565
-537.179	421.159	-0.085	0.183
-536.164	-103.804	-0.405	-0.095
-535.150	-142.773	0.175	-0.017
-534.135	268.317	-0.146	0.256
-533.121	-81.799	0.162	-0.053
-532.106	315.651	0.075	-0.141
-531.091	-148.798	0.202	-0.016
-530.077	7.615	-0.132	-0.099
-529.062	182.173	-0.113	-0.166
-528.048	-53.191	-0.181	-0.083
-527.033	663.080	-0.029	0.075
-526.018	800.000	0.082	0.245
-525.004	56.631	-0.094	0.092
-523.989	45.374	0.357	0.329
-522.975	321.520	-0.078	0.149
-521.960	405.155	0.114	0.241
-520.945	-94.968	-0.630	0.171
-519.931	-200.000	0.042	0.190
-518.916	268.670	0.079	0.139
-517.902	-200.000	0.019	-0.105
-516.887	182.000	-0.019	0.028
-515.872	-200.000	0.010	-0.077
-514.858	14.759	-0.071	-0.056
-513.843	-200.000	0.010	0.221
-512.829	-200.000	0.017	-0.198
-511.814	288.489	0.087	-0.157
-510.799	29.837	0.258	0.220
-509.785	2.632	0.057	0.041
-508.770	22.174	0.037	0.030
-507.756	92.850	0.031	0.035
-506.741	-200.000	0.154	-0.001
-505.726	-25.282	-0.062	0.037
-504.712	-200.000	0.031	0.158
-503.697	75.970	-0.013	0.014
-502.683	-151.619	-0.194	0.014
-501.668	-200.000	0.040	0.283
-500.653	-24.068	-0.329	-0.197
-499.639	-3.924	0.071	0.049
-498.624	36.852	-0.081	0.072
-497.610	800.000	0.075	-0.301
-496.595	-142.712	0.546	0.053
-495.581	-14.318	0.307	-0.198
-494.566	-139.972	-0.137	0.014
-493.551	800.000	0.070	0.239
-492.537	-200.000	-0.020	0.217
-491.522	12.561	-0.158	-0.122
-490.508	-92.765	0.385	0.108
-489.493	-91.353	-0.278	0.079
-488.478	595.199	-0.064	0.158
-487.464	86.639	-0.141	0.156
-486.449	-161.859	0.448	-0.023
-485.435	-200.000	-0.030	-0.135
-484.420	800.000	0.062	-0.225
-483.405	-48.049	-0.178	-0.086
-482.391	51.867	0.274	-0.261
-481.376	82.609	-0.146	-0.158
-480.362	-130.081	0.045	0.006
-479.347	-200.000	0.001	-0.238
-478.332	-200.000	-0.011	-0.323
-477.318	347.286	-0.187	-0.367
-476.303	800.000	-0.037	-0.156
-475.289	541.271	-0.053	0.127
-474.274	-72.721	0.017	-0.006
-473.259	111.570	-0.192	-0.232
-472.245	37.017	0.132	0.117
-471.230	-200.000	0.056	-0.272
-470.216	-56.696	-0.060	0.026
-469.201	-104.586	-0.100	-0.023
-468.186	-117.023	-0.382	-0.070
-467.172	-102.580	-0.345	-0.082
-466.157	-109.978	-0.215	0.045
-465.143	200.376	-0.113	-0.173
-464.128	33.960	-0.150	-0.130
-463.113	202.057	-0.053	0.082
-462.099	559.015	0.092	-0.221
-461.084	-200.000	-0.014	0.085
-460.070	330.666	-0.131	0.252
-459.055	146.257	-0.197	0.265
-458.040	-25.103	0.126	-0.074
-457.026	242.348	0.049	0.081
-456.011	-101.857	0.181	-0.044
-454.997	-48.486	0.105	0.051
-453.982	53.609	0.133	0.127
-452.968	-54.662	0.149	-0.067
-451.953	-68.379	0.198	0.077
-450.938	-12.807	0.184	0.120
-449.924	7.240	-0.216	-0.161
-448.909	-120.566	0.177	0.030
-447.895	-200.000	-0.008	-0.191
-446.880	800.000	0.067	-0.195
-445.865	-75.762	-0.074	-0.026
-444.851	800.000	-0.094	-0.332
-443.836	-200.000	0.045	-0.512
-442.822	36.556	-0.076	-0.067
-441.807	22.520	-0.210	-0.171
-440.792	-165.459	-0.570	0.025
-439.778	-200.000	-0.013	0.219
-438.763	-25.160	0.078	0.046
-437.749	205.991	-0.078	-0.121
-436.734	-20.901	0.128	-0.078
-435.719	-34.190	0.408	0.223
-434.705	-155.941	0.050	-0.003
-433.690	10.408	-0.060	0.046
-432.676	-152.006	0.154	-0.011
-431.661	-181.890	0.387	0.007
-430.646	-158.142	-0.192	0.011
-429.632	-137.863	0.042	-0.005
-428.617	-13.994	0.235	-0.151
-427.603	-200.000	-0.013	-0.261
-426.588	7.782	0.288	-0.215
-425.573	-77.185	0.042	-0.015
-424.559	-33.424	-0.136	0.075
-423.544	-200.000	0.084	0.439
-422.530	800.000	-0.045	0.133
-421.515	-44.814	-0.089	-0.044
-420.500	-86.241	0.152	-0.047
-419.486	35.088	0.102	-0.089
-418.471	800.000	-0.089	0.349
-417.457	800.000	-0.110	-0.394
-416.442	87.426	0.070	-0.077
-415.428	155.033	0.126	0.172
-414.413	-200.000	0.024	0.359
-413.398	-107.191	-0.213	0.047
-412.384	13.479	0.195	-0.150
-411.369	240.433	0.077	-0.127
-410.355	800.000	-0.080	-0.256
-409.340	-12.242	0.229	-0.149
-408.325	581.352	0.108	-0.264
-407.311	-122.526	-0.343	0.056
-406.296	22.779	0.243	-0.198
-405.282	158.205	0.243	0.336
-404.267	-200.000	-0.013	0.070
-403.252	-61.534	0.014	-0.006
-402.238	-165.865	-0.213	-0.009
-401.223	-84.912	0.019	-0.006
-400.209	156.327	-0.142	0.195
-399.194	4.657	0.410	0.300
-398.179	-45.922	0.316	-0.155
-397.165	545.318	0.094	-0.223
-396.150	-42.117	-0.167	-0.085
-395.136	-103.693	0.053	-0.012
-394.121	800.000	-0.015	-0.054
-393.106	-8.341	-0.248	-0.166
-392.092	202.960	-0.049	0.076
-391.077	800.000	0.018	0.057
-390.063	102.799	0.126	-0.147
-389.048	-55.776	0.282	0.126
-388.033	-200.000	-0.007	0.051
-387.019	238.694	0.180	0.298
-386.004	-200.000	0.010	-0.064
-384.990	99.431	0.212	-0.244
-383.975	800.000	0.031	-0.109
-382.960	-42.924	0.131	-0.066
-381.946	800.000	0.021	-0.060
-380.931	800.000	0.073	-0.310
-379.917	-165.878	-0.165	0.007
-378.902	-200.000	-0.037	-0.296
-377.888	-200.000	-0.022	-0.239
-376.873	3.451	0.094	-0.068
-375.858	800.000	-0.071	-0.251
-374.844	-113.563	0.217	-0.042
-373.829	-119.117	-0.229	0.040
-372.815	800.000	-0.053	0.180
-371.800	800.000	0.045	0.137
-370.785	-66.979	0.133	0.052
-369.771	82.260	0.086	-0.092
-368.756	-200.000	0.005	0.278
-367.742	-149.797	0.244	-0.019
-366.727	-200.000	0.012	-0.177
-365.712	-95.093	-0.079	-0.021
-364.698	-38.471	-0.287	0.151
-363.683	136.181	-0.046	0.060
-362.669	490.560	-0.118	0.268
-361.654	-92.395	0.137	-0.038
-360.639	407.539	-0.093	-0.196
-359.625	-81.989	-0.180	-0.058
-358.610	-70.786	-0.344	0.129
-357.596	-107.901	-0.063	-0.014
-356.581	120.362	-0.216	0.267
-355.566	-82.912	-0.084	-0.027
-354.552	-144.046	-0.095	0.009
-353.537	551.891	-0.107	0.254
-352.523	-200.000	-0.049	0.354
-351.508	-105.998	0.177	0.040
-350.493	163.558	-0.206	0.287
-349.479	678.119	0.091	-0.235
-348.464	-198.807	0.152	0.001
-347.450	800.000	0.094	0.400
-346.435	800.000	0.094	0.305
-345.420	56.084	-0.097	-0.094
-344.406	71.622	0.028	-0.029
-343.391	45.547	-0.050	-0.046
-342.377	60.147	-0.098	0.096
-341.362	-3.983	0.218	-0.150
-340.348	-12.290	0.214	0.139
-339.333	556.082	-0.134	0.320
-338.318	167.455	0.152	-0.214
-337.304	-200.000	-0.055	-0.260
-336.289	18.017	0.157	-0.125
-335.275	439.267	0.188	0.407
-334.260	-113.499	0.144	-0.028
-333.245	-125.434	0.401	0.061
-332.231	150.480	0.081	0.110
-331.216	-47.529	0.222	0.107
-330.202	-200.000	0.002	0.085
-329.187	-200.000	-0.016	0.146
-328.172	-200.000	0.043	0.215
-327.158	-73.230	0.277	-0.101
-326.143	-157.637	0.303	-0.018
-325.129	-73.833	0.133	-0.048
-324.114	-129.838	0.055	-0.007
-323.099	-101.153	0.186	0.045
-322.085	348.240	0.113	-0.222
-321.070	212.204	-0.076	-0.118
-320.056	-30.979	-0.085	0.047
-319.041	-200.000	0.000	-0.057
-318.026	-134.803	0.313	-0.038
-317.012	-77.919	0.324	-0.111
-315.997	170.709	-0.130	0.185
-314.983	269.810	0.073	0.127
-313.968	508.889	0.031	0.071
-312.953	-65.007	-0.390	0.156
-311.939	111.191	0.398	0.476
-310.924	-52.316	-0.197	-0.091
-309.910	-2.085	0.098	0.068
-308.895	13.222	0.046	-0.036
-307.880	386.588	0.074	-0.152
-306.866	254.020	0.044	0.075
-305.851	-47.492	-0.250	-0.121
-304.837	-80.951	-0.088	0.029
-303.822	-200.000	-0.013	-0.063
-302.807	-49.430	0.057	0.027
-301.793	-97.190	0.062	-0.016
-300.778	-58.544	0.171	-0.074
-299.764	371.126	0.018	0.035
-298.749	169.546	-0.081	-0.115
-297.735	-25.732	0.448	-0.262
-296.720	800.000	0.096	0.308
-295.705	-104.745	-0.220	0.050
-294.691	-135.193	0.411	0.049
-293.676	-132.189	0.107	0.014
-292.662	357.048	-0.021	0.042
-291.647	-11.667	-0.198	-0.129
-290.632	-200.000	-0.018	-0.171
-289.618	189.537	-0.144	0.215
-288.603	138.516	-0.184	-0.240
-287.589	-20.914	-0.286	0.174
-286.574	-200.000	0.014	0.175
-285.559	-97.794	0.099	0.025
-284.545	-1.102	0.207	-0.145
-283.530	-40.894	-0.174	-0.089
-282.516	733.906	0.063	-0.168
-281.501	-86.024	0.420	0.129
-280.486	-200.000	0.034	0.283
-279.472	63.288	0.265	0.264
-278.457	105.498	-0.185	-0.217
-277.443	447.914	0.063	-0.138
-276.428	-51.065	-0.146	-0.068
-275.413	800.000	-0.118	-0.349
-274.399	512.460	-0.127	0.293
-273.384	-70.675	-0.397	0.149
-272.370	-44.940	0.283	0.140
-271.355	-140.905	0.264	0.027
-270.340	800.000	0.144	0.410
-269.326	-61.043	-0.043	0.018
-268.311	-200.000	0.096	-0.483
-267.297	5.541	-0.281	0.206
-266.282	-200.000	0.035	0.495
-265.267	-104.942	-0.077	0.018
-264.253	-200.000	0.047	-0.218
-263.238	347.321	0.193	-0.376
-262.224	-30.016	0.280	0.158
-261.209	99.742	-0.121	-0.139
-260.195	-123.287	-0.215	0.034
-259.180	-107.659	-0.254	0.055
-258.165	-145.471	0.314	-0.028
-257.151	664.979	0.056	0.144
-256.136	310.527	-0.096	0.179
-255.122	466.246	0.116	0.256
-254.107	-23.776	0.161	0.095
-253.092	62.588	-0.110	0.109
-252.078	-147.683	0.222	-0.018
-251.063	-200.000	0.013	0.101
-250.049	-200.000	0.016	0.233
-249.034	-38.784	-0.177	0.092
-248.019	1.361	0.256	0.182
-247.005	-20.720	-0.294	-0.178
-245.990	-22.295	0.267	0.160
-244.976	-163.942	0.432	-0.020
-243.961	186.763	-0.137	0.202
-242.946	-72.304	-0.266	-0.098
-241.932	-99.514	0.221	-0.055
-240.917	383.298	0.125	0.255
-239.903	191.524	0.102	0.152
-238.888	-200.000	-0.406	-0.001
-237.873	800.000	-0.037	-0.110
-236.859	295.396	0.076	0.138
-235.844	-200.000	-0.020	-0.255
-234.830	-157.655	0.257	-0.015
-233.815	-99.565	0.053	-0.013
-232.800	-142.833	0.201	-0.019
-231.786	181.464	-0.077	0.113
-230.771	50.470	-0.135	0.126
-229.757	339.070	-0.087	-0.168
-228.742	42.132	-0.141	0.127
-227.727	800.000	-0.152	0.488
-226.713	32.355	-0.171	0.146
-225.698	371.738	0.122	0.245
-224.684	121.169	-0.172	-0.212
-223.669	-200.000	-0.035	-0.219
-222.655	-165.886	-0.193	-0.008
-221.640	-75.554	0.016	0.006
-220.625	-82.424	-0.141	0.045
-219.611	-200.000	-0.016	0.191
-218.596	-130.521	-0.457	-0.061
-217.582	800.000	-0.028	-0.101
-216.567	-31.948	-0.192	-0.106
-215.552	-106.859	-0.318	0.070
-214.538	-147.749	0.178	-0.015
-213.523	14.927	-0.269	0.208
-212.509	-200.000	0.007	-0.374
-211.494	-37.163	-0.357	0.189
-210.479	-200.000	0.000	-0.232
-209.465	257.754	0.186	-0.316
-208.450	-200.000	-0.010	0.153
-207.436	-73.267	0.076	-0.027
-206.421	-200.000	0.103	0.489
-205.406	65.354	-0.106	0.106
-204.392	-119.230	0.068	0.012
-203.377	-109.838	-0.027	-0.006
-202.363	-90.255	0.446	0.128
-201.348	-113.310	-0.114	-0.022
-200.333	-200.000	-0.009	0.146
-199.319	-200.000	-0.017	0.185
-198.304	51.543	0.170	0.160
-197.290	699.575	-0.148	-0.386
-196.275	800.000	-0.060	0.231
-195.260	-2.704	-0.116	0.080
-194.246	-94.352	0.122	-0.033
-193.231	16.164	-0.111	-0.087
-192.217	-123.350	0.202	-0.032
-191.202	-59.535	-0.152	-0.065
-190.187	-200.000	0.025	-0.109
-189.173	-200.000	-0.032	-0.149
-188.158	740.011	0.020	0.053
-187.144	-55.615	-0.334	-0.148
-186.129	29.286	-0.194	0.163
-185.114	757.328	0.160	-0.427
-184.100	156.023	-0.110	0.149
-183.085	84.564	0.042	-0.045
-182.071	-130.962	-0.171	0.023
-181.056	-163.254	-0.333	-0.016
-180.042	9.962	0.107	-0.080
-179.027	178.884	-0.042	-0.061
-178.012	281.788	0.062	-0.109
-176.998	-200.000	-0.005	0.224
-175.983	-158.057	-0.111	-0.006
-174.969	204.462	0.166	-0.255
-173.954	6.881	0.022	0.016
-172.939	-148.723	-0.075	0.006
-171.925	-200.000	-0.015	0.103
-170.910	-200.000	0.014	-0.263
-169.896	81.233	0.256	-0.274
-168.881	56.689	0.111	-0.107
-167.866	-19.449	0.116	-0.071
-166.852	601.795	-0.180	0.441
-165.837	800.000	0.043	-0.163
-164.823	43.733	0.260	-0.235
-163.808	-130.200	-0.069	0.009
-162.793	546.603	0.053	0.125
-161.779	-102.441	-0.293	-0.069
-160.764	223.217	0.099	-0.157
-159.750	800.000	0.036	0.142
-158.735	-200.000	0.008	0.228
-157.720	-77.303	0.200	-0.069
-156.706	-200.000	0.037	0.195
-155.691	-58.541	-0.176	-0.075
-154.677	-70.549	-0.432	0.161
-153.662	-91.392	0.077	0.022
-152.647	800.000	0.108	-0.420
-151.633	-107.850	-0.118	-0.025
-150.618	43.093	0.150	-0.135
-149.604	-70.223	-0.205	-0.077
-148.589	-200.000	0.029	0.297
-147.574	-200.000	-0.000	0.049
-146.560	119.528	0.043	0.053
-145.545	403.429	-0.171	0.356
-144.531	440.235	-0.090	0.194
-143.516	124.499	0.171	-0.213
-142.502	-200.000	0.005	-0.141
-141.487	-4.762	-0.109	-0.074
-140.472	9.148	-0.053	0.039
-139.458	330.181	0.134	-0.255
-138.443	-176.319	0.326	-0.008
-137.429	82.346	-0.048	0.051
-136.414	-112.711	-0.233	-0.046
-135.399	140.627	-0.051	-0.066
-134.385	-200.000	0.033	-0.283
-133.370	-125.887	0.130	-0.019
-132.356	-200.000	-0.005	0.319
-131.341	-27.857	-0.169	-0.097
-130.326	800.000	-0.016	0.053
-129.312	154.285	0.106	-0.143
-128.297	250.661	-0.047	0.078
-127.283	690.231	-0.141	-0.363
-126.268	-200.000	-0.013	0.177
-125.253	41.263	0.156	-0.139
-124.239	134.578	-0.043	-0.054
-123.224	-118.503	0.227	-0.040
-122.210	800.000	0.005	0.015
-121.195	-141.318	-0.044	0.004
-120.180	132.157	0.164	0.208
-119.166	75.517	-0.157	0.163
-118.151	30.588	0.185	-0.156
-117.137	-133.138	0.241	-0.030
-116.122	-200.000	-0.056	0.261
-115.107	-34.912	-0.090	-0.048
-114.093	-145.424	0.482	0.043
-113.078	-121.838	0.077	-0.013
-112.064	198.815	-0.122	0.184
-111.049	611.077	0.083	-0.204
-110.034	800.000	-0.062	-0.194
-109.020	-200.000	-0.016	0.111
-108.005	303.251	-0.092	0.167
-106.991	726.487	-0.050	0.131
-105.976	34.721	-0.241	0.208
-104.962	-150.004	-0.424	0.033
-103.947	17.472	0.143	0.112
-102.932	92.022	-0.089	-0.099
-101.918	-200.000	-0.035	-0.168
-100.903	-200.000	0.030	-0.143
-99.889	-87.446	-0.275	0.082
-98.874	33.311	0.211	-0.180
-97.859	444.046	-0.152	0.328
-96.845	249.056	-0.078	-0.130
-95.830	731.750	0.017	0.045
-94.816	-145.977	-0.057	0.005
-93.801	-37.658	0.198	0.104
-92.786	800.000	-0.113	0.319
-91.772	-43.550	0.111	-0.055
-90.757	-80.759	0.356	-0.116
-89.743	-1.098	-0.188	0.131
-88.728	68.498	0.230	-0.232
-87.713	86.347	-0.263	-0.285
-86.699	-119.352	-0.039	-0.007
-85.684	-40.754	-0.103	-0.052
-84.670	589.759	-0.095	-0.230
-83.655	-121.477	-0.053	-0.009
-82.640	-10.271	-0.331	-0.216
-81.626	-75.665	0.208	0.073
-80.611	181.701	-0.116	-0.168
-79.597	135.165	-0.239	0.306
-78.582	324.976	0.162	-0.305
-77.567	49.596	-0.208	0.192
-76.553	-121.871	0.227	0.037
-75.538	406.611	-0.044	0.091
-74.524	800.000	0.028	0.093
-73.509	69.740	0.062	0.063
-72.494	624.493	-0.105	0.260
-71.480	-91.587	0.502	0.141
-70.465	-122.051	0.191	-0.031
-69.451	-90.575	0.307	0.087
-68.436	800.000	0.056	-0.218
-67.422	160.494	-0.137	-0.188
-66.407	-200.000	-0.005	0.141
-65.392	454.772	0.026	-0.056
-64.378	-52.400	-0.125	0.057
-63.363	435.522	0.113	-0.242
-62.349	-108.668	0.356	0.075
-61.334	47.067	-0.704	-0.644
-60.319	40.797	0.766	0.679
-59.305	250.027	-0.448	-0.748
-58.290	800.000	0.393	1.097
-57.276	758.638	0.551	1.468
-56.261	-200.000	92.947	571.742
-55.246	572.075	1358.488	3253.067
-54.232	165.414	2522.222	3504.155
-53.217	113.920	2155.704	2576.315
-52.203	43.350	1703.341	1529.517
-51.188	35.923	1515.271	1310.276
-50.173	33.447	1488.296	1270.321
-49.159	52.988	1535.282	1443.812
-48.144	54.720	1553.411	1472.588
-47.130	36.061	1514.361	1310.224
-46.115	32.917	1499.473	1276.075
-45.100	32.733	1496.316	1272.101
-44.086	32.723	1494.285	1270.252
-43.071	32.749	1492.685	1269.017
-42.057	32.661	1491.171	1267.090
-41.042	32.734	1489.027	1265.706
-40.027	32.726	1488.166	1264.874
-39.013	32.543	1487.254	1262.821
-37.998	32.586	1485.663	1261.707
-36.984	32.651	1484.269	1260.904
-35.969	32.808	1482.619	1260.509
-34.954	32.749	1481.294	1258.933
-33.940	32.759	1480.041	1257.885
-32.925	32.739	1478.522	1256.415
-31.911	32.676	1477.261	1254.871
-30.896	32.660	1476.307	1253.904
-29.881	32.718	1474.697	1252.873
-28.867	32.734	1473.023	1251.507
-27.852	32.698	1472.017	1250.364
-26.838	32.757	1470.569	1249.479
-25.823	32.728	1468.914	1247.828
-24.809	32.756	1467.282	1246.580
-23.794	32.707	1465.866	1244.999
-22.779	32.704	1465.003	1244.200
-21.765	32.800	1463.486	1243.496
-20.750	32.690	1462.246	1241.667
-19.736	32.718	1461.192	1240.907
-18.721	32.696	1460.364	1240.008
-17.706	32.706	1459.115	1238.965
-16.692	32.637	1458.040	1237.550
-15.677	32.678	1456.872	1236.776
-14.663	32.561	1456.505	1235.652
-13.648	32.658	1455.103	1235.046
-12.633	32.639	1454.406	1234.283
-11.619	32.746	1453.682	1234.320
-10.604	32.690	1452.723	1233.089
-9.590	32.655	1451.563	1231.832
-8.575	32.717	1450.610	1231.372
-7.560	32.705	1449.857	1230.609
-6.546	32.693	1449.315	1230.024
-5.531	32.644	1448.599	1229.049
-4.517	32.593	1447.631	1227.843
-3.502	32.617	1446.719	1227.178
-2.487	32.706	1444.964	1226.223
-1.473	32.566	1444.844	1225.161
-0.458	32.691	1442.675	1224.081
0.556	30.657	1433.450	1212.423
1.571	27.526	1407.452	1170.254
2.586	23.797	1346.605	1096.599
3.600	21.845	1265.516	1019.139
4.615	20.671	1219.481	975.401
5.629	17.835	1162.977	914.940
6.644	8.967	1077.701	803.532
7.659	1.508	1035.167	735.749
8.673	0.287	1029.346	725.670
9.688	0.073	1026.474	722.552
10.702	0.014	1024.999	721.169
11.717	-0.013	1023.409	719.856
12.731	2.752	1026.269	735.067
13.746	11.432	1037.784	785.161
14.761	17.556	1044.937	820.078
15.775	17.463	1044.154	818.943
16.790	16.422	1041.517	811.806
17.804	15.452	1038.948	805.080
18.819	14.492	1037.522	799.307
19.834	14.140	1036.431	796.708
20.848	13.679	1035.606	793.797
21.863	13.460	1034.819	792.077
22.877	13.254	1034.019	790.408
23.892	13.171	1032.954	789.129
24.907	12.990	1032.443	787.805
25.921	13.050	1031.319	787.164
26.936	13.110	1030.621	786.846
27.950	13.148	1030.221	786.653
28.965	13.297	1029.170	786.487
29.980	13.247	1028.708	785.827
30.994	13.225	1028.146	785.226
32.009	13.363	1026.729	784.726
33.023	13.289	1026.351	784.016
34.038	13.301	1025.621	783.446
35.053	13.267	1024.872	782.643
36.067	13.225	1023.442	781.287
37.082	13.178	1022.844	780.539
38.096	13.233	1021.896	780.004
39.111	13.312	1021.304	779.858
40.126	13.310	1020.249	778.972
41.140	13.280	1019.674	778.325
42.155	13.175	1018.197	776.636
43.169	13.061	1017.450	775.458
44.184	12.981	1016.674	774.423
45.199	13.065	1015.316	773.715
46.213	13.065	1014.620	773.116
47.228	13.047	1013.594	772.180
48.242	13.047	1012.819	771.526
49.257	13.069	1011.957	770.900
50.271	13.159	1010.557	770.187
51.286	13.153	1009.655	769.402
52.301	13.157	1009.158	768.975
53.315	13.154	1008.152	768.126
54.330	13.018	1008.035	767.334
55.344	13.139	1006.314	766.519
56.359	13.142	1005.770	766.052
57.374	13.129	1004.719	765.122
58.388	13.106	1004.075	764.460
59.403	13.010	1003.375	763.414
60.417	13.114	1002.656	763.278
61.432	13.006	1001.939	762.166
62.447	13.090	1001.111	761.860
63.461	12.920	1000.744	760.728
64.476	13.053	999.170	760.078
65.490	13.048	998.489	759.468
66.505	12.974	997.872	758.589
67.520	13.025	997.142	758.203
68.534	12.979	996.440	757.394
69.549	13.090	995.745	757.303
70.563	13.042	994.631	756.172
71.578	12.942	994.651	755.662
72.593	12.941	993.414	754.648
73.607	12.898	992.617	753.780
74.622	12.953	991.638	753.223
75.636	12.830	990.809	751.966
76.651	12.966	990.138	752.008
77.666	12.891	989.264	750.935
78.680	12.952	988.564	750.618
79.695	12.913	987.881	749.854
80.709	12.901	987.635	749.547
81.724	13.121	986.381	749.526
82.739	13.027	985.651	748.480
83.753	13.096	984.944	748.191
84.768	13.176	984.328	748.020
85.782	13.298	983.150	747.608
86.797	13.295	982.749	747.222
87.812	13.309	981.488	746.260
88.826	13.126	980.986	744.990
89.841	13.147	980.500	744.649
90.855	13.231	979.284	744.039
91.870	13.163	978.824	743.317
92.884	13.130	978.262	742.674
93.899	13.293	977.282	742.596
94.914	13.283	976.256	741.708
95.928	13.336	975.824	741.549
96.943	13.401	975.554	741.572
97.957	13.340	973.970	740.027
98.972	13.225	973.071	738.764
99.987	13.357	972.312	738.712
101.001	13.318	971.927	738.180
102.016	13.271	971.245	737.391
103.030	13.260	970.400	736.634
104.045	13.289	969.294	735.859
105.060	13.212	968.547	734.884
106.074	13.187	967.790	734.134
107.089	13.212	966.786	733.417
108.103	13.058	965.919	732.014
109.118	13.031	965.252	731.324
110.133	12.974	964.177	730.192
111.147	12.987	963.753	729.864
112.162	13.065	962.779	729.403
113.176	13.041	961.596	728.339
114.191	13.061	960.912	727.845
115.206	13.188	959.977	727.629
116.220	13.240	958.886	726.967
117.235	13.138	958.216	725.948
118.249	13.157	957.469	725.400
119.264	13.122	956.472	724.427
120.279	13.207	956.032	724.404
121.293	13.017	955.042	722.756
122.308	13.114	954.209	722.486
123.322	12.935	953.583	721.168
124.337	12.974	952.696	720.601
125.352	13.023	951.361	719.744
126.366	12.988	950.447	718.836
127.381	13.240	948.787	718.610
128.395	13.130	948.763	718.050
129.410	12.954	948.220	716.813
130.424	13.045	947.112	716.304
131.439	13.193	945.599	715.739
132.454	13.169	945.489	715.488
133.468	13.200	944.714	714.974
134.483	13.134	944.051	714.123
135.497	13.181	943.348	713.729
136.512	13.219	942.284	713.027
137.527	13.156	942.094	712.549
138.541	13.127	940.894	711.453
139.556	13.251	940.046	711.281
140.570	13.112	939.632	710.306
141.585	13.246	938.835	710.218
142.600	13.415	938.018	710.264
143.614	13.212	937.883	709.225
144.629	13.418	936.395	708.922
145.643	13.365	935.945	708.292
146.658	13.419	935.104	707.822
147.673	13.255	934.422	706.543
148.687	13.287	933.456	705.886
149.702	13.207	932.735	704.937
150.716	13.311	931.267	704.211
151.731	13.232	930.738	703.412
152.746	13.305	929.756	702.917
153.760	13.236	929.215	702.150
154.775	13.254	928.842	701.885
155.789	13.388	927.734	701.552
156.804	13.171	927.556	700.436
157.819	13.491	926.066	700.602
158.833	13.402	925.922	700.057
159.848	13.369	925.363	699.431
160.862	13.474	924.350	699.047
161.877	13.425	923.500	698.135
162.892	13.511	922.515	697.694
163.906	13.274	921.819	696.106
164.921	13.435	920.904	696.033
165.935	13.346	920.128	695.008
166.950	13.289	919.064	693.907
167.964	13.466	918.142	693.891
168.979	13.466	917.245	693.153
169.994	13.401	916.548	692.290
171.008	13.384	915.607	691.449
172.023	13.492	914.995	691.375
173.037	13.551	913.948	690.768
174.052	13.560	913.275	690.238
175.067	13.568	912.937	689.954
176.081	13.402	912.448	688.833
177.096	13.497	911.248	688.258
178.110	13.400	910.725	687.403
179.125	13.429	909.693	686.680
180.140	13.422	909.285	686.282
181.154	13.484	908.665	686.013
182.169	13.493	907.987	685.478
183.183	13.583	906.980	685.028
184.198	13.645	906.538	684.888
185.213	13.799	905.531	684.706
186.227	13.716	905.225	684.068
187.242	13.588	904.762	683.133
188.256	13.707	904.209	683.143
189.271	13.682	903.204	682.222
190.286	13.714	902.500	681.759
191.300	13.610	901.696	680.667
192.315	13.604	900.957	680.022
193.329	13.523	900.057	678.950
194.344	13.567	899.941	678.983
195.359	13.599	899.286	678.562
196.373	13.654	898.751	678.323
197.388	13.703	898.187	678.035
198.402	13.700	897.834	677.699
199.417	13.959	897.108	678.148
200.432	13.801	897.244	677.544
201.446	13.890	896.441	677.242
202.461	13.915	896.142	677.057
203.475	14.181	895.115	677.303
204.490	13.896	894.997	675.995
205.504	13.854	894.131	675.109
206.519	14.012	893.144	674.949
207.534	13.855	892.467	673.742
208.548	13.952	891.963	673.693
209.563	14.009	891.001	673.135
210.577	13.729	890.874	671.849
211.592	13.914	889.877	671.784
212.607	14.021	889.206	671.652
213.621	14.068	888.763	671.448
214.636	14.044	888.138	670.820
215.650	14.017	887.672	670.299
216.665	14.009	887.051	669.738
217.680	14.058	886.554	669.501
218.694	14.084	886.048	669.163
219.709	14.225	885.415	669.194
220.723	14.168	884.481	668.198
221.738	14.343	883.734	668.277
222.753	14.256	883.225	667.485
223.767	14.284	882.451	666.952
224.782	14.322	881.296	666.174
225.796	14.280	881.205	665.878
226.811	14.274	880.640	665.367
227.826	14.187	880.026	664.499
228.840	14.316	879.238	664.359
229.855	14.286	878.538	663.653
230.869	14.226	877.814	662.807
231.884	14.222	877.071	662.170
232.899	14.289	876.272	661.778
233.913	14.249	875.971	661.329
234.928	14.212	875.185	660.534
235.942	14.170	874.490	659.784
236.957	14.140	874.037	659.264
237.972	14.132	873.363	658.665
238.986	14.314	872.185	658.437
240.001	14.206	872.223	657.981
241.015	14.145	871.225	656.931
242.030	14.260	870.545	656.811
243.045	14.390	869.784	656.693
244.059	14.261	869.272	655.741
245.074	14.442	869.061	656.236
246.088	14.339	868.315	655.209
247.103	14.348	867.945	654.909
248.117	14.492	867.159	654.824
249.132	14.561	866.528	654.560
250.147	14.633	866.146	654.494
251.161	14.646	865.183	653.760
252.176	14.755	864.668	653.738
253.190	14.812	864.132	653.499
254.205	14.710	863.413	652.500
255.220	14.823	862.903	652.497
256.234	14.625	862.212	651.144
257.249	14.715	861.687	651.043
258.263	14.749	861.054	650.639
259.278	14.792	860.729	650.502
260.293	14.864	859.997	650.170
261.307	14.960	858.987	649.724
262.322	14.993	858.653	649.541
263.336	15.078	858.001	649.319
264.351	14.975	857.437	648.439
265.366	14.934	856.969	647.867
266.380	15.011	856.519	647.767
267.395	14.927	855.916	646.928
268.409	15.068	854.964	646.696
269.424	15.082	854.115	646.050
270.439	14.989	853.323	645.036
271.453	15.054	852.877	644.891
272.468	14.893	852.240	643.734
273.482	14.941	851.820	643.546
274.497	14.903	851.559	643.143
275.512	15.032	850.351	642.673
276.526	14.928	850.228	642.123
277.541	14.919	849.369	641.380
278.555	15.066	848.622	641.324
279.570	15.244	848.190	641.621
280.585	15.145	847.693	640.809
281.599	15.310	846.882	640.770
282.614	15.093	846.837	639.850
283.628	15.066	845.896	638.979
284.643	15.060	845.696	638.751
285.657	15.079	844.845	638.123
286.672	15.295	844.132	638.353
287.687	15.116	843.789	637.354
288.701	15.150	843.594	637.280
289.716	15.376	842.460	637.226
290.730	15.275	841.946	636.398
291.745	15.207	841.631	635.845
292.760	15.205	840.821	635.169
293.774	15.308	840.509	635.268
294.789	15.400	839.841	635.055
295.803	15.318	839.486	634.419
296.818	15.378	838.487	633.836
297.833	15.430	837.867	633.506
298.847	15.362	837.006	632.541
299.862	15.346	836.929	632.370
300.876	15.411	836.544	632.267
301.891	15.204	835.845	630.904
302.906	15.541	834.729	631.271
303.920	15.549	834.373	630.978
304.935	15.572	833.526	630.368
305.949	15.618	832.736	629.884
306.964	15.685	832.250	629.713
307.979	15.579	831.947	629.030
308.993	15.644	831.422	628.823
310.008	15.605	830.705	628.077
311.022	15.503	830.382	627.396
312.037	15.601	829.692	627.186
313.052	15.617	829.308	626.902
314.066	15.745	828.515	626.722
315.081	15.558	827.964	625.554
316.095	15.552	827.412	625.061
317.110	15.607	827.172	625.029
318.125	15.673	826.451	624.671
319.139	15.514	826.292	623.906
320.154	15.525	825.580	623.354
321.168	15.595	824.877	623.028
322.183	15.745	824.168	622.992
323.197	15.548	823.886	621.993
324.212	15.814	823.382	622.545
325.227	15.790	823.019	622.127
326.241	15.845	822.243	621.687
327.256	15.835	821.678	621.168
328.270	15.713	820.843	620.033
329.285	15.666	820.729	619.719
330.300	15.740	820.141	619.492
331.314	15.850	819.558	619.400
332.329	15.763	818.628	618.323
333.343	15.772	818.242	618.009
334.358	15.945	817.558	618.072
335.373	15.883	817.486	617.735
336.387	16.051	816.894	617.850
337.402	15.911	816.205	616.764
338.416	15.847	815.573	615.996
339.431	15.979	815.142	616.100
340.446	16.013	814.243	615.489
341.460	16.037	813.859	615.234
342.475	16.072	813.475	615.015
343.489	16.049	812.727	614.311
344.504	16.137	812.561	614.452
345.519	16.143	812.109	614.079
346.533	16.237	811.389	613.820
347.548	16.201	811.013	613.350
348.562	16.012	810.663	612.344
349.577	16.026	809.883	611.752
350.592	16.179	809.245	611.770
351.606	16.180	808.850	611.422
352.621	15.993	808.386	610.342
353.635	15.966	808.243	610.080
354.650	16.112	807.785	610.210
355.665	16.005	807.442	609.510
356.679	16.176	806.757	609.555
357.694	16.246	805.919	609.121
358.708	16.288	805.720	609.070
359.723	16.357	805.060	608.764
360.738	16.208	804.560	607.796
361.752	16.144	804.239	607.271
362.767	16.192	803.988	607.198
363.781	16.413	803.539	607.601
364.796	16.319	802.931	606.749
365.810	16.525	802.415	607.044
366.825	16.471	802.266	606.687
367.840	16.477	801.885	606.366
368.854	16.414	801.370	605.697
369.869	16.499	800.794	605.512
370.883	16.496	800.262	605.046
371.898	16.480	800.074	604.792
372.913	16.403	799.250	603.841
373.927	16.567	798.113	603.513
374.942	16.598	798.016	603.498
375.956	16.652	797.298	603.093
376.971	16.546	796.809	602.294
377.986	16.656	796.091	602.087
379.000	16.720	795.869	602.095
380.015	16.680	795.605	601.700
381.029	16.805	794.592	601.324
382.044	16.635	794.539	600.627
383.059	16.680	793.700	600.097
384.073	16.804	793.356	600.224
385.088	16.733	792.701	599.426
386.102	16.808	791.965	599.081
387.117	16.772	791.584	598.611
388.132	16.687	791.144	597.927
389.146	16.722	790.894	597.807
390.161	16.715	790.544	597.464
391.175	16.886	789.851	597.492
392.190	16.774	789.708	596.936
393.205	16.843	789.027	596.610
394.219	16.989	788.636	596.778
395.234	16.738	788.338	595.617
396.248	16.815	787.545	595.233
397.263	16.671	787.194	594.412
398.278	16.805	786.624	594.398
399.292	16.859	786.173	594.194
400.307	16.770	786.001	593.701
401.321	16.641	785.748	593.005
402.336	16.835	785.122	593.157
403.350	16.960	784.491	593.064
404.365	16.890	784.386	592.690
405.380	16.998	783.808	592.578
406.394	16.920	783.297	591.866
407.409	17.076	782.920	592.075
408.423	16.874	782.617	591.088
409.438	16.998	781.976	590.981
410.453	17.167	781.719	591.323
411.467	17.164	781.158	590.836
412.482	17.207	780.814	590.675
413.496	17.284	780.264	590.474
414.511	17.167	780.147	589.927
415.526	17.260	779.597	589.783
416.540	17.277	779.092	589.407
417.555	17.170	778.817	588.775
418.569	17.375	778.075	588.871
419.584	17.211	777.764	588.017
420.599	17.471	777.081	588.348
421.613	107.076	1286.264	1456.164
422.628	91.453	1360.448	1456.256
