DTS Sentinel unit serial number:	SN413079Multiplexer serial number:	ORYXHardware model number:	OX4-SRSoftware version number:	ORYX F/W v4.00 Oryx Data Collector v3.7.2.0data status	okinstallation	princeton_trtdifferential loss correction	single-endedforward channel	channel 3reverse channel	N/Adate	2019/09/15time	03:08:34forward acquisition time	60.00reverse acquisition time	0.00gamma	496.2192k internal	0.2323k external	0.2323temperature offset calibration	0.9966default loss term (dB/km)	0.3790temperature slope calibration	1.0000multiplexer offset coefficient	1.0000multiplexer slope coefficient	1.0000fibre end	0.00T internal ref (°C)	31.16T ext. ref 1 (°C)	4.59T ext. ref 2 (°C)	25.76length (m)	temperature (°C)	Stokes	anti-Stokes-747.200	200.327	0.107	0.167
-746.185	21.430	-0.207	0.170
-745.171	-200.000	0.023	0.303
-744.156	10.144	-0.118	-0.090
-743.142	-107.703	0.226	-0.050
-742.127	-200.000	-0.045	-0.269
-741.112	-200.000	-0.006	-0.202
-740.098	115.248	0.231	0.284
-739.083	-56.677	0.245	-0.110
-738.069	-45.120	-0.244	0.122
-737.054	-18.400	0.137	0.086
-736.039	122.793	-0.190	-0.240
-735.025	-55.190	0.411	-0.186
-734.010	718.062	-0.135	-0.363
-732.996	-111.575	0.181	-0.037
-731.981	198.511	0.147	-0.228
-730.966	-110.816	0.170	-0.035
-729.952	-110.066	0.243	-0.051
-728.937	-130.970	-0.315	-0.042
-727.923	800.000	-0.124	-0.531
-726.908	-85.327	-0.196	0.062
-725.894	-26.079	-0.212	0.126
-724.879	349.812	0.153	0.305
-723.864	-8.441	0.080	0.054
-722.850	-14.797	-0.186	-0.120
-721.835	35.017	-0.392	-0.347
-720.821	-200.000	0.290	0.000
-719.806	-74.768	0.283	0.103
-718.791	90.807	-0.303	-0.342
-717.777	557.998	-0.114	-0.277
-716.762	800.000	0.040	-0.166
-715.748	3.965	-0.187	0.138
-714.733	210.881	-0.157	-0.250
-713.718	-200.000	-0.009	0.128
-712.704	-114.224	-0.173	0.034
-711.689	-47.462	-0.194	0.095
-710.675	-19.763	0.038	0.024
-709.660	295.942	-0.170	-0.314
-708.645	800.000	-0.069	-0.218
-707.631	-146.447	-0.197	0.017
-706.616	94.956	-0.024	-0.027
-705.602	200.529	-0.082	0.126
-704.587	-92.676	0.457	-0.129
-703.572	7.457	0.206	-0.155
-702.558	-18.293	-0.143	-0.090
-701.543	39.751	0.043	-0.039
-700.529	-39.949	0.046	0.024
-699.514	-91.763	0.122	-0.035
-698.499	-200.000	-0.006	0.174
-697.485	-170.653	-0.136	0.005
-696.470	-200.000	0.056	-0.323
-695.456	-127.938	0.355	-0.051
-694.441	800.000	-0.188	0.524
-693.426	63.542	-0.319	-0.323
-692.412	533.512	-0.124	-0.296
-691.397	65.207	0.099	-0.100
-690.383	-99.570	-0.192	0.049
-689.368	-200.000	0.034	0.169
-688.354	-200.000	-0.024	0.151
-687.339	-200.000	-0.265	0.001
-686.324	-200.000	-0.012	0.400
-685.310	217.460	-0.195	-0.312
-684.295	273.713	-0.092	-0.163
-683.281	-127.943	-0.076	-0.011
-682.266	-82.693	0.006	-0.002
-681.251	77.141	0.119	0.127
-680.237	-200.000	0.007	0.066
-679.222	800.000	0.093	-0.323
-678.208	413.257	0.052	-0.112
-677.193	-200.000	-0.031	-0.233
-676.178	267.700	0.248	0.438
-675.164	-137.235	0.233	0.027
-674.149	-33.119	0.193	-0.108
-673.135	-17.476	0.232	0.147
-672.120	68.937	-0.322	-0.333
-671.105	90.154	-0.051	0.058
-670.091	29.815	0.089	-0.077
-669.076	309.514	-0.209	-0.394
-668.062	-47.178	-0.263	0.129
-667.047	104.639	-0.032	-0.038
-666.032	-200.000	0.022	-0.285
-665.018	-200.000	0.028	0.299
-664.003	739.376	-0.037	-0.101
-662.989	183.327	-0.077	0.115
-661.974	800.000	-0.026	-0.106
-660.959	64.395	-0.113	-0.115
-659.945	244.188	-0.144	0.243
-658.930	-99.020	-0.135	-0.034
-657.916	-200.000	0.025	-0.259
-656.901	46.575	0.309	-0.289
-655.886	4.498	-0.195	-0.144
-654.872	100.024	0.148	0.173
-653.857	-5.083	-0.131	-0.091
-652.843	77.060	0.181	0.194
-651.828	-16.953	-0.418	-0.266
-650.814	-75.638	-0.137	-0.049
-649.799	434.828	0.048	-0.104
-648.784	-65.146	0.269	0.109
-647.770	800.000	0.047	-0.144
-646.755	6.844	0.107	-0.080
-645.741	-86.375	-0.222	0.069
-644.726	-141.884	0.153	-0.015
-643.711	462.354	0.015	0.034
-642.697	-20.703	-0.093	-0.057
-641.682	-200.000	-0.054	0.407
-640.668	45.514	0.190	0.177
-639.653	-5.758	-0.139	-0.096
-638.638	233.648	-0.060	-0.099
-637.624	-87.204	-0.309	-0.094
-636.609	162.697	0.196	-0.277
-635.595	-200.000	-0.003	-0.026
-634.580	161.963	-0.278	-0.391
-633.565	382.200	-0.042	-0.087
-632.551	20.828	-0.203	-0.166
-631.536	-68.329	-0.180	0.070
-630.522	-200.000	0.237	-0.000
-629.507	-8.448	0.174	-0.118
-628.492	-143.569	-0.065	-0.006
-627.478	-83.598	0.204	0.065
-626.463	423.086	0.128	-0.277
-625.449	-116.736	-0.372	0.069
-624.434	319.364	-0.069	-0.132
-623.419	-200.000	0.014	-0.181
-622.405	-2.227	-0.323	-0.228
-621.390	124.504	0.197	-0.249
-620.376	499.036	-0.125	-0.290
-619.361	3.385	0.194	-0.142
-618.346	-32.172	-0.293	0.165
-617.332	252.801	-0.045	0.076
-616.317	-149.476	-0.348	-0.028
-615.303	-200.000	-0.049	0.234
-614.288	-200.000	0.025	-0.113
-613.273	-58.879	0.089	0.039
-612.259	800.000	-0.087	0.376
-611.244	97.016	-0.071	0.082
-610.230	-73.340	0.297	0.109
-609.215	-9.198	0.384	0.258
-608.201	331.453	-0.093	-0.181
-607.186	-68.822	0.080	-0.031
-606.171	-37.651	0.111	0.059
-605.157	-200.000	0.014	0.073
-604.142	622.118	0.037	-0.094
-603.128	-27.757	-0.166	-0.097
-602.113	604.584	-0.080	0.199
-601.098	1.207	0.278	0.200
-600.084	291.486	0.094	0.171
-599.069	-200.000	-0.044	-0.386
-598.055	-94.455	-0.081	-0.022
-597.040	-106.630	0.179	-0.040
-596.025	93.230	0.202	0.229
-595.011	-58.785	0.048	-0.021
-593.996	-200.000	-0.005	0.045
-592.982	800.000	-0.100	0.280
-591.967	-30.792	0.290	0.164
-590.952	375.879	-0.140	0.287
-589.938	322.143	0.075	0.144
-588.923	-135.348	-0.356	0.043
-587.909	-49.972	-0.072	-0.034
-586.894	-200.000	-0.009	0.616
-585.879	179.621	-0.106	0.155
-584.865	800.000	0.075	-0.264
-583.850	-36.515	0.045	-0.024
-582.836	95.785	0.118	0.135
-581.821	-128.898	-0.279	0.039
-580.806	83.565	0.144	0.158
-579.792	800.000	0.071	-0.268
-578.777	800.000	-0.063	-0.201
-577.763	-15.871	-0.085	0.054
-576.748	333.701	0.087	-0.169
-575.733	428.321	0.047	0.102
-574.719	-50.612	-0.100	0.047
-573.704	107.225	0.040	-0.048
-572.690	800.000	0.027	-0.119
-571.675	-200.000	-0.041	0.263
-570.661	-200.000	-0.090	0.418
-569.646	279.974	-0.046	0.083
-568.631	-72.256	-0.090	-0.033
-567.617	5.301	-0.338	-0.250
-566.602	-200.000	0.026	-0.150
-565.588	-122.637	0.138	0.022
-564.573	286.916	0.211	0.382
-563.558	800.000	0.031	-0.120
-562.544	122.521	-0.090	-0.113
-561.529	-200.000	0.057	0.352
-560.515	-68.489	-0.174	-0.068
-559.500	199.850	0.174	-0.267
-558.485	-80.133	0.339	0.114
-557.471	-93.662	0.331	0.091
-556.456	-10.824	0.142	-0.094
-555.442	47.452	-0.339	-0.317
-554.427	-89.761	0.175	-0.051
-553.412	-20.354	-0.092	-0.057
-552.398	-200.000	0.028	0.215
-551.383	800.000	-0.014	-0.053
-550.369	800.000	-0.035	0.098
-549.354	552.713	-0.101	-0.244
-548.339	68.721	-0.113	-0.116
-547.325	101.778	0.042	0.049
-546.310	-200.000	-0.106	-0.481
-545.296	73.420	0.220	-0.231
-544.281	19.994	0.236	0.190
-543.266	-112.733	0.286	0.057
-542.252	191.420	-0.171	0.258
-541.237	483.211	0.085	-0.194
-540.223	110.070	0.246	0.296
-539.208	169.265	0.064	0.092
-538.193	-47.099	0.177	0.086
-537.179	-12.595	-0.179	-0.117
-536.164	-200.000	-0.019	-0.133
-535.150	-200.000	-0.026	-0.144
-534.135	-137.325	-0.285	0.032
-533.121	10.195	-0.196	-0.149
-532.106	417.266	0.047	-0.101
-531.091	-88.320	-0.117	0.035
-530.077	131.040	-0.261	0.335
-529.062	-200.000	-0.006	-0.197
-528.048	110.347	0.253	-0.304
-527.033	-151.726	0.046	0.003
-526.018	126.642	0.168	0.213
-525.004	461.076	-0.088	0.197
-523.989	-61.589	0.088	-0.037
-522.975	-37.960	0.205	0.109
-521.960	43.577	-0.264	-0.242
-520.945	684.589	0.079	-0.207
-519.931	-57.399	-0.242	0.106
-518.916	131.146	-0.143	0.183
-517.902	301.901	0.179	0.332
-516.887	-165.369	-0.206	0.009
-515.872	-45.375	-0.394	-0.196
-514.858	800.000	-0.031	0.098
-513.843	-200.000	-0.020	-0.127
-512.829	-59.720	0.167	-0.072
-511.814	-88.213	-0.338	0.101
-510.799	-56.777	0.271	-0.120
-509.785	-118.232	-0.126	0.022
-508.770	-38.781	-0.210	0.111
-507.756	-139.896	-0.142	0.015
-506.741	-200.000	-0.016	0.115
-505.726	-40.773	-0.227	0.117
-504.712	-47.093	0.165	-0.080
-503.697	-75.780	-0.089	-0.032
-502.683	700.588	0.023	0.062
-501.668	-124.998	0.165	-0.025
-500.653	-73.893	0.062	0.022
-499.639	366.445	0.088	0.177
-498.624	-182.793	-0.230	0.004
-497.610	-165.865	-0.043	0.002
-496.595	-6.277	-0.209	-0.143
-495.581	232.432	0.106	-0.173
-494.566	331.443	0.110	-0.212
-493.551	-92.620	-0.124	0.035
-492.537	164.153	-0.060	-0.085
-491.522	-77.862	0.102	0.035
-490.508	-93.722	0.196	0.054
-489.493	-112.989	0.180	-0.036
-488.478	-160.412	0.143	0.008
-487.464	-2.801	-0.121	-0.084
-486.449	-173.293	-0.307	-0.009
-485.435	396.427	0.114	-0.237
-484.420	-45.995	0.130	-0.064
-483.405	-130.270	0.292	-0.040
-482.391	-103.387	0.086	0.020
-481.376	372.939	-0.182	0.371
-480.362	-36.967	-0.346	0.185
-479.347	132.238	-0.121	-0.156
-478.332	-200.000	0.087	0.460
-477.318	-200.000	0.026	0.153
-476.303	-91.563	-0.402	-0.114
-475.289	183.151	0.036	-0.053
-474.274	49.370	-0.267	-0.251
-473.259	800.000	0.037	0.118
-472.245	-103.454	-0.066	0.016
-471.230	-96.821	-0.068	-0.018
-470.216	246.776	-0.115	0.195
-469.201	-148.409	0.495	0.041
-468.186	-187.406	0.254	0.003
-467.172	114.342	-0.181	-0.221
-466.157	-51.265	0.253	-0.118
-465.143	140.975	0.144	-0.190
-464.128	-44.583	0.317	-0.158
-463.113	-159.977	-0.235	0.013
-462.099	800.000	-0.023	0.082
-461.084	-55.186	-0.131	0.059
-460.070	-68.648	0.247	-0.096
-459.055	-200.000	-0.036	0.286
-458.040	800.000	-0.052	0.189
-457.026	110.330	0.199	0.239
-456.011	-163.245	0.152	0.007
-454.997	60.566	0.196	0.194
-453.982	800.000	-0.035	0.117
-452.968	-150.971	-0.422	0.032
-451.953	70.781	-0.140	0.144
-450.938	-28.074	-0.390	-0.225
-449.924	-200.000	-0.157	-0.001
-448.909	615.490	0.065	-0.163
-447.895	286.737	-0.101	0.183
-446.880	356.209	0.109	-0.217
-445.865	-200.000	-0.015	0.105
-444.851	46.364	-0.088	-0.082
-443.836	221.421	0.093	-0.149
-442.822	176.154	0.246	-0.356
-441.807	59.270	-0.252	-0.248
-440.792	288.241	-0.245	-0.443
-439.778	-82.734	-0.214	0.069
-438.763	-200.000	0.014	0.092
-437.749	800.000	0.082	0.283
-436.734	233.580	-0.127	0.208
-435.719	-21.530	-0.290	0.176
-434.705	-200.000	-0.015	-0.163
-433.690	-78.867	-0.387	0.132
-432.676	250.040	-0.206	-0.349
-431.661	-23.740	-0.299	-0.179
-430.646	800.000	-0.043	-0.184
-429.632	-168.119	-0.291	-0.011
-428.617	-200.000	0.021	-0.289
-427.603	222.702	0.087	0.140
-426.588	99.030	-0.138	0.159
-425.573	44.282	-0.176	0.161
-424.559	67.633	-0.370	0.377
-423.544	800.000	0.051	0.151
-422.530	-15.833	0.100	0.063
-421.515	-167.237	0.133	-0.005
-420.500	82.089	0.105	0.114
-419.486	-154.128	0.009	0.001
-418.471	441.984	0.072	0.156
-417.457	-10.655	0.179	0.118
-416.442	-200.000	0.004	-0.217
-415.428	-124.245	0.277	0.043
-414.413	-18.079	0.037	-0.023
-413.398	-9.050	0.183	-0.122
-412.384	-148.645	-0.147	0.012
-411.369	-200.000	0.033	-0.228
-410.355	-52.317	0.048	0.022
-409.340	-200.000	0.014	-0.210
-408.325	-23.692	0.212	0.127
-407.311	-200.000	-0.035	0.242
-406.296	-113.169	0.473	-0.093
-405.282	-50.857	-0.133	0.062
-404.267	-200.000	0.008	0.323
-403.252	-167.280	-0.225	0.009
-402.238	-200.000	-0.018	-0.113
-401.223	-67.967	-0.301	-0.117
-400.209	-133.725	0.348	-0.043
-399.194	-42.551	-0.361	-0.183
-398.179	-121.262	-0.302	-0.050
-397.165	-101.214	0.354	0.086
-396.150	-63.980	-0.044	-0.018
-395.136	343.794	0.085	-0.166
-394.121	218.529	0.197	-0.314
-393.106	800.000	-0.071	-0.276
-392.092	34.836	-0.147	-0.128
-391.077	18.161	0.179	-0.142
-390.063	36.478	0.213	0.188
-389.048	-109.689	0.192	0.040
-388.033	7.221	-0.228	0.170
-387.019	-200.000	0.037	-0.507
-386.004	-200.000	-0.006	-0.203
-384.990	774.714	-0.059	-0.160
-383.975	608.986	-0.036	0.090
-382.960	800.000	-0.033	0.106
-381.946	-85.855	0.130	0.040
-380.931	-124.815	-0.186	-0.029
-379.917	-200.000	0.023	-0.114
-378.902	17.629	-0.342	-0.271
-377.888	-53.769	0.153	-0.069
-376.873	800.000	-0.041	-0.157
-375.858	-200.000	-0.036	0.258
-374.844	-123.450	0.143	-0.023
-373.829	-174.716	0.045	0.001
-372.815	409.377	0.082	-0.174
-371.800	-200.000	-0.016	0.183
-370.785	-73.825	0.117	0.042
-369.771	53.655	0.313	0.299
-368.756	-67.593	0.182	0.071
-367.742	-200.000	-0.073	0.324
-366.727	643.464	0.046	0.116
-365.712	-31.497	0.125	0.070
-364.698	42.171	-0.214	-0.194
-363.683	-66.073	-0.094	0.037
-362.669	-200.000	0.022	-0.102
-361.654	660.651	-0.065	-0.167
-360.639	361.993	0.136	-0.272
-359.625	-60.845	-0.269	0.113
-358.610	104.490	0.240	0.281
-357.596	41.611	0.142	-0.128
-356.581	111.121	-0.078	-0.093
-355.566	-174.960	0.253	-0.007
-354.552	-161.427	0.662	-0.034
-353.537	-200.000	0.044	-0.347
-352.523	-200.000	-0.004	-0.086
-351.508	-37.611	0.319	0.169
-350.493	-200.000	0.006	-0.085
-349.479	-12.700	-0.173	-0.112
-348.464	194.520	-0.018	-0.027
-347.450	146.123	0.394	-0.526
-346.435	800.000	-0.081	-0.327
-345.420	-57.374	-0.285	0.125
-344.406	-5.758	-0.163	0.111
-343.391	-69.504	0.075	-0.029
-342.377	800.000	-0.109	-0.378
-341.362	214.855	0.111	0.174
-340.348	-8.494	0.186	0.124
-339.333	800.000	0.026	-0.072
-338.318	-200.000	0.022	-0.120
-337.304	366.720	-0.083	0.167
-336.289	-200.000	0.404	0.000
-335.275	-79.298	-0.213	-0.072
-334.260	-200.000	-0.052	0.253
-333.245	-41.595	-0.071	0.036
-332.231	127.384	-0.200	0.252
-331.216	-85.255	0.329	-0.102
-330.202	-12.194	0.057	-0.037
-329.187	-83.222	-0.297	-0.095
-328.172	427.528	-0.079	-0.168
-327.158	-184.044	-0.211	0.003
-326.143	30.896	-0.037	0.032
-325.129	-60.561	0.252	0.106
-324.114	2.445	0.043	0.031
-323.099	-22.550	-0.300	0.180
-322.085	-93.285	-0.108	-0.030
-321.070	-200.000	0.010	0.184
-320.056	-116.321	-0.221	-0.041
-319.041	-149.567	-0.107	-0.008
-318.026	215.388	-0.225	0.354
-317.012	-200.000	0.014	-0.215
-315.997	382.833	0.105	-0.215
-314.983	19.935	0.286	0.229
-313.968	800.000	-0.019	0.058
-312.953	-126.216	0.107	-0.016
-311.939	-103.847	0.278	-0.065
-310.924	800.000	-0.039	0.143
-309.910	800.000	-0.058	-0.244
-308.895	800.000	-0.075	0.281
-307.880	17.660	0.156	0.123
-306.866	-73.353	-0.315	-0.114
-305.851	-200.000	0.032	0.274
-304.837	63.506	-0.084	0.084
-303.822	71.766	0.105	-0.108
-302.807	54.326	-0.158	0.151
-301.793	163.435	0.145	-0.203
-300.778	800.000	-0.098	-0.294
-299.764	417.208	0.168	0.356
-298.749	-173.840	-0.118	-0.003
-297.735	21.264	0.099	-0.080
-296.720	138.458	0.229	0.298
-295.705	-39.333	0.260	-0.135
-294.691	-49.732	-0.181	-0.085
-293.676	472.778	0.126	0.282
-292.662	-131.121	0.401	0.053
-291.647	303.038	0.090	0.166
-290.632	51.677	-0.300	0.283
-289.618	-75.890	0.017	0.006
-288.603	-200.000	0.013	0.190
-287.589	-106.520	-0.217	-0.048
-286.574	-200.000	-0.003	-0.017
-285.559	265.253	0.116	0.200
-284.545	-200.000	-0.031	0.533
-283.530	275.067	0.024	-0.042
-282.516	-25.830	0.134	0.078
-281.501	-18.988	0.301	0.186
-280.486	199.589	0.235	-0.357
-279.472	-200.000	-0.054	0.295
-278.457	46.368	0.121	-0.111
-277.443	-200.000	0.023	-0.291
-276.428	-94.207	0.089	-0.024
-275.413	364.359	0.144	0.287
-274.399	-44.970	0.176	0.087
-273.384	-164.705	-0.182	-0.008
-272.370	228.243	-0.089	-0.144
-271.355	264.297	-0.120	0.207
-270.340	-84.774	0.160	-0.050
-269.326	-133.158	-0.084	-0.011
-268.311	-200.000	-0.091	0.000
-267.297	56.857	0.226	0.218
-266.282	-87.211	0.103	-0.031
-265.267	294.447	-0.165	0.299
-264.253	-107.607	-0.119	-0.026
-263.238	28.377	-0.344	0.288
-262.224	-62.193	-0.278	-0.115
-261.209	-130.270	0.481	-0.065
-260.195	-200.000	0.011	0.051
-259.180	-33.190	-0.216	-0.119
-258.165	-129.103	0.182	0.025
-257.151	246.106	0.106	0.177
-256.136	272.985	-0.071	0.125
-255.122	42.739	0.118	-0.106
-254.107	4.585	0.215	-0.156
-253.092	-44.441	-0.075	-0.037
-252.078	137.708	-0.116	-0.151
-251.063	645.401	0.026	0.065
-250.049	622.376	0.081	-0.201
-249.034	800.000	0.046	-0.170
-248.019	-125.167	-0.274	-0.042
-247.005	235.336	0.170	-0.278
-245.990	-62.877	0.053	0.022
-244.976	151.750	-0.066	-0.089
-243.961	68.294	0.240	-0.243
-242.946	-113.718	0.148	0.029
-241.932	-32.817	0.228	-0.125
-240.917	-200.000	0.047	0.255
-239.903	58.414	0.138	-0.134
-238.888	-109.932	0.212	0.044
-237.873	85.365	-0.025	0.027
-236.859	-65.059	-0.115	-0.046
-235.844	361.905	0.112	-0.222
-234.830	342.540	-0.139	-0.269
-233.815	276.605	0.018	0.031
-232.800	-174.952	0.295	-0.008
-231.786	91.245	-0.142	0.158
-230.771	-81.416	-0.345	0.113
-229.757	-200.000	-0.014	0.080
-228.742	187.064	0.133	-0.197
-227.727	-145.662	-0.288	0.025
-226.713	-200.000	-0.002	-0.020
-225.698	-70.699	0.237	-0.089
-224.684	-86.149	-0.157	-0.048
-223.669	66.138	-0.194	-0.195
-222.655	-92.134	0.057	0.016
-221.640	800.000	0.060	0.195
-220.625	-105.281	0.440	-0.099
-219.611	800.000	0.030	-0.083
-218.596	-200.000	-0.041	0.588
-217.582	641.644	-0.048	-0.121
-216.567	93.721	-0.154	0.173
-215.552	-170.771	0.199	0.007
-214.538	-138.443	-0.432	0.047
-213.523	-37.710	0.033	-0.017
-212.509	428.621	-0.028	0.061
-211.494	-34.516	-0.184	0.100
-210.479	-34.048	0.153	-0.083
-209.465	800.000	0.007	-0.032
-208.450	-188.289	-0.260	0.003
-207.436	-78.169	0.108	0.037
-206.421	222.395	0.142	0.226
-205.406	231.300	0.128	-0.207
-204.392	-105.219	0.107	-0.024
-203.377	-132.572	-0.036	0.005
-202.363	573.099	-0.040	-0.097
-201.348	-0.115	-0.094	0.066
-200.333	-54.781	0.150	-0.067
-199.319	422.283	0.037	0.078
-198.304	-98.572	-0.149	-0.038
-197.290	-24.328	0.295	0.174
-196.275	307.783	-0.076	0.139
-195.260	800.000	0.051	-0.157
-194.246	93.271	0.209	0.234
-193.231	289.342	-0.054	-0.097
-192.217	-38.537	-0.105	0.055
-191.202	-0.938	0.468	-0.328
-190.187	-200.000	-0.017	-0.259
-189.173	-81.270	-0.538	0.176
-188.158	-40.636	0.110	0.056
-187.144	-175.052	-0.212	-0.006
-186.129	-200.000	0.021	-0.200
-185.114	74.463	-0.222	-0.230
-184.100	235.843	-0.072	0.117
-183.085	236.661	0.076	0.124
-182.071	57.043	-0.238	-0.229
-181.056	-73.544	0.277	-0.100
-180.042	298.390	-0.081	-0.146
-179.027	-100.676	0.178	-0.043
-178.012	220.666	-0.089	0.142
-176.998	148.516	0.005	0.007
-175.983	417.376	0.111	0.234
-174.969	-126.210	-0.225	0.033
-173.954	-80.825	-0.085	0.028
-172.939	-34.280	-0.048	-0.026
-171.925	703.556	-0.129	0.337
-170.910	394.448	-0.039	0.079
-169.896	87.959	-0.122	-0.133
-168.881	207.457	0.194	-0.299
-167.866	-3.005	-0.237	0.164
-166.852	193.857	0.167	-0.250
-165.837	-65.735	-0.075	-0.030
-164.823	-41.246	-0.181	-0.092
-163.808	-200.000	0.006	0.041
-162.793	-200.000	0.020	-0.213
-161.779	-55.492	-0.140	0.062
-160.764	-74.849	-0.210	-0.074
-159.750	116.021	0.116	-0.141
-158.735	37.362	-0.107	-0.094
-157.720	800.000	-0.075	0.247
-156.706	-10.998	-0.239	0.156
-155.691	800.000	0.055	0.201
-154.677	133.509	0.181	0.231
-153.662	14.573	0.288	0.222
-152.647	-71.064	-0.234	-0.087
-151.633	-13.022	0.210	-0.135
-150.618	14.728	0.297	-0.229
-149.604	28.741	-0.416	-0.347
-148.589	370.116	0.096	-0.193
-147.574	-200.000	-0.020	-0.226
-146.560	800.000	-0.036	0.110
-145.545	-92.674	0.137	-0.038
-144.531	-19.524	0.265	0.162
-143.516	-23.574	0.033	0.019
-142.502	-127.989	0.506	-0.072
-141.487	-21.314	0.123	0.074
-140.472	52.384	-0.086	0.081
-139.458	800.000	-0.025	0.098
-138.443	-121.787	-0.281	-0.046
-137.429	-200.000	-0.016	-0.138
-136.414	-200.000	-0.009	-0.156
-135.399	-200.000	-0.011	0.155
-134.385	-136.039	-0.235	-0.027
-133.370	-61.530	-0.085	-0.035
-132.356	38.810	0.150	-0.132
-131.341	-5.310	0.224	0.152
-130.326	-17.305	0.128	-0.079
-129.312	336.110	-0.201	-0.384
-128.297	359.258	0.161	0.317
-127.283	-29.019	0.236	-0.134
-126.268	57.260	-0.099	-0.095
-125.253	252.730	-0.066	-0.112
-124.239	-163.875	-0.085	-0.004
-123.224	-96.872	-0.161	-0.042
-122.210	160.037	0.416	0.571
-121.195	-141.457	-0.272	0.027
-120.180	670.751	-0.012	-0.031
-119.166	-200.000	-0.010	0.107
-118.151	532.423	0.015	0.035
-117.137	537.622	0.126	0.296
-116.122	-121.048	-0.301	-0.050
-115.107	800.000	0.048	-0.151
-114.093	-10.540	0.412	0.269
-113.078	442.676	-0.168	-0.363
-112.064	-47.641	-0.094	0.045
-111.049	-133.857	0.320	0.039
-110.034	800.000	0.107	-0.425
-109.020	-134.045	0.202	-0.025
-108.005	-200.000	0.006	0.092
-106.991	-151.923	-0.315	0.023
-105.976	18.629	-0.139	-0.110
-104.962	800.000	0.033	0.113
-103.947	4.341	-0.345	0.249
-102.932	95.133	0.036	0.040
-101.918	326.685	0.136	-0.256
-100.903	184.326	-0.061	-0.089
-99.889	-35.842	0.296	0.158
-98.874	-124.916	0.317	-0.048
-97.859	-123.087	-0.076	0.012
-96.845	-135.473	-0.174	0.020
-95.830	800.000	0.025	0.082
-94.816	-26.876	0.248	0.143
-93.801	-200.000	0.012	-0.237
-92.786	390.437	0.038	-0.078
-91.772	-87.733	0.293	0.087
-90.757	-177.001	0.156	-0.004
-89.743	-65.282	0.107	0.042
-88.728	-141.663	-0.213	-0.021
-87.713	-148.954	-0.281	0.022
-86.699	-9.784	0.127	0.083
-85.684	-100.795	-0.116	-0.028
-84.670	-101.216	0.171	-0.041
-83.655	472.884	0.181	0.402
-82.640	-1.988	0.168	0.116
-81.626	354.617	-0.091	-0.179
-80.611	-140.120	-0.195	-0.020
-79.597	728.651	-0.077	0.203
-78.582	449.566	0.121	0.261
-77.567	800.000	0.013	0.051
-76.553	0.337	-0.140	0.098
-75.538	227.742	-0.084	-0.135
-74.524	-31.663	-0.066	-0.037
-73.509	53.940	0.197	0.186
-72.494	486.515	0.170	0.381
-71.480	-28.056	0.194	-0.110
-70.465	104.535	0.273	0.316
-69.451	-141.602	0.294	0.029
-68.436	-0.307	0.126	-0.088
-67.422	-200.000	-0.024	0.221
-66.407	-200.000	0.050	0.336
-65.392	52.291	-0.151	0.142
-64.378	75.664	-0.252	-0.261
-63.363	-85.008	0.280	0.086
-62.349	-25.274	0.085	0.050
-61.334	98.169	-0.980	-1.109
-60.319	319.894	0.416	0.775
-59.305	-200.000	-0.244	-1.141
-58.290	121.224	0.645	0.789
-57.276	755.997	0.742	1.973
-56.261	-200.000	100.522	599.503
-55.246	584.881	1407.407	3399.487
-54.232	192.783	2589.595	3844.560
-53.217	117.568	2161.177	2613.661
-52.203	42.035	1696.967	1513.682
-51.188	34.426	1507.757	1293.485
-50.173	31.911	1481.451	1254.073
-49.159	51.234	1533.048	1429.733
-48.144	53.226	1551.044	1460.030
-47.130	34.594	1508.836	1295.347
-46.115	31.526	1493.548	1261.517
-45.100	31.180	1491.501	1257.412
-44.086	31.205	1488.714	1255.178
-43.071	31.156	1486.971	1253.333
-42.057	31.090	1484.942	1251.128
-41.042	31.145	1483.314	1250.074
-40.027	31.045	1482.308	1248.509
-39.013	31.114	1480.935	1247.761
-37.998	31.036	1479.716	1246.163
-36.984	31.081	1477.916	1244.903
-35.969	31.214	1476.404	1244.463
-34.954	31.072	1475.479	1242.692
-33.940	31.109	1474.169	1241.781
-32.925	31.154	1473.048	1241.091
-31.911	31.112	1472.022	1239.894
-30.896	31.267	1470.100	1239.256
-29.881	31.344	1468.370	1238.257
-28.867	31.372	1467.029	1237.265
-27.852	31.200	1466.440	1235.580
-26.838	31.293	1464.773	1234.741
-25.823	31.190	1463.066	1232.571
-24.809	31.228	1461.659	1231.588
-23.794	31.186	1460.207	1230.039
-22.779	31.143	1459.360	1228.999
-21.765	31.174	1458.051	1228.048
-20.750	31.255	1456.733	1227.421
-19.736	31.129	1456.152	1226.059
-18.721	31.205	1455.155	1225.666
-17.706	31.164	1453.953	1224.337
-16.692	31.106	1452.814	1222.946
-15.677	31.112	1451.202	1221.582
-14.663	31.234	1450.043	1221.355
-13.648	31.132	1449.134	1219.876
-12.633	31.099	1448.943	1219.451
-11.619	31.169	1447.583	1218.711
-10.604	31.089	1447.016	1217.664
-9.590	31.069	1446.229	1216.828
-8.575	31.156	1444.719	1216.077
-7.560	31.078	1444.380	1215.233
-6.546	31.141	1443.590	1214.931
-5.531	31.122	1442.766	1214.062
-4.517	31.078	1441.713	1212.845
-3.502	31.095	1440.907	1212.228
-2.487	31.116	1439.248	1210.923
-1.473	31.118	1438.519	1210.272
-0.458	31.169	1437.090	1209.354
0.556	29.734	1427.706	1198.023
1.571	26.768	1402.947	1158.223
2.586	23.352	1344.565	1088.972
3.600	21.666	1264.624	1014.384
4.615	20.354	1219.464	970.740
5.629	17.836	1163.588	912.728
6.644	10.617	1082.444	812.958
7.659	5.280	1043.955	758.139
8.673	4.713	1038.484	751.360
9.688	4.545	1035.434	748.277
10.702	4.489	1033.772	746.741
11.717	4.624	1031.575	745.738
12.731	6.567	1033.228	756.193
13.746	13.085	1042.719	794.527
14.761	18.102	1048.752	823.274
15.775	18.195	1048.050	823.099
16.790	17.506	1045.462	817.686
17.804	16.298	1043.619	810.379
18.819	15.373	1041.433	804.176
19.834	14.951	1040.072	801.032
20.848	14.634	1039.050	798.660
21.863	14.380	1038.674	797.085
22.877	14.181	1037.888	795.460
23.892	14.048	1037.168	794.201
24.907	13.915	1036.292	792.824
25.921	13.938	1035.872	792.541
26.936	13.962	1034.854	791.811
27.950	14.033	1033.810	791.276
28.965	14.100	1032.462	790.495
29.980	14.184	1031.609	790.172
30.994	14.165	1030.693	789.308
32.009	14.315	1029.345	788.917
33.023	14.276	1029.145	788.508
34.038	14.221	1028.419	787.623
35.053	14.292	1027.396	787.104
36.067	14.249	1026.239	785.948
37.082	13.953	1025.682	784.055
38.096	14.114	1024.695	783.988
39.111	14.068	1024.002	783.174
40.126	14.263	1022.839	783.133
41.140	14.000	1022.214	781.348
42.155	13.934	1020.905	779.966
43.169	13.923	1019.816	779.013
44.184	13.884	1018.388	777.672
45.199	13.902	1017.648	777.125
46.213	13.854	1016.969	776.313
47.228	13.887	1015.883	775.567
48.242	14.063	1014.702	775.417
49.257	14.128	1013.953	775.079
50.271	14.018	1013.070	773.826
51.286	14.017	1012.327	773.186
52.301	14.137	1011.669	773.172
53.315	14.090	1010.792	772.216
54.330	14.015	1009.972	771.171
55.344	13.979	1008.844	770.077
56.359	13.946	1008.061	769.254
57.374	14.036	1007.128	768.894
58.388	13.972	1006.430	767.995
59.403	13.933	1005.429	766.985
60.417	13.909	1004.579	766.155
61.432	13.945	1003.965	765.786
62.447	13.902	1002.910	764.715
63.461	13.904	1002.255	764.158
64.476	13.821	1001.641	763.240
65.490	13.760	1000.771	762.228
66.505	13.788	999.901	761.627
67.520	13.762	999.364	761.033
68.534	13.869	998.450	760.762
69.549	13.811	997.845	759.968
70.563	13.887	996.705	759.378
71.578	13.955	996.058	759.130
72.593	13.793	995.298	757.743
73.607	13.718	994.510	756.735
74.622	13.539	993.673	755.212
75.636	13.678	993.120	755.359
76.651	13.705	991.561	754.230
77.666	13.755	991.163	754.089
78.680	13.673	990.785	753.363
79.695	13.740	990.023	753.019
80.709	13.766	989.259	752.492
81.724	13.774	988.825	752.130
82.739	13.906	987.970	752.011
83.753	13.866	987.564	751.454
84.768	13.983	986.836	751.360
85.782	14.214	985.471	751.298
86.797	14.155	985.244	750.795
87.812	14.104	984.447	749.889
88.826	14.221	983.064	749.295
89.841	14.068	982.593	748.185
90.855	14.090	981.725	747.554
91.870	14.123	980.772	746.909
92.884	14.121	980.522	746.645
93.899	14.273	979.548	746.518
94.914	14.264	978.815	745.854
95.928	14.241	978.417	745.381
96.943	14.305	977.702	745.060
97.957	14.224	976.844	743.978
98.972	14.230	975.605	742.992
99.987	14.180	975.323	742.488
101.001	14.202	974.465	741.869
102.016	14.310	973.624	741.646
103.030	14.268	972.686	740.678
104.045	14.118	972.082	739.485
105.060	14.205	970.676	738.737
106.074	14.203	970.255	738.340
107.089	14.054	969.326	736.910
108.103	13.886	968.351	735.358
109.118	13.962	967.160	734.724
110.133	13.819	966.604	733.607
111.147	13.885	965.657	733.113
112.162	13.849	965.096	732.466
113.176	13.903	964.265	732.006
114.191	13.964	963.391	731.547
115.206	13.991	962.546	730.957
116.220	14.129	961.309	730.560
117.235	14.015	960.713	729.541
118.249	14.040	960.080	729.105
119.264	13.975	959.091	728.007
120.279	13.964	958.262	727.264
121.293	13.848	957.920	726.436
122.308	13.843	956.989	725.641
123.322	13.834	956.127	724.884
124.337	13.825	954.951	723.892
125.352	13.769	953.950	722.821
126.366	13.711	953.032	721.811
127.381	13.858	951.510	721.234
128.395	13.822	950.937	720.578
129.410	13.851	949.953	719.896
130.424	13.891	948.819	719.145
131.439	13.881	948.185	718.560
132.454	13.958	947.526	718.328
133.468	13.864	946.806	717.313
134.483	13.994	946.231	717.375
135.497	14.012	945.365	716.730
136.512	13.963	944.689	715.944
137.527	13.937	943.895	715.168
138.541	13.980	942.992	714.607
139.556	14.022	942.491	714.345
140.570	14.077	941.503	713.767
141.585	14.056	940.821	713.095
142.600	14.112	940.349	712.915
143.614	14.178	939.567	712.545
144.629	14.186	938.853	711.974
145.643	14.291	938.076	711.772
146.658	14.304	937.416	711.261
147.673	14.129	936.534	709.780
148.687	14.072	935.349	708.579
149.702	13.969	934.573	707.487
150.716	14.050	934.072	707.392
151.731	14.041	933.421	706.801
152.746	13.956	932.595	705.750
153.760	14.134	931.457	705.580
154.775	14.131	930.856	705.049
155.789	14.205	930.309	704.887
156.804	14.332	929.280	704.581
157.819	14.320	928.589	703.946
158.833	14.321	927.861	703.337
159.848	14.337	927.074	702.743
160.862	14.257	926.886	702.204
161.877	14.365	926.346	702.184
162.892	14.190	925.201	700.519
163.906	13.969	924.655	699.114
164.921	14.245	922.913	698.896
165.935	14.083	922.440	697.794
166.950	14.203	921.418	697.464
167.964	14.165	920.693	696.693
168.979	14.333	919.244	696.236
169.994	14.218	918.822	695.375
171.008	14.378	917.678	695.116
172.023	14.195	917.049	693.817
173.037	14.340	916.421	693.881
174.052	14.477	915.553	693.736
175.067	14.336	915.104	692.747
176.081	14.268	914.276	691.775
177.096	14.196	913.082	690.514
178.110	14.106	912.778	689.847
179.125	14.132	911.820	689.170
180.140	14.248	911.043	689.003
181.154	14.331	910.688	689.016
182.169	14.280	910.229	688.397
183.183	14.452	909.438	688.448
184.198	14.520	908.533	687.982
185.213	14.453	908.118	687.332
186.227	14.507	907.464	686.997
187.242	14.477	907.040	686.492
188.256	14.443	906.688	686.026
189.271	14.790	905.440	686.447
190.286	14.636	905.275	685.627
191.300	14.451	904.332	684.094
192.315	14.266	903.230	682.441
193.329	14.226	902.403	681.593
194.344	14.161	901.687	680.725
195.359	14.157	901.431	680.456
196.373	14.441	900.989	681.224
197.388	14.457	900.515	680.868
198.402	14.537	900.130	680.844
199.417	14.608	899.993	680.971
200.432	14.858	899.099	681.253
201.446	14.906	898.585	681.000
202.461	14.739	898.571	680.246
203.475	14.691	898.134	679.661
204.490	15.052	897.073	680.266
205.504	14.806	896.059	678.438
206.519	14.738	895.751	677.869
207.534	14.782	894.704	677.194
208.548	14.773	893.680	676.325
209.563	14.806	892.992	675.875
210.577	14.870	892.363	675.598
211.592	14.718	891.962	674.621
212.607	14.919	891.478	675.006
213.621	14.977	891.139	674.923
214.636	14.994	890.204	674.225
215.650	14.980	889.445	673.536
216.665	14.770	889.508	672.676
217.680	14.941	888.464	672.517
218.694	15.017	888.299	672.636
219.709	15.057	887.706	672.289
220.723	15.061	887.026	671.732
221.738	15.026	886.319	670.994
222.753	14.983	885.262	669.963
223.767	15.038	884.485	669.535
224.782	15.022	884.003	669.047
225.796	15.039	883.502	668.678
226.811	14.999	882.870	667.979
227.826	15.100	882.139	667.773
228.840	15.084	880.908	666.716
229.855	15.090	880.418	666.310
230.869	15.020	879.700	665.432
231.884	15.026	879.544	665.276
232.899	15.031	878.439	664.402
233.913	15.036	877.622	663.747
234.928	14.975	877.108	663.055
235.942	14.972	876.749	662.715
236.957	14.927	875.836	661.786
237.972	14.978	874.954	661.266
238.986	15.062	874.251	661.006
240.001	15.007	874.033	660.568
241.015	14.962	873.463	659.898
242.030	14.993	872.857	659.505
243.045	14.931	872.234	658.731
244.059	15.068	871.759	658.853
245.074	15.144	870.665	658.268
246.088	14.973	870.540	657.442
247.103	15.061	869.697	657.092
248.117	15.216	869.221	657.284
249.132	15.319	868.928	657.409
250.147	15.442	867.992	657.121
251.161	15.559	867.783	657.365
252.176	15.498	866.891	656.390
253.190	15.585	866.221	656.167
254.205	15.572	865.878	655.798
255.220	15.671	864.992	655.455
256.234	15.637	864.171	654.644
257.249	15.648	863.759	654.314
258.263	15.808	863.183	654.445
259.278	15.669	862.730	653.502
260.293	15.637	862.123	652.861
261.307	15.819	861.049	652.695
262.322	15.854	860.825	652.601
263.336	15.868	860.031	651.998
264.351	15.835	859.775	651.619
265.366	15.854	859.236	651.226
266.380	15.829	858.002	650.136
267.395	15.834	857.788	649.934
268.409	15.836	857.138	649.392
269.424	15.796	856.067	648.368
270.439	15.944	855.503	648.457
271.453	15.829	854.984	647.561
272.468	15.724	854.373	646.637
273.482	15.648	853.615	645.717
274.497	15.698	853.145	645.494
275.512	15.762	852.024	644.834
276.526	15.863	851.430	644.714
277.541	15.748	850.989	643.884
278.555	15.940	850.225	643.984
279.570	15.958	850.088	643.890
280.585	16.050	849.636	643.843
281.599	16.005	849.231	643.308
282.614	16.123	848.010	642.777
283.628	15.950	847.555	641.715
284.643	15.889	847.534	641.409
285.657	15.849	846.673	640.550
286.672	16.013	846.151	640.723
287.687	15.969	845.768	640.208
288.701	16.034	845.106	639.895
289.716	16.080	844.354	639.443
290.730	16.070	843.819	638.944
291.745	16.010	843.635	638.521
292.760	16.023	842.744	637.840
293.774	16.143	841.849	637.561
294.789	16.056	841.843	637.172
295.803	16.131	841.269	636.960
296.818	15.996	840.539	635.842
297.833	16.015	839.976	635.433
298.847	15.978	839.159	634.621
299.862	16.185	838.212	634.625
300.876	16.100	837.993	634.084
301.891	16.192	837.067	633.673
302.906	16.278	836.333	633.384
303.920	16.268	836.365	633.316
304.935	16.167	835.508	632.230
305.949	16.460	834.898	632.810
306.964	16.460	834.087	632.140
307.979	16.409	833.603	631.527
308.993	16.288	833.387	630.855
310.008	16.341	832.512	630.335
311.022	16.504	831.920	630.438
312.037	16.384	831.676	629.752
313.052	16.455	831.128	629.547
314.066	16.322	830.486	628.507
315.081	16.388	829.708	628.108
316.095	16.352	828.921	627.324
317.110	16.293	828.703	626.884
318.125	16.366	827.987	626.558
319.139	16.386	827.709	626.367
320.154	16.383	826.922	625.703
321.168	16.397	826.560	625.428
322.183	16.478	826.191	625.392
323.197	16.423	825.680	624.746
324.212	16.417	825.143	624.264
325.227	16.428	824.851	624.027
326.241	16.359	824.423	623.392
327.256	16.394	823.292	622.614
328.270	16.384	822.864	622.198
329.285	16.492	822.245	622.071
330.300	16.401	821.763	621.315
331.314	16.375	821.400	620.890
332.329	16.336	820.831	620.263
333.343	16.619	820.026	620.638
334.358	16.631	819.744	620.414
335.373	16.681	819.100	620.056
336.387	16.632	818.517	619.380
337.402	16.661	818.180	619.177
338.416	16.798	817.567	619.157
339.431	16.806	816.860	618.597
340.446	16.696	816.663	617.992
341.460	16.914	815.607	617.930
342.475	16.863	815.089	617.300
343.489	16.883	814.796	617.094
344.504	17.018	813.909	616.859
345.519	16.983	813.871	616.648
346.533	17.137	812.862	616.388
347.548	17.091	812.707	616.050
348.562	16.932	812.202	615.035
349.577	16.848	811.551	614.184
350.592	16.959	810.776	613.945
351.606	16.767	810.940	613.319
352.621	16.866	810.244	613.096
353.635	16.778	809.838	612.417
354.650	16.854	809.441	612.338
355.665	16.785	809.114	611.789
356.679	16.888	808.473	611.620
357.694	16.967	808.248	611.681
358.708	16.934	807.811	611.176
359.723	16.877	806.839	610.184
360.738	16.789	806.754	609.746
361.752	16.957	805.827	609.595
362.767	16.947	805.354	609.148
363.781	17.022	805.420	609.416
364.796	17.168	804.604	609.265
365.810	17.203	804.234	609.056
366.825	17.240	804.211	609.120
367.840	17.278	803.482	608.649
368.854	17.297	803.065	608.348
369.869	17.239	802.668	607.786
370.883	17.214	802.039	607.167
371.898	17.260	801.884	607.159
372.913	17.261	800.631	606.161
373.927	17.330	800.562	606.302
374.942	17.362	799.427	605.502
375.956	17.399	798.752	605.069
376.971	17.387	798.599	604.857
377.986	17.452	797.882	604.490
379.000	17.502	797.676	604.457
380.015	17.616	796.975	604.278
381.029	17.597	796.250	603.608
382.044	17.355	796.092	602.576
383.059	17.522	795.286	602.504
384.073	17.509	794.835	602.063
385.088	17.703	794.337	602.320
386.102	17.383	793.766	600.702
387.117	17.349	793.509	600.335
388.132	17.274	792.961	599.604
389.146	17.325	792.502	599.383
390.161	17.471	791.879	599.374
391.175	17.695	791.318	599.682
392.190	17.503	791.372	598.995
393.205	17.591	791.058	599.015
394.219	17.428	790.657	598.084
395.234	17.553	789.800	597.822
396.248	17.460	789.461	597.185
397.263	17.369	788.786	596.303
398.278	17.291	788.481	595.748
399.292	17.286	788.306	595.545
400.307	17.358	787.526	595.156
401.321	17.581	786.550	595.144
402.336	17.370	786.864	594.591
403.350	17.412	786.686	594.550
404.365	17.619	786.101	594.779
405.380	17.729	785.224	594.444
406.394	17.724	784.844	594.089
407.409	17.898	784.363	594.278
408.423	17.827	784.058	593.745
409.438	17.847	784.061	593.767
410.453	17.754	783.515	592.978
411.467	17.916	783.124	593.191
412.482	17.935	782.385	592.645
413.496	18.012	782.287	592.786
414.511	17.952	781.894	592.226
415.526	18.046	781.400	592.125
416.540	17.894	781.288	591.461
417.555	17.928	780.659	591.053
418.569	18.097	779.897	591.008
419.584	18.097	779.314	590.512
420.599	18.184	779.080	590.583
421.613	156.709	1369.609	1797.368
422.628	135.209	1455.642	1797.465
