DTS Sentinel unit serial number:	SN413079Multiplexer serial number:	ORYXHardware model number:	OX4-SRSoftware version number:	ORYX F/W v4.00 Oryx Data Collector v3.7.2.0data status	okinstallation	princeton_trtdifferential loss correction	single-endedforward channel	channel 3reverse channel	N/Adate	2019/09/19time	04:28:35forward acquisition time	60.00reverse acquisition time	0.00gamma	496.2192k internal	0.2347k external	0.2347temperature offset calibration	0.9993default loss term (dB/km)	0.3790temperature slope calibration	1.0000multiplexer offset coefficient	1.0000multiplexer slope coefficient	1.0000fibre end	0.00T internal ref (°C)	20.14T ext. ref 1 (°C)	0.62T ext. ref 2 (°C)	13.16length (m)	temperature (°C)	Stokes	anti-Stokes-747.200	-91.748	-0.122	0.035
-746.185	-100.410	0.236	0.059
-745.171	-69.973	0.260	0.099
-744.156	-200.000	0.002	0.045
-743.142	53.405	-0.298	-0.286
-742.127	196.367	0.142	0.216
-741.112	-98.392	0.074	-0.019
-740.098	-89.435	-0.107	0.031
-739.083	800.000	0.092	-0.316
-738.069	-200.000	-0.015	0.387
-737.054	-98.265	-0.176	0.045
-736.039	112.624	-0.250	-0.303
-735.025	168.046	-0.039	-0.055
-734.010	-151.318	-0.073	-0.005
-732.996	74.087	0.123	0.129
-731.981	186.091	-0.134	0.198
-730.966	287.411	0.206	-0.372
-729.952	-200.000	-0.039	0.294
-728.937	172.101	-0.178	-0.256
-727.923	-81.631	-0.096	-0.031
-726.908	-75.495	-0.182	-0.065
-725.894	547.860	0.071	-0.169
-724.879	-136.902	0.171	0.020
-723.864	800.000	-0.106	-0.299
-722.850	-82.257	0.056	-0.018
-721.835	-158.521	-0.233	0.013
-720.821	-200.000	0.000	0.067
-719.806	800.000	0.038	-0.125
-718.791	46.604	-0.223	0.207
-717.777	-51.926	0.456	-0.212
-716.762	-200.000	-0.037	-0.313
-715.748	-200.000	-0.026	-0.299
-714.733	-41.556	-0.124	-0.064
-713.718	-10.959	0.160	0.105
-712.704	-114.918	0.033	-0.006
-711.689	-200.000	0.064	-0.351
-710.675	-117.898	-0.212	-0.038
-709.660	118.109	-0.083	0.102
-708.645	14.931	0.215	-0.168
-707.631	565.048	0.026	-0.063
-706.616	247.148	0.159	0.268
-705.602	138.029	0.110	-0.144
-704.587	-200.000	-0.004	0.065
-703.572	-41.353	0.331	-0.170
-702.558	129.081	-0.045	0.057
-701.543	800.000	-0.105	0.389
-700.529	1.916	-0.375	0.270
-699.514	-67.110	-0.018	0.007
-698.499	-148.037	0.235	0.019
-697.485	-34.791	-0.276	-0.150
-696.470	474.430	-0.182	-0.410
-695.456	129.481	-0.100	-0.127
-694.441	347.400	0.203	0.399
-693.426	717.989	0.037	-0.098
-692.412	-71.382	-0.573	-0.214
-691.397	-94.736	0.328	0.089
-690.383	-121.833	0.058	-0.010
-689.368	-120.140	-0.270	-0.046
-688.354	-142.350	0.279	0.027
-687.339	-47.777	0.120	-0.058
-686.324	133.287	0.114	-0.147
-685.310	-55.444	-0.279	0.125
-684.295	25.680	-0.450	-0.374
-683.281	-25.315	0.246	-0.145
-682.266	193.601	-0.227	-0.343
-681.251	-100.491	0.086	0.021
-680.237	800.000	-0.024	-0.070
-679.222	-135.948	-0.261	0.031
-678.208	-154.746	0.344	-0.023
-677.193	-19.658	-0.135	-0.083
-676.178	-52.994	0.353	0.162
-675.164	-154.833	-0.143	0.009
-674.149	-125.315	0.264	0.040
-673.135	-200.000	-0.030	-0.264
-672.120	482.708	-0.092	-0.207
-671.105	-11.945	0.391	-0.256
-670.091	-61.422	0.236	-0.099
-669.076	-93.986	-0.317	-0.087
-668.062	94.592	0.205	-0.232
-667.047	-100.752	-0.147	-0.036
-666.032	-200.000	0.015	-0.076
-665.018	92.802	0.242	-0.273
-664.003	800.000	0.029	-0.091
-662.989	-23.081	-0.018	-0.011
-661.974	284.577	-0.067	-0.120
-660.959	-200.000	0.003	0.055
-659.945	278.855	-0.097	-0.173
-658.930	286.281	0.075	-0.134
-657.916	-200.000	-0.027	-0.150
-656.901	-68.272	0.175	-0.068
-655.886	-35.293	-0.144	-0.078
-654.872	628.680	0.070	-0.177
-653.857	175.703	-0.037	-0.054
-652.843	-47.284	0.194	-0.094
-651.828	-34.971	0.213	0.116
-650.814	-47.441	-0.311	-0.151
-649.799	65.511	0.175	-0.177
-648.784	-85.967	0.260	-0.080
-647.770	-9.812	0.101	-0.067
-646.755	-36.179	0.293	-0.157
-645.741	40.489	-0.089	0.080
-644.726	-139.243	-0.217	-0.023
-643.711	-93.434	0.321	0.088
-642.697	403.305	0.043	-0.090
-641.682	-46.498	-0.070	0.034
-640.668	-98.409	-0.018	-0.005
-639.653	800.000	-0.124	-0.366
-638.638	39.566	0.134	-0.120
-637.624	-83.565	0.144	0.046
-636.609	293.015	-0.024	-0.043
-635.595	-200.000	0.005	0.088
-634.580	225.246	-0.247	-0.398
-633.565	-74.266	0.240	0.086
-632.551	-2.706	0.211	0.147
-631.536	-200.000	-0.045	-0.227
-630.522	-135.549	0.267	0.032
-629.507	209.960	0.095	-0.148
-628.492	-106.608	-0.221	-0.049
-627.478	-34.526	0.443	-0.241
-626.463	-200.000	0.011	0.095
-625.449	233.076	-0.076	-0.124
-624.434	481.465	-0.054	-0.121
-623.419	441.986	-0.045	0.097
-622.405	-200.000	-0.016	0.134
-621.390	40.491	0.132	-0.118
-620.376	-79.114	0.345	-0.117
-619.361	99.081	-0.181	0.208
-618.346	-130.713	0.307	0.041
-617.332	800.000	0.023	0.086
-616.317	-138.019	0.132	0.015
-615.303	258.807	0.102	0.175
-614.288	-171.375	0.069	0.002
-613.273	24.644	0.232	0.191
-612.259	154.520	-0.073	-0.100
-611.244	-107.906	-0.345	-0.075
-610.230	217.937	-0.093	0.147
-609.215	-102.952	0.274	-0.065
-608.201	565.883	-0.077	0.185
-607.186	-140.274	0.152	0.016
-606.171	244.969	0.126	-0.211
-605.157	235.371	-0.027	0.045
-604.142	772.013	0.070	-0.191
-603.128	800.000	-0.030	-0.092
-602.113	-39.169	0.075	0.039
-601.098	800.000	0.036	0.152
-600.084	-200.000	-0.011	-0.290
-599.069	61.717	0.234	-0.231
-598.055	-25.919	-0.244	0.143
-597.040	-156.992	0.291	-0.018
-596.025	-17.395	0.103	0.064
-595.011	99.852	0.079	-0.091
-593.996	-34.849	-0.212	-0.115
-592.982	-200.000	-0.054	0.292
-591.967	22.482	-0.154	-0.125
-590.952	197.559	-0.082	-0.125
-589.938	-200.000	-0.005	-0.371
-588.923	-192.112	-0.250	-0.002
-587.909	90.808	0.151	0.168
-586.894	326.142	-0.116	0.220
-585.879	-122.545	-0.086	-0.014
-584.865	-83.865	-0.187	0.059
-583.850	-122.481	-0.178	-0.029
-582.836	79.126	-0.137	-0.146
-581.821	144.286	0.192	0.254
-580.806	180.225	-0.187	-0.272
-579.792	-3.912	0.092	-0.063
-578.777	-76.265	-0.315	-0.110
-577.763	-200.000	0.016	0.212
-576.748	-200.000	-0.021	-0.183
-575.733	-200.000	-0.020	0.091
-574.719	-200.000	-0.020	0.386
-573.704	216.589	0.091	-0.144
-572.690	-136.674	-0.221	-0.025
-571.675	151.307	-0.128	0.173
-570.661	77.052	-0.082	-0.087
-569.646	-153.494	0.130	0.009
-568.631	800.000	-0.034	-0.131
-567.617	31.126	-0.279	-0.238
-566.602	40.672	-0.143	-0.128
-565.588	-132.143	0.104	-0.013
-564.573	800.000	0.108	0.307
-563.558	186.265	-0.118	-0.174
-562.544	-200.000	-0.024	0.181
-561.529	-76.072	0.018	0.006
-560.515	800.000	0.053	-0.192
-559.500	-200.000	0.028	-0.282
-558.485	800.000	0.048	0.178
-557.471	-131.202	-0.303	0.040
-556.456	-1.587	0.032	0.022
-555.442	154.136	0.121	-0.165
-554.427	145.402	-0.188	0.250
-553.412	18.901	0.108	-0.086
-552.398	800.000	0.120	0.329
-551.383	-200.000	-0.035	0.212
-550.369	-200.000	-0.038	-0.416
-549.354	-200.000	-0.006	-0.114
-548.339	103.424	0.185	0.216
-547.325	800.000	0.074	-0.288
-546.310	186.859	-0.154	-0.228
-545.296	520.753	0.239	-0.557
-544.281	-81.012	0.098	0.032
-543.266	15.040	-0.071	-0.055
-542.252	160.501	-0.122	0.169
-541.237	338.298	-0.188	-0.363
-540.223	-8.582	0.267	-0.178
-539.208	148.867	0.215	-0.288
-538.193	-149.133	0.275	-0.022
-537.179	-200.000	0.049	-0.263
-536.164	209.183	0.164	-0.255
-535.150	220.241	-0.197	-0.312
-534.135	145.688	-0.226	-0.301
-533.121	-40.319	-0.305	-0.157
-532.106	-107.027	0.198	0.043
-531.091	52.813	0.218	0.207
-530.077	-80.915	-0.203	0.067
-529.062	29.741	-0.154	-0.130
-528.048	148.006	-0.242	0.324
-527.033	279.432	0.064	0.112
-526.018	-200.000	-0.007	0.246
-525.004	-128.731	-0.078	0.011
-523.989	676.406	0.085	0.219
-522.975	421.596	0.017	-0.036
-521.960	114.964	-0.099	-0.120
-520.945	255.404	0.166	0.282
-519.931	-117.011	-0.048	0.009
-518.916	130.184	-0.019	-0.024
-517.902	800.000	-0.043	0.134
-516.887	57.861	-0.300	-0.291
-515.872	-89.148	-0.343	0.100
-514.858	-200.000	-0.018	-0.476
-513.843	-122.333	0.178	0.029
-512.829	-100.374	0.158	-0.039
-511.814	364.773	0.190	-0.380
-510.799	-200.000	-0.031	-0.217
-509.785	-56.015	-0.232	-0.102
-508.770	-200.000	0.013	-0.258
-507.756	-154.183	-0.217	0.015
-506.741	224.981	-0.214	0.343
-505.726	149.558	-0.102	0.137
-504.712	31.159	0.147	0.125
-503.697	-200.000	0.051	-0.371
-502.683	-100.494	0.041	0.010
-501.668	-184.129	0.055	-0.001
-500.653	42.422	-0.077	0.069
-499.639	-60.469	-0.244	0.103
-498.624	-89.054	0.256	0.075
-497.610	-177.708	0.080	0.002
-496.595	-151.688	-0.135	-0.010
-495.581	428.504	-0.125	0.267
-494.566	-70.900	-0.263	-0.098
-493.551	122.147	0.054	0.066
-492.537	152.052	-0.013	0.017
-491.522	-86.847	-0.072	0.022
-490.508	-119.076	-0.192	-0.033
-489.493	-200.000	0.041	0.186
-488.478	-30.010	0.450	-0.253
-487.464	-27.414	-0.250	-0.144
-486.449	-200.000	-0.003	0.097
-485.435	-30.238	0.134	0.075
-484.420	-90.959	-0.223	-0.064
-483.405	76.041	-0.140	0.146
-482.391	-200.000	0.023	0.118
-481.376	20.940	0.058	0.047
-480.362	47.499	-0.166	0.153
-479.347	-176.367	-0.024	-0.001
-478.332	-200.000	-0.002	-0.083
-477.318	-140.123	-0.176	-0.018
-476.303	800.000	-0.027	-0.109
-475.289	28.420	-0.223	-0.186
-474.274	257.108	0.069	-0.117
-473.259	-74.138	0.282	0.101
-472.245	-200.000	0.019	0.163
-471.230	800.000	-0.078	0.256
-470.216	-11.857	-0.129	0.084
-469.201	-118.855	-0.141	-0.024
-468.186	-200.000	0.030	0.223
-467.172	-200.000	0.259	-0.001
-466.157	-47.446	-0.267	0.129
-465.143	68.012	-0.091	0.092
-464.128	-200.000	0.001	0.072
-463.113	-24.026	0.310	-0.183
-462.099	-44.290	-0.062	-0.031
-461.084	-50.050	0.121	-0.057
-460.070	-198.790	0.309	0.002
-459.055	-25.060	-0.278	-0.163
-458.040	-145.147	-0.275	0.025
-457.026	800.000	0.170	-0.473
-456.011	-200.000	0.032	0.172
-454.997	-83.516	0.089	0.028
-453.982	-200.000	-0.016	0.256
-452.968	196.827	-0.098	0.148
-451.953	118.297	0.113	0.138
-450.938	-200.000	-0.002	-0.024
-449.924	69.841	0.275	0.280
-448.909	-130.988	0.353	-0.047
-447.895	22.229	-0.191	-0.154
-446.880	-110.054	-0.417	-0.086
-445.865	43.246	0.322	-0.291
-444.851	56.435	-0.105	0.100
-443.836	-200.000	-0.083	0.440
-442.822	-200.000	-0.033	-0.153
-441.807	739.278	0.078	-0.206
-440.792	800.000	0.079	-0.321
-439.778	-94.568	-0.209	0.056
-438.763	-165.564	0.173	-0.007
-437.749	294.903	0.063	-0.113
-436.734	312.382	-0.172	-0.318
-435.719	800.000	-0.079	0.221
-434.705	86.295	-0.386	0.420
-433.690	-17.736	-0.162	0.101
-432.676	7.292	0.043	0.031
-431.661	-97.559	-0.142	-0.036
-430.646	-28.800	-0.302	-0.172
-429.632	-200.000	0.033	0.203
-428.617	417.508	0.102	-0.216
-427.603	215.283	0.080	0.125
-426.588	-23.086	0.381	-0.226
-425.573	-20.329	0.130	-0.079
-424.559	800.000	0.097	0.277
-423.544	153.594	-0.145	0.196
-422.530	18.665	0.029	-0.023
-421.515	-99.785	-0.241	-0.060
-420.500	-57.403	-0.365	0.158
-419.486	-136.605	-0.173	0.020
-418.471	201.159	0.130	0.198
-417.457	-200.000	0.006	-0.176
-416.442	800.000	-0.039	-0.108
-415.428	139.526	-0.114	0.148
-414.413	-175.075	-0.249	-0.007
-413.398	36.098	0.242	0.210
-412.384	44.277	0.328	-0.297
-411.369	-145.423	-0.062	0.006
-410.355	-200.000	-0.051	0.260
-409.340	-41.478	-0.191	0.097
-408.325	-19.485	0.138	0.085
-407.311	-38.317	-0.113	-0.059
-406.296	-77.869	-0.144	0.049
-405.282	800.000	-0.177	0.579
-404.267	36.780	0.217	-0.189
-403.252	-96.595	-0.135	0.035
-402.238	-23.971	0.265	0.156
-401.223	655.782	0.084	-0.214
-400.209	-200.000	0.012	0.078
-399.194	-140.986	-0.102	0.010
-398.179	800.000	-0.079	-0.284
-397.165	-200.000	0.001	0.052
-396.150	-200.000	-0.049	0.460
-395.136	652.662	-0.084	0.213
-394.121	-71.896	0.324	-0.119
-393.106	-200.000	-0.021	0.159
-392.092	-93.628	0.071	-0.019
-391.077	-200.000	-0.064	-0.627
-390.063	-200.000	0.011	-0.229
-389.048	175.663	-0.194	0.277
-388.033	146.903	-0.192	0.254
-387.019	-131.651	0.160	0.021
-386.004	401.600	0.146	0.302
-384.990	174.295	-0.084	0.120
-383.975	87.381	0.191	0.208
-382.960	288.523	0.164	0.292
-381.946	-200.000	-0.204	0.001
-380.931	496.598	0.092	-0.208
-379.917	-200.000	0.016	-0.288
-378.902	-139.289	0.439	0.047
-377.888	212.798	-0.097	-0.151
-376.873	-59.181	-0.141	-0.060
-375.858	128.986	-0.260	0.327
-374.844	-200.000	-0.025	0.121
-373.829	-125.212	0.264	-0.040
-372.815	277.792	0.247	-0.433
-371.800	-200.000	0.020	-0.142
-370.785	-63.173	0.165	-0.067
-369.771	-200.000	0.009	0.117
-368.756	68.083	0.117	-0.118
-367.742	-200.000	0.025	0.189
-366.727	-48.487	0.289	-0.137
-365.712	453.142	0.119	-0.260
-364.698	-200.000	-0.016	0.143
-363.683	-92.342	-0.161	-0.045
-362.669	-142.568	0.176	0.017
-361.654	-109.406	0.125	0.026
-360.639	-177.897	-0.180	-0.004
-359.625	-200.000	0.013	0.460
-358.610	126.826	0.202	0.252
-357.596	-200.000	0.010	0.261
-356.581	298.248	-0.158	0.287
-355.566	130.553	0.129	0.163
-354.552	-105.327	0.302	0.068
-353.537	-62.162	0.279	0.114
-352.523	-73.065	-0.300	0.108
-351.508	171.495	-0.150	0.211
-350.493	800.000	0.013	0.036
-349.479	-200.000	-0.020	-0.122
-348.464	800.000	0.053	0.205
-347.450	-46.912	-0.233	-0.112
-346.435	-136.819	-0.385	0.044
-345.420	-200.000	0.029	0.207
-344.406	-67.939	-0.289	0.111
-343.391	-200.000	-0.074	-0.322
-342.377	-200.000	0.024	0.147
-341.362	244.529	0.086	0.141
-340.348	800.000	-0.127	0.369
-339.333	454.905	0.205	-0.448
-338.318	-108.055	-0.356	-0.076
-337.304	20.759	0.261	-0.208
-336.289	590.241	0.027	-0.066
-335.275	-150.289	-0.254	0.019
-334.260	34.410	0.119	-0.102
-333.245	-131.861	-0.314	-0.040
-332.231	-139.698	-0.189	0.020
-331.216	-93.866	-0.072	0.019
-330.202	119.157	0.030	-0.036
-329.187	421.407	0.132	-0.278
-328.172	-75.784	-0.262	-0.092
-327.158	800.000	-0.019	-0.060
-326.143	800.000	-0.006	0.022
-325.129	373.686	-0.100	0.201
-324.114	496.672	-0.044	-0.100
-323.099	-163.389	0.244	-0.011
-322.085	-200.000	-0.011	-0.178
-321.070	-41.677	0.219	-0.111
-320.056	22.937	-0.244	-0.197
-319.041	800.000	-0.039	0.112
-318.026	-90.319	-0.059	-0.017
-317.012	-83.443	-0.184	-0.058
-315.997	60.049	0.206	-0.200
-314.983	235.752	-0.057	0.093
-313.968	800.000	0.058	-0.210
-312.953	-42.438	-0.086	-0.043
-311.939	-200.000	0.058	0.334
-310.924	341.187	0.135	0.260
-309.910	-34.810	-0.241	-0.130
-308.895	-62.158	-0.374	0.153
-307.880	-104.090	-0.077	0.018
-306.866	154.233	0.148	0.200
-305.851	800.000	-0.050	-0.166
-304.837	-117.340	-0.203	-0.036
-303.822	-4.209	-0.106	0.072
-302.807	-200.000	-0.089	-0.475
-301.793	192.008	0.060	-0.089
-300.778	-200.000	-0.026	0.224
-299.764	101.836	0.094	-0.108
-298.749	-103.155	-0.338	-0.079
-297.735	-54.089	0.255	-0.114
-296.720	16.158	-0.179	-0.139
-295.705	800.000	-0.032	0.136
-294.691	-60.427	0.362	0.151
-293.676	67.193	-0.064	-0.064
-292.662	-200.000	-0.004	-0.118
-291.647	-200.000	0.025	0.142
-290.632	-135.528	0.123	-0.014
-289.618	144.451	0.198	0.260
-288.603	-71.675	-0.326	-0.119
-287.589	-68.915	-0.193	-0.073
-286.574	800.000	0.054	0.199
-285.559	-200.000	-0.038	0.274
-284.545	312.011	0.241	0.444
-283.530	-200.000	-0.024	-0.161
-282.516	-32.782	-0.091	-0.050
-281.501	155.414	0.101	0.137
-280.486	-200.000	0.004	-0.020
-279.472	75.907	-0.283	-0.294
-278.457	59.041	0.210	0.203
-277.443	735.782	-0.015	0.041
-276.428	276.277	-0.016	0.028
-275.413	593.895	-0.035	0.086
-274.399	181.097	-0.078	0.112
-273.384	800.000	0.049	0.207
-272.370	39.700	-0.115	-0.101
-271.355	-150.802	-0.172	0.013
-270.340	-112.489	0.392	0.077
-269.326	-200.000	0.020	0.260
-268.311	-89.461	-0.144	-0.042
-267.297	800.000	0.019	-0.079
-266.282	111.723	-0.140	0.166
-265.267	395.732	-0.074	-0.152
-264.253	800.000	0.074	-0.209
-263.238	-131.338	-0.261	0.034
-262.224	278.690	-0.036	0.064
-261.209	800.000	0.070	0.295
-260.195	284.525	-0.151	-0.266
-259.180	-69.900	0.122	0.045
-258.165	-200.000	-0.026	0.395
-257.151	25.874	0.227	-0.186
-256.136	41.026	-0.041	0.036
-255.122	308.522	-0.119	-0.218
-254.107	287.763	-0.147	-0.261
-253.092	-76.201	0.176	-0.061
-252.078	92.459	0.119	-0.131
-251.063	83.147	0.206	0.220
-250.049	-82.909	0.170	-0.054
-249.034	237.113	0.096	-0.156
-248.019	611.445	0.058	-0.141
-247.005	-88.332	0.078	-0.023
-245.990	72.959	-0.180	-0.185
-244.976	-200.000	0.020	0.311
-243.961	27.094	0.163	-0.134
-242.946	52.325	-0.187	0.174
-241.932	105.612	0.088	-0.102
-240.917	551.728	0.029	0.068
-239.903	175.688	0.015	0.022
-238.888	-49.624	0.251	0.117
-237.873	-130.315	0.219	-0.029
-236.859	-55.956	0.294	0.129
-235.844	-200.000	0.010	-0.050
-234.830	-200.000	0.017	-0.411
-233.815	-200.000	0.014	0.123
-232.800	-106.310	0.216	-0.047
-231.786	-31.060	0.202	-0.112
-230.771	-159.475	-0.007	0.000
-229.757	707.835	0.063	0.163
-228.742	-123.442	0.248	-0.039
-227.727	91.854	-0.175	-0.192
-226.713	-147.278	0.265	-0.022
-225.698	51.549	-0.217	-0.202
-224.684	56.612	0.084	0.080
-223.669	-108.311	0.034	-0.007
-222.655	-125.927	0.192	-0.028
-221.640	132.602	-0.090	0.114
-220.625	800.000	-0.101	0.285
-219.611	-28.650	0.210	-0.118
-218.596	616.212	-0.025	-0.060
-217.582	-142.851	-0.549	0.052
-216.567	-65.087	-0.171	-0.068
-215.552	-162.958	0.268	0.013
-214.538	0.805	-0.124	-0.087
-213.523	140.091	0.195	-0.252
-212.509	613.575	0.031	-0.075
-211.494	47.611	0.047	-0.043
-210.479	13.722	-0.016	0.013
-209.465	24.550	0.256	-0.208
-208.450	165.570	0.110	-0.152
-207.436	495.054	-0.072	0.162
-206.421	364.086	0.127	0.250
-205.406	800.000	0.098	0.302
-204.392	75.294	-0.057	0.059
-203.377	-57.340	-0.384	-0.165
-202.363	-5.572	-0.057	0.038
-201.348	-78.654	0.297	0.099
-200.333	-59.862	0.206	0.086
-199.319	211.626	0.121	-0.186
-198.304	-88.201	0.181	-0.053
-197.290	525.056	0.057	0.132
-196.275	-81.339	-0.245	-0.079
-195.260	91.765	0.088	0.097
-194.246	-64.747	0.294	0.117
-193.231	-142.965	0.349	-0.033
-192.217	87.200	-0.221	-0.239
-191.202	376.058	-0.232	-0.463
-190.187	95.853	0.241	0.270
-189.173	15.005	-0.183	0.140
-188.158	-135.098	0.195	0.023
-187.144	800.000	-0.086	0.293
-186.129	-200.000	-0.024	0.292
-185.114	55.447	-0.202	-0.191
-184.100	-131.390	-0.310	-0.040
-183.085	-136.127	-0.338	0.039
-182.071	-183.800	0.290	0.005
-181.056	800.000	-0.088	0.305
-180.042	-200.000	-0.003	0.123
-179.027	6.808	0.151	-0.110
-178.012	176.820	-0.172	0.244
-176.998	-149.487	-0.090	-0.007
-175.983	491.917	0.186	-0.417
-174.969	-43.405	-0.120	-0.059
-173.954	-200.000	-0.033	0.207
-172.939	119.882	0.113	-0.136
-171.925	-99.708	0.131	0.032
-170.910	54.475	0.126	-0.118
-169.896	-0.402	-0.228	-0.158
-168.881	-146.728	0.211	-0.018
-167.866	800.000	-0.035	0.110
-166.852	57.413	0.138	-0.131
-165.837	-112.376	-0.233	0.046
-164.823	199.748	0.135	-0.202
-163.808	800.000	-0.099	-0.378
-162.793	21.782	-0.032	-0.025
-161.779	492.532	-0.053	0.119
-160.764	-200.000	0.066	0.337
-159.750	800.000	-0.016	-0.049
-158.735	57.696	0.181	0.173
-157.720	150.501	-0.222	0.295
-156.706	-105.780	-0.216	0.048
-155.691	131.953	0.300	0.378
-154.677	800.000	0.059	0.198
-153.662	-95.134	0.042	-0.011
-152.647	26.219	-0.325	0.265
-151.633	800.000	0.031	-0.106
-150.618	-150.002	-0.193	0.015
-149.604	711.324	-0.057	-0.147
-148.589	-135.251	0.284	-0.033
-147.574	800.000	-0.050	-0.138
-146.560	427.024	0.159	0.335
-145.545	498.244	0.029	0.066
-144.531	123.731	0.112	0.138
-143.516	-114.126	0.104	0.020
-142.502	46.540	0.083	0.075
-141.487	-200.000	0.020	0.259
-140.472	-20.459	-0.133	0.080
-139.458	-49.340	0.447	0.208
-138.443	-20.809	-0.237	-0.142
-137.429	55.256	0.073	0.069
-136.414	684.173	-0.162	-0.412
-135.399	-200.000	0.024	0.259
-134.385	-91.649	-0.153	-0.042
-133.370	93.035	-0.146	-0.161
-132.356	64.666	0.041	-0.040
-131.341	-200.000	0.009	-0.224
-130.326	-90.465	-0.035	0.010
-129.312	-200.000	0.004	-0.274
-128.297	404.945	-0.018	-0.036
-127.283	117.539	0.161	0.194
-126.268	93.847	-0.145	-0.160
-125.253	-59.531	-0.138	-0.058
-124.239	83.814	0.187	0.199
-123.224	-200.000	-0.027	-0.125
-122.210	40.144	-0.257	0.225
-121.195	-150.598	-0.230	0.017
-120.180	-200.000	0.002	0.139
-119.166	27.362	0.314	-0.258
-118.151	-200.000	0.053	-0.264
-117.137	800.000	0.112	0.383
-116.122	800.000	-0.108	0.393
-115.107	800.000	-0.100	0.365
-114.093	-200.000	-0.007	0.102
-113.078	-200.000	-0.042	-0.195
-112.064	183.637	0.126	0.181
-111.049	110.077	0.145	0.169
-110.034	800.000	0.131	-0.477
-109.020	-129.508	-0.111	0.015
-108.005	600.106	-0.044	-0.107
-106.991	-2.672	0.307	-0.210
-105.976	-90.724	0.188	0.053
-104.962	-200.000	0.044	-0.254
-103.947	6.580	0.153	-0.111
-102.932	86.921	-0.005	0.005
-101.918	-67.577	0.290	-0.111
-100.903	47.345	0.145	-0.131
-99.889	298.968	-0.219	-0.394
-98.874	37.666	-0.107	-0.093
-97.859	-53.363	0.190	0.085
-96.845	800.000	0.034	0.101
-95.830	80.176	-0.265	-0.277
-94.816	291.038	0.045	-0.080
-93.801	-31.550	-0.376	-0.206
-92.786	277.553	0.167	-0.290
-91.772	800.000	0.080	-0.307
-90.757	-200.000	0.029	0.193
-89.743	-87.661	0.191	-0.056
-88.728	-165.589	0.286	-0.012
-87.713	-200.000	-0.017	-0.090
-86.699	-106.837	-0.239	0.052
-85.684	-200.000	-0.016	-0.220
-84.670	-200.000	0.056	0.289
-83.655	-86.662	-0.081	-0.024
-82.640	-127.966	-0.197	0.028
-81.626	64.647	0.256	0.252
-80.611	516.025	0.077	-0.176
-79.597	604.126	-0.071	-0.171
-78.582	589.600	-0.070	0.169
-77.567	372.429	0.143	-0.283
-76.553	-37.082	-0.124	0.064
-75.538	106.735	-0.206	0.238
-74.524	-131.348	-0.119	0.015
-73.509	-12.572	-0.025	-0.016
-72.494	213.977	0.062	-0.096
-71.480	-200.000	0.037	0.178
-70.465	274.539	0.133	0.230
-69.451	-200.000	0.016	0.154
-68.436	-198.073	0.165	0.001
-67.422	-135.720	-0.161	-0.019
-66.407	-43.275	0.079	-0.039
-65.392	106.527	0.227	-0.261
-64.378	41.260	-0.255	-0.225
-63.363	-81.627	-0.272	0.087
-62.349	93.004	0.104	0.115
-61.334	122.311	-1.050	-1.277
-60.319	34.073	0.884	0.749
-59.305	341.243	-0.799	-1.520
-58.290	233.442	1.005	1.609
-57.276	800.000	0.604	1.641
-56.261	-200.000	137.258	643.556
-55.246	334.720	1663.411	3135.290
-54.232	135.275	2795.300	3536.429
-53.217	83.500	2189.601	2322.127
-52.203	29.899	1707.987	1416.162
-51.188	22.979	1532.744	1223.104
-50.173	21.409	1512.231	1195.957
-49.159	44.663	1588.700	1421.196
-48.144	40.843	1598.932	1403.377
-47.130	23.149	1546.979	1235.451
-46.115	20.410	1531.925	1204.418
-45.100	20.208	1528.226	1200.064
-44.086	20.127	1526.626	1198.195
-43.071	20.168	1524.285	1196.593
-42.057	20.088	1523.364	1195.275
-41.042	20.153	1521.619	1194.303
-40.027	20.107	1520.110	1192.759
-39.013	20.050	1518.351	1190.936
-37.998	20.033	1517.472	1190.086
-36.984	20.104	1516.107	1189.453
-35.969	20.119	1515.135	1188.745
-34.954	20.086	1512.993	1186.791
-33.940	20.111	1511.776	1185.963
-32.925	20.127	1510.170	1184.762
-31.911	20.122	1509.121	1183.863
-30.896	20.221	1507.642	1183.326
-29.881	20.213	1506.814	1182.579
-28.867	20.284	1505.230	1181.769
-27.852	20.258	1503.740	1180.375
-26.838	20.130	1502.156	1178.217
-25.823	20.213	1500.736	1177.616
-24.809	20.109	1499.707	1176.059
-23.794	20.169	1498.061	1175.128
-22.779	20.131	1497.274	1174.207
-21.765	20.152	1496.224	1173.480
-20.750	20.179	1494.563	1172.309
-19.736	20.160	1493.851	1171.576
-18.721	20.181	1491.862	1170.117
-17.706	20.128	1491.565	1169.478
-16.692	20.158	1490.636	1168.907
-15.677	20.109	1489.468	1167.610
-14.663	20.116	1489.063	1167.297
-13.648	20.092	1488.023	1166.270
-12.633	20.161	1486.423	1165.435
-11.619	20.228	1485.793	1165.348
-10.604	20.110	1484.836	1163.757
-9.590	20.050	1484.038	1162.685
-8.575	20.251	1483.110	1163.258
-7.560	20.224	1481.927	1162.099
-6.546	20.116	1481.700	1161.154
-5.531	20.112	1480.569	1160.194
-4.517	20.024	1480.076	1159.177
-3.502	20.143	1478.143	1158.410
-2.487	20.122	1477.414	1157.650
-1.473	20.165	1476.208	1156.946
-0.458	20.106	1474.998	1155.563
0.556	19.176	1464.665	1143.825
1.571	15.647	1440.269	1101.583
2.586	12.051	1376.407	1030.088
3.600	10.392	1290.293	955.775
4.615	9.415	1246.926	918.001
5.629	8.607	1190.370	871.883
6.644	4.542	1111.348	793.216
7.659	1.069	1077.945	752.089
8.673	0.671	1072.463	746.232
9.688	0.582	1069.346	743.562
10.702	0.647	1067.626	742.617
11.717	0.601	1065.516	740.859
12.731	1.947	1064.637	746.775
13.746	6.894	1071.443	775.815
14.761	13.247	1080.274	813.495
15.775	16.881	1084.618	834.620
16.790	16.892	1083.536	833.767
17.804	15.837	1082.133	827.428
18.819	15.220	1079.597	822.391
19.834	14.676	1078.194	818.580
20.848	14.430	1077.162	816.521
21.863	14.146	1076.866	814.832
22.877	13.976	1075.981	813.260
23.892	13.797	1074.660	811.316
24.907	13.739	1074.258	810.656
25.921	13.708	1073.147	809.592
26.936	13.667	1073.220	809.375
27.950	13.687	1071.678	808.242
28.965	13.648	1071.177	807.600
29.980	13.720	1070.424	807.312
30.994	13.961	1069.021	807.351
32.009	13.891	1068.338	806.426
33.023	13.913	1067.836	806.080
34.038	13.899	1067.198	805.462
35.053	13.935	1066.217	804.825
36.067	13.815	1065.531	803.655
37.082	13.862	1064.582	803.095
38.096	13.829	1063.655	802.167
39.111	13.854	1062.699	801.494
40.126	13.844	1061.942	800.804
41.140	13.793	1060.804	799.629
42.155	13.750	1059.868	798.643
43.169	13.681	1059.054	797.628
44.184	13.753	1057.801	796.964
45.199	13.612	1057.352	795.873
46.213	13.551	1056.252	794.683
47.228	13.736	1055.075	794.614
48.242	13.886	1053.217	793.862
49.257	13.698	1053.512	793.115
50.271	13.926	1051.814	792.854
51.286	13.733	1051.094	791.321
52.301	13.927	1049.991	791.345
53.315	13.760	1049.532	790.136
54.330	13.831	1048.279	789.460
55.344	13.864	1047.530	788.982
56.359	13.645	1046.698	787.246
57.374	13.596	1045.994	786.416
58.388	13.881	1044.768	786.775
59.403	13.778	1044.011	785.645
60.417	13.728	1043.324	784.822
61.432	13.502	1043.158	783.558
62.447	13.706	1041.390	783.123
63.461	13.752	1040.856	782.872
64.476	13.702	1039.762	781.746
65.490	13.588	1039.573	780.997
66.505	13.650	1037.957	780.002
67.520	13.684	1037.920	780.068
68.534	13.718	1036.813	779.323
69.549	13.680	1036.315	778.704
70.563	13.595	1035.835	777.877
71.578	13.798	1034.290	777.598
72.593	13.670	1033.565	776.383
73.607	13.629	1033.049	775.737
74.622	13.591	1031.643	774.436
75.636	13.618	1030.979	773.993
76.651	13.617	1030.062	773.230
77.666	13.645	1029.288	772.712
78.680	13.478	1028.812	771.507
79.695	13.562	1028.367	771.498
80.709	13.543	1027.807	770.922
81.724	13.644	1026.550	770.380
82.739	13.743	1025.579	770.042
83.753	13.782	1024.939	769.675
84.768	13.812	1024.168	769.165
85.782	13.817	1023.244	768.430
86.797	13.879	1022.394	768.011
87.812	13.761	1021.856	766.993
88.826	13.726	1021.144	766.225
89.841	13.674	1019.896	764.982
90.855	13.678	1019.013	764.270
91.870	13.834	1018.084	764.225
92.884	13.912	1017.384	763.991
93.899	13.751	1017.192	763.039
94.914	13.854	1016.022	762.567
95.928	13.852	1015.868	762.374
96.943	14.068	1014.149	762.009
97.957	13.959	1013.656	761.068
98.972	13.904	1012.966	760.233
99.987	13.844	1012.399	759.466
101.001	13.864	1011.599	758.888
102.016	13.889	1010.843	758.371
103.030	13.962	1009.369	757.528
104.045	13.870	1008.319	756.254
105.060	13.969	1007.256	755.841
106.074	13.824	1006.770	754.750
107.089	13.862	1005.557	753.947
108.103	13.784	1005.022	753.123
109.118	13.824	1003.567	752.148
110.133	13.817	1003.298	751.851
111.147	13.730	1002.276	750.624
112.162	13.800	1001.455	750.260
113.176	13.680	1000.758	749.129
114.191	13.828	999.447	748.748
115.206	13.799	998.783	748.053
116.220	13.862	997.850	747.574
117.235	13.862	997.089	746.937
118.249	13.905	995.877	746.158
119.264	13.783	995.458	745.229
120.279	13.774	994.132	744.128
121.293	13.766	993.742	743.733
122.308	13.731	992.958	742.928
123.322	13.732	991.725	741.943
124.337	13.826	990.541	741.409
125.352	13.814	989.502	740.514
126.366	13.696	988.290	739.016
127.381	13.727	987.402	738.423
128.395	13.753	986.595	737.871
129.410	13.727	985.585	736.936
130.424	13.733	984.960	736.427
131.439	13.766	983.812	735.653
132.454	13.744	983.059	734.927
133.468	13.754	982.325	734.358
134.483	13.717	981.818	733.751
135.497	13.784	980.750	733.181
136.512	13.706	980.149	732.326
137.527	13.890	978.557	731.881
138.541	13.808	978.624	731.503
139.556	13.723	978.350	730.861
140.570	13.822	976.882	730.133
141.585	13.828	976.412	729.745
142.600	13.960	975.563	729.627
143.614	14.030	974.428	729.019
144.629	14.046	974.080	728.766
145.643	14.062	972.865	727.859
146.658	13.964	972.549	727.130
147.673	14.058	970.889	726.235
148.687	13.885	970.892	725.421
149.702	13.960	969.736	724.820
150.716	13.853	968.951	723.701
151.731	13.946	968.135	723.432
152.746	14.036	967.009	722.919
153.760	13.977	966.569	722.271
154.775	14.002	965.579	721.575
155.789	14.021	964.733	720.962
156.804	14.026	964.380	720.655
157.819	14.035	963.539	720.004
158.833	14.218	962.425	719.896
159.848	14.198	961.894	719.348
160.862	14.175	961.229	718.688
161.877	14.079	960.860	717.936
162.892	13.991	959.764	716.673
163.906	14.091	959.239	716.647
164.921	14.171	958.065	716.050
165.935	14.025	957.323	714.806
166.950	14.052	956.116	713.960
167.964	14.057	955.018	713.096
168.979	14.233	954.100	713.101
169.994	14.147	953.340	712.101
171.008	14.116	952.148	711.017
172.023	14.183	951.491	710.751
173.037	14.188	950.623	710.059
174.052	14.073	949.664	708.792
175.067	14.213	949.386	709.118
176.081	14.082	948.593	707.905
177.096	14.098	947.498	707.094
178.110	14.126	947.348	707.035
179.125	14.203	946.235	706.470
180.140	14.310	945.091	706.009
181.154	14.336	944.288	705.454
182.169	14.406	944.131	705.573
183.183	14.422	942.544	704.392
184.198	14.275	942.617	703.761
185.213	14.251	942.081	703.201
186.227	14.328	941.008	702.662
187.242	14.397	940.781	702.718
188.256	14.409	939.820	701.990
189.271	14.339	939.358	701.288
190.286	14.378	938.367	700.649
191.300	14.381	937.432	699.902
192.315	14.548	936.546	699.881
193.329	14.234	936.257	698.284
194.344	14.183	935.865	697.718
195.359	14.257	935.078	697.379
196.373	14.268	934.809	697.162
197.388	14.364	934.166	697.022
198.402	14.512	932.840	696.589
199.417	14.504	932.770	696.445
200.432	14.628	932.434	696.648
201.446	14.570	931.770	695.846
202.461	14.500	931.515	695.306
203.475	14.653	930.565	695.171
204.490	14.676	930.004	694.784
205.504	14.712	928.915	694.059
206.519	14.611	928.040	692.924
207.534	14.618	927.276	692.323
208.548	14.548	926.757	691.585
209.563	14.654	925.504	691.028
210.577	14.633	925.344	690.758
211.592	14.537	924.734	689.845
212.607	14.662	924.524	690.147
213.621	14.655	924.000	689.666
214.636	14.808	922.798	689.339
215.650	14.762	921.866	688.390
216.665	14.772	921.682	688.235
217.680	14.728	921.681	687.990
218.694	14.755	921.229	687.704
219.709	14.896	920.387	687.593
220.723	14.885	919.374	686.730
221.738	14.849	918.568	685.920
222.753	14.914	918.057	685.743
223.767	14.804	917.450	684.779
224.782	14.894	916.352	684.267
225.796	14.877	915.978	683.859
226.811	14.956	914.842	683.274
227.826	15.059	914.203	683.154
228.840	14.969	913.840	682.457
229.855	14.979	912.515	681.448
230.869	15.034	912.130	681.325
231.884	14.913	911.782	680.511
232.899	15.013	910.667	680.026
233.913	15.017	910.107	679.563
234.928	14.884	909.763	678.704
235.942	14.985	908.862	678.384
236.957	14.895	908.104	677.394
237.972	15.062	907.135	677.284
238.986	14.913	907.203	676.674
240.001	15.060	905.747	676.123
241.015	14.999	905.495	675.628
242.030	15.061	904.658	675.192
243.045	15.064	904.073	674.708
244.059	15.029	903.516	674.091
245.074	15.006	903.104	673.632
246.088	15.051	902.245	673.116
247.103	15.155	901.507	672.922
248.117	15.245	900.903	672.774
249.132	15.157	900.485	672.045
250.147	15.302	899.703	671.987
251.161	15.227	899.328	671.345
252.176	15.325	898.496	671.058
253.190	15.391	897.866	670.791
254.205	15.341	897.033	669.911
255.220	15.358	896.418	669.459
256.234	15.561	895.513	669.535
257.249	15.447	894.999	668.635
258.263	15.598	894.523	668.823
259.278	15.545	893.914	668.098
260.293	15.564	893.333	667.678
261.307	15.671	892.899	667.719
262.322	15.558	892.124	666.633
263.336	15.502	891.689	666.026
264.351	15.591	891.051	665.844
265.366	15.712	890.419	665.794
266.380	15.714	889.834	665.303
267.395	15.644	889.082	664.405
268.409	15.626	888.405	663.772
269.424	15.640	887.775	663.296
270.439	15.645	887.020	662.695
271.453	15.629	886.150	661.920
272.468	15.619	885.447	661.300
273.482	15.545	884.991	660.610
274.497	15.828	884.358	661.192
275.512	15.616	883.950	659.994
276.526	15.709	883.084	659.654
277.541	15.773	881.945	658.995
278.555	15.742	881.655	658.597
279.570	15.786	881.048	658.260
280.585	15.881	880.400	658.087
281.599	15.800	879.752	657.229
282.614	15.976	879.328	657.539
283.628	15.948	878.311	656.614
284.643	15.834	878.299	656.101
285.657	15.875	877.917	655.919
286.672	15.926	877.045	655.407
287.687	16.066	876.408	655.417
288.701	15.972	876.120	654.781
289.716	15.863	875.256	653.650
290.730	15.946	874.727	653.522
291.745	15.963	873.972	652.965
292.760	15.983	873.180	652.394
293.774	16.213	872.605	652.794
294.789	16.096	872.020	651.847
295.803	16.191	871.258	651.589
296.818	15.950	870.959	650.374
297.833	15.945	870.607	650.038
298.847	16.048	869.296	649.396
299.862	16.193	868.578	649.362
300.876	16.137	868.341	648.910
301.891	16.179	867.557	648.430
302.906	16.227	866.914	648.076
303.920	16.241	866.243	647.572
304.935	16.067	865.520	646.304
305.949	16.230	864.989	646.476
306.964	16.237	864.338	645.959
307.979	16.265	863.662	645.504
308.993	16.301	863.398	645.385
310.008	16.331	862.731	644.945
311.022	16.287	862.227	644.346
312.037	16.288	861.426	643.693
313.052	16.324	861.038	643.484
314.066	16.249	860.530	642.760
315.081	16.324	859.678	642.352
316.095	16.289	859.512	642.040
317.110	16.396	858.644	641.740
318.125	16.350	857.965	641.000
319.139	16.320	857.764	640.681
320.154	16.310	857.293	640.234
321.168	16.401	856.516	639.941
322.183	16.428	856.050	639.641
323.197	16.599	855.211	639.603
324.212	16.690	854.739	639.535
325.227	16.441	854.605	638.438
326.241	16.456	853.812	637.845
327.256	16.466	853.384	637.510
328.270	16.410	852.591	636.649
329.285	16.507	852.317	636.754
330.300	16.524	851.580	636.210
331.314	16.563	850.870	635.769
332.329	16.579	850.271	635.327
333.343	16.581	849.714	634.860
334.358	16.521	849.317	634.284
335.373	16.514	848.676	633.723
336.387	16.639	848.044	633.661
337.402	16.603	847.725	633.233
338.416	16.786	846.620	633.037
339.431	16.729	846.250	632.488
340.446	16.697	845.339	631.634
341.460	16.662	845.344	631.451
342.475	16.762	844.818	631.373
343.489	16.762	844.072	630.763
344.504	16.854	843.590	630.688
345.519	16.825	843.206	630.235
346.533	16.958	842.603	630.226
347.548	16.869	842.172	629.516
348.562	16.939	841.696	629.365
349.577	16.895	840.755	628.442
350.592	16.934	840.241	628.146
351.606	16.742	840.151	627.313
352.621	16.877	839.561	627.317
353.635	16.874	838.923	626.772
354.650	16.919	839.015	626.951
355.665	17.054	838.249	626.822
356.679	17.037	837.413	626.080
357.694	17.019	836.984	625.637
358.708	17.044	836.304	625.165
359.723	16.904	836.187	624.507
360.738	16.984	835.228	624.030
361.752	16.987	835.149	623.928
362.767	17.108	834.464	623.805
363.781	17.105	834.048	623.429
364.796	17.075	833.499	622.851
365.810	17.124	833.166	622.726
366.825	17.202	832.884	622.746
367.840	17.251	832.513	622.596
368.854	17.257	831.870	622.080
369.869	17.367	831.446	622.112
370.883	17.187	830.981	621.048
371.898	17.088	830.409	620.205
372.913	17.296	829.835	620.481
373.927	17.288	829.030	619.795
374.942	17.394	828.291	619.575
375.956	17.313	827.850	618.896
376.971	17.327	827.307	618.487
377.986	17.423	826.617	618.263
379.000	17.402	826.235	617.847
380.015	17.443	826.014	617.776
381.029	17.302	825.634	616.926
382.044	17.415	825.023	616.823
383.059	17.521	824.017	616.400
384.073	17.484	823.553	615.864
385.088	17.449	823.243	615.454
386.102	17.489	822.576	615.044
387.117	17.475	821.785	614.346
388.132	17.549	821.509	614.354
389.146	17.445	821.284	613.757
390.161	17.486	820.768	613.463
391.175	17.483	820.489	613.190
392.190	17.473	820.086	612.799
393.205	17.553	819.506	612.599
394.219	17.585	819.246	612.465
395.234	17.454	818.885	611.672
396.248	17.475	818.094	611.100
397.263	17.478	817.361	610.509
398.278	17.512	817.054	610.350
399.292	17.525	816.813	610.161
400.307	17.659	816.192	610.122
401.321	17.546	816.167	609.645
402.336	17.522	815.539	609.038
403.350	17.511	815.435	608.866
404.365	17.666	815.029	609.063
405.380	17.653	814.215	608.352
406.394	17.748	813.441	608.060
407.409	17.863	813.236	608.262
408.423	17.814	812.677	607.618
409.438	17.756	812.236	607.028
410.453	17.907	811.711	607.117
411.467	17.858	811.297	606.583
412.482	17.953	810.791	606.487
413.496	17.982	810.287	606.160
414.511	18.014	810.332	606.251
415.526	17.987	809.649	605.591
416.540	17.839	809.445	604.860
417.555	18.031	808.699	604.930
418.569	17.974	808.210	604.308
419.584	18.114	807.457	604.187
420.599	18.148	807.348	604.173
421.613	115.743	1300.141	1491.805
422.628	100.073	1371.892	1491.892
