DTS Sentinel unit serial number:	SN413079Multiplexer serial number:	ORYXHardware model number:	OX4-SRSoftware version number:	ORYX F/W v4.00 Oryx Data Collector v3.7.2.0data status	okinstallation	princeton_trtdifferential loss correction	single-endedforward channel	channel 3reverse channel	N/Adate	2019/09/16time	12:40:35forward acquisition time	60.00reverse acquisition time	0.00gamma	496.2192k internal	0.2295k external	0.2295temperature offset calibration	0.9948default loss term (dB/km)	0.3790temperature slope calibration	1.0000multiplexer offset coefficient	1.0000multiplexer slope coefficient	1.0000fibre end	0.00T internal ref (°C)	40.00T ext. ref 1 (°C)	13.44T ext. ref 2 (°C)	37.67length (m)	temperature (°C)	Stokes	anti-Stokes-747.200	-200.000	0.001	0.071
-746.185	-200.000	0.017	0.090
-745.171	-46.108	0.156	-0.079
-744.156	-200.000	-0.014	-0.150
-743.142	7.231	-0.103	0.079
-742.127	66.366	-0.214	0.222
-741.112	159.716	-0.126	0.180
-740.098	209.422	-0.120	0.191
-739.083	-39.321	-0.134	-0.072
-738.069	-20.033	-0.280	0.176
-737.054	-200.000	-0.049	0.286
-736.039	-200.000	-0.014	-0.177
-735.025	35.884	-0.215	0.193
-734.010	-43.832	-0.241	-0.124
-732.996	-48.538	-0.189	0.093
-731.981	-200.000	-0.042	-0.448
-730.966	30.065	-0.109	0.095
-729.952	-167.238	-0.343	-0.014
-728.937	156.163	0.075	-0.105
-727.923	-59.055	-0.241	-0.106
-726.908	-86.117	-0.240	0.076
-725.894	-49.877	-0.222	0.107
-724.879	310.077	0.173	0.331
-723.864	24.301	-0.154	-0.130
-722.850	332.516	0.125	0.247
-721.835	343.034	-0.059	0.118
-720.821	-58.328	0.184	-0.082
-719.806	-87.954	-0.200	-0.062
-718.791	-25.044	-0.309	0.187
-717.777	-116.088	-0.093	-0.018
-716.762	298.434	-0.116	0.217
-715.748	-200.000	0.024	0.199
-714.733	-152.407	-0.196	0.014
-713.718	61.700	0.110	-0.112
-712.704	-200.000	0.014	0.315
-711.689	-28.527	-0.154	0.091
-710.675	537.710	0.077	0.187
-709.660	-105.255	-0.179	-0.042
-708.645	163.011	0.120	0.172
-707.631	-200.000	0.025	-0.381
-706.616	120.088	0.202	0.256
-705.602	787.508	-0.037	-0.103
-704.587	771.854	0.040	-0.111
-703.572	800.000	-0.055	-0.212
-702.558	767.733	0.081	0.226
-701.543	23.527	0.328	0.275
-700.529	-92.134	0.113	-0.032
-699.514	800.000	-0.119	0.432
-698.499	216.746	-0.122	0.198
-697.485	-153.817	-0.026	0.002
-696.470	116.556	0.111	-0.138
-695.456	-200.000	0.020	-0.344
-694.441	-58.858	0.193	-0.085
-693.426	38.407	0.127	-0.116
-692.412	-163.131	-0.217	-0.011
-691.397	-200.000	0.001	-0.137
-690.383	800.000	-0.056	-0.212
-689.368	800.000	-0.134	0.380
-688.354	-200.000	-0.030	0.376
-687.339	71.235	-0.161	-0.171
-686.324	410.892	0.069	0.149
-685.310	-38.482	0.096	-0.052
-684.295	420.107	0.129	0.281
-683.281	-95.179	-0.224	-0.062
-682.266	48.863	0.078	0.075
-681.251	-200.000	0.047	-0.259
-680.237	216.571	0.193	-0.313
-679.222	236.500	0.174	-0.294
-678.208	394.684	-0.055	0.116
-677.193	-12.234	-0.108	-0.072
-676.178	772.592	0.062	0.173
-675.164	-116.189	-0.319	-0.060
-674.149	-200.000	0.106	0.491
-673.135	-60.189	-0.133	0.058
-672.120	-5.870	0.210	-0.146
-671.105	-200.000	-0.035	0.202
-670.091	-33.405	-0.174	0.098
-669.076	163.133	0.050	-0.072
-668.062	-200.000	0.019	0.237
-667.047	-74.458	-0.191	0.070
-666.032	-125.846	-0.442	-0.068
-665.018	-200.000	0.036	0.224
-664.003	91.896	0.076	0.087
-662.989	-73.182	-0.133	-0.049
-661.974	-200.000	0.008	0.133
-660.959	-200.000	-0.001	-0.076
-659.945	-44.573	0.218	0.111
-658.930	-100.449	0.132	-0.033
-657.916	-21.665	-0.117	0.073
-656.901	800.000	0.115	-0.373
-655.886	-69.114	-0.174	-0.068
-654.872	238.582	0.156	-0.263
-653.857	41.471	-0.223	-0.206
-652.843	148.536	0.324	-0.445
-651.828	-149.908	-0.190	-0.015
-650.814	-79.818	-0.171	0.058
-649.799	15.264	-0.073	0.058
-648.784	-58.086	0.231	-0.103
-647.770	-79.159	-0.303	-0.105
-646.755	-138.048	0.409	0.046
-645.741	141.914	0.024	-0.032
-644.726	800.000	0.038	0.125
-643.711	109.234	-0.116	-0.141
-642.697	36.271	-0.194	-0.174
-641.682	-83.682	-0.100	0.032
-640.668	-171.927	-0.060	0.002
-639.653	167.348	-0.148	0.214
-638.638	-76.728	-0.050	0.018
-637.624	-158.941	-0.192	-0.011
-636.609	-62.808	0.175	0.074
-635.595	-14.034	-0.105	0.069
-634.580	-159.125	0.438	-0.025
-633.565	-143.972	0.136	-0.013
-632.551	800.000	-0.093	0.302
-631.536	-6.820	-0.175	0.121
-630.522	-4.227	0.377	-0.266
-629.507	-200.000	-0.040	-0.225
-628.492	2.283	0.184	-0.135
-627.478	-200.000	-0.051	-0.260
-626.463	-128.460	-0.052	-0.008
-625.449	-164.066	-0.293	-0.014
-624.434	-52.939	0.047	-0.022
-623.419	-200.000	-0.028	-0.446
-622.405	58.844	-0.094	-0.094
-621.390	-200.000	-0.058	-0.373
-620.376	-200.000	-0.007	0.129
-619.361	10.452	0.379	0.294
-618.346	369.738	0.113	-0.233
-617.332	50.248	0.272	0.261
-616.317	320.969	0.116	-0.225
-615.303	-135.868	-0.146	-0.018
-614.288	800.000	0.072	-0.263
-613.273	-173.668	-0.239	-0.007
-612.259	-44.151	-0.193	0.099
-611.244	-23.720	0.105	-0.064
-610.230	-61.744	-0.212	-0.090
-609.215	-82.813	-0.248	0.081
-608.201	-200.000	0.016	0.262
-607.186	209.934	-0.107	-0.171
-606.171	565.432	-0.184	-0.454
-605.157	-200.000	0.004	-0.221
-604.142	-200.000	-0.032	0.303
-603.128	752.412	0.084	0.230
-602.113	800.000	0.035	-0.152
-601.098	800.000	-0.129	-0.448
-600.084	73.418	-0.189	0.201
-599.069	253.686	0.121	-0.210
-598.055	257.003	-0.183	-0.319
-597.040	-102.241	0.159	0.039
-596.025	-200.000	-0.012	0.172
-595.011	-143.331	-0.196	-0.019
-593.996	800.000	-0.109	0.376
-592.982	-164.144	0.104	-0.005
-591.967	77.284	0.138	0.149
-590.952	-97.326	-0.274	0.073
-589.938	-200.000	-0.014	-0.125
-588.923	-27.397	0.136	0.081
-587.909	526.958	0.176	0.422
-586.894	81.027	0.019	0.021
-585.879	-65.376	0.103	0.042
-584.865	57.458	-0.165	0.164
-583.850	-200.000	-0.002	0.142
-582.836	-200.000	0.020	0.102
-581.821	-184.815	0.315	0.005
-580.806	66.252	0.176	-0.182
-579.792	179.413	-0.109	-0.163
-578.777	-72.571	0.287	-0.108
-577.763	-88.347	-0.102	0.031
-576.748	139.869	0.200	0.268
-575.733	-121.226	0.372	0.063
-574.719	-200.000	0.032	0.237
-573.704	-200.000	0.017	0.102
-572.690	800.000	-0.085	-0.260
-571.675	48.410	0.256	-0.243
-570.661	-26.884	0.307	-0.182
-569.646	800.000	-0.047	-0.161
-568.631	-96.535	-0.198	-0.053
-567.617	49.538	-0.021	0.020
-566.602	800.000	0.036	-0.146
-565.588	491.440	0.055	0.128
-564.573	-96.472	0.173	-0.046
-563.558	-123.355	0.145	-0.024
-562.544	347.645	0.046	-0.091
-561.529	-98.593	-0.073	-0.019
-560.515	-142.758	-0.211	-0.021
-559.500	-32.628	-0.213	-0.120
-558.485	-107.141	-0.034	-0.008
-557.471	-163.737	-0.117	-0.006
-556.456	-51.589	0.265	-0.126
-555.442	-105.358	0.364	0.084
-554.427	-21.734	-0.189	0.117
-553.412	800.000	-0.046	-0.187
-552.398	79.116	0.060	0.066
-551.383	-200.000	0.006	0.586
-550.369	71.552	-0.316	0.333
-549.354	-6.753	-0.138	0.096
-548.339	800.000	0.152	0.533
-547.325	302.918	-0.162	0.304
-546.310	-200.000	-0.023	0.221
-545.296	-200.000	0.037	0.249
-544.281	-200.000	-0.022	-0.343
-543.266	4.942	-0.181	0.135
-542.252	-200.000	0.045	0.248
-541.237	216.323	-0.076	0.122
-540.223	-0.549	-0.226	-0.163
-539.208	30.346	0.139	0.120
-538.193	800.000	-0.064	0.193
-537.179	800.000	-0.046	-0.143
-536.164	-39.373	-0.164	0.087
-535.150	-200.000	-0.015	-0.338
-534.135	-41.701	-0.020	0.010
-533.121	-200.000	0.018	-0.172
-532.106	46.646	0.107	-0.101
-531.091	2.660	0.029	0.021
-530.077	-102.654	-0.385	-0.093
-529.062	-200.000	0.001	0.058
-528.048	105.371	0.068	-0.081
-527.033	178.317	0.095	-0.141
-526.018	49.789	-0.141	0.135
-525.004	800.000	0.038	0.167
-523.989	-66.420	0.109	-0.044
-522.975	96.773	-0.060	-0.070
-521.960	-200.000	-0.006	0.043
-520.945	-31.431	0.285	-0.162
-519.931	-200.000	-0.006	0.613
-518.916	-124.012	0.134	-0.021
-517.902	-200.000	-0.084	0.000
-516.887	-93.021	0.218	0.062
-515.872	518.187	-0.177	-0.421
-514.858	-200.000	-0.005	-0.054
-513.843	242.925	0.076	0.130
-512.829	30.076	-0.390	-0.337
-511.814	-200.000	-0.058	0.363
-510.799	-171.946	-0.115	-0.004
-509.785	-200.000	0.016	0.154
-508.770	-200.000	0.012	-0.475
-507.756	157.591	-0.106	-0.149
-506.741	-56.265	-0.241	-0.109
-505.726	60.989	0.128	0.129
-504.712	97.950	-0.203	0.236
-503.697	-2.680	0.033	0.023
-502.683	223.262	0.074	-0.120
-501.668	-200.000	-0.023	0.106
-500.653	-200.000	-0.030	0.234
-499.639	-200.000	-0.023	0.223
-498.624	-51.442	0.161	-0.076
-497.610	204.728	0.139	0.218
-496.595	-107.655	0.360	0.080
-495.581	-60.332	0.423	-0.182
-494.566	-114.562	0.175	0.034
-493.551	609.062	-0.085	0.215
-492.537	800.000	0.037	-0.107
-491.522	-102.984	0.225	0.054
-490.508	5.765	-0.173	0.130
-489.493	-110.172	-0.220	-0.046
-488.478	18.910	0.241	0.195
-487.464	440.574	-0.153	0.340
-486.449	-111.971	0.119	0.024
-485.435	282.493	-0.251	0.455
-484.420	-200.000	0.017	0.224
-483.405	-200.000	-0.017	0.270
-482.391	194.468	-0.121	0.185
-481.376	-200.000	-0.044	-0.301
-480.362	97.906	0.186	-0.216
-479.347	164.998	0.146	0.208
-478.332	163.507	0.212	-0.301
-477.318	-146.586	0.111	0.010
-476.303	41.527	-0.120	-0.110
-475.289	-56.871	-0.152	0.068
-474.274	-159.433	-0.067	-0.004
-473.259	377.432	-0.080	-0.165
-472.245	-200.000	-0.001	-0.063
-471.230	-84.597	0.269	0.086
-470.216	-41.659	0.088	0.046
-469.201	-151.444	0.191	0.014
-468.186	-95.104	-0.153	0.042
-467.172	-114.760	0.288	-0.056
-466.157	188.838	-0.068	-0.103
-465.143	-92.385	-0.113	-0.032
-464.128	-78.847	0.182	-0.063
-463.113	800.000	0.075	0.277
-462.099	-200.000	-0.024	-0.477
-461.084	-98.162	-0.230	-0.060
-460.070	-183.031	-0.094	0.002
-459.055	170.601	-0.063	-0.091
-458.040	-200.000	-0.035	0.275
-457.026	-36.322	0.306	0.167
-456.011	-117.094	0.269	-0.050
-454.997	425.380	-0.044	0.095
-453.982	-100.226	-0.334	-0.084
-452.968	-200.000	0.053	0.258
-451.953	800.000	0.027	-0.082
-450.938	29.071	0.222	0.190
-449.924	98.121	0.124	0.145
-448.909	303.975	-0.187	-0.351
-447.895	212.463	0.173	0.276
-446.880	-137.278	-0.362	-0.042
-445.865	800.000	-0.044	-0.144
-444.851	-200.000	0.030	-0.151
-443.836	62.004	-0.227	-0.229
-442.822	-76.315	-0.243	-0.086
-441.807	216.989	-0.087	0.141
-440.792	-77.637	0.410	-0.143
-439.778	773.126	0.031	0.085
-438.763	-26.486	0.137	0.081
-437.749	98.888	0.090	0.105
-436.734	-200.000	-0.005	0.052
-435.719	-81.376	-0.363	0.121
-434.705	470.061	0.047	0.106
-433.690	45.762	0.116	-0.108
-432.676	-16.964	-0.165	0.105
-431.661	19.119	-0.096	-0.078
-430.646	800.000	0.088	-0.285
-429.632	-86.255	-0.243	0.076
-428.617	-113.545	0.176	0.035
-427.603	1.868	0.044	-0.032
-426.588	369.377	-0.166	0.340
-425.573	800.000	0.036	0.104
-424.559	800.000	0.107	-0.398
-423.544	800.000	0.114	0.349
-422.530	-103.192	0.071	0.017
-421.515	129.207	-0.123	-0.159
-420.500	47.807	-0.138	0.130
-419.486	113.380	0.169	0.207
-418.471	-112.575	0.140	-0.028
-417.457	76.990	0.316	-0.338
-416.442	21.618	-0.161	0.132
-415.428	-136.015	0.045	0.005
-414.413	-73.062	0.053	-0.020
-413.398	170.408	0.081	0.117
-412.384	-14.329	0.220	-0.143
-411.369	48.387	-0.186	0.176
-410.355	-62.583	-0.168	0.070
-409.340	110.230	-0.017	-0.020
-408.325	156.070	0.074	-0.103
-407.311	800.000	0.051	-0.209
-406.296	90.874	0.124	-0.140
-405.282	-29.305	0.216	0.125
-404.267	-3.307	0.110	-0.077
-403.252	-104.636	-0.155	-0.036
-402.238	8.626	-0.194	0.147
-401.223	-177.443	-0.387	-0.010
-400.209	78.560	-0.149	0.161
-399.194	-200.000	-0.024	-0.181
-398.179	310.971	0.022	-0.041
-397.165	-0.900	0.188	0.134
-396.150	-117.889	0.185	0.034
-395.136	-200.000	-0.004	0.262
-394.121	-54.365	-0.324	-0.148
-393.106	349.841	0.028	0.056
-392.092	-122.811	-0.067	-0.011
-391.077	-39.345	-0.323	-0.171
-390.063	-200.000	0.023	-0.186
-389.048	-7.327	0.274	-0.187
-388.033	272.911	0.178	-0.318
-387.019	-27.677	-0.249	0.146
-386.004	-200.000	-0.013	-0.238
-384.990	-28.763	-0.139	-0.081
-383.975	460.508	0.077	-0.172
-382.960	-200.000	0.033	0.206
-381.946	-200.000	0.003	0.075
-380.931	377.082	0.132	0.273
-379.917	149.579	0.075	0.103
-378.902	-200.000	0.027	0.207
-377.888	31.490	0.165	-0.143
-376.873	215.505	-0.136	-0.218
-375.858	-151.071	-0.131	0.010
-374.844	-76.361	-0.103	-0.036
-373.829	-28.985	-0.158	0.092
-372.815	-129.338	-0.239	0.033
-371.800	253.572	0.063	-0.109
-370.785	50.119	0.198	0.188
-369.771	200.770	-0.087	0.134
-368.756	66.955	-0.239	-0.245
-367.742	74.074	0.190	-0.201
-366.727	-82.052	0.228	0.075
-365.712	-200.000	-0.033	0.314
-364.698	-54.490	-0.385	0.176
-363.683	800.000	-0.135	0.395
-362.669	-103.357	-0.113	0.027
-361.654	-200.000	0.024	0.143
-360.639	800.000	0.064	0.206
-359.625	-183.482	0.332	0.006
-358.610	70.529	-0.189	0.197
-357.596	-200.000	-0.017	-0.401
-356.581	325.286	-0.099	0.191
-355.566	-35.221	-0.086	0.047
-354.552	800.000	0.054	0.224
-353.537	-200.000	-0.073	0.406
-352.523	-200.000	0.078	0.354
-351.508	-32.466	-0.344	0.193
-350.493	-125.716	-0.355	-0.054
-349.479	-36.182	0.239	-0.130
-348.464	68.640	-0.032	-0.033
-347.450	-3.390	-0.199	-0.139
-346.435	569.426	-0.140	0.343
-345.420	800.000	0.038	-0.158
-344.406	-53.069	-0.314	-0.145
-343.391	83.068	0.146	-0.160
-342.377	-70.704	0.257	0.098
-341.362	-74.774	-0.235	0.085
-340.348	194.186	-0.074	0.113
-339.333	0.072	-0.119	-0.085
-338.318	705.304	0.087	-0.230
-337.304	-27.609	0.186	-0.109
-336.289	-135.285	0.329	-0.040
-335.275	-82.887	0.194	-0.063
-334.260	800.000	-0.138	0.463
-333.245	6.059	0.079	0.059
-332.231	-200.000	-0.041	0.191
-331.216	57.711	0.232	-0.228
-330.202	-200.000	0.018	-0.241
-329.187	23.664	0.152	0.126
-328.172	179.730	0.067	-0.098
-327.158	-118.263	-0.357	-0.064
-326.143	-44.689	0.320	0.161
-325.129	800.000	0.059	-0.170
-324.114	155.861	-0.097	-0.135
-323.099	607.917	-0.015	-0.037
-322.085	218.093	0.107	0.171
-321.070	-165.460	-0.338	-0.015
-320.056	38.592	-0.103	-0.093
-319.041	-92.065	-0.421	0.120
-318.026	-110.345	-0.369	-0.077
-317.012	-122.693	-0.187	-0.030
-315.997	-130.622	-0.268	-0.036
-314.983	108.229	0.174	-0.209
-313.968	-149.397	-0.322	-0.026
-312.953	-1.331	-0.148	-0.105
-311.939	6.610	-0.275	-0.206
-310.924	573.683	-0.028	0.069
-309.910	17.861	-0.098	0.078
-308.895	800.000	-0.125	-0.362
-307.880	150.055	0.174	0.237
-306.866	-64.713	0.244	0.099
-305.851	68.947	-0.283	0.292
-304.837	-16.592	-0.175	0.112
-303.822	-200.000	-0.005	-0.244
-302.807	-92.510	0.294	0.083
-301.793	-115.226	-0.209	-0.040
-300.778	438.586	-0.085	-0.186
-299.764	-98.201	0.188	-0.048
-298.749	-48.503	0.150	-0.073
-297.735	235.534	0.098	-0.162
-296.720	649.884	0.068	-0.175
-295.705	-62.029	-0.067	-0.028
-294.691	28.783	-0.106	-0.090
-293.676	4.900	0.217	-0.160
-292.662	44.474	0.151	0.139
-291.647	-37.026	-0.179	-0.096
-290.632	800.000	-0.074	-0.255
-289.618	-46.837	0.259	0.127
-288.603	-11.445	0.175	-0.115
-287.589	-200.000	0.052	-0.383
-286.574	800.000	-0.042	0.168
-285.559	-200.000	-0.024	-0.256
-284.545	-138.819	0.306	-0.034
-283.530	677.572	0.141	-0.368
-282.516	141.400	0.195	-0.260
-281.501	-58.540	0.048	0.021
-280.486	113.271	0.064	0.077
-279.472	697.637	0.023	-0.061
-278.457	282.793	0.053	0.096
-277.443	123.414	0.110	0.139
-276.428	-25.821	0.089	-0.053
-275.413	800.000	0.009	0.032
-274.399	-78.589	-0.092	0.032
-273.384	-200.000	0.043	0.206
-272.370	-120.474	-0.171	0.029
-271.355	-200.000	0.028	-0.179
-270.340	134.278	0.056	-0.073
-269.326	641.721	0.092	0.235
-268.311	-200.000	0.007	-0.131
-267.297	729.255	0.192	0.514
-266.282	-44.130	-0.295	0.148
-265.267	-86.768	-0.087	0.027
-264.253	-95.265	0.252	-0.068
-263.238	-10.021	0.037	-0.025
-262.224	127.167	-0.122	0.155
-261.209	-45.779	-0.108	-0.054
-260.195	800.000	-0.081	-0.267
-259.180	-200.000	-0.017	-0.341
-258.165	-133.490	0.455	0.057
-257.151	26.065	0.149	0.125
-256.136	-51.174	0.127	-0.060
-255.122	44.836	0.192	-0.177
-254.107	-200.000	-0.021	-0.103
-253.092	-193.507	0.075	0.001
-252.078	-150.438	-0.115	0.009
-251.063	84.150	0.138	-0.152
-250.049	25.198	-0.103	0.086
-249.034	800.000	0.069	-0.265
-248.019	-58.440	0.285	-0.124
-247.005	318.106	-0.228	-0.432
-245.990	322.599	-0.056	-0.107
-244.976	800.000	-0.050	-0.195
-243.961	600.718	0.083	0.207
-242.946	20.420	-0.101	-0.082
-241.932	-153.182	-0.207	-0.015
-240.917	45.774	0.052	-0.048
-239.903	-93.600	0.242	-0.067
-238.888	-200.000	-0.030	0.241
-237.873	-162.219	0.074	-0.004
-236.859	146.347	0.265	-0.357
-235.844	-114.960	-0.179	-0.034
-234.830	517.762	-0.047	-0.109
-233.815	310.707	0.078	-0.147
-232.800	800.000	-0.055	0.153
-231.786	-200.000	0.009	0.174
-230.771	679.662	-0.020	-0.052
-229.757	-52.304	-0.299	0.139
-228.742	800.000	-0.069	0.237
-227.727	521.935	-0.103	0.243
-226.713	-200.000	0.292	-0.000
-225.698	-200.000	-0.034	0.160
-224.684	13.405	-0.255	0.198
-223.669	290.657	-0.202	0.368
-222.655	-17.841	-0.114	-0.072
-221.640	26.150	-0.133	0.111
-220.625	419.553	-0.027	0.058
-219.611	235.575	-0.177	-0.293
-218.596	530.497	-0.078	-0.185
-217.582	-102.932	0.254	0.061
-216.567	-96.044	-0.265	-0.071
-215.552	-181.037	-0.547	0.011
-214.538	-92.799	-0.195	-0.055
-213.523	-7.197	0.064	-0.043
-212.509	-155.557	0.144	-0.009
-211.494	21.054	-0.218	0.177
-210.479	800.000	0.094	-0.337
-209.465	-46.738	-0.154	0.076
-208.450	-200.000	-0.016	0.162
-207.436	-65.808	-0.091	0.036
-206.421	-56.620	0.122	0.054
-205.406	-200.000	0.004	-0.208
-204.392	353.491	-0.163	-0.324
-203.377	-136.233	0.109	-0.013
-202.363	-92.205	0.034	-0.010
-201.348	-128.964	0.029	-0.004
-200.333	-200.000	-0.056	-0.282
-199.319	-200.000	-0.004	-0.243
-198.304	212.612	-0.124	0.196
-197.290	-200.000	-0.017	0.074
-196.275	261.966	0.157	0.273
-195.260	-65.239	0.336	0.136
-194.246	208.363	-0.105	0.164
-193.231	11.015	0.321	0.246
-192.217	20.443	-0.130	0.105
-191.202	-200.000	0.026	0.115
-190.187	53.319	0.111	-0.106
-189.173	229.340	-0.119	0.194
-188.158	-176.208	0.241	-0.006
-187.144	-97.102	0.417	0.109
-186.129	45.164	-0.018	0.016
-185.114	221.287	-0.083	0.134
-184.100	-89.526	0.273	0.080
-183.085	-200.000	-0.076	-0.474
-182.071	-42.294	0.096	-0.049
-181.056	-59.573	-0.049	0.021
-180.042	-143.320	-0.357	-0.034
-179.027	239.684	-0.214	0.356
-178.012	800.000	-0.060	-0.188
-176.998	-82.830	0.162	0.052
-175.983	-2.559	-0.065	-0.045
-174.969	15.766	0.192	-0.151
-173.954	280.211	0.090	0.161
-172.939	-200.000	0.025	-0.257
-171.925	6.026	-0.191	0.141
-170.910	337.247	-0.033	-0.065
-169.896	800.000	-0.040	-0.168
-168.881	-69.352	0.193	-0.074
-167.866	-141.235	-0.230	-0.023
-166.852	619.502	0.134	-0.336
-165.837	29.436	-0.070	0.060
-164.823	-2.242	0.045	0.032
-163.808	351.380	0.236	0.467
-162.793	-161.606	0.319	0.016
-161.779	800.000	0.037	-0.137
-160.764	786.006	0.024	0.065
-159.750	88.174	0.203	-0.226
-158.735	-4.535	0.266	-0.184
-157.720	-144.064	0.141	0.013
-156.706	800.000	-0.057	-0.174
-155.691	-165.305	0.035	0.002
-154.677	-200.000	0.047	-0.208
-153.662	800.000	0.100	-0.322
-152.647	263.921	-0.063	0.110
-151.633	-91.604	-0.314	0.089
-150.618	131.508	-0.209	0.268
-149.604	-200.000	0.070	0.405
-148.589	-41.097	0.054	-0.028
-147.574	-200.000	-0.037	-0.208
-146.560	-148.362	0.291	-0.024
-145.545	-200.000	0.007	-0.276
-144.531	12.887	0.120	0.093
-143.516	216.656	-0.184	0.292
-142.502	-57.157	-0.162	-0.071
-141.487	71.187	0.226	0.234
-140.472	121.488	0.138	-0.171
-139.458	2.610	0.214	0.155
-138.443	800.000	-0.118	-0.379
-137.429	-17.376	0.058	-0.037
-136.414	323.578	0.079	0.151
-135.399	20.359	0.100	0.080
-134.385	56.520	0.227	-0.220
-133.370	16.679	0.054	-0.043
-132.356	-71.052	0.124	-0.047
-131.341	-149.324	0.212	-0.017
-130.326	74.512	0.113	-0.118
-129.312	-104.244	0.066	-0.015
-128.297	800.000	-0.058	-0.167
-127.283	468.995	-0.170	0.380
-126.268	800.000	0.032	-0.132
-125.253	800.000	-0.044	0.137
-124.239	209.711	-0.132	-0.206
-123.224	-130.865	0.085	-0.011
-122.210	53.996	0.118	0.114
-121.195	-126.494	0.155	0.023
-120.180	65.956	0.156	-0.158
-119.166	156.591	0.119	-0.164
-118.151	-157.115	0.193	-0.012
-117.137	-124.531	-0.180	0.028
-116.122	-91.418	0.155	-0.044
-115.107	130.534	0.106	0.135
-114.093	-135.672	0.277	-0.033
-113.078	-13.434	0.208	0.134
-112.064	108.654	0.070	0.084
-111.049	-131.479	-0.242	0.032
-110.034	137.336	-0.103	-0.134
-109.020	33.461	-0.142	-0.123
-108.005	639.434	-0.064	-0.163
-106.991	216.967	0.097	-0.154
-105.976	0.681	0.183	0.130
-104.962	-126.145	0.194	0.029
-103.947	-75.197	0.291	0.104
-102.932	353.337	0.052	0.102
-101.918	-35.469	-0.303	-0.164
-100.903	187.581	-0.141	0.209
-99.889	-109.160	0.080	0.017
-98.874	-45.325	0.122	0.060
-97.859	-3.087	-0.350	0.244
-96.845	800.000	0.078	-0.341
-95.830	14.067	-0.152	-0.118
-94.816	237.298	-0.195	0.322
-93.801	646.282	0.170	0.432
-92.786	-200.000	0.027	0.118
-91.772	-47.083	-0.105	-0.051
-90.757	-175.438	-0.151	-0.004
-89.743	252.252	0.013	-0.023
-88.728	-200.000	0.029	0.539
-87.713	-200.000	0.021	0.150
-86.699	-153.735	0.207	-0.014
-85.684	-60.273	0.144	0.061
-84.670	-28.862	-0.165	0.094
-83.655	578.729	0.110	0.267
-82.640	635.667	0.145	0.367
-81.626	127.338	0.109	0.138
-80.611	-200.000	-0.035	-0.232
-79.597	800.000	0.077	0.274
-78.582	28.733	0.184	0.155
-77.567	-56.459	0.164	-0.073
-76.553	-200.000	0.055	0.297
-75.538	800.000	0.064	0.178
-74.524	620.878	0.085	0.213
-73.509	58.478	0.336	0.328
-72.494	-119.041	-0.262	-0.046
-71.480	800.000	-0.031	-0.126
-70.465	-56.598	0.261	-0.115
-69.451	747.438	-0.049	0.132
-68.436	169.448	0.155	0.220
-67.422	121.637	0.109	0.135
-66.407	-200.000	0.075	0.499
-65.392	-33.722	-0.146	0.080
-64.378	-158.850	0.344	-0.020
-63.363	-200.000	0.096	0.433
-62.349	-176.527	-0.183	-0.005
-61.334	-15.064	-0.935	-0.596
-60.319	-49.800	0.502	0.237
-59.305	318.822	-0.336	-0.633
-58.290	110.659	0.691	0.827
-57.276	800.000	0.473	1.437
-56.261	-200.000	76.896	513.732
-55.246	498.378	1343.990	3080.314
-54.232	142.750	2594.869	3431.259
-53.217	113.006	2275.698	2744.876
-52.203	50.317	1797.072	1689.658
-51.188	43.315	1594.204	1448.840
-50.173	40.673	1564.387	1403.038
-49.159	56.359	1602.089	1549.123
-48.144	61.661	1621.791	1605.953
-47.130	43.983	1584.393	1444.457
-46.115	40.359	1569.586	1405.252
-45.100	40.130	1566.562	1400.867
-44.086	40.024	1564.598	1398.301
-43.071	39.951	1562.935	1396.244
-42.057	39.982	1560.726	1394.434
-41.042	39.964	1558.785	1392.521
-40.027	40.084	1556.955	1391.674
-39.013	39.966	1555.686	1389.655
-37.998	39.948	1554.340	1388.271
-36.984	39.957	1553.209	1387.270
-35.969	39.972	1552.294	1386.501
-34.954	40.114	1550.731	1386.050
-33.940	40.014	1548.608	1383.397
-32.925	39.988	1547.623	1382.281
-31.911	39.972	1546.200	1380.842
-30.896	40.139	1544.509	1380.439
-29.881	40.078	1543.513	1379.070
-28.867	40.067	1542.124	1377.697
-27.852	40.074	1540.321	1376.079
-26.838	40.008	1538.889	1374.291
-25.823	40.052	1537.450	1373.254
-24.809	40.048	1535.663	1371.576
-23.794	40.101	1534.270	1370.646
-22.779	40.007	1533.481	1369.233
-21.765	39.960	1532.218	1367.728
-20.750	40.013	1530.937	1366.897
-19.736	40.089	1529.428	1366.020
-18.721	40.003	1528.750	1364.767
-17.706	39.932	1527.686	1363.270
-16.692	40.025	1526.460	1362.763
-15.677	39.983	1525.160	1361.259
-14.663	39.965	1524.304	1360.318
-13.648	40.021	1522.773	1359.285
-12.633	40.045	1522.037	1358.740
-11.619	39.912	1521.460	1357.253
-10.604	40.014	1520.636	1357.166
-9.590	40.054	1519.731	1356.581
-8.575	39.975	1518.298	1354.705
-7.560	39.997	1517.359	1353.966
-6.546	39.912	1516.650	1352.699
-5.531	39.853	1516.095	1351.740
-4.517	40.010	1514.346	1351.202
-3.502	39.852	1514.171	1349.911
-2.487	39.920	1512.459	1348.800
-1.473	39.937	1511.515	1348.016
-0.458	40.010	1510.173	1347.263
0.556	38.492	1501.379	1338.106
1.571	36.065	1474.060	1297.323
2.586	32.421	1408.467	1215.995
3.600	30.212	1321.386	1127.304
4.615	27.872	1271.821	1071.214
5.629	25.228	1215.558	1008.886
6.644	19.305	1131.565	907.987
7.659	14.558	1088.826	849.502
8.673	13.567	1083.419	840.184
9.688	13.463	1080.545	837.354
10.702	13.390	1079.057	835.760
11.717	13.359	1077.370	834.223
12.731	15.538	1079.484	846.782
13.746	20.268	1085.869	875.646
14.761	21.092	1085.832	879.694
15.775	18.605	1080.908	863.131
16.790	17.075	1077.733	852.836
17.804	15.737	1075.928	844.617
18.819	14.886	1074.122	838.860
19.834	14.413	1072.023	834.777
20.848	14.056	1070.812	831.973
21.863	13.848	1070.275	830.443
22.877	13.580	1069.415	828.361
23.892	13.361	1067.973	826.077
24.907	13.227	1067.574	825.025
25.921	13.273	1067.188	824.885
26.936	13.355	1066.123	824.396
27.950	13.436	1064.631	823.573
28.965	13.381	1063.541	822.382
29.980	13.497	1062.294	821.921
30.994	13.524	1061.291	821.209
32.009	13.471	1060.799	820.490
33.023	13.581	1059.792	820.183
34.038	13.618	1058.974	819.663
35.053	13.473	1058.037	818.145
36.067	13.474	1057.112	817.364
37.082	13.408	1056.550	816.532
38.096	13.414	1055.282	815.508
39.111	13.411	1054.976	815.186
40.126	13.401	1054.042	814.344
41.140	13.472	1052.665	813.557
42.155	13.318	1051.564	811.880
43.169	13.157	1051.224	810.755
44.184	13.178	1049.939	809.792
45.199	13.265	1048.464	809.010
46.213	13.193	1047.739	808.025
47.228	13.138	1047.114	807.205
48.242	13.255	1045.579	806.521
49.257	13.316	1045.037	806.327
50.271	13.313	1043.557	805.103
51.286	13.397	1042.547	804.658
52.301	13.355	1042.212	804.124
53.315	13.474	1041.344	803.964
54.330	13.242	1040.861	802.393
55.344	13.301	1039.550	801.595
56.359	13.357	1038.325	800.854
57.374	13.276	1037.804	799.987
58.388	13.231	1037.323	799.326
59.403	13.197	1036.218	798.241
60.417	13.345	1035.361	798.224
61.432	13.335	1034.441	797.399
62.447	13.227	1033.825	796.331
63.461	13.252	1033.109	795.832
64.476	13.196	1031.882	794.544
65.490	13.007	1031.575	793.328
66.505	13.125	1030.624	793.096
67.520	13.187	1029.296	792.301
68.534	13.262	1028.664	792.105
69.549	13.267	1027.932	791.493
70.563	13.216	1027.269	790.668
71.578	13.205	1026.344	789.836
72.593	13.059	1026.154	788.920
73.607	13.162	1024.812	788.312
74.622	13.058	1024.158	787.243
75.636	13.043	1023.354	786.481
76.651	13.153	1022.321	786.145
77.666	13.160	1021.296	785.316
78.680	13.052	1020.930	784.453
79.695	13.053	1020.613	784.145
80.709	13.124	1019.637	783.661
81.724	13.210	1018.347	783.011
82.739	13.212	1017.934	782.631
83.753	13.333	1017.308	782.653
84.768	13.290	1016.331	781.632
85.782	13.396	1015.405	781.348
86.797	13.497	1014.957	781.415
87.812	13.432	1013.896	780.221
88.826	13.460	1013.305	779.829
89.841	13.473	1012.116	778.904
90.855	13.465	1011.127	778.037
91.870	13.378	1010.600	777.155
92.884	13.465	1009.922	776.974
93.899	13.510	1009.273	776.616
94.914	13.473	1008.745	775.968
95.928	13.489	1007.971	775.381
96.943	13.611	1006.995	775.128
97.957	13.436	1006.574	773.919
98.972	13.577	1005.421	773.624
99.987	13.568	1004.194	772.569
101.001	13.527	1003.918	772.095
102.016	13.371	1003.660	771.103
103.030	13.424	1002.445	770.350
104.045	13.377	1001.372	769.237
105.060	13.450	1000.068	768.504
106.074	13.570	999.005	768.179
107.089	13.349	998.574	766.752
108.103	13.312	997.498	765.686
109.118	13.312	996.725	765.027
110.133	13.295	995.913	764.257
111.147	13.258	994.601	763.014
112.162	13.244	993.764	762.238
113.176	13.335	993.242	762.191
114.191	13.274	992.629	761.371
115.206	13.241	991.702	760.441
116.220	13.299	990.584	759.784
117.235	13.281	989.886	759.097
118.249	13.416	988.808	758.824
119.264	13.417	987.664	757.881
120.279	13.250	987.476	756.906
121.293	13.194	986.488	755.825
122.308	13.234	985.796	755.412
123.322	13.371	984.641	755.086
124.337	13.267	983.289	753.508
125.352	13.143	982.799	752.502
126.366	13.186	981.524	751.655
127.381	13.135	980.276	750.401
128.395	13.302	979.421	750.437
129.410	13.303	978.233	749.464
130.424	13.357	977.712	749.243
131.439	13.333	976.637	748.245
132.454	13.305	976.215	747.731
133.468	13.389	975.225	747.285
134.483	13.330	974.879	746.685
135.497	13.318	973.846	745.776
136.512	13.366	973.258	745.473
137.527	13.487	972.432	745.322
138.541	13.430	971.475	744.267
139.556	13.365	971.251	743.735
140.570	13.460	970.123	743.234
141.585	13.385	969.358	742.243
142.600	13.529	968.584	742.230
143.614	13.537	967.902	741.680
144.629	13.555	967.175	741.135
145.643	13.575	966.298	740.487
146.658	13.463	965.728	739.488
147.673	13.395	964.729	738.351
148.687	13.415	963.388	737.350
149.702	13.433	962.540	736.718
150.716	13.411	961.906	736.065
151.731	13.346	960.923	734.959
152.746	13.301	960.616	734.462
153.760	13.376	959.575	733.933
154.775	13.395	958.675	733.264
155.789	13.491	957.755	732.919
156.804	13.549	957.045	732.570
157.819	13.547	956.465	732.053
158.833	13.478	955.472	730.922
159.848	13.497	955.155	730.699
160.862	13.590	954.320	730.407
161.877	13.613	953.565	729.865
162.892	13.523	952.977	728.955
163.906	13.412	951.785	727.487
164.921	13.457	951.277	727.232
165.935	13.494	950.187	726.500
166.950	13.547	948.678	725.515
167.964	13.458	947.990	724.535
168.979	13.496	947.206	724.035
169.994	13.521	946.198	723.308
171.008	13.499	945.584	722.681
172.023	13.570	944.661	722.223
173.037	13.593	943.962	721.725
174.052	13.766	942.985	721.667
175.067	13.608	942.594	720.616
176.081	13.687	941.398	719.981
177.096	13.513	940.862	718.753
178.110	13.575	940.017	718.312
179.125	13.516	939.279	717.425
180.140	13.529	938.569	716.876
181.154	13.541	937.709	716.209
182.169	13.665	937.047	716.177
183.183	13.726	936.533	715.983
184.198	13.688	935.785	715.187
185.213	13.770	934.978	714.857
186.227	13.649	934.477	713.889
187.242	13.713	934.222	713.906
188.256	13.810	933.189	713.473
189.271	13.825	932.204	712.719
190.286	13.850	931.874	712.510
191.300	13.739	931.152	711.424
192.315	13.697	930.103	710.376
193.329	13.570	929.362	709.204
194.344	13.576	928.775	708.721
195.359	13.637	928.347	708.589
196.373	13.669	927.787	708.238
197.388	13.717	927.681	708.298
198.402	13.835	926.738	708.019
199.417	13.995	925.835	707.950
200.432	14.097	925.190	707.826
201.446	14.085	925.308	707.802
202.461	13.989	925.083	707.160
203.475	14.033	924.530	706.861
204.490	14.165	923.245	706.377
205.504	14.150	922.124	705.392
206.519	14.056	921.588	704.522
207.534	13.916	921.487	703.789
208.548	14.021	920.251	703.230
209.563	14.015	919.818	702.808
210.577	14.039	919.033	702.249
211.592	14.039	918.479	701.763
212.607	13.978	918.104	701.158
213.621	14.249	917.602	701.855
214.636	14.197	916.719	700.900
215.650	14.237	915.955	700.422
216.665	14.310	915.256	700.132
217.680	14.252	914.697	699.398
218.694	14.249	914.383	699.082
219.709	14.327	913.586	698.740
220.723	14.237	913.126	697.949
221.738	14.299	912.218	697.454
222.753	14.264	911.481	696.680
223.767	14.384	910.493	696.365
224.782	14.332	909.861	695.604
225.796	14.335	909.208	695.057
226.811	14.316	908.935	694.707
227.826	14.382	908.239	694.387
228.840	14.368	907.093	693.391
229.855	14.246	906.823	692.615
230.869	14.332	905.759	692.098
231.884	14.435	905.237	692.069
232.899	14.336	904.526	691.051
233.913	14.335	903.898	690.507
234.928	14.374	903.152	690.036
235.942	14.289	902.474	689.104
236.957	14.223	901.790	688.252
237.972	14.254	901.553	688.135
238.986	14.402	900.771	688.092
240.001	14.314	900.011	687.084
241.015	14.231	899.518	686.306
242.030	14.511	898.685	686.762
243.045	14.396	897.925	685.648
244.059	14.527	897.520	685.816
245.074	14.552	896.517	685.092
246.088	14.554	896.047	684.682
247.103	14.497	895.507	683.975
248.117	14.494	895.331	683.765
249.132	14.699	893.908	683.459
250.147	14.830	893.775	683.833
251.161	14.788	893.328	683.260
252.176	14.768	892.821	682.727
253.190	14.837	891.866	682.220
254.205	14.874	891.215	681.812
255.220	14.819	890.906	681.290
256.234	14.814	889.967	680.491
257.249	14.979	889.463	680.717
258.263	14.940	888.757	679.960
259.278	14.926	888.442	679.602
260.293	14.991	887.748	679.273
261.307	14.893	887.370	678.528
262.322	14.866	886.991	678.069
263.336	14.996	886.318	678.020
264.351	15.053	885.297	677.411
265.366	15.035	884.907	676.978
266.380	15.135	883.830	676.499
267.395	15.100	883.337	675.920
268.409	15.064	882.838	675.332
269.424	15.044	881.906	674.482
270.439	15.153	881.290	674.390
271.453	15.123	880.318	673.466
272.468	15.143	879.316	672.719
273.482	15.049	878.828	671.909
274.497	15.098	878.561	671.841
275.512	15.109	877.896	671.319
276.526	15.060	877.037	670.404
277.541	15.243	876.045	670.320
278.555	14.981	875.680	668.934
279.570	15.127	875.084	669.000
280.585	15.231	875.089	669.361
281.599	15.198	874.698	668.873
282.614	15.172	873.780	668.007
283.628	15.256	873.080	667.748
284.643	15.191	872.776	667.195
285.657	15.307	871.692	666.772
286.672	15.223	871.393	666.147
287.687	15.198	871.140	665.797
288.701	15.395	870.221	665.820
289.716	15.292	869.513	664.811
290.730	15.299	869.008	664.393
291.745	15.291	868.575	663.972
292.760	15.241	868.132	663.377
293.774	15.419	867.214	663.318
294.789	15.428	866.691	662.897
295.803	15.413	865.856	662.138
296.818	15.409	865.519	661.807
297.833	15.554	864.384	661.452
298.847	15.551	864.088	661.153
299.862	15.513	863.468	660.473
300.876	15.508	862.430	659.599
301.891	15.603	861.984	659.575
302.906	15.513	861.215	658.573
303.920	15.592	860.526	658.297
304.935	15.669	859.830	658.011
305.949	15.745	859.436	657.947
306.964	15.602	858.822	656.857
307.979	15.700	858.052	656.593
308.993	15.595	857.827	655.956
310.008	15.716	857.152	655.853
311.022	15.680	856.697	655.306
312.037	15.673	856.117	654.776
313.052	15.622	855.625	654.145
314.066	15.561	854.921	653.310
315.081	15.599	854.265	652.898
316.095	15.497	853.858	652.135
317.110	15.561	853.474	652.034
318.125	15.657	852.862	651.879
319.139	15.654	852.057	651.194
320.154	15.691	851.746	651.042
321.168	15.625	851.253	650.353
322.183	15.719	850.843	650.345
323.197	15.643	850.292	649.573
324.212	15.883	849.525	649.855
325.227	15.760	848.790	648.760
326.241	15.946	848.171	648.947
327.256	15.777	847.907	648.039
328.270	15.774	847.183	647.417
329.285	15.755	846.401	646.689
330.300	15.759	845.987	646.331
331.314	15.902	845.247	646.256
332.329	15.719	845.316	645.551
333.343	15.780	844.311	644.959
334.358	15.711	844.163	644.523
335.373	15.958	843.303	644.756
336.387	16.023	842.433	644.280
337.402	15.935	842.441	643.895
338.416	16.086	841.408	643.624
339.431	16.030	840.973	643.022
340.446	15.964	840.467	642.326
341.460	16.140	839.921	642.523
342.475	16.137	839.430	642.077
343.489	16.083	839.003	641.491
344.504	16.301	838.227	641.668
345.519	16.263	837.878	641.202
346.533	16.391	837.336	641.214
347.548	16.258	837.321	640.642
348.562	16.207	836.344	639.643
349.577	16.228	835.648	639.135
350.592	16.093	835.403	638.378
351.606	16.188	834.824	638.238
352.621	16.051	834.171	637.165
353.635	16.143	833.629	637.042
354.650	16.183	833.460	637.009
355.665	16.421	832.695	637.266
356.679	16.394	832.586	637.026
357.694	16.312	832.097	636.284
358.708	16.328	831.441	635.787
359.723	16.287	830.841	635.116
360.738	16.397	830.057	634.875
361.752	16.398	829.958	634.745
362.767	16.451	829.544	634.573
363.781	16.334	829.331	633.915
364.796	16.444	828.629	633.736
365.810	16.494	827.978	633.369
366.825	16.540	827.850	633.386
367.840	16.682	827.302	633.441
368.854	16.628	826.906	632.881
369.869	16.597	826.270	632.224
370.883	16.689	825.697	632.072
371.898	16.603	824.989	631.152
372.913	16.514	824.568	630.444
373.927	16.650	824.082	630.522
374.942	16.635	823.495	629.961
375.956	16.649	822.645	629.306
376.971	16.828	821.732	629.218
377.986	16.732	821.797	628.857
379.000	16.808	821.114	628.559
380.015	16.946	820.672	628.679
381.029	16.880	819.922	627.802
382.044	16.832	819.599	627.322
383.059	16.858	819.025	626.924
384.073	16.902	818.540	626.661
385.088	16.886	818.286	626.349
386.102	16.778	817.546	625.332
387.117	16.949	816.444	625.062
388.132	16.654	816.763	624.164
389.146	16.825	815.816	624.015
390.161	16.823	815.787	623.931
391.175	16.938	815.524	624.095
392.190	16.773	815.404	623.342
393.205	16.931	814.697	623.329
394.219	16.907	814.214	622.815
395.234	16.785	813.799	621.995
396.248	16.792	813.210	621.513
397.263	16.915	812.510	621.373
398.278	16.726	812.344	620.501
399.292	16.907	811.662	620.589
400.307	16.821	811.180	619.850
401.321	16.905	810.955	619.930
402.336	16.999	810.529	619.892
403.350	16.999	809.980	619.419
404.365	16.918	809.616	618.790
405.380	16.865	809.317	618.313
406.394	16.976	808.867	618.320
407.409	17.096	808.317	618.281
408.423	17.110	807.791	617.875
409.438	17.305	807.170	618.055
410.453	17.376	806.812	617.984
411.467	17.402	806.362	617.677
412.482	17.353	805.716	616.950
413.496	17.314	805.470	616.565
414.511	17.299	805.083	616.162
415.526	17.262	804.808	615.761
416.540	17.256	804.387	615.364
417.555	17.301	803.940	615.129
418.569	17.310	803.465	614.746
419.584	17.394	802.827	614.506
420.599	17.473	802.103	614.184
421.613	93.542	1267.760	1383.227
422.628	79.976	1335.636	1383.337
