DTS Sentinel unit serial number:	SN413079Multiplexer serial number:	ORYXHardware model number:	OX4-SRSoftware version number:	ORYX F/W v4.00 Oryx Data Collector v3.7.2.0data status	okinstallation	princeton_trtdifferential loss correction	single-endedforward channel	channel 3reverse channel	N/Adate	2019/09/13time	18:48:35forward acquisition time	60.00reverse acquisition time	0.00gamma	496.2192k internal	0.2320k external	0.2320temperature offset calibration	1.0105default loss term (dB/km)	0.3790temperature slope calibration	1.0000multiplexer offset coefficient	1.0000multiplexer slope coefficient	1.0000fibre end	0.00T internal ref (°C)	32.47T ext. ref 1 (°C)	4.08T ext. ref 2 (°C)	25.70length (m)	temperature (°C)	Stokes	anti-Stokes-747.200	559.906	0.095	0.232
-746.185	-200.000	-0.034	0.176
-745.171	-153.796	-0.351	0.024
-744.156	-79.500	-0.226	-0.077
-743.142	-32.283	0.061	-0.035
-742.127	800.000	0.172	0.610
-741.112	38.967	0.272	-0.246
-740.098	-200.000	-0.010	0.402
-739.083	-200.000	-0.043	0.417
-738.069	8.210	-0.159	0.120
-737.054	-22.223	-0.181	0.111
-736.039	19.156	-0.249	-0.202
-735.025	75.393	-0.203	0.217
-734.010	-200.000	-0.005	0.142
-732.996	-14.374	-0.490	-0.319
-731.981	320.986	0.075	-0.144
-730.966	-92.033	-0.166	0.047
-729.952	81.509	0.196	0.214
-728.937	-200.000	-0.022	-0.154
-727.923	345.897	-0.139	0.276
-726.908	331.480	-0.124	-0.243
-725.894	199.880	-0.112	-0.173
-724.879	-80.972	0.267	-0.089
-723.864	371.023	0.112	-0.229
-722.850	-17.100	-0.151	-0.097
-721.835	-25.759	-0.379	-0.226
-720.821	-108.878	0.238	-0.051
-719.806	79.061	0.159	-0.172
-718.791	393.445	-0.017	0.035
-717.777	800.000	0.033	0.119
-716.762	-200.000	-0.059	-0.615
-715.748	-200.000	0.011	-0.250
-714.733	40.045	-0.310	-0.282
-713.718	-66.623	-0.081	0.032
-712.704	469.554	-0.081	-0.183
-711.689	-166.917	0.303	-0.013
-710.675	-128.595	0.112	-0.016
-709.660	131.083	-0.217	-0.282
-708.645	-129.851	-0.285	-0.040
-707.631	-145.415	0.308	-0.028
-706.616	419.648	0.094	-0.203
-705.602	-200.000	-0.018	0.097
-704.587	-39.818	0.055	-0.029
-703.572	35.176	-0.055	0.049
-702.558	-59.005	-0.144	-0.063
-701.543	-196.625	-0.387	-0.003
-700.529	-92.356	0.197	-0.056
-699.514	-188.911	0.080	-0.001
-698.499	2.654	0.061	0.045
-697.485	536.597	0.035	-0.085
-696.470	-42.909	-0.117	-0.060
-695.456	-200.000	-0.015	0.352
-694.441	-133.760	-0.253	-0.032
-693.426	115.767	0.158	-0.195
-692.412	-81.398	0.350	-0.116
-691.397	84.401	0.154	-0.170
-690.383	800.000	-0.046	-0.192
-689.368	-200.000	-0.041	-0.207
-688.354	-54.615	0.322	-0.147
-687.339	45.672	0.062	0.058
-686.324	-200.000	0.037	0.258
-685.310	800.000	-0.128	0.409
-684.295	120.052	-0.093	0.117
-683.281	-125.583	0.052	0.008
-682.266	13.109	-0.269	0.210
-681.251	109.785	0.230	-0.278
-680.237	-180.376	-0.065	0.001
-679.222	238.376	-0.128	-0.215
-678.208	-170.283	-0.155	0.006
-677.193	-200.000	-0.003	0.133
-676.178	68.341	0.044	0.045
-675.164	10.487	-0.160	0.123
-674.149	-121.896	0.163	0.027
-673.135	460.903	-0.066	-0.148
-672.120	582.102	0.139	0.343
-671.105	417.330	0.135	0.291
-670.091	10.306	0.140	0.108
-669.076	-64.540	0.171	0.070
-668.062	-110.902	-0.100	0.021
-667.047	-18.560	0.102	0.064
-666.032	20.374	0.096	-0.079
-665.018	-22.512	0.285	-0.174
-664.003	-200.000	0.008	-0.081
-662.989	108.644	-0.158	0.191
-661.974	800.000	0.121	0.375
-660.959	-25.532	-0.202	-0.120
-659.945	17.824	-0.013	-0.011
-658.930	-200.000	-0.031	-0.307
-657.916	504.623	-0.074	-0.173
-656.901	-4.666	-0.060	-0.042
-655.886	149.695	-0.091	0.124
-654.872	-32.102	-0.350	-0.197
-653.857	423.363	-0.190	0.412
-652.843	800.000	-0.037	-0.159
-651.828	-142.960	0.129	0.013
-650.814	800.000	-0.049	0.145
-649.799	800.000	0.041	-0.181
-648.784	-87.393	0.236	0.072
-647.770	-57.032	-0.089	0.039
-646.755	-101.235	-0.068	-0.017
-645.741	179.428	0.101	0.149
-644.726	800.000	-0.076	-0.252
-643.711	283.793	0.102	-0.184
-642.697	63.313	0.058	-0.059
-641.682	-36.920	-0.227	-0.123
-640.668	800.000	-0.067	-0.255
-639.653	-200.000	-0.008	0.280
-638.638	-18.408	-0.062	-0.039
-637.624	30.264	-0.059	0.051
-636.609	-116.661	0.314	-0.058
-635.595	-147.636	0.193	0.016
-634.580	-50.246	0.177	-0.084
-633.565	750.309	0.107	-0.291
-632.551	-155.528	0.518	-0.034
-631.536	-16.507	0.149	0.095
-630.522	-200.000	-0.034	-0.355
-629.507	-112.789	-0.406	0.081
-628.492	-103.978	0.484	0.114
-627.478	57.465	0.076	-0.074
-626.463	-200.000	0.021	-0.229
-625.449	672.912	-0.110	-0.287
-624.434	173.138	-0.175	-0.254
-623.419	-200.000	0.019	-0.212
-622.405	-200.000	0.025	-0.158
-621.390	558.933	0.063	-0.152
-620.376	9.592	0.202	-0.154
-619.361	-70.491	-0.128	0.049
-618.346	83.218	-0.298	0.326
-617.332	-82.448	0.166	0.054
-616.317	800.000	-0.106	0.335
-615.303	532.341	0.169	0.404
-614.288	737.025	-0.143	0.386
-613.273	800.000	-0.067	0.206
-612.259	39.018	0.155	0.140
-611.244	-200.000	-0.050	-0.257
-610.230	7.947	-0.136	-0.103
-609.215	-29.855	0.343	-0.197
-608.201	334.306	0.061	-0.120
-607.186	161.820	-0.203	0.286
-606.171	271.336	-0.056	-0.099
-605.157	264.460	0.253	-0.443
-604.142	-151.209	0.152	0.011
-603.128	-72.704	-0.158	-0.059
-602.113	228.576	0.311	0.510
-601.098	188.483	-0.109	0.164
-600.084	-124.442	-0.192	-0.030
-599.069	-200.000	-0.001	-0.136
-598.055	327.929	-0.174	-0.336
-597.040	800.000	0.039	-0.143
-596.025	29.556	0.181	-0.154
-595.011	-200.000	0.023	-0.106
-593.996	-200.000	0.028	-0.285
-592.982	-43.271	0.265	-0.135
-591.967	32.878	-0.168	-0.146
-590.952	-12.833	0.296	0.194
-589.938	243.141	0.097	-0.164
-588.923	-103.950	-0.106	0.025
-587.909	-61.347	0.354	-0.150
-586.894	-100.401	-0.102	-0.025
-585.879	181.845	0.176	-0.261
-584.865	-75.279	0.123	-0.044
-583.850	-158.618	0.034	0.002
-582.836	-103.799	-0.196	-0.046
-581.821	-122.362	-0.213	-0.035
-580.806	-200.000	-0.047	-0.268
-579.792	-15.748	-0.140	-0.090
-578.777	366.612	-0.051	-0.103
-577.763	-63.667	0.196	0.081
-576.748	-37.262	0.172	-0.093
-575.733	-200.000	0.003	0.040
-574.719	-200.000	-0.017	0.142
-573.704	5.445	0.177	-0.132
-572.690	370.468	-0.060	0.123
-571.675	-100.785	0.243	-0.060
-570.661	288.461	-0.056	-0.103
-569.646	-130.625	0.367	-0.050
-568.631	-118.570	0.133	0.024
-567.617	800.000	0.032	0.091
-566.602	61.537	-0.101	0.100
-565.588	-200.000	-0.004	-0.199
-564.573	-119.646	0.137	-0.024
-563.558	241.199	0.094	-0.158
-562.544	21.364	0.048	-0.039
-561.529	-2.794	-0.461	0.324
-560.515	37.388	-0.178	0.158
-559.500	-169.465	-0.240	0.009
-558.485	402.742	-0.046	0.098
-557.471	-153.256	0.207	-0.014
-556.456	-142.862	0.293	-0.029
-555.442	101.912	0.182	-0.213
-554.427	47.609	-0.237	0.222
-553.412	63.222	-0.098	0.099
-552.398	-30.381	0.069	0.039
-551.383	-114.191	-0.133	-0.026
-550.369	800.000	-0.036	-0.108
-549.354	283.453	-0.115	-0.207
-548.339	-183.629	0.191	0.003
-547.325	-200.000	-0.023	-0.229
-546.310	-54.285	-0.110	-0.050
-545.296	-200.000	0.061	0.290
-544.281	358.856	0.064	-0.128
-543.266	-27.381	0.016	-0.010
-542.252	55.404	-0.120	0.117
-541.237	800.000	-0.027	-0.106
-540.223	-16.521	0.099	0.063
-539.208	324.513	0.073	0.139
-538.193	-174.297	0.379	0.011
-537.179	800.000	0.027	-0.083
-536.164	421.671	-0.059	-0.127
-535.150	800.000	0.119	-0.392
-534.135	18.333	-0.319	-0.256
-533.121	16.575	-0.133	0.106
-532.106	158.059	0.050	-0.069
-531.091	792.476	-0.118	0.325
-530.077	-200.000	-0.057	-0.337
-529.062	800.000	0.145	-0.587
-528.048	139.364	-0.128	0.169
-527.033	262.884	0.121	0.212
-526.018	225.794	-0.056	0.092
-525.004	800.000	-0.044	-0.170
-523.989	229.386	-0.027	0.044
-522.975	-162.890	0.254	-0.012
-521.960	-200.000	0.044	0.463
-520.945	-200.000	0.023	-0.218
-519.931	154.548	-0.015	-0.021
-518.916	-108.055	0.159	0.034
-517.902	35.828	0.172	0.151
-516.887	-54.134	0.157	0.072
-515.872	-35.783	0.074	0.040
-514.858	-200.000	0.012	0.105
-513.843	96.675	0.341	0.391
-512.829	26.109	-0.328	-0.274
-511.814	800.000	-0.122	-0.410
-510.799	-52.840	-0.273	0.126
-509.785	40.643	0.237	-0.214
-508.770	-195.733	0.296	0.002
-507.756	-142.865	-0.178	-0.017
-506.741	82.538	0.104	-0.114
-505.726	789.028	0.047	-0.130
-504.712	-200.000	-0.003	0.160
-503.697	-14.123	-0.263	-0.170
-502.683	-200.000	0.002	-0.047
-501.668	219.771	-0.086	0.138
-500.653	-64.781	0.218	-0.089
-499.639	156.540	0.142	-0.197
-498.624	140.718	-0.140	0.185
-497.610	-200.000	-0.021	-0.121
-496.595	-200.000	0.066	-0.433
-495.581	3.099	-0.245	0.179
-494.566	-200.000	0.008	-0.141
-493.551	-50.057	-0.234	-0.111
-492.537	-200.000	-0.091	0.506
-491.522	-100.183	-0.162	0.040
-490.508	-200.000	-0.022	-0.157
-489.493	-91.761	0.078	0.022
-488.478	-135.215	-0.322	-0.039
-487.464	-89.646	0.389	-0.114
-486.449	626.126	0.081	-0.204
-485.435	141.304	-0.103	-0.136
-484.420	-100.066	0.384	-0.096
-483.405	800.000	-0.108	-0.304
-482.391	-100.853	-0.263	0.065
-481.376	52.833	0.163	0.156
-480.362	173.215	-0.202	-0.291
-479.347	12.551	0.064	-0.050
-478.332	-94.403	0.205	0.056
-477.318	-61.334	-0.051	-0.021
-476.303	173.149	0.220	0.317
-475.289	-200.000	-0.046	0.236
-474.274	175.623	0.079	-0.114
-473.259	800.000	-0.029	-0.083
-472.245	-200.000	-0.005	0.265
-471.230	184.223	0.103	0.152
-470.216	659.309	0.076	0.195
-469.201	214.584	0.080	0.127
-468.186	-74.129	0.219	-0.079
-467.172	-68.669	-0.159	-0.061
-466.157	-51.934	-0.208	0.097
-465.143	-106.362	-0.327	-0.073
-464.128	-134.415	0.211	0.026
-463.113	10.870	0.456	-0.348
-462.099	800.000	0.167	0.485
-461.084	-63.768	0.319	-0.131
-460.070	-115.042	-0.125	-0.024
-459.055	800.000	-0.051	0.148
-458.040	50.996	-0.242	-0.230
-457.026	800.000	0.057	0.238
-456.011	-22.201	0.081	-0.049
-454.997	163.128	0.361	-0.507
-453.982	-56.828	-0.260	0.115
-452.968	57.171	0.097	0.095
-451.953	-34.117	-0.136	-0.075
-450.938	-177.529	-0.096	-0.002
-449.924	-140.621	-0.277	0.029
-448.909	-200.000	0.092	-0.422
-447.895	-67.602	-0.325	0.128
-446.880	-69.648	0.129	0.049
-445.865	-200.000	0.033	-0.323
-444.851	-22.993	0.175	0.106
-443.836	2.420	-0.168	0.122
-442.822	15.517	0.054	0.042
-441.807	-200.000	-0.025	0.109
-440.792	-200.000	0.054	0.388
-439.778	257.154	0.121	0.209
-438.763	419.824	-0.076	0.163
-437.749	146.379	0.156	0.210
-436.734	292.931	0.095	-0.173
-435.719	-34.234	-0.245	0.134
-434.705	-153.570	-0.219	-0.015
-433.690	272.470	-0.145	-0.257
-432.676	-0.670	0.344	0.244
-431.661	8.608	-0.347	0.261
-430.646	-19.378	-0.225	-0.140
-429.632	418.974	-0.139	-0.298
-428.617	-3.132	-0.082	-0.057
-427.603	-171.071	-0.264	0.009
-426.588	182.533	-0.123	-0.181
-425.573	-200.000	0.006	0.150
-424.559	168.636	0.100	0.143
-423.544	-56.942	0.057	-0.025
-422.530	-179.870	0.096	-0.002
-421.515	64.685	-0.142	0.143
-420.500	87.103	0.177	-0.195
-419.486	-30.483	0.109	0.062
-418.471	660.146	0.039	0.099
-417.457	276.505	0.150	-0.266
-416.442	-76.463	-0.223	-0.078
-415.428	235.632	-0.038	-0.062
-414.413	-200.000	0.003	0.362
-413.398	83.166	-0.110	0.119
-412.384	286.822	-0.076	-0.137
-411.369	-133.989	0.392	-0.048
-410.355	800.000	0.054	0.211
-409.340	-200.000	-0.006	0.108
-408.325	-200.000	-0.054	0.275
-407.311	800.000	0.106	0.297
-406.296	41.086	-0.224	0.202
-405.282	317.878	-0.174	0.328
-404.267	237.434	-0.071	0.117
-403.252	-200.000	0.016	0.284
-402.238	-200.000	-0.004	-0.213
-401.223	157.790	-0.119	-0.165
-400.209	-102.641	-0.108	-0.026
-399.194	155.208	0.033	0.046
-398.179	461.477	-0.089	0.198
-397.165	-200.000	-0.023	-0.195
-396.150	605.891	0.095	0.236
-395.136	-159.632	-0.090	-0.005
-394.121	-104.386	0.159	0.037
-393.106	-120.726	-0.134	-0.023
-392.092	-103.272	0.207	-0.049
-391.077	-200.000	0.067	-0.375
-390.063	626.551	-0.095	0.239
-389.048	159.149	0.141	-0.195
-388.033	-200.000	0.024	0.157
-387.019	-53.419	-0.291	0.133
-386.004	-200.000	-0.017	-0.138
-384.990	173.623	-0.093	0.134
-383.975	-200.000	-0.037	-0.178
-382.960	138.679	0.220	-0.289
-381.946	-52.903	-0.289	0.133
-380.931	210.311	0.111	0.174
-379.917	-200.000	-0.016	0.074
-378.902	94.407	-0.047	0.053
-377.888	2.095	0.120	0.087
-376.873	800.000	0.041	0.169
-375.858	-200.000	-0.009	0.451
-374.844	800.000	-0.034	-0.144
-373.829	104.831	-0.089	-0.105
-372.815	180.534	-0.209	0.306
-371.800	35.620	-0.109	0.096
-370.785	-113.884	0.422	0.082
-369.771	76.633	-0.342	0.361
-368.756	15.232	-0.189	-0.148
-367.742	-200.000	0.011	-0.191
-366.727	120.237	0.347	0.429
-365.712	112.316	-0.037	0.045
-364.698	326.654	0.179	0.342
-363.683	400.199	0.118	-0.247
-362.669	-200.000	0.026	-0.274
-361.654	10.414	0.076	0.058
-360.639	-24.896	0.206	0.122
-359.625	-117.132	0.165	0.030
-358.610	-175.387	0.035	0.001
-357.596	-180.154	-0.309	-0.007
-356.581	-69.341	-0.280	-0.107
-355.566	800.000	-0.073	0.300
-354.552	-130.629	0.184	0.025
-353.537	-88.101	-0.162	0.048
-352.523	-200.000	0.052	0.409
-351.508	-102.171	-0.215	-0.052
-350.493	800.000	-0.066	0.267
-349.479	10.803	-0.234	-0.178
-348.464	735.501	0.098	-0.263
-347.450	176.145	-0.052	-0.075
-346.435	-200.000	0.009	0.191
-345.420	316.269	-0.020	0.038
-344.406	-200.000	-0.020	-0.256
-343.391	-0.012	0.233	0.165
-342.377	74.429	-0.134	0.141
-341.362	-2.773	-0.166	-0.116
-340.348	-200.000	0.023	-0.209
-339.333	-29.925	-0.223	0.126
-338.318	-200.000	0.041	0.198
-337.304	-121.914	-0.188	0.031
-336.289	65.941	-0.110	0.111
-335.275	-15.729	-0.249	-0.158
-334.260	-84.734	-0.035	0.011
-333.245	-64.126	-0.273	-0.111
-332.231	400.828	-0.104	-0.217
-331.216	428.445	0.055	-0.118
-330.202	-52.536	-0.115	-0.053
-329.187	-73.510	0.260	0.094
-328.172	-200.000	-0.004	-0.060
-327.158	-69.397	0.079	-0.030
-326.143	800.000	-0.014	-0.038
-325.129	664.558	0.049	0.126
-324.114	-20.333	-0.153	0.094
-323.099	-17.475	0.247	-0.154
-322.085	-144.577	0.065	0.006
-321.070	-42.142	-0.076	-0.039
-320.056	-65.863	0.169	0.067
-319.041	45.435	0.199	0.183
-318.026	800.000	-0.037	-0.160
-317.012	-114.702	0.122	-0.023
-315.997	800.000	-0.068	0.217
-314.983	16.528	0.057	0.045
-313.968	-200.000	-0.005	0.231
-312.953	137.355	-0.036	0.046
-311.939	14.290	0.141	-0.110
-310.924	-48.634	0.298	0.143
-309.910	-47.712	-0.307	0.148
-308.895	-87.451	0.145	-0.044
-307.880	-188.675	-0.104	-0.001
-306.866	-200.000	-0.004	-0.206
-305.851	-200.000	-0.021	0.104
-304.837	-72.808	-0.112	-0.041
-303.822	-60.287	-0.209	-0.089
-302.807	-102.003	-0.160	0.038
-301.793	76.252	0.092	0.097
-300.778	-200.000	0.017	0.091
-299.764	136.941	0.186	0.242
-298.749	-80.888	-0.275	-0.091
-297.735	-96.532	-0.275	0.072
-296.720	60.471	-0.073	-0.072
-295.705	800.000	-0.038	-0.109
-294.691	-115.377	0.388	0.073
-293.676	-134.625	0.250	0.030
-292.662	-166.662	-0.605	0.025
-291.647	-200.000	0.007	0.098
-290.632	410.632	0.167	0.352
-289.618	54.473	0.070	-0.067
-288.603	-53.840	-0.391	0.177
-287.589	142.475	-0.165	0.217
-286.574	179.670	-0.095	-0.138
-285.559	55.271	-0.272	0.261
-284.545	-40.533	-0.147	-0.076
-283.530	-117.063	0.177	-0.032
-282.516	387.908	-0.073	0.149
-281.501	-78.730	-0.302	0.102
-280.486	-200.000	0.002	0.262
-279.472	-138.139	0.142	-0.016
-278.457	379.246	-0.019	-0.039
-277.443	-200.000	-0.007	0.088
-276.428	-132.656	-0.285	-0.036
-275.413	-39.878	-0.130	0.067
-274.399	-32.872	-0.082	-0.045
-273.384	-109.612	0.368	-0.077
-272.370	285.027	0.083	0.148
-271.355	-200.000	-0.005	0.264
-270.340	-153.116	-0.123	-0.009
-269.326	460.761	-0.012	0.027
-268.311	214.328	0.195	0.306
-267.297	69.679	0.226	-0.231
-266.282	352.308	0.074	0.146
-265.267	167.636	-0.034	-0.048
-264.253	40.673	0.085	-0.076
-263.238	-128.352	-0.303	0.043
-262.224	-12.420	0.060	-0.039
-261.209	-30.541	-0.115	0.064
-260.195	-7.406	0.092	-0.062
-259.180	-200.000	-0.005	0.064
-258.165	-87.544	-0.137	0.041
-257.151	35.117	0.256	-0.222
-256.136	-157.812	0.174	-0.010
-255.122	123.111	0.304	-0.377
-254.107	22.474	-0.315	-0.255
-253.092	550.638	-0.065	-0.154
-252.078	-113.356	-0.124	0.024
-251.063	-200.000	0.000	0.128
-250.049	136.652	-0.083	0.108
-249.034	-2.686	0.098	0.068
-248.019	-200.000	0.034	0.159
-247.005	87.029	0.136	0.149
-245.990	225.310	-0.109	-0.176
-244.976	461.871	-0.055	0.122
-243.961	-60.794	0.114	-0.048
-242.946	-49.920	0.031	-0.015
-241.932	-97.735	0.287	-0.074
-240.917	800.000	0.134	-0.372
-239.903	212.011	0.073	-0.115
-238.888	24.944	0.291	-0.239
-237.873	800.000	-0.071	0.209
-236.859	-118.571	-0.175	0.031
-235.844	-10.489	0.212	-0.139
-234.830	411.334	-0.082	0.173
-233.815	-200.000	-0.011	-0.172
-232.800	192.114	0.170	0.255
-231.786	16.868	-0.211	0.166
-230.771	44.251	-0.346	-0.315
-229.757	30.363	0.170	-0.144
-228.742	148.391	-0.112	-0.150
-227.727	5.766	0.044	0.032
-226.713	-31.737	0.445	0.248
-225.698	-20.616	0.137	0.084
-224.684	26.198	-0.066	0.055
-223.669	-171.184	0.257	-0.009
-222.655	-88.057	0.075	0.022
-221.640	800.000	0.038	-0.144
-220.625	136.525	0.080	0.104
-219.611	-200.000	0.006	-0.053
-218.596	88.103	-0.072	-0.079
-217.582	-200.000	-0.061	-0.362
-216.567	276.064	-0.093	-0.163
-215.552	142.281	-0.179	0.235
-214.538	-200.000	0.054	-0.320
-213.523	281.922	0.102	0.181
-212.509	-162.582	-0.102	0.005
-211.494	1.721	0.220	-0.157
-210.479	352.530	0.110	0.216
-209.465	-200.000	-0.003	0.126
-208.450	-20.994	-0.312	0.189
-207.436	-123.456	0.309	-0.049
-206.421	-104.932	-0.193	-0.044
-205.406	184.898	0.243	0.356
-204.392	-200.000	0.003	0.039
-203.377	306.783	-0.141	0.260
-202.363	93.791	0.013	-0.015
-201.348	284.510	0.183	-0.326
-200.333	114.006	0.208	0.250
-199.319	-140.385	0.295	0.030
-198.304	-81.240	-0.233	-0.076
-197.290	-17.986	0.052	0.033
-196.275	-58.349	-0.090	-0.039
-195.260	-200.000	0.046	-0.321
-194.246	-169.605	-0.382	-0.014
-193.231	380.077	-0.193	0.391
-192.217	448.604	-0.121	0.264
-191.202	-40.954	-0.069	-0.035
-190.187	184.679	-0.148	-0.217
-189.173	-38.071	0.107	-0.056
-188.158	175.430	-0.257	-0.369
-187.144	249.366	-0.319	-0.535
-186.129	-31.233	-0.207	-0.116
-185.114	58.892	-0.096	0.093
-184.100	-176.014	-0.054	-0.001
-183.085	800.000	-0.057	-0.197
-182.071	-33.091	0.121	-0.067
-181.056	-130.438	0.100	0.013
-180.042	-149.759	0.265	-0.021
-179.027	42.247	-0.220	-0.198
-178.012	263.007	0.149	-0.256
-176.998	800.000	-0.092	-0.297
-175.983	-200.000	-0.008	-0.085
-174.969	-146.005	0.068	0.006
-173.954	-200.000	0.001	-0.012
-172.939	-200.000	-0.048	-0.223
-171.925	-131.748	0.361	0.047
-170.910	-66.353	-0.086	-0.034
-169.896	660.456	0.094	-0.239
-168.881	40.153	0.114	-0.102
-167.866	-160.538	-0.462	-0.024
-166.852	229.716	-0.352	0.569
-165.837	-0.121	0.263	0.185
-164.823	262.274	0.156	0.268
-163.808	275.270	0.053	0.093
-162.793	64.053	-0.202	0.201
-161.779	-200.000	-0.058	0.420
-160.764	-200.000	0.112	-0.554
-159.750	-32.840	0.093	-0.051
-158.735	-93.372	0.211	-0.058
-157.720	-15.815	-0.309	0.194
-156.706	31.659	0.239	0.203
-155.691	-200.000	-0.094	0.412
-154.677	-98.971	-0.240	0.060
-153.662	-169.690	-0.231	-0.008
-152.647	-200.000	-0.008	-0.169
-151.633	51.419	-0.215	-0.202
-150.618	73.737	-0.134	-0.138
-149.604	6.826	-0.209	0.154
-148.589	645.412	0.037	-0.094
-147.574	-200.000	-0.045	-0.247
-146.560	-27.904	0.343	0.196
-145.545	250.367	0.074	-0.123
-144.531	-150.634	-0.210	-0.016
-143.516	-143.726	0.316	-0.030
-142.502	18.884	0.121	-0.095
-141.487	234.301	-0.046	-0.075
-140.472	34.660	0.225	0.194
-139.458	115.653	0.213	0.257
-138.443	-200.000	-0.042	-0.184
-137.429	800.000	-0.051	-0.144
-136.414	-200.000	0.033	-0.300
-135.399	461.426	-0.072	0.158
-134.385	-151.170	0.119	0.009
-133.370	-200.000	-0.000	-0.026
-132.356	-43.192	0.128	0.064
-131.341	280.538	-0.073	-0.129
-130.326	488.568	0.048	-0.108
-129.312	-142.640	-0.400	0.039
-128.297	587.001	-0.062	-0.151
-127.283	-200.000	0.041	-0.270
-126.268	-109.029	0.217	-0.046
-125.253	800.000	0.034	-0.134
-124.239	-115.908	-0.506	0.093
-123.224	-200.000	0.004	0.344
-122.210	9.317	-0.209	0.156
-121.195	-59.813	0.182	0.077
-120.180	-52.752	0.036	0.016
-119.166	800.000	0.120	0.408
-118.151	-64.891	-0.151	-0.060
-117.137	800.000	-0.034	-0.137
-116.122	-37.484	-0.376	0.198
-115.107	-130.492	0.300	-0.040
-114.093	-152.659	-0.062	0.004
-113.078	-115.097	-0.152	0.028
-112.064	-39.576	0.331	0.171
-111.049	-156.803	-0.290	-0.018
-110.034	-55.051	-0.154	0.068
-109.020	-48.548	-0.278	0.132
-108.005	-37.060	0.079	-0.042
-106.991	-200.000	0.029	0.363
-105.976	-200.000	0.009	0.210
-104.962	28.278	0.121	-0.101
-103.947	800.000	-0.015	0.050
-102.932	-200.000	-0.028	-0.219
-101.918	-73.299	0.247	0.089
-100.903	-200.000	0.021	0.117
-99.889	-178.990	0.373	-0.008
-98.874	-62.819	0.249	-0.102
-97.859	-72.706	0.148	0.054
-96.845	-200.000	-0.048	-0.283
-95.830	-168.353	-0.136	-0.005
-94.816	40.334	0.215	0.191
-93.801	-200.000	-0.022	0.346
-92.786	-200.000	-0.005	0.209
-91.772	800.000	0.138	-0.510
-90.757	409.228	-0.042	-0.088
-89.743	-111.876	-0.439	-0.087
-88.728	-105.381	0.088	0.020
-87.713	-70.664	0.142	-0.053
-86.699	-144.181	0.129	0.012
-85.684	547.736	0.101	-0.238
-84.670	-200.000	-0.038	-0.490
-83.655	-81.046	0.291	-0.095
-82.640	-138.177	0.184	0.020
-81.626	-200.000	0.112	0.000
-80.611	23.534	-0.032	-0.026
-79.597	800.000	0.025	-0.074
-78.582	-95.137	0.323	0.086
-77.567	-200.000	0.021	-0.236
-76.553	-124.626	-0.334	0.051
-75.538	-200.000	-0.006	-0.036
-74.524	800.000	0.040	0.139
-73.509	-200.000	-0.012	-0.234
-72.494	-115.246	0.054	0.010
-71.480	-200.000	-0.001	-0.278
-70.465	14.090	-0.285	0.219
-69.451	-200.000	-0.010	0.100
-68.436	-133.135	0.290	0.036
-67.422	-200.000	0.012	-0.128
-66.407	71.691	0.131	0.134
-65.392	-200.000	-0.003	-0.019
-64.378	-77.095	-0.101	-0.035
-63.363	-66.070	-0.250	0.098
-62.349	-200.000	-0.019	-0.186
-61.334	63.104	-1.003	-0.990
-60.319	75.486	0.586	0.609
-59.305	408.204	-0.440	-0.917
-58.290	423.870	0.453	0.959
-57.276	800.000	0.591	1.781
-56.261	-200.000	96.497	600.046
-55.246	657.004	1369.351	3464.821
-54.232	200.285	2541.086	3842.919
-53.217	120.445	2154.788	2634.473
-52.203	43.200	1704.520	1531.725
-51.188	35.680	1518.029	1312.963
-50.173	33.274	1491.576	1273.857
-49.159	52.766	1540.366	1449.255
-48.144	54.397	1557.985	1476.925
-47.130	35.786	1517.995	1313.447
-46.115	32.736	1503.163	1279.904
-45.100	32.581	1499.898	1276.022
-44.086	32.537	1498.194	1274.222
-43.071	32.544	1495.674	1272.079
-42.057	32.468	1494.347	1270.382
-41.042	32.537	1492.589	1269.303
-40.027	32.454	1491.928	1268.132
-39.013	32.406	1490.196	1266.287
-37.998	32.481	1488.855	1265.603
-36.984	32.412	1487.842	1264.224
-35.969	32.489	1486.600	1263.637
-34.954	32.527	1484.721	1262.249
-33.940	32.485	1483.479	1260.857
-32.925	32.472	1481.821	1259.313
-31.911	32.474	1480.939	1258.526
-30.896	32.423	1479.755	1257.132
-29.881	32.490	1478.293	1256.284
-28.867	32.526	1476.762	1255.177
-27.852	32.560	1475.113	1253.949
-26.838	32.625	1473.574	1253.020
-25.823	32.501	1472.350	1251.108
-24.809	32.504	1470.631	1249.619
-23.794	32.510	1469.383	1248.549
-22.779	32.584	1467.470	1247.361
-21.765	32.602	1466.711	1246.784
-20.750	32.518	1465.674	1245.303
-19.736	32.495	1464.502	1244.103
-18.721	32.510	1463.362	1243.182
-17.706	32.499	1462.453	1242.290
-16.692	32.438	1461.277	1240.840
-15.677	32.484	1460.348	1240.304
-14.663	32.398	1459.330	1238.823
-13.648	32.391	1458.095	1237.685
-12.633	32.469	1457.604	1237.726
-11.619	32.388	1456.853	1236.512
-10.604	32.407	1455.896	1235.772
-9.590	32.422	1455.030	1235.087
-8.575	32.426	1454.559	1234.665
-7.560	32.353	1453.668	1233.383
-6.546	32.421	1452.357	1232.667
-5.531	32.483	1451.333	1232.150
-4.517	32.347	1450.798	1230.760
-3.502	32.432	1449.517	1230.178
-2.487	32.517	1448.229	1229.594
-1.473	32.469	1447.412	1228.540
-0.458	32.484	1445.997	1227.386
0.556	33.444	1435.506	1213.828
1.571	29.601	1408.416	1166.597
2.586	24.979	1345.433	1086.372
3.600	22.919	1262.276	1007.405
4.615	21.236	1216.805	961.770
5.629	18.200	1160.695	901.363
6.644	10.816	1078.540	801.208
7.659	4.980	1039.794	744.550
8.673	4.156	1034.346	736.667
9.688	4.123	1031.428	734.368
10.702	3.988	1030.400	732.933
11.717	4.044	1028.142	731.526
12.731	6.033	1029.489	741.822
13.746	13.146	1039.258	782.602
14.761	19.628	1047.708	819.758
15.775	21.052	1048.790	827.291
16.790	20.456	1046.902	822.905
17.804	19.362	1044.564	815.818
18.819	18.502	1042.980	810.445
19.834	18.036	1041.660	807.148
20.848	17.904	1040.807	805.796
21.863	17.769	1040.399	804.768
22.877	17.560	1039.687	803.162
23.892	17.458	1038.468	801.670
24.907	17.352	1037.894	800.657
25.921	17.395	1036.891	800.011
26.936	17.344	1036.330	799.268
27.950	17.303	1035.486	798.353
28.965	17.378	1034.285	797.713
29.980	17.494	1032.860	797.082
30.994	17.651	1032.030	797.107
32.009	17.718	1031.147	796.670
33.023	17.617	1030.810	795.867
34.038	17.552	1030.074	794.924
35.053	17.664	1028.734	794.343
36.067	17.477	1028.497	793.218
37.082	17.437	1027.344	792.073
38.096	17.470	1026.722	791.677
39.111	17.526	1025.926	791.250
40.126	17.614	1024.964	790.848
41.140	17.531	1023.796	789.492
42.155	17.258	1022.643	787.269
43.169	17.254	1021.390	786.214
44.184	17.130	1020.500	784.888
45.199	17.144	1019.280	783.946
46.213	17.015	1018.618	782.771
47.228	17.127	1018.081	782.807
48.242	17.443	1016.598	783.052
49.257	17.503	1016.449	783.144
50.271	17.457	1015.465	782.103
51.286	17.425	1014.673	781.279
52.301	17.454	1013.924	780.765
53.315	17.640	1012.738	780.634
54.330	17.434	1011.942	779.008
55.344	17.353	1011.197	777.997
56.359	17.289	1010.081	776.777
57.374	17.284	1008.980	775.838
58.388	17.160	1008.757	775.031
59.403	17.077	1008.252	774.199
60.417	17.093	1007.152	773.358
61.432	17.010	1007.098	772.868
62.447	17.109	1005.739	772.210
63.461	16.987	1004.839	770.895
64.476	17.052	1003.446	770.051
65.490	16.870	1003.059	768.862
66.505	16.829	1002.386	768.092
67.520	16.939	1001.778	768.055
68.534	16.913	1000.816	767.131
69.549	17.064	999.825	766.986
70.563	17.028	999.280	766.341
71.578	16.966	998.376	765.301
72.593	16.814	997.455	763.840
73.607	16.762	996.484	762.797
74.622	16.869	995.465	762.427
75.636	16.701	994.903	761.176
76.651	16.817	993.848	760.821
77.666	16.742	993.469	760.130
78.680	16.848	992.507	759.800
79.695	16.891	992.231	759.713
80.709	16.936	991.824	759.537
81.724	17.060	990.820	759.253
82.739	17.136	990.227	759.074
83.753	17.165	989.530	758.602
84.768	17.391	988.893	759.055
85.782	17.496	988.509	759.161
86.797	17.798	987.755	759.858
87.812	17.616	987.212	758.566
88.826	17.572	986.065	757.420
89.841	17.433	985.294	756.143
90.855	17.526	984.730	756.058
91.870	17.532	983.897	755.379
92.884	17.697	982.939	755.305
93.899	17.646	982.291	754.517
94.914	17.601	981.607	753.726
95.928	17.673	981.086	753.574
96.943	17.765	980.136	753.186
97.957	17.689	979.271	752.118
98.972	17.557	978.412	750.810
99.987	17.528	978.231	750.479
101.001	17.677	977.209	750.284
102.016	17.652	976.704	749.720
103.030	17.504	975.287	747.917
104.045	17.497	974.319	747.075
105.060	17.701	973.373	747.178
106.074	17.499	972.801	745.790
107.089	17.409	971.250	744.139
108.103	17.157	970.690	742.545
109.118	16.974	969.775	740.979
110.133	17.051	968.931	740.605
111.147	17.002	967.943	739.568
112.162	17.015	966.766	738.660
113.176	17.081	965.988	738.289
114.191	17.172	965.604	738.324
115.206	17.216	964.910	737.919
116.220	17.275	963.609	737.117
117.235	17.089	963.359	736.054
118.249	17.105	962.207	735.179
119.264	17.217	961.623	735.151
120.279	17.001	960.714	733.456
121.293	16.973	959.877	732.634
122.308	16.998	959.056	732.048
123.322	17.005	957.830	731.079
124.337	16.825	957.171	729.733
125.352	16.855	956.101	728.985
126.366	16.692	955.096	727.454
127.381	16.722	954.299	726.909
128.395	16.797	953.030	726.201
129.410	16.940	952.071	726.018
130.424	16.752	951.670	724.844
131.439	17.010	950.063	724.660
132.454	17.109	949.483	724.576
133.468	17.120	949.094	724.262
134.483	17.189	948.460	724.004
135.497	17.179	947.881	723.456
136.512	17.205	947.168	722.960
137.527	17.169	946.464	722.204
138.541	17.037	945.660	720.967
139.556	17.150	944.614	720.586
140.570	17.172	944.110	720.232
141.585	17.270	943.598	720.191
142.600	17.400	943.318	720.465
143.614	17.585	942.310	720.412
144.629	17.610	941.207	719.612
145.643	17.756	940.533	719.649
146.658	17.592	940.265	718.690
147.673	17.288	939.044	716.412
148.687	17.363	937.885	715.780
149.702	17.274	937.145	714.776
150.716	17.239	935.851	713.582
151.731	17.263	935.061	713.013
152.746	17.194	934.975	712.597
153.760	17.278	933.828	712.014
154.775	17.256	933.243	711.410
155.789	17.271	932.430	710.792
156.804	17.517	931.431	710.992
157.819	17.486	930.950	710.432
158.833	17.500	930.208	709.863
159.848	17.664	929.505	709.947
160.862	17.621	929.170	709.448
161.877	17.673	928.086	708.777
162.892	17.399	927.428	707.071
163.906	17.213	925.854	705.035
164.921	17.225	925.150	704.486
165.935	17.106	924.241	703.240
166.950	17.212	923.306	702.904
167.964	17.371	922.719	703.056
168.979	17.326	921.398	701.800
169.994	17.346	920.396	701.058
171.008	17.265	919.780	700.192
172.023	17.404	919.036	700.134
173.037	17.569	918.551	700.382
174.052	17.700	917.930	700.386
175.067	17.521	917.273	699.089
176.081	17.518	916.272	698.250
177.096	17.248	915.102	696.192
178.110	17.334	914.312	695.880
179.125	17.355	913.677	695.420
180.140	17.307	912.788	694.486
181.154	17.416	912.068	694.325
182.169	17.451	912.119	694.443
183.183	17.677	911.396	694.753
184.198	17.670	910.489	693.970
185.213	17.683	909.964	693.561
186.227	17.625	909.423	692.852
187.242	17.644	909.120	692.637
188.256	17.718	908.267	692.229
189.271	17.829	907.279	691.863
190.286	17.901	906.977	691.864
191.300	17.747	905.966	690.406
192.315	17.395	904.874	688.091
193.329	17.199	904.237	686.753
194.344	17.243	903.456	686.279
195.359	17.270	903.023	685.998
196.373	17.499	902.402	686.386
197.388	17.597	902.112	686.500
198.402	17.738	901.627	686.638
199.417	17.876	901.885	687.329
200.432	17.984	901.427	687.354
201.446	18.073	900.825	687.192
202.461	18.166	900.418	687.194
203.475	18.292	899.924	687.264
204.490	18.224	899.146	686.334
205.504	17.969	898.268	684.582
206.519	17.880	897.359	683.473
207.534	17.810	896.863	682.756
208.548	17.806	895.816	681.880
209.563	17.825	895.133	681.379
210.577	17.811	895.232	681.336
211.592	17.989	893.835	680.923
212.607	17.997	893.505	680.642
213.621	18.167	893.684	681.398
214.636	18.211	892.366	680.505
215.650	18.052	891.787	679.373
216.665	18.096	891.281	679.103
217.680	18.152	890.480	678.655
218.694	18.249	890.227	678.786
219.709	18.318	889.829	678.694
220.723	18.297	888.796	677.764
221.738	18.226	888.472	677.175
222.753	18.019	887.880	675.845
223.767	17.994	887.046	675.054
224.782	18.248	886.216	675.364
225.796	18.409	885.460	675.362
226.811	18.385	884.796	674.701
227.826	18.291	884.559	674.093
228.840	18.315	883.304	673.172
229.855	18.049	882.961	671.804
230.869	18.304	882.135	672.116
231.884	18.201	881.661	671.293
232.899	18.277	880.692	670.793
233.913	18.095	880.130	669.592
234.928	17.955	879.616	668.595
235.942	17.915	878.821	667.775
236.957	17.936	877.840	667.051
237.972	17.992	877.232	666.748
238.986	17.781	877.217	665.854
240.001	17.993	876.364	665.975
241.015	18.180	874.968	665.584
242.030	18.262	874.424	665.429
243.045	18.168	874.085	664.746
244.059	18.386	873.434	665.042
245.074	18.361	872.977	664.537
246.088	18.291	872.363	663.738
247.103	18.341	872.125	663.692
248.117	18.425	871.467	663.459
249.132	18.478	871.222	663.420
250.147	18.659	870.761	663.709
251.161	18.878	870.557	664.340
252.176	18.941	869.567	663.769
253.190	19.078	869.028	663.830
254.205	18.974	868.386	662.881
255.220	18.973	868.156	662.639
256.234	18.996	867.050	661.827
257.249	19.028	866.274	661.299
258.263	19.119	865.959	661.348
259.278	19.004	865.538	660.527
260.293	19.128	864.885	660.445
261.307	18.962	864.566	659.509
262.322	19.140	863.730	659.493
263.336	19.263	863.426	659.675
264.351	19.149	862.903	658.778
265.366	19.337	861.726	658.540
266.380	19.256	861.335	657.877
267.395	19.171	860.728	657.028
268.409	19.188	859.947	656.438
269.424	19.074	859.130	655.322
270.439	19.072	858.734	654.954
271.453	19.053	857.692	654.033
272.468	19.040	857.056	653.438
273.482	18.824	856.640	652.243
274.497	18.869	856.342	652.131
275.512	18.917	855.370	651.515
276.526	18.973	854.477	650.988
277.541	18.921	854.219	650.537
278.555	18.947	853.515	650.043
279.570	19.090	853.345	650.394
280.585	19.455	852.406	650.997
281.599	19.361	851.774	650.105
282.614	19.139	851.669	649.130
283.628	18.992	851.180	648.145
284.643	19.054	850.276	647.633
285.657	19.033	849.673	647.038
286.672	19.150	848.942	646.865
287.687	19.106	848.734	646.483
288.701	19.079	848.369	646.047
289.716	19.032	847.885	645.446
290.730	19.218	847.473	645.771
291.745	19.217	846.854	645.238
292.760	19.298	845.668	644.580
293.774	19.378	845.140	644.419
294.789	19.396	844.871	644.225
295.803	19.416	844.357	643.852
296.818	19.243	843.962	642.848
297.833	19.205	843.019	641.931
298.847	19.147	842.297	641.108
299.862	19.225	841.787	640.952
300.876	19.412	840.719	640.780
301.891	19.462	840.007	640.364
302.906	19.516	839.768	640.326
303.920	19.543	839.273	639.992
304.935	19.683	838.880	640.155
305.949	19.715	838.358	639.817
306.964	19.717	837.335	638.986
307.979	19.533	836.855	637.884
308.993	19.495	836.554	637.458
310.008	19.683	835.946	637.631
311.022	19.707	835.551	637.362
312.037	19.668	834.881	636.652
313.052	19.678	834.140	636.067
314.066	19.453	833.662	634.819
315.081	19.322	832.831	633.649
316.095	19.404	832.389	633.557
317.110	19.547	831.452	633.312
318.125	19.371	831.365	632.546
319.139	19.238	831.510	632.113
320.154	19.241	830.755	631.492
321.168	19.365	830.069	631.370
322.183	19.568	829.339	631.503
323.197	19.356	829.218	630.578
324.212	19.434	828.571	630.316
325.227	19.412	828.093	629.814
326.241	19.537	827.259	629.581
327.256	19.466	826.715	628.852
328.270	19.454	826.059	628.254
329.285	19.386	825.957	627.873
330.300	19.456	825.133	627.445
331.314	19.457	824.708	627.070
332.329	19.552	823.937	626.775
333.343	19.658	823.588	626.837
334.358	19.809	823.023	626.901
335.373	19.715	822.254	625.917
336.387	19.776	821.893	625.809
337.402	19.793	821.316	625.374
338.416	19.863	820.874	625.236
339.431	19.825	821.022	625.155
340.446	20.072	820.054	625.255
341.460	20.056	819.415	624.655
342.475	20.141	819.031	624.612
343.489	20.200	818.559	624.412
344.504	20.195	817.767	623.732
345.519	20.482	817.142	624.232
346.533	20.324	816.995	623.497
347.548	20.312	816.356	622.913
348.562	20.397	815.795	622.735
349.577	20.068	815.022	620.910
350.592	19.905	814.480	619.859
351.606	19.890	813.879	619.293
352.621	19.831	813.721	618.905
353.635	19.820	813.248	618.452
354.650	19.896	812.714	618.262
355.665	20.024	812.459	618.473
356.679	20.046	812.021	618.164
357.694	19.941	811.400	617.258
358.708	20.112	810.806	617.363
359.723	20.127	810.355	617.019
360.738	20.188	809.639	616.635
361.752	20.013	809.518	615.868
362.767	20.098	809.095	615.792
363.781	20.326	808.674	616.226
364.796	20.337	808.335	615.954
365.810	20.522	807.668	616.044
366.825	20.602	807.623	616.242
367.840	20.591	807.368	615.951
368.854	20.650	806.597	615.517
369.869	20.418	806.311	614.426
370.883	20.466	805.498	613.921
371.898	20.378	805.001	613.178
372.913	20.508	804.511	613.207
373.927	20.617	803.727	612.942
374.942	20.541	803.567	612.495
375.956	20.510	802.638	611.626
376.971	20.596	802.057	611.432
377.986	20.593	802.152	611.438
379.000	20.671	801.472	611.140
380.015	20.762	800.761	610.863
381.029	20.932	799.801	610.671
382.044	20.675	799.402	609.412
383.059	20.916	799.077	609.956
384.073	20.848	798.821	609.469
385.088	20.696	798.308	608.490
386.102	20.525	797.649	607.338
387.117	20.540	796.454	606.425
388.132	20.435	796.429	605.989
389.146	20.473	795.852	605.628
390.161	20.586	795.547	605.734
391.175	20.584	795.181	605.396
392.190	20.777	795.015	605.886
393.205	20.739	794.188	605.071
394.219	20.681	793.604	604.371
395.234	20.658	793.310	604.014
396.248	20.480	792.823	602.975
397.263	20.483	792.224	602.475
398.278	20.273	792.033	601.548
399.292	20.322	791.330	601.129
400.307	20.367	790.879	600.891
401.321	20.354	790.453	600.467
402.336	20.341	790.114	600.112
403.350	20.519	789.958	600.555
404.365	20.526	789.387	600.092
405.380	20.582	789.303	600.170
406.394	20.937	788.644	600.839
407.409	20.910	788.315	600.442
408.423	21.059	787.621	600.374
409.438	21.169	787.270	600.431
410.453	21.016	786.975	599.628
411.467	21.313	786.362	600.127
412.482	21.267	786.072	599.695
413.496	21.292	785.683	599.433
414.511	21.262	785.508	599.143
415.526	21.330	785.000	598.934
416.540	21.266	784.230	598.073
417.555	21.298	783.584	597.637
418.569	21.224	783.344	597.149
419.584	21.307	782.891	597.036
420.599	21.198	782.816	596.551
421.613	160.915	1369.588	1795.575
422.628	139.131	1455.077	1795.674
