DTS Sentinel unit serial number:	SN413079Multiplexer serial number:	ORYXHardware model number:	OX4-SRSoftware version number:	ORYX F/W v4.00 Oryx Data Collector v3.7.2.0data status	okinstallation	princeton_trtdifferential loss correction	single-endedforward channel	channel 3reverse channel	N/Adate	2019/09/14time	19:00:35forward acquisition time	60.00reverse acquisition time	0.00gamma	496.2192k internal	0.2307k external	0.2307temperature offset calibration	1.0016default loss term (dB/km)	0.3790temperature slope calibration	1.0000multiplexer offset coefficient	1.0000multiplexer slope coefficient	1.0000fibre end	0.00T internal ref (°C)	35.62T ext. ref 1 (°C)	4.86T ext. ref 2 (°C)	29.48length (m)	temperature (°C)	Stokes	anti-Stokes-747.200	-1.042	0.189	0.136
-746.185	800.000	-0.048	0.198
-745.171	151.515	0.155	0.214
-744.156	-134.997	-0.190	-0.023
-743.142	-75.302	0.260	-0.094
-742.127	-42.080	0.216	-0.113
-741.112	38.938	0.213	-0.193
-740.098	-75.278	-0.388	0.141
-739.083	-200.000	-0.015	0.149
-738.069	427.724	-0.130	0.285
-737.054	-200.000	-0.026	0.206
-736.039	-131.017	-0.529	0.072
-735.025	-119.563	0.228	-0.040
-734.010	-44.318	-0.228	-0.116
-732.996	-24.316	-0.256	0.155
-731.981	-200.000	-0.012	0.247
-730.966	534.064	-0.075	0.180
-729.952	67.690	-0.065	-0.067
-728.937	-200.000	-0.005	-0.073
-727.923	320.467	-0.019	-0.037
-726.908	394.994	0.094	-0.199
-725.894	-200.000	-0.015	-0.087
-724.879	457.538	-0.059	-0.133
-723.864	69.870	0.216	-0.226
-722.850	136.530	-0.232	0.307
-721.835	-38.262	-0.363	0.195
-720.821	681.301	0.077	-0.204
-719.806	-200.000	-0.030	-0.147
-718.791	800.000	-0.065	-0.216
-717.777	-92.613	0.116	-0.033
-716.762	7.561	0.304	-0.231
-715.748	4.829	0.074	0.055
-714.733	-36.363	-0.022	0.012
-713.718	-200.000	0.026	0.128
-712.704	800.000	0.086	0.343
-711.689	81.631	0.154	-0.169
-710.675	-200.000	0.002	-0.210
-709.660	-200.000	-0.014	0.170
-708.645	-93.938	0.170	0.048
-707.631	800.000	-0.067	0.194
-706.616	73.102	0.088	-0.094
-705.602	-200.000	0.006	-0.357
-704.587	12.814	0.406	0.319
-703.572	131.270	-0.055	-0.072
-702.558	-200.000	-0.035	0.494
-701.543	800.000	-0.045	0.133
-700.529	-76.978	-0.227	0.081
-699.514	342.898	0.127	0.252
-698.499	589.763	-0.031	0.077
-697.485	354.199	0.065	0.132
-696.470	-200.000	0.044	-0.324
-695.456	181.271	-0.163	0.243
-694.441	626.969	0.087	0.222
-693.426	-200.000	-0.016	-0.441
-692.412	23.330	0.039	-0.032
-691.397	72.600	-0.223	0.236
-690.383	-200.000	-0.037	0.196
-689.368	300.918	-0.103	0.193
-688.354	227.184	0.206	-0.340
-687.339	-200.000	0.014	-0.167
-686.324	800.000	0.027	0.078
-685.310	-21.656	0.166	-0.103
-684.295	-33.228	0.283	-0.159
-683.281	599.891	-0.148	0.372
-682.266	173.143	0.166	0.242
-681.251	-125.225	0.142	-0.022
-680.237	267.908	-0.178	0.316
-679.222	-105.553	-0.120	-0.028
-678.208	-150.407	-0.128	-0.010
-677.193	-200.000	0.032	0.409
-676.178	-169.333	-0.123	0.005
-675.164	-200.000	0.031	0.183
-674.149	72.989	-0.039	-0.042
-673.135	43.042	-0.275	-0.254
-672.120	53.693	-0.190	-0.185
-671.105	-200.000	0.020	-0.092
-670.091	800.000	-0.012	0.047
-669.076	601.818	-0.054	-0.136
-668.062	-200.000	0.012	0.278
-667.047	68.633	0.072	0.074
-666.032	528.614	0.075	-0.180
-665.018	-2.980	-0.135	-0.096
-664.003	115.728	0.049	-0.060
-662.989	-91.964	-0.385	-0.111
-661.974	212.106	0.197	-0.315
-660.959	30.962	-0.284	-0.247
-659.945	-21.369	-0.510	-0.316
-658.930	-131.626	0.324	-0.043
-657.916	-150.010	-0.144	0.011
-656.901	158.218	0.146	0.205
-655.886	800.000	0.016	0.069
-654.872	720.972	0.078	-0.209
-653.857	9.831	-0.214	-0.164
-652.843	247.310	-0.265	0.454
-651.828	-40.565	-0.090	0.048
-650.814	-100.993	0.322	0.080
-649.799	-200.000	0.004	0.317
-648.784	-76.558	0.057	-0.020
-647.770	441.918	-0.045	0.100
-646.755	-98.792	0.127	0.033
-645.741	-164.897	-0.148	-0.007
-644.726	-200.000	-0.013	-0.238
-643.711	-46.173	0.395	0.197
-642.697	6.934	0.169	-0.128
-641.682	238.247	0.124	0.209
-640.668	-122.889	0.236	0.038
-639.653	-200.000	0.048	-0.255
-638.638	-27.648	-0.235	-0.138
-637.624	800.000	-0.036	0.157
-636.609	-46.141	0.064	0.032
-635.595	-52.188	0.387	0.182
-634.580	7.102	-0.296	-0.224
-633.565	-73.092	-0.128	0.047
-632.551	-200.000	-0.027	0.171
-631.536	39.192	-0.095	0.086
-630.522	800.000	0.070	-0.216
-629.507	2.811	-0.175	-0.128
-628.492	19.065	0.171	-0.138
-627.478	100.139	-0.041	-0.048
-626.463	-111.109	0.367	0.076
-625.449	-200.000	-0.005	-0.231
-624.434	405.399	-0.056	0.120
-623.419	-200.000	0.022	0.239
-622.405	-36.571	0.153	0.084
-621.390	29.165	-0.077	-0.066
-620.376	95.580	-0.191	-0.221
-619.361	-119.748	0.246	0.043
-618.346	624.781	0.063	-0.161
-617.332	-74.706	-0.318	0.116
-616.317	37.564	-0.241	0.216
-615.303	399.325	-0.089	-0.188
-614.288	-200.000	0.001	-0.371
-613.273	16.199	-0.109	-0.087
-612.259	672.132	0.083	0.217
-611.244	136.935	-0.266	-0.352
-610.230	-200.000	-0.042	0.462
-609.215	-200.000	0.018	-0.092
-608.201	-149.647	0.027	0.002
-607.186	-154.486	0.156	-0.011
-606.171	0.448	-0.041	-0.029
-605.157	190.565	0.245	0.372
-604.142	800.000	0.058	-0.163
-603.128	-40.313	-0.202	0.106
-602.113	-144.786	-0.287	-0.027
-601.098	-43.275	-0.136	0.070
-600.084	-158.195	0.190	-0.011
-599.069	158.388	0.079	-0.111
-598.055	50.942	0.172	0.165
-597.040	800.000	-0.061	-0.169
-596.025	-86.418	0.156	0.049
-595.011	137.412	0.137	-0.182
-593.996	-88.619	-0.427	-0.128
-592.982	-92.559	-0.203	0.058
-591.967	-143.110	-0.204	0.020
-590.952	-64.909	-0.234	-0.096
-589.938	-12.198	-0.046	-0.030
-588.923	-200.000	-0.060	0.279
-587.909	-45.555	0.381	-0.191
-586.894	-37.096	-0.101	-0.055
-585.879	165.374	0.160	-0.228
-584.865	-200.000	-0.052	0.341
-583.850	-175.191	0.258	-0.007
-582.836	14.561	-0.130	0.102
-581.821	-200.000	-0.060	-0.268
-580.806	100.765	0.111	-0.130
-579.792	114.748	0.243	-0.299
-578.777	-200.000	-0.070	-0.341
-577.763	-200.000	-0.014	-0.243
-576.748	-81.598	-0.195	-0.065
-575.733	-92.690	-0.278	-0.079
-574.719	8.217	0.252	-0.191
-573.704	377.433	-0.051	0.104
-572.690	390.139	-0.074	0.155
-571.675	44.508	0.059	0.055
-570.661	2.383	-0.197	0.144
-569.646	20.400	-0.233	-0.190
-568.631	-200.000	0.003	-0.299
-567.617	-97.420	-0.405	0.106
-566.602	-33.805	0.228	-0.127
-565.588	280.267	-0.027	-0.049
-564.573	27.200	-0.252	-0.214
-563.558	-111.266	0.350	-0.072
-562.544	157.007	0.137	0.190
-561.529	-153.828	0.310	-0.021
-560.515	-162.919	-0.502	-0.025
-559.500	114.492	-0.154	-0.190
-558.485	130.774	-0.119	-0.154
-557.471	-115.134	-0.064	0.012
-556.456	57.308	0.105	-0.103
-555.442	-102.214	0.235	-0.057
-554.427	262.400	-0.046	0.081
-553.412	241.324	-0.037	0.063
-552.398	800.000	-0.069	-0.276
-551.383	115.562	0.168	-0.207
-550.369	648.238	0.059	0.151
-549.354	197.845	0.233	-0.359
-548.339	-191.481	0.294	-0.003
-547.325	244.504	-0.193	-0.326
-546.310	-127.634	-0.165	-0.024
-545.296	-104.272	-0.192	-0.045
-544.281	-200.000	0.014	0.274
-543.266	-200.000	-0.015	-0.090
-542.252	13.145	0.030	0.024
-541.237	558.109	0.050	0.121
-540.223	31.448	0.072	-0.062
-539.208	-200.000	0.052	0.240
-538.193	321.092	-0.169	-0.325
-537.179	-189.313	-0.144	-0.002
-536.164	-107.678	0.325	-0.072
-535.150	800.000	0.062	0.242
-534.135	-200.000	-0.056	0.288
-533.121	-82.172	-0.209	0.069
-532.106	-0.213	-0.210	0.151
-531.091	15.102	0.225	0.178
-530.077	-32.413	0.275	0.154
-529.062	-200.000	-0.022	0.191
-528.048	-35.157	0.129	-0.071
-527.033	-12.250	0.147	-0.097
-526.018	58.258	-0.065	-0.065
-525.004	-200.000	0.005	0.110
-523.989	-21.072	-0.305	0.188
-522.975	690.591	0.055	-0.145
-521.960	406.792	0.119	0.254
-520.945	17.287	-0.167	-0.134
-519.931	307.253	-0.128	0.240
-518.916	-200.000	-0.006	0.097
-517.902	-200.000	-0.074	-0.338
-516.887	286.852	-0.187	0.340
-515.872	800.000	-0.055	0.213
-514.858	16.856	-0.040	0.032
-513.843	-200.000	0.092	-0.423
-512.829	144.125	-0.180	-0.242
-511.814	105.381	-0.039	0.046
-510.799	-3.495	-0.218	-0.153
-509.785	800.000	0.080	0.273
-508.770	-122.477	-0.129	-0.021
-507.756	-200.000	0.063	-0.423
-506.741	324.244	-0.149	-0.287
-505.726	2.471	-0.339	0.247
-504.712	-200.000	-0.004	0.161
-503.697	800.000	0.110	-0.414
-502.683	-200.000	0.018	-0.101
-501.668	45.035	-0.115	-0.107
-500.653	-10.349	-0.242	0.161
-499.639	-155.218	0.346	-0.023
-498.624	84.442	0.017	-0.018
-497.610	-200.000	0.026	0.119
-496.595	172.612	0.087	-0.126
-495.581	-117.823	0.400	-0.072
-494.566	145.883	-0.025	-0.034
-493.551	-196.552	0.047	-0.000
-492.537	-200.000	0.033	0.303
-491.522	-183.386	-0.475	-0.008
-490.508	119.454	-0.133	0.166
-489.493	333.305	0.095	0.184
-488.478	51.461	-0.252	0.241
-487.464	-156.035	0.314	0.020
-486.449	-42.417	0.159	0.082
-485.435	21.729	-0.401	-0.329
-484.420	-200.000	-0.011	-0.158
-483.405	214.738	0.109	-0.174
-482.391	69.875	-0.187	-0.194
-481.376	38.304	-0.165	-0.148
-480.362	17.838	0.076	-0.061
-479.347	-87.532	-0.284	-0.086
-478.332	-5.412	-0.246	0.170
-477.318	-155.166	-0.156	-0.010
-476.303	67.474	-0.245	-0.252
-475.289	-81.951	0.047	0.015
-474.274	-200.000	-0.000	0.075
-473.259	-39.399	-0.076	0.040
-472.245	-71.147	0.340	0.128
-471.230	34.352	0.208	-0.183
-470.216	800.000	-0.041	0.165
-469.201	-200.000	-0.004	-0.482
-468.186	-200.000	0.076	-0.341
-467.172	800.000	-0.033	0.094
-466.157	-200.000	-0.065	-0.445
-465.143	-200.000	0.039	0.240
-464.128	-99.970	-0.052	-0.013
-463.113	275.728	0.151	0.269
-462.099	58.552	0.180	0.178
-461.084	279.634	0.084	-0.151
-460.070	-51.911	-0.229	0.107
-459.055	54.435	-0.161	-0.156
-458.040	-200.000	0.030	-0.237
-457.026	102.834	0.130	-0.153
-456.011	-58.857	0.117	-0.051
-454.997	-10.110	-0.080	0.053
-453.982	107.089	0.120	0.143
-452.968	-83.673	-0.031	-0.010
-451.953	272.632	-0.173	-0.308
-450.938	457.586	-0.083	-0.185
-449.924	-200.000	0.045	0.311
-448.909	47.049	-0.164	-0.154
-447.895	2.309	0.362	-0.263
-446.880	11.141	-0.228	-0.175
-445.865	606.525	-0.042	0.104
-444.851	89.976	0.156	0.175
-443.836	-46.881	0.280	-0.138
-442.822	-129.652	0.123	-0.017
-441.807	616.445	0.110	0.277
-440.792	108.716	0.069	-0.083
-439.778	24.250	0.205	-0.170
-438.763	-35.110	0.181	0.099
-437.749	-200.000	0.091	-0.410
-436.734	119.080	-0.208	-0.258
-435.719	-200.000	-0.024	0.148
-434.705	-200.000	0.027	0.151
-433.690	-146.265	-0.184	0.016
-432.676	-35.582	-0.100	-0.055
-431.661	800.000	-0.099	-0.338
-430.646	-19.629	0.266	-0.165
-429.632	-74.047	0.190	0.069
-428.617	77.672	-0.163	0.174
-427.603	-200.000	-0.021	-0.366
-426.588	-40.862	0.112	-0.058
-425.573	421.879	-0.082	-0.178
-424.559	706.949	0.042	0.111
-423.544	38.541	-0.408	0.366
-422.530	800.000	0.093	0.356
-421.515	-200.000	0.007	-0.278
-420.500	-85.115	-0.121	0.038
-419.486	498.040	-0.080	0.185
-418.471	530.484	-0.028	-0.067
-417.457	534.239	-0.047	-0.111
-416.442	-72.824	-0.158	-0.058
-415.428	-98.100	0.232	-0.060
-414.413	5.494	-0.133	-0.099
-413.398	-200.000	0.009	-0.299
-412.384	78.944	-0.079	0.085
-411.369	-7.317	0.306	-0.208
-410.355	-192.880	0.307	0.003
-409.340	295.357	-0.053	0.097
-408.325	-170.229	0.167	0.006
-407.311	-200.000	-0.013	0.069
-406.296	800.000	0.117	0.330
-405.282	-170.093	0.268	0.010
-404.267	173.967	0.047	-0.069
-403.252	-88.988	-0.247	-0.073
-402.238	686.025	0.035	0.091
-401.223	36.483	0.189	0.168
-400.209	800.000	-0.068	-0.221
-399.194	-44.889	0.153	0.076
-398.179	-200.000	-0.028	0.279
-397.165	-200.000	-0.017	0.125
-396.150	-164.510	0.217	0.010
-395.136	-200.000	-0.009	0.095
-394.121	67.659	0.164	0.168
-393.106	-156.293	0.223	-0.014
-392.092	9.291	-0.315	-0.239
-391.077	214.423	0.150	0.239
-390.063	161.156	0.108	0.151
-389.048	-200.000	0.050	0.306
-388.033	498.454	0.187	-0.433
-387.019	279.730	0.052	-0.093
-386.004	706.064	-0.060	-0.157
-384.990	-13.712	-0.074	-0.048
-383.975	-80.030	0.047	0.016
-382.960	-112.693	-0.231	-0.046
-381.946	-14.428	-0.077	-0.049
-380.931	-200.000	0.005	0.105
-379.917	112.970	-0.146	-0.177
-378.902	-33.713	0.209	0.115
-377.888	800.000	0.132	0.387
-376.873	-72.527	-0.096	0.036
-375.858	800.000	0.051	-0.147
-374.844	-69.138	0.123	-0.048
-373.829	-61.014	-0.142	0.060
-372.815	-188.763	0.188	-0.002
-371.800	225.403	-0.218	0.354
-370.785	-158.474	-0.178	0.010
-369.771	112.232	-0.085	-0.104
-368.756	-20.667	-0.573	0.352
-367.742	26.006	0.112	0.093
-366.727	-112.544	-0.240	0.048
-365.712	-80.799	0.162	-0.054
-364.698	-200.000	-0.010	-0.082
-363.683	-165.149	-0.197	0.009
-362.669	-65.269	-0.156	0.063
-361.654	-200.000	0.071	-0.368
-360.639	-200.000	-0.004	-0.193
-359.625	126.614	0.154	0.196
-358.610	-26.120	0.201	-0.119
-357.596	-200.000	0.011	-0.089
-356.581	117.050	-0.135	0.166
-355.566	142.165	0.101	0.134
-354.552	-115.314	-0.175	-0.033
-353.537	52.475	0.250	-0.239
-352.523	-200.000	0.012	-0.160
-351.508	800.000	0.064	-0.203
-350.493	-115.903	-0.357	0.067
-349.479	800.000	-0.033	0.138
-348.464	22.828	-0.252	0.207
-347.450	-200.000	0.004	0.042
-346.435	800.000	0.100	-0.359
-345.420	-200.000	0.001	-0.069
-344.406	613.963	-0.096	0.240
-343.391	-67.911	-0.167	0.065
-342.377	-97.718	0.302	0.078
-341.362	-4.798	-0.556	0.384
-340.348	238.878	-0.031	0.052
-339.333	-52.119	-0.121	-0.056
-338.318	56.518	-0.074	0.072
-337.304	0.319	-0.268	0.191
-336.289	-200.000	-0.023	-0.131
-335.275	-102.973	0.071	-0.017
-334.260	800.000	-0.058	0.163
-333.245	-200.000	0.027	0.338
-332.231	90.208	-0.131	0.146
-331.216	145.686	-0.186	0.249
-330.202	18.696	-0.025	-0.020
-329.187	-56.235	0.171	-0.076
-328.172	-144.083	-0.403	-0.038
-327.158	16.121	0.211	0.166
-326.143	-101.472	0.198	-0.048
-325.129	751.349	-0.100	0.271
-324.114	163.631	0.074	-0.105
-323.099	43.150	-0.264	-0.241
-322.085	22.991	0.263	0.216
-321.070	800.000	0.022	-0.074
-320.056	-72.990	-0.081	-0.030
-319.041	233.646	-0.166	-0.274
-318.026	-96.469	-0.152	0.040
-317.012	-152.853	0.345	0.024
-315.997	800.000	0.049	-0.172
-314.983	800.000	-0.026	-0.100
-313.968	-200.000	0.039	-0.225
-312.953	-200.000	-0.004	0.028
-311.939	800.000	-0.029	0.105
-310.924	-105.285	0.220	0.050
-309.910	340.760	-0.093	0.181
-308.895	428.872	0.113	-0.244
-307.880	-200.000	-0.008	-0.095
-306.866	124.406	0.162	-0.203
-305.851	800.000	-0.090	0.266
-304.837	306.404	-0.166	-0.308
-303.822	-6.781	-0.114	-0.077
-302.807	-91.200	0.445	0.127
-301.793	-200.000	-0.109	0.534
-300.778	-17.390	-0.196	0.123
-299.764	-98.449	-0.280	0.072
-298.749	-120.515	-0.405	0.069
-297.735	145.056	0.124	0.165
-296.720	77.186	0.168	0.178
-295.705	23.362	0.199	0.163
-294.691	800.000	-0.037	0.105
-293.676	99.659	0.096	-0.111
-292.662	-149.562	-0.165	0.013
-291.647	-31.857	-0.042	0.024
-290.632	206.811	-0.050	-0.078
-289.618	-200.000	-0.006	0.049
-288.603	244.011	0.093	-0.155
-287.589	-163.228	0.129	-0.006
-286.574	471.076	0.046	0.103
-285.559	150.148	-0.260	0.353
-284.545	465.598	0.131	0.293
-283.530	-118.367	-0.127	0.023
-282.516	295.796	-0.113	0.206
-281.501	-106.838	-0.195	0.043
-280.486	-0.124	0.185	-0.131
-279.472	-200.000	0.020	0.198
-278.457	34.596	-0.175	0.152
-277.443	418.633	-0.143	-0.305
-276.428	-120.669	-0.119	0.020
-275.413	209.198	0.166	0.260
-274.399	-104.193	0.219	-0.051
-273.384	529.061	0.027	-0.064
-272.370	-123.547	-0.289	-0.046
-271.355	-200.000	0.003	-0.243
-270.340	-107.546	0.331	0.072
-269.326	37.484	0.076	0.067
-268.311	-102.743	0.605	0.144
-267.297	102.235	-0.183	0.213
-266.282	-24.929	0.376	-0.223
-265.267	-200.000	0.022	-0.316
-264.253	166.450	-0.097	0.137
-263.238	-26.148	-0.173	0.101
-262.224	172.249	0.142	-0.203
-261.209	-200.000	0.039	-0.177
-260.195	124.284	0.119	-0.149
-259.180	80.572	-0.195	0.210
-258.165	-83.068	-0.298	0.096
-257.151	-76.924	0.157	-0.055
-256.136	199.227	-0.127	-0.195
-255.122	215.601	-0.092	0.146
-254.107	-200.000	-0.017	0.251
-253.092	135.986	-0.163	-0.212
-252.078	-96.249	0.126	-0.033
-251.063	-168.883	-0.196	-0.007
-250.049	-52.932	0.026	-0.012
-249.034	115.939	0.289	0.353
-248.019	7.817	0.363	-0.271
-247.005	34.725	-0.123	-0.107
-245.990	-78.830	-0.159	-0.054
-244.976	800.000	0.119	0.374
-243.961	-57.293	0.064	0.028
-242.946	-1.047	-0.147	0.104
-241.932	379.549	0.100	0.204
-240.917	800.000	0.139	-0.384
-239.903	-59.400	0.181	-0.078
-238.888	378.358	0.020	-0.040
-237.873	-67.959	0.367	0.143
-236.859	-14.382	0.153	0.098
-235.844	253.743	0.107	-0.182
-234.830	0.126	-0.170	-0.121
-233.815	-107.443	-0.360	-0.079
-232.800	-200.000	-0.005	0.171
-231.786	18.716	-0.196	0.156
-230.771	-109.023	0.353	0.075
-229.757	-87.677	0.152	0.046
-228.742	-112.663	-0.130	0.026
-227.727	-145.270	0.163	0.015
-226.713	119.579	0.176	0.217
-225.698	-65.103	0.181	0.073
-224.684	177.623	0.064	0.093
-223.669	61.906	-0.084	-0.084
-222.655	-51.654	-0.186	0.086
-221.640	-163.964	0.153	0.007
-220.625	-99.354	-0.158	0.040
-219.611	545.088	-0.093	0.220
-218.596	-200.000	0.032	-0.468
-217.582	-67.284	-0.231	-0.090
-216.567	39.154	0.138	0.123
-215.552	-45.650	-0.051	-0.025
-214.538	-17.836	0.227	0.142
-213.523	-191.598	-0.182	-0.002
-212.509	-45.527	0.112	0.055
-211.494	-150.985	-0.104	0.008
-210.479	627.952	-0.043	-0.108
-209.465	121.120	0.222	-0.275
-208.450	46.457	0.071	0.066
-207.436	17.368	-0.036	-0.029
-206.421	-87.780	0.296	-0.089
-205.406	389.912	-0.117	-0.242
-204.392	-32.895	0.043	0.024
-203.377	-200.000	-0.003	0.065
-202.363	-107.324	-0.200	-0.044
-201.348	78.696	-0.154	-0.164
-200.333	-34.974	0.320	0.174
-199.319	-49.498	-0.196	-0.093
-198.304	800.000	-0.068	0.217
-197.290	98.379	-0.177	0.203
-196.275	51.999	-0.112	-0.106
-195.260	-200.000	0.015	-0.125
-194.246	35.921	0.057	-0.050
-193.231	800.000	0.132	0.498
-192.217	-200.000	0.135	-0.000
-191.202	722.716	0.057	-0.151
-190.187	-37.411	0.201	0.107
-189.173	800.000	-0.021	-0.059
-188.158	-105.075	-0.163	-0.037
-187.144	487.596	-0.061	-0.139
-186.129	33.799	0.099	-0.085
-185.114	-21.818	0.305	0.185
-184.100	-51.020	0.223	-0.104
-183.085	82.357	0.199	0.215
-182.071	478.771	-0.121	0.272
-181.056	111.957	-0.149	-0.179
-180.042	-82.494	0.191	0.062
-179.027	-200.000	0.011	0.489
-178.012	62.086	0.386	0.383
-176.998	800.000	0.103	0.296
-175.983	312.068	0.280	0.522
-174.969	-200.000	0.013	0.366
-173.954	-39.890	-0.358	-0.186
-172.939	67.220	-0.094	-0.096
-171.925	-1.938	0.133	-0.093
-170.910	-197.670	0.126	-0.001
-169.896	-143.761	0.177	0.017
-168.881	-76.369	-0.120	-0.042
-167.866	637.308	0.004	-0.009
-166.852	5.560	0.123	0.090
-165.837	-200.000	0.034	-0.150
-164.823	-200.000	0.001	0.204
-163.808	-130.650	-0.188	0.025
-162.793	800.000	0.049	-0.151
-161.779	-49.079	-0.141	-0.067
-160.764	-33.912	-0.218	-0.120
-159.750	-31.354	-0.097	-0.054
-158.735	3.347	0.171	-0.124
-157.720	-100.367	-0.190	-0.047
-156.706	36.009	-0.192	0.168
-155.691	163.908	-0.039	0.055
-154.677	624.018	0.041	-0.102
-153.662	-4.834	0.316	-0.216
-152.647	607.736	0.078	-0.193
-151.633	-105.465	0.262	0.059
-150.618	321.504	-0.071	0.134
-149.604	800.000	0.052	0.215
-148.589	128.436	0.258	0.326
-147.574	1.009	-0.282	0.201
-146.560	-131.307	-0.349	-0.046
-145.545	-19.728	0.228	0.140
-144.531	160.439	-0.073	-0.101
-143.516	-73.120	-0.205	0.074
-142.502	138.276	0.053	-0.069
-141.487	217.649	-0.024	0.037
-140.472	-105.825	0.269	-0.060
-139.458	258.285	0.087	0.149
-138.443	-41.633	0.107	-0.055
-137.429	-59.536	0.186	0.079
-136.414	-200.000	0.015	-0.081
-135.399	800.000	0.096	0.308
-134.385	-61.441	-0.142	-0.059
-133.370	-139.580	-0.079	0.008
-132.356	-9.266	0.117	-0.078
-131.341	-45.779	0.235	0.115
-130.326	800.000	0.014	0.049
-129.312	340.644	0.042	-0.082
-128.297	18.051	0.250	-0.198
-127.283	313.249	0.163	0.305
-126.268	626.528	0.067	0.167
-125.253	643.505	-0.067	0.170
-124.239	800.000	-0.029	-0.109
-123.224	9.955	0.207	0.156
-122.210	-94.335	-0.270	-0.073
-121.195	800.000	0.034	0.139
-120.180	-153.885	0.120	0.008
-119.166	-45.107	-0.089	0.044
-118.151	127.803	0.081	0.103
-117.137	-200.000	-0.045	0.393
-116.122	-48.647	0.100	-0.047
-115.107	165.830	0.140	-0.197
-114.093	-111.585	0.149	0.030
-113.078	-21.165	-0.150	-0.091
-112.064	800.000	0.068	0.264
-111.049	57.448	-0.229	0.222
-110.034	-22.171	-0.289	-0.174
-109.020	113.591	-0.101	0.121
-108.005	-200.000	0.006	0.088
-106.991	334.214	-0.090	-0.174
-105.976	-200.000	-0.040	-0.236
-104.962	-115.305	0.360	-0.067
-103.947	-200.000	0.022	-0.340
-102.932	70.660	0.282	0.289
-101.918	-83.312	0.317	-0.101
-100.903	117.399	0.177	0.216
-99.889	173.708	-0.078	-0.112
-98.874	-4.707	0.231	0.158
-97.859	-200.000	-0.001	0.083
-96.845	-118.786	0.206	-0.036
-95.830	109.461	0.142	0.168
-94.816	-47.481	0.074	0.036
-93.801	166.022	-0.104	0.146
-92.786	800.000	0.109	0.350
-91.772	764.317	-0.098	0.264
-90.757	131.338	0.129	-0.165
-89.743	91.344	-0.163	0.182
-88.728	-200.000	-0.028	0.138
-87.713	-46.768	0.182	0.088
-86.699	1.187	0.270	-0.192
-85.684	-79.021	-0.209	-0.070
-84.670	64.214	0.095	0.095
-83.655	-0.057	0.147	-0.104
-82.640	-200.000	0.026	-0.167
-81.626	-30.902	-0.201	-0.113
-80.611	800.000	-0.092	-0.255
-79.597	81.805	0.075	-0.080
-78.582	531.862	-0.047	0.111
-77.567	80.905	-0.131	0.140
-76.553	800.000	0.107	-0.443
-75.538	800.000	-0.030	0.108
-74.524	-200.000	-0.023	0.146
-73.509	-95.065	0.155	-0.041
-72.494	-200.000	0.002	-0.044
-71.480	-133.536	-0.231	-0.029
-70.465	242.497	0.272	0.451
-69.451	-25.509	-0.087	-0.051
-68.436	-66.003	0.320	0.127
-67.422	-130.838	0.198	-0.026
-66.407	62.867	-0.149	-0.147
-65.392	-36.466	-0.121	-0.065
-64.378	-23.401	-0.193	-0.115
-63.363	-1.806	0.206	-0.144
-62.349	-200.000	0.073	0.428
-61.334	-5.458	-1.006	-0.683
-60.319	296.633	0.368	0.668
-59.305	381.620	-0.425	-0.863
-58.290	148.233	0.805	1.076
-57.276	230.248	0.842	1.362
-56.261	-200.000	94.947	574.462
-55.246	661.350	1375.614	3507.590
-54.232	189.966	2583.652	3837.087
-53.217	124.460	2190.188	2726.266
-52.203	46.277	1727.328	1584.100
-51.188	38.732	1537.787	1358.206
-50.173	36.244	1510.483	1317.081
-49.159	55.364	1560.516	1493.778
-48.144	59.419	1579.558	1540.056
-47.130	39.173	1534.519	1358.155
-46.115	35.903	1519.106	1322.049
-45.100	35.710	1515.770	1317.771
-44.086	35.597	1514.109	1315.495
-43.071	35.540	1512.313	1313.494
-42.057	35.561	1510.197	1311.753
-41.042	35.564	1508.980	1310.659
-40.027	35.574	1507.636	1309.510
-39.013	35.647	1505.827	1308.382
-37.998	35.521	1504.891	1306.659
-36.984	35.497	1504.120	1305.775
-35.969	35.572	1502.424	1304.764
-34.954	35.598	1500.967	1303.621
-33.940	35.526	1499.734	1302.008
-32.925	35.613	1498.182	1301.198
-31.911	35.685	1496.559	1300.228
-30.896	35.682	1495.885	1299.567
-29.881	35.611	1494.295	1297.657
-28.867	35.619	1492.986	1296.520
-27.852	35.669	1491.515	1295.530
-26.838	35.683	1490.179	1294.411
-25.823	35.680	1488.195	1292.620
-24.809	35.692	1486.747	1291.389
-23.794	35.585	1485.735	1289.742
-22.779	35.663	1484.042	1288.746
-21.765	35.697	1482.554	1287.631
-20.750	35.758	1481.272	1286.872
-19.736	35.690	1481.375	1286.456
-18.721	35.718	1479.942	1285.346
-17.706	35.649	1479.071	1284.077
-16.692	35.737	1477.548	1283.292
-15.677	35.670	1476.774	1282.119
-14.663	35.609	1475.889	1280.899
-13.648	35.634	1474.724	1279.999
-12.633	35.666	1473.612	1279.201
-11.619	35.593	1472.977	1278.109
-10.604	35.554	1472.332	1277.238
-9.590	35.602	1471.278	1276.595
-8.575	35.595	1470.594	1275.902
-7.560	35.649	1469.356	1275.135
-6.546	35.612	1468.679	1274.251
-5.531	35.530	1467.241	1272.410
-4.517	35.518	1466.992	1272.067
-3.502	35.646	1465.504	1271.570
-2.487	35.566	1464.743	1270.334
-1.473	35.568	1463.773	1269.453
-0.458	35.640	1461.917	1268.271
0.556	35.140	1452.364	1256.583
1.571	31.597	1425.583	1210.435
2.586	27.616	1362.837	1132.390
3.600	25.454	1280.428	1051.185
4.615	23.839	1233.996	1003.868
5.629	20.479	1177.265	939.494
6.644	12.249	1092.436	830.256
7.659	5.794	1051.043	767.232
8.673	4.807	1045.517	758.322
9.688	4.967	1042.366	756.750
10.702	4.841	1041.644	755.546
11.717	4.835	1039.713	754.048
12.731	7.122	1041.520	766.375
13.746	14.454	1051.804	809.603
14.761	19.595	1058.012	839.359
15.775	19.432	1056.203	837.060
16.790	18.336	1054.155	830.051
17.804	17.357	1051.812	823.397
18.819	16.507	1049.883	817.705
19.834	15.948	1049.078	814.304
20.848	15.650	1047.692	811.717
21.863	15.493	1046.884	810.261
22.877	15.076	1046.480	807.866
23.892	14.939	1045.926	806.708
24.907	14.928	1044.781	805.699
25.921	14.992	1043.895	805.253
26.936	14.838	1043.391	804.051
27.950	14.991	1042.109	803.726
28.965	15.140	1040.912	803.446
29.980	15.010	1040.041	802.082
30.994	15.201	1038.653	801.855
32.009	15.320	1037.651	801.576
33.023	15.292	1037.221	801.039
34.038	15.175	1036.765	800.059
35.053	15.272	1035.454	799.440
36.067	14.999	1034.621	797.427
37.082	15.194	1033.350	797.303
38.096	15.017	1033.423	796.447
39.111	15.140	1032.843	796.516
40.126	15.335	1031.428	796.278
41.140	15.127	1030.447	794.463
42.155	14.981	1029.449	792.931
43.169	14.915	1028.189	791.580
44.184	14.804	1027.116	790.159
45.199	14.734	1026.284	789.117
46.213	14.890	1025.054	788.837
47.228	14.831	1024.279	787.892
48.242	14.948	1023.354	787.662
49.257	15.002	1022.492	787.182
50.271	15.145	1021.333	786.893
51.286	15.050	1020.577	785.797
52.301	15.136	1019.876	785.588
53.315	15.092	1019.118	784.730
54.330	14.950	1018.229	783.309
55.344	14.960	1017.516	782.741
56.359	14.994	1016.122	781.756
57.374	14.832	1015.810	780.693
58.388	14.907	1014.883	780.261
59.403	14.894	1013.975	779.433
60.417	14.754	1013.236	778.145
61.432	14.919	1011.917	777.829
62.447	14.795	1011.971	777.224
63.461	14.751	1011.079	776.268
64.476	14.599	1010.011	774.674
65.490	14.568	1009.527	774.089
66.505	14.649	1008.455	773.574
67.520	14.677	1007.829	773.155
68.534	14.772	1006.509	772.515
69.549	14.827	1005.743	772.113
70.563	14.787	1005.094	771.360
71.578	14.722	1004.475	770.518
72.593	14.763	1003.360	769.781
73.607	14.636	1002.400	768.391
74.622	14.514	1001.731	767.249
75.636	14.561	1000.943	766.797
76.651	14.600	1000.015	766.195
77.666	14.653	999.284	765.809
78.680	14.767	998.275	765.492
79.695	14.710	997.922	764.892
80.709	14.628	997.492	764.122
81.724	14.759	996.511	763.900
82.739	14.887	995.544	763.675
83.753	14.911	995.163	763.424
84.768	14.998	994.266	763.067
85.782	15.093	993.505	762.846
86.797	15.210	992.971	762.905
87.812	15.209	992.220	762.257
88.826	15.093	991.027	760.745
89.841	15.078	990.342	760.084
90.855	15.097	989.726	759.627
91.870	15.081	989.278	759.143
92.884	15.097	988.296	758.399
93.899	15.230	987.473	758.298
94.914	15.296	986.553	757.826
95.928	15.228	985.954	756.989
96.943	15.175	985.678	756.472
97.957	15.186	984.388	755.465
98.972	15.088	983.808	754.509
99.987	15.118	982.889	753.877
101.001	15.245	982.291	753.922
102.016	15.206	981.581	753.134
103.030	15.211	980.345	752.142
104.045	15.190	979.502	751.335
105.060	15.171	978.563	750.462
106.074	15.172	977.621	749.677
107.089	14.942	976.936	748.058
108.103	14.944	975.602	746.978
109.118	14.819	974.728	745.686
110.133	14.778	973.846	744.763
111.147	14.794	973.111	744.206
112.162	14.732	971.798	742.861
113.176	15.024	971.010	743.491
114.191	14.980	970.603	742.918
115.206	15.051	969.929	742.650
116.220	14.961	968.822	741.338
117.235	14.883	968.254	740.491
118.249	14.886	967.006	739.485
119.264	14.941	966.147	739.008
120.279	14.876	965.445	738.117
121.293	14.873	964.721	737.484
122.308	14.714	964.013	736.178
123.322	14.767	963.158	735.691
124.337	14.698	962.451	734.786
125.352	14.658	961.337	733.694
126.366	14.660	960.472	732.978
127.381	14.683	959.516	732.284
128.395	14.794	958.301	731.775
129.410	14.759	957.763	731.150
130.424	14.769	956.722	730.330
131.439	14.970	955.348	730.097
132.454	14.861	954.859	729.183
133.468	14.907	954.183	728.802
134.483	15.017	953.667	728.823
135.497	14.967	952.894	727.950
136.512	14.880	952.391	727.123
137.527	15.022	951.428	726.942
138.541	14.998	950.453	726.028
139.556	14.928	950.395	725.613
140.570	15.017	949.282	725.088
141.585	15.039	948.628	724.619
142.600	15.209	948.073	724.865
143.614	15.338	946.996	724.535
144.629	15.242	946.331	723.546
145.643	15.323	945.422	723.137
146.658	15.264	944.601	722.193
147.673	15.102	944.071	721.024
148.687	15.005	942.816	719.584
149.702	14.964	941.870	718.626
150.716	14.920	941.571	718.144
151.731	14.903	940.480	717.176
152.746	14.968	939.206	716.420
153.760	15.058	938.707	716.360
154.775	15.030	938.189	715.782
155.789	15.120	937.582	715.640
156.804	15.242	936.682	715.410
157.819	15.161	936.168	714.607
158.833	15.232	935.361	714.234
159.848	15.272	934.932	714.011
160.862	15.230	934.755	713.635
161.877	15.187	933.446	712.391
162.892	15.117	932.467	711.280
163.906	15.029	931.926	710.433
164.921	14.995	931.097	709.592
165.935	15.202	929.475	709.170
166.950	15.111	928.938	708.315
167.964	15.131	928.092	707.691
168.979	15.206	927.118	707.200
169.994	15.046	925.896	705.532
171.008	15.173	925.147	705.434
172.023	15.103	924.192	704.348
173.037	15.121	924.068	704.266
174.052	15.341	922.640	704.041
175.067	15.271	922.404	703.504
176.081	15.218	921.605	702.609
177.096	15.130	921.015	701.731
178.110	15.087	920.061	700.760
179.125	15.123	919.553	700.461
180.140	15.238	918.546	700.113
181.154	15.201	917.652	699.214
182.169	15.307	917.440	699.435
183.183	15.294	916.758	698.799
184.198	15.434	916.101	698.818
185.213	15.401	915.498	698.160
186.227	15.363	914.901	697.485
187.242	15.331	914.407	696.914
188.256	15.465	913.469	696.695
189.271	15.442	913.390	696.478
190.286	15.549	912.021	695.815
191.300	15.384	911.352	694.559
192.315	15.184	910.559	693.067
193.329	14.975	909.672	691.465
194.344	15.164	908.727	691.466
195.359	14.986	908.786	690.717
196.373	15.237	908.451	691.435
197.388	15.254	908.131	691.202
198.402	15.404	907.232	691.071
199.417	15.550	906.866	691.336
200.432	15.635	906.169	691.092
201.446	15.817	905.563	691.316
202.461	15.700	905.507	690.730
203.475	15.744	904.969	690.441
204.490	15.807	903.977	689.880
205.504	15.740	903.428	689.125
206.519	15.679	902.404	688.033
207.534	15.520	901.648	686.747
208.548	15.633	900.855	686.543
209.563	15.796	899.857	686.387
210.577	15.615	899.885	685.608
211.592	15.666	899.052	685.121
212.607	15.806	898.435	685.161
213.621	15.709	898.017	684.387
214.636	15.752	897.347	683.989
215.650	15.668	896.674	683.075
216.665	15.760	896.023	682.891
217.680	15.832	895.757	682.924
218.694	15.841	894.997	682.318
219.709	15.876	894.641	682.128
220.723	15.874	893.995	681.570
221.738	15.735	893.260	680.385
222.753	15.818	892.234	679.880
223.767	15.972	891.690	680.025
224.782	15.945	890.899	679.252
225.796	15.925	890.253	678.620
226.811	16.037	889.472	678.415
227.826	16.018	888.857	677.810
228.840	15.920	888.549	677.122
229.855	15.909	887.515	676.228
230.869	15.944	887.110	676.000
231.884	15.854	886.378	675.023
232.899	15.939	885.348	674.520
233.913	15.918	884.859	674.004
234.928	15.951	884.175	673.555
235.942	15.819	883.503	672.455
236.957	15.878	882.400	671.792
237.972	15.929	881.829	671.501
238.986	15.861	881.577	670.980
240.001	15.896	880.972	670.599
241.015	15.879	880.491	670.103
242.030	15.918	879.596	669.519
243.045	15.906	878.920	668.897
244.059	16.039	878.217	668.831
245.074	16.142	877.528	668.657
246.088	16.054	877.134	667.949
247.103	16.232	876.396	668.031
248.117	16.043	876.362	667.199
249.132	16.271	875.466	667.358
250.147	16.435	875.100	667.667
251.161	16.431	874.464	667.109
252.176	16.579	873.728	667.073
253.190	16.474	872.999	666.044
254.205	16.533	872.604	665.916
255.220	16.605	871.914	665.613
256.234	16.543	871.365	664.890
257.249	16.713	870.494	664.837
258.263	16.700	870.073	664.405
259.278	16.660	869.214	663.532
260.293	16.660	868.637	663.034
261.307	16.684	868.288	662.803
262.322	16.657	867.928	662.363
263.336	16.669	867.385	661.938
264.351	16.722	866.725	661.582
265.366	16.773	865.835	661.043
266.380	16.845	865.697	661.158
267.395	16.743	864.717	659.954
268.409	16.807	863.690	659.361
269.424	16.682	863.005	658.296
270.439	16.681	862.642	657.958
271.453	16.671	861.574	657.044
272.468	16.727	861.143	656.875
273.482	16.623	860.498	655.921
274.497	16.689	859.791	655.582
275.512	16.648	859.206	654.918
276.526	16.842	858.338	654.948
277.541	16.722	857.850	654.056
278.555	16.634	857.650	653.505
279.570	16.834	856.756	653.537
280.585	16.969	856.341	653.682
281.599	16.860	856.225	653.115
282.614	16.883	855.133	652.311
283.628	16.778	854.852	651.638
284.643	16.812	854.306	651.294
285.657	16.879	853.476	650.862
286.672	16.683	853.438	650.024
287.687	16.864	852.896	650.248
288.701	16.826	852.268	649.562
289.716	17.053	851.134	649.510
290.730	17.048	850.926	649.276
291.745	16.993	850.172	648.434
292.760	16.960	849.646	647.849
293.774	16.786	849.236	646.813
294.789	17.119	848.719	647.634
295.803	17.072	847.955	646.815
296.818	17.003	847.401	646.070
297.833	16.869	846.672	644.947
298.847	16.962	845.910	644.664
299.862	17.099	845.123	644.527
300.876	17.104	844.595	644.088
301.891	17.019	843.801	643.104
302.906	17.203	843.110	643.215
303.920	17.339	842.893	643.508
304.935	17.313	842.224	642.841
305.949	17.454	841.900	643.071
306.964	17.214	841.544	641.835
307.979	17.372	840.091	641.265
308.993	17.299	839.836	640.740
310.008	17.328	839.476	640.519
311.022	17.300	838.859	639.885
312.037	17.397	838.608	639.999
313.052	17.250	838.258	639.124
314.066	17.175	837.433	638.157
315.081	17.029	836.622	636.935
316.095	17.066	836.255	636.740
317.110	17.158	835.356	636.342
318.125	17.102	834.928	635.751
319.139	17.172	834.785	635.846
320.154	17.182	834.048	635.266
321.168	17.167	833.529	634.760
322.183	17.223	833.005	634.513
323.197	17.200	832.395	633.906
324.212	17.220	832.025	633.643
325.227	17.414	831.453	633.875
326.241	17.373	830.595	633.013
327.256	17.318	830.048	632.334
328.270	17.303	829.613	631.891
329.285	17.189	829.178	631.079
330.300	17.266	828.606	630.876
331.314	17.206	828.153	630.251
332.329	17.220	827.126	629.466
333.343	17.540	826.490	630.110
334.358	17.513	825.975	629.563
335.373	17.465	825.769	629.171
336.387	17.563	825.051	628.933
337.402	17.625	824.423	628.627
338.416	17.529	824.000	627.894
339.431	17.643	823.732	628.054
340.446	17.951	822.896	628.497
341.460	17.738	822.402	627.277
342.475	17.809	821.902	627.104
343.489	17.722	821.378	626.329
344.504	17.931	820.788	626.588
345.519	17.957	820.311	626.266
346.533	18.049	819.899	626.233
347.548	17.925	819.491	625.412
348.562	17.822	818.844	624.485
349.577	17.714	818.399	623.696
350.592	17.647	817.694	622.860
351.606	17.716	817.190	622.670
352.621	17.743	816.601	622.268
353.635	17.572	816.533	621.535
354.650	17.691	816.250	621.698
355.665	17.784	815.528	621.434
356.679	17.825	814.981	621.111
357.694	17.693	814.518	620.222
358.708	17.797	813.997	620.148
359.723	17.847	813.467	619.872
360.738	17.849	812.840	619.344
361.752	17.950	812.507	619.403
362.767	17.904	812.117	618.884
363.781	17.938	811.866	618.761
364.796	17.894	811.836	618.523
365.810	18.045	810.740	618.183
366.825	18.066	810.572	618.076
367.840	18.203	810.203	618.235
368.854	18.240	809.816	618.017
369.869	18.162	809.334	617.312
370.883	18.128	808.870	616.781
371.898	18.165	808.005	616.201
372.913	18.102	807.969	615.894
373.927	18.117	806.980	615.138
374.942	18.341	805.944	615.100
375.956	18.345	805.049	614.377
376.971	18.412	804.964	614.495
377.986	18.347	804.345	613.737
379.000	18.336	804.018	613.395
380.015	18.518	803.539	613.625
381.029	18.556	802.659	613.034
382.044	18.335	802.674	612.202
383.059	18.446	801.759	611.847
384.073	18.553	801.557	612.021
385.088	18.558	800.840	611.437
386.102	18.252	800.461	610.003
387.117	18.379	799.845	609.929
388.132	18.207	799.601	609.077
389.146	18.439	798.981	609.377
390.161	18.339	798.597	608.676
391.175	18.368	798.241	608.454
392.190	18.463	798.028	608.573
393.205	18.469	797.562	608.186
394.219	18.353	796.987	607.283
395.234	18.349	796.556	606.885
396.248	18.361	795.731	606.245
397.263	18.409	795.132	605.906
398.278	18.292	794.814	605.197
399.292	18.228	794.439	604.633
400.307	18.281	793.866	604.331
401.321	18.309	793.129	603.813
402.336	18.297	793.255	603.813
403.350	18.524	792.710	604.144
404.365	18.479	792.249	603.581
405.380	18.509	792.063	603.492
406.394	18.579	791.610	603.340
407.409	18.456	791.441	602.725
408.423	18.724	790.995	603.274
409.438	18.772	790.331	602.883
410.453	18.717	789.934	602.332
411.467	18.806	789.636	602.365
412.482	18.799	789.191	601.948
413.496	18.825	788.677	601.595
414.511	18.984	788.296	601.808
415.526	18.937	787.514	600.991
416.540	18.972	787.580	601.111
417.555	18.830	787.062	600.165
418.569	18.894	786.869	600.190
419.584	19.000	785.908	599.775
420.599	18.917	785.587	599.186
421.613	154.875	1367.736	1789.393
422.628	133.807	1452.560	1789.512
