DTS Sentinel unit serial number:	SN413079Multiplexer serial number:	ORYXHardware model number:	OX4-SRSoftware version number:	ORYX F/W v4.00 Oryx Data Collector v3.7.2.0data status	okinstallation	princeton_trtdifferential loss correction	single-endedforward channel	channel 3reverse channel	N/Adate	2019/09/15time	01:44:35forward acquisition time	60.00reverse acquisition time	0.00gamma	496.2192k internal	0.2322k external	0.2322temperature offset calibration	0.9961default loss term (dB/km)	0.3790temperature slope calibration	1.0000multiplexer offset coefficient	1.0000multiplexer slope coefficient	1.0000fibre end	0.00T internal ref (°C)	31.81T ext. ref 1 (°C)	4.51T ext. ref 2 (°C)	26.69length (m)	temperature (°C)	Stokes	anti-Stokes-747.200	-27.206	0.143	0.084
-746.185	-78.584	-0.021	0.007
-745.171	-18.332	0.213	-0.134
-744.156	-136.464	-0.038	0.004
-743.142	9.584	-0.208	-0.160
-742.127	-200.000	0.007	-0.150
-741.112	-94.167	-0.106	-0.029
-740.098	-78.021	-0.030	-0.011
-739.083	328.818	0.054	-0.104
-738.069	-85.734	0.321	0.101
-737.054	17.927	0.164	-0.132
-736.039	236.013	0.057	-0.095
-735.025	57.111	0.029	-0.029
-734.010	-200.000	0.002	-0.154
-732.996	74.993	0.061	0.065
-731.981	70.869	-0.233	-0.244
-730.966	384.566	0.049	-0.102
-729.952	-127.247	-0.254	-0.038
-728.937	13.103	-0.184	0.144
-727.923	800.000	-0.144	0.411
-726.908	-200.000	-0.016	-0.109
-725.894	496.127	-0.096	-0.223
-724.879	243.627	0.200	0.339
-723.864	-163.020	-0.239	-0.012
-722.850	73.501	-0.258	-0.273
-721.835	-200.000	0.004	-0.220
-720.821	-200.000	0.006	0.106
-719.806	-97.627	-0.307	-0.080
-718.791	-187.941	0.129	-0.002
-717.777	-200.000	0.025	0.366
-716.762	-100.104	0.190	-0.048
-715.748	381.599	-0.156	0.323
-714.733	-13.955	0.194	-0.126
-713.718	396.379	0.110	-0.231
-712.704	-166.644	-0.178	-0.007
-711.689	68.031	0.232	-0.239
-710.675	381.271	-0.033	0.069
-709.660	700.391	-0.030	0.079
-708.645	-200.000	0.015	0.137
-707.631	-79.256	-0.204	-0.070
-706.616	239.620	0.186	-0.312
-705.602	800.000	-0.077	-0.297
-704.587	-49.920	0.142	-0.068
-703.572	-172.687	0.104	0.003
-702.558	-200.000	-0.005	0.080
-701.543	580.274	-0.029	-0.072
-700.529	71.513	0.110	0.116
-699.514	-200.000	0.053	0.311
-698.499	-133.747	0.089	-0.011
-697.485	-173.849	-0.198	-0.006
-696.470	-45.124	0.070	-0.035
-695.456	-200.000	-0.028	-0.416
-694.441	-200.000	-0.003	-0.048
-693.426	45.503	-0.070	-0.065
-692.412	-200.000	0.013	-0.312
-691.397	52.375	-0.061	-0.059
-690.383	-52.288	-0.234	0.109
-689.368	-94.004	-0.154	-0.043
-688.354	-74.201	-0.120	0.044
-687.339	800.000	0.078	-0.271
-686.324	-77.936	0.250	-0.087
-685.310	207.597	0.164	-0.258
-684.295	-109.467	0.043	0.009
-683.281	800.000	0.073	0.308
-682.266	-200.000	0.030	-0.138
-681.251	-81.152	0.347	0.116
-680.237	-200.000	-0.062	-0.313
-679.222	-130.453	0.086	0.012
-678.208	-26.740	-0.181	0.107
-677.193	-80.240	-0.282	0.095
-676.178	-28.506	0.337	-0.196
-675.164	-14.737	-0.166	0.107
-674.149	-77.083	0.051	0.018
-673.135	-200.000	0.001	-0.179
-672.120	-88.034	-0.147	-0.045
-671.105	-60.493	0.201	-0.086
-670.091	-62.791	0.138	0.058
-669.076	-151.151	0.337	-0.025
-668.062	569.572	0.076	0.186
-667.047	-40.366	-0.069	0.036
-666.032	-200.000	0.030	0.202
-665.018	-29.864	0.263	-0.151
-664.003	-22.536	-0.175	-0.107
-662.989	-46.165	-0.307	0.152
-661.974	-4.211	-0.209	-0.145
-660.959	-119.531	0.275	0.048
-659.945	-151.335	0.311	-0.023
-658.930	800.000	0.049	-0.209
-657.916	-172.469	-0.412	0.013
-656.901	-200.000	0.001	-0.094
-655.886	33.499	-0.320	0.280
-654.872	-200.000	-0.003	-0.186
-653.857	123.222	-0.179	-0.226
-652.843	142.136	-0.045	0.060
-651.828	67.578	-0.115	0.118
-650.814	-200.000	-0.012	-0.189
-649.799	-144.458	-0.096	-0.009
-648.784	280.884	-0.167	-0.300
-647.770	-200.000	-0.013	-0.327
-646.755	-16.965	-0.342	-0.217
-645.741	-125.105	0.148	-0.023
-644.726	339.083	-0.120	0.236
-643.711	800.000	-0.088	0.337
-642.697	126.603	0.164	-0.209
-641.682	39.972	0.255	-0.231
-640.668	30.005	0.120	0.103
-639.653	215.010	0.103	0.165
-638.638	-60.963	0.181	-0.077
-637.624	-14.527	0.106	0.069
-636.609	-43.637	0.316	0.160
-635.595	-27.123	-0.149	0.088
-634.580	-88.808	0.163	-0.049
-633.565	-19.814	-0.182	0.113
-632.551	-200.000	-0.026	0.121
-631.536	-26.295	0.280	-0.166
-630.522	-200.000	0.008	0.087
-629.507	73.430	-0.243	0.256
-628.492	800.000	0.039	-0.161
-627.478	-104.559	-0.283	-0.066
-626.463	163.424	-0.102	-0.144
-625.449	-122.399	0.145	-0.024
-624.434	800.000	-0.028	-0.079
-623.419	800.000	-0.096	-0.296
-622.405	800.000	-0.083	0.237
-621.390	-23.246	0.252	0.152
-620.376	800.000	0.048	-0.173
-619.361	258.243	0.095	-0.165
-618.346	620.644	0.093	-0.236
-617.332	140.252	0.222	0.294
-616.317	110.526	0.187	-0.226
-615.303	-185.476	-0.345	0.005
-614.288	-63.510	-0.087	-0.036
-613.273	-200.000	0.016	0.141
-612.259	234.915	-0.191	-0.317
-611.244	-200.000	0.025	-0.195
-610.230	-109.005	0.127	-0.027
-609.215	-200.000	-0.055	0.346
-608.201	240.578	-0.043	-0.072
-607.186	334.448	0.124	0.241
-606.171	800.000	-0.083	-0.251
-605.157	-164.914	0.015	0.001
-604.142	13.202	-0.260	-0.202
-603.128	361.310	0.050	-0.100
-602.113	-200.000	-0.000	-0.158
-601.098	117.614	0.120	-0.148
-600.084	-200.000	-0.034	-0.217
-599.069	-112.681	-0.361	0.072
-598.055	800.000	-0.034	0.098
-597.040	-200.000	0.017	-0.137
-596.025	32.529	-0.255	0.221
-595.011	126.849	0.151	0.192
-593.996	-70.188	0.400	0.153
-592.982	135.343	-0.058	-0.076
-591.967	-62.566	-0.075	0.031
-590.952	-200.000	0.047	0.234
-589.938	-82.745	-0.169	0.055
-588.923	-66.147	0.172	-0.069
-587.909	19.713	-0.173	0.140
-586.894	248.763	0.166	-0.282
-585.879	250.721	0.122	-0.208
-584.865	383.579	0.062	-0.127
-583.850	3.487	-0.269	0.197
-582.836	800.000	0.041	-0.170
-581.821	15.755	0.254	0.200
-580.806	-143.298	-0.167	0.016
-579.792	191.919	0.117	0.177
-578.777	146.761	0.266	0.359
-577.763	-89.927	0.006	-0.002
-576.748	-200.000	-0.090	-0.441
-575.733	2.610	-0.076	0.056
-574.719	602.977	-0.202	0.504
-573.704	79.182	0.197	0.212
-572.690	-200.000	0.018	0.171
-571.675	33.119	0.139	-0.121
-570.661	416.426	-0.056	-0.121
-569.646	-122.497	0.289	0.047
-568.631	-139.750	0.307	-0.033
-567.617	-42.900	-0.195	-0.099
-566.602	-200.000	-0.003	0.224
-565.588	-200.000	-0.017	0.188
-564.573	111.407	0.098	0.118
-563.558	-94.056	-0.377	0.104
-562.544	-200.000	0.043	-0.300
-561.529	238.402	-0.181	-0.302
-560.515	-55.679	0.297	0.133
-559.500	-200.000	-0.036	-0.365
-558.485	-69.043	0.458	-0.177
-557.471	-91.590	0.332	-0.095
-556.456	-144.600	0.053	-0.005
-555.442	51.762	0.338	-0.322
-554.427	-200.000	-0.044	-0.227
-553.412	-31.302	-0.147	0.083
-552.398	800.000	-0.052	-0.173
-551.383	-115.579	-0.091	-0.017
-550.369	-21.871	0.037	0.023
-549.354	-54.170	-0.305	-0.139
-548.339	-200.000	-0.062	-0.379
-547.325	-141.162	0.079	0.008
-546.310	-148.264	0.118	0.010
-545.296	259.332	-0.084	0.145
-544.281	-153.103	-0.340	-0.024
-543.266	57.772	-0.009	0.009
-542.252	-200.000	0.038	0.256
-541.237	-125.927	-0.441	-0.067
-540.223	-107.930	0.067	-0.015
-539.208	-85.629	0.023	-0.007
-538.193	596.580	0.037	-0.091
-537.179	800.000	-0.154	-0.450
-536.164	-76.851	0.317	0.111
-535.150	737.245	0.046	0.125
-534.135	-124.937	0.491	-0.076
-533.121	-137.510	-0.173	-0.020
-532.106	-200.000	-0.021	-0.194
-531.091	-200.000	0.012	-0.131
-530.077	-33.337	0.225	-0.125
-529.062	33.016	-0.056	-0.048
-528.048	-141.761	-0.241	0.024
-527.033	-108.031	-0.107	0.023
-526.018	-15.199	-0.010	-0.007
-525.004	800.000	-0.051	0.188
-523.989	20.373	-0.189	-0.153
-522.975	-42.713	-0.178	0.091
-521.960	117.187	-0.140	-0.173
-520.945	438.984	0.131	0.287
-519.931	800.000	0.053	0.203
-518.916	113.528	-0.134	0.163
-517.902	-200.000	0.020	0.244
-516.887	20.874	-0.316	-0.257
-515.872	800.000	-0.047	-0.157
-514.858	-168.150	-0.516	0.020
-513.843	59.968	-0.131	-0.129
-512.829	-200.000	-0.028	-0.332
-511.814	314.461	0.034	-0.064
-510.799	327.547	0.118	0.227
-509.785	-13.013	-0.339	-0.221
-508.770	-156.260	-0.394	-0.025
-507.756	-200.000	0.098	-0.510
-506.741	367.223	-0.094	0.190
-505.726	161.729	0.078	-0.109
-504.712	351.282	-0.109	0.216
-503.697	20.675	-0.202	0.164
-502.683	-73.245	0.219	-0.080
-501.668	-142.884	-0.225	0.022
-500.653	-9.217	0.179	-0.120
-499.639	-200.000	-0.068	0.362
-498.624	144.735	-0.045	-0.061
-497.610	52.163	-0.156	-0.149
-496.595	113.232	0.028	-0.034
-495.581	-29.583	-0.042	-0.024
-494.566	800.000	-0.064	-0.213
-493.551	111.269	-0.106	-0.128
-492.537	115.686	0.043	0.052
-491.522	20.173	0.409	-0.330
-490.508	-110.488	0.247	0.051
-489.493	800.000	0.044	0.169
-488.478	-34.567	-0.221	-0.121
-487.464	-71.790	-0.159	0.059
-486.449	268.992	0.078	-0.137
-485.435	567.482	-0.133	0.324
-484.420	-72.230	-0.243	0.090
-483.405	231.194	0.154	0.252
-482.391	-1.217	-0.259	0.183
-481.376	37.450	-0.200	-0.177
-480.362	22.618	0.216	-0.177
-479.347	348.043	-0.124	0.244
-478.332	-1.750	-0.277	0.195
-477.318	693.287	0.070	0.185
-476.303	800.000	0.058	0.231
-475.289	800.000	0.020	0.069
-474.274	45.269	-0.098	0.090
-473.259	238.836	-0.182	-0.302
-472.245	235.908	0.089	-0.147
-471.230	-6.676	0.195	-0.133
-470.216	136.208	-0.260	0.338
-469.201	-32.671	-0.163	0.090
-468.186	-200.000	0.028	0.197
-467.172	25.854	-0.433	-0.361
-466.157	800.000	0.069	-0.246
-465.143	800.000	-0.048	-0.193
-464.128	-106.054	0.109	-0.025
-463.113	-200.000	-0.006	-0.053
-462.099	-155.360	0.302	-0.020
-461.084	-90.111	0.118	-0.034
-460.070	-200.000	-0.010	-0.182
-459.055	34.732	0.190	0.166
-458.040	-24.699	-0.118	0.070
-457.026	-200.000	0.033	0.384
-456.011	7.468	-0.078	0.058
-454.997	28.583	0.244	-0.206
-453.982	36.519	0.113	0.100
-452.968	800.000	0.084	-0.338
-451.953	-76.442	-0.105	-0.037
-450.938	-200.000	-0.025	0.368
-449.924	800.000	0.072	-0.204
-448.909	800.000	-0.081	-0.330
-447.895	-11.034	0.386	0.254
-446.880	-83.338	-0.141	-0.045
-445.865	-41.944	-0.362	-0.185
-444.851	136.832	-0.101	-0.132
-443.836	-88.767	0.497	-0.147
-442.822	-38.816	0.222	-0.117
-441.807	-47.384	-0.152	0.074
-440.792	-200.000	-0.248	0.001
-439.778	71.830	-0.226	-0.235
-438.763	762.702	-0.104	-0.283
-437.749	41.357	0.300	-0.271
-436.734	225.583	0.166	-0.269
-435.719	402.406	-0.226	-0.473
-434.705	-155.225	0.293	-0.019
-433.690	285.003	-0.068	-0.123
-432.676	-37.152	0.180	0.096
-431.661	-200.000	0.018	-0.156
-430.646	-200.000	0.065	-0.346
-429.632	72.995	-0.081	-0.084
-428.617	719.947	-0.056	0.149
-427.603	287.177	0.132	-0.238
-426.588	494.235	0.141	-0.324
-425.573	12.343	0.181	0.139
-424.559	-200.000	-0.027	-0.256
-423.544	-135.212	-0.231	-0.028
-422.530	-89.269	-0.302	0.089
-421.515	35.358	-0.155	-0.136
-420.500	-30.888	0.080	-0.045
-419.486	-200.000	0.005	-0.200
-418.471	-200.000	-0.050	0.249
-417.457	-200.000	-0.013	0.203
-416.442	42.419	0.099	0.089
-415.428	-106.886	0.088	0.019
-414.413	-120.666	-0.275	-0.046
-413.398	189.355	-0.113	0.168
-412.384	-120.471	0.291	-0.049
-411.369	62.849	-0.012	0.012
-410.355	-200.000	-0.002	0.152
-409.340	-25.500	-0.136	0.080
-408.325	-5.607	-0.266	-0.182
-407.311	103.001	-0.117	0.137
-406.296	64.395	0.172	0.173
-405.282	-81.573	-0.325	0.107
-404.267	308.662	0.055	-0.103
-403.252	-187.349	0.218	-0.003
-402.238	753.186	0.142	0.383
-401.223	-49.539	0.364	-0.173
-400.209	-200.000	0.030	-0.227
-399.194	97.308	-0.033	0.037
-398.179	-40.374	-0.251	0.130
-397.165	391.815	0.124	-0.257
-396.150	800.000	-0.041	-0.154
-395.136	318.752	0.186	-0.351
-394.121	231.426	-0.083	0.136
-393.106	210.673	-0.045	-0.071
-392.092	120.442	-0.049	0.061
-391.077	-197.188	0.285	0.002
-390.063	62.007	-0.238	-0.236
-389.048	-97.385	-0.246	-0.064
-388.033	-104.138	-0.131	-0.030
-387.019	704.257	0.093	0.244
-386.004	387.431	0.150	-0.310
-384.990	98.116	-0.277	0.318
-383.975	113.847	0.084	0.102
-382.960	-17.992	-0.159	0.099
-381.946	32.203	0.182	0.157
-380.931	380.334	-0.142	-0.290
-379.917	800.000	0.032	0.089
-378.902	-200.000	0.044	0.354
-377.888	211.112	-0.120	0.189
-376.873	273.988	-0.125	0.219
-375.858	800.000	0.072	0.259
-374.844	-5.837	-0.146	0.099
-373.829	-67.094	-0.429	-0.168
-372.815	-77.739	0.133	-0.046
-371.800	495.144	0.060	0.138
-370.785	-66.017	-0.206	-0.082
-369.771	469.289	-0.074	0.166
-368.756	-13.071	-0.124	0.080
-367.742	238.488	-0.169	-0.280
-366.727	800.000	-0.102	-0.397
-365.712	347.418	-0.073	-0.143
-364.698	800.000	0.079	-0.240
-363.683	-122.422	0.123	0.020
-362.669	-48.163	0.373	0.179
-361.654	71.335	0.104	-0.107
-360.639	-10.070	0.292	0.193
-359.625	800.000	-0.104	0.406
-358.610	-53.758	0.289	0.131
-357.596	-52.600	-0.095	0.044
-356.581	-12.112	-0.195	0.127
-355.566	-9.941	0.330	-0.219
-354.552	-90.203	-0.342	0.099
-353.537	495.823	0.145	0.331
-352.523	-107.186	0.053	0.012
-351.508	-126.340	0.205	-0.030
-350.493	-128.909	-0.026	-0.004
-349.479	3.565	-0.095	-0.069
-348.464	172.642	0.225	0.323
-347.450	-94.294	0.034	-0.009
-346.435	-200.000	0.040	0.238
-345.420	-119.451	0.236	0.041
-344.406	-6.977	0.083	-0.056
-343.391	-18.939	0.184	0.114
-342.377	-54.890	0.356	-0.160
-341.362	-74.963	-0.172	0.061
-340.348	-114.942	-0.265	-0.050
-339.333	366.591	-0.298	0.598
-338.318	22.259	-0.188	0.152
-337.304	-200.000	0.030	-0.189
-336.289	800.000	0.027	-0.092
-335.275	21.882	-0.200	0.162
-334.260	524.986	-0.022	0.053
-333.245	-161.364	-0.217	-0.011
-332.231	800.000	-0.018	0.067
-331.216	-117.731	0.370	-0.066
-330.202	134.159	0.060	0.078
-329.187	800.000	0.014	-0.042
-328.172	-9.834	-0.122	0.081
-327.158	92.457	-0.225	-0.252
-326.143	-97.761	-0.110	0.028
-325.129	-136.582	-0.436	-0.050
-324.114	-30.255	0.268	0.151
-323.099	11.940	-0.270	-0.206
-322.085	-17.633	0.264	0.165
-321.070	800.000	0.069	0.241
-320.056	-8.862	0.061	0.040
-319.041	-115.109	-0.114	-0.021
-318.026	-200.000	-0.007	0.046
-317.012	-141.531	0.248	0.025
-315.997	-153.474	-0.052	0.004
-314.983	-28.880	0.138	0.079
-313.968	42.890	0.138	-0.125
-312.953	-135.777	0.042	0.005
-311.939	122.385	-0.102	0.127
-310.924	-200.000	-0.042	0.224
-309.910	465.687	-0.116	0.258
-308.895	-200.000	0.016	-0.133
-307.880	71.790	0.082	-0.085
-306.866	-104.156	-0.069	0.016
-305.851	11.911	0.178	-0.136
-304.837	-106.944	0.359	0.079
-303.822	449.114	0.169	-0.370
-302.807	-148.570	0.147	-0.012
-301.793	800.000	-0.115	0.364
-300.778	800.000	-0.015	-0.053
-299.764	800.000	0.075	-0.236
-298.749	92.902	-0.294	0.329
-297.735	-144.082	0.334	-0.031
-296.720	-80.029	0.113	0.038
-295.705	-123.840	-0.235	0.037
-294.691	800.000	0.029	-0.103
-293.676	-155.435	0.133	-0.009
-292.662	-73.280	-0.210	0.076
-291.647	-43.625	0.205	-0.103
-290.632	-200.000	-0.030	0.216
-289.618	-200.000	0.015	-0.308
-288.603	-163.441	-0.482	-0.023
-287.589	-200.000	-0.019	-0.276
-286.574	-137.238	-0.104	-0.012
-285.559	-200.000	-0.026	0.135
-284.545	-42.418	-0.243	0.123
-283.530	28.832	0.299	0.251
-282.516	800.000	-0.106	0.365
-281.501	657.357	-0.055	0.139
-280.486	-200.000	-0.066	-0.319
-279.472	101.787	0.271	-0.314
-278.457	189.374	0.101	0.150
-277.443	445.845	0.092	0.201
-276.428	-21.656	-0.198	-0.120
-275.413	-67.201	-0.136	-0.053
-274.399	214.697	-0.016	0.024
-273.384	360.732	0.093	0.184
-272.370	91.926	0.143	0.160
-271.355	138.968	-0.123	-0.160
-270.340	15.680	0.321	-0.251
-269.326	-42.114	-0.191	0.097
-268.311	-149.551	-0.158	-0.012
-267.297	15.453	0.084	-0.066
-266.282	-76.267	-0.334	-0.117
-265.267	-8.231	0.210	0.140
-264.253	-99.273	-0.172	0.043
-263.238	336.417	-0.076	0.147
-262.224	-95.175	0.201	0.054
-261.209	-200.000	0.055	0.275
-260.195	230.019	0.102	0.166
-259.180	-1.422	-0.097	0.068
-258.165	-82.371	-0.215	-0.069
-257.151	-64.970	-0.107	-0.043
-256.136	-120.712	-0.169	0.028
-255.122	800.000	0.060	0.224
-254.107	-184.563	0.188	-0.003
-253.092	-101.432	-0.207	0.050
-252.078	83.659	-0.124	0.134
-251.063	25.343	-0.155	0.128
-250.049	110.859	0.043	0.052
-249.034	122.230	0.156	0.193
-248.019	85.414	-0.178	0.194
-247.005	800.000	-0.046	-0.194
-245.990	656.623	-0.071	0.181
-244.976	113.884	-0.167	-0.201
-243.961	208.021	-0.113	0.174
-242.946	64.790	-0.397	0.397
-241.932	-162.021	0.251	-0.013
-240.917	590.135	0.119	0.291
-239.903	224.644	0.119	-0.191
-238.888	74.414	0.105	-0.109
-237.873	-200.000	-0.018	0.128
-236.859	92.526	0.126	0.141
-235.844	800.000	-0.006	-0.024
-234.830	-72.459	0.104	0.038
-233.815	-28.534	0.428	-0.244
-232.800	-107.530	0.343	-0.074
-231.786	800.000	0.049	0.148
-230.771	-115.020	-0.081	0.015
-229.757	120.355	-0.110	0.135
-228.742	67.410	-0.006	-0.006
-227.727	-108.924	-0.498	-0.105
-226.713	-67.894	0.090	-0.035
-225.698	-128.469	0.081	0.011
-224.684	-200.000	0.032	0.329
-223.669	-119.090	0.166	-0.029
-222.655	11.576	-0.242	-0.184
-221.640	-135.830	-0.068	0.008
-220.625	-132.084	0.369	-0.047
-219.611	-143.998	0.347	0.032
-218.596	53.328	-0.276	0.262
-217.582	-200.000	-0.001	0.150
-216.567	241.250	-0.016	-0.027
-215.552	-67.888	-0.028	-0.011
-214.538	162.275	0.051	0.071
-213.523	-101.527	-0.064	0.016
-212.509	-78.184	0.236	0.080
-211.494	241.509	0.186	0.307
-210.479	218.225	-0.095	-0.149
-209.465	-146.003	0.365	-0.032
-208.450	20.137	-0.111	0.088
-207.436	-200.000	0.016	0.252
-206.421	-65.280	0.136	-0.054
-205.406	39.227	0.342	-0.303
-204.392	-74.356	-0.228	0.081
-203.377	183.235	-0.126	-0.184
-202.363	-200.000	-0.036	-0.205
-201.348	82.358	-0.153	-0.164
-200.333	81.827	0.262	0.280
-199.319	-89.465	-0.029	0.008
-198.304	-60.651	-0.149	0.063
-197.290	628.654	0.067	0.167
-196.275	-174.228	0.242	-0.007
-195.260	-78.980	-0.240	-0.081
-194.246	-141.874	0.347	0.034
-193.231	-47.283	-0.070	0.034
-192.217	-148.749	0.045	0.004
-191.202	-106.408	0.442	-0.098
-190.187	800.000	0.051	-0.214
-189.173	27.237	0.185	-0.153
-188.158	32.260	0.152	-0.129
-187.144	431.685	-0.113	0.243
-186.129	59.755	-0.124	0.121
-185.114	129.417	-0.098	0.123
-184.100	94.626	-0.043	0.048
-183.085	191.552	-0.142	0.211
-182.071	42.919	0.281	0.254
-181.056	161.131	0.134	-0.185
-180.042	-200.000	0.074	0.430
-179.027	140.203	-0.188	0.245
-178.012	134.404	0.054	-0.069
-176.998	-85.269	0.197	0.061
-175.983	354.584	0.138	0.271
-174.969	11.515	-0.137	-0.104
-173.954	800.000	0.071	-0.301
-172.939	800.000	0.004	0.013
-171.925	-176.764	-0.166	0.004
-170.910	36.621	0.257	0.224
-169.896	76.520	-0.130	-0.136
-168.881	-43.837	-0.233	0.116
-167.866	-30.771	-0.126	0.071
-166.852	-80.883	0.074	0.024
-165.837	-200.000	-0.014	-0.135
-164.823	675.408	-0.140	-0.358
-163.808	2.128	0.337	-0.241
-162.793	-86.738	-0.133	-0.040
-161.779	71.345	-0.052	0.054
-160.764	-200.000	-0.022	0.390
-159.750	66.759	0.074	0.074
-158.735	-20.567	0.310	-0.188
-157.720	-20.459	0.253	-0.154
-156.706	0.351	0.286	-0.202
-155.691	20.980	-0.134	-0.108
-154.677	800.000	-0.137	-0.427
-153.662	-176.814	0.058	-0.001
-152.647	45.335	-0.107	-0.098
-151.633	99.805	-0.067	0.077
-150.618	-98.613	0.304	0.077
-149.604	-158.590	-0.318	-0.018
-148.589	-79.313	-0.374	0.125
-147.574	-103.886	0.357	0.082
-146.560	69.082	-0.211	0.214
-145.545	163.977	-0.070	0.097
-144.531	-200.000	0.068	0.333
-143.516	110.290	0.148	0.176
-142.502	-200.000	0.033	0.157
-141.487	-76.388	-0.057	-0.020
-140.472	800.000	-0.060	0.203
-139.458	-62.265	0.071	-0.029
-138.443	-56.987	-0.210	-0.092
-137.429	150.050	-0.245	0.328
-136.414	-200.000	-0.042	-0.333
-135.399	167.172	-0.014	0.020
-134.385	-22.401	-0.200	-0.119
-133.370	35.226	-0.066	0.057
-132.356	3.780	-0.223	-0.161
-131.341	-50.993	-0.252	0.116
-130.326	86.009	0.218	-0.237
-129.312	800.000	-0.127	0.441
-128.297	30.625	0.116	0.098
-127.283	280.470	0.117	0.206
-126.268	53.046	0.159	-0.150
-125.253	79.945	0.008	-0.008
-124.239	98.252	0.165	-0.187
-123.224	-200.000	-0.036	0.385
-122.210	168.828	0.164	-0.230
-121.195	-49.177	-0.475	-0.224
-120.180	485.045	-0.045	-0.100
-119.166	-62.389	-0.093	0.038
-118.151	-68.459	-0.224	-0.086
-117.137	48.283	0.101	0.093
-116.122	-200.000	0.017	-0.110
-115.107	-200.000	0.052	-0.342
-114.093	0.222	-0.068	0.048
-113.078	-200.000	0.049	-0.465
-112.064	-101.071	0.135	0.033
-111.049	-56.289	-0.144	-0.063
-110.034	-200.000	-0.025	0.281
-109.020	-200.000	0.001	-0.132
-108.005	-121.513	0.120	-0.020
-106.991	545.786	-0.082	0.194
-105.976	176.628	-0.035	0.051
-104.962	129.878	-0.060	-0.076
-103.947	-130.401	0.236	0.032
-102.932	252.633	-0.045	-0.076
-101.918	281.889	-0.141	-0.250
-100.903	-51.535	0.043	-0.020
-99.889	286.985	0.253	0.450
-98.874	-114.461	0.060	-0.011
-97.859	-110.907	-0.163	-0.033
-96.845	-66.840	-0.308	-0.120
-95.830	129.491	0.132	0.166
-94.816	800.000	0.124	0.528
-93.801	-200.000	0.025	0.296
-92.786	29.648	0.184	0.154
-91.772	-102.879	-0.521	0.122
-90.757	165.069	0.166	-0.230
-89.743	-133.537	0.136	-0.017
-88.728	800.000	0.130	0.389
-87.713	-17.638	-0.178	0.110
-86.699	223.414	-0.117	0.187
-85.684	800.000	-0.080	0.280
-84.670	156.174	0.061	-0.083
-83.655	699.318	0.115	0.298
-82.640	-200.000	0.050	0.248
-81.626	182.559	-0.080	-0.116
-80.611	-6.376	-0.127	-0.085
-79.597	-74.188	0.276	-0.098
-78.582	229.427	-0.062	0.099
-77.567	-200.000	0.017	0.156
-76.553	-200.000	-0.028	0.265
-75.538	23.003	-0.337	0.272
-74.524	-4.004	0.231	-0.158
-73.509	-200.000	-0.016	-0.070
-72.494	-200.000	0.056	-0.265
-71.480	-91.908	0.294	-0.082
-70.465	30.675	0.224	-0.188
-69.451	-56.916	0.203	-0.088
-68.436	-200.000	-0.017	-0.112
-67.422	80.087	-0.149	-0.158
-66.407	52.870	-0.109	0.102
-65.392	483.981	-0.124	-0.277
-64.378	-200.000	0.050	-0.233
-63.363	42.766	0.257	-0.231
-62.349	555.477	0.091	0.215
-61.334	140.050	-0.630	-0.817
-60.319	-74.642	0.472	0.167
-59.305	800.000	-0.326	-0.972
-58.290	800.000	0.396	1.150
-57.276	501.641	0.723	1.642
-56.261	-200.000	96.128	597.765
-55.246	649.211	1373.986	3457.981
-54.232	198.878	2550.422	3841.747
-53.217	119.818	2159.387	2632.555
-52.203	42.675	1703.521	1525.541
-51.188	35.032	1515.585	1305.321
-50.173	32.616	1489.119	1266.264
-49.159	52.073	1537.687	1440.829
-48.144	53.809	1555.682	1469.485
-47.130	35.264	1515.534	1306.654
-46.115	32.050	1500.934	1272.275
-45.100	31.908	1497.615	1268.447
-44.086	31.931	1495.419	1266.694
-43.071	31.888	1493.271	1264.536
-42.057	31.701	1492.647	1262.696
-41.042	31.808	1490.553	1261.593
-40.027	31.847	1489.060	1260.543
-39.013	31.743	1487.969	1258.872
-37.998	31.770	1486.414	1257.684
-36.984	31.736	1485.352	1256.509
-35.969	31.823	1484.097	1255.982
-34.954	31.849	1482.243	1254.535
-33.940	31.819	1480.967	1253.205
-32.925	31.931	1479.732	1252.859
-31.911	31.833	1478.287	1250.930
-30.896	31.874	1476.821	1249.917
-29.881	31.887	1475.519	1248.849
-28.867	31.982	1473.817	1247.989
-27.852	31.825	1473.050	1246.250
-26.838	31.883	1471.649	1245.400
-25.823	31.880	1469.844	1243.800
-24.809	31.864	1468.458	1242.474
-23.794	31.917	1466.660	1241.254
-22.779	31.829	1465.730	1239.835
-21.765	31.822	1464.438	1238.649
-20.750	31.799	1463.505	1237.655
-19.736	31.832	1462.354	1236.856
-18.721	31.815	1461.074	1235.612
-17.706	31.757	1460.294	1234.518
-16.692	31.742	1458.951	1233.235
-15.677	31.789	1457.938	1232.642
-14.663	31.753	1457.196	1231.727
-13.648	31.844	1456.298	1231.513
-12.633	31.781	1455.127	1230.062
-11.619	31.801	1453.878	1229.088
-10.604	31.846	1453.454	1228.980
-9.590	31.673	1453.131	1227.522
-8.575	31.795	1452.553	1227.782
-7.560	31.846	1450.687	1226.489
-6.546	31.809	1449.886	1225.522
-5.531	31.703	1448.917	1223.964
-4.517	31.712	1448.127	1223.309
-3.502	31.749	1446.391	1222.035
-2.487	31.784	1445.763	1221.680
-1.473	31.712	1444.833	1220.375
-0.458	31.733	1443.709	1219.520
0.556	30.250	1434.227	1208.470
1.571	27.435	1408.322	1168.497
2.586	23.980	1348.227	1097.276
3.600	22.356	1267.888	1022.369
4.615	21.016	1221.831	977.638
5.629	18.218	1166.656	918.409
6.644	10.881	1083.741	816.344
7.659	5.288	1044.535	759.615
8.673	4.528	1039.345	752.094
9.688	4.580	1036.287	750.068
10.702	4.427	1034.812	748.197
11.717	4.484	1032.889	747.015
12.731	6.386	1034.648	757.373
13.746	13.324	1044.110	797.805
14.761	18.363	1049.869	826.512
15.775	18.304	1048.980	825.456
16.790	17.281	1046.691	818.659
17.804	16.242	1044.693	812.027
18.819	15.438	1042.468	806.363
19.834	14.864	1041.264	802.605
20.848	14.572	1040.339	800.422
21.863	14.417	1039.443	798.920
22.877	14.110	1039.078	797.095
23.892	14.051	1038.154	796.035
24.907	13.889	1037.665	794.812
25.921	13.912	1036.418	793.899
26.936	13.945	1035.873	793.567
27.950	14.013	1034.954	793.116
28.965	13.957	1034.276	792.261
29.980	14.177	1032.564	791.925
30.994	14.131	1031.750	791.012
32.009	14.203	1030.722	790.498
33.023	14.237	1030.072	790.089
34.038	14.291	1029.000	789.456
35.053	14.283	1027.727	788.369
36.067	14.104	1027.291	787.120
37.082	14.097	1026.508	786.418
38.096	14.121	1025.703	785.842
39.111	14.043	1025.225	785.038
40.126	14.256	1023.704	784.808
41.140	14.173	1022.794	783.653
42.155	14.071	1021.361	782.003
43.169	13.792	1020.991	780.340
44.184	13.833	1019.606	779.406
45.199	13.901	1018.447	778.769
46.213	13.914	1017.306	777.890
47.228	13.918	1016.659	777.342
48.242	14.052	1015.632	777.116
49.257	14.076	1014.835	776.548
50.271	14.066	1013.891	775.710
51.286	13.944	1013.336	774.648
52.301	14.094	1012.082	774.321
53.315	14.169	1011.228	773.949
54.330	14.046	1010.724	772.923
55.344	13.916	1009.723	771.485
56.359	13.996	1008.480	770.838
57.374	13.892	1007.932	769.869
58.388	13.968	1007.034	769.465
59.403	13.925	1005.981	768.395
60.417	13.816	1005.645	767.567
61.432	13.898	1004.623	767.095
62.447	13.836	1003.896	766.188
63.461	13.666	1003.351	764.919
64.476	13.612	1002.689	764.100
65.490	13.641	1002.003	763.640
66.505	13.640	1000.833	762.677
67.520	13.698	1000.086	762.310
68.534	13.919	999.236	762.609
69.549	13.783	998.759	761.552
70.563	13.644	998.036	760.295
71.578	13.682	997.081	759.676
72.593	13.718	996.086	759.016
73.607	13.568	995.542	757.845
74.622	13.614	994.476	757.180
75.636	13.593	993.575	756.330
76.651	13.500	993.203	755.556
77.666	13.709	992.012	755.532
78.680	13.725	991.395	755.070
79.695	13.599	991.031	754.154
80.709	13.814	990.085	754.346
81.724	13.853	989.575	754.065
82.739	14.000	988.617	753.934
83.753	13.915	988.084	753.079
84.768	13.880	987.242	752.212
85.782	14.138	986.578	752.804
86.797	14.193	985.975	752.527
87.812	14.152	985.114	751.621
88.826	14.027	984.316	750.381
89.841	14.101	983.476	750.007
90.855	14.228	982.433	749.716
91.870	14.192	982.091	749.225
92.884	14.172	981.398	748.540
93.899	14.204	980.590	748.002
94.914	14.182	980.175	747.522
95.928	14.285	979.540	747.434
96.943	14.299	978.512	746.647
97.957	14.119	977.798	745.227
98.972	14.166	977.173	744.899
99.987	14.142	976.401	744.136
101.001	14.030	975.712	743.042
102.016	14.101	974.863	742.648
103.030	14.119	973.932	741.954
104.045	14.233	972.684	741.444
105.060	14.298	971.662	740.889
106.074	14.086	971.601	739.835
107.089	14.004	970.083	738.247
108.103	13.921	969.344	737.251
109.118	13.843	968.331	736.070
110.133	13.839	967.718	735.520
111.147	13.910	966.479	734.831
112.162	13.871	965.817	734.091
113.176	13.920	965.002	733.623
114.191	13.963	964.213	733.147
115.206	13.978	963.501	732.604
116.220	13.921	962.879	731.817
117.235	13.873	961.770	730.697
118.249	13.892	960.762	729.951
119.264	14.070	959.643	729.816
120.279	13.993	958.523	728.565
121.293	13.935	958.298	728.077
122.308	13.873	957.601	727.208
123.322	13.799	956.804	726.214
124.337	13.765	955.789	725.231
125.352	13.597	954.875	723.740
126.366	13.795	953.447	723.455
127.381	13.767	952.862	722.827
128.395	13.695	951.404	721.344
129.410	13.738	950.762	720.981
130.424	13.788	949.965	720.530
131.439	13.893	949.032	720.213
132.454	13.926	948.510	719.897
133.468	13.948	947.752	719.353
134.483	14.001	946.753	718.761
135.497	14.019	946.499	718.581
136.512	13.961	945.711	717.672
137.527	13.902	944.892	716.729
138.541	14.103	943.952	716.819
139.556	13.956	943.182	715.539
140.570	13.827	943.015	714.795
141.585	14.063	941.987	714.968
142.600	14.158	941.429	714.886
143.614	14.186	940.361	714.133
144.629	14.268	939.454	713.734
145.643	14.215	939.140	713.205
146.658	14.190	938.351	712.436
147.673	14.123	937.389	711.357
148.687	14.200	936.036	710.594
149.702	14.031	935.708	709.563
150.716	14.030	934.592	708.647
151.731	14.095	933.848	708.298
152.746	14.079	932.777	707.356
153.760	14.007	932.367	706.677
154.775	14.052	931.472	706.124
155.789	14.080	930.746	705.630
156.804	14.203	930.315	705.762
157.819	14.187	929.301	704.866
158.833	14.236	928.663	704.528
159.848	14.187	928.351	704.019
160.862	14.432	927.202	704.123
161.877	14.231	926.811	702.911
162.892	14.195	926.051	702.124
163.906	14.106	925.056	700.932
164.921	14.029	924.065	699.792
165.935	14.140	922.814	699.251
166.950	14.217	922.094	698.968
167.964	14.116	921.519	698.045
168.979	14.145	920.858	697.603
169.994	14.221	918.888	696.367
171.008	14.106	918.528	695.553
172.023	14.196	917.992	695.460
173.037	14.261	917.044	694.955
174.052	14.369	916.368	694.829
175.067	14.304	915.912	694.152
176.081	14.212	914.966	692.992
177.096	14.150	913.830	691.809
178.110	14.110	913.479	691.318
179.125	14.202	912.639	691.003
180.140	14.272	911.724	690.541
181.154	14.156	911.176	689.581
182.169	14.361	910.448	689.820
183.183	14.268	910.176	689.169
184.198	14.474	909.647	689.559
185.213	14.328	909.374	688.686
186.227	14.429	908.633	688.482
187.242	14.350	908.221	687.782
188.256	14.465	907.154	687.386
189.271	14.578	906.219	687.083
190.286	14.610	905.597	686.684
191.300	14.474	905.183	685.750
192.315	14.359	903.825	684.189
193.329	14.221	903.032	682.961
194.344	14.322	902.335	682.787
195.359	14.189	902.197	682.078
196.373	14.312	901.547	682.030
197.388	14.417	901.520	682.378
198.402	14.620	900.776	682.584
199.417	14.549	900.262	681.843
200.432	14.660	900.047	682.074
201.446	14.812	899.290	682.062
202.461	14.782	899.010	681.666
203.475	14.823	898.904	681.694
204.490	14.748	897.977	680.622
205.504	14.687	897.170	679.704
206.519	14.710	896.238	679.029
207.534	14.728	895.404	678.413
208.548	14.697	894.483	677.531
209.563	14.704	894.198	677.279
210.577	14.672	893.318	676.425
211.592	14.679	893.083	676.215
212.607	14.907	891.906	676.187
213.621	14.839	891.880	675.831
214.636	14.887	891.165	675.422
215.650	14.744	890.858	674.556
216.665	14.864	890.129	674.428
217.680	14.868	889.347	673.791
218.694	14.846	888.968	673.354
219.709	14.942	888.482	673.313
220.723	14.907	887.915	672.684
221.738	14.923	887.055	672.039
222.753	14.968	886.474	671.718
223.767	14.978	885.572	671.017
224.782	15.140	884.530	670.815
225.796	15.097	884.338	670.438
226.811	15.005	883.796	669.600
227.826	15.159	882.904	669.482
228.840	15.070	882.178	668.513
229.855	14.972	881.389	667.467
230.869	14.997	881.369	667.493
231.884	14.903	880.519	666.416
232.899	14.899	879.544	665.603
233.913	14.854	879.021	664.970
234.928	15.011	878.330	665.011
235.942	14.909	877.371	663.822
236.957	14.997	876.722	663.623
237.972	14.935	875.831	662.640
238.986	14.898	875.628	662.283
240.001	15.045	875.209	662.489
241.015	14.957	874.557	661.588
242.030	14.972	873.615	660.876
243.045	15.115	872.855	660.808
244.059	15.208	872.320	660.711
245.074	15.218	871.489	660.064
246.088	15.114	871.302	659.454
247.103	15.077	871.262	659.219
248.117	15.083	870.373	658.512
249.132	15.152	869.658	658.184
250.147	15.428	869.168	658.837
251.161	15.479	868.580	658.536
252.176	15.524	867.949	658.173
253.190	15.537	867.129	657.546
254.205	15.556	866.710	657.243
255.220	15.685	866.175	657.282
256.234	15.648	865.295	656.412
257.249	15.680	864.731	656.051
258.263	15.533	864.872	655.527
259.278	15.720	863.494	655.153
260.293	15.522	863.477	654.311
261.307	15.720	862.865	654.562
262.322	15.753	862.248	654.164
263.336	15.636	861.812	653.319
264.351	15.883	860.820	653.471
265.366	15.683	860.493	652.386
266.380	15.758	859.941	652.202
267.395	15.892	858.858	651.843
268.409	15.864	858.446	651.362
269.424	15.755	857.687	650.309
270.439	15.614	857.347	649.449
271.453	15.875	856.280	649.587
272.468	15.648	855.401	647.991
273.482	15.720	855.075	647.963
274.497	15.741	854.225	647.342
275.512	15.793	853.490	646.927
276.526	15.623	852.912	645.779
277.541	15.656	852.322	645.401
278.555	15.791	851.789	645.458
279.570	15.916	851.211	645.443
280.585	15.897	850.777	644.986
281.599	15.970	850.017	644.629
282.614	15.845	850.123	644.176
283.628	15.933	848.703	643.378
284.643	16.019	848.388	643.410
285.657	15.899	847.648	642.334
286.672	15.985	847.396	642.417
287.687	15.883	847.487	642.040
288.701	15.845	846.677	641.223
289.716	15.887	846.158	640.933
290.730	16.032	845.567	640.982
291.745	15.999	844.589	640.057
292.760	16.127	843.746	639.849
293.774	15.997	843.432	639.059
294.789	16.053	843.042	638.918
295.803	16.139	842.133	638.501
296.818	15.921	841.745	637.323
297.833	15.963	840.968	636.838
298.847	16.096	840.610	637.013
299.862	16.016	839.594	635.885
300.876	16.246	838.512	635.878
301.891	16.184	838.447	635.536
302.906	16.238	838.045	635.379
303.920	16.191	837.223	634.525
304.935	16.286	836.667	634.402
305.949	16.411	836.391	634.605
306.964	16.329	835.835	633.822
307.979	16.385	834.997	633.339
308.993	16.470	834.236	633.024
310.008	16.370	833.870	632.316
311.022	16.378	833.308	631.864
312.037	16.322	833.164	631.491
313.052	16.413	832.413	631.207
314.066	16.286	831.848	630.247
315.081	16.076	831.407	629.075
316.095	16.119	830.775	628.698
317.110	16.193	830.214	628.494
318.125	16.205	829.816	628.184
319.139	16.245	829.063	627.705
320.154	16.331	828.648	627.656
321.168	16.208	828.044	626.685
322.183	16.295	827.415	626.478
323.197	16.419	826.946	626.527
324.212	16.386	826.535	626.037
325.227	16.391	825.794	625.440
326.241	16.433	825.654	625.433
327.256	16.248	824.880	624.108
328.270	16.383	824.270	624.091
329.285	16.466	823.494	623.753
330.300	16.451	823.063	623.317
331.314	16.403	822.624	622.753
332.329	16.455	822.157	622.536
333.343	16.530	821.559	622.302
334.358	16.576	821.119	622.084
335.373	16.490	820.740	621.427
336.387	16.601	820.068	621.268
337.402	16.673	819.323	620.913
338.416	16.700	818.613	620.418
339.431	16.803	817.956	620.246
340.446	16.795	818.001	620.193
341.460	16.867	817.182	619.782
342.475	16.846	816.880	619.422
343.489	16.825	816.461	618.972
344.504	16.887	815.747	618.601
345.519	16.986	815.420	618.660
346.533	16.962	815.269	618.403
347.548	17.018	814.463	617.943
348.562	16.807	813.995	616.765
349.577	16.749	813.409	616.054
350.592	16.829	812.514	615.612
351.606	16.720	812.669	615.279
352.621	16.655	811.612	614.189
353.635	16.759	811.132	614.148
354.650	16.934	810.948	614.589
355.665	16.968	810.316	614.178
356.679	16.946	809.827	613.675
357.694	16.910	809.451	613.206
358.708	16.931	808.810	612.741
359.723	17.029	808.167	612.552
360.738	16.971	807.803	612.013
361.752	16.959	807.365	611.584
362.767	17.112	806.613	611.510
363.781	17.021	807.013	611.433
364.796	17.256	805.918	611.395
365.810	17.199	805.886	611.110
366.825	17.162	805.415	610.567
367.840	17.346	805.102	610.937
368.854	17.268	804.865	610.423
369.869	17.241	803.961	609.586
370.883	17.269	803.241	609.086
371.898	17.314	802.746	608.817
372.913	17.305	802.014	608.179
373.927	17.293	801.546	607.727
374.942	17.390	801.120	607.697
375.956	17.327	800.968	607.302
376.971	17.354	800.321	606.852
377.986	17.527	799.161	606.538
379.000	17.477	799.123	606.277
380.015	17.508	798.911	606.171
381.029	17.473	798.446	605.641
382.044	17.494	797.531	604.967
383.059	17.536	797.102	604.739
384.073	17.578	796.541	604.406
385.088	17.514	796.360	603.992
386.102	17.255	795.795	602.590
387.117	17.482	794.637	602.462
388.132	17.390	794.467	601.954
389.146	17.495	793.597	601.614
390.161	17.473	793.787	601.628
391.175	17.537	793.116	601.291
392.190	17.512	792.949	601.025
393.205	17.395	792.538	600.246
394.219	17.544	791.921	600.252
395.234	17.413	791.608	599.499
396.248	17.512	790.911	599.266
397.263	17.299	790.767	598.356
398.278	17.271	790.227	597.794
399.292	17.387	789.730	597.773
400.307	17.353	789.070	597.101
401.321	17.392	788.884	597.045
402.336	17.393	788.206	596.481
403.350	17.403	788.376	596.594
404.365	17.448	787.837	596.290
405.380	17.658	787.470	596.694
406.394	17.595	786.603	595.766
407.409	17.583	786.390	595.508
408.423	17.837	785.909	595.980
409.438	17.863	785.170	595.459
410.453	17.889	784.920	595.304
411.467	17.990	784.435	595.235
412.482	18.023	783.969	594.945
413.496	18.110	783.437	594.790
414.511	17.929	783.398	594.080
415.526	18.004	783.046	594.023
416.540	18.129	782.757	594.182
417.555	18.005	781.977	593.110
418.569	17.991	781.591	592.715
419.584	18.150	781.083	592.827
420.599	18.062	780.513	592.038
421.613	155.518	1369.992	1794.508
422.628	134.164	1455.907	1794.593
