DTS Sentinel unit serial number:	SN413079Multiplexer serial number:	ORYXHardware model number:	OX4-SRSoftware version number:	ORYX F/W v4.00 Oryx Data Collector v3.7.2.0data status	okinstallation	princeton_trtdifferential loss correction	single-endedforward channel	channel 3reverse channel	N/Adate	2019/09/17time	20:12:35forward acquisition time	60.00reverse acquisition time	0.00gamma	496.2192k internal	0.2328k external	0.2328temperature offset calibration	0.9953default loss term (dB/km)	0.3790temperature slope calibration	1.0000multiplexer offset coefficient	1.0000multiplexer slope coefficient	1.0000fibre end	0.00T internal ref (°C)	32.11T ext. ref 1 (°C)	0.22T ext. ref 2 (°C)	22.31length (m)	temperature (°C)	Stokes	anti-Stokes-747.200	-119.521	0.178	0.031
-746.185	176.458	0.097	0.143
-745.171	140.465	-0.165	0.219
-744.156	-147.969	-0.147	0.012
-743.142	-200.000	-0.023	0.273
-742.127	35.442	0.128	0.114
-741.112	-200.000	0.016	0.096
-740.098	9.783	-0.248	0.190
-739.083	-102.167	0.377	-0.091
-738.069	49.255	0.269	-0.255
-737.054	432.993	0.049	-0.107
-736.039	-66.529	0.317	-0.127
-735.025	211.944	0.148	0.234
-734.010	-200.000	0.034	-0.204
-732.996	60.392	-0.284	0.283
-731.981	41.536	0.087	-0.079
-730.966	39.620	-0.140	-0.127
-729.952	-99.183	0.148	0.038
-728.937	-200.000	-0.028	0.153
-727.923	-51.965	-0.127	0.059
-726.908	-99.963	-0.081	0.020
-725.894	129.850	-0.167	-0.215
-724.879	100.169	0.085	-0.100
-723.864	183.431	0.236	-0.351
-722.850	-4.418	0.292	-0.203
-721.835	37.298	0.079	0.070
-720.821	176.927	-0.042	0.061
-719.806	239.138	0.057	0.096
-718.791	-93.227	0.016	0.005
-717.777	-200.000	-0.020	0.462
-716.762	336.762	-0.170	0.332
-715.748	-70.708	-0.288	0.110
-714.733	33.601	-0.192	0.168
-713.718	-30.592	-0.317	0.181
-712.704	124.546	-0.220	-0.278
-711.689	2.238	-0.178	0.129
-710.675	148.594	0.226	-0.307
-709.660	-157.766	-0.280	-0.017
-708.645	-0.884	0.209	0.149
-707.631	-27.360	-0.151	0.088
-706.616	800.000	0.123	-0.358
-705.602	37.274	-0.213	-0.190
-704.587	-145.780	-0.215	0.019
-703.572	164.827	-0.064	-0.090
-702.558	-135.457	0.092	-0.011
-701.543	158.173	0.089	-0.124
-700.529	141.027	-0.024	0.032
-699.514	-200.000	-0.027	-0.199
-698.499	-114.765	0.056	-0.011
-697.485	800.000	0.059	0.224
-696.470	-200.000	-0.017	-0.086
-695.456	-200.000	-0.023	-0.112
-694.441	40.870	0.250	0.227
-693.426	-200.000	-0.034	0.185
-692.412	-120.616	-0.208	0.035
-691.397	800.000	0.031	-0.130
-690.383	2.952	-0.165	-0.121
-689.368	-200.000	0.029	0.270
-688.354	95.962	-0.169	0.194
-687.339	-127.387	0.513	-0.075
-686.324	-200.000	0.034	-0.186
-685.310	-84.851	0.056	0.018
-684.295	291.949	-0.075	0.137
-683.281	83.993	0.027	0.030
-682.266	-14.771	-0.194	-0.125
-681.251	311.451	-0.187	0.353
-680.237	800.000	0.027	0.117
-679.222	219.261	-0.147	-0.236
-678.208	202.044	0.109	-0.169
-677.193	-200.000	0.009	-0.092
-676.178	252.212	0.052	0.089
-675.164	490.892	-0.087	0.201
-674.149	-200.000	0.007	0.138
-673.135	6.071	-0.213	0.159
-672.120	-200.000	0.012	0.220
-671.105	-157.028	0.082	-0.005
-670.091	800.000	-0.135	-0.567
-669.076	800.000	0.014	0.046
-668.062	363.809	-0.138	0.279
-667.047	183.843	-0.091	-0.135
-666.032	104.462	-0.202	0.239
-665.018	-149.050	0.280	0.023
-664.003	-200.000	0.011	-0.157
-662.989	800.000	-0.066	-0.195
-661.974	3.544	-0.169	0.124
-660.959	-44.810	-0.210	0.105
-659.945	361.396	0.035	-0.070
-658.930	450.234	-0.150	-0.332
-657.916	81.104	0.047	-0.051
-656.901	-73.619	-0.404	0.148
-655.886	-14.653	0.392	-0.253
-654.872	800.000	-0.066	-0.290
-653.857	-76.533	-0.261	0.092
-652.843	800.000	0.086	-0.239
-651.828	-35.659	-0.079	0.043
-650.814	107.310	-0.085	0.101
-649.799	391.839	-0.236	-0.492
-648.784	-54.184	0.103	-0.047
-647.770	-146.259	0.094	0.008
-646.755	329.870	0.200	-0.387
-645.741	-200.000	0.011	-0.228
-644.726	231.540	-0.138	0.228
-643.711	-68.913	-0.342	0.133
-642.697	42.946	-0.269	-0.247
-641.682	-58.781	0.291	-0.127
-640.668	281.679	0.145	-0.262
-639.653	-200.000	0.046	-0.253
-638.638	135.904	0.156	-0.204
-637.624	-69.831	-0.026	-0.010
-636.609	-33.140	0.289	0.161
-635.595	-163.514	-0.153	0.007
-634.580	298.156	-0.092	0.170
-633.565	800.000	0.071	0.268
-632.551	-49.982	0.355	-0.169
-631.536	-200.000	0.024	0.116
-630.522	125.807	0.361	0.458
-629.507	-108.298	0.297	-0.064
-628.492	51.514	0.024	-0.023
-627.478	82.031	-0.135	0.147
-626.463	-119.292	-0.340	0.059
-625.449	-200.000	-0.014	0.089
-624.434	138.950	0.125	-0.165
-623.419	-200.000	0.078	-0.413
-622.405	-37.421	-0.299	0.160
-621.390	-86.064	0.193	0.060
-620.376	89.387	-0.087	-0.097
-619.361	12.540	-0.229	0.177
-618.346	-132.252	-0.062	0.008
-617.332	-142.197	-0.405	0.040
-616.317	358.408	0.146	0.292
-615.303	-106.983	0.322	0.071
-614.288	-14.115	0.144	-0.093
-613.273	481.164	0.060	-0.136
-612.259	-54.312	-0.089	0.041
-611.244	169.946	-0.163	0.233
-610.230	68.120	0.082	-0.084
-609.215	-200.000	-0.002	-0.249
-608.201	-200.000	-0.054	0.273
-607.186	137.098	0.112	0.147
-606.171	-171.544	-0.202	0.007
-605.157	133.352	-0.281	-0.365
-604.142	-171.068	-0.171	0.006
-603.128	-200.000	-0.033	-0.321
-602.113	29.055	0.177	-0.150
-601.098	76.218	0.203	0.215
-600.084	771.783	-0.100	-0.272
-599.069	-78.102	-0.213	-0.073
-598.055	-39.779	-0.212	0.111
-597.040	-76.406	0.166	0.058
-596.025	105.571	-0.023	0.027
-595.011	145.770	-0.162	0.218
-593.996	19.293	-0.235	-0.189
-592.982	135.578	0.195	-0.254
-591.967	109.271	-0.121	0.145
-590.952	-200.000	0.001	0.174
-589.938	-27.485	-0.242	-0.141
-588.923	214.456	0.061	0.097
-587.909	25.879	0.209	0.174
-586.894	-200.000	0.013	0.166
-585.879	207.677	-0.061	-0.096
-584.865	128.450	-0.212	0.270
-583.850	-95.654	-0.056	0.015
-582.836	174.524	-0.116	-0.168
-581.821	322.985	-0.156	-0.297
-580.806	-200.000	0.009	-0.141
-579.792	-200.000	0.027	0.122
-578.777	108.343	0.128	0.152
-577.763	800.000	0.048	0.209
-576.748	-41.520	-0.145	0.075
-575.733	-155.719	-0.152	-0.010
-574.719	-48.688	0.234	-0.113
-573.704	800.000	-0.072	0.211
-572.690	-102.963	0.337	0.080
-571.675	271.997	0.076	-0.135
-570.661	-200.000	-0.000	0.033
-569.646	800.000	0.129	-0.440
-568.631	-129.479	-0.256	0.035
-567.617	-167.600	0.344	0.014
-566.602	155.866	0.084	-0.116
-565.588	-108.743	-0.184	-0.039
-564.573	-59.878	-0.244	-0.104
-563.558	-44.231	0.337	-0.169
-562.544	224.582	0.102	-0.166
-561.529	173.425	0.174	0.252
-560.515	235.167	-0.257	-0.424
-559.500	800.000	0.112	-0.443
-558.485	-93.697	0.305	-0.084
-557.471	800.000	-0.049	0.176
-556.456	402.874	-0.069	-0.144
-555.442	195.540	-0.181	0.276
-554.427	211.968	-0.108	0.169
-553.412	-41.961	0.127	0.065
-552.398	-200.000	-0.008	0.304
-551.383	129.137	0.093	-0.119
-550.369	-110.174	0.100	-0.021
-549.354	-116.921	-0.158	-0.029
-548.339	-200.000	0.053	-0.313
-547.325	800.000	0.032	-0.121
-546.310	292.273	-0.033	-0.061
-545.296	23.423	-0.047	0.039
-544.281	800.000	0.089	0.371
-543.266	-200.000	0.010	0.335
-542.252	-76.064	0.241	0.085
-541.237	-101.990	-0.139	0.034
-540.223	89.216	-0.296	0.330
-539.208	135.039	-0.137	0.178
-538.193	-5.380	-0.241	-0.166
-537.179	-85.203	-0.362	-0.113
-536.164	121.264	-0.079	0.098
-535.150	-200.000	-0.045	0.275
-534.135	43.352	-0.111	0.101
-533.121	37.906	-0.339	-0.301
-532.106	-165.713	0.265	-0.011
-531.091	800.000	0.062	-0.196
-530.077	745.745	0.066	0.177
-529.062	151.850	0.262	0.357
-528.048	-200.000	0.041	-0.309
-527.033	-42.650	0.157	0.080
-526.018	-8.319	-0.137	0.092
-525.004	-104.832	-0.088	-0.020
-523.989	-33.406	0.116	0.064
-522.975	57.448	-0.080	-0.078
-521.960	-144.214	-0.247	-0.023
-520.945	81.888	0.004	-0.005
-519.931	-25.718	-0.036	0.021
-518.916	507.382	-0.101	-0.235
-517.902	-200.000	0.020	-0.156
-516.887	-17.411	-0.191	-0.120
-515.872	108.583	0.076	-0.091
-514.858	800.000	0.040	-0.140
-513.843	-200.000	0.055	0.289
-512.829	-74.609	-0.191	0.069
-511.814	-200.000	0.028	-0.176
-510.799	-85.893	-0.070	-0.022
-509.785	274.719	0.170	-0.301
-508.770	-98.710	0.107	-0.027
-507.756	-65.314	-0.180	0.072
-506.741	99.862	0.148	-0.171
-505.726	267.016	-0.102	-0.178
-504.712	-52.213	0.156	0.072
-503.697	316.047	0.091	-0.171
-502.683	-200.000	0.018	-0.130
-501.668	-200.000	0.031	-0.156
-500.653	193.415	-0.010	0.015
-499.639	-103.842	-0.034	-0.008
-498.624	-124.434	-0.273	-0.042
-497.610	-149.891	-0.072	0.006
-496.595	800.000	-0.023	-0.069
-495.581	-27.403	0.072	-0.042
-494.566	267.088	0.127	0.221
-493.551	6.229	-0.142	-0.105
-492.537	-51.863	0.162	0.075
-491.522	-163.828	-0.184	0.009
-490.508	-200.000	-0.026	0.246
-489.493	-8.563	-0.093	0.062
-488.478	23.732	0.107	-0.088
-487.464	154.206	0.156	-0.214
-486.449	-4.139	0.043	0.030
-485.435	-53.313	-0.277	0.127
-484.420	800.000	-0.055	-0.195
-483.405	-113.437	-0.361	-0.071
-482.391	800.000	-0.046	-0.136
-481.376	-113.964	0.215	0.042
-480.362	-200.000	-0.001	-0.062
-479.347	-84.745	0.184	0.058
-478.332	653.462	-0.060	-0.153
-477.318	-73.009	0.128	-0.047
-476.303	-73.016	0.088	0.032
-475.289	194.203	0.131	-0.198
-474.274	-1.643	-0.038	-0.027
-473.259	178.113	0.149	0.217
-472.245	-102.839	0.070	-0.017
-471.230	183.385	0.258	-0.380
-470.216	-80.552	-0.196	-0.065
-469.201	800.000	-0.066	0.200
-468.186	47.807	-0.406	-0.378
-467.172	-200.000	-0.014	-0.191
-466.157	-200.000	-0.006	0.118
-465.143	321.817	-0.012	0.022
-464.128	101.406	-0.204	-0.237
-463.113	-66.025	0.204	0.081
-462.099	204.096	0.119	0.184
-461.084	127.705	0.104	-0.132
-460.070	800.000	-0.076	0.270
-459.055	-122.841	0.242	-0.039
-458.040	782.650	0.090	0.245
-457.026	96.938	0.114	0.130
-456.011	-200.000	-0.000	0.105
-454.997	-200.000	0.005	0.437
-453.982	485.473	-0.055	-0.125
-452.968	-37.175	-0.124	0.066
-451.953	-200.000	0.024	0.182
-450.938	78.739	0.133	-0.141
-449.924	40.513	-0.082	-0.074
-448.909	-131.358	-0.449	-0.059
-447.895	108.170	0.173	-0.206
-446.880	-200.000	0.014	0.069
-445.865	-110.575	0.355	-0.073
-444.851	-200.000	0.041	0.325
-443.836	231.178	0.089	-0.145
-442.822	1.988	0.188	-0.135
-441.807	-115.218	-0.198	0.037
-440.792	-33.876	0.247	-0.136
-439.778	-21.378	0.295	0.179
-438.763	-35.964	-0.102	0.055
-437.749	28.690	-0.127	0.107
-436.734	66.824	-0.199	0.202
-435.719	-200.000	-0.041	0.473
-434.705	63.409	0.178	0.178
-433.690	-117.683	0.155	0.028
-432.676	-137.507	0.144	0.016
-431.661	-7.870	-0.274	0.184
-430.646	98.667	-0.174	-0.199
-429.632	-200.000	-0.109	-0.000
-428.617	-38.955	0.142	0.075
-427.603	315.060	0.091	0.172
-426.588	59.740	0.231	0.227
-425.573	-14.248	0.296	-0.190
-424.559	-200.000	0.011	-0.148
-423.544	-200.000	-0.036	0.279
-422.530	-59.087	0.406	0.174
-421.515	31.307	-0.055	-0.047
-420.500	10.647	-0.184	0.140
-419.486	26.992	-0.112	0.093
-418.471	-200.000	-0.017	0.094
-417.457	-200.000	-0.056	0.335
-416.442	800.000	0.087	0.376
-415.428	257.413	-0.188	-0.322
-414.413	-114.528	-0.098	-0.019
-413.398	-200.000	-0.077	0.548
-412.384	-9.991	-0.482	0.319
-411.369	213.890	0.062	-0.098
-410.355	-159.806	-0.269	-0.015
-409.340	-23.354	-0.185	-0.111
-408.325	-100.803	-0.021	0.005
-407.311	209.223	-0.156	-0.242
-406.296	-47.689	-0.183	-0.088
-405.282	19.716	0.051	0.041
-404.267	-200.000	0.010	-0.182
-403.252	60.477	0.165	0.162
-402.238	26.986	0.077	0.064
-401.223	-26.860	-0.340	-0.197
-400.209	-34.414	-0.393	-0.214
-399.194	-200.000	-0.000	-0.153
-398.179	-109.948	-0.172	-0.036
-397.165	1.864	0.141	-0.101
-396.150	-168.790	-0.448	-0.017
-395.136	-200.000	-0.049	-0.232
-394.121	-115.190	0.147	0.028
-393.106	-107.624	-0.184	-0.040
-392.092	-116.577	-0.384	-0.070
-391.077	-75.390	0.050	-0.018
-390.063	315.488	-0.018	-0.033
-389.048	70.653	0.319	0.328
-388.033	-200.000	0.013	0.233
-387.019	800.000	0.016	-0.046
-386.004	-69.098	0.160	0.061
-384.990	32.803	-0.094	-0.081
-383.975	-200.000	-0.066	0.671
-382.960	-107.003	-0.314	0.069
-381.946	-76.651	-0.128	0.045
-380.931	650.406	-0.074	0.189
-379.917	-180.135	-0.185	-0.004
-378.902	465.304	0.058	0.128
-377.888	-127.528	0.261	-0.038
-376.873	800.000	0.071	0.241
-375.858	-43.516	0.085	-0.043
-374.844	800.000	0.057	0.186
-373.829	150.742	0.082	-0.110
-372.815	-200.000	-0.013	-0.233
-371.800	800.000	0.005	0.016
-370.785	-106.967	0.254	0.056
-369.771	800.000	-0.104	0.311
-368.756	95.065	0.120	0.136
-367.742	-200.000	-0.050	0.292
-366.727	7.862	0.244	0.182
-365.712	43.953	-0.250	0.227
-364.698	618.786	-0.079	-0.197
-363.683	800.000	0.068	-0.228
-362.669	-63.530	0.124	0.050
-361.654	-72.473	-0.181	0.066
-360.639	800.000	-0.072	-0.208
-359.625	-20.910	-0.235	-0.143
-358.610	65.626	0.233	-0.235
-357.596	-200.000	-0.039	-0.182
-356.581	-200.000	-0.012	0.130
-355.566	560.932	-0.128	-0.308
-354.552	238.616	0.114	-0.188
-353.537	183.648	-0.143	-0.210
-352.523	40.580	-0.211	0.189
-351.508	-200.000	0.024	-0.118
-350.493	-200.000	-0.007	-0.101
-349.479	229.269	0.061	-0.098
-348.464	800.000	-0.063	-0.266
-347.450	-113.484	0.173	0.034
-346.435	81.911	-0.152	0.163
-345.420	-200.000	-0.008	0.476
-344.406	-17.778	0.281	0.175
-343.391	14.792	0.299	0.232
-342.377	-162.741	0.184	0.009
-341.362	-145.520	0.156	0.014
-340.348	52.173	-0.209	0.197
-339.333	98.962	0.049	-0.056
-338.318	601.885	-0.058	0.142
-337.304	-64.693	0.224	-0.090
-336.289	800.000	-0.105	-0.378
-335.275	-200.000	-0.016	-0.112
-334.260	-112.816	0.197	-0.039
-333.245	-53.627	-0.227	0.103
-332.231	-200.000	0.041	0.210
-331.216	-0.315	-0.170	0.120
-330.202	-200.000	-0.019	-0.135
-329.187	-129.613	0.215	-0.029
-328.172	-21.504	0.234	0.141
-327.158	-29.137	-0.161	0.091
-326.143	-129.362	-0.018	-0.002
-325.129	531.988	-0.043	-0.100
-324.114	290.570	0.075	-0.134
-323.099	609.886	0.067	0.167
-322.085	-76.363	-0.176	-0.062
-321.070	-13.641	-0.321	0.206
-320.056	729.201	0.069	-0.183
-319.041	800.000	-0.027	0.116
-318.026	491.919	0.203	-0.461
-317.012	-200.000	0.033	0.184
-315.997	228.886	-0.090	-0.146
-314.983	-200.000	0.007	0.243
-313.968	-115.105	0.092	0.017
-312.953	-84.437	0.079	-0.025
-311.939	-136.967	-0.543	0.062
-310.924	49.283	0.316	0.295
-309.910	44.473	-0.124	-0.113
-308.895	-83.239	-0.158	0.050
-307.880	46.397	0.117	0.107
-306.866	800.000	-0.081	0.277
-305.851	-200.000	0.049	0.478
-304.837	165.607	0.049	-0.068
-303.822	633.717	0.099	-0.249
-302.807	266.289	0.115	0.200
-301.793	800.000	-0.023	-0.085
-300.778	58.531	-0.249	0.242
-299.764	800.000	-0.068	0.220
-298.749	-48.282	-0.254	0.122
-297.735	-84.514	0.258	-0.081
-296.720	-166.440	0.465	0.019
-295.705	-8.337	-0.116	-0.077
-294.691	-108.602	0.195	0.041
-293.676	-88.307	0.489	0.145
-292.662	-200.000	-0.059	0.310
-291.647	-42.944	-0.196	0.098
-290.632	-113.032	0.128	-0.025
-289.618	118.881	0.107	-0.130
-288.603	-200.000	-0.023	-0.399
-287.589	800.000	-0.111	0.414
-286.574	18.306	-0.378	-0.299
-285.559	-82.506	0.188	-0.060
-284.545	44.780	0.217	-0.197
-283.530	800.000	-0.042	-0.146
-282.516	14.922	0.214	-0.166
-281.501	-83.072	0.311	-0.099
-280.486	-139.636	-0.214	0.023
-279.472	800.000	-0.106	-0.349
-278.457	-200.000	0.077	-0.338
-277.443	-141.700	0.218	0.022
-276.428	-200.000	0.000	-0.046
-275.413	-131.553	-0.268	0.035
-274.399	269.034	0.142	0.247
-273.384	-85.369	-0.117	-0.036
-272.370	48.734	-0.174	0.162
-271.355	-93.361	0.063	0.017
-270.340	-200.000	0.018	-0.153
-269.326	63.287	-0.099	0.098
-268.311	-34.090	-0.127	0.069
-267.297	-126.756	0.322	-0.047
-266.282	-6.513	0.019	0.013
-265.267	450.467	-0.126	0.274
-264.253	-183.428	-0.234	-0.004
-263.238	-167.882	-0.157	0.006
-262.224	-111.571	0.126	-0.025
-261.209	9.088	0.154	0.115
-260.195	236.917	0.122	-0.200
-259.180	157.246	-0.094	-0.128
-258.165	69.526	0.030	-0.030
-257.151	251.318	-0.078	0.130
-256.136	-167.279	-0.219	0.009
-255.122	33.036	-0.155	0.133
-254.107	-200.000	0.038	-0.243
-253.092	206.587	0.134	0.206
-252.078	-186.201	-0.145	-0.002
-251.063	220.316	-0.123	-0.195
-250.049	800.000	-0.054	-0.158
-249.034	131.473	0.153	-0.194
-248.019	-200.000	-0.004	-0.033
-247.005	145.376	-0.126	-0.166
-245.990	800.000	0.108	-0.401
-244.976	24.337	0.244	0.199
-243.961	-132.141	0.083	0.011
-242.946	-200.000	-0.053	-0.397
-241.932	4.857	0.174	-0.127
-240.917	-11.147	-0.254	0.166
-239.903	-42.166	0.211	-0.106
-238.888	371.497	-0.185	-0.372
-237.873	96.053	0.136	-0.154
-236.859	-21.806	-0.121	-0.073
-235.844	-200.000	-0.091	-0.401
-234.830	2.399	0.096	-0.069
-233.815	27.081	-0.098	-0.081
-232.800	800.000	-0.087	-0.341
-231.786	-31.154	0.170	0.095
-230.771	-173.320	0.159	0.005
-229.757	39.562	-0.067	0.059
-228.742	6.688	0.292	0.215
-227.727	-62.418	0.170	-0.070
-226.713	-151.883	0.146	0.011
-225.698	-200.000	-0.014	0.138
-224.684	-149.998	-0.085	0.007
-223.669	800.000	-0.102	0.385
-222.655	232.093	-0.153	-0.248
-221.640	-175.373	0.208	0.006
-220.625	57.937	0.391	0.377
-219.611	-200.000	-0.010	-0.151
-218.596	73.932	-0.009	-0.009
-217.582	-200.000	-0.064	-0.340
-216.567	723.930	0.140	0.369
-215.552	-160.092	-0.423	-0.023
-214.538	42.978	-0.227	-0.205
-213.523	181.028	0.080	-0.115
-212.509	-95.101	-0.240	-0.064
-211.494	-66.245	-0.096	-0.038
-210.479	-115.171	-0.188	0.035
-209.465	-41.118	0.357	-0.182
-208.450	-200.000	0.002	-0.186
-207.436	-200.000	0.009	-0.110
-206.421	-200.000	-0.134	-0.597
-205.406	-200.000	0.028	-0.476
-204.392	-46.704	-0.169	0.082
-203.377	61.905	0.252	0.248
-202.363	28.431	0.063	0.052
-201.348	106.600	-0.344	0.402
-200.333	54.197	0.154	-0.146
-199.319	538.227	-0.042	0.098
-198.304	-31.357	0.073	-0.040
-197.290	-184.761	0.348	0.005
-196.275	800.000	0.058	0.200
-195.260	800.000	0.164	0.461
-194.246	-69.373	-0.229	0.087
-193.231	800.000	0.052	-0.178
-192.217	370.608	-0.042	0.083
-191.202	283.942	-0.197	0.350
-190.187	-63.988	0.515	0.208
-189.173	20.001	0.265	-0.211
-188.158	800.000	0.143	0.449
-187.144	20.305	-0.132	0.106
-186.129	-50.192	-0.303	-0.141
-185.114	-182.454	0.295	-0.005
-184.100	-43.711	-0.146	-0.072
-183.085	-200.000	-0.079	-0.378
-182.071	90.292	0.097	-0.107
-181.056	418.607	-0.071	-0.150
-180.042	-200.000	0.005	-0.164
-179.027	-133.930	0.188	0.023
-178.012	-151.531	-0.464	0.034
-176.998	-26.527	-0.210	0.121
-175.983	-200.000	0.014	0.113
-174.969	-160.696	-0.096	0.005
-173.954	-200.000	-0.030	-0.151
-172.939	-51.932	0.154	0.071
-171.925	-163.052	0.315	0.015
-170.910	-200.000	0.026	0.119
-169.896	184.541	-0.055	-0.081
-168.881	-200.000	0.006	-0.106
-167.866	-183.327	-0.248	-0.004
-166.852	-5.491	0.452	0.305
-165.837	14.479	-0.234	-0.180
-164.823	367.492	0.129	0.257
-163.808	16.045	0.133	0.103
-162.793	-200.000	0.022	0.109
-161.779	800.000	0.028	0.097
-160.764	420.542	0.125	-0.264
-159.750	-26.848	0.316	-0.182
-158.735	176.433	0.088	-0.125
-157.720	157.183	0.293	0.400
-156.706	398.328	-0.107	-0.220
-155.691	186.174	0.170	0.250
-154.677	-45.641	-0.066	-0.032
-153.662	-125.120	0.326	0.049
-152.647	199.249	-0.124	-0.188
-151.633	800.000	-0.119	0.351
-150.618	-22.019	0.266	0.159
-149.604	609.186	0.105	-0.259
-148.589	-200.000	0.019	0.095
-147.574	-51.527	-0.345	0.159
-146.560	648.286	-0.081	0.203
-145.545	-200.000	-0.031	0.275
-144.531	-87.545	0.167	0.050
-143.516	-118.473	-0.165	0.029
-142.502	119.161	0.066	0.080
-141.487	84.141	0.056	-0.060
-140.472	149.272	-0.135	-0.179
-139.458	100.232	0.208	-0.237
-138.443	-82.326	-0.281	0.090
-137.429	-13.484	-0.229	0.146
-136.414	-200.000	-0.042	-0.326
-135.399	-61.069	-0.182	0.076
-134.385	-73.563	0.253	0.091
-133.370	-129.037	0.188	-0.026
-132.356	224.968	0.132	0.211
-131.341	-17.517	0.095	0.059
-130.326	685.794	0.116	-0.299
-129.312	19.255	-0.190	0.150
-128.297	-200.000	-0.028	-0.142
-127.283	800.000	-0.047	-0.180
-126.268	-200.000	-0.004	0.264
-125.253	-83.697	-0.034	-0.011
-124.239	-32.315	0.115	0.063
-123.224	-200.000	0.000	0.353
-122.210	726.760	0.070	-0.182
-121.195	408.333	-0.109	-0.227
-120.180	487.210	-0.020	0.045
-119.166	60.189	0.006	0.006
-118.151	71.195	0.162	-0.165
-117.137	-200.000	-0.230	-0.000
-116.122	8.988	-0.272	-0.202
-115.107	-200.000	0.023	0.104
-114.093	-64.065	0.242	0.097
-113.078	-81.782	0.185	0.060
-112.064	200.277	0.190	0.287
-111.049	-134.481	0.118	-0.014
-110.034	800.000	-0.122	0.367
-109.020	546.007	-0.184	-0.431
-108.005	-6.828	0.040	-0.027
-106.991	711.184	0.061	0.160
-105.976	-200.000	-0.075	-0.517
-104.962	-200.000	0.043	0.223
-103.947	100.833	0.076	-0.086
-102.932	78.173	0.272	-0.285
-101.918	-200.000	-0.025	-0.202
-100.903	-200.000	0.005	0.114
-99.889	137.429	0.109	-0.140
-98.874	-47.714	-0.080	-0.038
-97.859	309.398	0.073	-0.133
-96.845	22.686	0.333	0.268
-95.830	-114.914	-0.214	0.040
-94.816	87.145	0.158	-0.171
-93.801	-200.000	-0.013	0.066
-92.786	-70.309	-0.068	-0.025
-91.772	-182.378	-0.352	-0.006
-90.757	-65.128	-0.177	-0.070
-89.743	-200.000	-0.004	0.058
-88.728	-200.000	0.030	0.191
-87.713	-200.000	-0.035	-0.257
-86.699	438.427	-0.078	0.167
-85.684	16.832	-0.138	-0.107
-84.670	-200.000	0.016	0.144
-83.655	800.000	0.050	-0.204
-82.640	-106.148	-0.342	-0.076
-81.626	396.491	0.056	-0.115
-80.611	-130.019	-0.256	0.034
-79.597	170.259	-0.266	0.374
-78.582	-17.358	0.034	-0.021
-77.567	-106.136	0.292	-0.064
-76.553	305.996	0.128	0.235
-75.538	-74.090	0.099	-0.035
-74.524	-200.000	0.049	0.448
-73.509	70.809	-0.285	-0.290
-72.494	379.781	-0.151	0.304
-71.480	-35.624	-0.125	-0.067
-70.465	457.916	0.102	0.222
-69.451	-7.477	-0.199	0.132
-68.436	34.103	0.074	-0.064
-67.422	-200.000	0.022	-0.236
-66.407	-18.481	-0.176	-0.108
-65.392	-37.482	0.253	-0.133
-64.378	55.217	-0.081	-0.077
-63.363	247.536	-0.065	-0.107
-62.349	-176.903	0.262	-0.006
-61.334	53.075	-1.160	-1.090
-60.319	124.912	0.451	0.557
-59.305	800.000	-0.352	-0.991
-58.290	412.611	0.394	0.822
-57.276	800.000	0.610	1.786
-56.261	-200.000	100.590	572.803
-55.246	484.682	1432.340	3198.775
-54.232	154.896	2604.264	3511.668
-53.217	109.842	2164.176	2546.116
-52.203	42.454	1700.721	1517.246
-51.188	35.409	1512.286	1301.512
-50.173	32.897	1485.154	1261.351
-49.159	52.466	1537.220	1439.135
-48.144	53.875	1555.446	1465.733
-47.130	35.361	1513.333	1301.884
-46.115	32.294	1498.631	1268.530
-45.100	32.172	1494.785	1264.400
-44.086	32.186	1492.862	1262.821
-43.071	32.134	1490.906	1260.764
-42.057	32.029	1489.196	1258.565
-41.042	32.133	1488.080	1258.272
-40.027	32.117	1486.927	1257.135
-39.013	32.047	1485.169	1255.133
-37.998	32.020	1483.941	1253.864
-36.984	32.147	1482.667	1253.584
-35.969	32.076	1481.425	1252.016
-34.954	32.104	1479.914	1250.872
-33.940	32.073	1478.852	1249.719
-32.925	32.167	1477.248	1248.937
-31.911	32.295	1475.752	1248.475
-30.896	32.140	1474.352	1246.210
-29.881	32.201	1473.416	1245.775
-28.867	32.121	1472.440	1244.374
-27.852	32.077	1471.361	1243.120
-26.838	32.132	1469.251	1241.649
-25.823	32.197	1468.092	1241.049
-24.809	32.267	1466.019	1239.712
-23.794	32.124	1465.024	1237.881
-22.779	32.187	1464.041	1237.412
-21.765	32.175	1462.890	1236.315
-20.750	32.128	1461.434	1234.726
-19.736	32.133	1460.426	1233.859
-18.721	32.131	1459.464	1232.983
-17.706	32.050	1458.088	1231.240
-16.692	32.007	1457.313	1230.255
-15.677	32.026	1456.290	1229.465
-14.663	32.154	1455.088	1229.238
-13.648	32.084	1454.354	1228.112
-12.633	32.036	1453.331	1226.884
-11.619	32.156	1452.360	1226.800
-10.604	32.076	1451.655	1225.638
-9.590	32.016	1450.646	1224.343
-8.575	32.128	1449.756	1224.272
-7.560	32.067	1448.760	1222.984
-6.546	32.062	1448.269	1222.489
-5.531	32.156	1447.347	1222.276
-4.517	32.060	1446.494	1220.885
-3.502	32.040	1445.284	1219.684
-2.487	32.013	1444.469	1218.772
-1.473	31.958	1443.546	1217.589
-0.458	32.122	1441.728	1217.071
0.556	29.878	1431.705	1201.616
1.571	25.420	1404.063	1149.852
2.586	20.189	1340.117	1065.341
3.600	17.559	1257.302	984.240
4.615	16.062	1211.929	940.292
5.629	13.991	1157.021	886.571
6.644	7.128	1075.576	789.947
7.659	1.284	1036.104	732.736
8.673	0.367	1030.559	724.347
9.688	0.199	1027.498	721.326
10.702	0.131	1026.140	719.985
11.717	0.182	1024.090	718.727
12.731	2.245	1025.711	729.655
13.746	9.396	1035.011	770.557
14.761	15.573	1042.901	806.087
15.775	16.948	1044.303	813.701
16.790	16.543	1042.406	810.210
17.804	15.525	1040.393	803.705
18.819	14.632	1038.477	797.888
19.834	14.207	1036.863	794.547
20.848	13.916	1036.167	792.552
21.863	13.806	1034.639	790.789
22.877	13.359	1034.782	788.702
23.892	13.270	1033.512	787.236
24.907	13.209	1032.688	786.250
25.921	13.194	1032.163	785.710
26.936	13.157	1031.537	784.987
27.950	13.205	1031.123	784.833
28.965	13.315	1029.933	784.379
29.980	13.242	1029.354	783.521
30.994	13.429	1028.024	783.327
32.009	13.400	1027.371	782.623
33.023	13.317	1027.070	781.929
34.038	13.479	1026.234	781.992
35.053	13.348	1025.398	780.664
36.067	13.441	1024.415	780.285
37.082	13.233	1024.066	778.971
38.096	13.313	1022.955	778.434
39.111	13.240	1022.331	777.548
40.126	13.363	1021.332	777.295
41.140	13.339	1019.703	775.874
42.155	13.294	1019.180	775.197
43.169	13.122	1018.264	773.628
44.184	13.161	1017.195	772.930
45.199	13.103	1016.015	771.695
46.213	13.105	1015.063	770.911
47.228	13.190	1013.755	770.246
48.242	13.279	1013.460	770.367
49.257	13.278	1012.277	769.397
50.271	13.317	1011.154	768.655
51.286	13.247	1010.700	767.916
52.301	13.266	1010.034	767.432
53.315	13.316	1009.040	766.842
54.330	13.300	1008.288	766.126
55.344	13.195	1007.531	764.996
56.359	13.220	1006.749	764.452
57.374	13.184	1005.693	763.418
58.388	13.394	1004.620	763.502
59.403	13.139	1004.244	761.972
60.417	13.215	1003.251	761.504
61.432	13.153	1003.035	760.987
62.447	13.029	1002.390	759.858
63.461	13.186	1001.345	759.721
64.476	13.204	1000.273	758.924
65.490	13.136	999.256	757.774
66.505	12.981	999.129	756.896
67.520	13.103	997.929	756.479
68.534	13.192	997.115	756.204
69.549	13.176	996.417	755.535
70.563	13.163	995.496	754.709
71.578	13.090	994.996	753.930
72.593	13.095	993.942	753.090
73.607	13.101	993.225	752.505
74.622	13.002	992.730	751.615
75.636	13.079	991.248	750.775
76.651	13.091	990.538	750.226
77.666	13.154	990.029	750.059
78.680	13.086	989.329	749.155
79.695	13.089	988.592	748.543
80.709	13.058	988.172	748.020
81.724	13.169	987.427	747.890
82.739	13.175	986.534	747.177
83.753	13.283	985.798	747.041
84.768	13.261	985.252	746.462
85.782	13.254	984.577	745.850
86.797	13.233	983.985	745.245
87.812	13.444	982.572	745.058
88.826	13.276	982.302	744.030
89.841	13.223	981.048	742.777
90.855	13.354	980.115	742.594
91.870	13.307	979.698	741.998
92.884	13.455	978.471	741.666
93.899	13.335	978.456	741.052
94.914	13.318	977.460	740.156
95.928	13.443	976.683	740.061
96.943	13.453	976.089	739.592
97.957	13.503	974.981	738.908
98.972	13.325	974.647	737.796
99.987	13.344	973.641	737.055
101.001	13.316	973.289	736.600
102.016	13.354	972.185	735.867
103.030	13.421	970.925	735.147
104.045	13.448	970.280	734.711
105.060	13.376	969.500	733.739
106.074	13.333	968.144	732.456
107.089	13.402	967.369	732.110
108.103	13.332	966.910	731.389
109.118	13.281	966.010	730.416
110.133	13.383	964.799	729.888
111.147	13.278	964.048	728.793
112.162	13.185	963.505	727.908
113.176	13.275	962.113	727.188
114.191	13.202	961.898	726.639
115.206	13.379	960.500	726.296
116.220	13.397	959.839	725.809
117.235	13.334	959.146	724.945
118.249	13.188	958.702	723.908
119.264	13.346	957.767	723.830
120.279	13.272	956.911	722.793
121.293	13.394	955.551	722.237
122.308	13.261	955.534	721.579
123.322	13.301	954.151	720.644
124.337	13.203	953.411	719.593
125.352	13.174	952.189	718.482
126.366	13.264	950.798	717.758
127.381	13.116	950.075	716.509
128.395	13.158	949.393	716.112
129.410	13.183	948.637	715.587
130.424	13.365	947.294	715.297
131.439	13.335	946.435	714.457
132.454	13.292	945.835	713.756
133.468	13.289	945.184	713.190
134.483	13.348	944.380	712.772
135.497	13.384	943.614	712.285
136.512	13.427	942.672	711.697
137.527	13.419	942.270	711.296
138.541	13.236	941.658	709.987
139.556	13.436	940.442	709.864
140.570	13.288	939.862	708.728
141.585	13.429	939.109	708.701
142.600	13.375	938.969	708.305
143.614	13.509	937.410	707.635
144.629	13.432	936.840	706.814
145.643	13.607	935.925	706.810
146.658	13.477	935.680	706.005
147.673	13.529	934.654	705.391
148.687	13.329	933.812	703.843
149.702	13.364	933.079	703.375
150.716	13.429	932.277	702.986
151.731	13.481	930.886	702.094
152.746	13.415	930.490	701.455
153.760	13.397	929.948	700.908
154.775	13.449	929.050	700.389
155.789	13.540	928.244	700.105
156.804	13.501	927.265	699.141
157.819	13.545	926.550	698.725
158.833	13.488	925.873	697.909
159.848	13.557	925.554	697.900
160.862	13.524	925.097	697.354
161.877	13.575	924.275	696.889
162.892	13.495	923.385	695.817
163.906	13.584	922.104	695.165
164.921	13.557	921.381	694.446
165.935	13.455	920.655	693.412
166.950	13.568	919.629	693.049
167.964	13.601	918.926	692.595
168.979	13.654	917.473	691.661
169.994	13.520	917.096	690.755
171.008	13.517	916.305	690.085
172.023	13.682	915.230	689.902
173.037	13.664	914.552	689.257
174.052	13.767	913.753	689.019
175.067	13.617	913.455	688.114
176.081	13.625	912.454	687.330
177.096	13.589	911.861	686.672
178.110	13.575	910.814	685.768
179.125	13.631	910.045	685.356
180.140	13.588	909.501	684.712
181.154	13.732	908.422	684.430
182.169	13.833	908.117	684.556
183.183	13.821	907.502	683.985
184.198	13.815	906.675	683.274
185.213	13.938	905.835	683.087
186.227	13.990	905.353	682.876
187.242	13.887	905.144	682.238
188.256	13.834	904.593	681.545
189.271	13.810	904.112	681.022
190.286	13.933	902.979	680.612
191.300	13.879	901.893	679.514
192.315	13.807	901.407	678.790
193.329	13.755	901.037	678.242
194.344	13.739	899.941	677.290
195.359	13.808	899.724	677.348
196.373	13.810	899.082	676.812
197.388	13.919	898.613	676.846
198.402	13.963	898.137	676.604
199.417	13.993	897.560	676.232
200.432	14.092	897.237	676.332
201.446	14.071	896.985	675.998
202.461	14.143	896.038	675.516
203.475	14.107	896.020	675.297
204.490	14.056	894.970	674.238
205.504	14.081	894.658	674.044
206.519	13.983	893.638	672.821
207.534	14.097	892.644	672.475
208.548	14.008	892.036	671.597
209.563	14.069	891.380	671.289
210.577	14.099	890.913	670.999
211.592	14.167	889.957	670.495
212.607	14.369	889.373	670.806
213.621	14.218	888.899	669.784
214.636	14.342	887.932	669.493
215.650	14.292	887.492	668.901
216.665	14.205	887.193	668.269
217.680	14.303	886.619	668.171
218.694	14.425	885.928	668.079
219.709	14.359	885.527	667.453
220.723	14.246	885.183	666.684
221.738	14.412	883.953	666.360
222.753	14.319	883.334	665.463
223.767	14.255	882.906	664.828
224.782	14.346	882.225	664.618
225.796	14.465	881.606	664.568
226.811	14.599	880.510	664.215
227.826	14.382	880.159	663.029
228.840	14.439	879.313	662.559
229.855	14.416	878.813	662.035
230.869	14.453	877.922	661.448
231.884	14.512	877.927	661.628
232.899	14.396	876.854	660.302
233.913	14.397	876.312	659.840
234.928	14.296	875.858	659.042
235.942	14.512	874.545	658.846
236.957	14.505	874.031	658.375
237.972	14.421	873.721	657.751
238.986	14.298	872.724	656.458
240.001	14.550	872.205	657.002
241.015	14.487	871.666	656.289
242.030	14.449	870.771	655.410
243.045	14.434	870.616	655.173
244.059	14.634	870.119	655.527
245.074	14.423	869.457	654.141
246.088	14.540	868.853	654.088
247.103	14.698	867.945	653.967
248.117	14.633	867.617	653.407
249.132	14.590	867.158	652.834
250.147	14.734	866.409	652.778
251.161	14.757	865.900	652.424
252.176	14.861	864.854	651.985
253.190	14.910	864.023	651.492
254.205	14.845	863.263	650.610
255.220	14.967	863.232	651.004
256.234	14.925	862.804	650.460
257.249	14.893	862.040	649.700
258.263	14.881	861.673	649.320
259.278	14.994	860.474	648.798
260.293	15.002	860.395	648.712
261.307	14.984	859.998	648.285
262.322	14.952	859.366	647.625
263.336	15.029	858.600	647.290
264.351	15.101	857.903	646.986
265.366	15.179	857.551	646.964
266.380	15.034	856.704	645.710
267.395	15.151	856.219	645.737
268.409	15.240	855.300	645.329
269.424	15.056	854.836	644.215
270.439	15.245	853.900	644.179
271.453	15.241	853.243	643.610
272.468	15.207	852.449	642.824
273.482	15.138	851.859	642.058
274.497	15.152	851.207	641.563
275.512	15.018	850.711	640.620
276.526	15.094	850.370	640.597
277.541	15.038	849.518	639.683
278.555	15.231	848.778	639.807
279.570	15.207	848.227	639.243
280.585	15.279	847.501	638.915
281.599	15.433	846.951	639.030
282.614	15.443	846.498	638.670
283.628	15.378	845.840	637.872
284.643	15.361	845.561	637.538
285.657	15.247	845.020	636.641
286.672	15.456	844.680	637.124
287.687	15.312	844.303	636.234
288.701	15.441	843.578	636.119
289.716	15.446	843.022	635.664
290.730	15.555	841.999	635.249
291.745	15.562	841.505	634.848
292.760	15.521	840.883	634.165
293.774	15.499	840.602	633.816
294.789	15.580	839.999	633.609
295.803	15.554	839.277	632.914
296.818	15.531	838.745	632.370
297.833	15.552	838.008	631.834
298.847	15.445	837.550	631.033
299.862	15.582	836.485	630.686
300.876	15.586	836.000	630.281
301.891	15.548	835.502	629.708
302.906	15.735	834.547	629.633
303.920	15.581	834.168	628.713
304.935	15.782	833.619	628.997
305.949	15.884	832.770	628.680
306.964	15.795	832.123	627.804
307.979	15.935	831.668	627.930
308.993	15.870	831.196	627.274
310.008	15.805	830.867	626.729
311.022	15.877	830.149	626.400
312.037	15.876	829.895	626.147
313.052	15.587	829.464	624.692
314.066	15.970	828.617	625.421
315.081	15.841	827.636	624.149
316.095	15.755	827.559	623.717
317.110	15.826	826.834	623.377
318.125	15.962	826.374	623.477
319.139	15.668	825.836	621.929
320.154	15.716	825.645	621.911
321.168	15.769	825.098	621.638
322.183	15.808	824.316	621.137
323.197	15.913	823.719	621.019
324.212	15.958	823.109	620.671
325.227	15.929	822.886	620.341
326.241	15.991	822.155	619.963
327.256	15.847	822.124	619.355
328.270	16.093	820.978	619.340
329.285	16.083	820.822	619.130
330.300	15.945	820.062	617.998
331.314	15.929	819.578	617.518
332.329	15.847	819.043	616.760
333.343	15.960	818.204	616.487
334.358	16.058	817.485	616.249
335.373	16.221	817.166	616.551
336.387	16.099	817.121	616.017
337.402	16.098	816.269	615.317
338.416	16.013	815.777	614.581
339.431	16.239	814.782	614.598
340.446	16.305	814.728	614.746
341.460	16.311	814.004	614.167
342.475	16.301	813.560	613.739
343.489	16.323	812.661	613.088
344.504	16.352	812.633	613.117
345.519	16.507	811.829	613.020
346.533	16.342	811.168	611.869
347.548	16.313	811.046	611.615
348.562	16.421	810.453	611.504
349.577	16.212	810.179	610.488
350.592	16.312	809.334	610.161
351.606	16.277	808.784	609.564
352.621	16.172	808.712	609.080
353.635	16.239	808.302	608.957
354.650	16.363	807.868	609.024
355.665	16.393	807.273	608.628
356.679	16.531	806.360	608.382
357.694	16.504	806.418	608.276
358.708	16.391	805.716	607.288
359.723	16.458	805.304	607.164
360.738	16.404	804.842	606.569
361.752	16.495	804.259	606.400
362.767	16.462	803.970	606.011
363.781	16.518	803.467	605.779
364.796	16.620	802.941	605.694
365.810	16.573	802.776	605.347
366.825	16.618	802.225	605.038
367.840	16.690	801.912	605.005
368.854	16.650	801.554	604.540
369.869	16.631	801.034	604.026
370.883	16.807	800.283	604.036
371.898	16.697	799.582	603.059
372.913	16.740	799.111	602.803
373.927	16.718	798.429	602.157
374.942	16.634	797.930	601.432
375.956	16.672	797.865	601.461
376.971	16.720	796.885	600.841
377.986	16.729	796.562	600.575
379.000	16.863	795.763	600.396
380.015	16.919	795.234	600.140
381.029	17.009	795.126	600.326
382.044	16.860	794.255	599.089
383.059	16.957	793.414	598.744
384.073	16.952	793.190	598.504
385.088	16.949	792.746	598.106
386.102	16.816	792.304	597.248
387.117	16.940	791.709	597.185
388.132	16.957	791.107	596.738
389.146	16.947	790.879	596.480
390.161	16.930	790.681	596.217
391.175	16.925	790.334	595.883
392.190	16.988	789.702	595.577
393.205	17.066	789.246	595.454
394.219	17.044	788.594	594.830
395.234	17.081	788.131	594.558
396.248	16.904	787.885	593.701
397.263	17.057	787.291	593.735
398.278	16.967	786.536	592.799
399.292	17.071	786.520	593.099
400.307	16.948	786.168	592.352
401.321	17.082	785.443	592.220
402.336	17.099	785.005	591.897
403.350	17.165	784.765	591.893
404.365	17.206	784.610	591.869
405.380	16.994	784.240	590.797
406.394	17.225	783.443	590.949
407.409	17.283	782.883	590.674
408.423	17.223	782.849	590.389
409.438	17.200	782.369	589.893
410.453	17.369	781.876	590.055
411.467	17.359	781.404	589.614
412.482	17.519	780.775	589.642
413.496	17.511	780.153	589.092
414.511	17.470	779.888	588.699
415.526	17.431	779.668	588.343
416.540	17.540	779.228	588.337
417.555	17.503	778.703	587.761
418.569	17.527	778.374	587.543
419.584	17.508	777.972	587.123
420.599	17.557	777.545	586.918
421.613	109.003	1288.970	1463.679
422.628	93.198	1363.469	1463.798
